Data from BU58127_Reflection_00011.txt Node
Date: Mon Nov 18 16:44:22 EST 2019
User: vgr7
Spectrometer: USB2G7710
Scans to average: 3
Trigger mode: 4
Integration Time (sec): 2.000000E-2
Electric dark correction enabled: true
Boxcar width: 10
XAxis mode: Wavelengths
Number of Pixels in Spectrum: 2048
>>>>>Begin Spectral Data<<<<<
177.721	814.98
178.105	189.2
178.488	228.92
178.871	127.78
179.254	155.14
179.636	23.61
180.019	37.23
180.402	125
180.785	-325.12
181.168	-696.3
181.55	1115.87
181.933	98.17
182.316	105.9
182.698	261.55
183.081	320.77
183.463	404.68
183.846	530.34
184.228	439.47
184.611	319.26
184.993	2019.19
185.376	554.21
185.758	-3848.72
186.14	317.86
186.522	218.97
186.904	145.73
187.287	234.35
187.669	-1047.29
188.051	294.62
188.433	3803.7
188.815	-53.61
189.197	-169.11
189.579	-45.15
189.961	-71.66
190.342	-71.01
190.724	-22.84
191.106	-14.02
191.488	-13.16
191.869	-3.87
192.251	-60.83
192.633	-32.07
193.014	-20.83
193.396	-35.71
193.777	-40.29
194.159	-35.87
194.54	-18.77
194.922	-18.06
195.303	-14.73
195.684	-19.18
196.065	-2.19
196.447	-8.31
196.828	-41.83
197.209	-17.76
197.59	-10.2
197.971	1.78
198.352	11.05
198.733	20.57
199.114	15.63
199.495	4.87
199.876	-0.62
200.257	6.81
200.638	13.52
201.018	9.84
201.399	11.61
201.78	10.68
202.16	-5.97
202.541	0.28
202.922	-8.04
203.302	-13.79
203.683	-11.69
204.063	-23.1
204.444	-9.56
204.824	-2.88
205.204	-11.29
205.585	-23.12
205.965	-19.96
206.345	-25.66
206.725	-30.34
207.106	-30.08
207.486	-31.71
207.866	-29.67
208.246	-27.86
208.626	-52.44
209.006	-54.49
209.386	-51.84
209.766	-52.35
210.145	-22.25
210.525	-8.3
210.905	10.67
211.285	17.39
211.664	32.13
212.044	44.77
212.424	39.11
212.803	50.25
213.183	47.35
213.562	65.36
213.942	52.55
214.321	53.72
214.701	54.6
215.08	49.21
215.459	40.86
215.838	30.49
216.218	38.81
216.597	50.44
216.976	55.67
217.355	62.83
217.734	50.01
218.113	28.76
218.492	17.52
218.871	5.3
219.25	-2.36
219.629	-4.36
220.008	-2.91
220.387	7.45
220.766	-1.09
221.144	-4.51
221.523	-8.42
221.902	-19.36
222.28	-24.83
222.659	-22.86
223.037	-17.41
223.416	-3.97
223.794	1.06
224.173	1.38
224.551	5.41
224.929	-4.8
225.308	-2.38
225.686	1.2
226.064	2.11
226.442	-1.21
226.821	-0.26
227.199	-0.32
227.577	-4.34
227.955	-6.25
228.333	-7.6
228.711	-5.16
229.089	-1.9
229.467	-2.62
229.845	-0.95
230.222	0.73
230.6	1.1
230.978	-0.54
231.356	-0.51
231.733	0.63
232.111	0.97
232.488	-0.39
232.866	-0.22
233.243	0.46
233.621	-0.95
233.998	1.79
234.376	2.13
234.753	3.1
235.13	5.91
235.508	7.59
235.885	6.13
236.262	4.98
236.639	5.09
237.016	5.81
237.393	7.16
237.77	7.61
238.147	7.89
238.524	7.68
238.901	8.25
239.278	7.86
239.655	8.32
240.032	8
240.409	7.69
240.785	7.54
241.162	7.08
241.539	7.48
241.915	7.3
242.292	7.3
242.668	6.82
243.045	6.16
243.421	5.78
243.798	5.83
244.174	5.36
244.551	5.26
244.927	4.94
245.303	5.13
245.679	5
246.056	4.63
246.432	4.53
246.808	4.48
247.184	4.23
247.56	4.03
247.936	3.92
248.312	3.85
248.688	3.91
249.064	3.82
249.44	3.69
249.815	3.77
250.191	3.98
250.567	3.92
250.943	3.83
251.318	3.7
251.694	3.71
252.069	3.82
252.445	3.88
252.82	3.75
253.196	3.37
253.571	3.05
253.947	3.59
254.322	3.75
254.697	3.67
255.073	3.44
255.448	3.32
255.823	3.38
256.198	3.3
256.573	3.31
256.948	3.51
257.323	3.67
257.698	3.58
258.073	3.35
258.448	3.44
258.823	3.45
259.198	3.61
259.573	3.57
259.948	3.56
260.322	3.57
260.697	3.51
261.072	3.37
261.446	3.58
261.821	3.26
262.195	3.14
262.57	3.1
262.944	3.21
263.319	3.18
263.693	3.2
264.067	3.42
264.442	3.49
264.816	3.35
265.19	3.18
265.564	3.12
265.938	3.07
266.313	3.03
266.687	3.07
267.061	2.98
267.435	3.12
267.809	3.2
268.183	3.19
268.556	3.2
268.93	3.35
269.304	3.24
269.678	3.31
270.051	3.33
270.425	3.45
270.799	3.51
271.172	3.62
271.546	3.66
271.919	3.5
272.293	3.49
272.666	3.61
273.04	3.69
273.413	3.7
273.787	3.78
274.16	3.74
274.533	3.87
274.906	3.91
275.279	3.89
275.653	3.82
276.026	3.88
276.399	3.92
276.772	4.06
277.145	4.09
277.518	4.12
277.891	4.25
278.263	4.04
278.636	3.9
279.009	3.91
279.382	3.92
279.755	3.9
280.127	3.93
280.5	3.82
280.872	3.78
281.245	3.63
281.617	3.62
281.99	3.76
282.362	3.65
282.735	3.5
283.107	3.43
283.479	3.45
283.852	3.43
284.224	3.39
284.596	3.32
284.968	3.31
285.34	3.39
285.713	3.28
286.085	3.43
286.457	3.58
286.829	3.48
287.201	3.52
287.572	3.47
287.944	3.39
288.316	3.35
288.688	3.27
289.06	3.36
289.431	3.45
289.803	3.41
290.175	3.31
290.546	3.54
290.918	3.52
291.289	3.57
291.661	3.55
292.032	3.82
292.403	3.7
292.775	3.89
293.146	3.76
293.517	3.82
293.889	3.81
294.26	3.8
294.631	3.88
295.002	3.85
295.373	4.04
295.744	4.16
296.115	4.3
296.486	4.45
296.857	4.45
297.228	4.49
297.599	4.52
297.97	4.71
298.34	4.58
298.711	4.67
299.082	4.71
299.452	4.73
299.823	4.71
300.194	4.85
300.564	4.79
300.935	4.97
301.305	5.04
301.676	5.13
302.046	5.15
302.416	5.39
302.787	5.44
303.157	5.42
303.527	5.62
303.897	5.72
304.267	5.91
304.637	6.07
305.008	6.2
305.378	6.37
305.748	6.59
306.117	6.75
306.487	6.97
306.857	7.11
307.227	7.3
307.597	7.38
307.967	7.5
308.336	7.48
308.706	7.59
309.076	7.7
309.445	7.72
309.815	7.85
310.184	7.86
310.554	7.94
310.923	8.1
311.293	8.13
311.662	8.12
312.031	8.11
312.401	8.2
312.77	8.35
313.139	8.43
313.508	8.36
313.877	8.4
314.246	8.47
314.616	8.57
314.985	8.57
315.353	8.56
315.722	8.79
316.091	8.92
316.46	8.92
316.829	9.02
317.198	9.21
317.567	9.37
317.935	9.33
318.304	9.26
318.672	9.25
319.041	9.28
319.41	9.43
319.778	9.45
320.147	9.51
320.515	9.37
320.883	9.4
321.252	9.49
321.62	9.74
321.988	9.81
322.357	9.87
322.725	10.07
323.093	10.35
323.461	10.31
323.829	10.38
324.197	10.5
324.565	10.63
324.933	10.59
325.301	10.61
325.669	10.69
326.037	10.98
326.405	11.03
326.772	11.08
327.14	11.12
327.508	11.19
327.875	11.25
328.243	11.3
328.61	11.32
328.978	11.32
329.346	11.37
329.713	11.32
330.08	11.45
330.448	11.31
330.815	11.19
331.182	11.16
331.55	11.22
331.917	11.3
332.284	11.35
332.651	11.32
333.018	11.36
333.385	11.51
333.752	11.48
334.119	11.51
334.486	11.65
334.853	11.63
335.22	11.67
335.587	11.64
335.954	11.61
336.32	11.73
336.687	11.87
337.054	11.83
337.42	11.87
337.787	11.81
338.153	11.96
338.52	12.11
338.886	12.19
339.253	12.28
339.619	12.22
339.986	12.21
340.352	12.37
340.718	12.35
341.084	12.29
341.451	12.42
341.817	12.57
342.183	12.41
342.549	12.42
342.915	12.47
343.281	12.5
343.647	12.55
344.013	12.51
344.379	12.51
344.745	12.55
345.11	12.59
345.476	12.61
345.842	12.64
346.208	12.66
346.573	12.67
346.939	12.74
347.304	12.8
347.67	12.81
348.035	12.84
348.401	12.88
348.766	12.93
349.132	12.83
349.497	12.76
349.862	12.83
350.228	12.94
350.593	12.92
350.958	12.87
351.323	12.98
351.688	13
352.053	12.99
352.418	13.05
352.783	12.99
353.148	13
353.513	12.98
353.878	12.93
354.243	12.99
354.608	13.05
354.972	13.03
355.337	13
355.702	12.89
356.066	12.92
356.431	12.89
356.795	12.91
357.16	12.85
357.524	12.78
357.889	12.74
358.253	12.73
358.618	12.76
358.982	12.63
359.346	12.6
359.71	12.62
360.075	12.51
360.439	12.53
360.803	12.54
361.167	12.48
361.531	12.44
361.895	12.36
362.259	12.21
362.623	12.15
362.987	12.06
363.351	12.04
363.714	12.02
364.078	12
364.442	11.96
364.806	11.83
365.169	11.78
365.533	11.72
365.896	11.66
366.26	11.59
366.623	11.6
366.987	11.49
367.35	11.32
367.714	11.27
368.077	11.15
368.44	11.06
368.803	10.95
369.167	10.85
369.53	10.77
369.893	10.71
370.256	10.64
370.619	10.58
370.982	10.43
371.345	10.28
371.708	10.16
372.071	9.98
372.434	9.92
372.797	9.89
373.159	9.77
373.522	9.67
373.885	9.54
374.247	9.42
374.61	9.4
374.973	9.34
375.335	9.26
375.698	9.25
376.06	9.14
376.423	9.04
376.785	8.97
377.147	8.91
377.51	8.83
377.872	8.79
378.234	8.77
378.596	8.78
378.958	8.69
379.321	8.66
379.683	8.61
380.045	8.57
380.407	8.41
380.769	8.32
381.13	8.27
381.492	8.27
381.854	8.22
382.216	8.12
382.578	8.04
382.939	7.92
383.301	7.82
383.663	7.77
384.024	7.73
384.386	7.69
384.747	7.6
385.109	7.56
385.47	7.47
385.832	7.41
386.193	7.36
386.554	7.26
386.916	7.15
387.277	7.13
387.638	7.11
387.999	7.07
388.36	7.03
388.721	6.98
389.082	6.92
389.443	6.83
389.804	6.76
390.165	6.74
390.526	6.72
390.887	6.65
391.248	6.61
391.609	6.56
391.969	6.48
392.33	6.38
392.691	6.32
393.051	6.22
393.412	6.13
393.772	6.04
394.133	6.02
394.493	6
394.854	5.95
395.214	5.83
395.574	5.81
395.935	5.73
396.295	5.66
396.655	5.57
397.015	5.5
397.376	5.47
397.736	5.39
398.096	5.33
398.456	5.3
398.816	5.23
399.176	5.16
399.535	5.13
399.895	5.11
400.255	5.06
400.615	5.09
400.975	5.07
401.334	5.03
401.694	4.98
402.054	4.9
402.413	4.85
402.773	4.85
403.132	4.83
403.492	4.81
403.851	4.8
404.211	4.77
404.57	4.78
404.929	4.73
405.288	4.69
405.648	4.65
406.007	4.62
406.366	4.57
406.725	4.57
407.084	4.53
407.443	4.52
407.802	4.49
408.161	4.43
408.52	4.39
408.879	4.34
409.238	4.35
409.596	4.38
409.955	4.36
410.314	4.37
410.673	4.32
411.031	4.29
411.39	4.24
411.748	4.25
412.107	4.23
412.465	4.2
412.824	4.19
413.182	4.18
413.54	4.17
413.899	4.16
414.257	4.14
414.615	4.13
414.974	4.12
415.332	4.12
415.69	4.09
416.048	4.07
416.406	4.09
416.764	4.04
417.122	4.02
417.48	3.97
417.838	3.93
418.195	3.93
418.553	3.91
418.911	3.88
419.269	3.86
419.626	3.83
419.984	3.81
420.342	3.81
420.699	3.77
421.057	3.75
421.414	3.73
421.772	3.7
422.129	3.68
422.486	3.67
422.844	3.66
423.201	3.64
423.558	3.63
423.915	3.61
424.273	3.6
424.63	3.56
424.987	3.57
425.344	3.56
425.701	3.55
426.058	3.53
426.415	3.53
426.772	3.5
427.128	3.49
427.485	3.49
427.842	3.48
428.199	3.5
428.555	3.49
428.912	3.47
429.269	3.48
429.625	3.46
429.982	3.44
430.338	3.43
430.695	3.45
431.051	3.44
431.407	3.43
431.764	3.44
432.12	3.44
432.476	3.43
432.832	3.43
433.189	3.44
433.545	3.43
433.901	3.43
434.257	3.44
434.613	3.44
434.969	3.44
435.325	3.44
435.681	3.41
436.036	3.42
436.392	3.41
436.748	3.41
437.104	3.41
437.459	3.38
437.815	3.38
438.171	3.36
438.526	3.35
438.882	3.35
439.237	3.36
439.593	3.39
439.948	3.37
440.304	3.36
440.659	3.35
441.014	3.36
441.369	3.36
441.725	3.34
442.08	3.35
442.435	3.34
442.79	3.31
443.145	3.32
443.5	3.31
443.855	3.31
444.21	3.29
444.565	3.28
444.92	3.3
445.275	3.29
445.629	3.29
445.984	3.3
446.339	3.28
446.693	3.24
447.048	3.21
447.403	3.21
447.757	3.2
448.112	3.18
448.466	3.17
448.82	3.16
449.175	3.16
449.529	3.14
449.883	3.12
450.238	3.13
450.592	3.11
450.946	3.1
451.3	3.09
451.654	3.11
452.008	3.1
452.362	3.09
452.716	3.06
453.07	3.06
453.424	3.04
453.778	3.04
454.132	3.06
454.486	3.04
454.839	3.04
455.193	3.04
455.547	3.04
455.9	3.01
456.254	3.03
456.607	3.02
456.961	3.02
457.314	3.01
457.668	3.02
458.021	3.03
458.375	3.04
458.728	3.04
459.081	3.03
459.434	3.03
459.787	3.03
460.141	3.05
460.494	3.05
460.847	3.06
461.2	3.06
461.553	3.05
461.906	3.09
462.259	3.09
462.611	3.08
462.964	3.1
463.317	3.14
463.67	3.14
464.022	3.15
464.375	3.15
464.728	3.17
465.08	3.16
465.433	3.15
465.785	3.14
466.138	3.16
466.49	3.16
466.843	3.18
467.195	3.17
467.547	3.18
467.899	3.18
468.252	3.19
468.604	3.21
468.956	3.2
469.308	3.2
469.66	3.2
470.012	3.23
470.364	3.25
470.716	3.25
471.068	3.28
471.42	3.28
471.772	3.31
472.123	3.32
472.475	3.35
472.827	3.36
473.178	3.39
473.53	3.38
473.882	3.41
474.233	3.41
474.585	3.43
474.936	3.44
475.288	3.46
475.639	3.46
475.99	3.45
476.342	3.45
476.693	3.45
477.044	3.49
477.395	3.47
477.746	3.45
478.097	3.44
478.448	3.42
478.8	3.43
479.15	3.42
479.501	3.4
479.852	3.38
480.203	3.39
480.554	3.39
480.905	3.4
481.255	3.4
481.606	3.4
481.957	3.4
482.307	3.38
482.658	3.38
483.009	3.37
483.359	3.37
483.709	3.38
484.06	3.38
484.41	3.36
484.761	3.36
485.111	3.37
485.461	3.36
485.811	3.36
486.162	3.36
486.512	3.36
486.862	3.36
487.212	3.36
487.562	3.36
487.912	3.36
488.262	3.35
488.612	3.35
488.961	3.34
489.311	3.35
489.661	3.36
490.011	3.35
490.36	3.35
490.71	3.35
491.06	3.34
491.409	3.36
491.759	3.36
492.108	3.38
492.458	3.39
492.807	3.4
493.157	3.41
493.506	3.42
493.855	3.43
494.204	3.44
494.554	3.47
494.903	3.46
495.252	3.48
495.601	3.51
495.95	3.52
496.299	3.53
496.648	3.55
496.997	3.57
497.346	3.62
497.695	3.67
498.043	3.7
498.392	3.75
498.741	3.77
499.09	3.8
499.438	3.83
499.787	3.87
500.135	3.92
500.484	3.95
500.832	3.99
501.181	4.04
501.529	4.09
501.878	4.12
502.226	4.2
502.574	4.24
502.923	4.3
503.271	4.37
503.619	4.44
503.967	4.49
504.315	4.53
504.663	4.59
505.011	4.61
505.359	4.68
505.707	4.74
506.055	4.8
506.403	4.85
506.751	4.92
507.098	4.99
507.446	5.1
507.794	5.16
508.141	5.23
508.489	5.28
508.837	5.37
509.184	5.47
509.531	5.56
509.879	5.67
510.226	5.76
510.574	5.82
510.921	5.89
511.268	5.98
511.616	6.07
511.963	6.17
512.31	6.28
512.657	6.39
513.004	6.48
513.351	6.59
513.698	6.69
514.045	6.79
514.392	6.91
514.739	6.99
515.086	7.13
515.432	7.26
515.779	7.37
516.126	7.49
516.473	7.6
516.819	7.69
517.166	7.78
517.512	7.9
517.859	8.03
518.205	8.15
518.552	8.26
518.898	8.35
519.245	8.45
519.591	8.56
519.937	8.64
520.283	8.75
520.629	8.89
520.976	9.02
521.322	9.18
521.668	9.3
522.014	9.45
522.36	9.59
522.706	9.74
523.052	9.89
523.398	10.05
523.743	10.22
524.089	10.4
524.435	10.55
524.781	10.71
525.126	10.82
525.472	10.94
525.817	11.07
526.163	11.19
526.509	11.29
526.854	11.39
527.199	11.5
527.545	11.59
527.89	11.67
528.235	11.77
528.581	11.85
528.926	11.96
529.271	12.05
529.616	12.14
529.961	12.23
530.306	12.36
530.651	12.45
530.996	12.56
531.341	12.67
531.686	12.8
532.031	12.91
532.376	13.05
532.721	13.19
533.065	13.33
533.41	13.47
533.755	13.64
534.099	13.78
534.444	13.93
534.788	14.09
535.133	14.24
535.477	14.4
535.822	14.57
536.166	14.74
536.51	14.91
536.855	15.11
537.199	15.32
537.543	15.48
537.887	15.72
538.231	15.91
538.576	16.09
538.92	16.28
539.264	16.47
539.608	16.63
539.951	16.8
540.295	16.97
540.639	17.12
540.983	17.28
541.327	17.44
541.671	17.59
542.014	17.75
542.358	17.92
542.701	18.09
543.045	18.23
543.389	18.38
543.732	18.58
544.075	18.74
544.419	18.94
544.762	19.12
545.105	19.29
545.449	19.51
545.792	19.75
546.135	19.98
546.478	20.22
546.821	20.49
547.165	20.73
547.508	20.99
547.851	21.23
548.194	21.48
548.536	21.73
548.879	22
549.222	22.26
549.565	22.53
549.908	22.79
550.25	23.08
550.593	23.36
550.936	23.61
551.278	23.92
551.621	24.19
551.963	24.48
552.306	24.74
552.648	24.99
552.991	25.22
553.333	25.5
553.675	25.71
554.017	25.96
554.36	26.23
554.702	26.52
555.044	26.78
555.386	27.09
555.728	27.4
556.07	27.73
556.412	27.98
556.754	28.23
557.096	28.52
557.438	28.79
557.78	29.14
558.121	29.44
558.463	29.76
558.805	30.04
559.147	30.34
559.488	30.69
559.83	31.02
560.171	31.34
560.513	31.63
560.854	31.96
561.196	32.29
561.537	32.55
561.878	32.82
562.22	33.17
562.561	33.47
562.902	33.76
563.243	34.01
563.584	34.34
563.925	34.65
564.266	34.99
564.607	35.22
564.948	35.46
565.289	35.7
565.63	35.96
565.971	36.24
566.312	36.51
566.653	36.75
566.993	36.98
567.334	37.24
567.675	37.55
568.015	37.85
568.356	38.08
568.696	38.43
569.037	38.67
569.377	38.88
569.718	39.11
570.058	39.34
570.398	39.57
570.739	39.82
571.079	40.06
571.419	40.2
571.759	40.49
572.099	40.74
572.439	40.98
572.779	41.18
573.119	41.39
573.459	41.62
573.799	41.84
574.139	42.1
574.479	42.35
574.819	42.5
575.158	42.68
575.498	42.88
575.838	43.03
576.177	43.24
576.517	43.48
576.856	43.65
577.196	43.86
577.535	44.18
577.875	44.4
578.214	44.66
578.553	45.02
578.893	45.18
579.232	45.39
579.571	45.59
579.91	45.79
580.25	46.05
580.589	46.29
580.928	46.55
581.267	46.74
581.606	46.85
581.945	47.05
582.283	47.24
582.622	47.44
582.961	47.69
583.3	47.93
583.639	48.16
583.977	48.38
584.316	48.51
584.654	48.57
584.993	48.74
585.332	48.94
585.67	49.01
586.008	49.23
586.347	49.31
586.685	49.5
587.024	49.65
587.362	49.77
587.7	49.86
588.038	49.94
588.376	50.06
588.715	50.24
589.053	50.44
589.391	50.56
589.729	50.75
590.067	50.82
590.404	50.94
590.742	51.05
591.08	51.24
591.418	51.39
591.756	51.59
592.093	51.72
592.431	51.73
592.769	51.87
593.106	52
593.444	52.1
593.781	52.16
594.119	52.26
594.456	52.36
594.793	52.46
595.131	52.54
595.468	52.63
595.805	52.74
596.143	52.84
596.48	52.93
596.817	53.05
597.154	53.17
597.491	53.26
597.828	53.36
598.165	53.37
598.502	53.51
598.839	53.52
599.176	53.57
599.512	53.76
599.849	53.83
600.186	53.86
600.523	54.02
600.859	54.18
601.196	54.27
601.532	54.44
601.869	54.55
602.205	54.67
602.542	54.79
602.878	54.84
603.215	54.87
603.551	54.95
603.887	54.97
604.223	54.99
604.56	55.04
604.896	55.1
605.232	55.14
605.568	55.18
605.904	55.2
606.24	55.3
606.576	55.34
606.912	55.46
607.248	55.58
607.583	55.59
607.919	55.69
608.255	55.75
608.591	55.8
608.926	55.85
609.262	55.9
609.597	55.95
609.933	56.01
610.268	56.06
610.604	56.04
610.939	56.09
611.275	56.18
611.61	56.22
611.945	56.22
612.281	56.26
612.616	56.35
612.951	56.49
613.286	56.59
613.621	56.59
613.956	56.63
614.291	56.76
614.626	56.92
614.961	56.85
615.296	56.91
615.631	57
615.966	57.03
616.3	57.05
616.635	57.13
616.97	57.13
617.304	57.2
617.639	57.31
617.973	57.37
618.308	57.42
618.642	57.45
618.977	57.52
619.311	57.73
619.646	57.79
619.98	57.8
620.314	57.82
620.648	57.84
620.983	57.83
621.317	57.83
621.651	57.83
621.985	57.9
622.319	57.96
622.653	57.96
622.987	58.02
623.321	58.12
623.655	58.13
623.988	58.29
624.322	58.37
624.656	58.26
624.99	58.19
625.323	58.24
625.657	58.25
625.99	58.38
626.324	58.37
626.657	58.39
626.991	58.57
627.324	58.56
627.658	58.65
627.991	58.71
628.324	58.75
628.657	58.78
628.991	58.93
629.324	58.95
629.657	58.97
629.99	58.97
630.323	58.97
630.656	59.04
630.989	59
631.322	58.84
631.655	58.99
631.987	58.99
632.32	59.07
632.653	59.09
632.986	59.02
633.318	59.01
633.651	59.05
633.984	58.86
634.316	58.82
634.649	58.78
634.981	58.71
635.313	58.59
635.646	58.62
635.978	58.6
636.31	58.57
636.643	58.57
636.975	58.62
637.307	58.58
637.639	58.55
637.971	58.58
638.303	58.7
638.635	58.81
638.967	59.02
639.299	58.98
639.631	58.97
639.963	58.92
640.295	58.83
640.626	58.75
640.958	58.99
641.29	59.1
641.621	59.22
641.953	59.44
642.285	59.49
642.616	59.44
642.948	59.45
643.279	59.38
643.61	59.44
643.942	59.47
644.273	59.57
644.604	59.52
644.936	59.5
645.267	59.5
645.598	59.42
645.929	59.41
646.26	59.36
646.591	59.38
646.922	59.52
647.253	59.55
647.584	59.66
647.915	59.51
648.245	59.5
648.576	59.56
648.907	59.52
649.238	59.59
649.568	59.66
649.899	59.7
650.229	59.87
650.56	59.81
650.89	59.93
651.221	59.92
651.551	59.99
651.882	59.99
652.212	60.07
652.542	60.13
652.872	59.95
653.203	60.07
653.533	60.19
653.863	60.17
654.193	60.31
654.523	60.21
654.853	60.25
655.183	60.22
655.513	60.09
655.843	60.03
656.172	60.09
656.502	60.06
656.832	60.02
657.162	59.96
657.491	60.06
657.821	59.98
658.15	59.97
658.48	60.06
658.809	60.05
659.139	60.15
659.468	60.1
659.798	60.3
660.127	60.33
660.456	60.34
660.785	60.33
661.115	60.39
661.444	60.39
661.773	60.36
662.102	60.4
662.431	60.55
662.76	60.55
663.089	60.39
663.418	60.47
663.747	60.4
664.076	60.51
664.404	60.39
664.733	60.4
665.062	60.21
665.39	60.16
665.719	60.25
666.048	60.18
666.376	60.21
666.705	60.12
667.033	60.2
667.362	60.06
667.69	60.09
668.018	59.94
668.347	59.97
668.675	59.95
669.003	60.06
669.331	59.94
669.659	59.97
669.987	60.15
670.315	60.2
670.643	60.25
670.971	60.12
671.299	60.17
671.627	60.27
671.955	60.49
672.283	60.5
672.61	60.39
672.938	60.34
673.266	60.47
673.593	60.61
673.921	60.4
674.249	60.35
674.576	60.39
674.904	60.52
675.231	60.6
675.558	60.51
675.886	60.54
676.213	60.58
676.54	60.68
676.867	60.7
677.195	60.58
677.522	60.69
677.849	60.62
678.176	60.62
678.503	60.51
678.83	60.51
679.157	60.56
679.484	60.57
679.81	60.64
680.137	60.53
680.464	60.47
680.791	60.55
681.117	60.79
681.444	60.68
681.771	60.59
682.097	60.53
682.424	60.74
682.75	60.55
683.077	60.47
683.403	60.42
683.729	60.39
684.056	60.43
684.382	60.32
684.708	60.47
685.034	60.49
685.36	60.5
685.686	60.48
686.012	60.4
686.339	60.48
686.664	60.39
686.99	60.51
687.316	60.58
687.642	60.68
687.968	60.37
688.294	60.63
688.619	60.74
688.945	60.87
689.271	60.91
689.596	61.06
689.922	61.17
690.247	61.16
690.573	61.02
690.898	60.96
691.224	61.18
691.549	61.18
691.874	61.05
692.2	61.09
692.525	60.93
692.85	60.97
693.175	60.91
693.5	60.86
693.825	60.72
694.15	60.73
694.475	60.69
694.8	60.76
695.125	60.62
695.45	60.59
695.775	60.56
696.099	60.41
696.424	60.46
696.749	60.41
697.073	60.43
697.398	60.6
697.723	60.85
698.047	60.61
698.372	60.66
698.696	60.86
699.02	60.84
699.345	60.91
699.669	60.92
699.993	60.9
700.318	61.07
700.642	61.16
700.966	61.03
701.29	60.83
701.614	60.92
701.938	60.87
702.262	60.81
702.586	60.82
702.91	60.86
703.234	60.8
703.557	60.86
703.881	60.86
704.205	60.85
704.529	60.5
704.852	60.78
705.176	60.81
705.499	60.56
705.823	60.5
706.146	60.65
706.47	60.45
706.793	60.58
707.117	60.62
707.44	60.48
707.763	60.49
708.086	60.58
708.409	60.64
708.733	60.61
709.056	60.54
709.379	60.59
709.702	60.67
710.025	60.67
710.348	60.52
710.671	60.45
710.993	60.5
711.316	60.43
711.639	60.38
711.962	60.28
712.284	60.41
712.607	60.48
712.93	60.41
713.252	60.75
713.575	60.78
713.897	60.68
714.22	60.81
714.542	60.75
714.864	60.67
715.187	60.75
715.509	60.72
715.831	61.02
716.153	60.86
716.475	60.84
716.798	60.82
717.12	60.83
717.442	61.02
717.764	61.02
718.085	61.31
718.407	61.19
718.729	61.27
719.051	61.47
719.373	61.47
719.695	61.64
720.016	61.57
720.338	61.41
720.659	61.25
720.981	61.22
721.302	61.1
721.624	61.28
721.945	61.19
722.267	61.32
722.588	60.86
722.909	60.86
723.231	60.87
723.552	61
723.873	61.25
724.194	61.13
724.515	61.23
724.836	60.97
725.157	61.02
725.478	60.93
725.799	60.5
726.12	60.47
726.441	60.24
726.762	60.34
727.083	60.4
727.403	60.56
727.724	60.49
728.045	60.69
728.365	60.61
728.686	60.52
729.006	60.52
729.327	60.92
729.647	60.89
729.967	60.74
730.288	60.59
730.608	60.59
730.928	60.56
731.249	60.31
731.569	60.51
731.889	60.57
732.209	60.52
732.529	60.88
732.849	61.03
733.169	61.19
733.489	60.75
733.809	60.63
734.129	60.63
734.448	60.94
734.768	60.82
735.088	61.21
735.408	61.26
735.727	61.27
736.047	61.11
736.366	60.98
736.686	61.19
737.005	61.37
737.325	61.15
737.644	61.33
737.963	61.23
738.283	61.11
738.602	61.14
738.921	61.28
739.24	61.06
739.56	60.9
739.879	60.77
740.198	60.96
740.517	61.25
740.836	61.13
741.155	60.7
741.473	61.1
741.792	61.02
742.111	61.04
742.43	60.97
742.748	61.07
743.067	61.17
743.386	61.29
743.704	61.27
744.023	61.51
744.341	61.26
744.66	61.36
744.978	61.48
745.297	61.45
745.615	61.44
745.933	61.33
746.252	61.35
746.57	61.63
746.888	61.46
747.206	61.2
747.524	61.46
747.842	61.23
748.16	60.82
748.478	60.64
748.796	60.88
749.114	61.08
749.432	60.87
749.749	61.19
750.067	60.97
750.385	61.02
750.703	60.77
751.02	60.84
751.338	60.9
751.655	60.97
751.973	60.88
752.29	60.89
752.608	60.92
752.925	60.98
753.242	60.54
753.56	60.71
753.877	60.84
754.194	60.97
754.511	61.56
754.828	61.45
755.145	61.44
755.462	61.35
755.779	61.25
756.096	61.28
756.413	61.21
756.73	61.35
757.047	61.33
757.364	61.57
757.68	61.63
757.997	61.65
758.314	61.74
758.63	61.49
758.947	61.47
759.264	61.52
759.58	61.28
759.896	61.6
760.213	61.86
760.529	62.14
760.846	62.12
761.162	62.07
761.478	62.41
761.794	62.42
762.11	62.18
762.426	62.06
762.743	62.2
763.059	62.3
763.375	62.29
763.69	62.19
764.006	62.15
764.322	62.12
764.638	62.23
764.954	62.19
765.27	62.36
765.585	62.24
765.901	62.33
766.216	62.53
766.532	62.55
766.848	62.51
767.163	62.44
767.478	62.46
767.794	62.4
768.109	62.15
768.424	62.13
768.74	62.35
769.055	62.29
769.37	62.04
769.685	61.97
770	61.73
770.315	61.8
770.63	61.86
770.945	62.19
771.26	61.99
771.575	62.01
771.89	61.99
772.205	62.29
772.52	62.43
772.834	62.48
773.149	62.39
773.464	61.93
773.778	61.67
774.093	61.33
774.407	61.45
774.722	61.39
775.036	61.38
775.351	61.11
775.665	61.26
775.979	61.5
776.293	61.55
776.608	61.51
776.922	62.15
777.236	61.88
777.55	61.54
777.864	61.91
778.178	61.77
778.492	61.75
778.806	61.64
779.12	61.25
779.434	61.22
779.747	61.52
780.061	61.66
780.375	61.91
780.689	61.62
781.002	61.3
781.316	61.73
781.629	61.99
781.943	62.22
782.256	62.39
782.57	62.38
782.883	62.19
783.196	62.62
783.51	61.6
783.823	61.38
784.136	61.2
784.449	60.89
784.762	60.88
785.075	60.72
785.388	61.14
785.701	61.34
786.014	60.95
786.327	60.82
786.64	61.49
786.953	61.34
787.266	61.31
787.578	61.25
787.891	61.22
788.204	60.95
788.516	61.14
788.829	60.87
789.141	61.02
789.454	61.01
789.766	61.03
790.079	61.61
790.391	62.22
790.703	62.2
791.016	62.24
791.328	62.21
791.64	62.32
791.952	62.14
792.264	62.33
792.576	62.21
792.888	61.85
793.2	61.95
793.512	61.72
793.824	62.17
794.136	62.51
794.448	62.36
794.76	62.45
795.071	62.31
795.383	62.72
795.695	63.3
796.006	63.23
796.318	62.9
796.629	62.72
796.941	62.58
797.252	63.14
797.564	63.37
797.875	63.46
798.186	63.53
798.497	63.47
798.809	63.25
799.12	63.47
799.431	63.36
799.742	62.6
800.053	62.66
800.364	62.66
800.675	61.89
800.986	61.75
801.297	61.85
801.608	61.69
801.918	61.37
802.229	60.79
802.54	60.82
802.851	60.52
803.161	60.06
803.472	59.72
803.782	59.24
804.093	59.77
804.403	59.44
804.714	58.85
805.024	58.66
805.334	58.56
805.645	59.4
805.955	59.46
806.265	59.44
806.575	59.41
806.885	59.16
807.195	59.69
807.505	60.13
807.815	59.64
808.125	59.86
808.435	59.49
808.745	59.12
809.055	59.63
809.365	60.06
809.674	60.47
809.984	60.72
810.294	60.52
810.603	59.78
810.913	59.65
811.222	60.2
811.532	60.15
811.841	60.48
812.151	59.96
812.46	60.24
812.769	60.05
813.079	60.68
813.388	61.78
813.697	62.18
814.006	61.82
814.315	62.44
814.624	61.9
814.933	62.68
815.242	62.72
815.551	62.24
815.86	62.33
816.169	62.8
816.478	62.61
816.786	63.17
817.095	63.61
817.404	64.36
817.712	63.7
818.021	64.17
818.33	63.77
818.638	62.87
818.947	62.65
819.255	62.91
819.563	62.58
819.872	62.25
820.18	62.05
820.488	62.13
820.796	61.64
821.105	61.69
821.413	61.56
821.721	61.82
822.029	61.78
822.337	61.87
822.645	61.83
822.953	62.01
823.26	61.74
823.568	61.61
823.876	61.45
824.184	61.64
824.491	61.69
824.799	61.79
825.107	61.9
825.414	61.99
825.722	61.84
826.029	61.74
826.337	61.87
826.644	61.83
826.951	61.55
827.259	61.72
827.566	61.69
827.873	61.78
828.18	61.67
828.488	61.45
828.795	61.15
829.102	60.99
829.409	60.92
829.716	61.19
830.023	61.05
830.329	61.08
830.636	60.9
830.943	60.86
831.25	60.6
831.557	60.67
831.863	60.98
832.17	61.39
832.476	61.68
832.783	61.46
833.089	61.65
833.396	61.84
833.702	62.04
834.009	61.46
834.315	61.39
834.621	61.15
834.928	61.51
835.234	61.72
835.54	61.71
835.846	61.16
836.152	61.13
836.458	61.48
836.764	61.26
837.07	61.59
837.376	61.12
837.682	60.86
837.988	60.82
838.293	60.33
838.599	59.72
838.905	59.4
839.211	59.05
839.516	59.16
839.822	59.64
840.127	59.25
840.433	61.57
840.738	61.58
841.044	61.44
841.349	61.19
841.654	61.74
841.959	61.24
842.265	62.09
842.57	62.56
842.875	61.03
843.18	62.6
843.485	62.02
843.79	62.46
844.095	62.51
844.4	62.7
844.705	61.66
845.01	61.7
845.315	59.95
845.619	58.87
845.924	57.55
846.229	57.04
846.533	58.06
846.838	54.46
847.142	54.56
847.447	53.9
847.751	54.26
848.056	52.42
848.36	52.28
848.664	51.31
848.969	49.83
849.273	53.12
849.577	50.63
849.881	48.87
850.185	47.38
850.489	48.81
850.794	48.08
851.097	48.12
851.401	48.76
851.705	51.31
852.009	53.47
852.313	52.81
852.617	54.4
852.92	53.06
853.224	54.63
853.528	55.75
853.831	55.78
854.135	55.61
854.438	56.74
854.742	57.42
855.045	56.09
855.349	57.26
855.652	56.63
855.955	57.88
856.259	58.7
856.562	58.44
856.865	56.6
857.168	59.14
857.471	58.92
857.774	59.12
858.077	59.05
858.38	59.06
858.683	59.91
858.986	59.64
859.289	60.03
859.592	60.68
859.894	58.47
860.197	60.9
860.5	59.76
860.802	58.99
861.105	58.76
861.407	59.61
861.71	57.6
862.012	57.62
862.315	58.14
862.617	58.02
862.919	59.01
863.222	60.82
863.524	59.01
863.826	60.09
864.128	63.11
864.43	65.26
864.732	64.25
865.034	64.5
865.336	62.99
865.638	62.96
865.94	61.85
866.242	65.44
866.544	63.01
866.846	63.81
867.147	63.05
867.449	63.03
867.751	63.5
868.052	66.74
868.354	63.87
868.655	61.89
868.957	64.12
869.258	62.59
869.56	63.37
869.861	61.84
870.162	59.99
870.463	57.18
870.765	55.8
871.066	56.21
871.367	55.59
871.668	56.06
871.969	54.52
872.27	55.06
872.571	53.6
872.872	52.57
873.173	51.31
873.473	53.87
873.774	53.64
874.075	55.39
874.376	53.15
874.676	54.87
874.977	54.28
875.277	54.34
875.578	54.48
875.878	53.17
876.179	54.42
876.479	56.41
876.78	55.71
877.08	54.74
877.38	53.23
877.68	54.68
877.981	53.26
878.281	54.91
878.581	55.56
