Data from BU58137_Reflection_00003.txt Node
Date: Mon Nov 18 16:39:34 EST 2019
User: vgr7
Spectrometer: USB2G7710
Scans to average: 3
Trigger mode: 4
Integration Time (sec): 2.000000E-2
Electric dark correction enabled: true
Boxcar width: 10
XAxis mode: Wavelengths
Number of Pixels in Spectrum: 2048
>>>>>Begin Spectral Data<<<<<
177.721	39.26
178.105	100
178.488	140.86
178.871	365.24
179.254	223.39
179.636	-236.73
180.019	212.15
180.402	140.91
180.785	316.61
181.168	-139.26
181.55	132.09
181.933	66.82
182.316	115.72
182.698	159.33
183.081	106.22
183.463	52.62
183.846	47.66
184.228	40.86
184.611	32.23
184.993	59.95
185.376	40.16
185.758	180.48
186.14	196.42
186.522	170.96
186.904	351.5
187.287	100
187.669	76.83
188.051	23.89
188.433	189.33
188.815	111.09
189.197	108.61
189.579	128.74
189.961	105.4
190.342	141.85
190.724	210.99
191.106	309.89
191.488	165
191.869	236.23
192.251	159.25
192.633	168.22
193.014	152.42
193.396	88.17
193.777	127.26
194.159	120.3
194.54	119.7
194.922	102.31
195.303	87.46
195.684	78.65
196.065	62.82
196.447	69.57
196.828	58.53
197.209	39.09
197.59	42.04
197.971	30.9
198.352	16.43
198.733	19.96
199.114	2.64
199.495	12.25
199.876	17.6
200.257	24.58
200.638	17.04
201.018	24.26
201.399	21.81
201.78	12.75
202.16	0.48
202.541	-19.79
202.922	-43.91
203.302	-57.63
203.683	-56.92
204.063	-105.66
204.444	-113.86
204.824	-132.33
205.204	-97.71
205.585	-88
205.965	-83.89
206.345	-64.44
206.725	-67.34
207.106	-55.02
207.486	-79.17
207.866	-68.14
208.246	-40.06
208.626	-56.26
209.006	-30.15
209.386	-28.39
209.766	-11.08
210.145	5.37
210.525	12.3
210.905	16.08
211.285	23.84
211.664	55.89
212.044	52.75
212.424	48.09
212.803	54.45
213.183	66.32
213.562	74.92
213.942	75.59
214.321	89.15
214.701	92.1
215.08	98.45
215.459	92.71
215.838	84.52
216.218	45.44
216.597	82.29
216.976	62.37
217.355	72.84
217.734	68.6
218.113	62.35
218.492	70.03
218.871	64.3
219.25	13.2
219.629	-27.31
220.008	-6.59
220.387	-10.06
220.766	13.18
221.144	-35.51
221.523	-42.81
221.902	-52.03
222.28	-65.18
222.659	-50.14
223.037	-41.91
223.416	-56.6
223.794	-50.2
224.173	-32.59
224.551	-30.41
224.929	-37.73
225.308	-22.92
225.686	-26.69
226.064	-20.87
226.442	-21.19
226.821	-13.13
227.199	-11.15
227.577	-10.41
227.955	-8.61
228.333	-7.01
228.711	-8.06
229.089	-3.03
229.467	-7.2
229.845	-6.18
230.222	-5.36
230.6	-6.37
230.978	-3.07
231.356	2.93
231.733	5.57
232.111	6.26
232.488	5.82
232.866	6.73
233.243	6.72
233.621	9.25
233.998	10.04
234.376	10.98
234.753	11.72
235.13	13.69
235.508	12.99
235.885	12.18
236.262	10.32
236.639	9.29
237.016	7.54
237.393	9.46
237.77	8.68
238.147	8.91
238.524	7.96
238.901	7.94
239.278	7.69
239.655	7.83
240.032	7.94
240.409	8.11
240.785	8.07
241.162	7.54
241.539	7.04
241.915	6.8
242.292	6.35
242.668	6.28
243.045	6.2
243.421	6.42
243.798	6.18
244.174	6.07
244.551	6.58
244.927	6.68
245.303	6.67
245.679	6.69
246.056	6.49
246.432	6.44
246.808	6.11
247.184	5.58
247.56	5.33
247.936	5.2
248.312	5.22
248.688	5.42
249.064	5.26
249.44	5.32
249.815	5.32
250.191	5.36
250.567	5.43
250.943	5.12
251.318	5.48
251.694	5.51
252.069	5.35
252.445	4.98
252.82	5.06
253.196	4.97
253.571	4.95
253.947	4.98
254.322	5.47
254.697	5.56
255.073	5.9
255.448	5.44
255.823	5.42
256.198	5.5
256.573	5.16
256.948	5.23
257.323	5.26
257.698	5.32
258.073	5.37
258.448	5.25
258.823	5.53
259.198	5.29
259.573	5.14
259.948	5.33
260.322	5.47
260.697	5.41
261.072	5.26
261.446	5.21
261.821	5.12
262.195	5.12
262.57	5.16
262.944	5.05
263.319	5.34
263.693	5.48
264.067	5.46
264.442	5.66
264.816	5.58
265.19	5.41
265.564	5.34
265.938	5.38
266.313	5.26
266.687	5.18
267.061	5.31
267.435	5.51
267.809	5.54
268.183	5.43
268.556	5.26
268.93	5.29
269.304	5.27
269.678	5.38
270.051	5.2
270.425	5.1
270.799	5.11
271.172	5.09
271.546	5.04
271.919	4.88
272.293	4.88
272.666	5.05
273.04	5.07
273.413	4.94
273.787	4.98
274.16	4.94
274.533	5.01
274.906	4.9
275.279	4.98
275.653	4.89
276.026	4.85
276.399	5.04
276.772	5.23
277.145	5.37
277.518	5.46
277.891	5.58
278.263	5.61
278.636	5.68
279.009	5.67
279.382	5.73
279.755	5.67
280.127	5.68
280.5	5.68
280.872	5.72
281.245	5.74
281.617	5.74
281.99	5.95
282.362	5.9
282.735	5.71
283.107	5.59
283.479	5.58
283.852	5.6
284.224	5.48
284.596	5.37
284.968	5.4
285.34	5.31
285.713	5.22
286.085	5.23
286.457	5.27
286.829	5.18
287.201	5.01
287.572	5.04
287.944	4.84
288.316	4.84
288.688	4.89
289.06	4.95
289.431	4.91
289.803	4.94
290.175	4.92
290.546	5.23
290.918	5.28
291.289	5.41
291.661	5.47
292.032	5.57
292.403	5.59
292.775	5.5
293.146	5.43
293.517	5.45
293.889	5.37
294.26	5.37
294.631	5.39
295.002	5.38
295.373	5.34
295.744	5.46
296.115	5.49
296.486	5.35
296.857	5.32
297.228	5.31
297.599	5.19
297.97	5.23
298.34	5.16
298.711	5.24
299.082	5.14
299.452	5.21
299.823	5.17
300.194	5.1
300.564	4.97
300.935	5.11
301.305	5.13
301.676	5.22
302.046	5.23
302.416	5.36
302.787	5.51
303.157	5.61
303.527	5.66
303.897	5.66
304.267	5.88
304.637	6.08
305.008	6.22
305.378	6.26
305.748	6.1
306.117	6.02
306.487	6
306.857	6.09
307.227	6.04
307.597	6.04
307.967	6.06
308.336	6.25
308.706	6.15
309.076	6.21
309.445	6.1
309.815	5.97
310.184	5.86
310.554	5.81
310.923	5.82
311.293	5.72
311.662	5.63
312.031	5.62
312.401	5.52
312.77	5.47
313.139	5.51
313.508	5.69
313.877	5.66
314.246	5.72
314.616	5.71
314.985	5.63
315.353	5.5
315.722	5.57
316.091	5.51
316.46	5.53
316.829	5.56
317.198	5.72
317.567	5.77
317.935	5.79
318.304	5.72
318.672	5.68
319.041	5.77
319.41	5.83
319.778	5.69
320.147	5.81
320.515	5.8
320.883	5.79
321.252	5.83
321.62	5.82
321.988	5.74
322.357	5.7
322.725	5.72
323.093	5.91
323.461	5.7
323.829	5.78
324.197	5.73
324.565	5.83
324.933	5.75
325.301	5.83
325.669	5.93
326.037	5.94
326.405	6.05
326.772	6.21
327.14	6.32
327.508	6.29
327.875	6.13
328.243	6.23
328.61	6.18
328.978	6.03
329.346	6.14
329.713	6.08
330.08	6.07
330.448	6.05
330.815	5.9
331.182	6.05
331.55	5.98
331.917	6.13
332.284	6.1
332.651	6.16
333.018	6.09
333.385	5.98
333.752	6.09
334.119	6.05
334.486	5.93
334.853	5.87
335.22	5.93
335.587	6.13
335.954	6
336.32	5.94
336.687	6.03
337.054	5.97
337.42	5.95
337.787	5.94
338.153	5.82
338.52	5.91
338.886	5.92
339.253	5.9
339.619	5.82
339.986	5.72
340.352	5.76
340.718	5.68
341.084	5.72
341.451	5.74
341.817	5.78
342.183	5.67
342.549	5.58
342.915	5.58
343.281	5.42
343.647	5.48
344.013	5.57
344.379	5.49
344.745	5.48
345.11	5.5
345.476	5.48
345.842	5.66
346.208	5.66
346.573	5.64
346.939	5.78
347.304	5.74
347.67	5.77
348.035	5.73
348.401	5.84
348.766	5.72
349.132	5.63
349.497	5.51
349.862	5.64
350.228	5.73
350.593	5.74
350.958	5.86
351.323	5.76
351.688	5.82
352.053	5.87
352.418	5.92
352.783	5.91
353.148	5.98
353.513	5.86
353.878	5.82
354.243	5.89
354.608	5.8
354.972	5.82
355.337	5.75
355.702	5.84
356.066	5.87
356.431	5.97
356.795	5.97
357.16	5.95
357.524	5.96
357.889	5.84
358.253	5.78
358.618	5.75
358.982	5.8
359.346	5.74
359.71	5.71
360.075	5.64
360.439	5.72
360.803	5.68
361.167	5.68
361.531	5.63
361.895	5.62
362.259	5.63
362.623	5.68
362.987	5.76
363.351	5.71
363.714	5.71
364.078	5.69
364.442	5.68
364.806	5.71
365.169	5.64
365.533	5.72
365.896	5.72
366.26	5.73
366.623	5.71
366.987	5.61
367.35	5.63
367.714	5.62
368.077	5.55
368.44	5.56
368.803	5.67
369.167	5.7
369.53	5.63
369.893	5.62
370.256	5.55
370.619	5.56
370.982	5.52
371.345	5.49
371.708	5.52
372.071	5.55
372.434	5.56
372.797	5.61
373.159	5.55
373.522	5.58
373.885	5.61
374.247	5.59
374.61	5.67
374.973	5.69
375.335	5.69
375.698	5.76
376.06	5.72
376.423	5.72
376.785	5.71
377.147	5.82
377.51	5.79
377.872	5.83
378.234	5.77
378.596	5.77
378.958	5.75
379.321	5.73
379.683	5.71
380.045	5.71
380.407	5.73
380.769	5.76
381.13	5.76
381.492	5.65
381.854	5.67
382.216	5.71
382.578	5.69
382.939	5.7
383.301	5.63
383.663	5.6
384.024	5.55
384.386	5.6
384.747	5.56
385.109	5.61
385.47	5.6
385.832	5.62
386.193	5.68
386.554	5.71
386.916	5.75
387.277	5.77
387.638	5.77
387.999	5.73
388.36	5.75
388.721	5.78
389.082	5.8
389.443	5.81
389.804	5.81
390.165	5.76
390.526	5.75
390.887	5.77
391.248	5.84
391.609	5.8
391.969	5.8
392.33	5.76
392.691	5.72
393.051	5.72
393.412	5.72
393.772	5.65
394.133	5.67
394.493	5.63
394.854	5.59
395.214	5.58
395.574	5.59
395.935	5.58
396.295	5.56
396.655	5.55
397.015	5.54
397.376	5.49
397.736	5.52
398.096	5.55
398.456	5.57
398.816	5.57
399.176	5.58
399.535	5.6
399.895	5.64
400.255	5.64
400.615	5.65
400.975	5.65
401.334	5.68
401.694	5.65
402.054	5.65
402.413	5.66
402.773	5.63
403.132	5.59
403.492	5.62
403.851	5.62
404.211	5.64
404.57	5.65
404.929	5.66
405.288	5.68
405.648	5.64
406.007	5.64
406.366	5.59
406.725	5.62
407.084	5.59
407.443	5.57
407.802	5.58
408.161	5.58
408.52	5.56
408.879	5.52
409.238	5.53
409.596	5.52
409.955	5.54
410.314	5.58
410.673	5.6
411.031	5.57
411.39	5.57
411.748	5.56
412.107	5.57
412.465	5.58
412.824	5.6
413.182	5.64
413.54	5.65
413.899	5.66
414.257	5.63
414.615	5.61
414.974	5.61
415.332	5.57
415.69	5.55
416.048	5.58
416.406	5.61
416.764	5.61
417.122	5.6
417.48	5.58
417.838	5.58
418.195	5.6
418.553	5.59
418.911	5.59
419.269	5.62
419.626	5.6
419.984	5.58
420.342	5.55
420.699	5.53
421.057	5.55
421.414	5.55
421.772	5.55
422.129	5.57
422.486	5.58
422.844	5.59
423.201	5.59
423.558	5.61
423.915	5.6
424.273	5.63
424.63	5.63
424.987	5.64
425.344	5.64
425.701	5.63
426.058	5.63
426.415	5.65
426.772	5.62
427.128	5.63
427.485	5.64
427.842	5.66
428.199	5.68
428.555	5.66
428.912	5.69
429.269	5.7
429.625	5.7
429.982	5.71
430.338	5.71
430.695	5.71
431.051	5.66
431.407	5.67
431.764	5.65
432.12	5.64
432.476	5.63
432.832	5.63
433.189	5.65
433.545	5.65
433.901	5.62
434.257	5.62
434.613	5.61
434.969	5.61
435.325	5.63
435.681	5.62
436.036	5.62
436.392	5.6
436.748	5.58
437.104	5.57
437.459	5.57
437.815	5.58
438.171	5.58
438.526	5.58
438.882	5.57
439.237	5.56
439.593	5.58
439.948	5.59
440.304	5.59
440.659	5.58
441.014	5.59
441.369	5.58
441.725	5.59
442.08	5.61
442.435	5.6
442.79	5.59
443.145	5.59
443.5	5.59
443.855	5.58
444.21	5.59
444.565	5.59
444.92	5.6
445.275	5.59
445.629	5.59
445.984	5.61
446.339	5.59
446.693	5.59
447.048	5.58
447.403	5.57
447.757	5.56
448.112	5.55
448.466	5.55
448.82	5.56
449.175	5.55
449.529	5.55
449.883	5.56
450.238	5.56
450.592	5.57
450.946	5.56
451.3	5.57
451.654	5.58
452.008	5.58
452.362	5.57
452.716	5.56
453.07	5.56
453.424	5.57
453.778	5.57
454.132	5.58
454.486	5.58
454.839	5.57
455.193	5.56
455.547	5.55
455.9	5.57
456.254	5.59
456.607	5.58
456.961	5.56
457.314	5.57
457.668	5.55
458.021	5.56
458.375	5.56
458.728	5.56
459.081	5.54
459.434	5.55
459.787	5.55
460.141	5.57
460.494	5.57
460.847	5.55
461.2	5.55
461.553	5.55
461.906	5.55
462.259	5.58
462.611	5.57
462.964	5.59
463.317	5.58
463.67	5.58
464.022	5.59
464.375	5.6
464.728	5.58
465.08	5.6
465.433	5.59
465.785	5.6
466.138	5.62
466.49	5.61
466.843	5.6
467.195	5.61
467.547	5.61
467.899	5.62
468.252	5.64
468.604	5.67
468.956	5.65
469.308	5.65
469.66	5.66
470.012	5.69
470.364	5.69
470.716	5.69
471.068	5.67
471.42	5.66
471.772	5.69
472.123	5.7
472.475	5.71
472.827	5.7
473.178	5.69
473.53	5.68
473.882	5.69
474.233	5.7
474.585	5.71
474.936	5.69
475.288	5.7
475.639	5.7
475.99	5.69
476.342	5.71
476.693	5.73
477.044	5.72
477.395	5.72
477.746	5.69
478.097	5.71
478.448	5.72
478.8	5.71
479.15	5.69
479.501	5.7
479.852	5.69
480.203	5.7
480.554	5.7
480.905	5.72
481.255	5.72
481.606	5.74
481.957	5.75
482.307	5.76
482.658	5.76
483.009	5.76
483.359	5.77
483.709	5.76
484.06	5.75
484.41	5.75
484.761	5.76
485.111	5.77
485.461	5.77
485.811	5.78
486.162	5.78
486.512	5.79
486.862	5.79
487.212	5.79
487.562	5.8
487.912	5.8
488.262	5.79
488.612	5.8
488.961	5.79
489.311	5.78
489.661	5.78
490.011	5.77
490.36	5.77
490.71	5.76
491.06	5.76
491.409	5.77
491.759	5.76
492.108	5.75
492.458	5.75
492.807	5.74
493.157	5.75
493.506	5.75
493.855	5.74
494.204	5.73
494.554	5.74
494.903	5.74
495.252	5.74
495.601	5.75
495.95	5.75
496.299	5.74
496.648	5.75
496.997	5.76
497.346	5.77
497.695	5.78
498.043	5.78
498.392	5.78
498.741	5.79
499.09	5.8
499.438	5.81
499.787	5.83
500.135	5.83
500.484	5.83
500.832	5.84
501.181	5.84
501.529	5.85
501.878	5.86
502.226	5.86
502.574	5.89
502.923	5.87
503.271	5.88
503.619	5.91
503.967	5.91
504.315	5.88
504.663	5.88
505.011	5.87
505.359	5.86
505.707	5.89
506.055	5.91
506.403	5.93
506.751	5.93
507.098	5.92
507.446	5.94
507.794	5.95
508.141	5.94
508.489	5.96
508.837	5.97
509.184	5.96
509.531	5.97
509.879	5.97
510.226	6
510.574	5.99
510.921	5.98
511.268	5.99
511.616	6
511.963	6
512.31	6.03
512.657	6.07
513.004	6.05
513.351	6.05
513.698	6.03
514.045	6.02
514.392	6.01
514.739	6.01
515.086	6.04
515.432	6.04
515.779	6.04
516.126	6.02
516.473	6.05
516.819	6.06
517.166	6.07
517.512	6.05
517.859	6.06
518.205	6.08
518.552	6.08
518.898	6.09
519.245	6.11
519.591	6.09
519.937	6.07
520.283	6.08
520.629	6.09
520.976	6.13
521.322	6.14
521.668	6.14
522.014	6.15
522.36	6.14
522.706	6.13
523.052	6.15
523.398	6.15
523.743	6.15
524.089	6.15
524.435	6.13
524.781	6.15
525.126	6.17
525.472	6.16
525.817	6.17
526.163	6.18
526.509	6.19
526.854	6.2
527.199	6.21
527.545	6.21
527.89	6.21
528.235	6.21
528.581	6.22
528.926	6.22
529.271	6.22
529.616	6.23
529.961	6.24
530.306	6.25
530.651	6.25
530.996	6.25
531.341	6.25
531.686	6.27
532.031	6.27
532.376	6.26
532.721	6.27
533.065	6.28
533.41	6.27
533.755	6.27
534.099	6.28
534.444	6.29
534.788	6.3
535.133	6.28
535.477	6.28
535.822	6.28
536.166	6.28
536.51	6.28
536.855	6.28
537.199	6.27
537.543	6.27
537.887	6.27
538.231	6.25
538.576	6.26
538.92	6.26
539.264	6.24
539.608	6.26
539.951	6.27
540.295	6.28
540.639	6.27
540.983	6.27
541.327	6.27
541.671	6.27
542.014	6.26
542.358	6.27
542.701	6.29
543.045	6.29
543.389	6.29
543.732	6.3
544.075	6.29
544.419	6.3
544.762	6.31
545.105	6.31
545.449	6.34
545.792	6.34
546.135	6.34
546.478	6.37
546.821	6.36
547.165	6.35
547.508	6.35
547.851	6.34
548.194	6.35
548.536	6.34
548.879	6.34
549.222	6.34
549.565	6.36
549.908	6.36
550.25	6.38
550.593	6.4
550.936	6.37
551.278	6.38
551.621	6.39
551.963	6.39
552.306	6.4
552.648	6.38
552.991	6.38
553.333	6.38
553.675	6.35
554.017	6.35
554.36	6.38
554.702	6.37
555.044	6.37
555.386	6.37
555.728	6.35
556.07	6.36
556.412	6.35
556.754	6.31
557.096	6.31
557.438	6.28
557.78	6.25
558.121	6.31
558.463	6.33
558.805	6.32
559.147	6.3
559.488	6.31
559.83	6.3
560.171	6.31
560.513	6.32
560.854	6.32
561.196	6.31
561.537	6.27
561.878	6.25
562.22	6.23
562.561	6.2
562.902	6.23
563.243	6.26
563.584	6.25
563.925	6.25
564.266	6.24
564.607	6.26
564.948	6.29
565.289	6.25
565.63	6.26
565.971	6.26
566.312	6.27
566.653	6.23
566.993	6.26
567.334	6.27
567.675	6.28
568.015	6.31
568.356	6.3
568.696	6.35
569.037	6.37
569.377	6.39
569.718	6.4
570.058	6.39
570.398	6.36
570.739	6.38
571.079	6.4
571.419	6.41
571.759	6.4
572.099	6.4
572.439	6.41
572.779	6.39
573.119	6.39
573.459	6.4
573.799	6.45
574.139	6.43
574.479	6.39
574.819	6.38
575.158	6.34
575.498	6.33
575.838	6.32
576.177	6.31
576.517	6.33
576.856	6.35
577.196	6.38
577.535	6.38
577.875	6.35
578.214	6.35
578.553	6.36
578.893	6.37
579.232	6.37
579.571	6.42
579.91	6.43
580.25	6.44
580.589	6.45
580.928	6.44
581.267	6.49
581.606	6.47
581.945	6.47
582.283	6.51
582.622	6.5
582.961	6.52
583.3	6.5
583.639	6.53
583.977	6.53
584.316	6.5
584.654	6.55
584.993	6.59
585.332	6.59
585.67	6.56
586.008	6.59
586.347	6.55
586.685	6.52
587.024	6.49
587.362	6.49
587.7	6.47
588.038	6.5
588.376	6.52
588.715	6.55
589.053	6.61
589.391	6.61
589.729	6.67
590.067	6.68
590.404	6.7
590.742	6.69
591.08	6.71
591.418	6.74
591.756	6.73
592.093	6.72
592.431	6.72
592.769	6.76
593.106	6.76
593.444	6.74
593.781	6.74
594.119	6.75
594.456	6.73
594.793	6.74
595.131	6.68
595.468	6.66
595.805	6.67
596.143	6.62
596.48	6.65
596.817	6.64
597.154	6.66
597.491	6.67
597.828	6.65
598.165	6.62
598.502	6.59
598.839	6.58
599.176	6.59
599.512	6.59
599.849	6.59
600.186	6.54
600.523	6.59
600.859	6.63
601.196	6.65
601.532	6.66
601.869	6.65
602.205	6.66
602.542	6.69
602.878	6.68
603.215	6.69
603.551	6.7
603.887	6.69
604.223	6.66
604.56	6.69
604.896	6.68
605.232	6.71
605.568	6.71
605.904	6.7
606.24	6.69
606.576	6.67
606.912	6.66
607.248	6.67
607.583	6.71
607.919	6.68
608.255	6.66
608.591	6.7
608.926	6.67
609.262	6.7
609.597	6.66
609.933	6.68
610.268	6.7
610.604	6.66
610.939	6.7
611.275	6.69
611.61	6.69
611.945	6.73
612.281	6.68
612.616	6.73
612.951	6.77
613.286	6.78
613.621	6.82
613.956	6.8
614.291	6.87
614.626	6.83
614.961	6.79
615.296	6.8
615.631	6.78
615.966	6.85
616.3	6.83
616.635	6.84
616.97	6.83
617.304	6.78
617.639	6.8
617.973	6.74
618.308	6.71
618.642	6.71
618.977	6.69
619.311	6.71
619.646	6.69
619.98	6.7
620.314	6.72
620.648	6.71
620.983	6.79
621.317	6.76
621.651	6.78
621.985	6.82
622.319	6.84
622.653	6.89
622.987	6.89
623.321	6.94
623.655	6.96
623.988	6.96
624.322	7.05
624.656	7.04
624.99	7.06
625.323	7.09
625.657	7.09
625.99	7.1
626.324	7.16
626.657	7.18
626.991	7.17
627.324	7.18
627.658	7.16
627.991	7.14
628.324	7.17
628.657	7.25
628.991	7.23
629.324	7.23
629.657	7.2
629.99	7.19
630.323	7.19
630.656	7.22
630.989	7.27
631.322	7.22
631.655	7.22
631.987	7.21
632.32	7.21
632.653	7.21
632.986	7.23
633.318	7.2
633.651	7.17
633.984	7.15
634.316	7.19
634.649	7.19
634.981	7.13
635.313	7.16
635.646	7.13
635.978	7.17
636.31	7.16
636.643	7.15
636.975	7.18
637.307	7.19
637.639	7.16
637.971	7.15
638.303	7.12
638.635	7.14
638.967	7.15
639.299	7.13
639.631	7.14
639.963	7.1
640.295	7.09
640.626	7.07
640.958	7.11
641.29	7.02
641.621	7.05
641.953	7.06
642.285	6.99
642.616	6.94
642.948	6.91
643.279	6.95
643.61	6.93
643.942	6.89
644.273	6.83
644.604	6.84
644.936	6.81
645.267	6.85
645.598	6.85
645.929	6.87
646.26	6.91
646.591	6.96
646.922	7.01
647.253	7.01
647.584	7.03
647.915	7.02
648.245	7.11
648.576	7.11
648.907	7.16
649.238	7.16
649.568	7.14
649.899	7.18
650.229	7.19
650.56	7.19
650.89	7.2
651.221	7.25
651.551	7.23
651.882	7.26
652.212	7.32
652.542	7.37
652.872	7.37
653.203	7.3
653.533	7.31
653.863	7.31
654.193	7.3
654.523	7.37
654.853	7.37
655.183	7.33
655.513	7.36
655.843	7.34
656.172	7.37
656.502	7.39
656.832	7.35
657.162	7.39
657.491	7.36
657.821	7.38
658.15	7.44
658.48	7.43
658.809	7.39
659.139	7.32
659.468	7.27
659.798	7.27
660.127	7.37
660.456	7.38
660.785	7.36
661.115	7.36
661.444	7.32
661.773	7.33
662.102	7.38
662.431	7.34
662.76	7.39
663.089	7.43
663.418	7.42
663.747	7.46
664.076	7.43
664.404	7.47
664.733	7.51
665.062	7.4
665.39	7.47
665.719	7.53
666.048	7.57
666.376	7.64
666.705	7.6
667.033	7.53
667.362	7.55
667.69	7.64
668.018	7.7
668.347	7.67
668.675	7.72
669.003	7.7
669.331	7.79
669.659	7.73
669.987	7.69
670.315	7.72
670.643	7.68
670.971	7.65
671.299	7.66
671.627	7.62
671.955	7.66
672.283	7.72
672.61	7.71
672.938	7.69
673.266	7.64
673.593	7.74
673.921	7.77
674.249	7.75
674.576	7.59
674.904	7.53
675.231	7.48
675.558	7.41
675.886	7.44
676.213	7.28
676.54	7.3
676.867	7.39
677.195	7.41
677.522	7.48
677.849	7.5
678.176	7.47
678.503	7.46
678.83	7.48
679.157	7.37
679.484	7.32
679.81	7.36
680.137	7.3
680.464	7.2
680.791	7.22
681.117	7.14
681.444	7.31
681.771	7.39
682.097	7.37
682.424	7.41
682.75	7.4
683.077	7.52
683.403	7.54
683.729	7.44
684.056	7.43
684.382	7.43
684.708	7.37
685.034	7.41
685.36	7.5
685.686	7.42
686.012	7.49
686.339	7.6
686.664	7.63
686.99	7.71
687.316	7.79
687.642	7.78
687.968	7.78
688.294	7.7
688.619	7.66
688.945	7.77
689.271	7.7
689.596	7.77
689.922	7.74
690.247	7.66
690.573	7.77
690.898	7.85
691.224	7.86
691.549	7.96
691.874	7.99
692.2	7.92
692.525	7.99
692.85	7.95
693.175	7.89
693.5	7.8
693.825	7.87
694.15	7.94
694.475	7.88
694.8	8.03
695.125	8.01
695.45	7.93
695.775	7.95
696.099	8.03
696.424	7.9
696.749	7.89
697.073	7.97
697.398	7.96
697.723	7.94
698.047	7.92
698.372	7.97
698.696	7.94
699.02	7.96
699.345	8.03
699.669	8.06
699.993	8.08
700.318	8.11
700.642	8.07
700.966	7.97
701.29	8.05
701.614	8.01
701.938	8.05
702.262	8.15
702.586	8.12
702.91	8.07
703.234	8.19
703.557	8.27
703.881	8.23
704.205	8.25
704.529	8.08
704.852	8.02
705.176	7.95
705.499	7.99
705.823	7.87
706.146	7.76
706.47	7.79
706.793	7.88
707.117	7.84
707.44	7.92
707.763	7.87
708.086	7.78
708.409	7.8
708.733	7.82
709.056	7.71
709.379	7.84
709.702	7.81
710.025	7.74
710.348	7.71
710.671	7.68
710.993	7.75
711.316	7.96
711.639	7.99
711.962	7.91
712.284	8
712.607	8.07
712.93	8.16
713.252	8.17
713.575	8.12
713.897	8.16
714.22	8.16
714.542	8.25
714.864	8.5
715.187	8.48
715.509	8.48
715.831	8.65
716.153	8.67
716.475	8.76
716.798	8.89
717.12	8.88
717.442	9.01
717.764	8.78
718.085	8.79
718.407	8.85
718.729	8.95
719.051	8.92
719.373	9.09
719.695	9.1
720.016	9.22
720.338	9.22
720.659	9.43
720.981	9.3
721.302	9.26
721.624	9.03
721.945	9.03
722.267	9.02
722.588	8.82
722.909	8.68
723.231	8.57
723.552	8.5
723.873	8.66
724.194	8.41
724.515	8.52
724.836	8.64
725.157	8.48
725.478	8.49
725.799	8.36
726.12	8.01
726.441	7.99
726.762	7.85
727.083	8
727.403	7.85
727.724	8.03
728.045	8.32
728.365	8.38
728.686	8.43
729.006	8.45
729.327	8.54
729.647	8.64
729.967	8.73
730.288	8.85
730.608	8.71
730.928	8.87
731.249	8.89
731.569	8.79
731.889	8.96
732.209	9.09
732.529	9.12
732.849	9.26
733.169	9.27
733.489	9.2
733.809	9.07
734.129	9.06
734.448	8.99
734.768	8.91
735.088	9.1
735.408	9
735.727	9.13
736.047	9.19
736.366	8.97
736.686	8.87
737.005	8.67
737.325	8.72
737.644	8.78
737.963	8.74
738.283	8.58
738.602	8.7
738.921	8.63
739.24	8.69
739.56	8.72
739.879	8.71
740.198	8.83
740.517	8.83
740.836	9.09
741.155	9.19
741.473	9.21
741.792	8.95
742.111	8.98
742.43	8.85
742.748	8.83
743.067	9
743.386	9.09
743.704	9.14
744.023	9.42
744.341	9.32
744.66	9.61
744.978	9.58
745.297	9.32
745.615	9.28
745.933	9.39
746.252	9.61
746.57	9.49
746.888	9.47
747.206	9.72
747.524	9.51
747.842	9.4
748.16	9.52
748.478	9.67
748.796	9.93
749.114	9.85
749.432	9.97
749.749	10.01
750.067	10.03
750.385	10.08
750.703	9.85
751.02	10.03
751.338	9.82
751.655	9.89
751.973	9.89
752.29	9.9
752.608	9.87
752.925	9.78
753.242	9.98
753.56	9.91
753.877	9.67
754.194	9.56
754.511	9.38
754.828	9.15
755.145	8.74
755.462	8.67
755.779	8.71
756.096	8.55
756.413	8.77
756.73	8.84
757.047	8.79
757.364	8.78
757.68	8.58
757.997	8.56
758.314	8.75
758.63	8.82
758.947	8.79
759.264	8.97
759.58	8.94
759.896	9.16
760.213	9.34
760.529	9.39
760.846	9.66
761.162	9.75
761.478	9.73
761.794	10.03
762.11	9.91
762.426	9.78
762.743	9.62
763.059	9.53
763.375	9.61
763.69	9.58
764.006	9.62
764.322	9.67
764.638	9.83
764.954	10.03
765.27	10.13
765.585	10.23
765.901	10.2
766.216	10.17
766.532	10.02
766.848	9.97
767.163	10.08
767.478	9.82
767.794	10.1
768.109	10.11
768.424	10.17
768.74	10.1
769.055	10.41
769.37	10.72
769.685	10.49
770	10.4
770.315	10.47
770.63	10.43
770.945	10.56
771.26	10.48
771.575	10.08
771.89	10.14
772.205	9.94
772.52	9.66
772.834	9.37
773.149	9.25
773.464	9.03
773.778	9.14
774.093	9.39
774.407	9.14
774.722	9.33
775.036	9.34
775.351	9.41
775.665	9.33
775.979	9.29
776.293	9.37
776.608	9.49
776.922	9.39
777.236	9.08
777.55	9.09
777.864	9.4
778.178	9.62
778.492	9.82
778.806	9.7
779.12	9.93
779.434	10.4
779.747	10.63
780.061	10.88
780.375	10.89
780.689	10.83
781.002	11.08
781.316	11.03
781.629	11.31
781.943	11.67
782.256	11.48
782.57	11.78
782.883	12.21
783.196	12.1
783.51	12.39
783.823	12.8
784.136	12.83
784.449	12.26
784.762	12.25
785.075	11.85
785.388	12.11
785.701	12.08
786.014	11.81
786.327	11.43
786.64	11.74
786.953	11.62
787.266	11.54
787.578	11.69
787.891	11.67
788.204	11.23
788.516	11.04
788.829	11.02
789.141	10.95
789.454	10.76
789.766	10.67
790.079	10.54
790.391	10.71
790.703	10.78
791.016	11.26
791.328	11.21
791.64	11.5
791.952	11.9
792.264	11.77
792.576	11.95
792.888	11.95
793.2	11.83
793.512	12.01
793.824	11.81
794.136	11.3
794.448	11.23
794.76	11.09
795.071	11.25
795.383	11.32
795.695	11.06
796.006	11.24
796.318	11.45
796.629	11.96
796.941	11.46
797.252	11.25
797.564	10.9
797.875	10.82
798.186	10.43
798.497	10.2
798.809	10.36
799.12	10.49
799.431	10.37
799.742	10.3
800.053	10.23
800.364	10.57
800.675	10.44
800.986	10.71
801.297	10.97
801.608	10.75
801.918	10.76
802.229	11.23
802.54	11.17
802.851	10.94
803.161	10.63
803.472	11.13
803.782	11.21
804.093	11.18
804.403	11.39
804.714	11.71
805.024	11.21
805.334	11.01
805.645	11.18
805.955	11.86
806.265	12.22
806.575	11.65
806.885	11.86
807.195	12.23
807.505	11.9
807.815	12.08
808.125	11.76
808.435	11.99
808.745	11.65
809.055	11.63
809.365	11.94
809.674	11.63
809.984	11.32
810.294	11.48
810.603	11.87
810.913	11.48
811.222	11.73
811.532	11.92
811.841	12.57
812.151	12.97
812.46	13.04
812.769	12.62
813.079	12.8
813.388	12.88
813.697	13.02
814.006	12.82
814.315	13.15
814.624	12.97
814.933	13.15
815.242	12.96
815.551	13.03
815.86	13.13
816.169	13.04
816.478	13.23
816.786	13.23
817.095	13.05
817.404	13.43
817.712	12.98
818.021	13.3
818.33	13.1
818.638	12.95
818.947	12.78
819.255	12.69
819.563	12.38
819.872	11.8
820.18	11.72
820.488	11.81
820.796	11.79
821.105	11.76
821.413	11.74
821.721	11.45
822.029	11.58
822.337	11.61
822.645	11.72
822.953	11.55
823.26	11.6
823.568	11.61
823.876	11.42
824.184	11.43
824.491	11.37
824.799	11.33
825.107	11.14
825.414	11.14
825.722	11.11
826.029	11.32
826.337	11.45
826.644	11.44
826.951	11.48
827.259	11.36
827.566	11.49
827.873	11.53
828.18	11.83
828.488	11.71
828.795	11.78
829.102	11.73
829.409	12.09
829.716	12.15
830.023	12.24
830.329	12.64
830.636	13.02
830.943	13.23
831.25	13.05
831.557	13.54
831.863	13.51
832.17	13.43
832.476	13.27
832.783	13.55
833.089	13.47
833.396	13.32
833.702	13.51
834.009	13.74
834.315	13.32
834.621	13.35
834.928	13.32
835.234	13.22
835.54	13.06
835.846	12.76
836.152	12.74
836.458	12.72
836.764	12.4
837.07	12.33
837.376	12.12
837.682	12.17
837.988	11.87
838.293	11.83
838.599	12.44
838.905	12.13
839.211	12.06
839.516	12.86
839.822	13.49
840.127	13.5
840.433	13.84
840.738	14.41
841.044	15.35
841.349	15.08
841.654	14.66
841.959	14.93
842.265	15.54
842.57	15.46
842.875	15.27
843.18	15.41
843.485	15.01
843.79	15.02
844.095	15.34
844.4	16.01
844.705	16.04
845.01	14.7
845.315	15.44
845.619	14.64
845.924	14.2
846.229	14
846.533	14.52
846.838	14.55
847.142	14.58
847.447	13.47
847.751	13.11
848.056	13.05
848.36	12.88
848.664	13.22
848.969	12.87
849.273	13.26
849.577	13.65
849.881	14.07
850.185	15.96
850.489	16.01
850.794	15.63
851.097	15.83
851.401	17.35
851.705	16.33
852.009	17.58
852.313	17.9
852.617	17.09
852.92	17.61
853.224	15.87
853.528	16.66
853.831	17.49
854.135	18.39
854.438	18.48
854.742	19.12
855.045	18.81
855.349	20.95
855.652	19.06
855.955	20.06
856.259	18.19
856.562	16.62
856.865	18.02
857.168	15.96
857.471	16.89
857.774	17.79
858.077	19.01
858.38	19.05
858.683	17.83
858.986	18.05
859.289	16.1
859.592	16.5
859.894	16.35
860.197	13.76
860.5	16.1
860.802	15.72
861.105	16.06
861.407	14.54
861.71	12.56
862.012	15.13
862.315	14.6
862.617	14.57
862.919	13.53
863.222	13.08
863.524	14.95
863.826	13.92
864.128	12.96
864.43	12.02
864.732	10.6
865.034	9.52
865.336	9.91
865.638	10.8
865.94	10.63
866.242	10.33
866.544	11.09
866.846	9.82
867.147	10.66
867.449	12.1
867.751	13.72
868.052	15.24
868.354	12.65
868.655	13.7
868.957	14.47
869.258	15.52
869.56	16.14
869.861	16.11
870.162	16.46
870.463	18.33
870.765	22.14
871.066	22.17
871.367	22.7
871.668	20.28
871.969	18.68
872.27	19.48
872.571	18.11
872.872	19.76
873.173	19.21
873.473	18.07
873.774	18.98
874.075	19.26
874.376	16.64
874.676	19.6
874.977	18.85
875.277	20.86
875.578	21.24
875.878	20.45
876.179	19.87
876.479	19.99
876.78	17.84
877.08	15.19
877.38	16.52
877.68	17.68
877.981	20.45
878.281	22.59
878.581	23.19
