Data from BU58131_Reflection_00001.txt Node
Date: Mon Nov 18 16:31:59 EST 2019
User: vgr7
Spectrometer: USB2G7710
Scans to average: 3
Trigger mode: 4
Integration Time (sec): 2.000000E-2
Electric dark correction enabled: true
Boxcar width: 10
XAxis mode: Wavelengths
Number of Pixels in Spectrum: 2048
>>>>>Begin Spectral Data<<<<<
177.721	898.72
178.105	473.13
178.488	314.46
178.871	-4.91
179.254	2.44
179.636	-266.07
180.019	354.14
180.402	114.29
180.785	-286.04
181.168	167.36
181.55	55.29
181.933	90.19
182.316	65.89
182.698	61.3
183.081	78.32
183.463	60.25
183.846	68.65
184.228	83.12
184.611	87.24
184.993	146.71
185.376	83.84
185.758	70.11
186.14	119.06
186.522	210.15
186.904	170.86
187.287	123.49
187.669	161.11
188.051	161.65
188.433	307.11
188.815	198.57
189.197	417.6
189.579	-6.36
189.961	66.69
190.342	40.14
190.724	70.04
191.106	134.35
191.488	78.7
191.869	103.69
192.251	132.63
192.633	108.18
193.014	185.22
193.396	130.45
193.777	107.88
194.159	108.35
194.54	183.54
194.922	152.24
195.303	160.86
195.684	198.48
196.065	141.1
196.447	133.14
196.828	107.62
197.209	82.89
197.59	70.58
197.971	24.94
198.352	21.21
198.733	-11.3
199.114	-31.83
199.495	-42.92
199.876	-37.43
200.257	-47.25
200.638	-43.12
201.018	-53.71
201.399	-51.19
201.78	-49.46
202.16	-41.48
202.541	-54.82
202.922	-42.2
203.302	-74.36
203.683	-63.44
204.063	-127.47
204.444	-160.82
204.824	-143.8
205.204	-120.43
205.585	-194.39
205.965	-87.9
206.345	-114.71
206.725	-257.89
207.106	-283.95
207.486	-1405.15
207.866	361.24
208.246	7230.43
208.626	535.15
209.006	-90.77
209.386	154.79
209.766	168.26
210.145	-237.95
210.525	-62.81
210.905	-35.81
211.285	-11.95
211.664	-0.07
212.044	15.85
212.424	17.14
212.803	-13.89
213.183	12.7
213.562	11.72
213.942	14.08
214.321	14.08
214.701	3.18
215.08	0.97
215.459	12.09
215.838	27.74
216.218	30.96
216.597	49.95
216.976	34.1
217.355	33.25
217.734	26.31
218.113	31.2
218.492	38.75
218.871	19.05
219.25	26.93
219.629	31.74
220.008	36.7
220.387	45.31
220.766	44.38
221.144	14.44
221.523	6.24
221.902	2.93
222.28	-11.08
222.659	11.77
223.037	1.24
223.416	-5.94
223.794	-9.05
224.173	-9.87
224.551	-18.58
224.929	-14.2
225.308	-16.25
225.686	-12.02
226.064	-9.83
226.442	-10.02
226.821	-0.36
227.199	-0.93
227.577	-4.8
227.955	-4.89
228.333	-4.81
228.711	-5.56
229.089	-3.61
229.467	-6.9
229.845	-5.95
230.222	-6.86
230.6	-9.01
230.978	-5.14
231.356	-0.08
231.733	-0.24
232.111	0.81
232.488	4.47
232.866	3.02
233.243	4.83
233.621	3.94
233.998	3.8
234.376	2.75
234.753	0.67
235.13	1.23
235.508	3.29
235.885	3.56
236.262	2.49
236.639	3.89
237.016	3.22
237.393	6.22
237.77	5.75
238.147	6.88
238.524	6.92
238.901	6.71
239.278	5.88
239.655	6.36
240.032	6.32
240.409	5.27
240.785	5.38
241.162	5.39
241.539	5.41
241.915	5.55
242.292	5.61
242.668	5.71
243.045	5.52
243.421	5.25
243.798	5.32
244.174	5.27
244.551	5.15
244.927	5.59
245.303	5.41
245.679	5.52
246.056	5.31
246.432	5.22
246.808	5.41
247.184	5.11
247.56	4.92
247.936	4.66
248.312	4.49
248.688	4.41
249.064	4.22
249.44	4.31
249.815	4.01
250.191	4.21
250.567	4.13
250.943	4.01
251.318	4.23
251.694	4.12
252.069	4.15
252.445	4.15
252.82	4.24
253.196	4.18
253.571	4.3
253.947	4.54
254.322	4.57
254.697	4.07
255.073	4.16
255.448	4.01
255.823	4.11
256.198	4.45
256.573	4.54
256.948	4.49
257.323	4.48
257.698	4.63
258.073	4.58
258.448	4.58
258.823	4.53
259.198	4.33
259.573	4.22
259.948	4.31
260.322	4.32
260.697	4.12
261.072	4.02
261.446	3.95
261.821	3.97
262.195	4.07
262.57	4.01
262.944	3.86
263.319	3.81
263.693	3.84
264.067	3.8
264.442	3.64
264.816	3.7
265.19	3.74
265.564	3.78
265.938	3.61
266.313	3.55
266.687	3.63
267.061	3.57
267.435	3.56
267.809	3.6
268.183	3.7
268.556	3.65
268.93	3.69
269.304	3.78
269.678	3.77
270.051	3.76
270.425	3.81
270.799	3.97
271.172	4.19
271.546	4.24
271.919	4.2
272.293	4.27
272.666	4.21
273.04	4.19
273.413	4.1
273.787	4.31
274.16	4.32
274.533	4.34
274.906	4.34
275.279	4.51
275.653	4.38
276.026	4.29
276.399	4.27
276.772	4.39
277.145	4.19
277.518	4.15
277.891	4.11
278.263	4.05
278.636	3.96
279.009	3.83
279.382	3.81
279.755	3.83
280.127	3.91
280.5	4.02
280.872	4.01
281.245	3.92
281.617	3.92
281.99	3.92
282.362	4
282.735	3.94
283.107	3.7
283.479	3.69
283.852	3.73
284.224	3.77
284.596	3.63
284.968	3.78
285.34	3.83
285.713	3.78
286.085	3.98
286.457	4.17
286.829	4.26
287.201	4.17
287.572	4.12
287.944	4.05
288.316	4.01
288.688	4.04
289.06	4.11
289.431	4.09
289.803	4.09
290.175	4.08
290.546	4.23
290.918	4.44
291.289	4.59
291.661	4.63
292.032	4.69
292.403	4.68
292.775	4.74
293.146	4.71
293.517	4.64
293.889	4.57
294.26	4.53
294.631	4.49
295.002	4.62
295.373	4.6
295.744	4.58
296.115	4.68
296.486	4.63
296.857	4.62
297.228	4.62
297.599	4.73
297.97	4.65
298.34	4.66
298.711	4.61
299.082	4.55
299.452	4.66
299.823	4.74
300.194	4.9
300.564	4.87
300.935	4.95
301.305	5.06
301.676	5.1
302.046	5.12
302.416	5.26
302.787	5.3
303.157	5.41
303.527	5.47
303.897	5.39
304.267	5.57
304.637	5.69
305.008	5.82
305.378	5.81
305.748	5.95
306.117	5.81
306.487	5.87
306.857	5.85
307.227	5.71
307.597	5.73
307.967	5.67
308.336	5.56
308.706	5.5
309.076	5.59
309.445	5.54
309.815	5.5
310.184	5.41
310.554	5.35
310.923	5.33
311.293	5.39
311.662	5.41
312.031	5.31
312.401	5.22
312.77	5.1
313.139	5.11
313.508	5
313.877	5.21
314.246	5.28
314.616	5.32
314.985	5.31
315.353	5.31
315.722	5.31
316.091	5.35
316.46	5.29
316.829	5.31
317.198	5.48
317.567	5.55
317.935	5.6
318.304	5.57
318.672	5.56
319.041	5.68
319.41	5.76
319.778	5.84
320.147	5.96
320.515	5.9
320.883	5.79
321.252	6.04
321.62	6.12
321.988	6.05
322.357	5.91
322.725	5.99
323.093	5.98
323.461	6.05
323.829	6.08
324.197	6.16
324.565	6.15
324.933	6.08
325.301	6.09
325.669	6.04
326.037	6.09
326.405	6.15
326.772	6.15
327.14	6.24
327.508	6.17
327.875	6.06
328.243	6.15
328.61	6.12
328.978	5.95
329.346	5.87
329.713	5.85
330.08	6
330.448	5.94
330.815	5.78
331.182	5.73
331.55	5.78
331.917	5.75
332.284	5.84
332.651	5.74
333.018	5.71
333.385	5.64
333.752	5.71
334.119	5.75
334.486	5.69
334.853	5.64
335.22	5.69
335.587	5.79
335.954	5.78
336.32	5.8
336.687	5.84
337.054	5.78
337.42	5.84
337.787	5.7
338.153	5.77
338.52	5.89
338.886	5.76
339.253	5.73
339.619	5.77
339.986	5.6
340.352	5.73
340.718	5.68
341.084	5.74
341.451	5.76
341.817	5.7
342.183	5.7
342.549	5.61
342.915	5.58
343.281	5.57
343.647	5.56
344.013	5.63
344.379	5.54
344.745	5.5
345.11	5.53
345.476	5.61
345.842	5.63
346.208	5.62
346.573	5.78
346.939	5.89
347.304	5.8
347.67	5.78
348.035	5.64
348.401	5.71
348.766	5.65
349.132	5.62
349.497	5.64
349.862	5.7
350.228	5.75
350.593	5.76
350.958	5.8
351.323	5.83
351.688	5.79
352.053	5.91
352.418	5.92
352.783	5.81
353.148	5.85
353.513	5.75
353.878	5.76
354.243	5.74
354.608	5.63
354.972	5.7
355.337	5.76
355.702	5.86
356.066	5.96
356.431	5.97
356.795	5.96
357.16	5.89
357.524	5.87
357.889	5.84
358.253	5.87
358.618	5.83
358.982	5.77
359.346	5.77
359.71	5.73
360.075	5.78
360.439	5.85
360.803	5.82
361.167	5.78
361.531	5.77
361.895	5.69
362.259	5.64
362.623	5.67
362.987	5.63
363.351	5.59
363.714	5.51
364.078	5.53
364.442	5.54
364.806	5.55
365.169	5.49
365.533	5.5
365.896	5.46
366.26	5.43
366.623	5.41
366.987	5.42
367.35	5.44
367.714	5.38
368.077	5.34
368.44	5.32
368.803	5.37
369.167	5.34
369.53	5.38
369.893	5.5
370.256	5.43
370.619	5.49
370.982	5.47
371.345	5.43
371.708	5.51
372.071	5.44
372.434	5.39
372.797	5.42
373.159	5.36
373.522	5.38
373.885	5.41
374.247	5.48
374.61	5.44
374.973	5.39
375.335	5.43
375.698	5.41
376.06	5.44
376.423	5.45
376.785	5.45
377.147	5.46
377.51	5.43
377.872	5.48
378.234	5.51
378.596	5.5
378.958	5.47
379.321	5.44
379.683	5.48
380.045	5.53
380.407	5.5
380.769	5.55
381.13	5.53
381.492	5.55
381.854	5.51
382.216	5.53
382.578	5.56
382.939	5.54
383.301	5.55
383.663	5.55
384.024	5.53
384.386	5.58
384.747	5.58
385.109	5.61
385.47	5.55
385.832	5.53
386.193	5.51
386.554	5.56
386.916	5.57
387.277	5.54
387.638	5.53
387.999	5.54
388.36	5.6
388.721	5.58
389.082	5.58
389.443	5.58
389.804	5.57
390.165	5.55
390.526	5.53
390.887	5.53
391.248	5.54
391.609	5.52
391.969	5.49
392.33	5.47
392.691	5.44
393.051	5.46
393.412	5.44
393.772	5.41
394.133	5.39
394.493	5.35
394.854	5.36
395.214	5.37
395.574	5.34
395.935	5.3
396.295	5.31
396.655	5.27
397.015	5.23
397.376	5.2
397.736	5.22
398.096	5.24
398.456	5.24
398.816	5.18
399.176	5.17
399.535	5.18
399.895	5.16
400.255	5.09
400.615	5.05
400.975	5.07
401.334	5.09
401.694	5.08
402.054	5.06
402.413	5.08
402.773	5.04
403.132	5.04
403.492	5
403.851	5.01
404.211	4.99
404.57	5.01
404.929	5.05
405.288	5.01
405.648	4.99
406.007	4.97
406.366	5
406.725	5.03
407.084	5
407.443	5.01
407.802	5.06
408.161	5.04
408.52	4.98
408.879	4.96
409.238	4.92
409.596	4.95
409.955	4.91
410.314	4.91
410.673	4.9
411.031	4.91
411.39	4.93
411.748	4.93
412.107	4.93
412.465	4.9
412.824	4.92
413.182	4.88
413.54	4.86
413.899	4.84
414.257	4.82
414.615	4.84
414.974	4.83
415.332	4.81
415.69	4.84
416.048	4.84
416.406	4.86
416.764	4.88
417.122	4.85
417.48	4.83
417.838	4.83
418.195	4.82
418.553	4.81
418.911	4.77
419.269	4.78
419.626	4.77
419.984	4.76
420.342	4.74
420.699	4.74
421.057	4.72
421.414	4.7
421.772	4.71
422.129	4.69
422.486	4.68
422.844	4.68
423.201	4.67
423.558	4.67
423.915	4.65
424.273	4.64
424.63	4.63
424.987	4.64
425.344	4.64
425.701	4.63
426.058	4.63
426.415	4.61
426.772	4.57
427.128	4.55
427.485	4.56
427.842	4.55
428.199	4.55
428.555	4.56
428.912	4.56
429.269	4.55
429.625	4.55
429.982	4.52
430.338	4.51
430.695	4.51
431.051	4.5
431.407	4.5
431.764	4.47
432.12	4.45
432.476	4.44
432.832	4.42
433.189	4.42
433.545	4.41
433.901	4.45
434.257	4.45
434.613	4.47
434.969	4.45
435.325	4.46
435.681	4.47
436.036	4.48
436.392	4.47
436.748	4.45
437.104	4.43
437.459	4.44
437.815	4.44
438.171	4.44
438.526	4.45
438.882	4.45
439.237	4.48
439.593	4.5
439.948	4.49
440.304	4.5
440.659	4.49
441.014	4.5
441.369	4.48
441.725	4.49
442.08	4.48
442.435	4.49
442.79	4.49
443.145	4.49
443.5	4.48
443.855	4.49
444.21	4.49
444.565	4.51
444.92	4.52
445.275	4.51
445.629	4.51
445.984	4.5
446.339	4.48
446.693	4.47
447.048	4.45
447.403	4.45
447.757	4.44
448.112	4.44
448.466	4.42
448.82	4.42
449.175	4.42
449.529	4.4
449.883	4.4
450.238	4.39
450.592	4.39
450.946	4.37
451.3	4.36
451.654	4.36
452.008	4.36
452.362	4.35
452.716	4.33
453.07	4.34
453.424	4.33
453.778	4.33
454.132	4.33
454.486	4.32
454.839	4.31
455.193	4.29
455.547	4.27
455.9	4.29
456.254	4.28
456.607	4.27
456.961	4.26
457.314	4.24
457.668	4.26
458.021	4.25
458.375	4.25
458.728	4.26
459.081	4.25
459.434	4.22
459.787	4.21
460.141	4.22
460.494	4.23
460.847	4.24
461.2	4.23
461.553	4.24
461.906	4.26
462.259	4.25
462.611	4.28
462.964	4.31
463.317	4.29
463.67	4.3
464.022	4.31
464.375	4.31
464.728	4.34
465.08	4.34
465.433	4.34
465.785	4.34
466.138	4.35
466.49	4.38
466.843	4.4
467.195	4.41
467.547	4.4
467.899	4.39
468.252	4.39
468.604	4.39
468.956	4.39
469.308	4.39
469.66	4.39
470.012	4.38
470.364	4.39
470.716	4.4
471.068	4.41
471.42	4.4
471.772	4.42
472.123	4.43
472.475	4.43
472.827	4.44
473.178	4.46
473.53	4.45
473.882	4.42
474.233	4.42
474.585	4.41
474.936	4.41
475.288	4.39
475.639	4.41
475.99	4.41
476.342	4.41
476.693	4.41
477.044	4.43
477.395	4.44
477.746	4.44
478.097	4.43
478.448	4.43
478.8	4.42
479.15	4.39
479.501	4.39
479.852	4.38
480.203	4.39
480.554	4.4
480.905	4.43
481.255	4.46
481.606	4.48
481.957	4.51
482.307	4.52
482.658	4.53
483.009	4.53
483.359	4.53
483.709	4.53
484.06	4.54
484.41	4.54
484.761	4.54
485.111	4.54
485.461	4.55
485.811	4.56
486.162	4.57
486.512	4.59
486.862	4.59
487.212	4.59
487.562	4.6
487.912	4.6
488.262	4.59
488.612	4.58
488.961	4.58
489.311	4.57
489.661	4.57
490.011	4.57
490.36	4.55
490.71	4.56
491.06	4.56
491.409	4.57
491.759	4.56
492.108	4.57
492.458	4.57
492.807	4.56
493.157	4.55
493.506	4.55
493.855	4.56
494.204	4.55
494.554	4.54
494.903	4.53
495.252	4.53
495.601	4.53
495.95	4.54
496.299	4.55
496.648	4.54
496.997	4.54
497.346	4.57
497.695	4.6
498.043	4.62
498.392	4.65
498.741	4.66
499.09	4.67
499.438	4.7
499.787	4.72
500.135	4.76
500.484	4.78
500.832	4.79
501.181	4.82
501.529	4.85
501.878	4.89
502.226	4.91
502.574	4.94
502.923	4.97
503.271	5
503.619	5
503.967	5.03
504.315	5.04
504.663	5.05
505.011	5.08
505.359	5.09
505.707	5.12
506.055	5.1
506.403	5.12
506.751	5.11
507.098	5.12
507.446	5.14
507.794	5.17
508.141	5.18
508.489	5.18
508.837	5.18
509.184	5.19
509.531	5.23
509.879	5.24
510.226	5.26
510.574	5.26
510.921	5.28
511.268	5.3
511.616	5.33
511.963	5.37
512.31	5.38
512.657	5.41
513.004	5.4
513.351	5.44
513.698	5.45
514.045	5.47
514.392	5.49
514.739	5.48
515.086	5.51
515.432	5.53
515.779	5.51
516.126	5.55
516.473	5.57
516.819	5.59
517.166	5.59
517.512	5.61
517.859	5.63
518.205	5.64
518.552	5.64
518.898	5.63
519.245	5.64
519.591	5.62
519.937	5.61
520.283	5.63
520.629	5.64
520.976	5.67
521.322	5.69
521.668	5.7
522.014	5.74
522.36	5.74
522.706	5.74
523.052	5.77
523.398	5.79
523.743	5.82
524.089	5.83
524.435	5.84
524.781	5.86
525.126	5.88
525.472	5.9
525.817	5.92
526.163	5.94
526.509	5.95
526.854	5.97
527.199	5.99
527.545	6
527.89	6
528.235	6.01
528.581	6.03
528.926	6.03
529.271	6.03
529.616	6.03
529.961	6.05
530.306	6.07
530.651	6.07
530.996	6.06
531.341	6.07
531.686	6.07
532.031	6.06
532.376	6.06
532.721	6.06
533.065	6.06
533.41	6.07
533.755	6.07
534.099	6.08
534.444	6.08
534.788	6.1
535.133	6.1
535.477	6.09
535.822	6.09
536.166	6.11
536.51	6.13
536.855	6.14
537.199	6.14
537.543	6.15
537.887	6.16
538.231	6.18
538.576	6.19
538.92	6.2
539.264	6.22
539.608	6.23
539.951	6.24
540.295	6.26
540.639	6.28
540.983	6.27
541.327	6.28
541.671	6.29
542.014	6.29
542.358	6.3
542.701	6.31
543.045	6.3
543.389	6.3
543.732	6.3
544.075	6.31
544.419	6.31
544.762	6.33
545.105	6.34
545.449	6.35
545.792	6.36
546.135	6.39
546.478	6.4
546.821	6.4
547.165	6.4
547.508	6.39
547.851	6.37
548.194	6.39
548.536	6.4
548.879	6.42
549.222	6.42
549.565	6.43
549.908	6.42
550.25	6.46
550.593	6.46
550.936	6.46
551.278	6.45
551.621	6.46
551.963	6.45
552.306	6.43
552.648	6.41
552.991	6.42
553.333	6.42
553.675	6.43
554.017	6.44
554.36	6.45
554.702	6.47
555.044	6.47
555.386	6.48
555.728	6.47
556.07	6.46
556.412	6.45
556.754	6.49
557.096	6.5
557.438	6.45
557.78	6.47
558.121	6.49
558.463	6.5
558.805	6.51
559.147	6.49
559.488	6.5
559.83	6.5
560.171	6.49
560.513	6.5
560.854	6.52
561.196	6.51
561.537	6.52
561.878	6.52
562.22	6.5
562.561	6.49
562.902	6.48
563.243	6.47
563.584	6.49
563.925	6.46
564.266	6.46
564.607	6.49
564.948	6.49
565.289	6.51
565.63	6.51
565.971	6.49
566.312	6.54
566.653	6.55
566.993	6.56
567.334	6.55
567.675	6.54
568.015	6.52
568.356	6.54
568.696	6.55
569.037	6.58
569.377	6.62
569.718	6.65
570.058	6.67
570.398	6.67
570.739	6.69
571.079	6.73
571.419	6.73
571.759	6.73
572.099	6.73
572.439	6.73
572.779	6.74
573.119	6.75
573.459	6.75
573.799	6.78
574.139	6.78
574.479	6.79
574.819	6.8
575.158	6.82
575.498	6.82
575.838	6.82
576.177	6.82
576.517	6.8
576.856	6.8
577.196	6.77
577.535	6.76
577.875	6.79
578.214	6.78
578.553	6.81
578.893	6.82
579.232	6.84
579.571	6.85
579.91	6.84
580.25	6.85
580.589	6.81
580.928	6.8
581.267	6.8
581.606	6.82
581.945	6.8
582.283	6.8
582.622	6.76
582.961	6.76
583.3	6.74
583.639	6.79
583.977	6.8
584.316	6.81
584.654	6.81
584.993	6.79
585.332	6.79
585.67	6.77
586.008	6.75
586.347	6.77
586.685	6.74
587.024	6.75
587.362	6.77
587.7	6.77
588.038	6.75
588.376	6.76
588.715	6.76
589.053	6.82
589.391	6.83
589.729	6.88
590.067	6.87
590.404	6.84
590.742	6.85
591.08	6.79
591.418	6.83
591.756	6.82
592.093	6.81
592.431	6.81
592.769	6.79
593.106	6.79
593.444	6.73
593.781	6.74
594.119	6.77
594.456	6.77
594.793	6.78
595.131	6.76
595.468	6.76
595.805	6.74
596.143	6.74
596.48	6.72
596.817	6.72
597.154	6.72
597.491	6.72
597.828	6.71
598.165	6.73
598.502	6.72
598.839	6.71
599.176	6.71
599.512	6.68
599.849	6.7
600.186	6.72
600.523	6.77
600.859	6.77
601.196	6.76
601.532	6.75
601.869	6.7
602.205	6.73
602.542	6.77
602.878	6.81
603.215	6.81
603.551	6.82
603.887	6.82
604.223	6.85
604.56	6.9
604.896	6.89
605.232	6.92
605.568	6.95
605.904	6.98
606.24	7.01
606.576	7.05
606.912	7.07
607.248	7.06
607.583	7.06
607.919	7.06
608.255	7.05
608.591	7.08
608.926	7.14
609.262	7.18
609.597	7.16
609.933	7.13
610.268	7.13
610.604	7.12
610.939	7.11
611.275	7.08
611.61	7.07
611.945	7.08
612.281	7.09
612.616	7.08
612.951	7.07
613.286	7.06
613.621	7.02
613.956	6.99
614.291	7.01
614.626	7
614.961	7.01
615.296	7
615.631	7.01
615.966	6.97
616.3	6.95
616.635	6.98
616.97	6.98
617.304	6.95
617.639	7.05
617.973	7.03
618.308	7.01
618.642	7.04
618.977	6.99
619.311	7.01
619.646	7.04
619.98	7.06
620.314	7.06
620.648	7.14
620.983	7.17
621.317	7.19
621.651	7.24
621.985	7.32
622.319	7.33
622.653	7.31
622.987	7.38
623.321	7.38
623.655	7.4
623.988	7.5
624.322	7.44
624.656	7.37
624.99	7.4
625.323	7.46
625.657	7.46
625.99	7.49
626.324	7.47
626.657	7.47
626.991	7.47
627.324	7.41
627.658	7.39
627.991	7.41
628.324	7.42
628.657	7.38
628.991	7.35
629.324	7.39
629.657	7.44
629.99	7.43
630.323	7.43
630.656	7.35
630.989	7.25
631.322	7.33
631.655	7.3
631.987	7.36
632.32	7.36
632.653	7.34
632.986	7.32
633.318	7.28
633.651	7.3
633.984	7.29
634.316	7.36
634.649	7.32
634.981	7.26
635.313	7.22
635.646	7.21
635.978	7.19
636.31	7.17
636.643	7.18
636.975	7.19
637.307	7.17
637.639	7.25
637.971	7.28
638.303	7.26
638.635	7.31
638.967	7.22
639.299	7.22
639.631	7.18
639.963	7.19
640.295	7.26
640.626	7.26
640.958	7.31
641.29	7.31
641.621	7.32
641.953	7.37
642.285	7.37
642.616	7.38
642.948	7.35
643.279	7.31
643.61	7.33
643.942	7.32
644.273	7.37
644.604	7.31
644.936	7.22
645.267	7.22
645.598	7.24
645.929	7.25
646.26	7.29
646.591	7.35
646.922	7.37
647.253	7.37
647.584	7.36
647.915	7.35
648.245	7.34
648.576	7.43
648.907	7.46
649.238	7.45
649.568	7.5
649.899	7.54
650.229	7.59
650.56	7.5
650.89	7.48
651.221	7.48
651.551	7.49
651.882	7.56
652.212	7.53
652.542	7.59
652.872	7.58
653.203	7.56
653.533	7.59
653.863	7.55
654.193	7.56
654.523	7.52
654.853	7.51
655.183	7.51
655.513	7.46
655.843	7.4
656.172	7.39
656.502	7.33
656.832	7.32
657.162	7.27
657.491	7.27
657.821	7.28
658.15	7.28
658.48	7.26
658.809	7.22
659.139	7.19
659.468	7.11
659.798	7.15
660.127	7.12
660.456	7.07
660.785	7.13
661.115	7.13
661.444	7.13
661.773	7.11
662.102	7.14
662.431	7.22
662.76	7.25
663.089	7.31
663.418	7.3
663.747	7.29
664.076	7.32
664.404	7.27
664.733	7.3
665.062	7.26
665.39	7.3
665.719	7.36
666.048	7.47
666.376	7.51
666.705	7.47
667.033	7.5
667.362	7.51
667.69	7.48
668.018	7.42
668.347	7.42
668.675	7.45
669.003	7.45
669.331	7.45
669.659	7.45
669.987	7.44
670.315	7.48
670.643	7.48
670.971	7.52
671.299	7.64
671.627	7.64
671.955	7.68
672.283	7.71
672.61	7.77
672.938	7.66
673.266	7.68
673.593	7.81
673.921	7.78
674.249	7.84
674.576	7.82
674.904	7.84
675.231	7.84
675.558	7.8
675.886	7.74
676.213	7.62
676.54	7.61
676.867	7.68
677.195	7.63
677.522	7.65
677.849	7.73
678.176	7.7
678.503	7.6
678.83	7.59
679.157	7.49
679.484	7.44
679.81	7.48
680.137	7.43
680.464	7.34
680.791	7.34
681.117	7.24
681.444	7.26
681.771	7.28
682.097	7.27
682.424	7.34
682.75	7.42
683.077	7.39
683.403	7.4
683.729	7.3
684.056	7.37
684.382	7.41
684.708	7.3
685.034	7.27
685.36	7.37
685.686	7.36
686.012	7.46
686.339	7.56
686.664	7.61
686.99	7.67
687.316	7.7
687.642	7.79
687.968	7.95
688.294	8
688.619	8.1
688.945	8.08
689.271	8.09
689.596	7.93
689.922	8.02
690.247	8.04
690.573	8.07
690.898	8.05
691.224	8.08
691.549	8.05
691.874	8.09
692.2	8.11
692.525	8.06
692.85	8.06
693.175	7.94
693.5	8.03
693.825	8.02
694.15	7.97
694.475	7.79
694.8	7.77
695.125	7.65
695.45	7.54
695.775	7.59
696.099	7.52
696.424	7.58
696.749	7.55
697.073	7.56
697.398	7.65
697.723	7.7
698.047	7.71
698.372	7.76
698.696	7.8
699.02	7.79
699.345	7.83
699.669	7.87
699.993	7.87
700.318	7.8
700.642	7.89
700.966	7.97
701.29	8.09
701.614	8.04
701.938	8.12
702.262	8.21
702.586	8.24
702.91	8.26
703.234	8.34
703.557	8.37
703.881	8.41
704.205	8.46
704.529	8.44
704.852	8.43
705.176	8.37
705.499	8.26
705.823	8.3
706.146	8.19
706.47	8.21
706.793	8.28
707.117	8.28
707.44	8.26
707.763	8.29
708.086	8.18
708.409	8.17
708.733	8.12
709.056	8.16
709.379	8.21
709.702	8.25
710.025	8.16
710.348	8.12
710.671	8.05
710.993	7.98
711.316	7.92
711.639	7.93
711.962	8.13
712.284	8.17
712.607	8.14
712.93	8.29
713.252	8.17
713.575	8.24
713.897	8.2
714.22	8.12
714.542	7.95
714.864	8.09
715.187	8.21
715.509	8.15
715.831	8.03
716.153	8.06
716.475	8.12
716.798	8.2
717.12	8.15
717.442	8.17
717.764	8.15
718.085	8.21
718.407	8.21
718.729	8
719.051	7.91
719.373	7.93
719.695	7.89
720.016	8.16
720.338	8.25
720.659	8.25
720.981	8.32
721.302	8.47
721.624	8.46
721.945	8.55
722.267	8.72
722.588	8.75
722.909	8.8
723.231	8.67
723.552	8.56
723.873	8.59
724.194	8.63
724.515	8.74
724.836	8.79
725.157	8.91
725.478	8.83
725.799	8.89
726.12	8.78
726.441	8.74
726.762	8.63
727.083	8.55
727.403	8.58
727.724	8.59
728.045	8.6
728.365	8.52
728.686	8.29
729.006	8.09
729.327	8.07
729.647	7.99
729.967	8.14
730.288	8.38
730.608	8.44
730.928	8.31
731.249	8.2
731.569	8.15
731.889	8.17
732.209	8.18
732.529	8.32
732.849	8.55
733.169	8.61
733.489	8.63
733.809	8.57
734.129	8.42
734.448	8.36
734.768	8.33
735.088	8.28
735.408	8.43
735.727	8.59
736.047	8.79
736.366	8.71
736.686	8.81
737.005	8.61
737.325	8.61
737.644	8.68
737.963	8.67
738.283	8.62
738.602	8.4
738.921	8.58
739.24	8.54
739.56	8.26
739.879	8.43
740.198	8.28
740.517	8.26
740.836	8.37
741.155	8.36
741.473	8.47
741.792	8.66
742.111	8.61
742.43	8.58
742.748	8.27
743.067	8.39
743.386	8.18
743.704	8.25
744.023	8.18
744.341	8.25
744.66	8.31
744.978	8.24
745.297	8.37
745.615	8.32
745.933	8.54
746.252	8.74
746.57	8.43
746.888	8.46
747.206	8.42
747.524	8.44
747.842	8.51
748.16	8.63
748.478	8.53
748.796	8.55
749.114	8.84
749.432	8.99
749.749	8.96
750.067	8.82
750.385	8.86
750.703	8.93
751.02	8.77
751.338	8.76
751.655	8.83
751.973	8.89
752.29	8.76
752.608	8.81
752.925	8.78
753.242	8.74
753.56	8.73
753.877	8.76
754.194	8.86
754.511	9.03
754.828	8.8
755.145	8.94
755.462	8.75
755.779	8.7
756.096	8.76
756.413	8.74
756.73	9.09
757.047	9.11
757.364	9.22
757.68	9.48
757.997	9.45
758.314	9.4
758.63	9.54
758.947	9.65
759.264	9.38
759.58	9.25
759.896	9.6
760.213	9.65
760.529	9.51
760.846	9.47
761.162	9.51
761.478	9.53
761.794	9.31
762.11	9.38
762.426	9.22
762.743	9.13
763.059	9.08
763.375	9.02
763.69	9.05
764.006	9.04
764.322	9.1
764.638	9.16
764.954	9.27
765.27	8.98
765.585	9.03
765.901	9.11
766.216	9.2
766.532	8.89
766.848	8.8
767.163	9.06
767.478	9.2
767.794	9.28
768.109	8.96
768.424	9.26
768.74	9.53
769.055	9.6
769.37	9.97
769.685	10.16
770	10.3
770.315	10.19
770.63	10.1
770.945	9.84
771.26	9.81
771.575	10.06
771.89	10.22
772.205	10.14
772.52	10.24
772.834	10.22
773.149	10.22
773.464	10.31
773.778	10.14
774.093	9.8
774.407	9.53
774.722	10.15
775.036	9.83
775.351	9.83
775.665	9.98
775.979	9.18
776.293	9.12
776.608	8.87
776.922	8.61
777.236	8.77
777.55	8.8
777.864	8.98
778.178	8.81
778.492	9.16
778.806	8.89
779.12	8.78
779.434	9
779.747	9.52
780.061	9.67
780.375	9.94
780.689	10.06
781.002	10.22
781.316	10.19
781.629	10.45
781.943	10.36
782.256	10.58
782.57	11
782.883	11.12
783.196	11.2
783.51	11.62
783.823	11.71
784.136	11.95
784.449	11.87
784.762	11.66
785.075	11.16
785.388	11.55
785.701	11.56
786.014	11.56
786.327	11.28
786.64	11.19
786.953	11.07
787.266	11.43
787.578	11.35
787.891	11.47
788.204	11.22
788.516	11.18
788.829	11.11
789.141	11.55
789.454	11.48
789.766	11.59
790.079	11.55
790.391	11.23
790.703	11.04
791.016	10.95
791.328	10.89
791.64	10.96
791.952	11.09
792.264	10.48
792.576	10.32
792.888	10.24
793.2	10.45
793.512	10.3
793.824	10.08
794.136	9.68
794.448	10.11
794.76	9.99
795.071	9.83
795.383	9.6
795.695	9.03
796.006	8.71
796.318	8.87
796.629	9.27
796.941	9.47
797.252	9.74
797.564	9.44
797.875	9.45
798.186	9.69
798.497	9.56
798.809	10.18
799.12	10.12
799.431	10.51
799.742	10.08
800.053	10.27
800.364	10.26
800.675	10.23
800.986	9.44
801.297	9.44
801.608	9.65
801.918	9.69
802.229	9.8
802.54	10.16
802.851	9.6
803.161	9.45
803.472	9.59
803.782	9.54
804.093	9.72
804.403	10.09
804.714	10.06
805.024	10.27
805.334	10.19
805.645	9.94
805.955	9.57
806.265	10.14
806.575	9.87
806.885	10.43
807.195	11.1
807.505	11.27
807.815	11.28
808.125	11.51
808.435	11.81
808.745	11.86
809.055	12.27
809.365	12.54
809.674	12.42
809.984	12.41
810.294	12.42
810.603	13.51
810.913	13.55
811.222	13.9
811.532	13.95
811.841	14.64
812.151	15.64
812.46	15.62
812.769	15.07
813.079	14.95
813.388	13.97
813.697	13.95
814.006	13.63
814.315	14.06
814.624	13.49
814.933	13.72
815.242	13.33
815.551	13.01
815.86	13.06
816.169	12.62
816.478	12.22
816.786	12.26
817.095	11.37
817.404	11.63
817.712	11.06
818.021	10.75
818.33	10.26
818.638	9.78
818.947	10.54
819.255	10.78
819.563	10.77
819.872	10.6
820.18	10.57
820.488	10.78
820.796	10.77
821.105	10.71
821.413	10.7
821.721	10.61
822.029	10.59
822.337	10.62
822.645	10.68
822.953	10.62
823.26	10.81
823.568	10.89
823.876	10.83
824.184	10.87
824.491	10.75
824.799	10.75
825.107	10.78
825.414	10.75
825.722	10.7
826.029	10.71
826.337	10.91
826.644	10.81
826.951	10.69
827.259	10.45
827.566	10.51
827.873	10.41
828.18	10.73
828.488	10.8
828.795	10.66
829.102	11.05
829.409	11.33
829.716	11.12
830.023	11.18
830.329	11.05
830.636	11.4
830.943	11.5
831.25	11.56
831.557	11.47
831.863	11.33
832.17	11.68
832.476	11.82
832.783	12.22
833.089	12.25
833.396	12.5
833.702	13.33
834.009	13.04
834.315	13.08
834.621	12.9
834.928	12.85
835.234	13.11
835.54	12.67
835.846	12.98
836.152	12.93
836.458	12.84
836.764	12.83
837.07	12.23
837.376	12.15
837.682	11.79
837.988	11.52
838.293	11.63
838.599	11.23
838.905	11.17
839.211	10.55
839.516	10.42
839.822	10.7
840.127	9.57
840.433	10.55
840.738	10.19
841.044	10.37
841.349	10.56
841.654	10.71
841.959	10.89
842.265	9.4
842.57	9.26
842.875	9.54
843.18	10.26
843.485	11.16
843.79	11.42
844.095	11.81
844.4	12.72
844.705	10.98
845.01	11.81
845.315	13.09
845.619	12.54
845.924	14.07
846.229	14.1
846.533	15.81
846.838	14.74
847.142	14.26
847.447	13.48
847.751	14.47
848.056	12.19
848.36	11.97
848.664	13.72
848.969	12.85
849.273	10.49
849.577	9.91
849.881	8.93
850.185	9.93
850.489	10.77
850.794	9.58
851.097	11.14
851.401	8.8
851.705	7.01
852.009	9.41
852.313	9.52
852.617	8.23
852.92	9.66
853.224	9.42
853.528	11.39
853.831	10.44
854.135	9.03
854.438	10.58
854.742	9.45
855.045	8.19
855.349	10.51
855.652	13.03
855.955	13.06
856.259	12.93
856.562	13.47
856.865	13.76
857.168	15.13
857.471	16.09
857.774	18.37
858.077	18.37
858.38	17.46
858.683	18.54
858.986	20.74
859.289	19.14
859.592	20.93
859.894	20.07
860.197	22.88
860.5	21.19
860.802	21.77
861.105	22.94
861.407	22.59
861.71	21.4
862.012	21.59
862.315	20.73
862.617	21.84
862.919	21.03
863.222	21.22
863.524	22.49
863.826	23.12
864.128	22.09
864.43	23.02
864.732	22.85
865.034	20.36
865.336	19.91
865.638	18.9
865.94	17.01
866.242	17.4
866.544	15.61
866.846	17.64
867.147	19.83
867.449	21.34
867.751	23.27
868.052	25.26
868.354	24.45
868.655	26.07
868.957	24.85
869.258	23.48
869.56	23.77
869.861	23.38
870.162	22.54
870.463	24.3
870.765	23.57
871.066	22.02
871.367	23.18
871.668	23.02
871.969	22.13
872.27	21.92
872.571	21.48
872.872	21.24
873.173	19.04
873.473	15.59
873.774	16.11
874.075	14.31
874.376	11.41
874.676	12.34
874.977	10.23
875.277	13.03
875.578	14.32
875.878	13.13
876.179	12.3
876.479	11.86
876.78	10.2
877.08	9.3
877.38	10.16
877.68	8.65
877.981	7.64
878.281	9.35
878.581	12.55
