Data from BU58119_Reflection_00015.txt Node
Date: Tue Nov 19 10:51:11 EST 2019
User: vgr7
Spectrometer: USB2G7710
Scans to average: 3
Trigger mode: 4
Integration Time (sec): 2.000000E-2
Electric dark correction enabled: true
Boxcar width: 10
XAxis mode: Wavelengths
Number of Pixels in Spectrum: 2048
>>>>>Begin Spectral Data<<<<<
177.721	232.59
178.105	36.89
178.488	66.86
178.871	295.45
179.254	560
179.636	143.1
180.019	102.15
180.402	77.78
180.785	-236.36
181.168	38.31
181.55	34.63
181.933	51.03
182.316	97.76
182.698	4.12
183.081	5.85
183.463	-41.4
183.846	-60.75
184.228	-33.09
184.611	15.02
184.993	90.14
185.376	54.87
185.758	216.82
186.14	74.63
186.522	114.1
186.904	55.7
187.287	94.43
187.669	125.52
188.051	97.22
188.433	91.41
188.815	94.51
189.197	88.14
189.579	62.41
189.961	52.83
190.342	60.67
190.724	37.32
191.106	18.79
191.488	12.71
191.869	15.97
192.251	18.93
192.633	23.78
193.014	29.77
193.396	33.35
193.777	27.78
194.159	46.44
194.54	39.27
194.922	44.49
195.303	32.85
195.684	31.09
196.065	39.87
196.447	46.49
196.828	34.99
197.209	41.66
197.59	62.82
197.971	67.44
198.352	57.53
198.733	59.82
199.114	70.92
199.495	124.91
199.876	223.13
200.257	753.85
200.638	1353.25
201.018	-2819.35
201.399	234.81
201.78	135.32
202.16	101.49
202.541	820.34
202.922	526.17
203.302	-5246.15
203.683	-2680
204.063	452.63
204.444	164.36
204.824	8000
205.204	79.49
205.585	46.73
205.965	47.5
206.345	51.17
206.725	55.77
207.106	43.43
207.486	25.81
207.866	23.16
208.246	25.17
208.626	19.97
209.006	29.18
209.386	38.11
209.766	58.31
210.145	40.62
210.525	36.36
210.905	26.24
211.285	26.59
211.664	30.08
212.044	29.92
212.424	35.04
212.803	25.75
213.183	20.48
213.562	17.75
213.942	10.07
214.321	10.74
214.701	12.66
215.08	17.44
215.459	23.4
215.838	23.06
216.218	22.9
216.597	27.49
216.976	17.42
217.355	18.23
217.734	20.13
218.113	15.54
218.492	12.6
218.871	15.7
219.25	22.86
219.629	10.24
220.008	12.39
220.387	12.16
220.766	10.87
221.144	16.64
221.523	28.77
221.902	37.9
222.28	43.53
222.659	43.57
223.037	51.51
223.416	48.29
223.794	44.76
224.173	42.8
224.551	40.58
224.929	32.29
225.308	31.48
225.686	29.44
226.064	31.27
226.442	23.57
226.821	21.19
227.199	15.05
227.577	15.58
227.955	19.64
228.333	19.97
228.711	24.48
229.089	22.61
229.467	22.08
229.845	19.84
230.222	20.57
230.6	15.47
230.978	10.33
231.356	8.03
231.733	9.33
232.111	9.69
232.488	9.03
232.866	12.38
233.243	13.01
233.621	13.61
233.998	13.71
234.376	15.25
234.753	12.97
235.13	12.05
235.508	13.68
235.885	11.6
236.262	9.24
236.639	7.57
237.016	7.59
237.393	7.53
237.77	7.73
238.147	7.84
238.524	9.16
238.901	9.36
239.278	9.46
239.655	8.92
240.032	8.45
240.409	8.02
240.785	7.74
241.162	7.38
241.539	6.54
241.915	6.56
242.292	6.59
242.668	6.81
243.045	7.57
243.421	7.05
243.798	7.12
244.174	7.42
244.551	7.64
244.927	7.42
245.303	7.12
245.679	6.89
246.056	6.5
246.432	6.4
246.808	6.69
247.184	6.66
247.56	6.55
247.936	6.75
248.312	7.1
248.688	6.93
249.064	6.77
249.44	6.81
249.815	6.83
250.191	6.69
250.567	6.78
250.943	6.52
251.318	6.55
251.694	6.61
252.069	6.71
252.445	6.6
252.82	6.87
253.196	6.87
253.571	6.98
253.947	6.84
254.322	6.77
254.697	6.22
255.073	6.32
255.448	6.37
255.823	5.94
256.198	5.8
256.573	6
256.948	6.03
257.323	6.06
257.698	6.08
258.073	6.04
258.448	5.94
258.823	5.78
259.198	5.8
259.573	5.81
259.948	5.71
260.322	5.62
260.697	5.35
261.072	5.53
261.446	5.46
261.821	5.51
262.195	5.57
262.57	5.76
262.944	5.79
263.319	5.8
263.693	5.92
264.067	6
264.442	5.89
264.816	5.78
265.19	5.68
265.564	5.83
265.938	5.82
266.313	5.87
266.687	6.14
267.061	6.13
267.435	6.04
267.809	5.93
268.183	5.96
268.556	6.26
268.93	6.09
269.304	6.14
269.678	6.43
270.051	6.36
270.425	6.37
270.799	6.02
271.172	6.04
271.546	6.01
271.919	5.91
272.293	6.02
272.666	6.17
273.04	6.22
273.413	5.97
273.787	5.87
274.16	5.66
274.533	5.62
274.906	5.53
275.279	5.32
275.653	5.35
276.026	5.57
276.399	5.21
276.772	5.29
277.145	5.27
277.518	4.87
277.891	4.74
278.263	4.74
278.636	5.09
279.009	5.29
279.382	5.19
279.755	5.06
280.127	4.84
280.5	4.63
280.872	4.73
281.245	4.85
281.617	5.05
281.99	5.14
282.362	5.18
282.735	5.35
283.107	5.44
283.479	5.53
283.852	5.31
284.224	5.5
284.596	5.5
284.968	5.45
285.34	5.49
285.713	5.5
286.085	5.5
286.457	5.54
286.829	5.3
287.201	5.37
287.572	5.34
287.944	5.52
288.316	5.66
288.688	5.67
289.06	5.79
289.431	5.77
289.803	5.85
290.175	5.89
290.546	5.93
290.918	6.16
291.289	6.08
291.661	6.34
292.032	6.38
292.403	6.4
292.775	6.63
293.146	6.82
293.517	6.99
293.889	7
294.26	7.03
294.631	7.05
295.002	7.11
295.373	7.34
295.744	7.33
296.115	7.27
296.486	7.28
296.857	7.33
297.228	7.36
297.599	7.47
297.97	7.52
298.34	7.7
298.711	7.68
299.082	7.73
299.452	7.71
299.823	7.85
300.194	7.91
300.564	7.77
300.935	7.72
301.305	7.76
301.676	7.84
302.046	7.81
302.416	7.81
302.787	8.04
303.157	8.06
303.527	8.22
303.897	8.42
304.267	8.54
304.637	8.64
305.008	8.8
305.378	8.93
305.748	9.01
306.117	8.86
306.487	9.06
306.857	9.32
307.227	9.56
307.597	9.64
307.967	9.81
308.336	10.05
308.706	10.14
309.076	10.43
309.445	10.7
309.815	10.86
310.184	11.09
310.554	11.12
310.923	11.1
311.293	11
311.662	11.12
312.031	11.24
312.401	11.32
312.77	11.36
313.139	11.37
313.508	11.47
313.877	11.58
314.246	11.59
314.616	11.71
314.985	11.53
315.353	11.64
315.722	11.84
316.091	11.97
316.46	12.2
316.829	11.96
317.198	12.05
317.567	12.14
317.935	12.37
318.304	12.5
318.672	12.76
319.041	13.18
319.41	13.38
319.778	13.45
320.147	13.51
320.515	13.51
320.883	13.64
321.252	13.83
321.62	14.16
321.988	14.17
322.357	14.01
322.725	14.16
323.093	13.98
323.461	13.94
323.829	13.98
324.197	13.9
324.565	14.21
324.933	14.15
325.301	14.11
325.669	14.06
326.037	13.97
326.405	14.11
326.772	13.99
327.14	14
327.508	14.04
327.875	14
328.243	14.05
328.61	14.24
328.978	14.12
329.346	14.03
329.713	14.21
330.08	14.37
330.448	14.71
330.815	14.86
331.182	14.88
331.55	14.96
331.917	15.01
332.284	15.1
332.651	15.14
333.018	15.18
333.385	15.29
333.752	15.37
334.119	15.4
334.486	15.45
334.853	15.34
335.22	15.27
335.587	15.28
335.954	15.41
336.32	15.29
336.687	15.33
337.054	15.37
337.42	15.42
337.787	15.27
338.153	15.27
338.52	15.39
338.886	15.38
339.253	15.32
339.619	15.4
339.986	15.23
340.352	15.23
340.718	15.37
341.084	15.46
341.451	15.61
341.817	15.6
342.183	15.7
342.549	15.83
342.915	15.92
343.281	15.92
343.647	16
344.013	15.97
344.379	16.07
344.745	16.1
345.11	16.02
345.476	16.26
345.842	16.15
346.208	16.11
346.573	16.23
346.939	16.31
347.304	16.25
347.67	16.19
348.035	16.2
348.401	16.28
348.766	16.2
349.132	16.12
349.497	16.1
349.862	15.99
350.228	16.01
350.593	16.05
350.958	16.15
351.323	16.05
351.688	16.07
352.053	16
352.418	15.97
352.783	15.98
353.148	15.88
353.513	15.9
353.878	15.89
354.243	15.75
354.608	15.79
354.972	15.81
355.337	15.89
355.702	15.93
356.066	15.76
356.431	15.74
356.795	15.74
357.16	15.64
357.524	15.71
357.889	15.66
358.253	15.57
358.618	15.53
358.982	15.47
359.346	15.42
359.71	15.35
360.075	15.27
360.439	15.27
360.803	15.27
361.167	15.17
361.531	15.15
361.895	15.17
362.259	15.04
362.623	15.08
362.987	15.01
363.351	14.85
363.714	14.81
364.078	14.7
364.442	14.69
364.806	14.65
365.169	14.45
365.533	14.34
365.896	14.35
366.26	14.19
366.623	14.19
366.987	14.11
367.35	14.06
367.714	14.03
368.077	13.9
368.44	13.81
368.803	13.77
369.167	13.65
369.53	13.51
369.893	13.42
370.256	13.28
370.619	13.17
370.982	13.04
371.345	12.98
371.708	12.93
372.071	12.79
372.434	12.67
372.797	12.7
373.159	12.62
373.522	12.51
373.885	12.51
374.247	12.31
374.61	12.22
374.973	12.11
375.335	11.96
375.698	11.82
376.06	11.66
376.423	11.47
376.785	11.45
377.147	11.35
377.51	11.33
377.872	11.19
378.234	11.17
378.596	11.18
378.958	11.04
379.321	10.97
379.683	10.89
380.045	10.82
380.407	10.74
380.769	10.64
381.13	10.5
381.492	10.4
381.854	10.35
382.216	10.29
382.578	10.2
382.939	10.12
383.301	10.1
383.663	10.03
384.024	10.02
384.386	9.85
384.747	9.81
385.109	9.73
385.47	9.63
385.832	9.52
386.193	9.44
386.554	9.38
386.916	9.31
387.277	9.24
387.638	9.2
387.999	9.17
388.36	9.03
388.721	9.02
389.082	8.98
389.443	8.92
389.804	8.86
390.165	8.83
390.526	8.77
390.887	8.69
391.248	8.65
391.609	8.62
391.969	8.63
392.33	8.58
392.691	8.54
393.051	8.54
393.412	8.5
393.772	8.48
394.133	8.4
394.493	8.36
394.854	8.28
395.214	8.22
395.574	8.15
395.935	8.19
396.295	8.06
396.655	7.96
397.015	7.93
397.376	7.88
397.736	7.8
398.096	7.72
398.456	7.66
398.816	7.6
399.176	7.51
399.535	7.44
399.895	7.4
400.255	7.33
400.615	7.33
400.975	7.26
401.334	7.15
401.694	7.15
402.054	7.09
402.413	7.05
402.773	7.02
403.132	6.97
403.492	6.9
403.851	6.89
404.211	6.84
404.57	6.82
404.929	6.75
405.288	6.73
405.648	6.73
406.007	6.68
406.366	6.64
406.725	6.61
407.084	6.58
407.443	6.54
407.802	6.51
408.161	6.44
408.52	6.42
408.879	6.38
409.238	6.37
409.596	6.35
409.955	6.34
410.314	6.32
410.673	6.27
411.031	6.24
411.39	6.24
411.748	6.25
412.107	6.19
412.465	6.19
412.824	6.16
413.182	6.11
413.54	6.13
413.899	6.13
414.257	6.11
414.615	6.05
414.974	6
415.332	5.95
415.69	5.92
416.048	5.9
416.406	5.9
416.764	5.86
417.122	5.82
417.48	5.79
417.838	5.76
418.195	5.72
418.553	5.7
418.911	5.65
419.269	5.62
419.626	5.6
419.984	5.59
420.342	5.57
420.699	5.55
421.057	5.51
421.414	5.48
421.772	5.44
422.129	5.43
422.486	5.41
422.844	5.4
423.201	5.38
423.558	5.34
423.915	5.31
424.273	5.29
424.63	5.3
424.987	5.27
425.344	5.26
425.701	5.25
426.058	5.23
426.415	5.21
426.772	5.19
427.128	5.17
427.485	5.13
427.842	5.12
428.199	5.09
428.555	5.07
428.912	5.07
429.269	5.08
429.625	5.07
429.982	5.07
430.338	5.07
430.695	5.03
431.051	5.05
431.407	5.04
431.764	5.02
432.12	4.99
432.476	4.99
432.832	4.95
433.189	4.94
433.545	4.93
433.901	4.93
434.257	4.92
434.613	4.94
434.969	4.92
435.325	4.94
435.681	4.95
436.036	4.96
436.392	4.93
436.748	4.93
437.104	4.94
437.459	4.92
437.815	4.92
438.171	4.95
438.526	4.94
438.882	4.95
439.237	4.95
439.593	4.94
439.948	4.93
440.304	4.94
440.659	4.93
441.014	4.96
441.369	4.97
441.725	4.96
442.08	4.94
442.435	4.94
442.79	4.93
443.145	4.93
443.5	4.91
443.855	4.91
444.21	4.91
444.565	4.91
444.92	4.92
445.275	4.9
445.629	4.87
445.984	4.87
446.339	4.87
446.693	4.86
447.048	4.83
447.403	4.82
447.757	4.81
448.112	4.8
448.466	4.76
448.82	4.75
449.175	4.76
449.529	4.75
449.883	4.74
450.238	4.73
450.592	4.71
450.946	4.7
451.3	4.7
451.654	4.68
452.008	4.65
452.362	4.64
452.716	4.63
453.07	4.65
453.424	4.65
453.778	4.64
454.132	4.63
454.486	4.65
454.839	4.66
455.193	4.68
455.547	4.68
455.9	4.7
456.254	4.67
456.607	4.67
456.961	4.68
457.314	4.67
457.668	4.66
458.021	4.65
458.375	4.66
458.728	4.65
459.081	4.66
459.434	4.66
459.787	4.66
460.141	4.67
460.494	4.67
460.847	4.67
461.2	4.67
461.553	4.68
461.906	4.69
462.259	4.7
462.611	4.7
462.964	4.7
463.317	4.7
463.67	4.75
464.022	4.76
464.375	4.73
464.728	4.74
465.08	4.75
465.433	4.78
465.785	4.79
466.138	4.82
466.49	4.81
466.843	4.87
467.195	4.87
467.547	4.88
467.899	4.89
468.252	4.9
468.604	4.93
468.956	4.94
469.308	4.93
469.66	4.94
470.012	4.98
470.364	4.98
470.716	5.01
471.068	5
471.42	5.03
471.772	5.07
472.123	5.1
472.475	5.13
472.827	5.15
473.178	5.16
473.53	5.18
473.882	5.22
474.233	5.19
474.585	5.2
474.936	5.22
475.288	5.21
475.639	5.24
475.99	5.23
476.342	5.22
476.693	5.25
477.044	5.26
477.395	5.25
477.746	5.25
478.097	5.24
478.448	5.23
478.8	5.21
479.15	5.19
479.501	5.18
479.852	5.17
480.203	5.16
480.554	5.16
480.905	5.14
481.255	5.13
481.606	5.13
481.957	5.14
482.307	5.12
482.658	5.12
483.009	5.09
483.359	5.09
483.709	5.09
484.06	5.07
484.41	5.06
484.761	5.06
485.111	5.04
485.461	5.05
485.811	5.04
486.162	5.04
486.512	5.04
486.862	5.04
487.212	5.03
487.562	5.01
487.912	4.99
488.262	4.99
488.612	4.97
488.961	4.96
489.311	4.95
489.661	4.95
490.011	4.95
490.36	4.96
490.71	4.95
491.06	4.95
491.409	4.95
491.759	4.96
492.108	4.96
492.458	4.96
492.807	4.97
493.157	4.98
493.506	4.98
493.855	4.99
494.204	5.02
494.554	5.03
494.903	5.07
495.252	5.11
495.601	5.15
495.95	5.2
496.299	5.23
496.648	5.28
496.997	5.33
497.346	5.4
497.695	5.44
498.043	5.51
498.392	5.57
498.741	5.62
499.09	5.67
499.438	5.75
499.787	5.83
500.135	5.9
500.484	5.94
500.832	6.01
501.181	6.07
501.529	6.14
501.878	6.22
502.226	6.28
502.574	6.36
502.923	6.43
503.271	6.53
503.619	6.64
503.967	6.7
504.315	6.77
504.663	6.87
505.011	6.94
505.359	7.02
505.707	7.12
506.055	7.22
506.403	7.32
506.751	7.41
507.098	7.51
507.446	7.62
507.794	7.73
508.141	7.86
508.489	7.99
508.837	8.08
509.184	8.19
509.531	8.3
509.879	8.4
510.226	8.51
510.574	8.62
510.921	8.72
511.268	8.83
511.616	8.97
511.963	9.09
512.31	9.24
512.657	9.39
513.004	9.51
513.351	9.66
513.698	9.81
514.045	9.95
514.392	10.12
514.739	10.28
515.086	10.45
515.432	10.61
515.779	10.78
516.126	10.94
516.473	11.1
516.819	11.27
517.166	11.43
517.512	11.57
517.859	11.69
518.205	11.83
518.552	11.98
518.898	12.1
519.245	12.23
519.591	12.34
519.937	12.48
520.283	12.62
520.629	12.77
520.976	12.92
521.322	13.08
521.668	13.24
522.014	13.43
522.36	13.62
522.706	13.8
523.052	13.98
523.398	14.18
523.743	14.42
524.089	14.66
524.435	14.9
524.781	15.13
525.126	15.33
525.472	15.51
525.817	15.66
526.163	15.81
526.509	15.97
526.854	16.11
527.199	16.24
527.545	16.38
527.89	16.5
528.235	16.64
528.581	16.78
528.926	16.91
529.271	17.03
529.616	17.16
529.961	17.29
530.306	17.43
530.651	17.59
530.996	17.74
531.341	17.9
531.686	18.06
532.031	18.21
532.376	18.38
532.721	18.56
533.065	18.77
533.41	18.97
533.755	19.17
534.099	19.38
534.444	19.6
534.788	19.8
535.133	20
535.477	20.25
535.822	20.47
536.166	20.74
536.51	20.99
536.855	21.27
537.199	21.57
537.543	21.88
537.887	22.17
538.231	22.49
538.576	22.79
538.92	23.08
539.264	23.39
539.608	23.64
539.951	23.88
540.295	24.14
540.639	24.37
540.983	24.58
541.327	24.81
541.671	25.04
542.014	25.3
542.358	25.54
542.701	25.74
543.045	26
543.389	26.22
543.732	26.44
544.075	26.68
544.419	26.92
544.762	27.17
545.105	27.44
545.449	27.68
545.792	27.95
546.135	28.21
546.478	28.47
546.821	28.81
547.165	29.15
547.508	29.44
547.851	29.76
548.194	30.1
548.536	30.45
548.879	30.71
549.222	31.02
549.565	31.34
549.908	31.69
550.25	32
550.593	32.28
550.936	32.6
551.278	32.93
551.621	33.22
551.963	33.56
552.306	33.84
552.648	34.16
552.991	34.5
553.333	34.76
553.675	35.07
554.017	35.36
554.36	35.6
554.702	35.91
555.044	36.21
555.386	36.48
555.728	36.73
556.07	37.03
556.412	37.28
556.754	37.59
557.096	37.89
557.438	38.11
557.78	38.4
558.121	38.73
558.463	38.98
558.805	39.24
559.147	39.44
559.488	39.73
559.83	39.97
560.171	40.2
560.513	40.54
560.854	40.79
561.196	41.02
561.537	41.31
561.878	41.56
562.22	41.77
562.561	42.01
562.902	42.23
563.243	42.5
563.584	42.75
563.925	42.93
564.266	43.1
564.607	43.34
564.948	43.58
565.289	43.8
565.63	44.05
565.971	44.24
566.312	44.44
566.653	44.62
566.993	44.85
567.334	45.05
567.675	45.25
568.015	45.41
568.356	45.59
568.696	45.73
569.037	45.9
569.377	46.03
569.718	46.24
570.058	46.42
570.398	46.59
570.739	46.74
571.079	46.96
571.419	47.15
571.759	47.32
572.099	47.47
572.439	47.59
572.779	47.68
573.119	47.87
573.459	47.99
573.799	48.18
574.139	48.28
574.479	48.4
574.819	48.54
575.158	48.65
575.498	48.79
575.838	48.95
576.177	49.12
576.517	49.31
576.856	49.45
577.196	49.63
577.535	49.76
577.875	49.89
578.214	49.98
578.553	50.03
578.893	50.17
579.232	50.29
579.571	50.45
579.91	50.59
580.25	50.69
580.589	50.8
580.928	50.85
581.267	50.99
581.606	51.12
581.945	51.19
582.283	51.26
582.622	51.36
582.961	51.46
583.3	51.54
583.639	51.67
583.977	51.75
584.316	51.87
584.654	52.05
584.993	52.14
585.332	52.22
585.67	52.37
586.008	52.51
586.347	52.53
586.685	52.61
587.024	52.7
587.362	52.83
587.7	52.99
588.038	53.18
588.376	53.22
588.715	53.23
589.053	53.35
589.391	53.53
589.729	53.65
590.067	53.78
590.404	53.92
590.742	53.96
591.08	54.09
591.418	54.17
591.756	54.18
592.093	54.26
592.431	54.34
592.769	54.51
593.106	54.5
593.444	54.63
593.781	54.66
594.119	54.73
594.456	54.77
594.793	54.83
595.131	54.81
595.468	54.86
595.805	55.01
596.143	55.1
596.48	55.14
596.817	55.16
597.154	55.23
597.491	55.24
597.828	55.32
598.165	55.37
598.502	55.39
598.839	55.49
599.176	55.58
599.512	55.63
599.849	55.65
600.186	55.74
600.523	55.8
600.859	55.92
601.196	55.97
601.532	55.97
601.869	56.04
602.205	56.1
602.542	56.21
602.878	56.22
603.215	56.22
603.551	56.25
603.887	56.32
604.223	56.38
604.56	56.45
604.896	56.51
605.232	56.56
605.568	56.64
605.904	56.64
606.24	56.75
606.576	56.77
606.912	56.78
607.248	56.88
607.583	56.96
607.919	57.04
608.255	57.15
608.591	57.25
608.926	57.22
609.262	57.3
609.597	57.31
609.933	57.33
610.268	57.35
610.604	57.47
610.939	57.49
611.275	57.5
611.61	57.49
611.945	57.5
612.281	57.57
612.616	57.56
612.951	57.62
613.286	57.56
613.621	57.67
613.956	57.69
614.291	57.71
614.626	57.72
614.961	57.67
615.296	57.69
615.631	57.73
615.966	57.76
616.3	57.82
616.635	57.89
616.97	57.94
617.304	57.97
617.639	57.93
617.973	57.97
618.308	57.93
618.642	57.99
618.977	58
619.311	58.02
619.646	58.06
619.98	58.09
620.314	58.13
620.648	58.16
620.983	58.29
621.317	58.37
621.651	58.34
621.985	58.34
622.319	58.34
622.653	58.37
622.987	58.43
623.321	58.49
623.655	58.51
623.988	58.69
624.322	58.77
624.656	58.86
624.99	58.9
625.323	58.94
625.657	58.91
625.99	58.92
626.324	58.86
626.657	58.86
626.991	58.84
627.324	58.91
627.658	58.92
627.991	58.95
628.324	58.96
628.657	58.96
628.991	59.07
629.324	59.12
629.657	59.16
629.99	59.23
630.323	59.21
630.656	59.2
630.989	59.07
631.322	59.05
631.655	58.98
631.987	59.13
632.32	59.21
632.653	59.4
632.986	59.48
633.318	59.56
633.651	59.64
633.984	59.77
634.316	59.81
634.649	59.81
634.981	59.84
635.313	59.82
635.646	59.91
635.978	59.81
636.31	59.83
636.643	59.78
636.975	59.7
637.307	59.77
637.639	59.84
637.971	59.93
638.303	59.91
638.635	60.15
638.967	60.12
639.299	60.06
639.631	59.95
639.963	59.91
640.295	59.98
640.626	59.97
640.958	59.88
641.29	59.84
641.621	59.85
641.953	59.86
642.285	59.97
642.616	60.07
642.948	60.15
643.279	60.24
643.61	60.47
643.942	60.58
644.273	60.65
644.604	60.7
644.936	60.65
645.267	60.7
645.598	60.54
645.929	60.41
646.26	60.56
646.591	60.71
646.922	60.81
647.253	60.76
647.584	60.77
647.915	60.87
648.245	60.99
648.576	61.06
648.907	61.07
649.238	61.14
649.568	61.06
649.899	61.1
650.229	60.99
650.56	60.88
650.89	60.95
651.221	60.85
651.551	60.83
651.882	60.96
652.212	61.03
652.542	61.04
652.872	61.17
653.203	61.15
653.533	61.14
653.863	61.09
654.193	61.05
654.523	61.14
654.853	61.12
655.183	61.06
655.513	61.05
655.843	61.02
656.172	61.01
656.502	61.14
656.832	61.18
657.162	61.35
657.491	61.55
657.821	61.62
658.15	61.69
658.48	61.86
658.809	61.94
659.139	61.97
659.468	62.09
659.798	62.04
660.127	62.08
660.456	62.01
660.785	62.05
661.115	62.21
661.444	62.3
661.773	62.33
662.102	62.5
662.431	62.63
662.76	62.75
663.089	62.68
663.418	62.62
663.747	62.64
664.076	62.63
664.404	62.53
664.733	62.48
665.062	62.52
665.39	62.41
665.719	62.3
666.048	62.39
666.376	62.29
666.705	62.37
667.033	62.25
667.362	62.47
667.69	62.59
668.018	62.46
668.347	62.37
668.675	62.37
669.003	62.32
669.331	62.37
669.659	62.29
669.987	62.36
670.315	62.29
670.643	62.23
670.971	62.21
671.299	62.25
671.627	62.2
671.955	62.19
672.283	62.12
672.61	62.16
672.938	62.23
673.266	62.32
673.593	62.38
673.921	62.51
674.249	62.42
674.576	62.25
674.904	62.38
675.231	62.32
675.558	62.42
675.886	62.38
676.213	62.41
676.54	62.53
676.867	62.53
677.195	62.62
677.522	62.89
677.849	62.92
678.176	62.86
678.503	62.93
678.83	62.94
679.157	63
679.484	62.87
679.81	62.72
680.137	62.75
680.464	62.66
680.791	62.58
681.117	62.59
681.444	62.77
681.771	62.7
682.097	62.7
682.424	62.74
682.75	62.79
683.077	62.69
683.403	62.7
683.729	62.68
684.056	62.84
684.382	62.65
684.708	62.59
685.034	62.72
685.36	62.61
685.686	62.62
686.012	62.58
686.339	62.68
686.664	62.76
686.99	62.64
687.316	62.69
687.642	62.84
687.968	62.84
688.294	62.62
688.619	62.77
688.945	62.91
689.271	62.88
689.596	62.91
689.922	62.86
690.247	62.72
690.573	62.77
690.898	62.68
691.224	62.76
691.549	62.89
691.874	62.77
692.2	62.85
692.525	62.87
692.85	62.84
693.175	62.91
693.5	62.77
693.825	62.92
694.15	62.87
694.475	62.83
694.8	62.99
695.125	63.33
695.45	63.2
695.775	63.26
696.099	63.24
696.424	63.25
696.749	63.38
697.073	63.41
697.398	63.42
697.723	63.41
698.047	63.43
698.372	63.38
698.696	63.45
699.02	63.4
699.345	63.36
699.669	63.38
699.993	63.43
700.318	63.49
700.642	63.55
700.966	63.67
701.29	63.66
701.614	63.5
701.938	63.39
702.262	63.31
702.586	63.25
702.91	63.24
703.234	63.08
703.557	62.94
703.881	62.89
704.205	63.1
704.529	62.95
704.852	62.98
705.176	63.11
705.499	62.95
705.823	62.97
706.146	63.13
706.47	63.09
706.793	63.15
707.117	63.22
707.44	63.09
707.763	62.95
708.086	62.95
708.409	63.04
708.733	62.95
709.056	63.13
709.379	63.03
709.702	62.92
710.025	62.88
710.348	62.91
710.671	63.09
710.993	62.76
711.316	63.05
711.639	62.97
711.962	62.81
712.284	62.94
712.607	62.96
712.93	62.88
713.252	63.14
713.575	63.18
713.897	63.21
714.22	63.17
714.542	63.29
714.864	63.36
715.187	63.23
715.509	63.39
715.831	63.59
716.153	63.47
716.475	63.85
716.798	63.98
717.12	64.02
717.442	63.86
717.764	63.94
718.085	63.77
718.407	63.76
718.729	63.95
719.051	63.72
719.373	63.83
719.695	63.73
720.016	63.57
720.338	63.4
720.659	63.36
720.981	63.4
721.302	63.3
721.624	63.19
721.945	63.44
722.267	63.16
722.588	62.84
722.909	62.99
723.231	62.88
723.552	63.07
723.873	63.17
724.194	63.2
724.515	63.5
724.836	63.64
725.157	63.72
725.478	63.96
725.799	64.34
726.12	64.29
726.441	64.14
726.762	64.34
727.083	64.32
727.403	64.26
727.724	64.44
728.045	64.64
728.365	64.59
728.686	64.48
729.006	64.52
729.327	64.67
729.647	65.03
729.967	64.69
730.288	64.51
730.608	64.64
730.928	64.77
731.249	64.57
731.569	64.71
731.889	64.77
732.209	64.45
732.529	64.41
732.849	64.48
733.169	64.83
733.489	64.84
733.809	64.85
734.129	64.92
734.448	64.76
734.768	64.65
735.088	64.85
735.408	65.07
735.727	65.29
736.047	65.01
736.366	64.79
736.686	65.01
737.005	64.97
737.325	64.94
737.644	65.03
737.963	64.95
738.283	64.59
738.602	64.4
738.921	64.45
739.24	64.46
739.56	64.58
739.879	64.37
740.198	64.21
740.517	64.07
740.836	64
741.155	63.79
741.473	63.97
741.792	63.83
742.111	63.71
742.43	63.41
742.748	63.82
743.067	63.93
743.386	63.81
743.704	63.98
744.023	63.74
744.341	63.74
744.66	63.52
744.978	63.65
745.297	63.65
745.615	63.61
745.933	63.66
746.252	63.52
746.57	63.79
746.888	63.89
747.206	64.14
747.524	64.17
747.842	64.58
748.16	64.45
748.478	64.53
748.796	64.38
749.114	64.46
749.432	64.08
749.749	63.82
750.067	64.08
750.385	64.11
750.703	64.23
751.02	64.33
751.338	64.63
751.655	64.86
751.973	64.87
752.29	65.13
752.608	64.77
752.925	64.81
753.242	64.88
753.56	64.39
753.877	64.37
754.194	64.76
754.511	64.66
754.828	64.63
755.145	64.97
755.462	64.96
755.779	65.32
756.096	65.71
756.413	65.77
756.73	65.87
757.047	65.61
757.364	65.79
757.68	65.51
757.997	65.72
758.314	65.56
758.63	65.76
758.947	65.75
759.264	65.86
759.58	66.04
759.896	65.85
760.213	66.04
760.529	66.06
760.846	65.93
761.162	66.17
761.478	66.28
761.794	66.13
762.11	66.22
762.426	65.87
762.743	65.77
763.059	65.76
763.375	65.66
763.69	65.84
764.006	65.96
764.322	65.92
764.638	66.01
764.954	65.92
765.27	66.02
765.585	65.93
765.901	66.14
766.216	66.17
766.532	65.95
766.848	66.04
767.163	66.19
767.478	66.1
767.794	65.73
768.109	65.41
768.424	65.39
768.74	65.51
769.055	65.57
769.37	65.26
769.685	65.33
770	65.09
770.315	64.95
770.63	64.79
770.945	64.7
771.26	64.68
771.575	64.55
771.89	64.2
772.205	64.14
772.52	64.19
772.834	63.84
773.149	64.11
773.464	64.69
773.778	64.46
774.093	64.67
774.407	65.14
774.722	65.46
775.036	65.17
775.351	64.94
775.665	65.11
775.979	65.81
776.293	66.32
776.608	66.78
776.922	66.86
777.236	66.86
777.55	66.78
777.864	66.83
778.178	67.41
778.492	67.51
778.806	67.44
779.12	67.05
779.434	67.22
779.747	67.23
780.061	66.76
780.375	67.21
780.689	67.01
781.002	66.62
781.316	66.64
781.629	67.31
781.943	67.51
782.256	67.35
782.57	67.18
782.883	66.91
783.196	66.59
783.51	66.99
783.823	66.93
784.136	67.3
784.449	66.41
784.762	65.92
785.075	65.91
785.388	66.31
785.701	66.35
786.014	66.5
786.327	67.1
786.64	66.75
786.953	66.4
787.266	66.41
787.578	66.88
787.891	67.04
788.204	66.6
788.516	66.23
788.829	66.45
789.141	66.94
789.454	66.31
789.766	67.1
790.079	66.96
790.391	67.41
790.703	67.72
791.016	68.44
791.328	68.35
791.64	68.28
791.952	68
792.264	68.18
792.576	68.81
792.888	68.52
793.2	69.09
793.512	68.94
793.824	69.04
794.136	69.18
794.448	69.42
794.76	69.1
795.071	69.66
795.383	69.5
795.695	68.74
796.006	68.76
796.318	68.06
796.629	68.01
796.941	67.32
797.252	67.34
797.564	67.49
797.875	68.08
798.186	68.44
798.497	68.51
798.809	68.15
799.12	67.31
799.431	67.3
799.742	67.04
800.053	67.01
800.364	67.14
800.675	66.63
800.986	65.87
801.297	66.49
801.608	65.73
801.918	66.17
802.229	66.66
802.54	66.78
802.851	66.76
803.161	67.2
803.472	67.86
803.782	67.59
804.093	66.96
804.403	66.24
804.714	66.19
805.024	66.14
805.334	67.1
805.645	67.43
805.955	67.05
806.265	67.44
806.575	67.64
806.885	67.52
807.195	67.65
807.505	68.55
807.815	68.41
808.125	69.25
808.435	69.15
808.745	68.94
809.055	69.5
809.365	70.27
809.674	68.85
809.984	68.38
810.294	68.43
810.603	69.09
810.913	69.99
811.222	69.22
811.532	69.4
811.841	69.73
812.151	69.34
812.46	69.2
812.769	69.52
813.079	69.57
813.388	69.48
813.697	69.21
814.006	69.33
814.315	69.67
814.624	69.8
814.933	69.85
815.242	69.72
815.551	69.64
815.86	69.23
816.169	70.66
816.478	70.24
816.786	70.36
817.095	69.76
817.404	69.69
817.712	70.08
818.021	69.65
818.33	69.32
818.638	69.18
818.947	69.01
819.255	68.09
819.563	67.7
819.872	67.2
820.18	67.18
820.488	66.9
820.796	66.62
821.105	66.74
821.413	66.86
821.721	66.31
822.029	66.27
822.337	65.98
822.645	65.75
822.953	65.86
823.26	65.65
823.568	65.63
823.876	65.48
824.184	65.41
824.491	65.27
824.799	65.31
825.107	65.26
825.414	65.22
825.722	65.28
826.029	65.6
826.337	65.82
826.644	65.83
826.951	66.02
827.259	66.04
827.566	65.67
827.873	65.34
828.18	65.78
828.488	65.64
828.795	65.92
829.102	65.8
829.409	65.67
829.716	65.88
830.023	66.05
830.329	66.43
830.636	66.46
830.943	67.03
831.25	67.51
831.557	68.28
831.863	68.48
832.17	68.48
832.476	68.05
832.783	67.9
833.089	68.01
833.396	67.69
833.702	67.63
834.009	67.38
834.315	68
834.621	67.84
834.928	67.84
835.234	67.6
835.54	67.65
835.846	67.45
836.152	67.5
836.458	67.26
836.764	66.79
837.07	66.89
837.376	66.74
837.682	64.96
837.988	64.27
838.293	64.33
838.599	64.75
838.905	64.57
839.211	64.28
839.516	64.09
839.822	63.78
840.127	63.7
840.433	64.76
840.738	64.07
841.044	63.62
841.349	64.05
841.654	64
841.959	65.46
842.265	66.64
842.57	67.03
842.875	67.79
843.18	67.79
843.485	68.47
843.79	68.37
844.095	70.25
844.4	70.21
844.705	69.28
845.01	67.35
845.315	66.48
845.619	67.1
845.924	67.66
846.229	67.07
846.533	68.03
846.838	68.34
847.142	68.45
847.447	69.61
847.751	70.03
848.056	69.71
848.36	68.24
848.664	68.03
848.969	66.49
849.273	65.95
849.577	66.79
849.881	64.98
850.185	65.4
850.489	66.63
850.794	66.46
851.097	67.79
851.401	71.08
851.705	71.21
852.009	71.05
852.313	68.11
852.617	68.96
852.92	68.96
853.224	71.4
853.528	69.62
853.831	69.13
854.135	68.98
854.438	69.92
854.742	69.06
855.045	67.68
855.349	67.63
855.652	69.67
855.955	67.43
856.259	71.26
856.562	71.35
856.865	69.97
857.168	70.23
857.471	70.31
857.774	67.33
858.077	67.33
858.38	67.39
858.683	68.44
858.986	67.95
859.289	65.68
859.592	64.47
859.894	65.09
860.197	66.39
860.5	66.21
860.802	66.17
861.105	66.43
861.407	67.82
861.71	70.04
862.012	69.64
862.315	71.99
862.617	70.12
862.919	71.16
863.222	70.89
863.524	69.24
863.826	68.43
864.128	71.21
864.43	72.62
864.732	73.14
865.034	74.35
865.336	77.58
865.638	79.44
865.94	80.01
866.242	81.65
866.544	80.3
866.846	79.48
867.147	78.88
867.449	78.17
867.751	77.54
868.052	73.79
868.354	75.99
868.655	74.07
868.957	75.16
869.258	75.36
869.56	73.74
869.861	75.47
870.162	76.12
870.463	73.86
870.765	74.79
871.066	72.73
871.367	72.67
871.668	69.99
871.969	68.19
872.27	65.06
872.571	66.86
872.872	67.69
873.173	68.99
873.473	69.11
873.774	74.7
874.075	76.54
874.376	77.02
874.676	73.2
874.977	76.72
875.277	76.73
875.578	75.82
875.878	77.1
876.179	76.84
876.479	78.13
876.78	79.89
877.08	77.81
877.38	81.42
877.68	82.1
877.981	82.9
878.281	86.09
878.581	88.95
