Data from BU58130_Reflection_00012.txt Node
Date: Mon Nov 18 16:37:36 EST 2019
User: vgr7
Spectrometer: USB2G7710
Scans to average: 3
Trigger mode: 4
Integration Time (sec): 2.000000E-2
Electric dark correction enabled: true
Boxcar width: 10
XAxis mode: Wavelengths
Number of Pixels in Spectrum: 2048
>>>>>Begin Spectral Data<<<<<
177.721	3.31
178.105	43.09
178.488	137.77
178.871	169.58
179.254	175.99
179.636	559.77
180.019	958.45
180.402	113.79
180.785	60.44
181.168	38.63
181.55	28.26
181.933	64.27
182.316	77.92
182.698	100.91
183.081	95.4
183.463	114.46
183.846	92.89
184.228	47.74
184.611	259.35
184.993	254.14
185.376	94.23
185.758	87.52
186.14	94.28
186.522	294.65
186.904	589.45
187.287	999.47
187.669	-751.41
188.051	-3935.09
188.433	-1792.47
188.815	-114.75
189.197	-101.7
189.579	-127.61
189.961	-120.6
190.342	-149.83
190.724	-129.59
191.106	-201.77
191.488	-241.41
191.869	-412.82
192.251	-445.16
192.633	-1212.17
193.014	-9974.07
193.396	3754.32
193.777	5172.46
194.159	651.94
194.54	747.17
194.922	-738.45
195.303	-1580.37
195.684	-610.58
196.065	-160.8
196.447	-114.33
196.828	-151.88
197.209	-122.22
197.59	-110.19
197.971	-95.64
198.352	-51.81
198.733	-32.19
199.114	-20.47
199.495	-21.85
199.876	-15.79
200.257	-15.19
200.638	-9.84
201.018	12.61
201.399	6.49
201.78	18.96
202.16	21.05
202.541	8.78
202.922	-4.59
203.302	-5.29
203.683	-17.8
204.063	-48.15
204.444	-39.83
204.824	-27.09
205.204	-28.59
205.585	-41.57
205.965	-51.7
206.345	-62.5
206.725	-81.74
207.106	-71.9
207.486	-161.86
207.866	-185.1
208.246	-107.56
208.626	-147.58
209.006	-191.19
209.386	-249.8
209.766	-239.04
210.145	-192.65
210.525	-164.12
210.905	-220.08
211.285	-636.23
211.664	-331.6
212.044	-449.02
212.424	2492.16
212.803	444.67
213.183	668.31
213.562	-93.36
213.942	-15.14
214.321	1.17
214.701	-23.65
215.08	-21.13
215.459	-6.21
215.838	-19.63
216.218	-29.45
216.597	-2.31
216.976	-0.57
217.355	5.92
217.734	1.87
218.113	-0.8
218.492	0.38
218.871	-6.22
219.25	-0.73
219.629	-13.13
220.008	-21.41
220.387	-15.02
220.766	-13.64
221.144	-34.14
221.523	-74.21
221.902	-73.47
222.28	-77.52
222.659	-48.43
223.037	-46.76
223.416	-43.6
223.794	-48.97
224.173	-45.4
224.551	-41.72
224.929	-45.21
225.308	-30.87
225.686	-30.11
226.064	-31.07
226.442	-28.32
226.821	-21.84
227.199	-22.85
227.577	-17.92
227.955	-15.59
228.333	-13.62
228.711	-10.78
229.089	-4.91
229.467	-2.8
229.845	-6.71
230.222	-4.86
230.6	-7.33
230.978	-2.65
231.356	-0.51
231.733	3.04
232.111	2.11
232.488	1.2
232.866	3.64
233.243	5.22
233.621	6.77
233.998	7.5
234.376	7.61
234.753	8.96
235.13	10.89
235.508	10.4
235.885	10.84
236.262	9.27
236.639	8.35
237.016	7.73
237.393	9.24
237.77	9.82
238.147	8.46
238.524	9.28
238.901	7.79
239.278	7.91
239.655	7.55
240.032	7.57
240.409	7.11
240.785	7.2
241.162	6.78
241.539	6.47
241.915	6.63
242.292	5.78
242.668	6.08
243.045	6.1
243.421	5.84
243.798	5.41
244.174	5.32
244.551	5.34
244.927	5.19
245.303	4.93
245.679	5.12
246.056	4.95
246.432	4.59
246.808	4.52
247.184	4.02
247.56	3.81
247.936	3.78
248.312	3.81
248.688	3.58
249.064	3.56
249.44	3.51
249.815	3.52
250.191	3.95
250.567	3.83
250.943	3.52
251.318	3.6
251.694	3.6
252.069	3.82
252.445	4.02
252.82	3.92
253.196	4.1
253.571	3.76
253.947	4.07
254.322	4.5
254.697	4.41
255.073	4.68
255.448	4.74
255.823	4.9
256.198	4.87
256.573	4.82
256.948	4.86
257.323	4.75
257.698	4.64
258.073	4.54
258.448	4.33
258.823	4.2
259.198	4.12
259.573	4.32
259.948	4.19
260.322	4.28
260.697	4.16
261.072	4.16
261.446	4.15
261.821	4.16
262.195	4.21
262.57	4.25
262.944	4.22
263.319	4.17
263.693	4.14
264.067	4.3
264.442	4.43
264.816	4.35
265.19	4.34
265.564	4.32
265.938	4.1
266.313	4.02
266.687	4.17
267.061	4.31
267.435	4.19
267.809	4.15
268.183	3.92
268.556	3.95
268.93	3.8
269.304	3.72
269.678	3.69
270.051	3.57
270.425	3.64
270.799	3.58
271.172	3.63
271.546	3.61
271.919	3.38
272.293	3.28
272.666	3.32
273.04	3.61
273.413	3.58
273.787	3.7
274.16	3.81
274.533	3.81
274.906	3.7
275.279	3.54
275.653	3.39
276.026	3.33
276.399	3.32
276.772	3.46
277.145	3.63
277.518	3.72
277.891	3.66
278.263	3.7
278.636	3.85
279.009	3.88
279.382	3.99
279.755	4.11
280.127	4.24
280.5	4.3
280.872	4.22
281.245	4.24
281.617	4.3
281.99	4.39
282.362	4.38
282.735	4.29
283.107	4.34
283.479	4.45
283.852	4.47
284.224	4.56
284.596	4.29
284.968	4.28
285.34	4.24
285.713	4.3
286.085	4.33
286.457	4.35
286.829	4.31
287.201	4.28
287.572	4.23
287.944	4.18
288.316	4.08
288.688	3.9
289.06	3.93
289.431	3.83
289.803	3.72
290.175	3.7
290.546	4.02
290.918	4.1
291.289	4.22
291.661	4.31
292.032	4.41
292.403	4.74
292.775	4.64
293.146	4.66
293.517	4.59
293.889	4.55
294.26	4.62
294.631	4.73
295.002	4.59
295.373	4.7
295.744	4.82
296.115	4.9
296.486	4.99
296.857	5
297.228	5.14
297.599	5.2
297.97	5.27
298.34	5.13
298.711	5.19
299.082	5.11
299.452	5.17
299.823	5.21
300.194	5.08
300.564	5.22
300.935	5.28
301.305	5.46
301.676	5.6
302.046	5.59
302.416	5.69
302.787	5.99
303.157	6.03
303.527	5.94
303.897	6.01
304.267	6.18
304.637	6.29
305.008	6.33
305.378	6.5
305.748	6.57
306.117	6.81
306.487	6.76
306.857	6.95
307.227	6.98
307.597	6.89
307.967	7.16
308.336	7.14
308.706	7.1
309.076	7
309.445	6.9
309.815	6.95
310.184	6.88
310.554	6.69
310.923	6.8
311.293	6.86
311.662	6.81
312.031	6.73
312.401	6.74
312.77	6.81
313.139	6.79
313.508	6.83
313.877	6.8
314.246	7.03
314.616	6.88
314.985	6.93
315.353	7.04
315.722	7.07
316.091	7.19
316.46	7.22
316.829	7.34
317.198	7.53
317.567	7.5
317.935	7.66
318.304	7.88
318.672	7.83
319.041	7.95
319.41	8.21
319.778	8.35
320.147	8.47
320.515	8.4
320.883	8.43
321.252	8.51
321.62	8.52
321.988	8.36
322.357	8.53
322.725	8.53
323.093	8.54
323.461	8.51
323.829	8.46
324.197	8.63
324.565	8.68
324.933	8.79
325.301	8.85
325.669	8.82
326.037	8.87
326.405	9.09
326.772	9.17
327.14	9.24
327.508	9.36
327.875	9.27
328.243	9.36
328.61	9.34
328.978	9.44
329.346	9.49
329.713	9.55
330.08	9.64
330.448	9.64
330.815	9.69
331.182	9.72
331.55	9.82
331.917	9.76
332.284	9.75
332.651	9.7
333.018	9.77
333.385	9.81
333.752	9.9
334.119	9.85
334.486	9.85
334.853	9.75
335.22	9.8
335.587	9.95
335.954	9.98
336.32	10.05
336.687	9.97
337.054	9.92
337.42	10
337.787	10.03
338.153	10.07
338.52	10.15
338.886	10.05
339.253	10.06
339.619	10.28
339.986	10.34
340.352	10.31
340.718	10.28
341.084	10.33
341.451	10.32
341.817	10.23
342.183	10.17
342.549	10.11
342.915	10.15
343.281	10.1
343.647	10.05
344.013	10.16
344.379	10.21
344.745	10.31
345.11	10.32
345.476	10.41
345.842	10.51
346.208	10.54
346.573	10.76
346.939	10.88
347.304	10.73
347.67	10.76
348.035	10.9
348.401	10.95
348.766	10.97
349.132	10.98
349.497	10.99
349.862	11.06
350.228	11.21
350.593	11.09
350.958	11.06
351.323	11.16
351.688	11.11
352.053	11.14
352.418	11.07
352.783	11
353.148	10.95
353.513	10.92
353.878	10.9
354.243	10.74
354.608	10.68
354.972	10.71
355.337	10.67
355.702	10.62
356.066	10.67
356.431	10.59
356.795	10.59
357.16	10.54
357.524	10.49
357.889	10.4
358.253	10.41
358.618	10.47
358.982	10.43
359.346	10.41
359.71	10.38
360.075	10.4
360.439	10.38
360.803	10.27
361.167	10.21
361.531	10.1
361.895	10.05
362.259	9.99
362.623	9.97
362.987	9.89
363.351	9.8
363.714	9.69
364.078	9.7
364.442	9.65
364.806	9.66
365.169	9.65
365.533	9.64
365.896	9.54
366.26	9.42
366.623	9.36
366.987	9.26
367.35	9.23
367.714	9.11
368.077	9.04
368.44	9.07
368.803	8.9
369.167	8.83
369.53	8.77
369.893	8.7
370.256	8.66
370.619	8.57
370.982	8.51
371.345	8.45
371.708	8.36
372.071	8.23
372.434	8.16
372.797	8.09
373.159	7.96
373.522	7.95
373.885	8
374.247	7.93
374.61	7.92
374.973	7.88
375.335	7.84
375.698	7.88
376.06	7.74
376.423	7.74
376.785	7.73
377.147	7.73
377.51	7.68
377.872	7.6
378.234	7.6
378.596	7.52
378.958	7.47
379.321	7.4
379.683	7.36
380.045	7.27
380.407	7.18
380.769	7.18
381.13	7.1
381.492	6.98
381.854	6.91
382.216	6.82
382.578	6.73
382.939	6.66
383.301	6.58
383.663	6.52
384.024	6.49
384.386	6.47
384.747	6.38
385.109	6.31
385.47	6.25
385.832	6.18
386.193	6.17
386.554	6.16
386.916	6.1
387.277	6.03
387.638	6.04
387.999	5.97
388.36	5.89
388.721	5.84
389.082	5.8
389.443	5.72
389.804	5.68
390.165	5.59
390.526	5.56
390.887	5.51
391.248	5.48
391.609	5.42
391.969	5.32
392.33	5.26
392.691	5.26
393.051	5.22
393.412	5.23
393.772	5.14
394.133	5.07
394.493	5.04
394.854	5.01
395.214	4.94
395.574	4.93
395.935	4.94
396.295	4.93
396.655	4.89
397.015	4.87
397.376	4.83
397.736	4.79
398.096	4.76
398.456	4.71
398.816	4.71
399.176	4.69
399.535	4.65
399.895	4.65
400.255	4.57
400.615	4.54
400.975	4.46
401.334	4.49
401.694	4.46
402.054	4.41
402.413	4.41
402.773	4.38
403.132	4.35
403.492	4.31
403.851	4.28
404.211	4.25
404.57	4.22
404.929	4.2
405.288	4.21
405.648	4.18
406.007	4.16
406.366	4.13
406.725	4.16
407.084	4.16
407.443	4.16
407.802	4.16
408.161	4.12
408.52	4.12
408.879	4.07
409.238	4.08
409.596	4.07
409.955	4.04
410.314	4.06
410.673	4.04
411.031	4.01
411.39	3.97
411.748	3.98
412.107	3.97
412.465	3.95
412.824	3.9
413.182	3.88
413.54	3.86
413.899	3.84
414.257	3.78
414.615	3.73
414.974	3.74
415.332	3.71
415.69	3.71
416.048	3.69
416.406	3.69
416.764	3.64
417.122	3.65
417.48	3.6
417.838	3.56
418.195	3.54
418.553	3.52
418.911	3.52
419.269	3.5
419.626	3.5
419.984	3.47
420.342	3.47
420.699	3.46
421.057	3.45
421.414	3.43
421.772	3.43
422.129	3.43
422.486	3.4
422.844	3.41
423.201	3.39
423.558	3.38
423.915	3.37
424.273	3.37
424.63	3.35
424.987	3.37
425.344	3.37
425.701	3.37
426.058	3.37
426.415	3.36
426.772	3.34
427.128	3.33
427.485	3.34
427.842	3.33
428.199	3.35
428.555	3.34
428.912	3.34
429.269	3.33
429.625	3.33
429.982	3.31
430.338	3.29
430.695	3.28
431.051	3.25
431.407	3.23
431.764	3.21
432.12	3.19
432.476	3.18
432.832	3.17
433.189	3.18
433.545	3.2
433.901	3.19
434.257	3.19
434.613	3.19
434.969	3.19
435.325	3.18
435.681	3.16
436.036	3.14
436.392	3.14
436.748	3.13
437.104	3.13
437.459	3.13
437.815	3.12
438.171	3.13
438.526	3.15
438.882	3.16
439.237	3.17
439.593	3.17
439.948	3.17
440.304	3.17
440.659	3.16
441.014	3.14
441.369	3.12
441.725	3.11
442.08	3.11
442.435	3.1
442.79	3.1
443.145	3.09
443.5	3.09
443.855	3.09
444.21	3.08
444.565	3.09
444.92	3.08
445.275	3.07
445.629	3.07
445.984	3.08
446.339	3.07
446.693	3.06
447.048	3.06
447.403	3.05
447.757	3.03
448.112	3.04
448.466	3.03
448.82	3.04
449.175	3.06
449.529	3.05
449.883	3.05
450.238	3.03
450.592	3.05
450.946	3.03
451.3	3.02
451.654	3.03
452.008	3.03
452.362	3.04
452.716	3.06
453.07	3.07
453.424	3.05
453.778	3.05
454.132	3.04
454.486	3.02
454.839	3.01
455.193	3.01
455.547	2.99
455.9	2.99
456.254	2.98
456.607	2.98
456.961	2.98
457.314	2.99
457.668	3
458.021	2.99
458.375	3
458.728	2.99
459.081	2.98
459.434	2.97
459.787	2.98
460.141	2.95
460.494	2.94
460.847	2.96
461.2	2.94
461.553	2.95
461.906	2.96
462.259	2.99
462.611	3.01
462.964	3.02
463.317	3.03
463.67	3.05
464.022	3.05
464.375	3.05
464.728	3.05
465.08	3.06
465.433	3.05
465.785	3.05
466.138	3.07
466.49	3.09
466.843	3.11
467.195	3.12
467.547	3.16
467.899	3.16
468.252	3.16
468.604	3.2
468.956	3.18
469.308	3.17
469.66	3.16
470.012	3.17
470.364	3.16
470.716	3.16
471.068	3.15
471.42	3.16
471.772	3.19
472.123	3.2
472.475	3.19
472.827	3.23
473.178	3.25
473.53	3.25
473.882	3.26
474.233	3.27
474.585	3.25
474.936	3.23
475.288	3.25
475.639	3.25
475.99	3.25
476.342	3.26
476.693	3.29
477.044	3.3
477.395	3.3
477.746	3.31
478.097	3.31
478.448	3.3
478.8	3.29
479.15	3.27
479.501	3.27
479.852	3.27
480.203	3.25
480.554	3.24
480.905	3.24
481.255	3.23
481.606	3.24
481.957	3.24
482.307	3.25
482.658	3.25
483.009	3.25
483.359	3.25
483.709	3.25
484.06	3.23
484.41	3.22
484.761	3.22
485.111	3.22
485.461	3.22
485.811	3.22
486.162	3.21
486.512	3.21
486.862	3.21
487.212	3.21
487.562	3.22
487.912	3.21
488.262	3.21
488.612	3.22
488.961	3.21
489.311	3.21
489.661	3.2
490.011	3.19
490.36	3.19
490.71	3.19
491.06	3.19
491.409	3.19
491.759	3.2
492.108	3.21
492.458	3.21
492.807	3.21
493.157	3.22
493.506	3.24
493.855	3.26
494.204	3.26
494.554	3.28
494.903	3.28
495.252	3.3
495.601	3.31
495.95	3.32
496.299	3.32
496.648	3.33
496.997	3.35
497.346	3.38
497.695	3.39
498.043	3.42
498.392	3.43
498.741	3.45
499.09	3.47
499.438	3.49
499.787	3.52
500.135	3.56
500.484	3.59
500.832	3.62
501.181	3.63
501.529	3.67
501.878	3.7
502.226	3.76
502.574	3.8
502.923	3.83
503.271	3.86
503.619	3.93
503.967	3.97
504.315	4.02
504.663	4.06
505.011	4.12
505.359	4.16
505.707	4.22
506.055	4.28
506.403	4.34
506.751	4.4
507.098	4.44
507.446	4.51
507.794	4.56
508.141	4.62
508.489	4.68
508.837	4.73
509.184	4.78
509.531	4.83
509.879	4.89
510.226	4.96
510.574	5.01
510.921	5.06
511.268	5.12
511.616	5.19
511.963	5.25
512.31	5.33
512.657	5.4
513.004	5.49
513.351	5.56
513.698	5.63
514.045	5.7
514.392	5.81
514.739	5.86
515.086	5.95
515.432	6.05
515.779	6.13
516.126	6.24
516.473	6.31
516.819	6.39
517.166	6.46
517.512	6.55
517.859	6.62
518.205	6.69
518.552	6.8
518.898	6.88
519.245	6.95
519.591	6.99
519.937	7.03
520.283	7.1
520.629	7.18
520.976	7.26
521.322	7.35
521.668	7.42
522.014	7.52
522.36	7.61
522.706	7.7
523.052	7.81
523.398	7.91
523.743	8.02
524.089	8.12
524.435	8.25
524.781	8.35
525.126	8.46
525.472	8.53
525.817	8.6
526.163	8.69
526.509	8.76
526.854	8.85
527.199	8.94
527.545	9.01
527.89	9.09
528.235	9.17
528.581	9.24
528.926	9.32
529.271	9.4
529.616	9.47
529.961	9.56
530.306	9.65
530.651	9.72
530.996	9.82
531.341	9.93
531.686	10.01
532.031	10.09
532.376	10.19
532.721	10.32
533.065	10.42
533.41	10.53
533.755	10.65
534.099	10.79
534.444	10.9
534.788	11.05
535.133	11.17
535.477	11.29
535.822	11.43
536.166	11.57
536.51	11.73
536.855	11.91
537.199	12.06
537.543	12.24
537.887	12.42
538.231	12.61
538.576	12.8
538.92	13.02
539.264	13.22
539.608	13.4
539.951	13.57
540.295	13.75
540.639	13.92
540.983	14.08
541.327	14.26
541.671	14.42
542.014	14.56
542.358	14.74
542.701	14.91
543.045	15.06
543.389	15.24
543.732	15.41
544.075	15.6
544.419	15.8
544.762	15.99
545.105	16.22
545.449	16.42
545.792	16.65
546.135	16.86
546.478	17.14
546.821	17.4
547.165	17.67
547.508	17.93
547.851	18.2
548.194	18.49
548.536	18.74
548.879	19.06
549.222	19.35
549.565	19.64
549.908	19.93
550.25	20.29
550.593	20.59
550.936	20.89
551.278	21.22
551.621	21.57
551.963	21.87
552.306	22.17
552.648	22.52
552.991	22.83
553.333	23.1
553.675	23.4
554.017	23.7
554.36	23.98
554.702	24.31
555.044	24.65
555.386	24.97
555.728	25.3
556.07	25.62
556.412	25.94
556.754	26.26
557.096	26.61
557.438	26.93
557.78	27.31
558.121	27.66
558.463	27.97
558.805	28.3
559.147	28.63
559.488	28.96
559.83	29.31
560.171	29.62
560.513	29.99
560.854	30.29
561.196	30.64
561.537	31.02
561.878	31.29
562.22	31.59
562.561	31.88
562.902	32.19
563.243	32.49
563.584	32.77
563.925	33.11
564.266	33.33
564.607	33.66
564.948	33.91
565.289	34.19
565.63	34.47
565.971	34.73
566.312	35.01
566.653	35.31
566.993	35.5
567.334	35.78
567.675	36.04
568.015	36.33
568.356	36.57
568.696	36.86
569.037	37.12
569.377	37.39
569.718	37.66
570.058	37.89
570.398	38.13
570.739	38.42
571.079	38.65
571.419	38.95
571.759	39.11
572.099	39.32
572.439	39.57
572.779	39.74
573.119	39.97
573.459	40.23
573.799	40.42
574.139	40.66
574.479	40.92
574.819	41.14
575.158	41.33
575.498	41.56
575.838	41.71
576.177	41.91
576.517	42.1
576.856	42.31
577.196	42.52
577.535	42.65
577.875	42.82
578.214	43.03
578.553	43.25
578.893	43.49
579.232	43.76
579.571	43.92
579.91	44.14
580.25	44.3
580.589	44.41
580.928	44.65
581.267	44.82
581.606	44.94
581.945	45.1
582.283	45.28
582.622	45.45
582.961	45.64
583.3	45.88
583.639	46.03
583.977	46.21
584.316	46.46
584.654	46.75
584.993	46.98
585.332	47.08
585.67	47.2
586.008	47.31
586.347	47.43
586.685	47.64
587.024	47.79
587.362	47.92
587.7	48.1
588.038	48.14
588.376	48.27
588.715	48.37
589.053	48.49
589.391	48.62
589.729	48.77
590.067	48.9
590.404	49.03
590.742	49.17
591.08	49.24
591.418	49.31
591.756	49.45
592.093	49.59
592.431	49.72
592.769	49.88
593.106	50.03
593.444	50.12
593.781	50.24
594.119	50.37
594.456	50.52
594.793	50.62
595.131	50.68
595.468	50.83
595.805	50.95
596.143	51.05
596.48	51.13
596.817	51.18
597.154	51.23
597.491	51.2
597.828	51.27
598.165	51.38
598.502	51.42
598.839	51.45
599.176	51.54
599.512	51.61
599.849	51.68
600.186	51.8
600.523	51.87
600.859	51.93
601.196	52.06
601.532	52.16
601.869	52.19
602.205	52.32
602.542	52.39
602.878	52.5
603.215	52.58
603.551	52.6
603.887	52.64
604.223	52.73
604.56	52.83
604.896	52.83
605.232	52.93
605.568	53.04
605.904	53.12
606.24	53.18
606.576	53.21
606.912	53.29
607.248	53.33
607.583	53.49
607.919	53.52
608.255	53.52
608.591	53.59
608.926	53.64
609.262	53.73
609.597	53.76
609.933	53.72
610.268	53.76
610.604	53.86
610.939	53.9
611.275	53.95
611.61	53.95
611.945	54.06
612.281	54.05
612.616	54.02
612.951	54.05
613.286	54.08
613.621	54.22
613.956	54.17
614.291	54.2
614.626	54.15
614.961	54.29
615.296	54.27
615.631	54.26
615.966	54.29
616.3	54.28
616.635	54.27
616.97	54.4
617.304	54.41
617.639	54.49
617.973	54.47
618.308	54.62
618.642	54.75
618.977	54.8
619.311	54.83
619.646	54.87
619.98	54.86
620.314	54.86
620.648	54.88
620.983	54.93
621.317	54.92
621.651	54.94
621.985	54.96
622.319	55.16
622.653	55.25
622.987	55.33
623.321	55.43
623.655	55.54
623.988	55.59
624.322	55.6
624.656	55.67
624.99	55.77
625.323	55.69
625.657	55.62
625.99	55.66
626.324	55.72
626.657	55.73
626.991	55.8
627.324	55.87
627.658	55.85
627.991	55.98
628.324	56.1
628.657	56.1
628.991	56.09
629.324	56.09
629.657	56.03
629.99	56.04
630.323	56.04
630.656	56.09
630.989	56.09
631.322	56.1
631.655	55.99
631.987	56.04
632.32	56.14
632.653	56.22
632.986	56.25
633.318	56.22
633.651	56.3
633.984	56.31
634.316	56.33
634.649	56.44
634.981	56.43
635.313	56.36
635.646	56.52
635.978	56.59
636.31	56.61
636.643	56.61
636.975	56.65
637.307	56.69
637.639	56.73
637.971	56.76
638.303	56.84
638.635	56.95
638.967	56.87
639.299	56.78
639.631	56.79
639.963	56.72
640.295	56.78
640.626	56.82
640.958	56.96
641.29	57.02
641.621	57.09
641.953	57.09
642.285	57.12
642.616	57.05
642.948	56.97
643.279	56.88
643.61	57
643.942	56.91
644.273	56.93
644.604	56.92
644.936	57.02
645.267	57.03
645.598	57
645.929	57.08
646.26	57.05
646.591	57.07
646.922	57.22
647.253	57.24
647.584	57.23
647.915	57.06
648.245	57.06
648.576	56.98
648.907	56.95
649.238	56.96
649.568	57.07
649.899	57.17
650.229	57.29
650.56	57.35
650.89	57.5
651.221	57.46
651.551	57.51
651.882	57.43
652.212	57.49
652.542	57.52
652.872	57.58
653.203	57.75
653.533	57.88
653.863	57.92
654.193	57.99
654.523	58.03
654.853	58.06
655.183	57.99
655.513	58.02
655.843	57.97
656.172	58.07
656.502	58.03
656.832	58
657.162	58.1
657.491	57.96
657.821	57.95
658.15	58.02
658.48	58
658.809	57.97
659.139	57.89
659.468	57.96
659.798	57.91
660.127	57.88
660.456	57.75
660.785	57.63
661.115	57.53
661.444	57.58
661.773	57.61
662.102	57.69
662.431	57.71
662.76	57.83
663.089	57.79
663.418	57.78
663.747	57.71
664.076	57.59
664.404	57.6
664.733	57.6
665.062	57.54
665.39	57.48
665.719	57.64
666.048	57.66
666.376	57.63
666.705	57.64
667.033	57.7
667.362	57.8
667.69	57.89
668.018	58
668.347	57.97
668.675	58.07
669.003	58.02
669.331	58.09
669.659	58.09
669.987	58.14
670.315	58.23
670.643	58.32
670.971	58.38
671.299	58.34
671.627	58.3
671.955	58.32
672.283	58.39
672.61	58.3
672.938	58.36
673.266	58.31
673.593	58.37
673.921	58.35
674.249	58.24
674.576	58.27
674.904	58.19
675.231	58.11
675.558	58.05
675.886	58.1
676.213	58.07
676.54	58.07
676.867	57.97
677.195	57.9
677.522	57.83
677.849	57.81
678.176	57.92
678.503	57.92
678.83	57.99
679.157	57.91
679.484	57.84
679.81	57.8
680.137	57.81
680.464	57.74
680.791	57.71
681.117	57.87
681.444	57.85
681.771	57.91
682.097	58.03
682.424	58
682.75	57.95
683.077	57.81
683.403	57.82
683.729	57.84
684.056	57.77
684.382	57.82
684.708	57.79
685.034	57.78
685.36	57.72
685.686	57.63
686.012	57.59
686.339	57.67
686.664	57.66
686.99	57.74
687.316	57.72
687.642	57.78
687.968	57.79
688.294	57.79
688.619	57.77
688.945	57.62
689.271	57.72
689.596	57.72
689.922	57.87
690.247	57.77
690.573	57.87
690.898	57.96
691.224	57.85
691.549	57.84
691.874	57.91
692.2	58.09
692.525	58.11
692.85	58.12
693.175	58.08
693.5	58.16
693.825	58.05
694.15	58.06
694.475	57.92
694.8	58.02
695.125	58.11
695.45	58.11
695.775	58.11
696.099	58.03
696.424	57.95
696.749	57.86
697.073	57.99
697.398	57.96
697.723	57.93
698.047	58.13
698.372	58.21
698.696	58.14
699.02	58.1
699.345	58.07
699.669	58.21
699.993	58.31
700.318	58.35
700.642	58.31
700.966	58.31
701.29	58.39
701.614	58.2
701.938	58.12
702.262	58.19
702.586	58.25
702.91	58.35
703.234	58.41
703.557	58.47
703.881	58.52
704.205	58.53
704.529	58.62
704.852	58.48
705.176	58.42
705.499	58.47
705.823	58.48
706.146	58.52
706.47	58.24
706.793	57.89
707.117	57.79
707.44	57.97
707.763	57.98
708.086	57.87
708.409	57.98
708.733	57.9
709.056	57.78
709.379	57.83
709.702	57.75
710.025	57.84
710.348	57.68
710.671	57.52
710.993	57.46
711.316	57.42
711.639	57.52
711.962	57.52
712.284	57.59
712.607	57.61
712.93	57.64
713.252	57.67
713.575	57.89
713.897	57.78
714.22	57.82
714.542	57.99
714.864	57.92
715.187	57.81
715.509	57.72
715.831	57.71
716.153	57.65
716.475	57.61
716.798	57.54
717.12	57.81
717.442	57.65
717.764	57.62
718.085	57.54
718.407	57.62
718.729	57.56
719.051	57.61
719.373	57.58
719.695	57.38
720.016	57.34
720.338	57.37
720.659	57.65
720.981	57.39
721.302	57.44
721.624	57.62
721.945	57.71
722.267	57.99
722.588	58.09
722.909	58.29
723.231	58.38
723.552	58.39
723.873	58.13
724.194	58.54
724.515	58.6
724.836	58.69
725.157	58.65
725.478	58.61
725.799	58.65
726.12	58.58
726.441	58.57
726.762	58.66
727.083	58.45
727.403	58.28
727.724	58.46
728.045	58.39
728.365	58.49
728.686	58.33
729.006	58.49
729.327	58.49
729.647	58.1
729.967	58.04
730.288	58.16
730.608	58.24
730.928	58.24
731.249	58.11
731.569	58.25
731.889	58.07
732.209	58.06
732.529	57.89
732.849	58.08
733.169	58.28
733.489	58.4
733.809	58.69
734.129	58.81
734.448	58.88
734.768	58.88
735.088	58.68
735.408	58.68
735.727	58.52
736.047	58.55
736.366	58.93
736.686	59
737.005	58.82
737.325	58.77
737.644	58.7
737.963	58.85
738.283	58.73
738.602	58.81
738.921	58.81
739.24	58.82
739.56	58.59
739.879	58.47
740.198	58.56
740.517	58.36
740.836	58.41
741.155	58.38
741.473	58.23
741.792	58.3
742.111	58.48
742.43	58.43
742.748	58.44
743.067	58.19
743.386	58.1
743.704	58.33
744.023	58.37
744.341	58.4
744.66	58.44
744.978	58.47
745.297	58.38
745.615	58.4
745.933	58.34
746.252	58.53
746.57	58.66
746.888	58.47
747.206	58.57
747.524	58.44
747.842	58.44
748.16	58.55
748.478	58.58
748.796	58.48
749.114	58.25
749.432	58.15
749.749	58.37
750.067	58.47
750.385	58.34
750.703	58.3
751.02	58.2
751.338	58.42
751.655	58.51
751.973	58.56
752.29	58.65
752.608	58.98
752.925	59.09
753.242	59.04
753.56	58.82
753.877	58.86
754.194	58.81
754.511	58.41
754.828	57.99
755.145	58.01
755.462	58.17
755.779	58.63
756.096	58.79
756.413	58.96
756.73	59.25
757.047	59.21
757.364	59.65
757.68	59.84
757.997	59.55
758.314	59.23
758.63	58.79
758.947	58.66
759.264	58.36
759.58	58.24
759.896	58.21
760.213	58.42
760.529	58.47
760.846	58.4
761.162	58.76
761.478	59.2
761.794	59.25
762.11	59.12
762.426	58.94
762.743	58.59
763.059	58.27
763.375	57.99
763.69	57.94
764.006	57.71
764.322	57.52
764.638	57.62
764.954	57.61
765.27	57.95
765.585	58.1
765.901	58.35
766.216	58.52
766.532	58.53
766.848	58.42
767.163	58.33
767.478	58.45
767.794	58.44
768.109	58.2
768.424	58.28
768.74	58.53
769.055	58.32
769.37	58.66
769.685	58.57
770	58.59
770.315	58.7
770.63	58.75
770.945	59.06
771.26	59
771.575	59.28
771.89	59.27
772.205	59.06
772.52	59.03
772.834	58.83
773.149	58.95
773.464	59.3
773.778	59.41
774.093	59.19
774.407	59.15
774.722	59.39
775.036	59.26
775.351	59.11
775.665	59.59
775.979	59.65
776.293	60.29
776.608	60.33
776.922	60.15
777.236	60.3
777.55	60.03
777.864	60.03
778.178	59.83
778.492	60.17
778.806	60.18
779.12	59.83
779.434	59.92
779.747	59.74
780.061	59.51
780.375	59.2
780.689	59.26
781.002	59.31
781.316	59.77
781.629	60
781.943	60.17
782.256	60.05
782.57	60.08
782.883	59.72
783.196	59.81
783.51	59.81
783.823	59.86
784.136	59.89
784.449	59.66
784.762	59.34
785.075	59.1
785.388	59.27
785.701	59.63
786.014	59.48
786.327	59.73
786.64	60.21
786.953	60.18
787.266	59.88
787.578	59.29
787.891	58.85
788.204	58.92
788.516	58.26
788.829	58.49
789.141	58.44
789.454	58.53
789.766	58.73
790.079	59.13
790.391	58.95
790.703	59.46
791.016	59.48
791.328	59.93
791.64	59.78
791.952	59.7
792.264	59.35
792.576	59.3
792.888	59.13
793.2	58.94
793.512	59.07
793.824	59.55
794.136	59.91
794.448	59.82
794.76	59.95
795.071	60.74
795.383	60.26
795.695	60.17
796.006	59.87
796.318	59.44
796.629	59.37
796.941	59.49
797.252	59.28
797.564	59.2
797.875	58.9
798.186	58.69
798.497	58.67
798.809	58.53
799.12	58.15
799.431	58.13
799.742	57.78
800.053	58.09
800.364	58.07
800.675	58.15
800.986	58.03
801.297	56.99
801.608	57.02
801.918	57.8
802.229	57.76
802.54	57.95
802.851	58.07
803.161	58.02
803.472	57.48
803.782	57.04
804.093	57.76
804.403	58.19
804.714	58.36
805.024	58.51
805.334	59.22
805.645	59.83
805.955	59.75
806.265	60.12
806.575	59.82
806.885	59.87
807.195	59.4
807.505	59.57
807.815	60.17
808.125	59.79
808.435	58.7
808.745	59.2
809.055	59.6
809.365	59.8
809.674	59.41
809.984	59.65
810.294	60.1
810.603	59.33
810.913	59.05
811.222	59.08
811.532	59.29
811.841	59.22
812.151	59.19
812.46	59.96
812.769	60.2
813.079	60.76
813.388	61.14
813.697	61.94
814.006	61.65
814.315	61.99
814.624	62.14
814.933	62.96
815.242	62.55
815.551	62.15
815.86	61.96
816.169	62.28
816.478	61.99
816.786	61.67
817.095	62.76
817.404	63.24
817.712	63.22
818.021	62.65
818.33	62.27
818.638	61.14
818.947	60.4
819.255	59.93
819.563	59.19
819.872	58.99
820.18	58.98
820.488	58.9
820.796	58.7
821.105	58.54
821.413	58.7
821.721	58.6
822.029	58.9
822.337	58.96
822.645	59.07
822.953	59.18
823.26	59.27
823.568	59.03
823.876	58.96
824.184	58.84
824.491	58.89
824.799	58.67
825.107	58.64
825.414	58.66
825.722	58.67
826.029	58.86
826.337	58.97
826.644	59.01
826.951	59.05
827.259	58.93
827.566	59.01
827.873	58.83
828.18	58.92
828.488	58.7
828.795	58.61
829.102	58.47
829.409	58.67
829.716	58.4
830.023	58.64
830.329	58.88
830.636	59.39
830.943	59.57
831.25	59.75
831.557	60.36
831.863	60.44
832.17	60.63
832.476	60.79
832.783	60.61
833.089	60.08
833.396	60.34
833.702	60.49
834.009	60.57
834.315	59.94
834.621	59.93
834.928	59.62
835.234	59.35
835.54	59.13
835.846	58.97
836.152	59.16
836.458	58.69
836.764	58.11
837.07	57.43
837.376	56.83
837.682	56.85
837.988	56.63
838.293	56.54
838.599	55.96
838.905	55.06
839.211	54.4
839.516	54.56
839.822	53.98
840.127	54.38
840.433	54.33
840.738	54.49
841.044	53.93
841.349	53.55
841.654	54.78
841.959	55.65
842.265	54.97
842.57	55.3
842.875	55.41
843.18	56.16
843.485	56.83
843.79	56.79
844.095	57.25
844.4	57.06
844.705	56.54
845.01	56.92
845.315	58.03
845.619	59.15
845.924	59.93
846.229	59.7
846.533	60
846.838	58.99
847.142	59.27
847.447	58.58
847.751	58.61
848.056	55.46
848.36	54.33
848.664	54.81
848.969	53.3
849.273	51.54
849.577	51.8
849.881	52.2
850.185	53.78
850.489	52.73
850.794	53.2
851.097	52.73
851.401	52.11
851.705	51.05
852.009	51.8
852.313	51.41
852.617	52.6
852.92	52.38
853.224	50.76
853.528	52.94
853.831	53.84
854.135	54.36
854.438	55.31
854.742	52.66
855.045	52.7
855.349	52.95
855.652	54.4
855.955	51.41
856.259	50.23
856.562	48.9
856.865	48.38
857.168	48.38
857.471	48.82
857.774	49.96
858.077	49.99
858.38	49.41
858.683	49.92
858.986	49.57
859.289	51
859.592	52.37
859.894	50.78
860.197	52.27
860.5	52.84
860.802	53.67
861.105	56.06
861.407	55.46
861.71	55.16
862.012	56.77
862.315	57.67
862.617	58.33
862.919	58.17
863.222	59.44
863.524	59.16
863.826	58.66
864.128	57.01
864.43	61.25
864.732	60.49
865.034	58.72
865.336	60.25
865.638	58.02
865.94	59.06
866.242	59.14
866.544	58.43
866.846	57.82
867.147	58.01
867.449	58.13
867.751	57.44
868.052	56.99
868.354	55.27
868.655	55.84
868.957	53.17
869.258	53.65
869.56	54.29
869.861	54.73
870.162	54.67
870.463	55.92
870.765	51.28
871.066	53.4
871.367	52.18
871.668	48.44
871.969	46.83
872.27	45.97
872.571	45.86
872.872	46.54
873.173	46.73
873.473	48.55
873.774	47.71
874.075	48.09
874.376	46.49
874.676	48.8
874.977	47.85
875.277	50.64
875.578	51.12
875.878	50.1
876.179	49.51
876.479	50.53
876.78	50.31
877.08	52.16
877.38	48.36
877.68	50.51
877.981	54.27
878.281	55.84
878.581	57.08
