Data from BU58129_Reflection_00007.txt Node
Date: Mon Nov 18 16:35:04 EST 2019
User: vgr7
Spectrometer: USB2G7710
Scans to average: 3
Trigger mode: 4
Integration Time (sec): 2.000000E-2
Electric dark correction enabled: true
Boxcar width: 10
XAxis mode: Wavelengths
Number of Pixels in Spectrum: 2048
>>>>>Begin Spectral Data<<<<<
177.721	56.93
178.105	117.09
178.488	23.68
178.871	322.22
179.254	766.67
179.636	77.54
180.019	-169.01
180.402	80
180.785	-92.37
181.168	-177.78
181.55	70.7
181.933	52.49
182.316	50.16
182.698	59.6
183.081	59.16
183.463	110.72
183.846	317.76
184.228	430.38
184.611	3922.22
184.993	-123.54
185.376	-146.26
185.758	-194.83
186.14	-260.06
186.522	-204.89
186.904	-1141.83
187.287	1936.48
187.669	-321.42
188.051	949.82
188.433	820.54
188.815	2443.43
189.197	746.86
189.579	1069.7
189.961	1758.91
190.342	410.65
190.724	690.04
191.106	792.64
191.488	129.75
191.869	55.17
192.251	17.02
192.633	23.27
193.014	37.63
193.396	47.28
193.777	45.69
194.159	50.59
194.54	62.92
194.922	61.88
195.303	74.51
195.684	111.52
196.065	131.01
196.447	190.09
196.828	205.65
197.209	211.53
197.59	275.27
197.971	311.97
198.352	-1041.24
198.733	789.14
199.114	-1419.38
199.495	-247.36
199.876	-309.16
200.257	-255.43
200.638	-133.64
201.018	-137.64
201.399	-99.17
201.78	-93.94
202.16	-146.11
202.541	-620.36
202.922	-2212.93
203.302	1499.06
203.683	605.31
204.063	1286.15
204.444	2181.3
204.824	1597.72
205.204	22366.67
205.585	2023.5
205.965	1433.33
206.345	2453.74
206.725	1315.69
207.106	341.58
207.486	355.84
207.866	543.2
208.246	1330.05
208.626	513.09
209.006	4455.56
209.386	1127.45
209.766	296.4
210.145	375.06
210.525	-784.35
210.905	-2213.73
211.285	-88.51
211.664	-63.45
212.044	-69.93
212.424	-78.65
212.803	-70.54
213.183	103.53
213.562	238.76
213.942	173.35
214.321	298.37
214.701	237.37
215.08	37.78
215.459	48.99
215.838	53.52
216.218	82.4
216.597	55.48
216.976	87.57
217.355	131.28
217.734	63.03
218.113	31.11
218.492	29.45
218.871	0.62
219.25	-2.72
219.629	-9.17
220.008	-9.45
220.387	2.62
220.766	-9.64
221.144	-37.64
221.523	-84.07
221.902	-91.88
222.28	-69.68
222.659	-42.44
223.037	-25.62
223.416	-43.17
223.794	-47.96
224.173	-32.98
224.551	-30.83
224.929	-41.15
225.308	-30.66
225.686	-27.19
226.064	-18.17
226.442	-16.4
226.821	-2.85
227.199	-3.88
227.577	-3.65
227.955	-5.66
228.333	-5.98
228.711	-1.96
229.089	1.35
229.467	-1.48
229.845	-2.41
230.222	-4.19
230.6	-4.72
230.978	-5.88
231.356	-2.83
231.733	-4.92
232.111	-4.62
232.488	-4.05
232.866	-3.89
233.243	-3.82
233.621	-4.42
233.998	-2.96
234.376	-3.99
234.753	-5.72
235.13	-6.15
235.508	-5.65
235.885	-4.63
236.262	-6.92
236.639	-7.9
237.016	-7.44
237.393	-3.01
237.77	-1.54
238.147	-1
238.524	-1.75
238.901	-1.01
239.278	-0.15
239.655	1.08
240.032	1.22
240.409	0.61
240.785	0.89
241.162	1.18
241.539	1.61
241.915	1.71
242.292	1.81
242.668	1.96
243.045	2.48
243.421	2.65
243.798	2.33
244.174	2.51
244.551	2.7
244.927	2.57
245.303	2.38
245.679	2.21
246.056	2.31
246.432	2.67
246.808	2.43
247.184	2.04
247.56	1.93
247.936	1.89
248.312	2.05
248.688	2.02
249.064	2.05
249.44	2.09
249.815	1.96
250.191	1.97
250.567	1.93
250.943	1.8
251.318	1.81
251.694	2.15
252.069	2.07
252.445	2.09
252.82	2.05
253.196	1.76
253.571	1.78
253.947	1.82
254.322	2.12
254.697	2.24
255.073	2.24
255.448	2.16
255.823	2.27
256.198	2.12
256.573	2.02
256.948	2.09
257.323	1.93
257.698	1.98
258.073	1.99
258.448	2.12
258.823	2.01
259.198	1.85
259.573	1.85
259.948	1.83
260.322	1.92
260.697	1.86
261.072	1.83
261.446	1.85
261.821	1.72
262.195	1.57
262.57	1.59
262.944	1.64
263.319	1.63
263.693	1.5
264.067	1.61
264.442	1.69
264.816	1.65
265.19	1.53
265.564	1.52
265.938	1.39
266.313	1.26
266.687	1.31
267.061	1.56
267.435	1.41
267.809	1.55
268.183	1.53
268.556	1.56
268.93	1.79
269.304	1.92
269.678	2.01
270.051	1.96
270.425	1.92
270.799	1.98
271.172	1.97
271.546	1.97
271.919	1.87
272.293	1.89
272.666	2.01
273.04	2.12
273.413	2.11
273.787	2.17
274.16	2.12
274.533	2.24
274.906	2.17
275.279	2.15
275.653	2.02
276.026	1.96
276.399	1.97
276.772	1.95
277.145	1.75
277.518	1.63
277.891	1.67
278.263	1.62
278.636	1.59
279.009	1.69
279.382	1.86
279.755	1.75
280.127	1.94
280.5	1.87
280.872	1.91
281.245	1.91
281.617	2.09
281.99	2.18
282.362	2.15
282.735	1.98
283.107	1.96
283.479	2.09
283.852	2.13
284.224	2.08
284.596	2.05
284.968	2.2
285.34	2.36
285.713	2.38
286.085	2.44
286.457	2.63
286.829	2.58
287.201	2.59
287.572	2.64
287.944	2.45
288.316	2.39
288.688	2.32
289.06	2.48
289.431	2.37
289.803	2.39
290.175	2.14
290.546	2.4
290.918	2.46
291.289	2.53
291.661	2.55
292.032	2.72
292.403	2.8
292.775	2.92
293.146	2.9
293.517	2.84
293.889	3.01
294.26	2.8
294.631	2.85
295.002	2.74
295.373	2.76
295.744	2.9
296.115	3.04
296.486	3.12
296.857	2.94
297.228	2.95
297.599	2.96
297.97	3.15
298.34	3.11
298.711	3.21
299.082	3.18
299.452	3.19
299.823	3.23
300.194	3.19
300.564	3.04
300.935	3.15
301.305	3.24
301.676	3.21
302.046	3.23
302.416	3.37
302.787	3.49
303.157	3.61
303.527	3.51
303.897	3.41
304.267	3.43
304.637	3.46
305.008	3.57
305.378	3.68
305.748	3.81
306.117	3.82
306.487	3.88
306.857	3.86
307.227	3.86
307.597	3.96
307.967	4
308.336	4.05
308.706	4.06
309.076	4.18
309.445	4.12
309.815	4.18
310.184	4.15
310.554	4.1
310.923	4.13
311.293	4.3
311.662	4.37
312.031	4.39
312.401	4.5
312.77	4.62
313.139	4.61
313.508	4.6
313.877	4.66
314.246	4.64
314.616	4.64
314.985	4.81
315.353	4.73
315.722	4.8
316.091	4.88
316.46	4.72
316.829	4.7
317.198	4.82
317.567	4.91
317.935	5.01
318.304	5.12
318.672	5.24
319.041	5.28
319.41	5.32
319.778	5.42
320.147	5.53
320.515	5.59
320.883	5.71
321.252	5.79
321.62	5.87
321.988	5.95
322.357	6.09
322.725	6.03
323.093	6.09
323.461	6.21
323.829	6.29
324.197	6.47
324.565	6.51
324.933	6.56
325.301	6.63
325.669	6.66
326.037	6.72
326.405	6.66
326.772	6.62
327.14	6.81
327.508	6.82
327.875	6.8
328.243	6.82
328.61	6.83
328.978	6.87
329.346	6.92
329.713	6.9
330.08	6.97
330.448	6.98
330.815	7.04
331.182	7.03
331.55	6.98
331.917	7.15
332.284	7.29
332.651	7.3
333.018	7.33
333.385	7.26
333.752	7.29
334.119	7.34
334.486	7.46
334.853	7.39
335.22	7.5
335.587	7.43
335.954	7.51
336.32	7.45
336.687	7.53
337.054	7.48
337.42	7.49
337.787	7.56
338.153	7.58
338.52	7.57
338.886	7.53
339.253	7.56
339.619	7.51
339.986	7.45
340.352	7.49
340.718	7.42
341.084	7.45
341.451	7.53
341.817	7.66
342.183	7.68
342.549	7.6
342.915	7.52
343.281	7.58
343.647	7.45
344.013	7.54
344.379	7.45
344.745	7.53
345.11	7.61
345.476	7.6
345.842	7.61
346.208	7.67
346.573	7.73
346.939	7.84
347.304	7.86
347.67	7.79
348.035	7.77
348.401	7.88
348.766	7.87
349.132	7.87
349.497	7.76
349.862	7.81
350.228	7.84
350.593	7.86
350.958	7.96
351.323	7.99
351.688	7.95
352.053	8.1
352.418	8.14
352.783	8.1
353.148	8.04
353.513	8
353.878	8.02
354.243	8.04
354.608	7.97
354.972	7.92
355.337	8.01
355.702	8.03
356.066	8.11
356.431	8.15
356.795	8.17
357.16	8.13
357.524	8.04
357.889	8.04
358.253	8.06
358.618	8.05
358.982	7.99
359.346	7.98
359.71	7.93
360.075	7.89
360.439	7.92
360.803	7.9
361.167	7.86
361.531	7.82
361.895	7.77
362.259	7.74
362.623	7.76
362.987	7.74
363.351	7.77
363.714	7.65
364.078	7.57
364.442	7.5
364.806	7.49
365.169	7.42
365.533	7.36
365.896	7.27
366.26	7.19
366.623	7.16
366.987	7.1
367.35	7.05
367.714	6.96
368.077	6.89
368.44	6.93
368.803	6.93
369.167	6.86
369.53	6.73
369.893	6.73
370.256	6.65
370.619	6.59
370.982	6.44
371.345	6.37
371.708	6.31
372.071	6.27
372.434	6.24
372.797	6.25
373.159	6.2
373.522	6.2
373.885	6.18
374.247	6.13
374.61	6.08
374.973	5.98
375.335	5.9
375.698	5.82
376.06	5.71
376.423	5.68
376.785	5.58
377.147	5.65
377.51	5.58
377.872	5.56
378.234	5.48
378.596	5.46
378.958	5.44
379.321	5.42
379.683	5.32
380.045	5.23
380.407	5.2
380.769	5.13
381.13	5.06
381.492	5.01
381.854	4.99
382.216	4.96
382.578	4.93
382.939	4.92
383.301	4.9
383.663	4.84
384.024	4.82
384.386	4.85
384.747	4.79
385.109	4.73
385.47	4.58
385.832	4.55
386.193	4.53
386.554	4.49
386.916	4.44
387.277	4.47
387.638	4.49
387.999	4.46
388.36	4.45
388.721	4.42
389.082	4.36
389.443	4.33
389.804	4.29
390.165	4.25
390.526	4.23
390.887	4.2
391.248	4.16
391.609	4.08
391.969	4.02
392.33	3.98
392.691	4
393.051	4.02
393.412	3.98
393.772	3.92
394.133	3.93
394.493	3.87
394.854	3.83
395.214	3.77
395.574	3.7
395.935	3.67
396.295	3.66
396.655	3.66
397.015	3.62
397.376	3.6
397.736	3.56
398.096	3.54
398.456	3.5
398.816	3.49
399.176	3.45
399.535	3.4
399.895	3.36
400.255	3.32
400.615	3.29
400.975	3.29
401.334	3.29
401.694	3.2
402.054	3.21
402.413	3.18
402.773	3.17
403.132	3.16
403.492	3.14
403.851	3.11
404.211	3.09
404.57	3.03
404.929	3
405.288	2.99
405.648	2.95
406.007	2.94
406.366	2.93
406.725	2.97
407.084	2.96
407.443	2.97
407.802	2.97
408.161	2.96
408.52	2.94
408.879	2.9
409.238	2.94
409.596	2.94
409.955	2.92
410.314	2.9
410.673	2.89
411.031	2.87
411.39	2.84
411.748	2.82
412.107	2.83
412.465	2.85
412.824	2.85
413.182	2.83
413.54	2.83
413.899	2.82
414.257	2.79
414.615	2.79
414.974	2.79
415.332	2.76
415.69	2.74
416.048	2.72
416.406	2.75
416.764	2.72
417.122	2.72
417.48	2.7
417.838	2.72
418.195	2.7
418.553	2.71
418.911	2.72
419.269	2.71
419.626	2.72
419.984	2.7
420.342	2.68
420.699	2.67
421.057	2.67
421.414	2.67
421.772	2.66
422.129	2.63
422.486	2.62
422.844	2.63
423.201	2.62
423.558	2.62
423.915	2.6
424.273	2.61
424.63	2.6
424.987	2.59
425.344	2.57
425.701	2.58
426.058	2.57
426.415	2.53
426.772	2.54
427.128	2.51
427.485	2.51
427.842	2.5
428.199	2.51
428.555	2.48
428.912	2.48
429.269	2.48
429.625	2.51
429.982	2.47
430.338	2.45
430.695	2.44
431.051	2.42
431.407	2.43
431.764	2.4
432.12	2.4
432.476	2.4
432.832	2.39
433.189	2.39
433.545	2.38
433.901	2.41
434.257	2.38
434.613	2.39
434.969	2.37
435.325	2.37
435.681	2.38
436.036	2.39
436.392	2.37
436.748	2.37
437.104	2.35
437.459	2.37
437.815	2.37
438.171	2.37
438.526	2.39
438.882	2.38
439.237	2.4
439.593	2.4
439.948	2.41
440.304	2.43
440.659	2.42
441.014	2.44
441.369	2.43
441.725	2.44
442.08	2.44
442.435	2.45
442.79	2.45
443.145	2.44
443.5	2.43
443.855	2.43
444.21	2.42
444.565	2.44
444.92	2.43
445.275	2.43
445.629	2.43
445.984	2.41
446.339	2.4
446.693	2.37
447.048	2.37
447.403	2.35
447.757	2.32
448.112	2.31
448.466	2.3
448.82	2.3
449.175	2.3
449.529	2.28
449.883	2.27
450.238	2.26
450.592	2.26
450.946	2.27
451.3	2.25
451.654	2.26
452.008	2.24
452.362	2.22
452.716	2.21
453.07	2.21
453.424	2.22
453.778	2.23
454.132	2.25
454.486	2.23
454.839	2.22
455.193	2.22
455.547	2.22
455.9	2.21
456.254	2.22
456.607	2.22
456.961	2.22
457.314	2.23
457.668	2.24
458.021	2.22
458.375	2.22
458.728	2.22
459.081	2.22
459.434	2.21
459.787	2.21
460.141	2.23
460.494	2.23
460.847	2.23
461.2	2.22
461.553	2.23
461.906	2.25
462.259	2.26
462.611	2.29
462.964	2.29
463.317	2.3
463.67	2.3
464.022	2.29
464.375	2.3
464.728	2.29
465.08	2.31
465.433	2.32
465.785	2.32
466.138	2.32
466.49	2.31
466.843	2.33
467.195	2.35
467.547	2.34
467.899	2.34
468.252	2.35
468.604	2.36
468.956	2.35
469.308	2.33
469.66	2.33
470.012	2.33
470.364	2.35
470.716	2.35
471.068	2.36
471.42	2.36
471.772	2.37
472.123	2.37
472.475	2.37
472.827	2.4
473.178	2.4
473.53	2.42
473.882	2.42
474.233	2.42
474.585	2.41
474.936	2.4
475.288	2.41
475.639	2.42
475.99	2.43
476.342	2.44
476.693	2.46
477.044	2.48
477.395	2.49
477.746	2.48
478.097	2.47
478.448	2.47
478.8	2.46
479.15	2.44
479.501	2.44
479.852	2.43
480.203	2.42
480.554	2.43
480.905	2.43
481.255	2.43
481.606	2.44
481.957	2.46
482.307	2.46
482.658	2.45
483.009	2.44
483.359	2.43
483.709	2.43
484.06	2.43
484.41	2.43
484.761	2.42
485.111	2.41
485.461	2.42
485.811	2.43
486.162	2.44
486.512	2.45
486.862	2.44
487.212	2.45
487.562	2.46
487.912	2.45
488.262	2.44
488.612	2.45
488.961	2.45
489.311	2.45
489.661	2.46
490.011	2.45
490.36	2.46
490.71	2.47
491.06	2.47
491.409	2.48
491.759	2.47
492.108	2.47
492.458	2.49
492.807	2.47
493.157	2.48
493.506	2.49
493.855	2.5
494.204	2.51
494.554	2.52
494.903	2.52
495.252	2.54
495.601	2.56
495.95	2.56
496.299	2.58
496.648	2.58
496.997	2.6
497.346	2.63
497.695	2.65
498.043	2.68
498.392	2.72
498.741	2.75
499.09	2.78
499.438	2.81
499.787	2.84
500.135	2.88
500.484	2.88
500.832	2.91
501.181	2.96
501.529	2.98
501.878	3.03
502.226	3.08
502.574	3.1
502.923	3.13
503.271	3.16
503.619	3.23
503.967	3.28
504.315	3.3
504.663	3.34
505.011	3.39
505.359	3.43
505.707	3.49
506.055	3.54
506.403	3.6
506.751	3.65
507.098	3.71
507.446	3.78
507.794	3.85
508.141	3.91
508.489	3.97
508.837	4.03
509.184	4.08
509.531	4.16
509.879	4.26
510.226	4.33
510.574	4.4
510.921	4.47
511.268	4.52
511.616	4.59
511.963	4.66
512.31	4.74
512.657	4.83
513.004	4.89
513.351	4.98
513.698	5.08
514.045	5.17
514.392	5.25
514.739	5.33
515.086	5.44
515.432	5.54
515.779	5.62
516.126	5.72
516.473	5.83
516.819	5.91
517.166	6.01
517.512	6.1
517.859	6.22
518.205	6.28
518.552	6.39
518.898	6.5
519.245	6.57
519.591	6.66
519.937	6.75
520.283	6.86
520.629	6.97
520.976	7.08
521.322	7.19
521.668	7.31
522.014	7.44
522.36	7.55
522.706	7.69
523.052	7.86
523.398	8.01
523.743	8.13
524.089	8.3
524.435	8.44
524.781	8.61
525.126	8.74
525.472	8.89
525.817	9
526.163	9.11
526.509	9.22
526.854	9.34
527.199	9.43
527.545	9.51
527.89	9.59
528.235	9.68
528.581	9.78
528.926	9.89
529.271	10
529.616	10.11
529.961	10.2
530.306	10.32
530.651	10.44
530.996	10.57
531.341	10.68
531.686	10.8
532.031	10.9
532.376	11.03
532.721	11.16
533.065	11.31
533.41	11.46
533.755	11.61
534.099	11.76
534.444	11.91
534.788	12.1
535.133	12.27
535.477	12.44
535.822	12.59
536.166	12.77
536.51	12.97
536.855	13.17
537.199	13.37
537.543	13.56
537.887	13.77
538.231	14
538.576	14.24
538.92	14.47
539.264	14.72
539.608	14.93
539.951	15.12
540.295	15.3
540.639	15.47
540.983	15.65
541.327	15.81
541.671	16
542.014	16.15
542.358	16.31
542.701	16.49
543.045	16.66
543.389	16.81
543.732	16.99
544.075	17.17
544.419	17.36
544.762	17.55
545.105	17.74
545.449	17.93
545.792	18.14
546.135	18.36
546.478	18.55
546.821	18.79
547.165	19.06
547.508	19.33
547.851	19.58
548.194	19.84
548.536	20.09
548.879	20.36
549.222	20.64
549.565	20.89
549.908	21.16
550.25	21.45
550.593	21.79
550.936	22.01
551.278	22.28
551.621	22.58
551.963	22.87
552.306	23.13
552.648	23.41
552.991	23.65
553.333	23.87
553.675	24.13
554.017	24.4
554.36	24.64
554.702	24.89
555.044	25.13
555.386	25.41
555.728	25.64
556.07	25.91
556.412	26.14
556.754	26.41
557.096	26.61
557.438	26.84
557.78	27.09
558.121	27.41
558.463	27.69
558.805	27.93
559.147	28.12
559.488	28.35
559.83	28.58
560.171	28.82
560.513	29.1
560.854	29.33
561.196	29.54
561.537	29.76
561.878	30
562.22	30.27
562.561	30.45
562.902	30.74
563.243	30.94
563.584	31.16
563.925	31.37
564.266	31.56
564.607	31.76
564.948	31.95
565.289	32.13
565.63	32.3
565.971	32.47
566.312	32.7
566.653	32.94
566.993	33.19
567.334	33.39
567.675	33.59
568.015	33.78
568.356	33.98
568.696	34.17
569.037	34.3
569.377	34.4
569.718	34.56
570.058	34.69
570.398	34.83
570.739	35.01
571.079	35.17
571.419	35.38
571.759	35.54
572.099	35.69
572.439	35.8
572.779	35.95
573.119	36.15
573.459	36.26
573.799	36.39
574.139	36.45
574.479	36.56
574.819	36.65
575.158	36.79
575.498	36.86
575.838	36.99
576.177	37.12
576.517	37.28
576.856	37.45
577.196	37.53
577.535	37.66
577.875	37.76
578.214	37.91
578.553	37.99
578.893	38.11
579.232	38.27
579.571	38.41
579.91	38.53
580.25	38.62
580.589	38.76
580.928	38.88
581.267	39.01
581.606	39.14
581.945	39.21
582.283	39.27
582.622	39.34
582.961	39.48
583.3	39.59
583.639	39.69
583.977	39.83
584.316	39.99
584.654	40.11
584.993	40.16
585.332	40.27
585.67	40.47
586.008	40.56
586.347	40.55
586.685	40.64
587.024	40.68
587.362	40.74
587.7	40.81
588.038	40.9
588.376	41.02
588.715	41.11
589.053	41.3
589.391	41.43
589.729	41.57
590.067	41.64
590.404	41.75
590.742	41.81
591.08	41.83
591.418	41.98
591.756	42.04
592.093	42.17
592.431	42.21
592.769	42.2
593.106	42.23
593.444	42.3
593.781	42.42
594.119	42.52
594.456	42.59
594.793	42.64
595.131	42.69
595.468	42.74
595.805	42.86
596.143	42.87
596.48	42.9
596.817	42.98
597.154	43
597.491	43.04
597.828	43.12
598.165	43.14
598.502	43.12
598.839	43.15
599.176	43.17
599.512	43.26
599.849	43.32
600.186	43.46
600.523	43.58
600.859	43.68
601.196	43.72
601.532	43.78
601.869	43.81
602.205	43.83
602.542	43.9
602.878	43.86
603.215	43.94
603.551	43.99
603.887	43.98
604.223	44.03
604.56	44.07
604.896	44.14
605.232	44.21
605.568	44.25
605.904	44.36
606.24	44.42
606.576	44.44
606.912	44.49
607.248	44.48
607.583	44.44
607.919	44.44
608.255	44.49
608.591	44.59
608.926	44.63
609.262	44.72
609.597	44.71
609.933	44.8
610.268	44.81
610.604	44.89
610.939	44.95
611.275	45.05
611.61	45.04
611.945	45.07
612.281	45.12
612.616	45.2
612.951	45.2
613.286	45.26
613.621	45.38
613.956	45.42
614.291	45.47
614.626	45.58
614.961	45.66
615.296	45.67
615.631	45.66
615.966	45.79
616.3	45.81
616.635	45.83
616.97	45.82
617.304	45.75
617.639	45.84
617.973	45.87
618.308	45.78
618.642	45.84
618.977	45.82
619.311	45.85
619.646	45.91
619.98	46.03
620.314	45.99
620.648	45.98
620.983	45.96
621.317	46.02
621.651	46.04
621.985	45.95
622.319	45.94
622.653	45.93
622.987	45.88
623.321	45.81
623.655	45.81
623.988	45.8
624.322	45.82
624.656	45.73
624.99	45.68
625.323	45.75
625.657	45.75
625.99	45.83
626.324	45.9
626.657	45.91
626.991	45.83
627.324	45.84
627.658	45.88
627.991	46.01
628.324	46.03
628.657	46.04
628.991	46.1
629.324	46.2
629.657	46.22
629.99	46.22
630.323	46.33
630.656	46.37
630.989	46.47
631.322	46.55
631.655	46.6
631.987	46.65
632.32	46.68
632.653	46.74
632.986	46.63
633.318	46.58
633.651	46.55
633.984	46.56
634.316	46.62
634.649	46.49
634.981	46.36
635.313	46.33
635.646	46.35
635.978	46.41
636.31	46.37
636.643	46.46
636.975	46.54
637.307	46.49
637.639	46.49
637.971	46.43
638.303	46.4
638.635	46.45
638.967	46.55
639.299	46.57
639.631	46.55
639.963	46.55
640.295	46.56
640.626	46.57
640.958	46.63
641.29	46.58
641.621	46.65
641.953	46.74
642.285	46.84
642.616	46.92
642.948	46.86
643.279	46.83
643.61	46.78
643.942	46.72
644.273	46.72
644.604	46.82
644.936	46.87
645.267	46.92
645.598	46.96
645.929	46.86
646.26	46.9
646.591	46.95
646.922	46.96
647.253	47.07
647.584	47.1
647.915	47.14
648.245	47.17
648.576	47.23
648.907	47.22
649.238	47.18
649.568	47.09
649.899	47.22
650.229	47.24
650.56	47.36
650.89	47.37
651.221	47.38
651.551	47.37
651.882	47.33
652.212	47.3
652.542	47.23
652.872	47.35
653.203	47.25
653.533	47.26
653.863	47.37
654.193	47.26
654.523	47.26
654.853	47.21
655.183	47.12
655.513	47.1
655.843	47.13
656.172	47.15
656.502	47.21
656.832	47.17
657.162	47.23
657.491	47.15
657.821	47.25
658.15	47.28
658.48	47.29
658.809	47.26
659.139	47.25
659.468	47.32
659.798	47.36
660.127	47.4
660.456	47.42
660.785	47.43
661.115	47.51
661.444	47.51
661.773	47.52
662.102	47.58
662.431	47.57
662.76	47.59
663.089	47.58
663.418	47.55
663.747	47.48
664.076	47.43
664.404	47.33
664.733	47.27
665.062	47.33
665.39	47.24
665.719	47.21
666.048	47.32
666.376	47.23
666.705	47.12
667.033	47.1
667.362	47.08
667.69	46.94
668.018	46.87
668.347	46.89
668.675	46.93
669.003	47.12
669.331	47.24
669.659	47.2
669.987	47.24
670.315	47.27
670.643	47.32
670.971	47.44
671.299	47.47
671.627	47.44
671.955	47.52
672.283	47.6
672.61	47.72
672.938	47.73
673.266	47.61
673.593	47.76
673.921	47.69
674.249	47.7
674.576	47.81
674.904	47.97
675.231	47.99
675.558	47.9
675.886	47.7
676.213	47.59
676.54	47.69
676.867	47.65
677.195	47.79
677.522	47.76
677.849	47.7
678.176	47.87
678.503	47.9
678.83	47.81
679.157	47.73
679.484	47.76
679.81	47.77
680.137	48.03
680.464	47.97
680.791	48.08
681.117	48.12
681.444	48.08
681.771	47.96
682.097	48.03
682.424	48.13
682.75	48.15
683.077	48.15
683.403	48.11
683.729	48.14
684.056	47.98
684.382	48.04
684.708	47.96
685.034	47.81
685.36	47.73
685.686	47.85
686.012	47.95
686.339	48.04
686.664	47.9
686.99	47.78
687.316	47.73
687.642	47.77
687.968	47.67
688.294	47.66
688.619	47.72
688.945	47.65
689.271	47.65
689.596	47.75
689.922	47.83
690.247	47.69
690.573	47.8
690.898	47.95
691.224	48.06
691.549	48.16
691.874	48.15
692.2	48.3
692.525	48.19
692.85	48.18
693.175	48.07
693.5	48.15
693.825	48.26
694.15	48.2
694.475	48.16
694.8	48.26
695.125	48.27
695.45	48.26
695.775	48.35
696.099	48.3
696.424	48.22
696.749	48.12
697.073	48.22
697.398	48.07
697.723	47.89
698.047	47.84
698.372	47.75
698.696	47.73
699.02	47.68
699.345	47.61
699.669	47.71
699.993	47.71
700.318	47.73
700.642	47.59
700.966	47.69
701.29	47.66
701.614	47.71
701.938	47.64
702.262	47.56
702.586	47.53
702.91	47.53
703.234	47.51
703.557	47.56
703.881	47.57
704.205	47.65
704.529	47.88
704.852	47.73
705.176	47.76
705.499	47.89
705.823	47.88
706.146	47.93
706.47	47.59
706.793	47.59
707.117	47.51
707.44	47.62
707.763	47.66
708.086	47.74
708.409	47.72
708.733	47.77
709.056	47.75
709.379	47.63
709.702	47.65
710.025	47.57
710.348	47.69
710.671	47.58
710.993	47.72
711.316	47.62
711.639	47.65
711.962	47.64
712.284	47.7
712.607	47.64
712.93	47.68
713.252	47.91
713.575	47.92
713.897	48.05
714.22	48.11
714.542	47.97
714.864	47.87
715.187	47.79
715.509	47.94
715.831	47.94
716.153	47.95
716.475	47.91
716.798	48.06
717.12	47.97
717.442	48.03
717.764	47.85
718.085	47.76
718.407	47.65
718.729	47.76
719.051	47.49
719.373	47.63
719.695	47.58
720.016	47.43
720.338	47.41
720.659	47.25
720.981	47.04
721.302	47.23
721.624	47.54
721.945	47.53
722.267	47.57
722.588	47.6
722.909	47.77
723.231	47.79
723.552	47.69
723.873	47.83
724.194	47.85
724.515	47.84
724.836	47.85
725.157	48.19
725.478	48.16
725.799	48.19
726.12	48.1
726.441	48.15
726.762	48.09
727.083	48.1
727.403	48.11
727.724	48.09
728.045	47.99
728.365	47.78
728.686	47.81
729.006	47.67
729.327	47.79
729.647	47.84
729.967	47.94
730.288	48.08
730.608	47.75
730.928	47.74
731.249	47.76
731.569	47.86
731.889	47.77
732.209	47.75
732.529	47.82
732.849	47.72
733.169	47.91
733.489	48.13
733.809	48.2
734.129	48.08
734.448	48.06
734.768	48.01
735.088	48.09
735.408	48.01
735.727	47.93
736.047	47.79
736.366	47.64
736.686	47.56
737.005	47.54
737.325	47.81
737.644	47.85
737.963	47.76
738.283	47.63
738.602	47.67
738.921	47.59
739.24	47.41
739.56	47.55
739.879	47.44
740.198	47.37
740.517	47.23
740.836	47.43
741.155	47.43
741.473	47.44
741.792	47.17
742.111	47.25
742.43	47.61
742.748	47.55
743.067	47.47
743.386	47.59
743.704	47.58
744.023	47.71
744.341	47.63
744.66	47.58
744.978	47.63
745.297	47.46
745.615	47.63
745.933	48.01
746.252	48.09
746.57	47.72
746.888	47.72
747.206	47.59
747.524	47.7
747.842	47.83
748.16	47.68
748.478	47.7
748.796	47.76
749.114	47.46
749.432	47.45
749.749	47.19
750.067	46.83
750.385	46.72
750.703	46.54
751.02	46.46
751.338	46.79
751.655	46.9
751.973	47.14
752.29	46.93
752.608	47.05
752.925	47.08
753.242	47.13
753.56	47.18
753.877	47.56
754.194	47.46
754.511	47.66
754.828	47.75
755.145	47.83
755.462	47.55
755.779	47.56
756.096	47.9
756.413	48.21
756.73	48.27
757.047	48.6
757.364	48.72
757.68	48.95
757.997	48.82
758.314	48.78
758.63	48.41
758.947	48.43
759.264	48.49
759.58	48.47
759.896	48.58
760.213	48.67
760.529	48.47
760.846	48.37
761.162	48.27
761.478	48.4
761.794	48.26
762.11	48.41
762.426	48.42
762.743	48.48
763.059	48.42
763.375	48.32
763.69	48.01
764.006	47.8
764.322	47.77
764.638	47.75
764.954	47.69
765.27	47.93
765.585	47.89
765.901	47.87
766.216	47.72
766.532	47.98
766.848	47.72
767.163	47.66
767.478	47.77
767.794	47.82
768.109	47.72
768.424	47.87
768.74	47.64
769.055	47.63
769.37	47.26
769.685	47.22
770	47.6
770.315	47.82
770.63	48.03
770.945	47.97
771.26	47.92
771.575	47.91
771.89	47.96
772.205	48.3
772.52	47.77
772.834	48.23
773.149	47.91
773.464	48.19
773.778	48.36
774.093	48.09
774.407	47.98
774.722	48.25
775.036	48.28
775.351	48.64
775.665	48.97
775.979	49.26
776.293	49.28
776.608	49.14
776.922	49.72
777.236	49.54
777.55	49.34
777.864	49.63
778.178	50.01
778.492	50.25
778.806	50.15
779.12	50.38
779.434	50.21
779.747	50.52
780.061	50.25
780.375	50.15
780.689	50.42
781.002	50.67
781.316	50.69
781.629	51.01
781.943	50.85
782.256	50.51
782.57	50.26
782.883	50.38
783.196	50.12
783.51	49.69
783.823	49.49
784.136	49.88
784.449	49.48
784.762	49.54
785.075	48.64
785.388	48.11
785.701	48.12
786.014	47.92
786.327	47.86
786.64	48.17
786.953	48.58
787.266	48.11
787.578	47.82
787.891	47.76
788.204	47.41
788.516	47.8
788.829	47.9
789.141	47.72
789.454	47.84
789.766	48.15
790.079	47.68
790.391	47.92
790.703	48.03
791.016	48.13
791.328	47.93
791.64	48.11
791.952	48.55
792.264	48.37
792.576	48.11
792.888	48.03
793.2	48.19
793.512	47.71
793.824	48.38
794.136	48.13
794.448	48.16
794.76	48.27
795.071	47.75
795.383	47.6
795.695	47.36
796.006	46.57
796.318	46.69
796.629	47.05
796.941	47.46
797.252	46.93
797.564	47.39
797.875	47.3
798.186	47.64
798.497	47.6
798.809	47.85
799.12	48.12
799.431	47.8
799.742	47.8
800.053	48.73
800.364	48.35
800.675	48.84
800.986	48.19
801.297	48.41
801.608	48.34
801.918	48.21
802.229	48.97
802.54	50.01
802.851	49.78
803.161	49.38
803.472	49.25
803.782	49.78
804.093	49.17
804.403	49.15
804.714	49.15
805.024	48.96
805.334	49.05
805.645	48.84
805.955	49.12
806.265	48.86
806.575	47.7
806.885	47.76
807.195	47.43
807.505	47.36
807.815	46.92
808.125	46.93
808.435	47.11
808.745	46.57
809.055	46.43
809.365	46.26
809.674	46.83
809.984	46.9
810.294	47.3
810.603	47.64
810.913	47.63
811.222	47.29
811.532	46.91
811.841	46.84
812.151	47.29
812.46	46.67
812.769	46.45
813.079	46.76
813.388	47.03
813.697	46.58
814.006	46.53
814.315	46.71
814.624	46.98
814.933	47.45
815.242	47.89
815.551	47.8
815.86	48.62
816.169	47.7
816.478	47.38
816.786	46.9
817.095	47.29
817.404	47.76
817.712	47.71
818.021	48.19
818.33	48.21
818.638	48.3
818.947	48.71
819.255	48.58
819.563	48.64
819.872	48.59
820.18	48.72
820.488	48.68
820.796	48.83
821.105	48.87
821.413	48.64
821.721	48.64
822.029	48.5
822.337	48.3
822.645	48.48
822.953	48.51
823.26	48.5
823.568	48.46
823.876	48.14
824.184	48.26
824.491	48.27
824.799	48.23
825.107	48.07
825.414	48.02
825.722	48.13
826.029	48.02
826.337	47.88
826.644	48.14
826.951	48.06
827.259	48
827.566	48.01
827.873	48.08
828.18	47.93
828.488	48.05
828.795	47.99
829.102	47.97
829.409	48.04
829.716	47.94
830.023	47.76
830.329	48.09
830.636	48.18
830.943	48.11
831.25	48.1
831.557	48.26
831.863	48.07
832.17	47.87
832.476	47.99
832.783	48.01
833.089	47.34
833.396	47.94
833.702	48.35
834.009	48.21
834.315	48.12
834.621	48.13
834.928	48.15
835.234	48.37
835.54	48.59
835.846	48.5
836.152	48.22
836.458	48
836.764	47.77
837.07	47.34
837.376	47.58
837.682	48.19
837.988	48.47
838.293	48.59
838.599	48.69
838.905	48.09
839.211	48.35
839.516	48.82
839.822	49.11
840.127	48.18
840.433	48.27
840.738	48.24
841.044	48.86
841.349	49.03
841.654	48.14
841.959	47
842.265	46.39
842.57	46.54
842.875	46.84
843.18	47.13
843.485	46.99
843.79	46.36
844.095	45.02
844.4	44.31
844.705	43.65
845.01	43.2
845.315	44.65
845.619	43.46
845.924	43.24
846.229	42.74
846.533	42.61
846.838	41.05
847.142	40.5
847.447	39.26
847.751	38.48
848.056	39
848.36	39.1
848.664	39.65
848.969	41.4
849.273	41.23
849.577	41.01
849.881	41.43
850.185	42.19
850.489	41.77
850.794	41.19
851.097	41.43
851.401	40.99
851.705	40.73
852.009	42.52
852.313	41.94
852.617	41.21
852.92	41.72
853.224	44.82
853.528	44.36
853.831	44.45
854.135	44.1
854.438	44.03
854.742	45.5
855.045	45.34
855.349	43.18
855.652	44.07
855.955	45.67
856.259	45.53
856.562	45.26
856.865	47.45
857.168	48.92
857.471	49.9
857.774	50.95
858.077	49.68
858.38	50.04
858.683	48.29
858.986	46.07
859.289	45.71
859.592	44.1
859.894	47.99
860.197	47.73
860.5	47.04
860.802	47.7
861.105	46.82
861.407	48.61
861.71	47.74
862.012	48.19
862.315	47.53
862.617	48.56
862.919	49.77
863.222	49.67
863.524	46.62
863.826	50.88
864.128	51.96
864.43	53.16
864.732	52.43
865.034	54
865.336	53.55
865.638	55.94
865.94	54.32
866.242	47.89
866.544	48.63
866.846	48.67
867.147	50.4
867.449	50.16
867.751	46.91
868.052	47.72
868.354	46.2
868.655	47.25
868.957	46.39
869.258	44.03
869.56	41.96
869.861	44.93
870.162	41.34
870.463	40.04
870.765	40.32
871.066	41.19
871.367	42.88
871.668	44.7
871.969	42.22
872.27	43.86
872.571	44.6
872.872	46.25
873.173	46.91
873.473	43.56
873.774	45.02
874.075	47.2
874.376	46.97
874.676	49.36
874.977	47.18
875.277	47.53
875.578	47.79
875.878	48.25
876.179	47.42
876.479	47.7
876.78	48.15
877.08	48.42
877.38	46.84
877.68	44.29
877.981	45.29
878.281	45.77
878.581	44.75
