Data from BU58137_Reflection_00007.txt Node
Date: Mon Nov 18 16:39:44 EST 2019
User: vgr7
Spectrometer: USB2G7710
Scans to average: 3
Trigger mode: 4
Integration Time (sec): 2.000000E-2
Electric dark correction enabled: true
Boxcar width: 10
XAxis mode: Wavelengths
Number of Pixels in Spectrum: 2048
>>>>>Begin Spectral Data<<<<<
177.721	-73.68
178.105	-60.41
178.488	41.33
178.871	188.41
179.254	125.71
179.636	-134.69
180.019	65.29
180.402	81.82
180.785	-585.92
181.168	158.28
181.55	-81.82
181.933	87.1
182.316	51.09
182.698	104.94
183.081	79.27
183.463	15.1
183.846	58.56
184.228	52.99
184.611	-1
184.993	-30.84
185.376	-26.93
185.758	7.6
186.14	30.78
186.522	97.37
186.904	698.8
187.287	216.86
187.669	-262.93
188.051	235.31
188.433	-133.25
188.815	103.7
189.197	34
189.579	30.54
189.961	-11.61
190.342	-44.73
190.724	30.36
191.106	73.46
191.488	28.23
191.869	56.48
192.251	77.62
192.633	39.74
193.014	34.77
193.396	30.01
193.777	34.38
194.159	19.66
194.54	19.57
194.922	19.97
195.303	12.81
195.684	-4.17
196.065	9.57
196.447	1.6
196.828	-13.55
197.209	-12.12
197.59	-13.98
197.971	-9.52
198.352	-7.82
198.733	-12.76
199.114	-8.5
199.495	-11.27
199.876	-5.21
200.257	-4.65
200.638	6.08
201.018	-1.45
201.399	-7.05
201.78	-3.93
202.16	2.49
202.541	-10.06
202.922	0.86
203.302	-7.08
203.683	6.71
204.063	-9.21
204.444	-12.13
204.824	-12.56
205.204	-8.92
205.585	-9.29
205.965	-10.02
206.345	-13.96
206.725	-2.75
207.106	-30.51
207.486	-35.73
207.866	-20.01
208.246	-36.3
208.626	-47.3
209.006	-29.68
209.386	-46.65
209.766	-46.95
210.145	-38.39
210.525	-22.33
210.905	-23.99
211.285	-17.14
211.664	-23.86
212.044	-13.99
212.424	1.71
212.803	1.31
213.183	1.68
213.562	-3.52
213.942	-5.05
214.321	-4.52
214.701	-7.57
215.08	-8.15
215.459	-8.82
215.838	-18.65
216.218	-17.47
216.597	-7.32
216.976	-7.44
217.355	3.82
217.734	-1.9
218.113	-6.68
218.492	-8.46
218.871	-15.02
219.25	-20.12
219.629	-42.66
220.008	-20.02
220.387	-47.74
220.766	-40.01
221.144	-36.99
221.523	-31.77
221.902	-20.1
222.28	-19.41
222.659	-27.56
223.037	-11.08
223.416	-5.46
223.794	-23.08
224.173	-1.6
224.551	1.47
224.929	5.73
225.308	7.29
225.686	10.26
226.064	9.71
226.442	5.69
226.821	7.55
227.199	7.02
227.577	9.69
227.955	9.49
228.333	9.02
228.711	10.45
229.089	13.51
229.467	8.92
229.845	7.3
230.222	5.85
230.6	8.17
230.978	8.33
231.356	9.34
231.733	10.17
232.111	7.76
232.488	8.7
232.866	8.15
233.243	7.35
233.621	6.33
233.998	5.96
234.376	5.44
234.753	6.15
235.13	5.47
235.508	6.01
235.885	4.1
236.262	2.93
236.639	2.63
237.016	1.62
237.393	4.67
237.77	5
238.147	4.43
238.524	3.36
238.901	3.86
239.278	3.89
239.655	4.74
240.032	5.3
240.409	4.81
240.785	4.61
241.162	4.7
241.539	4.63
241.915	4.67
242.292	4.17
242.668	4.47
243.045	4.73
243.421	4.46
243.798	4.5
244.174	4.8
244.551	4.7
244.927	4.51
245.303	4.41
245.679	4.66
246.056	4.74
246.432	4.85
246.808	4.75
247.184	4.52
247.56	4.25
247.936	4.04
248.312	3.94
248.688	4.09
249.064	3.91
249.44	3.89
249.815	3.81
250.191	4.12
250.567	3.95
250.943	3.64
251.318	3.69
251.694	3.62
252.069	3.35
252.445	3.4
252.82	3.42
253.196	3.35
253.571	2.87
253.947	2.52
254.322	2.5
254.697	2.38
255.073	2.23
255.448	2.21
255.823	2.33
256.198	2.31
256.573	2.07
256.948	2.35
257.323	2.48
257.698	2.55
258.073	2.59
258.448	2.61
258.823	2.86
259.198	2.55
259.573	2.61
259.948	2.69
260.322	2.57
260.697	2.59
261.072	2.59
261.446	2.7
261.821	2.82
262.195	2.87
262.57	2.9
262.944	2.87
263.319	2.96
263.693	2.88
264.067	2.95
264.442	3.05
264.816	3.03
265.19	2.92
265.564	2.88
265.938	2.83
266.313	2.83
266.687	2.68
267.061	2.97
267.435	3.1
267.809	3.13
268.183	3.24
268.556	3.3
268.93	3.16
269.304	3.06
269.678	3.31
270.051	3.24
270.425	3.33
270.799	3.39
271.172	3.39
271.546	3.39
271.919	3.37
272.293	3.34
272.666	3.4
273.04	3.59
273.413	3.59
273.787	3.7
274.16	3.57
274.533	3.69
274.906	3.65
275.279	3.57
275.653	3.47
276.026	3.37
276.399	3.17
276.772	3.35
277.145	3.4
277.518	3.35
277.891	3.45
278.263	3.2
278.636	3.31
279.009	3.24
279.382	3.19
279.755	3.15
280.127	3.18
280.5	3.27
280.872	3.2
281.245	3.26
281.617	3.27
281.99	3.36
282.362	3.36
282.735	3.3
283.107	3.32
283.479	3.57
283.852	3.67
284.224	3.83
284.596	3.71
284.968	3.66
285.34	3.64
285.713	3.43
286.085	3.52
286.457	3.68
286.829	3.68
287.201	3.78
287.572	3.75
287.944	3.84
288.316	3.62
288.688	3.66
289.06	3.65
289.431	3.54
289.803	3.59
290.175	3.61
290.546	3.85
290.918	3.87
291.289	3.79
291.661	3.84
292.032	3.87
292.403	4
292.775	4.23
293.146	4.1
293.517	4.35
293.889	4.47
294.26	4.43
294.631	4.5
295.002	4.44
295.373	4.62
295.744	4.71
296.115	4.83
296.486	4.8
296.857	4.91
297.228	5.08
297.599	5.12
297.97	5.09
298.34	5.09
298.711	5.26
299.082	5.34
299.452	5.37
299.823	5.4
300.194	5.44
300.564	5.39
300.935	5.74
301.305	5.72
301.676	5.71
302.046	5.7
302.416	5.99
302.787	6.17
303.157	6.15
303.527	6
303.897	6.22
304.267	6.46
304.637	6.54
305.008	6.58
305.378	6.72
305.748	6.9
306.117	6.82
306.487	6.88
306.857	7.02
307.227	7.2
307.597	7.31
307.967	7.4
308.336	7.41
308.706	7.28
309.076	7.41
309.445	7.52
309.815	7.63
310.184	7.44
310.554	7.56
310.923	7.63
311.293	7.74
311.662	7.76
312.031	7.78
312.401	7.82
312.77	8.12
313.139	8.24
313.508	8.42
313.877	8.62
314.246	8.64
314.616	8.65
314.985	8.65
315.353	8.83
315.722	8.97
316.091	9.22
316.46	9.31
316.829	9.46
317.198	9.56
317.567	9.79
317.935	10.06
318.304	10.27
318.672	10.38
319.041	10.67
319.41	10.65
319.778	10.7
320.147	10.91
320.515	10.74
320.883	10.75
321.252	10.76
321.62	10.85
321.988	11.12
322.357	11.19
322.725	11.34
323.093	11.48
323.461	11.48
323.829	11.62
324.197	11.87
324.565	11.87
324.933	11.89
325.301	11.79
325.669	11.7
326.037	11.69
326.405	11.94
326.772	12.03
327.14	12.22
327.508	12.37
327.875	12.39
328.243	12.36
328.61	12.5
328.978	12.63
329.346	12.76
329.713	12.74
330.08	12.87
330.448	12.97
330.815	12.91
331.182	13.05
331.55	13.11
331.917	13.24
332.284	13.3
332.651	13.45
333.018	13.63
333.385	13.81
333.752	13.87
334.119	13.76
334.486	13.7
334.853	13.72
335.22	13.7
335.587	13.89
335.954	14.06
336.32	14.03
336.687	14.06
337.054	14.04
337.42	14.06
337.787	14.05
338.153	13.96
338.52	14.09
338.886	14.09
339.253	14.03
339.619	13.94
339.986	13.98
340.352	14
340.718	14.02
341.084	14.07
341.451	14.2
341.817	14.4
342.183	14.34
342.549	14.28
342.915	14.36
343.281	14.29
343.647	14.29
344.013	14.32
344.379	14.23
344.745	14.21
345.11	14.19
345.476	14.25
345.842	14.29
346.208	14.33
346.573	14.47
346.939	14.56
347.304	14.49
347.67	14.44
348.035	14.49
348.401	14.56
348.766	14.52
349.132	14.4
349.497	14.22
349.862	14.31
350.228	14.41
350.593	14.35
350.958	14.41
351.323	14.49
351.688	14.53
352.053	14.81
352.418	14.83
352.783	14.82
353.148	14.79
353.513	14.8
353.878	14.69
354.243	14.59
354.608	14.61
354.972	14.67
355.337	14.76
355.702	14.75
356.066	14.72
356.431	14.73
356.795	14.73
357.16	14.83
357.524	14.72
357.889	14.59
358.253	14.65
358.618	14.56
358.982	14.47
359.346	14.34
359.71	14.21
360.075	14.22
360.439	14.19
360.803	14.17
361.167	14.11
361.531	14.08
361.895	13.99
362.259	13.87
362.623	13.88
362.987	13.82
363.351	13.75
363.714	13.69
364.078	13.61
364.442	13.59
364.806	13.43
365.169	13.45
365.533	13.45
365.896	13.27
366.26	13.22
366.623	13.18
366.987	13.16
367.35	13.06
367.714	12.98
368.077	12.9
368.44	12.78
368.803	12.66
369.167	12.55
369.53	12.51
369.893	12.52
370.256	12.43
370.619	12.31
370.982	12.13
371.345	11.95
371.708	11.91
372.071	11.74
372.434	11.67
372.797	11.58
373.159	11.38
373.522	11.38
373.885	11.27
374.247	11.13
374.61	11.02
374.973	10.89
375.335	10.73
375.698	10.64
376.06	10.56
376.423	10.54
376.785	10.5
377.147	10.43
377.51	10.25
377.872	10.13
378.234	10.08
378.596	10.09
378.958	10.03
379.321	9.92
379.683	9.9
380.045	9.82
380.407	9.71
380.769	9.68
381.13	9.56
381.492	9.44
381.854	9.35
382.216	9.29
382.578	9.18
382.939	9.12
383.301	9.02
383.663	8.9
384.024	8.81
384.386	8.74
384.747	8.7
385.109	8.71
385.47	8.64
385.832	8.51
386.193	8.44
386.554	8.36
386.916	8.29
387.277	8.18
387.638	8.16
387.999	8.05
388.36	8.02
388.721	7.95
389.082	7.92
389.443	7.85
389.804	7.79
390.165	7.74
390.526	7.68
390.887	7.65
391.248	7.58
391.609	7.49
391.969	7.42
392.33	7.29
392.691	7.22
393.051	7.13
393.412	7.09
393.772	6.99
394.133	6.95
394.493	6.93
394.854	6.84
395.214	6.74
395.574	6.73
395.935	6.66
396.295	6.63
396.655	6.56
397.015	6.51
397.376	6.44
397.736	6.38
398.096	6.34
398.456	6.24
398.816	6.25
399.176	6.23
399.535	6.18
399.895	6.16
400.255	6.1
400.615	6.07
400.975	6.04
401.334	5.99
401.694	5.97
402.054	5.88
402.413	5.88
402.773	5.81
403.132	5.77
403.492	5.71
403.851	5.63
404.211	5.59
404.57	5.54
404.929	5.51
405.288	5.5
405.648	5.45
406.007	5.39
406.366	5.31
406.725	5.31
407.084	5.28
407.443	5.23
407.802	5.21
408.161	5.16
408.52	5.1
408.879	5.06
409.238	5.05
409.596	5.03
409.955	4.99
410.314	4.99
410.673	4.95
411.031	4.93
411.39	4.92
411.748	4.89
412.107	4.89
412.465	4.85
412.824	4.83
413.182	4.78
413.54	4.82
413.899	4.83
414.257	4.76
414.615	4.7
414.974	4.66
415.332	4.63
415.69	4.59
416.048	4.56
416.406	4.54
416.764	4.48
417.122	4.47
417.48	4.41
417.838	4.39
418.195	4.36
418.553	4.34
418.911	4.32
419.269	4.3
419.626	4.28
419.984	4.25
420.342	4.21
420.699	4.2
421.057	4.18
421.414	4.13
421.772	4.11
422.129	4.09
422.486	4.08
422.844	4.06
423.201	4.05
423.558	4.04
423.915	4.02
424.273	4
424.63	3.98
424.987	3.99
425.344	3.98
425.701	3.97
426.058	3.95
426.415	3.94
426.772	3.93
427.128	3.9
427.485	3.87
427.842	3.85
428.199	3.85
428.555	3.81
428.912	3.82
429.269	3.83
429.625	3.82
429.982	3.81
430.338	3.8
430.695	3.78
431.051	3.77
431.407	3.77
431.764	3.78
432.12	3.78
432.476	3.78
432.832	3.76
433.189	3.76
433.545	3.76
433.901	3.75
434.257	3.75
434.613	3.76
434.969	3.76
435.325	3.77
435.681	3.76
436.036	3.76
436.392	3.77
436.748	3.75
437.104	3.73
437.459	3.75
437.815	3.74
438.171	3.76
438.526	3.76
438.882	3.75
439.237	3.74
439.593	3.73
439.948	3.71
440.304	3.71
440.659	3.7
441.014	3.7
441.369	3.68
441.725	3.67
442.08	3.65
442.435	3.65
442.79	3.63
443.145	3.61
443.5	3.61
443.855	3.58
444.21	3.57
444.565	3.57
444.92	3.54
445.275	3.52
445.629	3.51
445.984	3.49
446.339	3.48
446.693	3.47
447.048	3.46
447.403	3.46
447.757	3.44
448.112	3.42
448.466	3.41
448.82	3.42
449.175	3.41
449.529	3.4
449.883	3.39
450.238	3.38
450.592	3.39
450.946	3.38
451.3	3.38
451.654	3.38
452.008	3.4
452.362	3.39
452.716	3.38
453.07	3.38
453.424	3.38
453.778	3.38
454.132	3.38
454.486	3.37
454.839	3.35
455.193	3.36
455.547	3.37
455.9	3.4
456.254	3.38
456.607	3.37
456.961	3.37
457.314	3.36
457.668	3.39
458.021	3.38
458.375	3.38
458.728	3.38
459.081	3.38
459.434	3.37
459.787	3.38
460.141	3.39
460.494	3.38
460.847	3.39
461.2	3.4
461.553	3.4
461.906	3.41
462.259	3.42
462.611	3.43
462.964	3.45
463.317	3.43
463.67	3.44
464.022	3.47
464.375	3.48
464.728	3.51
465.08	3.52
465.433	3.53
465.785	3.56
466.138	3.55
466.49	3.56
466.843	3.57
467.195	3.59
467.547	3.59
467.899	3.61
468.252	3.63
468.604	3.64
468.956	3.65
469.308	3.68
469.66	3.69
470.012	3.71
470.364	3.7
470.716	3.73
471.068	3.74
471.42	3.75
471.772	3.76
472.123	3.78
472.475	3.78
472.827	3.81
473.178	3.79
473.53	3.81
473.882	3.84
474.233	3.84
474.585	3.82
474.936	3.84
475.288	3.83
475.639	3.82
475.99	3.8
476.342	3.81
476.693	3.81
477.044	3.82
477.395	3.81
477.746	3.8
478.097	3.77
478.448	3.75
478.8	3.74
479.15	3.69
479.501	3.68
479.852	3.67
480.203	3.65
480.554	3.66
480.905	3.66
481.255	3.64
481.606	3.64
481.957	3.65
482.307	3.65
482.658	3.65
483.009	3.65
483.359	3.65
483.709	3.65
484.06	3.64
484.41	3.64
484.761	3.65
485.111	3.65
485.461	3.66
485.811	3.66
486.162	3.67
486.512	3.69
486.862	3.69
487.212	3.69
487.562	3.7
487.912	3.69
488.262	3.69
488.612	3.7
488.961	3.71
489.311	3.72
489.661	3.71
490.011	3.72
490.36	3.72
490.71	3.73
491.06	3.74
491.409	3.76
491.759	3.77
492.108	3.77
492.458	3.76
492.807	3.77
493.157	3.79
493.506	3.8
493.855	3.81
494.204	3.83
494.554	3.86
494.903	3.88
495.252	3.92
495.601	3.96
495.95	3.99
496.299	4.01
496.648	4.04
496.997	4.1
497.346	4.15
497.695	4.2
498.043	4.24
498.392	4.27
498.741	4.3
499.09	4.33
499.438	4.39
499.787	4.46
500.135	4.52
500.484	4.59
500.832	4.66
501.181	4.73
501.529	4.76
501.878	4.82
502.226	4.9
502.574	4.96
502.923	5.02
503.271	5.09
503.619	5.17
503.967	5.25
504.315	5.31
504.663	5.36
505.011	5.45
505.359	5.53
505.707	5.65
506.055	5.74
506.403	5.84
506.751	5.94
507.098	6.04
507.446	6.15
507.794	6.23
508.141	6.3
508.489	6.38
508.837	6.49
509.184	6.62
509.531	6.71
509.879	6.83
510.226	6.95
510.574	7.07
510.921	7.17
511.268	7.27
511.616	7.38
511.963	7.5
512.31	7.64
512.657	7.75
513.004	7.86
513.351	7.98
513.698	8.11
514.045	8.22
514.392	8.33
514.739	8.45
515.086	8.59
515.432	8.73
515.779	8.87
516.126	9.01
516.473	9.13
516.819	9.24
517.166	9.37
517.512	9.49
517.859	9.59
518.205	9.72
518.552	9.86
518.898	9.98
519.245	10.09
519.591	10.18
519.937	10.3
520.283	10.42
520.629	10.56
520.976	10.7
521.322	10.86
521.668	11.01
522.014	11.16
522.36	11.31
522.706	11.49
523.052	11.68
523.398	11.88
523.743	12.07
524.089	12.28
524.435	12.47
524.781	12.67
525.126	12.86
525.472	13.03
525.817	13.19
526.163	13.32
526.509	13.47
526.854	13.61
527.199	13.75
527.545	13.88
527.89	14
528.235	14.13
528.581	14.27
528.926	14.42
529.271	14.57
529.616	14.71
529.961	14.86
530.306	15.01
530.651	15.18
530.996	15.36
531.341	15.54
531.686	15.7
532.031	15.87
532.376	16.07
532.721	16.27
533.065	16.46
533.41	16.69
533.755	16.9
534.099	17.14
534.444	17.36
534.788	17.57
535.133	17.78
535.477	18.01
535.822	18.24
536.166	18.47
536.51	18.73
536.855	19.01
537.199	19.29
537.543	19.59
537.887	19.86
538.231	20.11
538.576	20.41
538.92	20.71
539.264	20.99
539.608	21.26
539.951	21.48
540.295	21.74
540.639	21.99
540.983	22.2
541.327	22.43
541.671	22.65
542.014	22.9
542.358	23.15
542.701	23.36
543.045	23.59
543.389	23.83
543.732	24.06
544.075	24.3
544.419	24.56
544.762	24.77
545.105	25.04
545.449	25.36
545.792	25.61
546.135	25.89
546.478	26.18
546.821	26.49
547.165	26.82
547.508	27.08
547.851	27.37
548.194	27.67
548.536	27.94
548.879	28.25
549.222	28.53
549.565	28.81
549.908	29.16
550.25	29.48
550.593	29.79
550.936	30.02
551.278	30.34
551.621	30.61
551.963	30.91
552.306	31.19
552.648	31.42
552.991	31.71
553.333	31.98
553.675	32.24
554.017	32.44
554.36	32.67
554.702	32.98
555.044	33.23
555.386	33.5
555.728	33.78
556.07	34.03
556.412	34.28
556.754	34.5
557.096	34.67
557.438	34.84
557.78	35.06
558.121	35.41
558.463	35.63
558.805	35.83
559.147	36.05
559.488	36.24
559.83	36.4
560.171	36.62
560.513	36.82
560.854	36.95
561.196	37.15
561.537	37.32
561.878	37.48
562.22	37.7
562.561	37.86
562.902	38
563.243	38.16
563.584	38.31
563.925	38.48
564.266	38.69
564.607	38.88
564.948	39.07
565.289	39.17
565.63	39.31
565.971	39.46
566.312	39.56
566.653	39.69
566.993	39.88
567.334	40
567.675	40.15
568.015	40.31
568.356	40.43
568.696	40.64
569.037	40.73
569.377	40.82
569.718	40.96
570.058	41.09
570.398	41.2
570.739	41.31
571.079	41.41
571.419	41.53
571.759	41.68
572.099	41.76
572.439	41.87
572.779	41.96
573.119	42.05
573.459	42.2
573.799	42.29
574.139	42.35
574.479	42.48
574.819	42.53
575.158	42.64
575.498	42.77
575.838	42.78
576.177	42.92
576.517	43.02
576.856	43.16
577.196	43.26
577.535	43.34
577.875	43.43
578.214	43.53
578.553	43.62
578.893	43.65
579.232	43.68
579.571	43.79
579.91	43.88
580.25	43.91
580.589	44.06
580.928	44.18
581.267	44.25
581.606	44.33
581.945	44.37
582.283	44.44
582.622	44.51
582.961	44.63
583.3	44.74
583.639	44.77
583.977	44.82
584.316	44.83
584.654	44.89
584.993	45.04
585.332	45.19
585.67	45.26
586.008	45.34
586.347	45.39
586.685	45.45
587.024	45.43
587.362	45.57
587.7	45.52
588.038	45.6
588.376	45.75
588.715	45.76
589.053	45.88
589.391	46.04
589.729	46.11
590.067	46.16
590.404	46.14
590.742	46.26
591.08	46.27
591.418	46.38
591.756	46.49
592.093	46.52
592.431	46.47
592.769	46.45
593.106	46.48
593.444	46.51
593.781	46.51
594.119	46.58
594.456	46.57
594.793	46.63
595.131	46.61
595.468	46.59
595.805	46.61
596.143	46.64
596.48	46.58
596.817	46.59
597.154	46.63
597.491	46.68
597.828	46.6
598.165	46.63
598.502	46.67
598.839	46.68
599.176	46.66
599.512	46.71
599.849	46.74
600.186	46.8
600.523	46.9
600.859	46.93
601.196	47
601.532	46.99
601.869	46.97
602.205	47.01
602.542	47.02
602.878	47.08
603.215	47.04
603.551	47.15
603.887	47.17
604.223	47.13
604.56	47.11
604.896	47.2
605.232	47.27
605.568	47.22
605.904	47.24
606.24	47.28
606.576	47.36
606.912	47.45
607.248	47.46
607.583	47.49
607.919	47.55
608.255	47.57
608.591	47.65
608.926	47.72
609.262	47.79
609.597	47.8
609.933	47.83
610.268	47.97
610.604	47.97
610.939	47.98
611.275	48.07
611.61	48.11
611.945	48.07
612.281	48.05
612.616	48.13
612.951	48.11
613.286	48.12
613.621	48.12
613.956	48.07
614.291	48.14
614.626	48.09
614.961	48.07
615.296	48.03
615.631	48.04
615.966	47.98
616.3	47.98
616.635	48.05
616.97	48.04
617.304	47.93
617.639	47.91
617.973	47.93
618.308	47.94
618.642	48.01
618.977	48.1
619.311	48.06
619.646	48.1
619.98	48.12
620.314	48.11
620.648	48.1
620.983	48.2
621.317	48.2
621.651	48.19
621.985	48.21
622.319	48.3
622.653	48.3
622.987	48.41
623.321	48.44
623.655	48.42
623.988	48.48
624.322	48.52
624.656	48.51
624.99	48.52
625.323	48.51
625.657	48.5
625.99	48.51
626.324	48.59
626.657	48.6
626.991	48.65
627.324	48.74
627.658	48.74
627.991	48.8
628.324	48.73
628.657	48.85
628.991	48.87
629.324	48.82
629.657	48.9
629.99	48.89
630.323	48.91
630.656	48.9
630.989	48.96
631.322	48.95
631.655	48.97
631.987	48.98
632.32	48.97
632.653	48.95
632.986	48.98
633.318	48.97
633.651	48.95
633.984	48.94
634.316	48.85
634.649	48.88
634.981	48.81
635.313	48.93
635.646	48.85
635.978	48.85
636.31	48.96
636.643	48.98
636.975	49
637.307	49.06
637.639	49.1
637.971	49.02
638.303	49.03
638.635	48.99
638.967	48.97
639.299	48.97
639.631	48.98
639.963	48.93
640.295	48.89
640.626	48.86
640.958	48.9
641.29	48.98
641.621	48.89
641.953	48.86
642.285	48.81
642.616	48.96
642.948	48.92
643.279	48.8
643.61	48.65
643.942	48.61
644.273	48.52
644.604	48.43
644.936	48.37
645.267	48.41
645.598	48.44
645.929	48.57
646.26	48.62
646.591	48.71
646.922	48.6
647.253	48.62
647.584	48.71
647.915	48.62
648.245	48.54
648.576	48.52
648.907	48.48
649.238	48.42
649.568	48.24
649.899	48.24
650.229	48.36
650.56	48.41
650.89	48.43
651.221	48.44
651.551	48.51
651.882	48.53
652.212	48.59
652.542	48.55
652.872	48.48
653.203	48.41
653.533	48.38
653.863	48.48
654.193	48.51
654.523	48.47
654.853	48.52
655.183	48.55
655.513	48.53
655.843	48.49
656.172	48.56
656.502	48.67
656.832	48.62
657.162	48.61
657.491	48.59
657.821	48.62
658.15	48.64
658.48	48.63
658.809	48.71
659.139	48.71
659.468	48.78
659.798	48.74
660.127	48.82
660.456	48.83
660.785	48.87
661.115	48.86
661.444	48.9
661.773	49.04
662.102	49.1
662.431	49.08
662.76	49.2
663.089	49.14
663.418	49.12
663.747	49.27
664.076	49.27
664.404	49.27
664.733	49.26
665.062	49.23
665.39	49.39
665.719	49.41
666.048	49.41
666.376	49.42
666.705	49.43
667.033	49.43
667.362	49.35
667.69	49.35
668.018	49.46
668.347	49.3
668.675	49.17
669.003	49.2
669.331	49.27
669.659	49.33
669.987	49.38
670.315	49.41
670.643	49.35
670.971	49.42
671.299	49.51
671.627	49.54
671.955	49.51
672.283	49.35
672.61	49.26
672.938	49.23
673.266	49.26
673.593	49.4
673.921	49.32
674.249	49.35
674.576	49.4
674.904	49.33
675.231	49.43
675.558	49.32
675.886	49.28
676.213	49.19
676.54	49.03
676.867	49.06
677.195	48.93
677.522	48.96
677.849	48.84
678.176	48.81
678.503	48.76
678.83	48.68
679.157	48.6
679.484	48.56
679.81	48.57
680.137	48.44
680.464	48.38
680.791	48.38
681.117	48.44
681.444	48.32
681.771	48.29
682.097	48.26
682.424	48.3
682.75	48.21
683.077	48.42
683.403	48.47
683.729	48.43
684.056	48.49
684.382	48.45
684.708	48.47
685.034	48.35
685.36	48.37
685.686	48.52
686.012	48.59
686.339	48.64
686.664	48.61
686.99	48.8
687.316	48.79
687.642	48.88
687.968	48.77
688.294	48.78
688.619	48.65
688.945	48.68
689.271	48.68
689.596	48.66
689.922	48.62
690.247	48.57
690.573	48.64
690.898	48.68
691.224	48.73
691.549	48.75
691.874	48.96
692.2	49.02
692.525	48.93
692.85	48.92
693.175	48.88
693.5	48.87
693.825	48.73
694.15	48.75
694.475	48.64
694.8	48.59
695.125	48.56
695.45	48.59
695.775	48.67
696.099	48.74
696.424	48.92
696.749	48.87
697.073	48.83
697.398	48.79
697.723	48.81
698.047	48.85
698.372	48.85
698.696	48.82
699.02	48.83
699.345	48.84
699.669	48.87
699.993	48.93
700.318	48.81
700.642	48.95
700.966	48.9
701.29	48.86
701.614	48.9
701.938	49.03
702.262	49.25
702.586	49.22
702.91	49.18
703.234	49.05
703.557	49.09
703.881	49.09
704.205	49.08
704.529	48.94
704.852	48.74
705.176	48.78
705.499	48.8
705.823	48.75
706.146	48.64
706.47	48.73
706.793	48.63
707.117	48.86
707.44	48.64
707.763	48.66
708.086	48.79
708.409	48.77
708.733	48.62
709.056	48.52
709.379	48.56
709.702	48.62
710.025	48.55
710.348	48.5
710.671	48.59
710.993	48.65
711.316	48.72
711.639	48.82
711.962	48.73
712.284	48.82
712.607	48.83
712.93	48.97
713.252	49.14
713.575	49.28
713.897	49.2
714.22	49.17
714.542	49.25
714.864	49.12
715.187	49.24
715.509	49.19
715.831	49.28
716.153	49.18
716.475	49.27
716.798	49.3
717.12	49.27
717.442	49.14
717.764	49.18
718.085	49.35
718.407	49.49
718.729	49.59
719.051	49.47
719.373	49.37
719.695	49.35
720.016	49.14
720.338	49.08
720.659	49.18
720.981	49.26
721.302	49.29
721.624	49.32
721.945	49.4
722.267	49.56
722.588	49.38
722.909	49.44
723.231	49.39
723.552	49.58
723.873	49.79
724.194	49.84
724.515	49.78
724.836	49.65
725.157	49.47
725.478	49.45
725.799	49.35
726.12	49.28
726.441	49.21
726.762	49.13
727.083	49
727.403	48.92
727.724	49.03
728.045	48.8
728.365	48.81
728.686	48.71
729.006	48.75
729.327	48.73
729.647	48.76
729.967	48.66
730.288	48.54
730.608	48.23
730.928	48.35
731.249	48.21
731.569	48.07
731.889	48.14
732.209	48.03
732.529	48.12
732.849	48.07
733.169	47.97
733.489	47.98
733.809	48.2
734.129	48.22
734.448	47.99
734.768	48.04
735.088	47.99
735.408	48.03
735.727	48.02
736.047	48.02
736.366	48.02
736.686	48.04
737.005	48.05
737.325	48.2
737.644	48.17
737.963	48.17
738.283	48
738.602	48
738.921	48.15
739.24	48.12
739.56	48.16
739.879	48.26
740.198	48.45
740.517	48.32
740.836	47.9
741.155	47.92
741.473	48.11
741.792	48.18
742.111	47.9
742.43	47.89
742.748	47.69
743.067	47.73
743.386	47.63
743.704	47.47
744.023	47.18
744.341	47.05
744.66	46.99
744.978	47.16
745.297	46.94
745.615	46.66
745.933	46.35
746.252	46.56
746.57	46.44
746.888	46.17
747.206	46.2
747.524	46.76
747.842	46.83
748.16	46.7
748.478	46.79
748.796	46.83
749.114	46.48
749.432	46.48
749.749	46.38
750.067	46.22
750.385	46.26
750.703	46.72
751.02	46.73
751.338	47.02
751.655	47.12
751.973	47.23
752.29	47.31
752.608	47.79
752.925	48
753.242	48.19
753.56	48.23
753.877	48.19
754.194	48.04
754.511	48.14
754.828	48
755.145	47.74
755.462	48.06
755.779	48.57
756.096	48.89
756.413	49.13
756.73	49.41
757.047	49.38
757.364	49.22
757.68	49.34
757.997	49.11
758.314	49.03
758.63	49.11
758.947	49.03
759.264	48.75
759.58	48.46
759.896	48.67
760.213	48.52
760.529	48.54
760.846	48.46
761.162	48.47
761.478	48.66
761.794	48.83
762.11	48.78
762.426	48.65
762.743	49.06
763.059	48.85
763.375	48.85
763.69	48.91
764.006	48.94
764.322	48.89
764.638	48.96
764.954	49.07
765.27	48.98
765.585	49.12
765.901	49.25
766.216	49.28
766.532	49.2
766.848	49.38
767.163	49.23
767.478	49.29
767.794	49.28
768.109	49.22
768.424	49.4
768.74	49.29
769.055	49.42
769.37	48.93
769.685	48.99
770	48.98
770.315	48.85
770.63	48.7
770.945	48.51
771.26	48.21
771.575	48.3
771.89	48.43
772.205	48.6
772.52	48.72
772.834	48.75
773.149	48.48
773.464	48.35
773.778	48.41
774.093	48.33
774.407	48.45
774.722	48.45
775.036	48.16
775.351	48.49
775.665	48.08
775.979	47.6
776.293	47.4
776.608	47.62
776.922	47.99
777.236	48.11
777.55	48.04
777.864	48.68
778.178	48.51
778.492	48.49
778.806	48.44
779.12	48.24
779.434	48.08
779.747	48.47
780.061	48.34
780.375	49.1
780.689	48.89
781.002	49.05
781.316	49.38
781.629	49.4
781.943	49.23
782.256	49.49
782.57	49.86
782.883	50.24
783.196	49.9
783.51	49.68
783.823	49.57
784.136	50
784.449	49.74
784.762	49.46
785.075	49.52
785.388	49.33
785.701	48.85
786.014	48.92
786.327	48.99
786.64	49.18
786.953	48.38
787.266	48.56
787.578	48.57
787.891	48.03
788.204	48.47
788.516	48.69
788.829	49.12
789.141	49.11
789.454	49.08
789.766	48.73
790.079	48.92
790.391	48.9
790.703	48.94
791.016	48.84
791.328	49.24
791.64	49.3
791.952	49.51
792.264	49.62
792.576	49.81
792.888	49.48
793.2	49.21
793.512	49.88
793.824	50.4
794.136	49.76
794.448	49.87
794.76	49.3
795.071	49.05
795.383	48.58
795.695	48.02
796.006	47.83
796.318	48.4
796.629	48.7
796.941	48.83
797.252	48.84
797.564	49
797.875	48.93
798.186	48.86
798.497	48.14
798.809	48.51
799.12	47.8
799.431	47.82
799.742	48.7
800.053	48.39
800.364	48.47
800.675	48.49
800.986	48.79
801.297	48.9
801.608	48.83
801.918	48.91
802.229	49.67
802.54	50.08
802.851	49.78
803.161	50.06
803.472	50.21
803.782	50.32
804.093	50.22
804.403	50.16
804.714	50.45
805.024	50.7
805.334	50.76
805.645	51.21
805.955	51.13
806.265	50.99
806.575	50.67
806.885	50.48
807.195	50.87
807.505	50.82
807.815	50.68
808.125	51.15
808.435	51.06
808.745	51.46
809.055	51.21
809.365	51.52
809.674	50.96
809.984	50.45
810.294	50.76
810.603	50.72
810.913	50.62
811.222	51.02
811.532	51.9
811.841	51.76
812.151	52.23
812.46	52.23
812.769	51.67
813.079	51.67
813.388	51.23
813.697	50.92
814.006	50.6
814.315	51.03
814.624	50.01
814.933	50.34
815.242	49.75
815.551	49.89
815.86	49.82
816.169	49.58
816.478	50.12
816.786	49.89
817.095	49.88
817.404	49.56
817.712	49.02
818.021	48.92
818.33	48.15
818.638	48.12
818.947	48.35
819.255	47.83
819.563	47.78
819.872	47.96
820.18	48.16
820.488	48.02
820.796	47.81
821.105	47.92
821.413	47.94
821.721	48.1
822.029	47.9
822.337	48.07
822.645	48.17
822.953	48.18
823.26	48.05
823.568	48.01
823.876	48.17
824.184	48.03
824.491	47.89
824.799	47.99
825.107	48.05
825.414	47.91
825.722	48.11
826.029	48.17
826.337	48.12
826.644	48.1
826.951	48.25
827.259	48.22
827.566	48.3
827.873	48.3
828.18	48.18
828.488	48.22
828.795	48.18
829.102	47.77
829.409	47.84
829.716	47.85
830.023	47.7
830.329	47.59
830.636	48.09
830.943	48.29
831.25	48.52
831.557	48.31
831.863	48.52
832.17	48.46
832.476	48.19
832.783	48.46
833.089	48.41
833.396	48.45
833.702	48.54
834.009	48.33
834.315	48.15
834.621	48.28
834.928	48.59
835.234	48.48
835.54	49.14
835.846	49.05
836.152	49.04
836.458	49.36
836.764	49.42
837.07	49.01
837.376	48.44
837.682	48.5
837.988	48.73
838.293	48.75
838.599	49.04
838.905	49.42
839.211	49.16
839.516	49.61
839.822	49.89
840.127	50.38
840.433	51.27
840.738	51.66
841.044	51.41
841.349	51.87
841.654	52.09
841.959	51.94
842.265	52.18
842.57	53.39
842.875	53.9
843.18	53.63
843.485	53.76
843.79	54.68
844.095	54.09
844.4	54.66
844.705	54.87
845.01	55.16
845.315	55.21
845.619	53.84
845.924	54.1
846.229	54.19
846.533	54.92
846.838	55.11
847.142	55.12
847.447	54.89
847.751	54.37
848.056	52.93
848.36	52.65
848.664	53.53
848.969	52.13
849.273	50.96
849.577	54.21
849.881	55.23
850.185	56.97
850.489	58.51
850.794	56.94
851.097	56.95
851.401	57.28
851.705	57.48
852.009	60.37
852.313	60.11
852.617	58.26
852.92	58.1
853.224	57.48
853.528	56.88
853.831	55.87
854.135	56.65
854.438	56.58
854.742	58.02
855.045	55.22
855.349	56.48
855.652	56.74
855.955	52.18
856.259	50.2
856.562	50.18
856.865	48.32
857.168	51.22
857.471	51.11
857.774	51.59
858.077	51.13
858.38	52.18
858.683	52.82
858.986	54.49
859.289	53.96
859.592	53.17
859.894	55.48
860.197	57.59
860.5	55.9
860.802	55.93
861.105	55.86
861.407	56.98
861.71	54.59
862.012	54.15
862.315	53.44
862.617	55.8
862.919	52.51
863.222	53.63
863.524	51.46
863.826	51.31
864.128	49.51
864.43	50.01
864.732	48.9
865.034	48.38
865.336	48.45
865.638	48.64
865.94	47.97
866.242	46.56
866.544	45.68
866.846	46.33
867.147	46.5
867.449	45.66
867.751	44.39
868.052	46.32
868.354	46.31
868.655	48.17
868.957	45.19
869.258	45.26
869.56	45.62
869.861	46.37
870.162	47.91
870.463	51.92
870.765	50.56
871.066	49.24
871.367	47.64
871.668	48.76
871.969	48.24
872.27	49.04
872.571	48.11
872.872	49.42
873.173	49.15
873.473	49.69
873.774	50.6
874.075	52.24
874.376	49.68
874.676	52.23
874.977	52.65
875.277	54.28
875.578	55.93
875.878	55.2
876.179	55.09
876.479	53.85
876.78	50.06
877.08	52.23
877.38	53.32
877.68	54.15
877.981	51.31
878.281	51.86
878.581	52.08
