Data from BU58129_Reflection_00004.txt Node
Date: Mon Nov 18 16:34:56 EST 2019
User: vgr7
Spectrometer: USB2G7710
Scans to average: 3
Trigger mode: 4
Integration Time (sec): 2.000000E-2
Electric dark correction enabled: true
Boxcar width: 10
XAxis mode: Wavelengths
Number of Pixels in Spectrum: 2048
>>>>>Begin Spectral Data<<<<<
177.721	-18.94
178.105	-105.13
178.488	-31.31
178.871	-900
179.254	491.3
179.636	14.89
180.019	257.89
180.402	190
180.785	25.37
181.168	385.71
181.55	220.88
181.933	129.89
182.316	105.61
182.698	86.23
183.081	87.39
183.463	109.65
183.846	215.58
184.228	427.43
184.611	3233.33
184.993	-170.03
185.376	-82.06
185.758	-154.13
186.14	-106.75
186.522	-60.41
186.904	-782.35
187.287	609.43
187.669	-60.62
188.051	132.97
188.433	69.7
188.815	493.94
189.197	189.11
189.579	227.27
189.961	-202.33
190.342	-62.3
190.724	-141.38
191.106	-276.62
191.488	-44.36
191.869	-54.01
192.251	-45.69
192.633	-34.11
193.014	-22.62
193.396	-20.54
193.777	-38.26
194.159	-2.54
194.54	-14.64
194.922	-49.92
195.303	-71.03
195.684	-118.14
196.065	-202.33
196.447	-189.58
196.828	-277.05
197.209	-185.17
197.59	-167.61
197.971	-120.51
198.352	489.83
198.733	-315.73
199.114	913.95
199.495	129.13
199.876	207.3
200.257	125.94
200.638	83.49
201.018	71.1
201.399	62.43
201.78	75.21
202.16	81.74
202.541	39.6
202.922	-206.12
203.302	536.62
203.683	475.8
204.063	1151.95
204.444	1880.49
204.824	771.23
205.204	6300
205.585	116.39
205.965	252.94
206.345	610.2
206.725	605.88
207.106	333.45
207.486	354.61
207.866	574.86
208.246	1494.37
208.626	817.79
209.006	8566.67
209.386	1829.41
209.766	626.97
210.145	904.2
210.525	-1961.22
210.905	-4900
211.285	-486.21
211.664	-145.18
212.044	-131.37
212.424	-233.33
212.803	-1272.09
213.183	-296.83
213.562	-293.67
213.942	-168.61
214.321	-158.54
214.701	-233.33
215.08	-36
215.459	-55.67
215.838	-41.61
216.218	-55.12
216.597	38.49
216.976	125.64
217.355	220.99
217.734	112.13
218.113	66.61
218.492	48.87
218.871	22.74
219.25	34.85
219.629	31.54
220.008	29.97
220.387	9.09
220.766	17.26
221.144	-2.65
221.523	-11.64
221.902	-21.82
222.28	-35.25
222.659	-23.11
223.037	-27.08
223.416	-35.39
223.794	-35.86
224.173	-47.43
224.551	-36.5
224.929	-48.7
225.308	-50.11
225.686	-35.51
226.064	-30.03
226.442	-30.79
226.821	-26.15
227.199	-23.44
227.577	-17.88
227.955	-17.91
228.333	-16.08
228.711	-13.48
229.089	-7.54
229.467	-7.41
229.845	-8.01
230.222	-9.01
230.6	-5.23
230.978	-4.04
231.356	-2.55
231.733	-2.14
232.111	2.3
232.488	1.26
232.866	3.46
233.243	2.41
233.621	2.26
233.998	4.84
234.376	2.53
234.753	3.03
235.13	2.23
235.508	1.61
235.885	1.35
236.262	1.52
236.639	1.28
237.016	0.35
237.393	2.89
237.77	4.2
238.147	5.9
238.524	4.71
238.901	4.65
239.278	5.46
239.655	5.82
240.032	5.65
240.409	5.79
240.785	5.2
241.162	5.36
241.539	5.37
241.915	5.35
242.292	5.53
242.668	5.6
243.045	5.77
243.421	5.72
243.798	5.49
244.174	5.46
244.551	5.3
244.927	5.4
245.303	5.37
245.679	5.35
246.056	5.31
246.432	5.42
246.808	5.47
247.184	5.25
247.56	5.1
247.936	5.18
248.312	5.09
248.688	5.17
249.064	5.46
249.44	5.36
249.815	5.18
250.191	5.34
250.567	5.46
250.943	5.21
251.318	5.41
251.694	5.64
252.069	5.77
252.445	5.88
252.82	5.86
253.196	5.62
253.571	5.56
253.947	5.66
254.322	5.7
254.697	5.61
255.073	5.52
255.448	5.5
255.823	5.31
256.198	5.43
256.573	5.51
256.948	5.42
257.323	5.56
257.698	5.54
258.073	5.33
258.448	5.16
258.823	5.25
259.198	5.05
259.573	4.93
259.948	4.89
260.322	4.93
260.697	4.89
261.072	4.9
261.446	4.94
261.821	4.84
262.195	4.87
262.57	4.86
262.944	4.93
263.319	4.88
263.693	4.77
264.067	4.73
264.442	4.75
264.816	4.8
265.19	4.75
265.564	4.8
265.938	4.8
266.313	4.75
266.687	4.95
267.061	4.91
267.435	5.1
267.809	5.01
268.183	4.88
268.556	4.8
268.93	4.65
269.304	4.68
269.678	4.75
270.051	4.76
270.425	4.8
270.799	4.72
271.172	4.8
271.546	4.93
271.919	4.76
272.293	4.67
272.666	4.53
273.04	4.44
273.413	4.45
273.787	4.53
274.16	4.67
274.533	4.49
274.906	4.46
275.279	4.41
275.653	4.49
276.026	4.58
276.399	4.62
276.772	4.79
277.145	4.63
277.518	4.54
277.891	4.41
278.263	4.38
278.636	4.48
279.009	4.53
279.382	4.66
279.755	4.65
280.127	4.83
280.5	4.97
280.872	5
281.245	4.93
281.617	5.06
281.99	5.14
282.362	5.2
282.735	5.16
283.107	5.16
283.479	5.19
283.852	5.19
284.224	5.08
284.596	5.09
284.968	5.3
285.34	5.3
285.713	5.28
286.085	5.33
286.457	5.37
286.829	5.25
287.201	5.22
287.572	5.27
287.944	5.21
288.316	5.12
288.688	5.04
289.06	5.13
289.431	5.05
289.803	4.92
290.175	4.98
290.546	5.21
290.918	5.23
291.289	5.24
291.661	5.2
292.032	5.54
292.403	5.63
292.775	5.59
293.146	5.62
293.517	5.76
293.889	5.8
294.26	5.89
294.631	5.95
295.002	5.92
295.373	5.95
295.744	5.88
296.115	5.98
296.486	5.98
296.857	5.98
297.228	6.05
297.599	6.03
297.97	6.09
298.34	6.04
298.711	6.17
299.082	6.17
299.452	6.34
299.823	6.28
300.194	6.11
300.564	6.06
300.935	6.2
301.305	6.16
301.676	6.24
302.046	6.16
302.416	6.33
302.787	6.34
303.157	6.42
303.527	6.51
303.897	6.41
304.267	6.68
304.637	6.56
305.008	6.61
305.378	6.92
305.748	6.86
306.117	6.88
306.487	6.76
306.857	6.75
307.227	6.79
307.597	6.74
307.967	6.87
308.336	6.91
308.706	6.8
309.076	6.81
309.445	6.77
309.815	6.86
310.184	6.78
310.554	6.88
310.923	6.9
311.293	7.01
311.662	7.04
312.031	7.03
312.401	7.18
312.77	7.22
313.139	7.13
313.508	7.06
313.877	7.01
314.246	7.2
314.616	7.39
314.985	7.33
315.353	7.35
315.722	7.5
316.091	7.5
316.46	7.56
316.829	7.64
317.198	7.61
317.567	7.48
317.935	7.45
318.304	7.48
318.672	7.44
319.041	7.3
319.41	7.25
319.778	7.21
320.147	7.22
320.515	7.05
320.883	7.03
321.252	7.18
321.62	7.15
321.988	6.81
322.357	6.63
322.725	6.64
323.093	6.63
323.461	6.5
323.829	6.42
324.197	6.31
324.565	6.38
324.933	6.51
325.301	6.61
325.669	6.67
326.037	6.61
326.405	6.62
326.772	6.7
327.14	6.85
327.508	6.74
327.875	6.65
328.243	6.83
328.61	6.81
328.978	6.77
329.346	6.88
329.713	6.87
330.08	6.99
330.448	6.94
330.815	6.83
331.182	6.76
331.55	6.96
331.917	7.09
332.284	7.14
332.651	7.12
333.018	7.03
333.385	7
333.752	7.09
334.119	7.12
334.486	7.05
334.853	7.02
335.22	7.05
335.587	7.17
335.954	7.06
336.32	7.13
336.687	7.11
337.054	6.99
337.42	7.12
337.787	7.07
338.153	7.05
338.52	7.09
338.886	7.2
339.253	7.09
339.619	7.04
339.986	6.96
340.352	6.95
340.718	6.88
341.084	6.88
341.451	6.84
341.817	6.82
342.183	6.74
342.549	6.71
342.915	6.72
343.281	6.64
343.647	6.66
344.013	6.57
344.379	6.44
344.745	6.49
345.11	6.5
345.476	6.48
345.842	6.49
346.208	6.51
346.573	6.52
346.939	6.57
347.304	6.59
347.67	6.55
348.035	6.5
348.401	6.52
348.766	6.6
349.132	6.66
349.497	6.55
349.862	6.61
350.228	6.65
350.593	6.65
350.958	6.65
351.323	6.66
351.688	6.69
352.053	6.78
352.418	6.84
352.783	6.82
353.148	6.81
353.513	6.89
353.878	6.9
354.243	6.89
354.608	6.85
354.972	6.82
355.337	6.93
355.702	7
356.066	7.09
356.431	7.01
356.795	6.94
357.16	6.98
357.524	6.96
357.889	6.95
358.253	6.95
358.618	6.98
358.982	6.9
359.346	6.84
359.71	6.88
360.075	6.86
360.439	6.87
360.803	6.87
361.167	6.82
361.531	6.83
361.895	6.81
362.259	6.81
362.623	6.83
362.987	6.77
363.351	6.67
363.714	6.63
364.078	6.6
364.442	6.61
364.806	6.62
365.169	6.66
365.533	6.67
365.896	6.72
366.26	6.72
366.623	6.76
366.987	6.81
367.35	6.74
367.714	6.72
368.077	6.68
368.44	6.65
368.803	6.69
369.167	6.62
369.53	6.6
369.893	6.65
370.256	6.61
370.619	6.59
370.982	6.63
371.345	6.58
371.708	6.61
372.071	6.6
372.434	6.66
372.797	6.57
373.159	6.52
373.522	6.49
373.885	6.45
374.247	6.51
374.61	6.51
374.973	6.54
375.335	6.56
375.698	6.59
376.06	6.55
376.423	6.49
376.785	6.57
377.147	6.62
377.51	6.62
377.872	6.64
378.234	6.65
378.596	6.65
378.958	6.65
379.321	6.64
379.683	6.62
380.045	6.62
380.407	6.62
380.769	6.69
381.13	6.69
381.492	6.68
381.854	6.61
382.216	6.62
382.578	6.59
382.939	6.54
383.301	6.55
383.663	6.55
384.024	6.56
384.386	6.57
384.747	6.53
385.109	6.56
385.47	6.56
385.832	6.56
386.193	6.49
386.554	6.5
386.916	6.46
387.277	6.42
387.638	6.41
387.999	6.41
388.36	6.35
388.721	6.33
389.082	6.32
389.443	6.33
389.804	6.3
390.165	6.3
390.526	6.31
390.887	6.28
391.248	6.3
391.609	6.25
391.969	6.19
392.33	6.16
392.691	6.15
393.051	6.11
393.412	6.07
393.772	6.13
394.133	6.11
394.493	6.14
394.854	6.17
395.214	6.12
395.574	6.14
395.935	6.13
396.295	6.14
396.655	6.14
397.015	6.12
397.376	6.08
397.736	6.1
398.096	6.09
398.456	6.1
398.816	6.14
399.176	6.13
399.535	6.12
399.895	6.11
400.255	6.1
400.615	6.11
400.975	6.12
401.334	6.08
401.694	6.11
402.054	6.11
402.413	6.1
402.773	6.1
403.132	6.08
403.492	6.13
403.851	6.13
404.211	6.1
404.57	6.09
404.929	6.14
405.288	6.12
405.648	6.11
406.007	6.1
406.366	6.09
406.725	6.11
407.084	6.14
407.443	6.13
407.802	6.11
408.161	6.11
408.52	6.08
408.879	6.12
409.238	6.11
409.596	6.12
409.955	6.13
410.314	6.14
410.673	6.1
411.031	6.05
411.39	6.03
411.748	6.05
412.107	6.07
412.465	6.01
412.824	6
413.182	5.99
413.54	5.99
413.899	5.97
414.257	5.98
414.615	5.93
414.974	5.92
415.332	5.9
415.69	5.87
416.048	5.88
416.406	5.85
416.764	5.8
417.122	5.79
417.48	5.77
417.838	5.75
418.195	5.76
418.553	5.75
418.911	5.75
419.269	5.76
419.626	5.77
419.984	5.78
420.342	5.79
420.699	5.78
421.057	5.76
421.414	5.76
421.772	5.75
422.129	5.75
422.486	5.76
422.844	5.76
423.201	5.76
423.558	5.74
423.915	5.74
424.273	5.75
424.63	5.72
424.987	5.72
425.344	5.72
425.701	5.71
426.058	5.71
426.415	5.7
426.772	5.68
427.128	5.65
427.485	5.63
427.842	5.61
428.199	5.61
428.555	5.6
428.912	5.59
429.269	5.57
429.625	5.57
429.982	5.56
430.338	5.54
430.695	5.56
431.051	5.56
431.407	5.56
431.764	5.55
432.12	5.54
432.476	5.55
432.832	5.55
433.189	5.57
433.545	5.54
433.901	5.54
434.257	5.53
434.613	5.55
434.969	5.56
435.325	5.58
435.681	5.58
436.036	5.6
436.392	5.6
436.748	5.6
437.104	5.59
437.459	5.56
437.815	5.55
438.171	5.54
438.526	5.55
438.882	5.54
439.237	5.54
439.593	5.56
439.948	5.55
440.304	5.56
440.659	5.56
441.014	5.57
441.369	5.56
441.725	5.56
442.08	5.55
442.435	5.55
442.79	5.54
443.145	5.52
443.5	5.5
443.855	5.49
444.21	5.47
444.565	5.47
444.92	5.48
445.275	5.48
445.629	5.48
445.984	5.47
446.339	5.46
446.693	5.45
447.048	5.44
447.403	5.42
447.757	5.41
448.112	5.39
448.466	5.38
448.82	5.39
449.175	5.39
449.529	5.37
449.883	5.34
450.238	5.34
450.592	5.34
450.946	5.34
451.3	5.35
451.654	5.35
452.008	5.35
452.362	5.34
452.716	5.34
453.07	5.33
453.424	5.33
453.778	5.33
454.132	5.33
454.486	5.34
454.839	5.34
455.193	5.32
455.547	5.3
455.9	5.31
456.254	5.31
456.607	5.3
456.961	5.3
457.314	5.31
457.668	5.28
458.021	5.29
458.375	5.28
458.728	5.27
459.081	5.27
459.434	5.27
459.787	5.3
460.141	5.3
460.494	5.3
460.847	5.3
461.2	5.3
461.553	5.3
461.906	5.3
462.259	5.32
462.611	5.35
462.964	5.37
463.317	5.4
463.67	5.41
464.022	5.45
464.375	5.45
464.728	5.47
465.08	5.5
465.433	5.51
465.785	5.51
466.138	5.53
466.49	5.56
466.843	5.56
467.195	5.55
467.547	5.57
467.899	5.59
468.252	5.6
468.604	5.65
468.956	5.66
469.308	5.65
469.66	5.65
470.012	5.65
470.364	5.64
470.716	5.63
471.068	5.61
471.42	5.58
471.772	5.62
472.123	5.61
472.475	5.62
472.827	5.63
473.178	5.65
473.53	5.63
473.882	5.62
474.233	5.64
474.585	5.64
474.936	5.63
475.288	5.63
475.639	5.64
475.99	5.62
476.342	5.63
476.693	5.64
477.044	5.65
477.395	5.63
477.746	5.66
478.097	5.67
478.448	5.67
478.8	5.68
479.15	5.66
479.501	5.66
479.852	5.67
480.203	5.66
480.554	5.68
480.905	5.69
481.255	5.7
481.606	5.7
481.957	5.71
482.307	5.71
482.658	5.72
483.009	5.72
483.359	5.72
483.709	5.72
484.06	5.72
484.41	5.72
484.761	5.73
485.111	5.72
485.461	5.72
485.811	5.71
486.162	5.72
486.512	5.73
486.862	5.73
487.212	5.72
487.562	5.73
487.912	5.71
488.262	5.7
488.612	5.7
488.961	5.7
489.311	5.7
489.661	5.7
490.011	5.69
490.36	5.69
490.71	5.69
491.06	5.69
491.409	5.69
491.759	5.69
492.108	5.69
492.458	5.7
492.807	5.7
493.157	5.71
493.506	5.7
493.855	5.71
494.204	5.71
494.554	5.74
494.903	5.73
495.252	5.76
495.601	5.79
495.95	5.79
496.299	5.82
496.648	5.81
496.997	5.81
497.346	5.83
497.695	5.84
498.043	5.85
498.392	5.88
498.741	5.88
499.09	5.88
499.438	5.91
499.787	5.93
500.135	5.96
500.484	6
500.832	6.03
501.181	6.05
501.529	6.05
501.878	6.07
502.226	6.07
502.574	6.09
502.923	6.11
503.271	6.13
503.619	6.15
503.967	6.19
504.315	6.2
504.663	6.24
505.011	6.26
505.359	6.27
505.707	6.27
506.055	6.32
506.403	6.36
506.751	6.37
507.098	6.39
507.446	6.41
507.794	6.41
508.141	6.44
508.489	6.46
508.837	6.48
509.184	6.49
509.531	6.52
509.879	6.56
510.226	6.6
510.574	6.63
510.921	6.65
511.268	6.66
511.616	6.69
511.963	6.72
512.31	6.72
512.657	6.75
513.004	6.76
513.351	6.77
513.698	6.77
514.045	6.78
514.392	6.79
514.739	6.79
515.086	6.8
515.432	6.81
515.779	6.82
516.126	6.84
516.473	6.87
516.819	6.89
517.166	6.9
517.512	6.9
517.859	6.9
518.205	6.9
518.552	6.9
518.898	6.91
519.245	6.9
519.591	6.92
519.937	6.93
520.283	6.95
520.629	6.94
520.976	6.95
521.322	6.99
521.668	6.99
522.014	7.03
522.36	7.04
522.706	7.06
523.052	7.07
523.398	7.08
523.743	7.07
524.089	7.1
524.435	7.11
524.781	7.12
525.126	7.14
525.472	7.16
525.817	7.18
526.163	7.19
526.509	7.19
526.854	7.22
527.199	7.23
527.545	7.24
527.89	7.25
528.235	7.27
528.581	7.27
528.926	7.27
529.271	7.27
529.616	7.29
529.961	7.29
530.306	7.29
530.651	7.3
530.996	7.32
531.341	7.31
531.686	7.31
532.031	7.32
532.376	7.33
532.721	7.34
533.065	7.33
533.41	7.33
533.755	7.34
534.099	7.34
534.444	7.34
534.788	7.35
535.133	7.35
535.477	7.35
535.822	7.33
536.166	7.34
536.51	7.35
536.855	7.36
537.199	7.36
537.543	7.37
537.887	7.39
538.231	7.4
538.576	7.42
538.92	7.45
539.264	7.44
539.608	7.42
539.951	7.42
540.295	7.43
540.639	7.44
540.983	7.46
541.327	7.45
541.671	7.45
542.014	7.46
542.358	7.46
542.701	7.45
543.045	7.49
543.389	7.5
543.732	7.5
544.075	7.5
544.419	7.52
544.762	7.53
545.105	7.52
545.449	7.52
545.792	7.52
546.135	7.51
546.478	7.51
546.821	7.53
547.165	7.53
547.508	7.56
547.851	7.55
548.194	7.54
548.536	7.57
548.879	7.6
549.222	7.59
549.565	7.6
549.908	7.63
550.25	7.6
550.593	7.61
550.936	7.6
551.278	7.62
551.621	7.64
551.963	7.63
552.306	7.65
552.648	7.65
552.991	7.69
553.333	7.66
553.675	7.67
554.017	7.67
554.36	7.66
554.702	7.67
555.044	7.68
555.386	7.66
555.728	7.62
556.07	7.61
556.412	7.6
556.754	7.58
557.096	7.58
557.438	7.6
557.78	7.59
558.121	7.6
558.463	7.59
558.805	7.59
559.147	7.59
559.488	7.6
559.83	7.59
560.171	7.54
560.513	7.57
560.854	7.55
561.196	7.54
561.537	7.58
561.878	7.55
562.22	7.59
562.561	7.61
562.902	7.65
563.243	7.62
563.584	7.66
563.925	7.71
564.266	7.71
564.607	7.72
564.948	7.75
565.289	7.76
565.63	7.77
565.971	7.75
566.312	7.75
566.653	7.76
566.993	7.75
567.334	7.75
567.675	7.76
568.015	7.76
568.356	7.79
568.696	7.79
569.037	7.8
569.377	7.8
569.718	7.81
570.058	7.79
570.398	7.78
570.739	7.77
571.079	7.75
571.419	7.75
571.759	7.77
572.099	7.78
572.439	7.77
572.779	7.79
573.119	7.79
573.459	7.81
573.799	7.84
574.139	7.85
574.479	7.84
574.819	7.85
575.158	7.86
575.498	7.84
575.838	7.82
576.177	7.81
576.517	7.78
576.856	7.78
577.196	7.79
577.535	7.82
577.875	7.82
578.214	7.8
578.553	7.8
578.893	7.77
579.232	7.73
579.571	7.75
579.91	7.71
580.25	7.73
580.589	7.68
580.928	7.63
581.267	7.63
581.606	7.64
581.945	7.63
582.283	7.63
582.622	7.62
582.961	7.69
583.3	7.74
583.639	7.77
583.977	7.75
584.316	7.75
584.654	7.74
584.993	7.73
585.332	7.77
585.67	7.78
586.008	7.78
586.347	7.8
586.685	7.79
587.024	7.78
587.362	7.72
587.7	7.73
588.038	7.74
588.376	7.74
588.715	7.75
589.053	7.77
589.391	7.77
589.729	7.8
590.067	7.76
590.404	7.71
590.742	7.7
591.08	7.69
591.418	7.71
591.756	7.72
592.093	7.77
592.431	7.76
592.769	7.7
593.106	7.69
593.444	7.69
593.781	7.69
594.119	7.73
594.456	7.79
594.793	7.8
595.131	7.78
595.468	7.78
595.805	7.77
596.143	7.76
596.48	7.78
596.817	7.76
597.154	7.77
597.491	7.74
597.828	7.75
598.165	7.78
598.502	7.73
598.839	7.72
599.176	7.68
599.512	7.69
599.849	7.75
600.186	7.77
600.523	7.81
600.859	7.83
601.196	7.81
601.532	7.78
601.869	7.77
602.205	7.79
602.542	7.8
602.878	7.78
603.215	7.77
603.551	7.77
603.887	7.76
604.223	7.75
604.56	7.82
604.896	7.82
605.232	7.82
605.568	7.87
605.904	7.84
606.24	7.84
606.576	7.84
606.912	7.83
607.248	7.87
607.583	7.85
607.919	7.81
608.255	7.77
608.591	7.78
608.926	7.76
609.262	7.8
609.597	7.79
609.933	7.84
610.268	7.85
610.604	7.83
610.939	7.86
611.275	7.87
611.61	7.84
611.945	7.87
612.281	7.88
612.616	7.86
612.951	7.9
613.286	7.95
613.621	7.97
613.956	7.95
614.291	7.9
614.626	7.89
614.961	7.91
615.296	7.98
615.631	7.96
615.966	7.98
616.3	7.94
616.635	7.99
616.97	7.97
617.304	7.97
617.639	7.99
617.973	7.95
618.308	7.94
618.642	7.94
618.977	7.9
619.311	7.84
619.646	7.86
619.98	7.86
620.314	7.82
620.648	7.79
620.983	7.84
621.317	7.87
621.651	7.84
621.985	7.84
622.319	7.85
622.653	7.87
622.987	7.93
623.321	7.91
623.655	7.88
623.988	7.91
624.322	7.91
624.656	7.9
624.99	7.92
625.323	7.9
625.657	7.91
625.99	7.91
626.324	8
626.657	8
626.991	8.05
627.324	8.05
627.658	8.05
627.991	8.05
628.324	8.04
628.657	8.11
628.991	8.11
629.324	8.12
629.657	8.1
629.99	8.11
630.323	8.14
630.656	8.18
630.989	8.18
631.322	8.2
631.655	8.22
631.987	8.22
632.32	8.26
632.653	8.22
632.986	8.24
633.318	8.2
633.651	8.17
633.984	8.13
634.316	8.13
634.649	8.15
634.981	8.2
635.313	8.16
635.646	8.13
635.978	8.16
636.31	8.13
636.643	8.19
636.975	8.14
637.307	8.18
637.639	8.14
637.971	8.16
638.303	8.13
638.635	8.04
638.967	8.07
639.299	8.06
639.631	8.1
639.963	8.06
640.295	8.08
640.626	8.09
640.958	8.1
641.29	8.1
641.621	8.03
641.953	7.99
642.285	8.05
642.616	8.03
642.948	8.01
643.279	8.02
643.61	7.98
643.942	7.98
644.273	7.94
644.604	7.91
644.936	7.76
645.267	7.74
645.598	7.87
645.929	7.85
646.26	7.86
646.591	7.9
646.922	7.88
647.253	7.91
647.584	7.92
647.915	7.95
648.245	7.95
648.576	7.97
648.907	7.95
649.238	7.88
649.568	7.88
649.899	7.94
650.229	7.96
650.56	7.98
650.89	7.95
651.221	7.99
651.551	7.97
651.882	8.08
652.212	8.18
652.542	8.19
652.872	8.17
653.203	8.14
653.533	8.15
653.863	8.23
654.193	8.09
654.523	8.14
654.853	8.09
655.183	8.11
655.513	8.16
655.843	8.1
656.172	8.14
656.502	8.13
656.832	8.12
657.162	8.14
657.491	8.15
657.821	8.24
658.15	8.23
658.48	8.23
658.809	8.23
659.139	8.15
659.468	8.12
659.798	8.12
660.127	8.13
660.456	8.11
660.785	8.13
661.115	8.2
661.444	8.21
661.773	8.31
662.102	8.29
662.431	8.31
662.76	8.38
663.089	8.4
663.418	8.41
663.747	8.39
664.076	8.33
664.404	8.27
664.733	8.28
665.062	8.28
665.39	8.37
665.719	8.31
666.048	8.43
666.376	8.42
666.705	8.5
667.033	8.52
667.362	8.45
667.69	8.35
668.018	8.38
668.347	8.3
668.675	8.24
669.003	8.28
669.331	8.23
669.659	8.19
669.987	8.2
670.315	8.19
670.643	8.26
670.971	8.32
671.299	8.37
671.627	8.32
671.955	8.27
672.283	8.29
672.61	8.39
672.938	8.28
673.266	8.21
673.593	8.27
673.921	8.31
674.249	8.38
674.576	8.4
674.904	8.34
675.231	8.32
675.558	8.36
675.886	8.39
676.213	8.43
676.54	8.47
676.867	8.49
677.195	8.46
677.522	8.38
677.849	8.39
678.176	8.4
678.503	8.34
678.83	8.38
679.157	8.28
679.484	8.31
679.81	8.41
680.137	8.41
680.464	8.34
680.791	8.25
681.117	8.27
681.444	8.27
681.771	8.29
682.097	8.24
682.424	8.19
682.75	8.16
683.077	8.16
683.403	8.21
683.729	8.14
684.056	8.21
684.382	8.16
684.708	8.04
685.034	8.09
685.36	8.13
685.686	8.1
686.012	8.16
686.339	8.1
686.664	8.04
686.99	8.11
687.316	8.12
687.642	8.28
687.968	8.32
688.294	8.34
688.619	8.32
688.945	8.39
689.271	8.4
689.596	8.41
689.922	8.36
690.247	8.24
690.573	8.33
690.898	8.31
691.224	8.44
691.549	8.62
691.874	8.55
692.2	8.66
692.525	8.71
692.85	8.78
693.175	8.83
693.5	8.77
693.825	8.83
694.15	8.73
694.475	8.69
694.8	8.66
695.125	8.57
695.45	8.58
695.775	8.6
696.099	8.57
696.424	8.58
696.749	8.57
697.073	8.66
697.398	8.71
697.723	8.71
698.047	8.62
698.372	8.56
698.696	8.54
699.02	8.43
699.345	8.36
699.669	8.37
699.993	8.35
700.318	8.45
700.642	8.36
700.966	8.44
701.29	8.43
701.614	8.43
701.938	8.6
702.262	8.62
702.586	8.64
702.91	8.63
703.234	8.62
703.557	8.69
703.881	8.63
704.205	8.6
704.529	8.53
704.852	8.59
705.176	8.53
705.499	8.72
705.823	8.79
706.146	8.83
706.47	8.72
706.793	8.53
707.117	8.43
707.44	8.45
707.763	8.57
708.086	8.4
708.409	8.35
708.733	8.35
709.056	8.36
709.379	8.55
709.702	8.65
710.025	8.66
710.348	8.74
710.671	8.63
710.993	8.53
711.316	8.63
711.639	8.63
711.962	8.75
712.284	8.57
712.607	8.67
712.93	8.73
713.252	8.68
713.575	8.82
713.897	8.98
714.22	9.04
714.542	8.9
714.864	9.04
715.187	9.11
715.509	9.07
715.831	9.18
716.153	8.94
716.475	8.98
716.798	9.04
717.12	9
717.442	9.09
717.764	9.2
718.085	9.25
718.407	9.23
718.729	9.23
719.051	9.27
719.373	9.15
719.695	9.18
720.016	9.31
720.338	9.33
720.659	9.23
720.981	9.04
721.302	9.17
721.624	9.15
721.945	9.14
722.267	9.08
722.588	8.91
722.909	8.89
723.231	8.73
723.552	8.55
723.873	8.72
724.194	8.73
724.515	8.71
724.836	8.62
725.157	8.73
725.478	8.68
725.799	8.67
726.12	8.63
726.441	8.56
726.762	8.67
727.083	8.57
727.403	8.58
727.724	8.64
728.045	8.56
728.365	8.43
728.686	8.45
729.006	8.46
729.327	8.43
729.647	8.68
729.967	8.87
730.288	8.92
730.608	8.71
730.928	8.65
731.249	8.41
731.569	8.54
731.889	8.54
732.209	8.52
732.529	8.5
732.849	8.59
733.169	8.63
733.489	8.37
733.809	8.46
734.129	8.34
734.448	8.57
734.768	8.48
735.088	8.83
735.408	8.72
735.727	8.8
736.047	9.02
736.366	8.86
736.686	8.66
737.005	8.56
737.325	8.64
737.644	8.8
737.963	8.97
738.283	8.62
738.602	8.58
738.921	8.75
739.24	8.75
739.56	8.7
739.879	8.65
740.198	8.85
740.517	8.89
740.836	9.01
741.155	8.76
741.473	8.8
741.792	8.53
742.111	8.63
742.43	8.53
742.748	8.4
743.067	8.47
743.386	8.56
743.704	9.07
744.023	9.07
744.341	9.06
744.66	9.1
744.978	9.19
745.297	9.09
745.615	8.95
745.933	8.98
746.252	9.1
746.57	9.09
746.888	9.08
747.206	8.93
747.524	8.95
747.842	9.06
748.16	9.27
748.478	9.4
748.796	9.54
749.114	9.66
749.432	9.59
749.749	9.64
750.067	9.51
750.385	9.05
750.703	9.04
751.02	8.84
751.338	8.94
751.655	8.97
751.973	9.16
752.29	9.28
752.608	9.51
752.925	9.46
753.242	9.66
753.56	9.56
753.877	9.67
754.194	9.73
754.511	9.91
754.828	9.72
755.145	9.48
755.462	9.29
755.779	9.47
756.096	9.44
756.413	9.35
756.73	9.63
757.047	9.88
757.364	9.73
757.68	10.14
757.997	10.12
758.314	10.21
758.63	10.16
758.947	10.1
759.264	9.99
759.58	9.96
759.896	9.9
760.213	10.03
760.529	9.96
760.846	9.79
761.162	9.55
761.478	9.51
761.794	9.42
762.11	9.57
762.426	9.31
762.743	9.45
763.059	9.25
763.375	9.05
763.69	9.01
764.006	9.23
764.322	9.1
764.638	9.1
764.954	9.32
765.27	9.44
765.585	9.46
765.901	9.66
766.216	9.65
766.532	9.55
766.848	9.48
767.163	9.58
767.478	9.72
767.794	9.84
768.109	9.76
768.424	10.09
768.74	10
769.055	10.11
769.37	10.16
769.685	10.44
770	10.52
770.315	10.49
770.63	10.22
770.945	10.3
771.26	10.22
771.575	9.76
771.89	9.52
772.205	9.45
772.52	9.03
772.834	9.19
773.149	9.46
773.464	9.45
773.778	9.47
774.093	9.14
774.407	9.04
774.722	9.3
775.036	9.58
775.351	9.47
775.665	9.61
775.979	9.49
776.293	9.26
776.608	9.19
776.922	9.04
777.236	9.25
777.55	8.92
777.864	8.91
778.178	9.42
778.492	9.73
778.806	9.28
779.12	9.38
779.434	8.89
779.747	8.45
780.061	8.56
780.375	8.49
780.689	8.9
781.002	9.26
781.316	9.12
781.629	8.92
781.943	9.21
782.256	9.11
782.57	9.19
782.883	9.5
783.196	9.33
783.51	9.56
783.823	9.3
784.136	9.59
784.449	10.02
784.762	9.59
785.075	9.61
785.388	9.92
785.701	9.88
786.014	10.28
786.327	10.49
786.64	10.46
786.953	10.54
787.266	10.52
787.578	10.23
787.891	10.73
788.204	10.46
788.516	10.28
788.829	10.63
789.141	10.84
789.454	11.1
789.766	11.42
790.079	11.79
790.391	12.14
790.703	12.34
791.016	12.05
791.328	12.62
791.64	12.27
791.952	12.74
792.264	12.54
792.576	11.91
792.888	11.96
793.2	11.8
793.512	11.7
793.824	11.68
794.136	11.6
794.448	11.28
794.76	11.02
795.071	10.98
795.383	10.39
795.695	10.03
796.006	10.02
796.318	10.24
796.629	9.77
796.941	9.82
797.252	9.37
797.564	10
797.875	9.95
798.186	9.73
798.497	9.38
798.809	9.93
799.12	10.46
799.431	10.27
799.742	10.53
800.053	10.97
800.364	10.74
800.675	10.37
800.986	10.48
801.297	11.06
801.608	11.14
801.918	10.86
802.229	11.27
802.54	11.02
802.851	10.9
803.161	10.95
803.472	10.72
803.782	11.05
804.093	10.64
804.403	10.51
804.714	10.87
805.024	10.94
805.334	10.26
805.645	10.4
805.955	10.58
806.265	10.99
806.575	10.6
806.885	10.96
807.195	11.96
807.505	12.01
807.815	12.1
808.125	11.85
808.435	12.23
808.745	11.64
809.055	11.66
809.365	11.66
809.674	11.77
809.984	12.17
810.294	11.66
810.603	11.39
810.913	11.42
811.222	11.73
811.532	12.37
811.841	13.4
812.151	14.07
812.46	14.36
812.769	13.18
813.079	13.23
813.388	12.75
813.697	12.45
814.006	11.89
814.315	11.56
814.624	11.46
814.933	11.83
815.242	12.75
815.551	13.13
815.86	13.16
816.169	12.6
816.478	12.02
816.786	12.46
817.095	12.71
817.404	12.85
817.712	12.01
818.021	11.85
818.33	11.08
818.638	10.59
818.947	10.81
819.255	11.44
819.563	11.27
819.872	11.34
820.18	11.24
820.488	11.32
820.796	11.14
821.105	11.17
821.413	11.07
821.721	10.78
822.029	10.61
822.337	10.52
822.645	10.65
822.953	10.7
823.26	10.69
823.568	10.61
823.876	10.49
824.184	10.63
824.491	10.53
824.799	10.56
825.107	10.65
825.414	10.5
825.722	10.43
826.029	10.46
826.337	10.49
826.644	10.55
826.951	10.56
827.259	10.76
827.566	10.76
827.873	10.63
828.18	10.69
828.488	10.65
828.795	10.67
829.102	10.69
829.409	10.93
829.716	10.9
830.023	10.86
830.329	10.79
830.636	10.97
830.943	11.18
831.25	10.95
831.557	10.7
831.863	10.71
832.17	10.55
832.476	10.51
832.783	10.62
833.089	10.4
833.396	10.73
833.702	10.85
834.009	10.95
834.315	11.07
834.621	11.19
834.928	11.34
835.234	11.48
835.54	10.93
835.846	10.45
836.152	10.19
836.458	10.28
836.764	10.4
837.07	10.01
837.376	10.04
837.682	10.22
837.988	9.78
838.293	9.57
838.599	9.57
838.905	9.59
839.211	8.67
839.516	9.08
839.822	8.82
840.127	8.57
840.433	8.46
840.738	8.65
841.044	8.64
841.349	8.54
841.654	8.13
841.959	9
842.265	9.77
842.57	10.36
842.875	10.61
843.18	10.72
843.485	11.02
843.79	10.1
844.095	10.02
844.4	11.49
844.705	11.47
845.01	11.55
845.315	12.62
845.619	13.53
845.924	13.03
846.229	13.87
846.533	12.84
846.838	13.64
847.142	14.57
847.447	14.43
847.751	14.79
848.056	15.23
848.36	14.57
848.664	14.07
848.969	14.22
849.273	13.63
849.577	13.26
849.881	12.07
850.185	12.02
850.489	11.32
850.794	11.38
851.097	11.27
851.401	11.48
851.705	10.22
852.009	13.06
852.313	12.03
852.617	10.99
852.92	11.59
853.224	9.97
853.528	9.76
853.831	9.55
854.135	9.14
854.438	9.96
854.742	11.91
855.045	13.07
855.349	10.56
855.652	10.32
855.955	11.51
856.259	13.33
856.562	12.75
856.865	13.5
857.168	10.59
857.471	11.95
857.774	12.73
858.077	12.95
858.38	11.26
858.683	12.86
858.986	12.67
859.289	11.44
859.592	12.69
859.894	11.9
860.197	11.15
860.5	11.32
860.802	11.5
861.105	12.75
861.407	8.95
861.71	11.13
862.012	13.24
862.315	10.83
862.617	10.17
862.919	10.41
863.222	10.28
863.524	11.71
863.826	12.89
864.128	13.33
864.43	12.32
864.732	12.72
865.034	12.64
865.336	12.42
865.638	11.85
865.94	11.51
866.242	10.27
866.544	11.51
866.846	12
867.147	14.5
867.449	13.25
867.751	16.15
868.052	15.84
868.354	12.43
868.655	15.26
868.957	14.47
869.258	15.51
869.56	17.19
869.861	17.29
870.162	16.94
870.463	16.66
870.765	17.87
871.066	18.07
871.367	16.49
871.668	15.31
871.969	15.84
872.27	16.71
872.571	16.21
872.872	16.95
873.173	18.59
873.473	15.81
873.774	13.36
874.075	11.9
874.376	13.72
874.676	17.46
874.977	14.07
875.277	15.47
875.578	12.9
875.878	11.82
876.179	12.39
876.479	11.28
876.78	10.15
877.08	9.2
877.38	7.4
877.68	8.38
877.981	8.77
878.281	9.79
878.581	9.02
