Data from BU58140_Reflection_00009.txt Node
Date: Tue Nov 19 10:53:38 EST 2019
User: vgr7
Spectrometer: USB2G7710
Scans to average: 3
Trigger mode: 4
Integration Time (sec): 2.000000E-2
Electric dark correction enabled: true
Boxcar width: 10
XAxis mode: Wavelengths
Number of Pixels in Spectrum: 2048
>>>>>Begin Spectral Data<<<<<
177.721	259.91
178.105	-85.9
178.488	29.41
178.871	266.67
179.254	238.89
179.636	-169.5
180.019	-98.72
180.402	733.33
180.785	-77.08
181.168	-155.21
181.55	610.42
181.933	290.97
182.316	81.84
182.698	101.03
183.081	84.29
183.463	77.21
183.846	175.14
184.228	140.36
184.611	760.26
184.993	-131.67
185.376	-129.92
185.758	-89.21
186.14	-427.08
186.522	-302.58
186.904	-166.03
187.287	-191.97
187.669	-129.39
188.051	-124.04
188.433	-123.45
188.815	-112.76
189.197	-115.28
189.579	-89.2
189.961	-89.85
190.342	-60.5
190.724	-61.91
191.106	-80.76
191.488	-88.47
191.869	-70.17
192.251	-48.66
192.633	-52.74
193.014	-71.42
193.396	-71.89
193.777	-72.96
194.159	-46.87
194.54	-39.61
194.922	-51.37
195.303	-54.8
195.684	-58.53
196.065	-46.21
196.447	-36.34
196.828	-40.06
197.209	-46.57
197.59	-64.81
197.971	-49.13
198.352	-50.88
198.733	-48.21
199.114	-49
199.495	-37.09
199.876	-34.32
200.257	-43.48
200.638	-37.92
201.018	-25.94
201.399	-20.26
201.78	-24.92
202.16	-17.88
202.541	-25.18
202.922	-13.95
203.302	-8.82
203.683	-6.29
204.063	-2.49
204.444	-11.4
204.824	-4.34
205.204	6.53
205.585	14.75
205.965	10.65
206.345	11.2
206.725	16.84
207.106	26.37
207.486	23.6
207.866	30.77
208.246	30.08
208.626	29.17
209.006	24.53
209.386	23.52
209.766	31.75
210.145	25.46
210.525	24.45
210.905	15.6
211.285	16.14
211.664	18.92
212.044	10.7
212.424	10.12
212.803	1.1
213.183	-7.16
213.562	-14.04
213.942	-18.31
214.321	-26.35
214.701	-35.98
215.08	-35.09
215.459	-34.9
215.838	-57.23
216.218	-63.84
216.597	-57.96
216.976	-56.67
217.355	-62.35
217.734	-73.09
218.113	-63.31
218.492	-61.61
218.871	-59.75
219.25	-66.85
219.629	-71.06
220.008	-56.48
220.387	-59.96
220.766	-53.95
221.144	-47.11
221.523	-42.1
221.902	-36.44
222.28	-31.12
222.659	-19.54
223.037	-24.93
223.416	-16.67
223.794	-6.28
224.173	-10.99
224.551	-7.26
224.929	-7.21
225.308	-9.93
225.686	-10.4
226.064	-7.16
226.442	-6.75
226.821	-3.29
227.199	1.71
227.577	0.5
227.955	3.49
228.333	1.69
228.711	3.18
229.089	6
229.467	2.66
229.845	2.89
230.222	5.04
230.6	2.27
230.978	1.84
231.356	0.25
231.733	-0.54
232.111	1.53
232.488	-1.01
232.866	1.06
233.243	2.45
233.621	4.69
233.998	0.91
234.376	3.42
234.753	1.98
235.13	0.15
235.508	1.01
235.885	-0.42
236.262	0.04
236.639	0.61
237.016	0.06
237.393	2.1
237.77	2.93
238.147	2.31
238.524	2.91
238.901	3.16
239.278	4.76
239.655	4.36
240.032	4.59
240.409	4.47
240.785	4.19
241.162	4.1
241.539	3.5
241.915	4.45
242.292	3.98
242.668	4.65
243.045	4.99
243.421	5.19
243.798	5.05
244.174	5
244.551	4.89
244.927	4.81
245.303	4.87
245.679	4.36
246.056	4.3
246.432	4.19
246.808	4.21
247.184	4.05
247.56	4.15
247.936	3.99
248.312	4.21
248.688	3.98
249.064	3.8
249.44	3.97
249.815	3.83
250.191	3.75
250.567	3.63
250.943	3.62
251.318	3.52
251.694	3.47
252.069	3.63
252.445	3.59
252.82	3.39
253.196	3.09
253.571	3.6
253.947	3.89
254.322	3.83
254.697	3.7
255.073	3.17
255.448	3.22
255.823	3.15
256.198	2.97
256.573	3.24
256.948	3.42
257.323	3.41
257.698	3.38
258.073	3.33
258.448	3.26
258.823	3.32
259.198	3.25
259.573	3.17
259.948	3.02
260.322	2.91
260.697	3.08
261.072	3.17
261.446	3.16
261.821	2.97
262.195	3
262.57	3.13
262.944	3.31
263.319	3.3
263.693	3.35
264.067	3.46
264.442	3.28
264.816	3.25
265.19	3.17
265.564	3.22
265.938	3.28
266.313	3.11
266.687	3.13
267.061	3.19
267.435	3.48
267.809	3.56
268.183	3.63
268.556	3.6
268.93	3.55
269.304	3.41
269.678	3.71
270.051	3.8
270.425	3.73
270.799	3.62
271.172	3.78
271.546	3.87
271.919	3.81
272.293	4.09
272.666	4.04
273.04	4.13
273.413	4.19
273.787	4.13
274.16	4.26
274.533	4.36
274.906	4.52
275.279	4.3
275.653	4.46
276.026	4.37
276.399	4.33
276.772	4.47
277.145	4.61
277.518	4.36
277.891	4.45
278.263	4.41
278.636	4.55
279.009	4.38
279.382	4.22
279.755	4.26
280.127	4.27
280.5	4.27
280.872	4.28
281.245	4.32
281.617	4.44
281.99	4.35
282.362	4.16
282.735	3.95
283.107	3.92
283.479	3.85
283.852	4
284.224	4.08
284.596	3.92
284.968	3.95
285.34	3.96
285.713	3.91
286.085	3.94
286.457	3.81
286.829	3.86
287.201	3.93
287.572	4
287.944	4.05
288.316	4.15
288.688	4.19
289.06	4.16
289.431	4.19
289.803	4.29
290.175	4.37
290.546	4.41
290.918	4.68
291.289	4.66
291.661	4.82
292.032	4.67
292.403	4.81
292.775	4.86
293.146	4.95
293.517	5.05
293.889	5.1
294.26	5.39
294.631	5.46
295.002	5.59
295.373	5.54
295.744	5.49
296.115	5.56
296.486	5.65
296.857	5.74
297.228	5.64
297.599	5.6
297.97	5.57
298.34	5.7
298.711	5.78
299.082	6
299.452	6
299.823	6.11
300.194	6.25
300.564	6.33
300.935	6.46
301.305	6.47
301.676	6.51
302.046	6.52
302.416	6.62
302.787	6.57
303.157	6.65
303.527	6.83
303.897	6.9
304.267	6.99
304.637	6.93
305.008	7.18
305.378	7.44
305.748	7.62
306.117	7.79
306.487	7.74
306.857	7.81
307.227	8.06
307.597	8.21
307.967	8.38
308.336	8.51
308.706	8.64
309.076	8.83
309.445	9.02
309.815	9.07
310.184	9.1
310.554	9.31
310.923	9.38
311.293	9.51
311.662	9.67
312.031	9.75
312.401	9.94
312.77	10.01
313.139	10.1
313.508	10.27
313.877	10.3
314.246	10.41
314.616	10.46
314.985	10.4
315.353	10.57
315.722	10.68
316.091	10.73
316.46	10.77
316.829	10.74
317.198	10.82
317.567	11.05
317.935	11.22
318.304	11.31
318.672	11.59
319.041	11.58
319.41	11.74
319.778	11.84
320.147	11.99
320.515	12.22
320.883	12.31
321.252	12.54
321.62	12.74
321.988	12.99
322.357	13.18
322.725	13.48
323.093	13.47
323.461	13.54
323.829	13.51
324.197	13.75
324.565	13.92
324.933	14.07
325.301	14.03
325.669	14.16
326.037	14.22
326.405	14.31
326.772	14.56
327.14	14.58
327.508	14.59
327.875	14.7
328.243	14.69
328.61	14.63
328.978	14.59
329.346	14.58
329.713	14.56
330.08	14.69
330.448	14.63
330.815	14.92
331.182	14.84
331.55	14.92
331.917	14.89
332.284	14.94
332.651	14.88
333.018	14.98
333.385	15.08
333.752	15.17
334.119	15.11
334.486	15.19
334.853	15.15
335.22	15.28
335.587	15.27
335.954	15.34
336.32	15.56
336.687	15.59
337.054	15.62
337.42	15.7
337.787	15.55
338.153	15.6
338.52	15.58
338.886	15.63
339.253	15.74
339.619	15.89
339.986	15.87
340.352	15.91
340.718	15.94
341.084	15.93
341.451	15.9
341.817	15.89
342.183	15.78
342.549	15.87
342.915	15.84
343.281	15.94
343.647	15.97
344.013	15.93
344.379	15.9
344.745	15.94
345.11	15.91
345.476	15.98
345.842	16.07
346.208	16.11
346.573	16.15
346.939	16.15
347.304	16.17
347.67	16.25
348.035	16.31
348.401	16.36
348.766	16.35
349.132	16.42
349.497	16.5
349.862	16.53
350.228	16.5
350.593	16.49
350.958	16.48
351.323	16.44
351.688	16.51
352.053	16.54
352.418	16.52
352.783	16.58
353.148	16.63
353.513	16.44
353.878	16.38
354.243	16.37
354.608	16.4
354.972	16.29
355.337	16.31
355.702	16.19
356.066	16.17
356.431	16.11
356.795	15.95
357.16	15.92
357.524	15.84
357.889	15.82
358.253	15.78
358.618	15.74
358.982	15.72
359.346	15.57
359.71	15.51
360.075	15.52
360.439	15.4
360.803	15.32
361.167	15.33
361.531	15.28
361.895	15.25
362.259	15.2
362.623	15.16
362.987	15.07
363.351	15.03
363.714	14.97
364.078	14.9
364.442	14.91
364.806	14.86
365.169	14.78
365.533	14.73
365.896	14.74
366.26	14.61
366.623	14.48
366.987	14.42
367.35	14.34
367.714	14.26
368.077	14.21
368.44	14.17
368.803	14.07
369.167	13.94
369.53	13.87
369.893	13.78
370.256	13.65
370.619	13.48
370.982	13.37
371.345	13.23
371.708	13.13
372.071	12.95
372.434	12.9
372.797	12.81
373.159	12.62
373.522	12.46
373.885	12.41
374.247	12.29
374.61	12.2
374.973	12.1
375.335	11.97
375.698	11.8
376.06	11.63
376.423	11.48
376.785	11.45
377.147	11.31
377.51	11.13
377.872	10.96
378.234	10.95
378.596	10.85
378.958	10.74
379.321	10.64
379.683	10.62
380.045	10.45
380.407	10.38
380.769	10.32
381.13	10.2
381.492	10.06
381.854	10.05
382.216	9.99
382.578	9.89
382.939	9.71
383.301	9.69
383.663	9.62
384.024	9.6
384.386	9.47
384.747	9.39
385.109	9.35
385.47	9.36
385.832	9.23
386.193	9.17
386.554	9.11
386.916	9.08
387.277	8.99
387.638	8.95
387.999	8.88
388.36	8.85
388.721	8.83
389.082	8.79
389.443	8.7
389.804	8.62
390.165	8.58
390.526	8.54
390.887	8.46
391.248	8.42
391.609	8.37
391.969	8.31
392.33	8.24
392.691	8.15
393.051	8.07
393.412	8.02
393.772	8
394.133	7.95
394.493	7.85
394.854	7.8
395.214	7.74
395.574	7.66
395.935	7.58
396.295	7.48
396.655	7.41
397.015	7.33
397.376	7.24
397.736	7.17
398.096	7.15
398.456	7.08
398.816	7.01
399.176	6.9
399.535	6.81
399.895	6.77
400.255	6.76
400.615	6.73
400.975	6.67
401.334	6.57
401.694	6.53
402.054	6.48
402.413	6.43
402.773	6.37
403.132	6.33
403.492	6.27
403.851	6.21
404.211	6.19
404.57	6.15
404.929	6.09
405.288	6.05
405.648	5.99
406.007	5.95
406.366	5.97
406.725	5.96
407.084	5.94
407.443	5.91
407.802	5.87
408.161	5.83
408.52	5.84
408.879	5.82
409.238	5.78
409.596	5.77
409.955	5.76
410.314	5.75
410.673	5.71
411.031	5.68
411.39	5.65
411.748	5.66
412.107	5.63
412.465	5.63
412.824	5.63
413.182	5.6
413.54	5.59
413.899	5.51
414.257	5.46
414.615	5.45
414.974	5.43
415.332	5.42
415.69	5.37
416.048	5.32
416.406	5.28
416.764	5.29
417.122	5.27
417.48	5.22
417.838	5.21
418.195	5.2
418.553	5.18
418.911	5.17
419.269	5.11
419.626	5.08
419.984	5.06
420.342	5.02
420.699	4.98
421.057	4.93
421.414	4.91
421.772	4.9
422.129	4.87
422.486	4.84
422.844	4.8
423.201	4.79
423.558	4.76
423.915	4.75
424.273	4.69
424.63	4.66
424.987	4.65
425.344	4.62
425.701	4.57
426.058	4.54
426.415	4.53
426.772	4.51
427.128	4.48
427.485	4.46
427.842	4.43
428.199	4.43
428.555	4.44
428.912	4.42
429.269	4.39
429.625	4.38
429.982	4.36
430.338	4.37
430.695	4.33
431.051	4.34
431.407	4.33
431.764	4.32
432.12	4.33
432.476	4.3
432.832	4.3
433.189	4.31
433.545	4.3
433.901	4.29
434.257	4.3
434.613	4.3
434.969	4.29
435.325	4.3
435.681	4.31
436.036	4.31
436.392	4.33
436.748	4.34
437.104	4.35
437.459	4.36
437.815	4.35
438.171	4.35
438.526	4.35
438.882	4.36
439.237	4.37
439.593	4.37
439.948	4.37
440.304	4.36
440.659	4.34
441.014	4.33
441.369	4.33
441.725	4.32
442.08	4.3
442.435	4.31
442.79	4.3
443.145	4.29
443.5	4.29
443.855	4.24
444.21	4.23
444.565	4.21
444.92	4.21
445.275	4.2
445.629	4.19
445.984	4.18
446.339	4.14
446.693	4.14
447.048	4.12
447.403	4.12
447.757	4.09
448.112	4.09
448.466	4.1
448.82	4.09
449.175	4.07
449.529	4.09
449.883	4.06
450.238	4.03
450.592	4.01
450.946	3.98
451.3	4
451.654	3.97
452.008	3.96
452.362	3.93
452.716	3.93
453.07	3.92
453.424	3.91
453.778	3.9
454.132	3.86
454.486	3.86
454.839	3.84
455.193	3.85
455.547	3.86
455.9	3.84
456.254	3.84
456.607	3.84
456.961	3.85
457.314	3.84
457.668	3.85
458.021	3.86
458.375	3.86
458.728	3.85
459.081	3.86
459.434	3.86
459.787	3.88
460.141	3.88
460.494	3.88
460.847	3.88
461.2	3.9
461.553	3.92
461.906	3.94
462.259	3.96
462.611	3.98
462.964	3.97
463.317	3.99
463.67	3.98
464.022	4
464.375	4
464.728	4.03
465.08	4.03
465.433	4.05
465.785	4.08
466.138	4.11
466.49	4.15
466.843	4.17
467.195	4.18
467.547	4.18
467.899	4.21
468.252	4.23
468.604	4.26
468.956	4.28
469.308	4.29
469.66	4.3
470.012	4.31
470.364	4.35
470.716	4.37
471.068	4.39
471.42	4.43
471.772	4.44
472.123	4.48
472.475	4.52
472.827	4.54
473.178	4.56
473.53	4.53
473.882	4.54
474.233	4.54
474.585	4.56
474.936	4.59
475.288	4.59
475.639	4.59
475.99	4.6
476.342	4.62
476.693	4.61
477.044	4.62
477.395	4.59
477.746	4.59
478.097	4.58
478.448	4.57
478.8	4.56
479.15	4.56
479.501	4.53
479.852	4.53
480.203	4.51
480.554	4.51
480.905	4.52
481.255	4.5
481.606	4.51
481.957	4.5
482.307	4.48
482.658	4.48
483.009	4.48
483.359	4.46
483.709	4.45
484.06	4.44
484.41	4.44
484.761	4.45
485.111	4.44
485.461	4.43
485.811	4.42
486.162	4.41
486.512	4.4
486.862	4.4
487.212	4.4
487.562	4.4
487.912	4.39
488.262	4.39
488.612	4.38
488.961	4.37
489.311	4.37
489.661	4.38
490.011	4.37
490.36	4.36
490.71	4.37
491.06	4.37
491.409	4.37
491.759	4.38
492.108	4.39
492.458	4.39
492.807	4.41
493.157	4.43
493.506	4.45
493.855	4.45
494.204	4.46
494.554	4.49
494.903	4.5
495.252	4.54
495.601	4.57
495.95	4.62
496.299	4.66
496.648	4.7
496.997	4.73
497.346	4.81
497.695	4.87
498.043	4.93
498.392	4.98
498.741	5.04
499.09	5.08
499.438	5.15
499.787	5.23
500.135	5.3
500.484	5.38
500.832	5.45
501.181	5.58
501.529	5.67
501.878	5.75
502.226	5.86
502.574	5.95
502.923	6.07
503.271	6.17
503.619	6.29
503.967	6.4
504.315	6.52
504.663	6.63
505.011	6.74
505.359	6.84
505.707	6.99
506.055	7.13
506.403	7.25
506.751	7.37
507.098	7.52
507.446	7.65
507.794	7.8
508.141	7.94
508.489	8.08
508.837	8.23
509.184	8.38
509.531	8.55
509.879	8.7
510.226	8.85
510.574	9.03
510.921	9.19
511.268	9.37
511.616	9.58
511.963	9.75
512.31	9.91
512.657	10.12
513.004	10.32
513.351	10.57
513.698	10.83
514.045	11.05
514.392	11.3
514.739	11.58
515.086	11.84
515.432	12.12
515.779	12.35
516.126	12.59
516.473	12.84
516.819	13.05
517.166	13.28
517.512	13.49
517.859	13.7
518.205	13.87
518.552	14.08
518.898	14.25
519.245	14.46
519.591	14.69
519.937	14.88
520.283	15.1
520.629	15.31
520.976	15.5
521.322	15.75
521.668	15.99
522.014	16.18
522.36	16.41
522.706	16.68
523.052	16.96
523.398	17.26
523.743	17.54
524.089	17.88
524.435	18.17
524.781	18.46
525.126	18.71
525.472	18.97
525.817	19.2
526.163	19.4
526.509	19.6
526.854	19.78
527.199	19.98
527.545	20.15
527.89	20.3
528.235	20.48
528.581	20.66
528.926	20.83
529.271	21.02
529.616	21.2
529.961	21.38
530.306	21.56
530.651	21.75
530.996	21.97
531.341	22.14
531.686	22.35
532.031	22.56
532.376	22.77
532.721	22.97
533.065	23.18
533.41	23.41
533.755	23.66
534.099	23.92
534.444	24.15
534.788	24.39
535.133	24.65
535.477	24.91
535.822	25.15
536.166	25.42
536.51	25.71
536.855	26.01
537.199	26.32
537.543	26.64
537.887	26.96
538.231	27.26
538.576	27.59
538.92	27.88
539.264	28.17
539.608	28.49
539.951	28.78
540.295	29.05
540.639	29.31
540.983	29.56
541.327	29.82
541.671	30.06
542.014	30.3
542.358	30.51
542.701	30.75
543.045	30.99
543.389	31.21
543.732	31.39
544.075	31.63
544.419	31.83
544.762	32.06
545.105	32.3
545.449	32.53
545.792	32.8
546.135	33.06
546.478	33.33
546.821	33.56
547.165	33.87
547.508	34.14
547.851	34.42
548.194	34.66
548.536	34.85
548.879	35.1
549.222	35.36
549.565	35.63
549.908	35.86
550.25	36.11
550.593	36.35
550.936	36.67
551.278	36.9
551.621	37.21
551.963	37.45
552.306	37.68
552.648	37.92
552.991	38.11
553.333	38.37
553.675	38.6
554.017	38.84
554.36	38.97
554.702	39.15
555.044	39.39
555.386	39.59
555.728	39.84
556.07	40.1
556.412	40.3
556.754	40.49
557.096	40.71
557.438	40.92
557.78	41.2
558.121	41.46
558.463	41.72
558.805	41.92
559.147	42.11
559.488	42.33
559.83	42.56
560.171	42.75
560.513	42.96
560.854	43.14
561.196	43.32
561.537	43.52
561.878	43.74
562.22	43.93
562.561	44.11
562.902	44.26
563.243	44.42
563.584	44.58
563.925	44.74
564.266	44.89
564.607	45.06
564.948	45.18
565.289	45.23
565.63	45.31
565.971	45.42
566.312	45.6
566.653	45.71
566.993	45.85
567.334	46.01
567.675	46.08
568.015	46.22
568.356	46.38
568.696	46.51
569.037	46.63
569.377	46.76
569.718	46.92
570.058	47.05
570.398	47.2
570.739	47.34
571.079	47.47
571.419	47.61
571.759	47.71
572.099	47.79
572.439	47.95
572.779	48.05
573.119	48.17
573.459	48.28
573.799	48.36
574.139	48.39
574.479	48.48
574.819	48.6
575.158	48.72
575.498	48.83
575.838	48.95
576.177	49.02
576.517	49.1
576.856	49.21
577.196	49.34
577.535	49.37
577.875	49.47
578.214	49.58
578.553	49.62
578.893	49.69
579.232	49.78
579.571	49.84
579.91	50.01
580.25	50.1
580.589	50.11
580.928	50.27
581.267	50.42
581.606	50.48
581.945	50.61
582.283	50.68
582.622	50.72
582.961	50.74
583.3	50.87
583.639	50.89
583.977	50.95
584.316	51.05
584.654	51.18
584.993	51.23
585.332	51.33
585.67	51.39
586.008	51.5
586.347	51.53
586.685	51.6
587.024	51.6
587.362	51.64
587.7	51.76
588.038	51.73
588.376	51.81
588.715	51.85
589.053	51.92
589.391	51.93
589.729	52.03
590.067	52.21
590.404	52.25
590.742	52.38
591.08	52.39
591.418	52.41
591.756	52.39
592.093	52.46
592.431	52.51
592.769	52.63
593.106	52.65
593.444	52.8
593.781	52.9
594.119	52.95
594.456	52.96
594.793	53.03
595.131	53.13
595.468	53.15
595.805	53.27
596.143	53.27
596.48	53.31
596.817	53.33
597.154	53.31
597.491	53.37
597.828	53.35
598.165	53.37
598.502	53.41
598.839	53.47
599.176	53.51
599.512	53.54
599.849	53.53
600.186	53.58
600.523	53.54
600.859	53.55
601.196	53.54
601.532	53.65
601.869	53.69
602.205	53.76
602.542	53.85
602.878	53.84
603.215	53.92
603.551	53.91
603.887	54
604.223	54.02
604.56	54.02
604.896	54.06
605.232	54.04
605.568	54.12
605.904	54.19
606.24	54.21
606.576	54.22
606.912	54.27
607.248	54.34
607.583	54.46
607.919	54.53
608.255	54.58
608.591	54.62
608.926	54.67
609.262	54.65
609.597	54.71
609.933	54.67
610.268	54.65
610.604	54.69
610.939	54.69
611.275	54.72
611.61	54.78
611.945	54.81
612.281	54.96
612.616	54.94
612.951	54.99
613.286	54.96
613.621	54.97
613.956	54.96
614.291	54.87
614.626	54.8
614.961	54.78
615.296	54.85
615.631	54.77
615.966	54.66
616.3	54.67
616.635	54.58
616.97	54.71
617.304	54.73
617.639	54.81
617.973	54.85
618.308	54.85
618.642	54.77
618.977	54.75
619.311	54.71
619.646	54.79
619.98	54.74
620.314	54.85
620.648	54.87
620.983	54.91
621.317	54.98
621.651	55.05
621.985	55.09
622.319	55.1
622.653	55.13
622.987	55.2
623.321	55.26
623.655	55.43
623.988	55.47
624.322	55.53
624.656	55.55
624.99	55.47
625.323	55.46
625.657	55.48
625.99	55.47
626.324	55.49
626.657	55.47
626.991	55.54
627.324	55.5
627.658	55.52
627.991	55.49
628.324	55.51
628.657	55.54
628.991	55.49
629.324	55.5
629.657	55.52
629.99	55.58
630.323	55.52
630.656	55.51
630.989	55.51
631.322	55.46
631.655	55.46
631.987	55.44
632.32	55.55
632.653	55.59
632.986	55.72
633.318	55.77
633.651	55.76
633.984	55.74
634.316	55.66
634.649	55.7
634.981	55.77
635.313	55.8
635.646	55.67
635.978	55.72
636.31	55.77
636.643	55.86
636.975	55.84
637.307	55.87
637.639	55.77
637.971	55.79
638.303	55.72
638.635	55.63
638.967	55.75
639.299	55.66
639.631	55.67
639.963	55.58
640.295	55.66
640.626	55.65
640.958	55.62
641.29	55.8
641.621	55.8
641.953	55.85
642.285	55.89
642.616	56
642.948	55.89
643.279	55.86
643.61	55.74
643.942	55.63
644.273	55.7
644.604	55.64
644.936	55.6
645.267	55.79
645.598	55.79
645.929	55.79
646.26	55.85
646.591	55.97
646.922	55.94
647.253	55.83
647.584	55.85
647.915	55.83
648.245	55.72
648.576	55.75
648.907	55.72
649.238	55.72
649.568	55.8
649.899	55.9
650.229	55.92
650.56	55.88
650.89	55.99
651.221	55.98
651.551	56.06
651.882	56.04
652.212	55.95
652.542	56.01
652.872	55.91
653.203	55.97
653.533	55.93
653.863	56.02
654.193	56.1
654.523	56.16
654.853	56.23
655.183	56.28
655.513	56.44
655.843	56.47
656.172	56.43
656.502	56.42
656.832	56.47
657.162	56.46
657.491	56.69
657.821	56.75
658.15	56.81
658.48	56.86
658.809	56.88
659.139	56.95
659.468	56.98
659.798	57.12
660.127	57.05
660.456	57.06
660.785	57.07
661.115	57.06
661.444	56.98
661.773	56.91
662.102	56.92
662.431	56.77
662.76	56.77
663.089	56.74
663.418	56.67
663.747	56.62
664.076	56.6
664.404	56.46
664.733	56.39
665.062	56.23
665.39	56.14
665.719	56.08
666.048	56.09
666.376	56
666.705	55.97
667.033	55.86
667.362	55.83
667.69	55.68
668.018	55.56
668.347	55.57
668.675	55.67
669.003	55.64
669.331	55.63
669.659	55.6
669.987	55.69
670.315	55.68
670.643	55.68
670.971	55.73
671.299	55.67
671.627	55.64
671.955	55.64
672.283	55.61
672.61	55.65
672.938	55.68
673.266	55.76
673.593	55.78
673.921	55.99
674.249	55.87
674.576	56.1
674.904	56.2
675.231	56.22
675.558	56.13
675.886	56.16
676.213	56.2
676.54	56.23
676.867	56.25
677.195	56.3
677.522	56.26
677.849	56.39
678.176	56.43
678.503	56.49
678.83	56.47
679.157	56.53
679.484	56.63
679.81	56.53
680.137	56.57
680.464	56.61
680.791	56.45
681.117	56.45
681.444	56.27
681.771	56.29
682.097	56.31
682.424	56.35
682.75	56.37
683.077	56.34
683.403	56.27
683.729	56.16
684.056	56.13
684.382	56.11
684.708	56.01
685.034	56.17
685.36	56.13
685.686	56.23
686.012	56.21
686.339	56.18
686.664	56.18
686.99	56.19
687.316	56.14
687.642	56.37
687.968	56.42
688.294	56.51
688.619	56.56
688.945	56.45
689.271	56.55
689.596	56.51
689.922	56.43
690.247	56.66
690.573	56.71
690.898	56.76
691.224	56.81
691.549	56.89
691.874	56.76
692.2	56.69
692.525	56.66
692.85	56.58
693.175	56.6
693.5	56.73
693.825	56.71
694.15	56.54
694.475	56.42
694.8	56.47
695.125	56.51
695.45	56.36
695.775	56.41
696.099	56.43
696.424	56.54
696.749	56.62
697.073	56.52
697.398	56.57
697.723	56.67
698.047	56.69
698.372	56.63
698.696	56.68
699.02	56.76
699.345	56.76
699.669	56.93
699.993	56.78
700.318	56.78
700.642	56.77
700.966	56.74
701.29	56.75
701.614	56.74
701.938	56.75
702.262	56.71
702.586	56.68
702.91	56.5
703.234	56.4
703.557	56.39
703.881	56.46
704.205	56.44
704.529	56.34
704.852	56.39
705.176	56.37
705.499	56.33
705.823	56.38
706.146	56.3
706.47	56.17
706.793	56.33
707.117	56.18
707.44	56.2
707.763	56.29
708.086	56.24
708.409	56.25
708.733	56.21
709.056	56.29
709.379	56.35
709.702	56.54
710.025	56.63
710.348	56.76
710.671	56.69
710.993	56.84
711.316	56.74
711.639	56.74
711.962	56.88
712.284	56.73
712.607	56.8
712.93	56.77
713.252	56.76
713.575	56.85
713.897	56.99
714.22	56.96
714.542	57.2
714.864	57.24
715.187	57.35
715.509	57.31
715.831	57.39
716.153	57.35
716.475	57.37
716.798	57.24
717.12	57.1
717.442	57.08
717.764	56.91
718.085	57.01
718.407	56.87
718.729	56.68
719.051	56.83
719.373	56.87
719.695	57.07
720.016	57.15
720.338	57.04
720.659	56.89
720.981	57.02
721.302	56.79
721.624	56.78
721.945	56.66
722.267	56.89
722.588	56.89
722.909	57.14
723.231	57.09
723.552	57.17
723.873	57
724.194	56.87
724.515	56.73
724.836	56.68
725.157	56.84
725.478	57.02
725.799	56.93
726.12	56.69
726.441	56.55
726.762	56.51
727.083	56.58
727.403	56.47
727.724	56.4
728.045	56.31
728.365	56.41
728.686	56.38
729.006	56.27
729.327	56.12
729.647	56.04
729.967	55.85
730.288	55.68
730.608	55.78
730.928	55.93
731.249	56.09
731.569	56.09
731.889	56.01
732.209	55.76
732.529	55.75
732.849	55.77
733.169	55.66
733.489	55.56
733.809	55.24
734.129	55.43
734.448	55.27
734.768	55.26
735.088	55.24
735.408	55.35
735.727	55.33
736.047	55.34
736.366	55.29
736.686	55.45
737.005	55.66
737.325	55.74
737.644	55.79
737.963	55.7
738.283	55.76
738.602	56.04
738.921	56.19
739.24	56.13
739.56	56.11
739.879	56.18
740.198	56.08
740.517	56.36
740.836	56.25
741.155	56.43
741.473	56.5
741.792	56.5
742.111	56.59
742.43	56.72
742.748	56.77
743.067	56.66
743.386	56.76
743.704	56.84
744.023	57
744.341	56.92
744.66	56.92
744.978	56.94
745.297	56.69
745.615	56.66
745.933	56.74
746.252	56.63
746.57	56.53
746.888	56.63
747.206	56.52
747.524	56.5
747.842	56.31
748.16	56.31
748.478	56.35
748.796	56.05
749.114	55.95
749.432	55.86
749.749	55.68
750.067	55.47
750.385	55.32
750.703	55.11
751.02	55.05
751.338	55.18
751.655	55.32
751.973	55.19
752.29	55.22
752.608	55.23
752.925	55.35
753.242	55.63
753.56	55.8
753.877	55.75
754.194	56
754.511	56.26
754.828	56.29
755.145	56.13
755.462	56.58
755.779	56.3
756.096	56.7
756.413	57.01
756.73	57.06
757.047	57.5
757.364	57.24
757.68	57.1
757.997	57.18
758.314	57.09
758.63	57.29
758.947	57.14
759.264	57.15
759.58	57.35
759.896	57.38
760.213	57.37
760.529	57.09
760.846	57.05
761.162	57.18
761.478	57.15
761.794	57.08
762.11	56.8
762.426	56.87
762.743	56.67
763.059	56.79
763.375	56.92
763.69	56.64
764.006	56.86
764.322	56.85
764.638	56.76
764.954	56.6
765.27	56.64
765.585	56.8
765.901	56.8
766.216	56.83
766.532	56.8
766.848	56.76
767.163	57.17
767.478	57
767.794	56.91
768.109	56.86
768.424	56.93
768.74	56.78
769.055	56.94
769.37	57
769.685	57.06
770	56.6
770.315	56.58
770.63	56.78
770.945	57.03
771.26	56.82
771.575	57.03
771.89	56.79
772.205	56.94
772.52	56.9
772.834	56.88
773.149	57.1
773.464	56.68
773.778	56.16
774.093	55.93
774.407	56.03
774.722	56.27
775.036	56.4
775.351	56.57
775.665	56.48
775.979	56.35
776.293	55.99
776.608	56.2
776.922	56.03
777.236	55.54
777.55	55.44
777.864	55.41
778.178	55.72
778.492	56.04
778.806	56.11
779.12	55.68
779.434	55.61
779.747	55.26
780.061	55.6
780.375	55.82
780.689	56.57
781.002	56.37
781.316	56.34
781.629	56.28
781.943	56.01
782.256	56.05
782.57	56.31
782.883	56.23
783.196	56.5
783.51	56.84
783.823	57.07
784.136	56.99
784.449	57.14
784.762	56.85
785.075	56.81
785.388	56.25
785.701	56.76
786.014	56.36
786.327	56.11
786.64	56.2
786.953	56.2
787.266	55.99
787.578	55.55
787.891	55.18
788.204	55.28
788.516	55.67
788.829	56.15
789.141	56.16
789.454	56.37
789.766	56.6
790.079	56.43
790.391	56.16
790.703	55.95
791.016	56.29
791.328	56.52
791.64	56.17
791.952	56.34
792.264	56.45
792.576	56.8
792.888	56.97
793.2	56.73
793.512	57.22
793.824	57.05
794.136	57.44
794.448	57.85
794.76	57.64
795.071	57.71
795.383	56.85
795.695	56.24
796.006	56.39
796.318	56.27
796.629	56.14
796.941	56.73
797.252	57.3
797.564	56.98
797.875	56.48
798.186	56.82
798.497	56.74
798.809	56.52
799.12	56.41
799.431	56.38
799.742	56.71
800.053	56.42
800.364	56.9
800.675	56.36
800.986	56.51
801.297	56.25
801.608	56.22
801.918	56.57
802.229	56.52
802.54	56.44
802.851	56.13
803.161	56.02
803.472	55.37
803.782	55.59
804.093	55.63
804.403	55.85
804.714	55.98
805.024	56.14
805.334	56.12
805.645	55.88
805.955	55.82
806.265	56.37
806.575	57.04
806.885	55.75
807.195	56.76
807.505	56.3
807.815	56.7
808.125	56.51
808.435	56.22
808.745	56.32
809.055	55.94
809.365	56.59
809.674	56.94
809.984	57.43
810.294	56.93
810.603	57.23
810.913	57.21
811.222	56.37
811.532	55.73
811.841	55.6
812.151	55.69
812.46	55.94
812.769	55.39
813.079	54.78
813.388	55.85
813.697	55.31
814.006	55.9
814.315	55.77
814.624	55.9
814.933	56.16
815.242	55.87
815.551	56.28
815.86	56.29
816.169	55.67
816.478	55.48
816.786	55.11
817.095	54.8
817.404	55.3
817.712	55.24
818.021	55.32
818.33	55.18
818.638	55.16
818.947	55.53
819.255	55.65
819.563	55.88
819.872	55.57
820.18	55.87
820.488	55.75
820.796	56.23
821.105	56.14
821.413	56.38
821.721	56.84
822.029	56.82
822.337	56.64
822.645	56.83
822.953	56.92
823.26	57.15
823.568	57.12
823.876	56.92
824.184	57.12
824.491	57.24
824.799	57.35
825.107	57.46
825.414	57.42
825.722	57.45
826.029	57.43
826.337	57.62
826.644	57.51
826.951	57.63
827.259	57.56
827.566	57.73
827.873	57.77
828.18	57.84
828.488	57.8
828.795	57.92
829.102	57.8
829.409	57.81
829.716	57.54
830.023	57.55
830.329	57.39
830.636	57.14
830.943	57.48
831.25	57.77
831.557	57.43
831.863	57.65
832.17	57.48
832.476	57.38
832.783	56.94
833.089	56.88
833.396	56.99
833.702	56.53
834.009	56.06
834.315	55.38
834.621	55.24
834.928	55.4
835.234	55.16
835.54	55.46
835.846	55.48
836.152	55.3
836.458	55.67
836.764	56.42
837.07	56.35
837.376	55.61
837.682	55.17
837.988	55.27
838.293	54.91
838.599	55.38
838.905	55.24
839.211	55.64
839.516	56.37
839.822	55.88
840.127	55.57
840.433	55.97
840.738	55.94
841.044	55.33
841.349	54.78
841.654	54.63
841.959	54.41
842.265	53.2
842.57	53.65
842.875	53.18
843.18	52.7
843.485	53.41
843.79	53.71
844.095	53.53
844.4	52.37
844.705	52.56
845.01	52.17
845.315	51.82
845.619	51.71
845.924	50.12
846.229	49.37
846.533	50.73
846.838	50.3
847.142	51.08
847.447	51.26
847.751	51.79
848.056	51.63
848.36	51.06
848.664	52.19
848.969	51.84
849.273	50.71
849.577	49.67
849.881	50.17
850.185	50.47
850.489	50.24
850.794	51.84
851.097	53.25
851.401	51.43
851.705	52.69
852.009	51.92
852.313	51.98
852.617	53.64
852.92	54.2
853.224	54.95
853.528	55.03
853.831	55.38
854.135	54.56
854.438	54.48
854.742	55.14
855.045	54.85
855.349	54.81
855.652	55.71
855.955	56.37
856.259	56.58
856.562	55.3
856.865	54.53
857.168	54.35
857.471	52.63
857.774	52.86
858.077	52.95
858.38	54.76
858.683	55.04
858.986	56.19
859.289	54.94
859.592	54.14
859.894	54.7
860.197	53.03
860.5	53.71
860.802	52.34
861.105	52.46
861.407	51.49
861.71	51.96
862.012	52.78
862.315	54.05
862.617	52.28
862.919	53.45
863.222	53.57
863.524	52.93
863.826	50.25
864.128	49.71
864.43	50.47
864.732	49.84
865.034	49.8
865.336	47.4
865.638	46.92
865.94	48.44
866.242	48.1
866.544	49.02
866.846	49.79
867.147	52.06
867.449	50.05
867.751	51.07
868.052	50.13
868.354	50.18
868.655	48.07
868.957	46.42
869.258	46.03
869.56	46.15
869.861	46.85
870.162	49.54
870.463	50.85
870.765	49.76
871.066	49.99
871.367	50.88
871.668	51.26
871.969	51.04
872.27	50.52
872.571	49.85
872.872	49.09
873.173	48.91
873.473	50.29
873.774	51.54
874.075	52.38
874.376	51.26
874.676	47.99
874.977	46.95
875.277	50.27
875.578	52.16
875.878	53.56
876.179	54.33
876.479	53.82
876.78	54.05
877.08	53.17
877.38	51.92
877.68	51.2
877.981	50.37
878.281	50.21
878.581	48.84
