Data from BU58137_Reflection_00001.txt Node
Date: Mon Nov 18 16:39:30 EST 2019
User: vgr7
Spectrometer: USB2G7710
Scans to average: 3
Trigger mode: 4
Integration Time (sec): 2.000000E-2
Electric dark correction enabled: true
Boxcar width: 10
XAxis mode: Wavelengths
Number of Pixels in Spectrum: 2048
>>>>>Begin Spectral Data<<<<<
177.721	-113.64
178.105	-29.69
178.488	24.04
178.871	225
179.254	225.96
179.636	-303.06
180.019	157.41
180.402	227.27
180.785	74.73
181.168	121.47
181.55	-97.86
181.933	128.57
182.316	111.35
182.698	227.32
183.081	138.34
183.463	12.14
183.846	55.29
184.228	37.07
184.611	-6.98
184.993	-18.83
185.376	-7.89
185.758	-50.52
186.14	78.99
186.522	132.85
186.904	824.55
187.287	322.04
187.669	-552.51
188.051	279.7
188.433	-155.58
188.815	-134.75
189.197	-39.17
189.579	-44.91
189.961	-8.91
190.342	-36.88
190.724	-25.14
191.106	-9.77
191.488	-14.42
191.869	-20.15
192.251	-31.01
192.633	-26.78
193.014	-64.82
193.396	-83.83
193.777	-94.35
194.159	-78.01
194.54	-45.67
194.922	-13.51
195.303	-25.71
195.684	-32.32
196.065	-22.79
196.447	-20.47
196.828	-21.7
197.209	-29.99
197.59	-45.13
197.971	-45.48
198.352	-44.18
198.733	-37.68
199.114	-42.65
199.495	-48.26
199.876	-49.52
200.257	-40.6
200.638	-30.39
201.018	-14.53
201.399	-11.94
201.78	-10.37
202.16	-10.33
202.541	-21.58
202.922	-61.5
203.302	-63.95
203.683	-42.63
204.063	-74.97
204.444	-102.24
204.824	-103.06
205.204	-87.19
205.585	-37.94
205.965	-41.85
206.345	-41
206.725	-30.28
207.106	-53.36
207.486	-71.36
207.866	-52
208.246	-45.16
208.626	-56.54
209.006	-48.99
209.386	-66.33
209.766	-77.32
210.145	-60.52
210.525	-55.39
210.905	-42.12
211.285	-36.17
211.664	-51.26
212.044	-35.75
212.424	-19.57
212.803	-26.59
213.183	-27.93
213.562	-38.76
213.942	-34.46
214.321	-32.86
214.701	-50.38
215.08	-36.87
215.459	-24.12
215.838	-22.52
216.218	-16.74
216.597	-6.52
216.976	-1.72
217.355	2.97
217.734	7.19
218.113	11.2
218.492	1.18
218.871	-1.64
219.25	7.5
219.629	-6.09
220.008	-21.2
220.387	-28.41
220.766	-10.68
221.144	-24.77
221.523	-39.01
221.902	-39.88
222.28	-46.23
222.659	-19.32
223.037	-16.66
223.416	-20.49
223.794	-30.12
224.173	-38.94
224.551	-27.33
224.929	-35.8
225.308	-23.83
225.686	-21.06
226.064	-15.28
226.442	-6.33
226.821	-2.71
227.199	-3.07
227.577	1.27
227.955	1.44
228.333	2.33
228.711	2.26
229.089	7.35
229.467	8.46
229.845	7.45
230.222	9.05
230.6	5.72
230.978	5.99
231.356	5.24
231.733	7.04
232.111	6.64
232.488	6.19
232.866	7.48
233.243	8.98
233.621	7.73
233.998	6.59
234.376	4.99
234.753	5.15
235.13	6.09
235.508	6.09
235.885	6.57
236.262	3.76
236.639	2.41
237.016	1.01
237.393	1.75
237.77	3.37
238.147	2.54
238.524	2.93
238.901	2.79
239.278	3.3
239.655	3.98
240.032	4.17
240.409	4.01
240.785	3.86
241.162	3.83
241.539	3.86
241.915	3.74
242.292	3.54
242.668	3.54
243.045	3.39
243.421	3.51
243.798	3.2
244.174	3.47
244.551	3.87
244.927	3.98
245.303	4.1
245.679	4.14
246.056	4.33
246.432	4.3
246.808	4.45
247.184	3.86
247.56	3.7
247.936	3.71
248.312	3.63
248.688	3.87
249.064	3.49
249.44	3.75
249.815	3.73
250.191	3.75
250.567	3.67
250.943	3.44
251.318	3.42
251.694	3.56
252.069	3.66
252.445	3.44
252.82	3.41
253.196	3.25
253.571	2.66
253.947	2.71
254.322	3.19
254.697	2.86
255.073	3.27
255.448	3.21
255.823	3.47
256.198	3.61
256.573	3.49
256.948	3.76
257.323	3.8
257.698	3.87
258.073	3.95
258.448	3.99
258.823	4.19
259.198	4.14
259.573	4.28
259.948	4.16
260.322	4.17
260.697	4.14
261.072	4.16
261.446	4.28
261.821	4.22
262.195	4.17
262.57	4.27
262.944	4.34
263.319	4.28
263.693	4.04
264.067	4.12
264.442	4.19
264.816	4.25
265.19	4.13
265.564	4.33
265.938	4.28
266.313	4.5
266.687	4.56
267.061	4.52
267.435	4.39
267.809	4.35
268.183	4.17
268.556	4
268.93	4.14
269.304	4.23
269.678	4.26
270.051	4.24
270.425	4.28
270.799	4.28
271.172	4.41
271.546	4.39
271.919	4.2
272.293	4.12
272.666	4.12
273.04	4.2
273.413	4.07
273.787	4.24
274.16	4.19
274.533	4.27
274.906	4.21
275.279	3.99
275.653	4.08
276.026	4.3
276.399	4.44
276.772	4.29
277.145	4.15
277.518	4.13
277.891	3.94
278.263	3.86
278.636	3.94
279.009	3.75
279.382	3.96
279.755	4.09
280.127	4.13
280.5	4.14
280.872	3.99
281.245	3.99
281.617	3.98
281.99	4.06
282.362	4.01
282.735	3.99
283.107	4.23
283.479	4.36
283.852	4.31
284.224	4.31
284.596	4.38
284.968	4.43
285.34	4.45
285.713	4.33
286.085	4.43
286.457	4.51
286.829	4.59
287.201	4.54
287.572	4.35
287.944	4.32
288.316	4.32
288.688	4.28
289.06	4.21
289.431	4.03
289.803	3.91
290.175	3.88
290.546	4.02
290.918	3.87
291.289	3.76
291.661	3.86
292.032	3.98
292.403	4.05
292.775	4.05
293.146	3.83
293.517	3.97
293.889	3.94
294.26	3.83
294.631	3.92
295.002	3.86
295.373	4.02
295.744	4.07
296.115	4.18
296.486	4.2
296.857	4.33
297.228	4.43
297.599	4.48
297.97	4.52
298.34	4.52
298.711	4.58
299.082	4.53
299.452	4.47
299.823	4.46
300.194	4.36
300.564	4.46
300.935	4.7
301.305	4.74
301.676	4.68
302.046	4.66
302.416	4.57
302.787	4.66
303.157	4.69
303.527	4.67
303.897	4.48
304.267	4.72
304.637	4.73
305.008	4.66
305.378	4.78
305.748	4.84
306.117	4.67
306.487	4.67
306.857	4.67
307.227	4.57
307.597	4.54
307.967	4.53
308.336	4.49
308.706	4.42
309.076	4.33
309.445	4.39
309.815	4.33
310.184	4.31
310.554	4.36
310.923	4.45
311.293	4.49
311.662	4.56
312.031	4.41
312.401	4.39
312.77	4.51
313.139	4.41
313.508	4.21
313.877	4.25
314.246	4.39
314.616	4.41
314.985	4.48
315.353	4.42
315.722	4.55
316.091	4.57
316.46	4.53
316.829	4.57
317.198	4.53
317.567	4.63
317.935	4.69
318.304	4.67
318.672	4.53
319.041	4.56
319.41	4.53
319.778	4.49
320.147	4.38
320.515	4.31
320.883	4.26
321.252	4.39
321.62	4.4
321.988	4.33
322.357	4.42
322.725	4.34
323.093	4.41
323.461	4.27
323.829	4.21
324.197	4.34
324.565	4.62
324.933	4.71
325.301	4.75
325.669	4.76
326.037	4.72
326.405	4.69
326.772	4.68
327.14	4.72
327.508	4.8
327.875	4.83
328.243	4.85
328.61	4.91
328.978	4.85
329.346	4.9
329.713	4.74
330.08	4.72
330.448	4.72
330.815	4.68
331.182	4.8
331.55	4.85
331.917	4.83
332.284	4.71
332.651	4.65
333.018	4.62
333.385	4.54
333.752	4.6
334.119	4.69
334.486	4.64
334.853	4.66
335.22	4.59
335.587	4.52
335.954	4.53
336.32	4.41
336.687	4.41
337.054	4.43
337.42	4.5
337.787	4.49
338.153	4.57
338.52	4.5
338.886	4.43
339.253	4.37
339.619	4.37
339.986	4.2
340.352	4.23
340.718	4.23
341.084	4.24
341.451	4.3
341.817	4.25
342.183	4.21
342.549	4.1
342.915	4.16
343.281	4.24
343.647	4.16
344.013	4.3
344.379	4.3
344.745	4.29
345.11	4.31
345.476	4.23
345.842	4.25
346.208	4.32
346.573	4.37
346.939	4.47
347.304	4.4
347.67	4.48
348.035	4.48
348.401	4.38
348.766	4.47
349.132	4.44
349.497	4.44
349.862	4.54
350.228	4.58
350.593	4.55
350.958	4.47
351.323	4.56
351.688	4.47
352.053	4.5
352.418	4.5
352.783	4.52
353.148	4.64
353.513	4.56
353.878	4.55
354.243	4.49
354.608	4.46
354.972	4.48
355.337	4.53
355.702	4.48
356.066	4.56
356.431	4.43
356.795	4.4
357.16	4.39
357.524	4.25
357.889	4.28
358.253	4.34
358.618	4.49
358.982	4.5
359.346	4.45
359.71	4.48
360.075	4.48
360.439	4.51
360.803	4.49
361.167	4.48
361.531	4.49
361.895	4.52
362.259	4.47
362.623	4.48
362.987	4.44
363.351	4.5
363.714	4.51
364.078	4.56
364.442	4.52
364.806	4.51
365.169	4.6
365.533	4.6
365.896	4.56
366.26	4.5
366.623	4.45
366.987	4.54
367.35	4.57
367.714	4.59
368.077	4.48
368.44	4.46
368.803	4.51
369.167	4.46
369.53	4.46
369.893	4.47
370.256	4.46
370.619	4.47
370.982	4.46
371.345	4.47
371.708	4.45
372.071	4.47
372.434	4.47
372.797	4.49
373.159	4.43
373.522	4.46
373.885	4.51
374.247	4.57
374.61	4.57
374.973	4.53
375.335	4.5
375.698	4.58
376.06	4.59
376.423	4.63
376.785	4.68
377.147	4.66
377.51	4.68
377.872	4.68
378.234	4.72
378.596	4.74
378.958	4.73
379.321	4.77
379.683	4.81
380.045	4.83
380.407	4.77
380.769	4.83
381.13	4.82
381.492	4.75
381.854	4.72
382.216	4.7
382.578	4.74
382.939	4.76
383.301	4.73
383.663	4.71
384.024	4.65
384.386	4.67
384.747	4.73
385.109	4.77
385.47	4.74
385.832	4.68
386.193	4.67
386.554	4.64
386.916	4.62
387.277	4.6
387.638	4.59
387.999	4.58
388.36	4.56
388.721	4.56
389.082	4.59
389.443	4.54
389.804	4.54
390.165	4.51
390.526	4.53
390.887	4.53
391.248	4.56
391.609	4.59
391.969	4.55
392.33	4.56
392.691	4.56
393.051	4.53
393.412	4.55
393.772	4.53
394.133	4.56
394.493	4.54
394.854	4.55
395.214	4.57
395.574	4.6
395.935	4.61
396.295	4.6
396.655	4.57
397.015	4.61
397.376	4.61
397.736	4.63
398.096	4.64
398.456	4.62
398.816	4.63
399.176	4.61
399.535	4.65
399.895	4.58
400.255	4.6
400.615	4.63
400.975	4.64
401.334	4.65
401.694	4.64
402.054	4.64
402.413	4.62
402.773	4.6
403.132	4.6
403.492	4.6
403.851	4.64
404.211	4.65
404.57	4.64
404.929	4.66
405.288	4.67
405.648	4.64
406.007	4.64
406.366	4.64
406.725	4.68
407.084	4.66
407.443	4.68
407.802	4.66
408.161	4.65
408.52	4.63
408.879	4.62
409.238	4.64
409.596	4.68
409.955	4.73
410.314	4.75
410.673	4.75
411.031	4.72
411.39	4.69
411.748	4.7
412.107	4.71
412.465	4.7
412.824	4.7
413.182	4.68
413.54	4.72
413.899	4.73
414.257	4.73
414.615	4.73
414.974	4.71
415.332	4.7
415.69	4.72
416.048	4.74
416.406	4.77
416.764	4.78
417.122	4.77
417.48	4.74
417.838	4.74
418.195	4.77
418.553	4.79
418.911	4.77
419.269	4.77
419.626	4.75
419.984	4.76
420.342	4.76
420.699	4.78
421.057	4.76
421.414	4.73
421.772	4.73
422.129	4.73
422.486	4.75
422.844	4.76
423.201	4.75
423.558	4.76
423.915	4.74
424.273	4.74
424.63	4.72
424.987	4.73
425.344	4.72
425.701	4.7
426.058	4.7
426.415	4.72
426.772	4.71
427.128	4.71
427.485	4.69
427.842	4.68
428.199	4.66
428.555	4.68
428.912	4.7
429.269	4.68
429.625	4.68
429.982	4.66
430.338	4.66
430.695	4.66
431.051	4.63
431.407	4.63
431.764	4.62
432.12	4.64
432.476	4.62
432.832	4.6
433.189	4.58
433.545	4.58
433.901	4.57
434.257	4.58
434.613	4.61
434.969	4.62
435.325	4.61
435.681	4.6
436.036	4.61
436.392	4.63
436.748	4.64
437.104	4.63
437.459	4.63
437.815	4.63
438.171	4.65
438.526	4.66
438.882	4.67
439.237	4.69
439.593	4.71
439.948	4.72
440.304	4.74
440.659	4.75
441.014	4.74
441.369	4.72
441.725	4.74
442.08	4.72
442.435	4.72
442.79	4.73
443.145	4.74
443.5	4.73
443.855	4.72
444.21	4.72
444.565	4.73
444.92	4.73
445.275	4.73
445.629	4.72
445.984	4.71
446.339	4.69
446.693	4.66
447.048	4.65
447.403	4.66
447.757	4.65
448.112	4.63
448.466	4.65
448.82	4.67
449.175	4.65
449.529	4.66
449.883	4.66
450.238	4.64
450.592	4.64
450.946	4.62
451.3	4.61
451.654	4.62
452.008	4.61
452.362	4.61
452.716	4.61
453.07	4.61
453.424	4.63
453.778	4.65
454.132	4.67
454.486	4.69
454.839	4.69
455.193	4.69
455.547	4.7
455.9	4.71
456.254	4.72
456.607	4.74
456.961	4.73
457.314	4.74
457.668	4.76
458.021	4.77
458.375	4.78
458.728	4.79
459.081	4.78
459.434	4.78
459.787	4.79
460.141	4.79
460.494	4.8
460.847	4.8
461.2	4.78
461.553	4.78
461.906	4.77
462.259	4.76
462.611	4.76
462.964	4.75
463.317	4.75
463.67	4.75
464.022	4.72
464.375	4.72
464.728	4.73
465.08	4.72
465.433	4.72
465.785	4.72
466.138	4.71
466.49	4.73
466.843	4.72
467.195	4.73
467.547	4.73
467.899	4.72
468.252	4.71
468.604	4.73
468.956	4.72
469.308	4.72
469.66	4.72
470.012	4.74
470.364	4.76
470.716	4.76
471.068	4.75
471.42	4.78
471.772	4.81
472.123	4.8
472.475	4.8
472.827	4.82
473.178	4.81
473.53	4.79
473.882	4.79
474.233	4.81
474.585	4.78
474.936	4.78
475.288	4.79
475.639	4.78
475.99	4.78
476.342	4.8
476.693	4.81
477.044	4.84
477.395	4.84
477.746	4.84
478.097	4.85
478.448	4.84
478.8	4.84
479.15	4.82
479.501	4.82
479.852	4.83
480.203	4.84
480.554	4.86
480.905	4.88
481.255	4.89
481.606	4.89
481.957	4.91
482.307	4.92
482.658	4.92
483.009	4.92
483.359	4.92
483.709	4.93
484.06	4.92
484.41	4.93
484.761	4.92
485.111	4.92
485.461	4.92
485.811	4.91
486.162	4.91
486.512	4.92
486.862	4.93
487.212	4.93
487.562	4.94
487.912	4.95
488.262	4.94
488.612	4.94
488.961	4.94
489.311	4.93
489.661	4.94
490.011	4.94
490.36	4.94
490.71	4.96
491.06	4.96
491.409	4.95
491.759	4.94
492.108	4.95
492.458	4.95
492.807	4.94
493.157	4.96
493.506	4.96
493.855	4.96
494.204	4.95
494.554	4.95
494.903	4.93
495.252	4.92
495.601	4.94
495.95	4.94
496.299	4.93
496.648	4.91
496.997	4.93
497.346	4.93
497.695	4.94
498.043	4.94
498.392	4.93
498.741	4.94
499.09	4.96
499.438	4.97
499.787	4.98
500.135	5.03
500.484	5.04
500.832	5.06
501.181	5.05
501.529	5.07
501.878	5.07
502.226	5.06
502.574	5.07
502.923	5.07
503.271	5.05
503.619	5.07
503.967	5.09
504.315	5.06
504.663	5.08
505.011	5.07
505.359	5.07
505.707	5.07
506.055	5.08
506.403	5.08
506.751	5.09
507.098	5.09
507.446	5.08
507.794	5.1
508.141	5.1
508.489	5.13
508.837	5.13
509.184	5.13
509.531	5.14
509.879	5.15
510.226	5.17
510.574	5.17
510.921	5.17
511.268	5.17
511.616	5.19
511.963	5.18
512.31	5.19
512.657	5.23
513.004	5.23
513.351	5.24
513.698	5.25
514.045	5.24
514.392	5.24
514.739	5.23
515.086	5.24
515.432	5.23
515.779	5.23
516.126	5.24
516.473	5.26
516.819	5.27
517.166	5.28
517.512	5.28
517.859	5.28
518.205	5.3
518.552	5.31
518.898	5.33
519.245	5.31
519.591	5.31
519.937	5.28
520.283	5.3
520.629	5.31
520.976	5.31
521.322	5.31
521.668	5.33
522.014	5.34
522.36	5.34
522.706	5.34
523.052	5.34
523.398	5.35
523.743	5.35
524.089	5.34
524.435	5.32
524.781	5.34
525.126	5.37
525.472	5.38
525.817	5.38
526.163	5.36
526.509	5.38
526.854	5.39
527.199	5.39
527.545	5.38
527.89	5.38
528.235	5.4
528.581	5.41
528.926	5.38
529.271	5.39
529.616	5.38
529.961	5.37
530.306	5.39
530.651	5.37
530.996	5.39
531.341	5.39
531.686	5.39
532.031	5.38
532.376	5.37
532.721	5.37
533.065	5.37
533.41	5.38
533.755	5.38
534.099	5.38
534.444	5.39
534.788	5.39
535.133	5.37
535.477	5.38
535.822	5.36
536.166	5.37
536.51	5.38
536.855	5.38
537.199	5.38
537.543	5.36
537.887	5.39
538.231	5.38
538.576	5.37
538.92	5.4
539.264	5.42
539.608	5.42
539.951	5.41
540.295	5.43
540.639	5.42
540.983	5.42
541.327	5.41
541.671	5.42
542.014	5.43
542.358	5.43
542.701	5.43
543.045	5.44
543.389	5.47
543.732	5.47
544.075	5.5
544.419	5.51
544.762	5.51
545.105	5.5
545.449	5.51
545.792	5.53
546.135	5.53
546.478	5.54
546.821	5.54
547.165	5.55
547.508	5.54
547.851	5.56
548.194	5.55
548.536	5.55
548.879	5.53
549.222	5.53
549.565	5.53
549.908	5.51
550.25	5.54
550.593	5.51
550.936	5.5
551.278	5.48
551.621	5.5
551.963	5.54
552.306	5.54
552.648	5.53
552.991	5.55
553.333	5.51
553.675	5.47
554.017	5.46
554.36	5.48
554.702	5.49
555.044	5.5
555.386	5.52
555.728	5.53
556.07	5.55
556.412	5.53
556.754	5.55
557.096	5.56
557.438	5.52
557.78	5.54
558.121	5.54
558.463	5.53
558.805	5.54
559.147	5.53
559.488	5.52
559.83	5.52
560.171	5.52
560.513	5.55
560.854	5.55
561.196	5.55
561.537	5.55
561.878	5.52
562.22	5.52
562.561	5.52
562.902	5.5
563.243	5.49
563.584	5.51
563.925	5.48
564.266	5.48
564.607	5.46
564.948	5.46
565.289	5.48
565.63	5.48
565.971	5.42
566.312	5.42
566.653	5.42
566.993	5.43
567.334	5.39
567.675	5.37
568.015	5.41
568.356	5.41
568.696	5.39
569.037	5.43
569.377	5.43
569.718	5.44
570.058	5.46
570.398	5.46
570.739	5.49
571.079	5.5
571.419	5.52
571.759	5.54
572.099	5.53
572.439	5.54
572.779	5.55
573.119	5.6
573.459	5.63
573.799	5.64
574.139	5.66
574.479	5.68
574.819	5.71
575.158	5.67
575.498	5.68
575.838	5.66
576.177	5.58
576.517	5.6
576.856	5.63
577.196	5.64
577.535	5.62
577.875	5.62
578.214	5.62
578.553	5.62
578.893	5.6
579.232	5.58
579.571	5.58
579.91	5.57
580.25	5.56
580.589	5.58
580.928	5.59
581.267	5.58
581.606	5.59
581.945	5.58
582.283	5.58
582.622	5.58
582.961	5.64
583.3	5.71
583.639	5.7
583.977	5.65
584.316	5.64
584.654	5.65
584.993	5.66
585.332	5.63
585.67	5.61
586.008	5.66
586.347	5.71
586.685	5.65
587.024	5.66
587.362	5.67
587.7	5.58
588.038	5.58
588.376	5.59
588.715	5.57
589.053	5.59
589.391	5.63
589.729	5.64
590.067	5.62
590.404	5.63
590.742	5.65
591.08	5.69
591.418	5.68
591.756	5.71
592.093	5.71
592.431	5.74
592.769	5.74
593.106	5.73
593.444	5.72
593.781	5.79
594.119	5.79
594.456	5.8
594.793	5.86
595.131	5.84
595.468	5.86
595.805	5.88
596.143	5.86
596.48	5.82
596.817	5.82
597.154	5.86
597.491	5.84
597.828	5.84
598.165	5.82
598.502	5.8
598.839	5.79
599.176	5.79
599.512	5.81
599.849	5.79
600.186	5.8
600.523	5.8
600.859	5.81
601.196	5.79
601.532	5.77
601.869	5.77
602.205	5.74
602.542	5.75
602.878	5.76
603.215	5.77
603.551	5.78
603.887	5.79
604.223	5.78
604.56	5.8
604.896	5.78
605.232	5.81
605.568	5.83
605.904	5.84
606.24	5.83
606.576	5.83
606.912	5.87
607.248	5.85
607.583	5.88
607.919	5.88
608.255	5.88
608.591	5.9
608.926	5.87
609.262	5.95
609.597	5.94
609.933	5.96
610.268	6
610.604	6.06
610.939	6.06
611.275	6.05
611.61	6.04
611.945	6.07
612.281	6.06
612.616	6.08
612.951	6.1
613.286	6.15
613.621	6.17
613.956	6.14
614.291	6.22
614.626	6.18
614.961	6.13
615.296	6.11
615.631	6.11
615.966	6.14
616.3	6.11
616.635	6.09
616.97	5.98
617.304	5.93
617.639	5.9
617.973	5.88
618.308	5.88
618.642	5.87
618.977	5.88
619.311	5.88
619.646	5.86
619.98	5.84
620.314	5.82
620.648	5.85
620.983	5.86
621.317	5.81
621.651	5.86
621.985	5.89
622.319	5.94
622.653	5.97
622.987	5.97
623.321	5.92
623.655	5.93
623.988	6.03
624.322	6.03
624.656	6.02
624.99	6.02
625.323	6.05
625.657	6.08
625.99	6.1
626.324	6.07
626.657	6.07
626.991	6.11
627.324	6.09
627.658	6.05
627.991	6.08
628.324	6.06
628.657	6.02
628.991	6.02
629.324	6.02
629.657	6
629.99	5.99
630.323	6.07
630.656	6.08
630.989	6.06
631.322	6.1
631.655	6.09
631.987	6.13
632.32	6.08
632.653	6.04
632.986	5.99
633.318	6
633.651	6.05
633.984	5.96
634.316	5.95
634.649	5.95
634.981	5.87
635.313	5.94
635.646	5.93
635.978	5.98
636.31	5.97
636.643	5.96
636.975	6.03
637.307	6
637.639	6.04
637.971	6.04
638.303	5.99
638.635	6.02
638.967	6
639.299	6.06
639.631	6.06
639.963	6.01
640.295	6.09
640.626	6.07
640.958	6.19
641.29	6.2
641.621	6.19
641.953	6.22
642.285	6.19
642.616	6.23
642.948	6.2
643.279	6.24
643.61	6.24
643.942	6.19
644.273	6.17
644.604	6.11
644.936	6.09
645.267	6.14
645.598	6.15
645.929	6.16
646.26	6.14
646.591	6.17
646.922	6.2
647.253	6.16
647.584	6.12
647.915	6.08
648.245	6.08
648.576	6.16
648.907	6.14
649.238	6.11
649.568	6.12
649.899	6.08
650.229	6.13
650.56	6.13
650.89	6.11
651.221	6.08
651.551	6.08
651.882	6.15
652.212	6.16
652.542	6.11
652.872	6.13
653.203	6.16
653.533	6.16
653.863	6.18
654.193	6.16
654.523	6.2
654.853	6.13
655.183	6.16
655.513	6.15
655.843	6.15
656.172	6.12
656.502	6.14
656.832	6.1
657.162	6.07
657.491	6.05
657.821	6.07
658.15	6.15
658.48	6.22
658.809	6.2
659.139	6.18
659.468	6.14
659.798	6.07
660.127	6.06
660.456	6.07
660.785	6.12
661.115	6.05
661.444	6.1
661.773	6.21
662.102	6.17
662.431	6.2
662.76	6.23
663.089	6.26
663.418	6.25
663.747	6.29
664.076	6.26
664.404	6.26
664.733	6.31
665.062	6.25
665.39	6.18
665.719	6.18
666.048	6.18
666.376	6.29
666.705	6.42
667.033	6.33
667.362	6.36
667.69	6.36
668.018	6.37
668.347	6.29
668.675	6.33
669.003	6.39
669.331	6.36
669.659	6.35
669.987	6.33
670.315	6.37
670.643	6.41
670.971	6.4
671.299	6.5
671.627	6.52
671.955	6.55
672.283	6.57
672.61	6.48
672.938	6.51
673.266	6.46
673.593	6.46
673.921	6.52
674.249	6.57
674.576	6.59
674.904	6.74
675.231	6.7
675.558	6.62
675.886	6.61
676.213	6.64
676.54	6.67
676.867	6.76
677.195	6.72
677.522	6.72
677.849	6.76
678.176	6.63
678.503	6.57
678.83	6.56
679.157	6.53
679.484	6.64
679.81	6.68
680.137	6.64
680.464	6.63
680.791	6.66
681.117	6.58
681.444	6.49
681.771	6.44
682.097	6.44
682.424	6.51
682.75	6.49
683.077	6.49
683.403	6.52
683.729	6.47
684.056	6.46
684.382	6.48
684.708	6.43
685.034	6.55
685.36	6.5
685.686	6.45
686.012	6.42
686.339	6.42
686.664	6.26
686.99	6.32
687.316	6.28
687.642	6.28
687.968	6.27
688.294	6.37
688.619	6.36
688.945	6.39
689.271	6.39
689.596	6.34
689.922	6.38
690.247	6.34
690.573	6.38
690.898	6.44
691.224	6.33
691.549	6.38
691.874	6.35
692.2	6.52
692.525	6.66
692.85	6.7
693.175	6.63
693.5	6.68
693.825	6.86
694.15	6.92
694.475	6.86
694.8	6.87
695.125	6.78
695.45	6.77
695.775	6.75
696.099	6.68
696.424	6.79
696.749	6.64
697.073	6.67
697.398	6.56
697.723	6.58
698.047	6.64
698.372	6.62
698.696	6.7
699.02	6.64
699.345	6.6
699.669	6.64
699.993	6.61
700.318	6.59
700.642	6.49
700.966	6.35
701.29	6.42
701.614	6.47
701.938	6.5
702.262	6.57
702.586	6.63
702.91	6.73
703.234	6.69
703.557	6.86
703.881	6.83
704.205	6.95
704.529	6.84
704.852	6.79
705.176	6.81
705.499	6.77
705.823	6.71
706.146	6.57
706.47	6.67
706.793	6.69
707.117	6.78
707.44	6.75
707.763	6.88
708.086	6.79
708.409	6.73
708.733	6.71
709.056	6.81
709.379	6.84
709.702	6.68
710.025	6.82
710.348	6.66
710.671	6.77
710.993	6.8
711.316	6.79
711.639	6.85
711.962	6.89
712.284	6.9
712.607	6.83
712.93	6.94
713.252	6.76
713.575	6.87
713.897	6.92
714.22	6.97
714.542	7.03
714.864	7.07
715.187	7.12
715.509	7.08
715.831	7.02
716.153	7
716.475	7
716.798	7.02
717.12	7.1
717.442	6.99
717.764	7.01
718.085	6.95
718.407	6.98
718.729	6.93
719.051	6.99
719.373	7.03
719.695	7.04
720.016	7.17
720.338	7.21
720.659	7.34
720.981	7.26
721.302	7.2
721.624	7.28
721.945	7.25
722.267	7.48
722.588	7.28
722.909	7.29
723.231	7.41
723.552	7.29
723.873	7.27
724.194	7.37
724.515	7.47
724.836	7.39
725.157	7.61
725.478	7.52
725.799	7.35
726.12	7.3
726.441	7.4
726.762	7.32
727.083	7.14
727.403	7.04
727.724	7.03
728.045	7.1
728.365	7.09
728.686	7.15
729.006	7.07
729.327	7.24
729.647	7.25
729.967	7.21
730.288	7.16
730.608	7.2
730.928	7.18
731.249	7.04
731.569	7.32
731.889	7.11
732.209	7.13
732.529	7.22
732.849	7.5
733.169	7.38
733.489	7.38
733.809	7.42
734.129	7.39
734.448	7.52
734.768	7.53
735.088	7.66
735.408	7.76
735.727	7.85
736.047	7.96
736.366	8.01
736.686	8.07
737.005	8.16
737.325	8.33
737.644	8.17
737.963	8.12
738.283	7.98
738.602	8.21
738.921	8.41
739.24	8.43
739.56	8.34
739.879	8.43
740.198	8.41
740.517	8.45
740.836	8.5
741.155	8.49
741.473	8.7
741.792	8.47
742.111	8.49
742.43	8.42
742.748	8.11
743.067	8.03
743.386	8.09
743.704	8.01
744.023	7.99
744.341	8.29
744.66	8.63
744.978	8.83
745.297	8.55
745.615	8.32
745.933	8.12
746.252	8.08
746.57	8
746.888	8.1
747.206	8.15
747.524	8.22
747.842	8.32
748.16	8.08
748.478	8.26
748.796	8.24
749.114	8.25
749.432	8.49
749.749	8.53
750.067	8.3
750.385	8.34
750.703	8.24
751.02	8.15
751.338	8.03
751.655	7.85
751.973	8.15
752.29	8.4
752.608	8.75
752.925	8.9
753.242	9.08
753.56	9.1
753.877	9.06
754.194	8.86
754.511	8.72
754.828	8.85
755.145	8.6
755.462	8.69
755.779	8.93
756.096	9.05
756.413	8.98
756.73	9.18
757.047	9.15
757.364	9.15
757.68	9.04
757.997	8.93
758.314	9.15
758.63	9.16
758.947	9.13
759.264	8.99
759.58	8.56
759.896	8.56
760.213	8.61
760.529	8.59
760.846	8.63
761.162	8.56
761.478	8.48
761.794	8.63
762.11	8.39
762.426	8.26
762.743	8.18
763.059	8.32
763.375	8.32
763.69	8.33
764.006	8.34
764.322	8.5
764.638	8.67
764.954	8.8
765.27	8.68
765.585	8.54
765.901	8.58
766.216	9
766.532	8.87
766.848	8.81
767.163	8.79
767.478	8.95
767.794	9.17
768.109	9.1
768.424	9.02
768.74	9.22
769.055	9.21
769.37	9.58
769.685	9.29
770	9.29
770.315	9.11
770.63	9.01
770.945	9
771.26	8.7
771.575	8.48
771.89	8.37
772.205	8.64
772.52	8.34
772.834	8.12
773.149	8.22
773.464	8.4
773.778	8.77
774.093	8.51
774.407	8.34
774.722	8.38
775.036	8.47
775.351	8.22
775.665	8.48
775.979	8
776.293	8.57
776.608	8.65
776.922	8.97
777.236	9.14
777.55	8.82
777.864	8.97
778.178	9.32
778.492	9.52
778.806	9.33
779.12	9.9
779.434	10.06
779.747	10.18
780.061	10.2
780.375	10.2
780.689	10.13
781.002	9.96
781.316	10.22
781.629	10.77
781.943	10.88
782.256	10.29
782.57	10.29
782.883	10.07
783.196	9.76
783.51	9.59
783.823	9.24
784.136	9.7
784.449	9.68
784.762	9.55
785.075	9.44
785.388	9.36
785.701	9.12
786.014	8.53
786.327	8.31
786.64	8.26
786.953	8.27
787.266	8.3
787.578	8.64
787.891	8.68
788.204	8.05
788.516	8.4
788.829	8.83
789.141	8.98
789.454	8.8
789.766	9.45
790.079	9.65
790.391	10.03
790.703	9.88
791.016	10.05
791.328	9.95
791.64	10.43
791.952	10.82
792.264	10.59
792.576	10.69
792.888	10.76
793.2	10.66
793.512	10.42
793.824	10.42
794.136	10.39
794.448	9.96
794.76	10.01
795.071	9.75
795.383	9.43
795.695	9.08
796.006	9.26
796.318	9.03
796.629	9.12
796.941	8.83
797.252	9.21
797.564	9.33
797.875	9.17
798.186	8.81
798.497	8.79
798.809	8.6
799.12	8.6
799.431	8.4
799.742	8.86
800.053	9.19
800.364	9.34
800.675	9.07
800.986	9.02
801.297	8.64
801.608	8.76
801.918	8.94
802.229	9.4
802.54	9.96
802.851	10.28
803.161	10.15
803.472	10.65
803.782	10.15
804.093	9.84
804.403	10.32
804.714	10.06
805.024	9.6
805.334	10.08
805.645	10.59
805.955	10.63
806.265	10.71
806.575	9.88
806.885	10.27
807.195	11.03
807.505	11.49
807.815	11.48
808.125	11.25
808.435	11.28
808.745	10.57
809.055	10.6
809.365	10.07
809.674	10.22
809.984	9.84
810.294	9.83
810.603	10.03
810.913	9.75
811.222	9.86
811.532	10.2
811.841	10.73
812.151	11.12
812.46	11.45
812.769	11.02
813.079	12.05
813.388	11.78
813.697	10.93
814.006	11.2
814.315	12.03
814.624	12.21
814.933	12.85
815.242	13.47
815.551	13.31
815.86	13.86
816.169	13.88
816.478	13.61
816.786	13.5
817.095	13.59
817.404	13.31
817.712	12.76
818.021	13.54
818.33	12.66
818.638	11.82
818.947	11.62
819.255	11.23
819.563	10.87
819.872	10.69
820.18	10.94
820.488	10.71
820.796	10.73
821.105	10.73
821.413	10.54
821.721	10.34
822.029	10.22
822.337	10.16
822.645	10.1
822.953	10.3
823.26	10.39
823.568	10.12
823.876	10.16
824.184	10.17
824.491	9.97
824.799	9.98
825.107	9.99
825.414	10.08
825.722	10.15
826.029	10.04
826.337	10.11
826.644	10.03
826.951	9.86
827.259	9.74
827.566	9.53
827.873	9.51
828.18	9.84
828.488	9.76
828.795	9.6
829.102	9.45
829.409	9.25
829.716	9.16
830.023	9.45
830.329	9.37
830.636	9.65
830.943	9.23
831.25	9.12
831.557	9.06
831.863	9.17
832.17	9.02
832.476	9.49
832.783	9.62
833.089	9.67
833.396	10.03
833.702	10.4
834.009	10.44
834.315	9.99
834.621	9.27
834.928	9.46
835.234	9.33
835.54	9.61
835.846	9.51
836.152	9.49
836.458	9.62
836.764	9.56
837.07	9.23
837.376	9.75
837.682	10.07
837.988	10.05
838.293	9.85
838.599	10.05
838.905	9.14
839.211	8.43
839.516	8.09
839.822	8.22
840.127	7.63
840.433	7.86
840.738	8.97
841.044	9.56
841.349	9.76
841.654	9.66
841.959	9.37
842.265	9.87
842.57	9.64
842.875	8.52
843.18	8.72
843.485	9.41
843.79	9.28
844.095	8.38
844.4	9.64
844.705	8.51
845.01	7.91
845.315	8.6
845.619	8.35
845.924	9.35
846.229	8.63
846.533	9.38
846.838	9.5
847.142	7.87
847.447	6.01
847.751	3.77
848.056	2.93
848.36	3.4
848.664	3.06
848.969	3.18
849.273	4.63
849.577	4.55
849.881	3.1
850.185	4.1
850.489	5.03
850.794	3.39
851.097	5.06
851.401	7.2
851.705	7.13
852.009	9.28
852.313	8.86
852.617	8.13
852.92	7.85
853.224	8.74
853.528	9.6
853.831	12.44
854.135	14.02
854.438	15.82
854.742	15.55
855.045	14.62
855.349	16.01
855.652	14.28
855.955	14.56
856.259	15.21
856.562	14.36
856.865	15.7
857.168	16.51
857.471	17.05
857.774	16.64
858.077	18.06
858.38	17.75
858.683	17.25
858.986	18.75
859.289	18.15
859.592	17.59
859.894	18.61
860.197	17.44
860.5	16.44
860.802	16.59
861.105	17.63
861.407	18.59
861.71	16.9
862.012	18.93
862.315	17.35
862.617	17.8
862.919	17.37
863.222	16.19
863.524	15.44
863.826	14.23
864.128	13.27
864.43	13.72
864.732	13.37
865.034	14.89
865.336	14.38
865.638	13.72
865.94	13.78
866.242	12.56
866.544	12.02
866.846	13.01
867.147	11.78
867.449	10.52
867.751	11.78
868.052	13.09
868.354	12.03
868.655	13.27
868.957	13.27
869.258	12.51
869.56	12.53
869.861	14.25
870.162	14.35
870.463	14.9
870.765	14.06
871.066	13.07
871.367	10.43
871.668	11.66
871.969	11.07
872.27	8.48
872.571	8.75
872.872	9.4
873.173	8.55
873.473	8.93
873.774	9.37
874.075	6.39
874.376	5.68
874.676	7.31
874.977	4.53
875.277	5.04
875.578	4.4
875.878	4.07
876.179	2.55
876.479	2.6
876.78	0.67
877.08	-0.37
877.38	-0.35
877.68	-0.36
877.981	-2.7
878.281	-1.6
878.581	1.51
