Data from BU58140_Reflection_00012.txt Node
Date: Tue Nov 19 10:53:45 EST 2019
User: vgr7
Spectrometer: USB2G7710
Scans to average: 3
Trigger mode: 4
Integration Time (sec): 2.000000E-2
Electric dark correction enabled: true
Boxcar width: 10
XAxis mode: Wavelengths
Number of Pixels in Spectrum: 2048
>>>>>Begin Spectral Data<<<<<
177.721	392.79
178.105	-137.18
178.488	-57.11
178.871	-52.38
179.254	-55.56
179.636	316.31
180.019	548.72
180.402	-600
180.785	58.33
181.168	277.08
181.55	183.33
181.933	86.11
182.316	82.91
182.698	65.02
183.081	43.99
183.463	54.43
183.846	119.13
184.228	40.1
184.611	-233.33
184.993	46.67
185.376	7.63
185.758	-32.51
186.14	-116.67
186.522	-113.62
186.904	-97.44
187.287	-109.83
187.669	-66.67
188.051	-66.67
188.433	-84.64
188.815	-97.64
189.197	-117.84
189.579	-108.87
189.961	-110.35
190.342	-92.49
190.724	-113.56
191.106	-97.99
191.488	-97.73
191.869	-89.86
192.251	-92.12
192.633	-98.05
193.014	-117
193.396	-111.77
193.777	-125.42
194.159	-104.3
194.54	-95.88
194.922	-103.86
195.303	-106.57
195.684	-98.72
196.065	-96.81
196.447	-93.48
196.828	-88.53
197.209	-83.06
197.59	-78.63
197.971	-67.06
198.352	-61.34
198.733	-65.94
199.114	-67.38
199.495	-62.61
199.876	-55.83
200.257	-54.11
200.638	-52.01
201.018	-52.69
201.399	-59.77
201.78	-62.41
202.16	-77.43
202.541	-74.93
202.922	-73.63
203.302	-71.36
203.683	-72.79
204.063	-79.69
204.444	-64.59
204.824	-56.6
205.204	-57.58
205.585	-48.35
205.965	-60.65
206.345	-55.73
206.725	-45.31
207.106	-40.59
207.486	-48.84
207.866	-56.94
208.246	-52.36
208.626	-57.36
209.006	-50.94
209.386	-40.38
209.766	-34.77
210.145	-29.18
210.525	-34.7
210.905	-27.88
211.285	-24.28
211.664	-26.46
212.044	-26.02
212.424	-34.08
212.803	-38.2
213.183	-38.89
213.562	-47.53
213.942	-40.51
214.321	-58.06
214.701	-69.35
215.08	-53.11
215.459	-46.04
215.838	-45.66
216.218	-47.1
216.597	-34.68
216.976	-42.62
217.355	-51.28
217.734	-58.96
218.113	-49.07
218.492	-35.36
218.871	-29.08
219.25	-38.89
219.629	-45.92
220.008	-34.6
220.387	-29.71
220.766	-24.26
221.144	-22.25
221.523	-10.63
221.902	-15.16
222.28	-3.83
222.659	7.68
223.037	3.79
223.416	6.82
223.794	8.97
224.173	6.51
224.551	5.93
224.929	2.05
225.308	4.53
225.686	4.47
226.064	5.8
226.442	5.47
226.821	0.31
227.199	0.37
227.577	6.52
227.955	5.4
228.333	0.9
228.711	-3.81
229.089	-3.1
229.467	-4.15
229.845	-4.92
230.222	-3.3
230.6	-3.55
230.978	-4.63
231.356	-3.83
231.733	-2.62
232.111	-3.2
232.488	-2.52
232.866	-0.79
233.243	-0.99
233.621	-0.37
233.998	0.13
234.376	-2.55
234.753	0.12
235.13	0.64
235.508	0.15
235.885	-1.1
236.262	0.96
236.639	1.19
237.016	0.6
237.393	1.42
237.77	2.91
238.147	2.94
238.524	2.79
238.901	2.16
239.278	1
239.655	0.3
240.032	0.9
240.409	1.08
240.785	0.81
241.162	1.08
241.539	1.35
241.915	0.81
242.292	1.41
242.668	1.22
243.045	1.9
243.421	2.58
243.798	3.07
244.174	2.93
244.551	3.2
244.927	3.3
245.303	3.1
245.679	2.82
246.056	2.72
246.432	2.84
246.808	3.15
247.184	3.58
247.56	3.6
247.936	3.62
248.312	3.75
248.688	3.95
249.064	4.04
249.44	4.08
249.815	4.49
250.191	4.47
250.567	4.71
250.943	4.57
251.318	4.09
251.694	3.88
252.069	4.12
252.445	4.17
252.82	4.47
253.196	4.55
253.571	4.66
253.947	4.59
254.322	4.51
254.697	4.23
255.073	4.16
255.448	4.38
255.823	4.23
256.198	4.19
256.573	4.32
256.948	4.5
257.323	4.62
257.698	4.5
258.073	4.58
258.448	4.5
258.823	4.48
259.198	4.55
259.573	4.54
259.948	4.44
260.322	4.4
260.697	4.38
261.072	4.44
261.446	4.56
261.821	4.66
262.195	4.66
262.57	4.68
262.944	4.58
263.319	4.63
263.693	4.71
264.067	4.67
264.442	4.53
264.816	4.28
265.19	4.24
265.564	4.15
265.938	4.08
266.313	3.93
266.687	3.78
267.061	3.8
267.435	3.9
267.809	3.87
268.183	3.73
268.556	3.69
268.93	3.68
269.304	3.53
269.678	3.66
270.051	3.78
270.425	3.81
270.799	3.77
271.172	3.76
271.546	3.71
271.919	3.7
272.293	3.73
272.666	3.67
273.04	3.73
273.413	3.83
273.787	3.63
274.16	3.66
274.533	3.81
274.906	3.76
275.279	3.82
275.653	3.83
276.026	3.96
276.399	3.83
276.772	3.78
277.145	4
277.518	3.77
277.891	3.66
278.263	3.82
278.636	3.91
279.009	3.89
279.382	3.88
279.755	3.86
280.127	3.87
280.5	3.79
280.872	3.59
281.245	3.56
281.617	3.8
281.99	3.71
282.362	3.65
282.735	3.62
283.107	3.46
283.479	3.54
283.852	3.46
284.224	3.68
284.596	3.77
284.968	3.62
285.34	3.58
285.713	3.8
286.085	3.59
286.457	3.72
286.829	3.62
287.201	3.68
287.572	3.78
287.944	3.79
288.316	3.9
288.688	4.04
289.06	4.04
289.431	4.04
289.803	4.23
290.175	4.32
290.546	4.3
290.918	4.4
291.289	4.21
291.661	4.3
292.032	4.18
292.403	4.14
292.775	4.16
293.146	4.28
293.517	4.1
293.889	4.28
294.26	4.31
294.631	4.41
295.002	4.51
295.373	4.49
295.744	4.48
296.115	4.52
296.486	4.55
296.857	4.64
297.228	4.62
297.599	4.55
297.97	4.67
298.34	4.79
298.711	4.84
299.082	5.16
299.452	5.09
299.823	5.16
300.194	5.27
300.564	5.31
300.935	5.36
301.305	5.43
301.676	5.47
302.046	5.46
302.416	5.53
302.787	5.47
303.157	5.52
303.527	5.74
303.897	5.76
304.267	5.89
304.637	5.78
305.008	5.73
305.378	5.72
305.748	5.7
306.117	5.77
306.487	5.87
306.857	5.83
307.227	6.08
307.597	6.26
307.967	6.25
308.336	6.43
308.706	6.51
309.076	6.52
309.445	6.63
309.815	6.8
310.184	6.85
310.554	6.96
310.923	7.02
311.293	7.02
311.662	7.14
312.031	7.19
312.401	7.35
312.77	7.53
313.139	7.67
313.508	7.65
313.877	7.83
314.246	7.89
314.616	7.92
314.985	7.99
315.353	7.94
315.722	8.16
316.091	8.19
316.46	8.29
316.829	8.44
317.198	8.46
317.567	8.49
317.935	8.59
318.304	8.91
318.672	8.99
319.041	9.04
319.41	9.1
319.778	9.18
320.147	9.29
320.515	9.34
320.883	9.46
321.252	9.53
321.62	9.63
321.988	9.68
322.357	9.75
322.725	9.73
323.093	9.88
323.461	9.85
323.829	9.94
324.197	10.07
324.565	10.18
324.933	10.15
325.301	10.01
325.669	9.96
326.037	9.78
326.405	9.79
326.772	9.93
327.14	9.86
327.508	9.63
327.875	9.64
328.243	9.79
328.61	9.86
328.978	9.98
329.346	9.78
329.713	9.9
330.08	9.9
330.448	10.03
330.815	9.97
331.182	9.96
331.55	10.05
331.917	9.97
332.284	9.87
332.651	10
333.018	10.02
333.385	10.13
333.752	10.17
334.119	10.27
334.486	10.38
334.853	10.57
335.22	10.79
335.587	10.7
335.954	10.71
336.32	10.69
336.687	10.72
337.054	10.77
337.42	10.79
337.787	10.87
338.153	10.9
338.52	10.99
338.886	11.02
339.253	10.98
339.619	11.05
339.986	11.14
340.352	11.11
340.718	11.31
341.084	11.41
341.451	11.45
341.817	11.31
342.183	11.18
342.549	11.09
342.915	11.09
343.281	11.23
343.647	11.24
344.013	11.16
344.379	11.1
344.745	11.27
345.11	11.24
345.476	11.29
345.842	11.25
346.208	11.24
346.573	11.22
346.939	11.18
347.304	11.16
347.67	11.16
348.035	11.22
348.401	11.13
348.766	11.09
349.132	11.18
349.497	11.31
349.862	11.34
350.228	11.5
350.593	11.45
350.958	11.44
351.323	11.34
351.688	11.46
352.053	11.48
352.418	11.35
352.783	11.36
353.148	11.26
353.513	11.24
353.878	11.22
354.243	11.21
354.608	11.28
354.972	11.21
355.337	11.21
355.702	11.15
356.066	11
356.431	10.99
356.795	10.95
357.16	10.95
357.524	10.97
357.889	10.84
358.253	10.87
358.618	10.76
358.982	10.86
359.346	10.79
359.71	10.71
360.075	10.69
360.439	10.7
360.803	10.69
361.167	10.64
361.531	10.62
361.895	10.59
362.259	10.57
362.623	10.57
362.987	10.45
363.351	10.44
363.714	10.48
364.078	10.4
364.442	10.33
364.806	10.19
365.169	10.06
365.533	10.06
365.896	9.99
366.26	9.97
366.623	9.85
366.987	9.75
367.35	9.8
367.714	9.73
368.077	9.64
368.44	9.56
368.803	9.46
369.167	9.36
369.53	9.28
369.893	9.11
370.256	9
370.619	8.97
370.982	8.83
371.345	8.8
371.708	8.7
372.071	8.6
372.434	8.59
372.797	8.58
373.159	8.43
373.522	8.32
373.885	8.3
374.247	8.16
374.61	8.12
374.973	7.95
375.335	7.89
375.698	7.72
376.06	7.68
376.423	7.59
376.785	7.5
377.147	7.43
377.51	7.42
377.872	7.38
378.234	7.28
378.596	7.26
378.958	7.17
379.321	7.12
379.683	7.08
380.045	7.01
380.407	6.84
380.769	6.8
381.13	6.71
381.492	6.61
381.854	6.59
382.216	6.58
382.578	6.6
382.939	6.53
383.301	6.52
383.663	6.43
384.024	6.43
384.386	6.42
384.747	6.4
385.109	6.32
385.47	6.29
385.832	6.27
386.193	6.18
386.554	6.11
386.916	6.11
387.277	6.02
387.638	5.93
387.999	5.94
388.36	5.92
388.721	5.9
389.082	5.87
389.443	5.85
389.804	5.78
390.165	5.7
390.526	5.66
390.887	5.6
391.248	5.53
391.609	5.52
391.969	5.46
392.33	5.41
392.691	5.35
393.051	5.28
393.412	5.25
393.772	5.23
394.133	5.19
394.493	5.08
394.854	5.04
395.214	5.06
395.574	4.99
395.935	4.94
396.295	4.91
396.655	4.84
397.015	4.78
397.376	4.71
397.736	4.65
398.096	4.61
398.456	4.54
398.816	4.53
399.176	4.47
399.535	4.44
399.895	4.4
400.255	4.39
400.615	4.37
400.975	4.3
401.334	4.27
401.694	4.25
402.054	4.28
402.413	4.25
402.773	4.2
403.132	4.22
403.492	4.2
403.851	4.17
404.211	4.14
404.57	4.13
404.929	4.11
405.288	4.12
405.648	4.11
406.007	4.15
406.366	4.14
406.725	4.12
407.084	4.11
407.443	4.1
407.802	4.07
408.161	4.1
408.52	4.12
408.879	4.1
409.238	4.1
409.596	4.07
409.955	4.09
410.314	4.08
410.673	4.05
411.031	4.03
411.39	4.05
411.748	4.09
412.107	4.06
412.465	4.07
412.824	4.04
413.182	4.02
413.54	3.98
413.899	3.97
414.257	3.97
414.615	3.95
414.974	3.94
415.332	3.94
415.69	3.9
416.048	3.87
416.406	3.83
416.764	3.81
417.122	3.78
417.48	3.76
417.838	3.75
418.195	3.74
418.553	3.72
418.911	3.67
419.269	3.65
419.626	3.65
419.984	3.63
420.342	3.62
420.699	3.6
421.057	3.58
421.414	3.57
421.772	3.54
422.129	3.53
422.486	3.52
422.844	3.51
423.201	3.49
423.558	3.49
423.915	3.49
424.273	3.48
424.63	3.48
424.987	3.45
425.344	3.43
425.701	3.43
426.058	3.43
426.415	3.42
426.772	3.4
427.128	3.38
427.485	3.37
427.842	3.34
428.199	3.34
428.555	3.31
428.912	3.29
429.269	3.29
429.625	3.28
429.982	3.27
430.338	3.27
430.695	3.25
431.051	3.23
431.407	3.24
431.764	3.22
432.12	3.24
432.476	3.25
432.832	3.25
433.189	3.23
433.545	3.23
433.901	3.25
434.257	3.26
434.613	3.25
434.969	3.26
435.325	3.28
435.681	3.28
436.036	3.29
436.392	3.31
436.748	3.32
437.104	3.33
437.459	3.32
437.815	3.32
438.171	3.34
438.526	3.34
438.882	3.34
439.237	3.36
439.593	3.34
439.948	3.34
440.304	3.35
440.659	3.36
441.014	3.35
441.369	3.34
441.725	3.33
442.08	3.35
442.435	3.34
442.79	3.34
443.145	3.34
443.5	3.34
443.855	3.31
444.21	3.3
444.565	3.29
444.92	3.3
445.275	3.28
445.629	3.28
445.984	3.27
446.339	3.26
446.693	3.25
447.048	3.24
447.403	3.24
447.757	3.22
448.112	3.21
448.466	3.2
448.82	3.2
449.175	3.19
449.529	3.17
449.883	3.17
450.238	3.16
450.592	3.16
450.946	3.16
451.3	3.15
451.654	3.14
452.008	3.11
452.362	3.1
452.716	3.11
453.07	3.09
453.424	3.11
453.778	3.1
454.132	3.09
454.486	3.08
454.839	3.07
455.193	3.08
455.547	3.09
455.9	3.11
456.254	3.11
456.607	3.11
456.961	3.13
457.314	3.13
457.668	3.13
458.021	3.13
458.375	3.12
458.728	3.14
459.081	3.15
459.434	3.17
459.787	3.18
460.141	3.18
460.494	3.18
460.847	3.16
461.2	3.17
461.553	3.18
461.906	3.2
462.259	3.19
462.611	3.2
462.964	3.21
463.317	3.2
463.67	3.21
464.022	3.22
464.375	3.21
464.728	3.21
465.08	3.22
465.433	3.24
465.785	3.26
466.138	3.27
466.49	3.3
466.843	3.31
467.195	3.29
467.547	3.28
467.899	3.31
468.252	3.34
468.604	3.33
468.956	3.35
469.308	3.37
469.66	3.42
470.012	3.41
470.364	3.43
470.716	3.44
471.068	3.47
471.42	3.49
471.772	3.51
472.123	3.52
472.475	3.53
472.827	3.51
473.178	3.51
473.53	3.52
473.882	3.5
474.233	3.5
474.585	3.51
474.936	3.52
475.288	3.51
475.639	3.52
475.99	3.51
476.342	3.49
476.693	3.48
477.044	3.47
477.395	3.47
477.746	3.44
478.097	3.44
478.448	3.42
478.8	3.41
479.15	3.41
479.501	3.39
479.852	3.37
480.203	3.38
480.554	3.37
480.905	3.37
481.255	3.37
481.606	3.37
481.957	3.37
482.307	3.37
482.658	3.36
483.009	3.36
483.359	3.36
483.709	3.37
484.06	3.37
484.41	3.35
484.761	3.36
485.111	3.37
485.461	3.35
485.811	3.35
486.162	3.35
486.512	3.35
486.862	3.35
487.212	3.35
487.562	3.36
487.912	3.36
488.262	3.35
488.612	3.35
488.961	3.35
489.311	3.35
489.661	3.35
490.011	3.34
490.36	3.34
490.71	3.34
491.06	3.33
491.409	3.32
491.759	3.33
492.108	3.33
492.458	3.33
492.807	3.34
493.157	3.35
493.506	3.35
493.855	3.35
494.204	3.37
494.554	3.38
494.903	3.38
495.252	3.41
495.601	3.44
495.95	3.45
496.299	3.47
496.648	3.49
496.997	3.51
497.346	3.56
497.695	3.61
498.043	3.65
498.392	3.69
498.741	3.74
499.09	3.76
499.438	3.79
499.787	3.84
500.135	3.88
500.484	3.92
500.832	3.96
501.181	4.02
501.529	4.08
501.878	4.13
502.226	4.18
502.574	4.25
502.923	4.28
503.271	4.34
503.619	4.42
503.967	4.51
504.315	4.6
504.663	4.66
505.011	4.74
505.359	4.8
505.707	4.89
506.055	4.98
506.403	5.08
506.751	5.17
507.098	5.25
507.446	5.37
507.794	5.47
508.141	5.57
508.489	5.66
508.837	5.76
509.184	5.85
509.531	5.95
509.879	6.04
510.226	6.16
510.574	6.27
510.921	6.37
511.268	6.48
511.616	6.6
511.963	6.74
512.31	6.84
512.657	7
513.004	7.12
513.351	7.27
513.698	7.44
514.045	7.61
514.392	7.77
514.739	7.95
515.086	8.14
515.432	8.32
515.779	8.49
516.126	8.65
516.473	8.83
516.819	9.01
517.166	9.16
517.512	9.34
517.859	9.51
518.205	9.66
518.552	9.84
518.898	10
519.245	10.15
519.591	10.32
519.937	10.46
520.283	10.65
520.629	10.8
520.976	10.98
521.322	11.16
521.668	11.36
522.014	11.53
522.36	11.73
522.706	11.94
523.052	12.18
523.398	12.43
523.743	12.7
524.089	12.96
524.435	13.2
524.781	13.43
525.126	13.64
525.472	13.87
525.817	14.07
526.163	14.24
526.509	14.43
526.854	14.6
527.199	14.75
527.545	14.91
527.89	15.07
528.235	15.23
528.581	15.41
528.926	15.58
529.271	15.77
529.616	15.93
529.961	16.1
530.306	16.27
530.651	16.45
530.996	16.64
531.341	16.83
531.686	17.05
532.031	17.25
532.376	17.48
532.721	17.69
533.065	17.91
533.41	18.16
533.755	18.38
534.099	18.63
534.444	18.89
534.788	19.12
535.133	19.38
535.477	19.63
535.822	19.88
536.166	20.17
536.51	20.45
536.855	20.77
537.199	21.1
537.543	21.45
537.887	21.79
538.231	22.1
538.576	22.44
538.92	22.77
539.264	23.08
539.608	23.37
539.951	23.63
540.295	23.91
540.639	24.14
540.983	24.42
541.327	24.67
541.671	24.94
542.014	25.2
542.358	25.43
542.701	25.67
543.045	25.89
543.389	26.14
543.732	26.39
544.075	26.64
544.419	26.89
544.762	27.15
545.105	27.42
545.449	27.72
545.792	28.03
546.135	28.32
546.478	28.65
546.821	28.98
547.165	29.38
547.508	29.72
547.851	30.09
548.194	30.4
548.536	30.74
548.879	31.07
549.222	31.37
549.565	31.7
549.908	32.01
550.25	32.36
550.593	32.65
550.936	32.96
551.278	33.28
551.621	33.6
551.963	33.89
552.306	34.18
552.648	34.49
552.991	34.72
553.333	35.02
553.675	35.29
554.017	35.54
554.36	35.73
554.702	35.97
555.044	36.28
555.386	36.54
555.728	36.78
556.07	37.04
556.412	37.34
556.754	37.65
557.096	37.93
557.438	38.21
557.78	38.5
558.121	38.78
558.463	39.11
558.805	39.42
559.147	39.7
559.488	39.97
559.83	40.21
560.171	40.47
560.513	40.67
560.854	40.87
561.196	41.18
561.537	41.39
561.878	41.67
562.22	41.86
562.561	42.06
562.902	42.31
563.243	42.54
563.584	42.75
563.925	42.95
564.266	43.12
564.607	43.31
564.948	43.51
565.289	43.73
565.63	43.84
565.971	44
566.312	44.18
566.653	44.37
566.993	44.55
567.334	44.7
567.675	44.94
568.015	45.14
568.356	45.22
568.696	45.46
569.037	45.6
569.377	45.75
569.718	45.94
570.058	46.11
570.398	46.23
570.739	46.39
571.079	46.56
571.419	46.78
571.759	46.93
572.099	47.08
572.439	47.22
572.779	47.36
573.119	47.48
573.459	47.62
573.799	47.74
574.139	47.87
574.479	48.02
574.819	48.13
575.158	48.3
575.498	48.52
575.838	48.69
576.177	48.81
576.517	48.96
576.856	49.1
577.196	49.27
577.535	49.4
577.875	49.57
578.214	49.7
578.553	49.8
578.893	49.95
579.232	50.06
579.571	50.19
579.91	50.35
580.25	50.52
580.589	50.65
580.928	50.83
581.267	50.98
581.606	51.12
581.945	51.29
582.283	51.39
582.622	51.52
582.961	51.52
583.3	51.6
583.639	51.64
583.977	51.81
584.316	51.92
584.654	52.13
584.993	52.19
585.332	52.34
585.67	52.44
586.008	52.53
586.347	52.59
586.685	52.7
587.024	52.88
587.362	52.92
587.7	53.05
588.038	53.13
588.376	53.21
588.715	53.36
589.053	53.45
589.391	53.54
589.729	53.58
590.067	53.81
590.404	53.91
590.742	54.15
591.08	54.21
591.418	54.21
591.756	54.19
592.093	54.34
592.431	54.46
592.769	54.58
593.106	54.64
593.444	54.85
593.781	54.93
594.119	54.94
594.456	55.02
594.793	55.08
595.131	55.12
595.468	55.2
595.805	55.26
596.143	55.28
596.48	55.37
596.817	55.45
597.154	55.47
597.491	55.58
597.828	55.57
598.165	55.61
598.502	55.75
598.839	55.83
599.176	55.87
599.512	55.86
599.849	55.91
600.186	56
600.523	55.97
600.859	56
601.196	56.08
601.532	56.15
601.869	56.2
602.205	56.27
602.542	56.34
602.878	56.39
603.215	56.45
603.551	56.47
603.887	56.48
604.223	56.48
604.56	56.53
604.896	56.58
605.232	56.59
605.568	56.69
605.904	56.79
606.24	56.84
606.576	56.89
606.912	56.9
607.248	56.93
607.583	57.02
607.919	57.04
608.255	57.03
608.591	57.14
608.926	57.11
609.262	57.1
609.597	57.11
609.933	57.11
610.268	57.14
610.604	57.15
610.939	57.24
611.275	57.27
611.61	57.24
611.945	57.23
612.281	57.32
612.616	57.29
612.951	57.25
613.286	57.25
613.621	57.29
613.956	57.37
614.291	57.36
614.626	57.28
614.961	57.27
615.296	57.39
615.631	57.29
615.966	57.44
616.3	57.44
616.635	57.49
616.97	57.57
617.304	57.65
617.639	57.66
617.973	57.74
618.308	57.72
618.642	57.79
618.977	57.86
619.311	57.91
619.646	57.99
619.98	58.11
620.314	58.19
620.648	58.16
620.983	58.14
621.317	58.25
621.651	58.41
621.985	58.57
622.319	58.54
622.653	58.59
622.987	58.61
623.321	58.81
623.655	58.85
623.988	58.9
624.322	58.89
624.656	58.97
624.99	58.92
625.323	58.93
625.657	58.96
625.99	59.01
626.324	58.97
626.657	58.95
626.991	58.88
627.324	58.84
627.658	58.84
627.991	58.89
628.324	58.81
628.657	58.86
628.991	58.82
629.324	58.91
629.657	58.9
629.99	58.9
630.323	58.76
630.656	58.76
630.989	58.78
631.322	58.76
631.655	58.74
631.987	58.8
632.32	58.92
632.653	58.88
632.986	58.95
633.318	59.02
633.651	59.03
633.984	59.04
634.316	59
634.649	59.11
634.981	59.09
635.313	59.22
635.646	59.12
635.978	59.16
636.31	59.12
636.643	59.26
636.975	59.21
637.307	59.36
637.639	59.34
637.971	59.36
638.303	59.37
638.635	59.29
638.967	59.26
639.299	59.26
639.631	59.36
639.963	59.24
640.295	59.22
640.626	59.3
640.958	59.33
641.29	59.55
641.621	59.46
641.953	59.46
642.285	59.52
642.616	59.6
642.948	59.58
643.279	59.62
643.61	59.5
643.942	59.62
644.273	59.56
644.604	59.52
644.936	59.53
645.267	59.61
645.598	59.73
645.929	59.75
646.26	59.75
646.591	59.77
646.922	59.93
647.253	59.91
647.584	59.82
647.915	59.94
648.245	59.82
648.576	59.92
648.907	59.99
649.238	60.04
649.568	60.01
649.899	60.03
650.229	60.05
650.56	60.11
650.89	60.03
651.221	60.04
651.551	60.11
651.882	60.04
652.212	60.02
652.542	60.03
652.872	60.05
653.203	60.04
653.533	60.08
653.863	59.99
654.193	60.14
654.523	60.23
654.853	60.18
655.183	60.21
655.513	60.25
655.843	60.38
656.172	60.33
656.502	60.4
656.832	60.47
657.162	60.45
657.491	60.47
657.821	60.56
658.15	60.67
658.48	60.74
658.809	60.83
659.139	60.87
659.468	60.89
659.798	60.93
660.127	60.96
660.456	60.96
660.785	61
661.115	61.02
661.444	61.08
661.773	61.08
662.102	61.05
662.431	61.1
662.76	60.98
663.089	60.92
663.418	60.93
663.747	60.85
664.076	60.8
664.404	60.89
664.733	60.88
665.062	60.76
665.39	60.69
665.719	60.54
666.048	60.53
666.376	60.53
666.705	60.46
667.033	60.46
667.362	60.48
667.69	60.39
668.018	60.39
668.347	60.29
668.675	60.21
669.003	60.24
669.331	60.05
669.659	60.13
669.987	60.16
670.315	60.18
670.643	60.14
670.971	60.25
671.299	60.23
671.627	60.28
671.955	60.29
672.283	60.39
672.61	60.53
672.938	60.57
673.266	60.53
673.593	60.6
673.921	60.54
674.249	60.41
674.576	60.47
674.904	60.33
675.231	60.36
675.558	60.53
675.886	60.61
676.213	60.66
676.54	60.76
676.867	60.78
677.195	60.75
677.522	60.76
677.849	60.84
678.176	60.8
678.503	60.8
678.83	60.82
679.157	60.76
679.484	60.76
679.81	60.74
680.137	60.87
680.464	60.91
680.791	60.97
681.117	61.06
681.444	61.02
681.771	61.12
682.097	60.99
682.424	60.86
682.75	60.93
683.077	60.89
683.403	60.64
683.729	60.68
684.056	60.68
684.382	60.75
684.708	60.66
685.034	60.65
685.36	60.55
685.686	60.61
686.012	60.68
686.339	60.67
686.664	60.64
686.99	60.53
687.316	60.44
687.642	60.5
687.968	60.5
688.294	60.58
688.619	60.67
688.945	60.72
689.271	60.82
689.596	60.67
689.922	60.72
690.247	60.98
690.573	61.03
690.898	61.13
691.224	61.13
691.549	61.15
691.874	61.08
692.2	61.08
692.525	61.03
692.85	60.91
693.175	60.88
693.5	60.9
693.825	60.98
694.15	61.19
694.475	61.16
694.8	61.15
695.125	61.12
695.45	61.05
695.775	61.19
696.099	61.23
696.424	61.44
696.749	61.57
697.073	61.69
697.398	61.7
697.723	61.51
698.047	61.59
698.372	61.59
698.696	61.73
699.02	61.79
699.345	61.84
699.669	61.9
699.993	61.98
700.318	62.08
700.642	62.04
700.966	61.97
701.29	61.94
701.614	61.86
701.938	61.8
702.262	61.63
702.586	61.62
702.91	61.58
703.234	61.3
703.557	61.19
703.881	60.92
704.205	60.87
704.529	61
704.852	60.97
705.176	60.98
705.499	60.88
705.823	61.05
706.146	61.08
706.47	61.1
706.793	61.11
707.117	61.06
707.44	61.04
707.763	60.82
708.086	60.84
708.409	61
708.733	61.1
709.056	61.42
709.379	61.34
709.702	61.32
710.025	61.47
710.348	61.5
710.671	61.58
710.993	61.64
711.316	61.54
711.639	61.56
711.962	61.71
712.284	61.76
712.607	61.65
712.93	61.66
713.252	61.66
713.575	61.72
713.897	61.65
714.22	61.65
714.542	61.79
714.864	61.77
715.187	61.77
715.509	61.76
715.831	61.61
716.153	61.66
716.475	61.75
716.798	61.93
717.12	61.95
717.442	61.92
717.764	61.74
718.085	61.76
718.407	61.49
718.729	61.47
719.051	61.46
719.373	61.55
719.695	61.47
720.016	61.39
720.338	61.19
720.659	61.07
720.981	60.95
721.302	60.76
721.624	60.75
721.945	60.62
722.267	60.74
722.588	60.79
722.909	60.88
723.231	60.71
723.552	60.37
723.873	60.08
724.194	60.09
724.515	60.16
724.836	60.27
725.157	60.61
725.478	60.72
725.799	60.78
726.12	60.73
726.441	60.7
726.762	60.68
727.083	60.91
727.403	61.02
727.724	61.24
728.045	61.28
728.365	61.48
728.686	61.7
729.006	61.75
729.327	61.74
729.647	61.72
729.967	61.82
730.288	62.02
730.608	62.15
730.928	62.13
731.249	62.14
731.569	62.13
731.889	62.08
732.209	61.86
732.529	61.64
732.849	61.6
733.169	61.51
733.489	61.41
733.809	61.15
734.129	61.35
734.448	61.15
734.768	61.13
735.088	61.07
735.408	61.1
735.727	60.97
736.047	60.87
736.366	60.65
736.686	60.66
737.005	60.61
737.325	60.78
737.644	60.87
737.963	60.9
738.283	61.09
738.602	61.12
738.921	61.08
739.24	61.19
739.56	61.22
739.879	61.34
740.198	61.4
740.517	61.59
740.836	61.4
741.155	61.62
741.473	61.63
741.792	61.63
742.111	61.61
742.43	61.7
742.748	61.74
743.067	61.81
743.386	61.98
743.704	61.7
744.023	61.79
744.341	61.36
744.66	61.17
744.978	60.98
745.297	61.25
745.615	61.35
745.933	61.62
746.252	61.41
746.57	61.14
746.888	61.18
747.206	60.83
747.524	60.9
747.842	60.66
748.16	60.65
748.478	60.68
748.796	60.56
749.114	60.23
749.432	60.38
749.749	60.21
750.067	60.13
750.385	60.5
750.703	60.22
751.02	61.02
751.338	61.09
751.655	61.28
751.973	60.54
752.29	60.55
752.608	60.41
752.925	60.5
753.242	60.72
753.56	60.72
753.877	61.22
754.194	61.36
754.511	61.52
754.828	61.49
755.145	61.4
755.462	61.21
755.779	61.35
756.096	61.06
756.413	61.2
756.73	61.13
757.047	60.81
757.364	60.99
757.68	60.43
757.997	60.68
758.314	60.53
758.63	61.14
758.947	61.12
759.264	61.12
759.58	61.34
759.896	61.65
760.213	61.87
760.529	61.46
760.846	61.49
761.162	61.61
761.478	61.88
761.794	62.12
762.11	62.41
762.426	62.55
762.743	62.7
763.059	62.99
763.375	62.98
763.69	63.21
764.006	63.11
764.322	63.25
764.638	63.07
764.954	63.12
765.27	63.1
765.585	63.12
765.901	63.05
766.216	63.1
766.532	62.74
766.848	62.57
767.163	62.63
767.478	62.32
767.794	62.16
768.109	62.09
768.424	61.86
768.74	61.67
769.055	61.39
769.37	61.28
769.685	61.14
770	61.26
770.315	61.33
770.63	61.74
770.945	61.8
771.26	61.63
771.575	61.52
771.89	61.27
772.205	61.11
772.52	61.17
772.834	61.19
773.149	61.27
773.464	61.4
773.778	61.58
774.093	61.43
774.407	61.58
774.722	61.7
775.036	62.22
775.351	61.83
775.665	62.24
775.979	62.32
776.293	62.33
776.608	61.96
776.922	61.36
777.236	60.9
777.55	61.21
777.864	61.42
778.178	61.55
778.492	61.64
778.806	61.67
779.12	61.55
779.434	61.28
779.747	61.56
780.061	61.36
780.375	61.2
780.689	61.94
781.002	61.74
781.316	61.8
781.629	61.22
781.943	61.47
782.256	61.14
782.57	60.99
782.883	60.1
783.196	60.23
783.51	60.37
783.823	60.07
784.136	59.24
784.449	59.34
784.762	58.87
785.075	58.77
785.388	58.92
785.701	58.91
786.014	58.72
786.327	58.69
786.64	58.49
786.953	58.7
787.266	58.2
787.578	58.24
787.891	57.64
788.204	57.91
788.516	57.79
788.829	58.13
789.141	58.32
789.454	58.81
789.766	58.88
790.079	59.06
790.391	59.15
790.703	59.46
791.016	59.92
791.328	59.94
791.64	60.07
791.952	60.4
792.264	60.5
792.576	60.58
792.888	60.79
793.2	61.31
793.512	61.21
793.824	61.29
794.136	61.6
794.448	62.26
794.76	61.56
795.071	61.84
795.383	61.41
795.695	61.4
796.006	61.65
796.318	61.44
796.629	60.89
796.941	61.04
797.252	60.86
797.564	60.45
797.875	60.66
798.186	60.56
798.497	60.17
798.809	59.99
799.12	60.16
799.431	59.64
799.742	59.92
800.053	60.17
800.364	60.66
800.675	60.56
800.986	60.58
801.297	60.93
801.608	60.69
801.918	60.99
802.229	61.06
802.54	60.65
802.851	60.59
803.161	61.16
803.472	61.25
803.782	61.4
804.093	61.4
804.403	62.09
804.714	62.14
805.024	62.1
805.334	62.08
805.645	62.11
805.955	61.76
806.265	61.45
806.575	61.44
806.885	60.77
807.195	60.78
807.505	60.27
807.815	60.37
808.125	60.14
808.435	59.97
808.745	59.7
809.055	60.16
809.365	60.57
809.674	60.82
809.984	60.68
810.294	60.67
810.603	60.55
810.913	59.63
811.222	59.74
811.532	59.16
811.841	59.45
812.151	59.28
812.46	59.89
812.769	59.51
813.079	59.78
813.388	59.88
813.697	59.55
814.006	60.24
814.315	60.75
814.624	60.54
814.933	60.13
815.242	60.17
815.551	60.59
815.86	60.54
816.169	59.76
816.478	59.73
816.786	60.04
817.095	60.01
817.404	60.47
817.712	60.23
818.021	60.78
818.33	60.74
818.638	61.09
818.947	61.54
819.255	61.8
819.563	61.5
819.872	61.22
820.18	61.3
820.488	61.17
820.796	61.11
821.105	61.57
821.413	62.1
821.721	62.37
822.029	62.42
822.337	62.45
822.645	62.69
822.953	62.7
823.26	62.65
823.568	62.6
823.876	62.52
824.184	62.53
824.491	62.66
824.799	62.75
825.107	62.7
825.414	62.62
825.722	62.79
826.029	62.91
826.337	63.2
826.644	63.45
826.951	63.53
827.259	63.74
827.566	63.71
827.873	63.35
828.18	63.18
828.488	63.21
828.795	63.33
829.102	63.41
829.409	63.71
829.716	63.76
830.023	63.77
830.329	63.76
830.636	63.99
830.943	63.9
831.25	63.72
831.557	63.72
831.863	63.81
832.17	63.5
832.476	63.57
832.783	63.22
833.089	63.05
833.396	63.18
833.702	62.47
834.009	62.34
834.315	61.92
834.621	62.14
834.928	61.78
835.234	61.21
835.54	60.89
835.846	60.33
836.152	59.96
836.458	60.23
836.764	60.72
837.07	60.91
837.376	60.39
837.682	60.5
837.988	60.64
838.293	59.9
838.599	60.03
838.905	59.26
839.211	60.05
839.516	59.79
839.822	59.15
840.127	59.39
840.433	59.91
840.738	60.48
841.044	59.61
841.349	58.27
841.654	58.56
841.959	58.36
842.265	58.8
842.57	59.17
842.875	59.17
843.18	58.1
843.485	57.35
843.79	57.89
844.095	57.19
844.4	56.36
844.705	57.29
845.01	56.14
845.315	56.67
845.619	55.37
845.924	56.33
846.229	56.34
846.533	55.97
846.838	53.55
847.142	53.73
847.447	54.84
847.751	56.97
848.056	56.94
848.36	58.48
848.664	59.08
848.969	58.7
849.273	57.5
849.577	58.5
849.881	58.36
850.185	57.95
850.489	58.37
850.794	59.26
851.097	60.09
851.401	60.24
851.705	60.24
852.009	59.47
852.313	58.24
852.617	57.63
852.92	58.59
853.224	60.31
853.528	60.29
853.831	60.44
854.135	59.72
854.438	59.8
854.742	58.45
855.045	57.68
855.349	59.01
855.652	60.77
855.955	60.27
856.259	59.84
856.562	61.31
856.865	62.62
857.168	62.67
857.471	62.73
857.774	63.34
858.077	62.69
858.38	63.84
858.683	62.72
858.986	63.43
859.289	63.23
859.592	63.31
859.894	62.36
860.197	60.26
860.5	62.59
860.802	62.35
861.105	62.45
861.407	62.5
861.71	60.85
862.012	60.99
862.315	58.27
862.617	58.08
862.919	57.94
863.222	57.37
863.524	55.65
863.826	54.72
864.128	55.3
864.43	58.26
864.732	58.07
865.034	57.42
865.336	56.94
865.638	57.31
865.94	58.06
866.242	60.98
866.544	60.79
866.846	58.12
867.147	58.02
867.449	56.25
867.751	55.35
868.052	56.42
868.354	54.17
868.655	56.08
868.957	55.5
869.258	53.28
869.56	53.94
869.861	56.58
870.162	55.65
870.463	56.28
870.765	56.07
871.066	56.25
871.367	56.47
871.668	58.07
871.969	58.22
872.27	56.98
872.571	55.9
872.872	57.99
873.173	58.32
873.473	60.63
873.774	61.52
874.075	62.06
874.376	61.58
874.676	61.55
874.977	60.62
875.277	61.9
875.578	64.85
875.878	64.17
876.179	63.11
876.479	64.41
876.78	62.82
877.08	60.58
877.38	59.89
877.68	61.67
877.981	59.99
878.281	59.15
878.581	60.03
