Data from BU58131_Reflection_00011.txt Node
Date: Mon Nov 18 16:32:31 EST 2019
User: vgr7
Spectrometer: USB2G7710
Scans to average: 3
Trigger mode: 4
Integration Time (sec): 2.000000E-2
Electric dark correction enabled: true
Boxcar width: 10
XAxis mode: Wavelengths
Number of Pixels in Spectrum: 2048
>>>>>Begin Spectral Data<<<<<
177.721	358.79
178.105	368.66
178.488	167.33
178.871	-20.54
179.254	65.34
179.636	-20.54
180.019	-446.96
180.402	71.43
180.785	44.56
181.168	-86.53
181.55	9.72
181.933	54.82
182.316	48.01
182.698	52.66
183.081	67.48
183.463	78.19
183.846	79.69
184.228	73.41
184.611	60.36
184.993	57.46
185.376	42.87
185.758	28.54
186.14	30.32
186.522	88.2
186.904	112.83
187.287	118.32
187.669	147.07
188.051	222.39
188.433	299.38
188.815	276.47
189.197	1014.16
189.579	-160.12
189.961	-40.99
190.342	-54.2
190.724	-34.81
191.106	-50.11
191.488	-49.55
191.869	-23.01
192.251	-58.44
192.633	-55.08
193.014	-110.85
193.396	-120.53
193.777	-113.9
194.159	-122.01
194.54	-158.18
194.922	-123.26
195.303	-124.34
195.684	-197.61
196.065	-92.83
196.447	-89.71
196.828	-89.91
197.209	-66.14
197.59	-114.19
197.971	-129.29
198.352	-61.55
198.733	-59.91
199.114	-34.15
199.495	-57.03
199.876	-63.27
200.257	-53.28
200.638	-44.99
201.018	-66.05
201.399	-51.5
201.78	-29.56
202.16	-72.04
202.541	-77.96
202.922	-85.53
203.302	-113.64
203.683	-101.83
204.063	-164.75
204.444	-214.76
204.824	-318.85
205.204	-273.37
205.585	-349.86
205.965	-223.34
206.345	-369.15
206.725	-866.32
207.106	-1473.07
207.486	-5064.95
207.866	954.39
208.246	17186.96
208.626	1543.51
209.006	-850.77
209.386	897.26
209.766	1400.34
210.145	-822.44
210.525	-146.09
210.905	-147.92
211.285	-139.59
211.664	-112.29
212.044	-102.31
212.424	-81.14
212.803	-41.98
213.183	-35.76
213.562	-44.37
213.942	-33.36
214.321	-57.62
214.701	-58.22
215.08	-47.71
215.459	-52.36
215.838	-45.83
216.218	-68.8
216.597	-60.6
216.976	-85.58
217.355	-73.9
217.734	-61.23
218.113	-69.53
218.492	-82.97
218.871	-89.97
219.25	-94.77
219.629	-102.51
220.008	-85.98
220.387	-93.68
220.766	-66.13
221.144	-77.97
221.523	-76.14
221.902	-93.92
222.28	-83.52
222.659	-83.77
223.037	-87.46
223.416	-82.07
223.794	-91.71
224.173	-78.48
224.551	-77.32
224.929	-57.84
225.308	-34.43
225.686	-22.72
226.064	-26.32
226.442	-30.86
226.821	-17.55
227.199	-12.33
227.577	-9.03
227.955	-10.34
228.333	-11.56
228.711	-16.42
229.089	-10.59
229.467	-13.44
229.845	-10.48
230.222	-11.06
230.6	-11.92
230.978	-8.64
231.356	-6.11
231.733	-1.47
232.111	-4.08
232.488	-3.84
232.866	-3.71
233.243	-5.9
233.621	-7.38
233.998	-4.07
234.376	-3.52
234.753	-4.29
235.13	-3.79
235.508	-4.66
235.885	-4.11
236.262	-3.81
236.639	-3.33
237.016	-3.9
237.393	-0.76
237.77	0.74
238.147	1.54
238.524	0.81
238.901	1.86
239.278	2.25
239.655	2.35
240.032	3.27
240.409	3.42
240.785	2.85
241.162	3.2
241.539	3.35
241.915	3.62
242.292	3.46
242.668	3.77
243.045	3.94
243.421	4.1
243.798	4.01
244.174	4.25
244.551	4.17
244.927	4.06
245.303	4.38
245.679	4.21
246.056	4.39
246.432	4.65
246.808	4.47
247.184	4.04
247.56	3.65
247.936	3.52
248.312	3.59
248.688	4.01
249.064	4.02
249.44	4.13
249.815	4.12
250.191	4.29
250.567	3.97
250.943	3.79
251.318	3.79
251.694	3.69
252.069	3.23
252.445	3.25
252.82	3.28
253.196	2.88
253.571	2.87
253.947	2.84
254.322	2.72
254.697	2.58
255.073	2.76
255.448	2.81
255.823	2.79
256.198	2.95
256.573	2.87
256.948	3.13
257.323	3.13
257.698	2.95
258.073	3.14
258.448	3.29
258.823	3.39
259.198	3.42
259.573	3.44
259.948	3.66
260.322	3.71
260.697	3.73
261.072	3.69
261.446	3.7
261.821	3.56
262.195	3.75
262.57	3.73
262.944	3.8
263.319	3.98
263.693	4.15
264.067	4.11
264.442	3.92
264.816	3.73
265.19	3.52
265.564	3.56
265.938	3.18
266.313	3.23
266.687	3.26
267.061	3.08
267.435	3.03
267.809	3.02
268.183	2.92
268.556	2.95
268.93	2.92
269.304	2.76
269.678	3.03
270.051	2.92
270.425	2.96
270.799	2.84
271.172	2.72
271.546	2.48
271.919	2.38
272.293	2.46
272.666	2.56
273.04	2.72
273.413	2.69
273.787	2.71
274.16	2.52
274.533	2.41
274.906	2.4
275.279	2.41
275.653	2.41
276.026	2.49
276.399	2.35
276.772	2.36
277.145	2.49
277.518	2.17
277.891	2.27
278.263	2.18
278.636	2.31
279.009	2.34
279.382	2.56
279.755	2.52
280.127	2.73
280.5	2.71
280.872	2.57
281.245	2.65
281.617	2.91
281.99	3.07
282.362	3.18
282.735	3.1
283.107	3.1
283.479	3.07
283.852	2.83
284.224	2.89
284.596	2.76
284.968	2.76
285.34	2.97
285.713	2.75
286.085	2.9
286.457	3
286.829	3.07
287.201	3.14
287.572	3.19
287.944	3.02
288.316	2.99
288.688	2.99
289.06	2.99
289.431	2.92
289.803	2.97
290.175	2.99
290.546	3.32
290.918	3.42
291.289	3.55
291.661	3.74
292.032	3.86
292.403	4.11
292.775	4.12
293.146	4.12
293.517	4.4
293.889	4.32
294.26	4.3
294.631	4.32
295.002	4.25
295.373	4.24
295.744	4.37
296.115	4.4
296.486	4.4
296.857	4.57
297.228	4.65
297.599	4.65
297.97	4.62
298.34	4.42
298.711	4.51
299.082	4.44
299.452	4.54
299.823	4.57
300.194	4.55
300.564	4.59
300.935	4.54
301.305	4.43
301.676	4.5
302.046	4.54
302.416	4.69
302.787	4.73
303.157	4.88
303.527	4.91
303.897	4.9
304.267	5.13
304.637	5
305.008	5.04
305.378	5.17
305.748	5.23
306.117	5.4
306.487	5.39
306.857	5.43
307.227	5.57
307.597	5.68
307.967	5.83
308.336	5.92
308.706	5.96
309.076	6.17
309.445	6.28
309.815	6.35
310.184	6.28
310.554	6.33
310.923	6.35
311.293	6.47
311.662	6.59
312.031	6.56
312.401	6.64
312.77	6.67
313.139	6.79
313.508	6.99
313.877	7.03
314.246	7.13
314.616	7.26
314.985	7.14
315.353	7.07
315.722	7.01
316.091	7.06
316.46	7.13
316.829	7.12
317.198	7.43
317.567	7.46
317.935	7.53
318.304	7.57
318.672	7.6
319.041	7.66
319.41	7.72
319.778	7.93
320.147	8.08
320.515	7.97
320.883	7.94
321.252	7.91
321.62	8.12
321.988	8.13
322.357	8.39
322.725	8.57
323.093	8.74
323.461	8.88
323.829	8.98
324.197	9.12
324.565	9.18
324.933	9.02
325.301	9.04
325.669	9.3
326.037	9.31
326.405	9.42
326.772	9.46
327.14	9.55
327.508	9.45
327.875	9.36
328.243	9.7
328.61	9.62
328.978	9.69
329.346	9.69
329.713	9.76
330.08	9.7
330.448	9.58
330.815	9.5
331.182	9.55
331.55	9.62
331.917	9.61
332.284	9.75
332.651	9.64
333.018	9.83
333.385	9.62
333.752	9.85
334.119	9.98
334.486	10.01
334.853	10.06
335.22	10.2
335.587	10.21
335.954	10.12
336.32	10.19
336.687	10.33
337.054	10.39
337.42	10.54
337.787	10.55
338.153	10.62
338.52	10.86
338.886	10.96
339.253	10.87
339.619	10.84
339.986	10.77
340.352	10.94
340.718	10.93
341.084	11.04
341.451	11.13
341.817	11.16
342.183	11.2
342.549	11.2
342.915	11.22
343.281	11.31
343.647	11.31
344.013	11.38
344.379	11.23
344.745	11.26
345.11	11.26
345.476	11.4
345.842	11.53
346.208	11.5
346.573	11.47
346.939	11.58
347.304	11.68
347.67	11.79
348.035	11.87
348.401	11.84
348.766	11.88
349.132	11.7
349.497	11.65
349.862	11.68
350.228	11.72
350.593	11.69
350.958	11.66
351.323	11.81
351.688	11.72
352.053	11.86
352.418	11.86
352.783	11.82
353.148	11.75
353.513	11.73
353.878	11.66
354.243	11.7
354.608	11.75
354.972	11.73
355.337	11.64
355.702	11.57
356.066	11.58
356.431	11.54
356.795	11.65
357.16	11.59
357.524	11.46
357.889	11.44
358.253	11.41
358.618	11.48
358.982	11.28
359.346	11.25
359.71	11.16
360.075	11.16
360.439	11.11
360.803	11.03
361.167	10.98
361.531	10.99
361.895	10.88
362.259	10.83
362.623	10.79
362.987	10.78
363.351	10.75
363.714	10.66
364.078	10.57
364.442	10.44
364.806	10.41
365.169	10.46
365.533	10.47
365.896	10.42
366.26	10.36
366.623	10.34
366.987	10.37
367.35	10.36
367.714	10.27
368.077	10.19
368.44	10.13
368.803	10.07
369.167	10.03
369.53	9.98
369.893	9.95
370.256	9.91
370.619	9.89
370.982	9.76
371.345	9.75
371.708	9.74
372.071	9.72
372.434	9.72
372.797	9.6
373.159	9.43
373.522	9.42
373.885	9.36
374.247	9.36
374.61	9.31
374.973	9.23
375.335	9.12
375.698	9.05
376.06	8.97
376.423	8.92
376.785	8.8
377.147	8.76
377.51	8.65
377.872	8.58
378.234	8.45
378.596	8.44
378.958	8.33
379.321	8.26
379.683	8.2
380.045	8.09
380.407	8
380.769	8
381.13	7.9
381.492	7.79
381.854	7.69
382.216	7.59
382.578	7.51
382.939	7.41
383.301	7.38
383.663	7.34
384.024	7.25
384.386	7.21
384.747	7.12
385.109	7.09
385.47	6.99
385.832	6.93
386.193	6.9
386.554	6.84
386.916	6.81
387.277	6.79
387.638	6.75
387.999	6.74
388.36	6.66
388.721	6.59
389.082	6.56
389.443	6.49
389.804	6.39
390.165	6.34
390.526	6.33
390.887	6.25
391.248	6.24
391.609	6.2
391.969	6.13
392.33	6.09
392.691	6.08
393.051	6.03
393.412	5.98
393.772	5.88
394.133	5.88
394.493	5.83
394.854	5.76
395.214	5.69
395.574	5.64
395.935	5.59
396.295	5.57
396.655	5.5
397.015	5.46
397.376	5.46
397.736	5.43
398.096	5.4
398.456	5.4
398.816	5.34
399.176	5.26
399.535	5.2
399.895	5.19
400.255	5.09
400.615	5.07
400.975	5.06
401.334	5.01
401.694	4.97
402.054	4.88
402.413	4.84
402.773	4.77
403.132	4.71
403.492	4.71
403.851	4.69
404.211	4.66
404.57	4.63
404.929	4.6
405.288	4.57
405.648	4.54
406.007	4.48
406.366	4.44
406.725	4.43
407.084	4.45
407.443	4.39
407.802	4.39
408.161	4.35
408.52	4.31
408.879	4.3
409.238	4.28
409.596	4.29
409.955	4.29
410.314	4.32
410.673	4.34
411.031	4.26
411.39	4.21
411.748	4.21
412.107	4.19
412.465	4.17
412.824	4.16
413.182	4.12
413.54	4.13
413.899	4.13
414.257	4.11
414.615	4.04
414.974	4.04
415.332	4
415.69	3.99
416.048	3.95
416.406	3.94
416.764	3.91
417.122	3.9
417.48	3.84
417.838	3.83
418.195	3.82
418.553	3.82
418.911	3.82
419.269	3.81
419.626	3.8
419.984	3.79
420.342	3.78
420.699	3.76
421.057	3.73
421.414	3.72
421.772	3.7
422.129	3.69
422.486	3.67
422.844	3.64
423.201	3.62
423.558	3.61
423.915	3.59
424.273	3.58
424.63	3.56
424.987	3.57
425.344	3.54
425.701	3.53
426.058	3.5
426.415	3.48
426.772	3.46
427.128	3.42
427.485	3.41
427.842	3.38
428.199	3.38
428.555	3.36
428.912	3.34
429.269	3.35
429.625	3.35
429.982	3.34
430.338	3.37
430.695	3.37
431.051	3.35
431.407	3.36
431.764	3.33
432.12	3.34
432.476	3.32
432.832	3.31
433.189	3.3
433.545	3.31
433.901	3.3
434.257	3.31
434.613	3.33
434.969	3.32
435.325	3.33
435.681	3.32
436.036	3.3
436.392	3.29
436.748	3.27
437.104	3.27
437.459	3.26
437.815	3.26
438.171	3.25
438.526	3.26
438.882	3.26
439.237	3.25
439.593	3.25
439.948	3.24
440.304	3.24
440.659	3.24
441.014	3.23
441.369	3.23
441.725	3.22
442.08	3.21
442.435	3.21
442.79	3.19
443.145	3.19
443.5	3.19
443.855	3.18
444.21	3.17
444.565	3.16
444.92	3.17
445.275	3.15
445.629	3.17
445.984	3.16
446.339	3.14
446.693	3.15
447.048	3.13
447.403	3.13
447.757	3.13
448.112	3.12
448.466	3.09
448.82	3.08
449.175	3.07
449.529	3.06
449.883	3.04
450.238	3.03
450.592	3.02
450.946	3.01
451.3	2.98
451.654	2.98
452.008	2.97
452.362	2.95
452.716	2.94
453.07	2.91
453.424	2.9
453.778	2.89
454.132	2.86
454.486	2.86
454.839	2.85
455.193	2.84
455.547	2.84
455.9	2.85
456.254	2.85
456.607	2.85
456.961	2.86
457.314	2.86
457.668	2.86
458.021	2.87
458.375	2.86
458.728	2.87
459.081	2.87
459.434	2.88
459.787	2.89
460.141	2.89
460.494	2.89
460.847	2.89
461.2	2.89
461.553	2.91
461.906	2.91
462.259	2.94
462.611	2.96
462.964	2.97
463.317	2.99
463.67	3.02
464.022	3.03
464.375	3.03
464.728	3.05
465.08	3.07
465.433	3.08
465.785	3.09
466.138	3.09
466.49	3.12
466.843	3.13
467.195	3.15
467.547	3.16
467.899	3.17
468.252	3.2
468.604	3.23
468.956	3.22
469.308	3.23
469.66	3.21
470.012	3.2
470.364	3.21
470.716	3.21
471.068	3.19
471.42	3.18
471.772	3.22
472.123	3.23
472.475	3.24
472.827	3.25
473.178	3.26
473.53	3.3
473.882	3.31
474.233	3.3
474.585	3.28
474.936	3.27
475.288	3.28
475.639	3.28
475.99	3.28
476.342	3.29
476.693	3.3
477.044	3.31
477.395	3.31
477.746	3.29
478.097	3.29
478.448	3.3
478.8	3.3
479.15	3.27
479.501	3.27
479.852	3.26
480.203	3.25
480.554	3.25
480.905	3.24
481.255	3.23
481.606	3.24
481.957	3.26
482.307	3.25
482.658	3.25
483.009	3.24
483.359	3.24
483.709	3.25
484.06	3.25
484.41	3.25
484.761	3.26
485.111	3.25
485.461	3.25
485.811	3.25
486.162	3.24
486.512	3.25
486.862	3.24
487.212	3.25
487.562	3.25
487.912	3.25
488.262	3.26
488.612	3.26
488.961	3.25
489.311	3.25
489.661	3.26
490.011	3.27
490.36	3.26
490.71	3.25
491.06	3.25
491.409	3.26
491.759	3.26
492.108	3.26
492.458	3.26
492.807	3.26
493.157	3.29
493.506	3.3
493.855	3.29
494.204	3.3
494.554	3.31
494.903	3.3
495.252	3.31
495.601	3.32
495.95	3.34
496.299	3.36
496.648	3.37
496.997	3.39
497.346	3.42
497.695	3.47
498.043	3.51
498.392	3.52
498.741	3.55
499.09	3.56
499.438	3.59
499.787	3.62
500.135	3.67
500.484	3.66
500.832	3.71
501.181	3.75
501.529	3.79
501.878	3.82
502.226	3.89
502.574	3.93
502.923	3.96
503.271	3.99
503.619	4.05
503.967	4.1
504.315	4.14
504.663	4.19
505.011	4.24
505.359	4.29
505.707	4.36
506.055	4.39
506.403	4.46
506.751	4.51
507.098	4.57
507.446	4.62
507.794	4.71
508.141	4.74
508.489	4.8
508.837	4.88
509.184	4.93
509.531	4.98
509.879	5.06
510.226	5.14
510.574	5.19
510.921	5.24
511.268	5.32
511.616	5.4
511.963	5.46
512.31	5.54
512.657	5.62
513.004	5.67
513.351	5.77
513.698	5.84
514.045	5.92
514.392	6
514.739	6.09
515.086	6.18
515.432	6.27
515.779	6.35
516.126	6.43
516.473	6.52
516.819	6.61
517.166	6.68
517.512	6.75
517.859	6.82
518.205	6.89
518.552	6.94
518.898	7
519.245	7.09
519.591	7.16
519.937	7.21
520.283	7.3
520.629	7.39
520.976	7.49
521.322	7.58
521.668	7.65
522.014	7.76
522.36	7.86
522.706	7.99
523.052	8.12
523.398	8.24
523.743	8.38
524.089	8.51
524.435	8.64
524.781	8.78
525.126	8.91
525.472	9.03
525.817	9.15
526.163	9.24
526.509	9.32
526.854	9.41
527.199	9.52
527.545	9.6
527.89	9.66
528.235	9.76
528.581	9.86
528.926	9.96
529.271	10.04
529.616	10.13
529.961	10.22
530.306	10.32
530.651	10.41
530.996	10.51
531.341	10.62
531.686	10.73
532.031	10.84
532.376	10.97
532.721	11.1
533.065	11.22
533.41	11.36
533.755	11.5
534.099	11.65
534.444	11.8
534.788	11.94
535.133	12.12
535.477	12.25
535.822	12.41
536.166	12.62
536.51	12.82
536.855	13.01
537.199	13.22
537.543	13.45
537.887	13.68
538.231	13.93
538.576	14.17
538.92	14.43
539.264	14.65
539.608	14.84
539.951	15.04
540.295	15.26
540.639	15.46
540.983	15.65
541.327	15.84
541.671	16.04
542.014	16.23
542.358	16.41
542.701	16.61
543.045	16.79
543.389	16.96
543.732	17.17
544.075	17.4
544.419	17.61
544.762	17.82
545.105	18.07
545.449	18.28
545.792	18.54
546.135	18.79
546.478	19.05
546.821	19.33
547.165	19.63
547.508	19.97
547.851	20.28
548.194	20.59
548.536	20.89
548.879	21.21
549.222	21.54
549.565	21.89
549.908	22.26
550.25	22.63
550.593	23.04
550.936	23.35
551.278	23.68
551.621	24.07
551.963	24.45
552.306	24.74
552.648	25.13
552.991	25.49
553.333	25.85
553.675	26.22
554.017	26.59
554.36	26.97
554.702	27.26
555.044	27.62
555.386	27.95
555.728	28.33
556.07	28.75
556.412	29.13
556.754	29.53
557.096	29.91
557.438	30.31
557.78	30.68
558.121	31.1
558.463	31.51
558.805	31.87
559.147	32.24
559.488	32.65
559.83	32.98
560.171	33.32
560.513	33.72
560.854	34.1
561.196	34.47
561.537	34.86
561.878	35.25
562.22	35.62
562.561	36
562.902	36.38
563.243	36.66
563.584	37.01
563.925	37.37
564.266	37.68
564.607	37.97
564.948	38.29
565.289	38.62
565.63	38.97
565.971	39.32
566.312	39.57
566.653	39.88
566.993	40.22
567.334	40.55
567.675	40.85
568.015	41.21
568.356	41.52
568.696	41.79
569.037	42.05
569.377	42.38
569.718	42.67
570.058	42.9
570.398	43.17
570.739	43.45
571.079	43.67
571.419	43.89
571.759	44.2
572.099	44.45
572.439	44.65
572.779	44.86
573.119	45.08
573.459	45.37
573.799	45.62
574.139	45.85
574.479	46.09
574.819	46.3
575.158	46.48
575.498	46.69
575.838	46.88
576.177	47.11
576.517	47.26
576.856	47.5
577.196	47.73
577.535	48.01
577.875	48.21
578.214	48.47
578.553	48.75
578.893	48.97
579.232	49.21
579.571	49.42
579.91	49.64
580.25	49.9
580.589	50.12
580.928	50.34
581.267	50.52
581.606	50.73
581.945	50.85
582.283	51.06
582.622	51.23
582.961	51.42
583.3	51.58
583.639	51.8
583.977	51.97
584.316	52.16
584.654	52.31
584.993	52.47
585.332	52.66
585.67	52.83
586.008	52.86
586.347	52.98
586.685	53.16
587.024	53.36
587.362	53.42
587.7	53.47
588.038	53.61
588.376	53.75
588.715	53.87
589.053	54.11
589.391	54.25
589.729	54.33
590.067	54.41
590.404	54.56
590.742	54.67
591.08	54.79
591.418	54.88
591.756	54.94
592.093	55.1
592.431	55.24
592.769	55.32
593.106	55.47
593.444	55.52
593.781	55.61
594.119	55.68
594.456	55.83
594.793	55.96
595.131	56.06
595.468	56.15
595.805	56.22
596.143	56.27
596.48	56.32
596.817	56.4
597.154	56.5
597.491	56.54
597.828	56.6
598.165	56.65
598.502	56.76
598.839	56.93
599.176	57.05
599.512	57.05
599.849	57.18
600.186	57.31
600.523	57.47
600.859	57.65
601.196	57.75
601.532	57.8
601.869	57.89
602.205	57.9
602.542	57.97
602.878	58.04
603.215	58.11
603.551	58.15
603.887	58.3
604.223	58.35
604.56	58.43
604.896	58.56
605.232	58.59
605.568	58.69
605.904	58.75
606.24	58.74
606.576	58.84
606.912	58.92
607.248	58.98
607.583	59.07
607.919	59.08
608.255	59.14
608.591	59.2
608.926	59.29
609.262	59.43
609.597	59.44
609.933	59.49
610.268	59.53
610.604	59.61
610.939	59.63
611.275	59.81
611.61	59.94
611.945	59.96
612.281	60.02
612.616	60.08
612.951	60.13
613.286	60.28
613.621	60.35
613.956	60.37
614.291	60.39
614.626	60.47
614.961	60.56
615.296	60.56
615.631	60.64
615.966	60.69
616.3	60.67
616.635	60.74
616.97	60.81
617.304	60.93
617.639	61.06
617.973	61.02
618.308	60.89
618.642	60.89
618.977	60.84
619.311	60.99
619.646	60.94
619.98	60.92
620.314	60.9
620.648	60.92
620.983	60.98
621.317	61.05
621.651	60.99
621.985	61.01
622.319	61.16
622.653	61.21
622.987	61.33
623.321	61.35
623.655	61.4
623.988	61.43
624.322	61.43
624.656	61.38
624.99	61.41
625.323	61.55
625.657	61.59
625.99	61.64
626.324	61.63
626.657	61.73
626.991	61.76
627.324	61.76
627.658	61.79
627.991	61.8
628.324	61.86
628.657	61.95
628.991	62.01
629.324	61.97
629.657	61.98
629.99	62.01
630.323	62.07
630.656	62.12
630.989	62.2
631.322	62.26
631.655	62.41
631.987	62.48
632.32	62.53
632.653	62.51
632.986	62.54
633.318	62.61
633.651	62.65
633.984	62.76
634.316	62.88
634.649	62.88
634.981	62.93
635.313	62.85
635.646	62.95
635.978	62.95
636.31	62.98
636.643	63.07
636.975	63.12
637.307	63.12
637.639	63.14
637.971	63.18
638.303	63.19
638.635	63.16
638.967	63.32
639.299	63.35
639.631	63.5
639.963	63.57
640.295	63.52
640.626	63.61
640.958	63.57
641.29	63.7
641.621	63.69
641.953	63.67
642.285	63.79
642.616	63.71
642.948	63.66
643.279	63.7
643.61	63.69
643.942	63.59
644.273	63.69
644.604	63.63
644.936	63.53
645.267	63.56
645.598	63.54
645.929	63.46
646.26	63.47
646.591	63.37
646.922	63.46
647.253	63.55
647.584	63.45
647.915	63.52
648.245	63.41
648.576	63.44
648.907	63.63
649.238	63.49
649.568	63.47
649.899	63.61
650.229	63.55
650.56	63.49
650.89	63.56
651.221	63.59
651.551	63.63
651.882	63.71
652.212	63.73
652.542	63.81
652.872	63.72
653.203	63.74
653.533	63.82
653.863	63.72
654.193	63.7
654.523	63.75
654.853	63.67
655.183	63.64
655.513	63.72
655.843	63.6
656.172	63.74
656.502	63.8
656.832	63.84
657.162	63.89
657.491	63.98
657.821	63.92
658.15	63.94
658.48	63.98
658.809	64.02
659.139	63.93
659.468	63.85
659.798	63.88
660.127	63.84
660.456	63.94
660.785	64.02
661.115	64.13
661.444	64.22
661.773	64.21
662.102	64.27
662.431	64.21
662.76	64.32
663.089	64.37
663.418	64.33
663.747	64.36
664.076	64.44
664.404	64.3
664.733	64.27
665.062	64.2
665.39	64.29
665.719	64.16
666.048	64.26
666.376	64.32
666.705	64.29
667.033	64.16
667.362	64
667.69	64.03
668.018	64.02
668.347	63.95
668.675	64
669.003	64.05
669.331	64.18
669.659	64.19
669.987	64.08
670.315	64.1
670.643	63.99
670.971	63.91
671.299	64.1
671.627	64.25
671.955	64.29
672.283	64.26
672.61	64.43
672.938	64.38
673.266	64.39
673.593	64.59
673.921	64.78
674.249	64.8
674.576	64.74
674.904	64.56
675.231	64.52
675.558	64.63
675.886	64.47
676.213	64.4
676.54	64.23
676.867	64.39
677.195	64.51
677.522	64.49
677.849	64.69
678.176	64.58
678.503	64.58
678.83	64.5
679.157	64.4
679.484	64.31
679.81	64.38
680.137	64.37
680.464	64.37
680.791	64.36
681.117	64.39
681.444	64.55
681.771	64.56
682.097	64.68
682.424	64.74
682.75	64.92
683.077	64.94
683.403	64.96
683.729	64.98
684.056	64.89
684.382	64.93
684.708	64.89
685.034	64.86
685.36	64.89
685.686	65
686.012	65.06
686.339	65.04
686.664	65.06
686.99	65.14
687.316	65.11
687.642	65.15
687.968	65.14
688.294	64.99
688.619	65.02
688.945	65.01
689.271	64.86
689.596	64.63
689.922	64.72
690.247	64.8
690.573	64.73
690.898	64.7
691.224	64.79
691.549	64.68
691.874	64.84
692.2	64.86
692.525	64.82
692.85	64.85
693.175	65.02
693.5	65.03
693.825	65.07
694.15	65.03
694.475	64.9
694.8	65.14
695.125	65.17
695.45	65.31
695.775	65.3
696.099	65.35
696.424	65.39
696.749	65.18
697.073	65.3
697.398	65.22
697.723	65.33
698.047	65.31
698.372	65.35
698.696	65.41
699.02	65.29
699.345	65.36
699.669	65.43
699.993	65.46
700.318	65.47
700.642	65.38
700.966	65.33
701.29	65.37
701.614	65.23
701.938	65.14
702.262	65.14
702.586	65.07
702.91	65.16
703.234	65.28
703.557	65.42
703.881	65.35
704.205	65.51
704.529	65.57
704.852	65.54
705.176	65.62
705.499	65.49
705.823	65.41
706.146	65.35
706.47	65.34
706.793	65.26
707.117	65.15
707.44	65.12
707.763	65.1
708.086	65.38
708.409	65.18
708.733	65.28
709.056	65.14
709.379	65.25
709.702	65.06
710.025	64.84
710.348	64.88
710.671	64.79
710.993	64.86
711.316	64.85
711.639	64.82
711.962	64.67
712.284	64.67
712.607	64.79
712.93	64.76
713.252	64.73
713.575	64.84
713.897	64.93
714.22	65.02
714.542	65.26
714.864	65.08
715.187	65.3
715.509	65.31
715.831	65.37
716.153	65.14
716.475	65.24
716.798	65.6
717.12	65.58
717.442	65.74
717.764	65.67
718.085	65.5
718.407	65.49
718.729	65.57
719.051	65.58
719.373	65.69
719.695	65.65
720.016	65.56
720.338	65.46
720.659	65.57
720.981	65.66
721.302	65.55
721.624	65.59
721.945	65.48
722.267	65.3
722.588	65.48
722.909	65.5
723.231	65.55
723.552	65.21
723.873	65.14
724.194	65.01
724.515	64.83
724.836	65.09
725.157	65.17
725.478	64.99
725.799	65.08
726.12	65.22
726.441	65.46
726.762	65.46
727.083	65.42
727.403	65.38
727.724	65.32
728.045	65.28
728.365	65.33
728.686	65.35
729.006	65.42
729.327	65.28
729.647	65.45
729.967	65.24
730.288	65.6
730.608	65.66
730.928	65.63
731.249	65.63
731.569	65.38
731.889	65.23
732.209	65.3
732.529	65.3
732.849	65.06
733.169	64.95
733.489	64.94
733.809	65.03
734.129	64.98
734.448	64.89
734.768	64.95
735.088	65.06
735.408	65.5
735.727	65.58
736.047	65.6
736.366	65.87
736.686	65.95
737.005	65.78
737.325	65.79
737.644	65.92
737.963	66.29
738.283	66.59
738.602	66.68
738.921	66.81
739.24	67.05
739.56	67.29
739.879	67.54
740.198	67.63
740.517	67.74
740.836	67.8
741.155	67.72
741.473	67.73
741.792	67.3
742.111	66.79
742.43	66.72
742.748	66.9
743.067	66.56
743.386	66.4
743.704	66.28
744.023	66.27
744.341	66.56
744.66	66.19
744.978	65.62
745.297	65.43
745.615	65.32
745.933	64.88
746.252	64.88
746.57	64.73
746.888	64.59
747.206	64.34
747.524	64.43
747.842	64.38
748.16	64.55
748.478	64.36
748.796	64.64
749.114	64.9
749.432	64.71
749.749	64.63
750.067	65.01
750.385	64.92
750.703	64.75
751.02	64.43
751.338	64.88
751.655	65.25
751.973	65.56
752.29	65.59
752.608	65.94
752.925	65.88
753.242	65.72
753.56	65.96
753.877	66.09
754.194	66
754.511	66.2
754.828	65.99
755.145	66.11
755.462	65.79
755.779	65.73
756.096	65.77
756.413	66.06
756.73	65.99
757.047	65.87
757.364	65.85
757.68	65.76
757.997	65.29
758.314	65.3
758.63	65.22
758.947	65.22
759.264	65.3
759.58	65.33
759.896	65.52
760.213	65.25
760.529	65.66
760.846	65.54
761.162	65.55
761.478	65.58
761.794	65.72
762.11	65.81
762.426	65.61
762.743	65.79
763.059	65.74
763.375	65.77
763.69	66.04
764.006	66.47
764.322	66.45
764.638	66.5
764.954	66.44
765.27	66.41
765.585	66.8
765.901	66.54
766.216	66.4
766.532	66.22
766.848	66.58
767.163	66.57
767.478	66.48
767.794	66.46
768.109	66.61
768.424	66.65
768.74	66.63
769.055	66.56
769.37	66.38
769.685	66.59
770	66.75
770.315	66.97
770.63	66.7
770.945	66.91
771.26	67.14
771.575	67.29
771.89	67.55
772.205	67.42
772.52	67.73
772.834	67.93
773.149	67.78
773.464	67.74
773.778	67.31
774.093	67.71
774.407	68.01
774.722	67.94
775.036	68.21
775.351	68.36
775.665	68.5
775.979	68.08
776.293	67.69
776.608	67.32
776.922	66.72
777.236	66.6
777.55	66.38
777.864	66.2
778.178	65.89
778.492	66.18
778.806	65.73
779.12	65.65
779.434	65.64
779.747	65.94
780.061	65.91
780.375	65.72
780.689	65.4
781.002	64.86
781.316	64.48
781.629	64.19
781.943	63.99
782.256	64.3
782.57	64.66
782.883	64.59
783.196	64.76
783.51	65.22
783.823	65.01
784.136	65.34
784.449	65.32
784.762	65.7
785.075	64.9
785.388	65.02
785.701	64.86
786.014	64.76
786.327	65.34
786.64	65.14
786.953	65.24
787.266	65.92
787.578	66.24
787.891	66.33
788.204	66.45
788.516	66.81
788.829	66.95
789.141	66.91
789.454	66.85
789.766	66.9
790.079	66.67
790.391	66.94
790.703	66.76
791.016	66.59
791.328	66.47
791.64	66.66
791.952	66.41
792.264	66.47
792.576	66.84
792.888	66.15
793.2	66.29
793.512	66.57
793.824	65.77
794.136	65.65
794.448	66.24
794.76	66.3
795.071	66.53
795.383	66.22
795.695	66.26
796.006	66.78
796.318	66.44
796.629	67.04
796.941	66.81
797.252	66.99
797.564	67.18
797.875	67.13
798.186	67.64
798.497	67.69
798.809	67.85
799.12	67.2
799.431	67.39
799.742	67.38
800.053	66.67
800.364	66.79
800.675	66.26
800.986	65.83
801.297	65.25
801.608	64.88
801.918	64.84
802.229	64.64
802.54	63.63
802.851	64.16
803.161	63.54
803.472	63.38
803.782	62.61
804.093	62.08
804.403	62.45
804.714	62.67
805.024	62.36
805.334	62.35
805.645	62.24
805.955	62.16
806.265	62.27
806.575	63.23
806.885	63.38
807.195	64
807.505	63.61
807.815	64.28
808.125	63.73
808.435	63.68
808.745	64.28
809.055	65.08
809.365	64.38
809.674	64.57
809.984	65.22
810.294	65.41
810.603	66.01
810.913	66.38
811.222	65.21
811.532	65.16
811.841	65.09
812.151	65.8
812.46	65.46
812.769	65.87
813.079	65.22
813.388	65.27
813.697	66.03
814.006	66.73
814.315	66.56
814.624	66.92
814.933	67.38
815.242	66.8
815.551	66.6
815.86	67.35
816.169	66.91
816.478	66.09
816.786	67.11
817.095	66.44
817.404	65.69
817.712	66.61
818.021	67.23
818.33	67.17
818.638	66.43
818.947	67.04
819.255	67.14
819.563	67.06
819.872	66.55
820.18	66.13
820.488	65.77
820.796	65.93
821.105	65.99
821.413	66.09
821.721	66.18
822.029	66.44
822.337	66.34
822.645	66.63
822.953	66.74
823.26	66.68
823.568	66.94
823.876	66.91
824.184	66.73
824.491	66.93
824.799	66.9
825.107	67.1
825.414	67.05
825.722	66.76
826.029	66.91
826.337	67.02
826.644	67.04
826.951	67.35
827.259	67.33
827.566	67.21
827.873	66.89
828.18	66.87
828.488	66.51
828.795	66.73
829.102	66.66
829.409	66.67
829.716	66.54
830.023	66.46
830.329	66.54
830.636	66.95
830.943	66.74
831.25	66.65
831.557	66.39
831.863	66.3
832.17	66.65
832.476	66.39
832.783	66.28
833.089	66.58
833.396	66.52
833.702	66.23
834.009	66.66
834.315	67.85
834.621	68.13
834.928	68.68
835.234	68.79
835.54	68.53
835.846	68.53
836.152	68.71
836.458	68.52
836.764	68.46
837.07	68.19
837.376	67.91
837.682	68.17
837.988	68.2
838.293	68.28
838.599	68.33
838.905	68.21
839.211	68.68
839.516	68.21
839.822	67.7
840.127	67.89
840.433	68.41
840.738	66.16
841.044	65.31
841.349	64.5
841.654	63.33
841.959	63.19
842.265	63.03
842.57	63.01
842.875	63.37
843.18	63.65
843.485	64.12
843.79	63.56
844.095	63.18
844.4	64.01
844.705	63.84
845.01	63.91
845.315	63.84
845.619	64.84
845.924	65.25
846.229	66.64
846.533	67.69
846.838	67.14
847.142	69.22
847.447	69.83
847.751	71.02
848.056	71.77
848.36	70.86
848.664	71.18
848.969	70.62
849.273	71.04
849.577	71.29
849.881	70.08
850.185	71.5
850.489	71.55
850.794	70.13
851.097	69.86
851.401	70.45
851.705	69.22
852.009	68.94
852.313	68.34
852.617	66.86
852.92	67.83
853.224	65.97
853.528	67.34
853.831	68.24
854.135	68.71
854.438	68.86
854.742	68.57
855.045	66.73
855.349	66.42
855.652	65.15
855.955	65.57
856.259	63.75
856.562	64.49
856.865	64.97
857.168	65.15
857.471	65.61
857.774	65.97
858.077	69.11
858.38	68.24
858.683	69.07
858.986	69
859.289	67.99
859.592	67.51
859.894	64.67
860.197	64.13
860.5	63.84
860.802	61.98
861.105	62.67
861.407	62.51
861.71	61.42
862.012	64.45
862.315	64.77
862.617	66.49
862.919	63.65
863.222	61.43
863.524	63.76
863.826	66.11
864.128	66.51
864.43	64.59
864.732	65.88
865.034	65.01
865.336	66.01
865.638	65.23
865.94	63.61
866.242	65.7
866.544	66.63
866.846	65.86
867.147	71.01
867.449	71.87
867.751	74.11
868.052	76.54
868.354	74.13
868.655	74.81
868.957	74.63
869.258	75.83
869.56	78.64
869.861	76.19
870.162	74.57
870.463	72.58
870.765	70.77
871.066	69.25
871.367	70.35
871.668	71.39
871.969	71.95
872.27	78.89
872.571	78.04
872.872	78.57
873.173	77.55
873.473	74.7
873.774	75.51
874.075	75.32
874.376	73.08
874.676	76.21
874.977	72.71
875.277	73.55
875.578	72.84
875.878	72.67
876.179	73.08
876.479	72.19
876.78	71.74
877.08	75.8
877.38	75.9
877.68	76.92
877.981	74.98
878.281	75.73
878.581	71.05
