Data from BU58141_Reflection_00010.txt Node
Date: Mon Nov 18 16:46:54 EST 2019
User: vgr7
Spectrometer: USB2G7710
Scans to average: 3
Trigger mode: 4
Integration Time (sec): 2.000000E-2
Electric dark correction enabled: true
Boxcar width: 10
XAxis mode: Wavelengths
Number of Pixels in Spectrum: 2048
>>>>>Begin Spectral Data<<<<<
177.721	86.96
178.105	66.25
178.488	99.39
178.871	107.59
179.254	153.42
179.636	912.5
180.019	327.42
180.402	92.59
180.785	-132.82
181.168	2070.59
181.55	173.73
181.933	85.65
182.316	124.54
182.698	71.59
183.081	68.96
183.463	46.35
183.846	40.86
184.228	43.57
184.611	47.17
184.993	64.02
185.376	73.64
185.758	48.87
186.14	29.49
186.522	93.63
186.904	182.72
187.287	233.6
187.669	-93.77
188.051	-80.51
188.433	15.42
188.815	-67.87
189.197	417.6
189.579	-3820
189.961	-143.09
190.342	240.13
190.724	58.84
191.106	27.8
191.488	10.19
191.869	12.82
192.251	27.85
192.633	27.95
193.014	41.84
193.396	31.42
193.777	-18.46
194.159	-28.62
194.54	33.54
194.922	-1.44
195.303	28.32
195.684	24.82
196.065	35.62
196.447	25.15
196.828	14
197.209	23.89
197.59	23.37
197.971	7.12
198.352	4.2
198.733	12.55
199.114	31.26
199.495	42.14
199.876	27.15
200.257	25.35
200.638	30.71
201.018	18
201.399	18.02
201.78	21.29
202.16	11.58
202.541	1.57
202.922	19.01
203.302	-7.41
203.683	4.95
204.063	-22.12
204.444	-22.57
204.824	-5.58
205.204	-7.9
205.585	22.61
205.965	30.2
206.345	17.8
206.725	6.77
207.106	-5.38
207.486	-50.96
207.866	-38.55
208.246	-29.84
208.626	-37.07
209.006	-31.76
209.386	-38.78
209.766	-33.79
210.145	-17.69
210.525	-13.87
210.905	-2.06
211.285	-4.99
211.664	-6.15
212.044	-3.67
212.424	2.32
212.803	-8.94
213.183	-10.39
213.562	-24.03
213.942	-21.76
214.321	-13.15
214.701	-24.08
215.08	-37.3
215.459	-32.84
215.838	-25.93
216.218	-43.05
216.597	-33.51
216.976	-31.47
217.355	-35.7
217.734	-35.6
218.113	-34.54
218.492	-29.05
218.871	-37.42
219.25	-33.94
219.629	-44.71
220.008	-40.29
220.387	-31.74
220.766	-25.65
221.144	-40.22
221.523	-46.31
221.902	-47.83
222.28	-69.01
222.659	-44.9
223.037	-22.9
223.416	-8.99
223.794	-7.27
224.173	2.73
224.551	-0.73
224.929	-4.59
225.308	6.81
225.686	4.9
226.064	-1.06
226.442	-3.58
226.821	1.14
227.199	2.71
227.577	8.27
227.955	5.71
228.333	1.03
228.711	-0.31
229.089	5.53
229.467	1.76
229.845	2.11
230.222	3.76
230.6	-0.39
230.978	-0.08
231.356	-0.78
231.733	-0.67
232.111	0.35
232.488	0.43
232.866	0.98
233.243	0.27
233.621	0.94
233.998	4.86
234.376	5.46
234.753	4.79
235.13	3.24
235.508	3.25
235.885	3.88
236.262	5.63
236.639	5.78
237.016	2.93
237.393	4.17
237.77	3.93
238.147	3.47
238.524	4.56
238.901	4.06
239.278	4.32
239.655	4.6
240.032	4.18
240.409	4.07
240.785	4.42
241.162	3.64
241.539	3.92
241.915	3.69
242.292	3.65
242.668	4.27
243.045	4.66
243.421	4.24
243.798	3.99
244.174	3.49
244.551	3.57
244.927	3.95
245.303	4.24
245.679	4.37
246.056	4.29
246.432	4.21
246.808	4.05
247.184	4.15
247.56	3.83
247.936	4.02
248.312	4.11
248.688	4.25
249.064	4.25
249.44	4.04
249.815	3.92
250.191	4.01
250.567	3.64
250.943	3.52
251.318	3.83
251.694	4.11
252.069	4.17
252.445	4.2
252.82	4.29
253.196	3.97
253.571	4.14
253.947	4.4
254.322	4.54
254.697	4.54
255.073	4.34
255.448	4.2
255.823	3.77
256.198	3.58
256.573	3.21
256.948	3.45
257.323	3.49
257.698	3.47
258.073	3.25
258.448	3.25
258.823	3.29
259.198	3.11
259.573	2.94
259.948	2.97
260.322	3.1
260.697	3
261.072	3.05
261.446	3.02
261.821	3
262.195	3.07
262.57	2.96
262.944	2.9
263.319	2.85
263.693	2.95
264.067	3.02
264.442	3.24
264.816	3.24
265.19	3.3
265.564	3.38
265.938	3.39
266.313	3.26
266.687	3.52
267.061	3.68
267.435	3.78
267.809	3.85
268.183	3.65
268.556	3.57
268.93	3.64
269.304	3.55
269.678	3.54
270.051	3.28
270.425	3.49
270.799	3.49
271.172	3.55
271.546	3.42
271.919	3.49
272.293	3.46
272.666	3.39
273.04	3.35
273.413	3.29
273.787	3.31
274.16	3.5
274.533	3.32
274.906	3.26
275.279	3.22
275.653	3.22
276.026	3.22
276.399	3.43
276.772	3.38
277.145	3.32
277.518	3.41
277.891	3.43
278.263	3.33
278.636	3.48
279.009	3.53
279.382	3.9
279.755	3.68
280.127	3.67
280.5	3.77
280.872	3.84
281.245	3.67
281.617	3.82
281.99	3.84
282.362	3.82
282.735	3.59
283.107	3.53
283.479	3.5
283.852	3.51
284.224	3.46
284.596	3.37
284.968	3.4
285.34	3.39
285.713	3.42
286.085	3.57
286.457	3.65
286.829	3.73
287.201	3.52
287.572	3.61
287.944	3.58
288.316	3.55
288.688	3.44
289.06	3.46
289.431	3.41
289.803	3.45
290.175	3.56
290.546	3.86
290.918	4
291.289	3.98
291.661	3.97
292.032	4.07
292.403	4.28
292.775	4.34
293.146	4.11
293.517	4.16
293.889	4.14
294.26	4.02
294.631	4
295.002	4.12
295.373	4.24
295.744	4.28
296.115	4.27
296.486	4.15
296.857	4.23
297.228	4.26
297.599	4.05
297.97	3.89
298.34	3.85
298.711	3.84
299.082	3.8
299.452	3.76
299.823	3.75
300.194	3.75
300.564	3.77
300.935	4.17
301.305	4.13
301.676	4.29
302.046	4.28
302.416	4.36
302.787	4.34
303.157	4.31
303.527	4.31
303.897	4.44
304.267	4.76
304.637	4.86
305.008	4.81
305.378	5.13
305.748	5.37
306.117	5.32
306.487	5.38
306.857	5.53
307.227	5.74
307.597	5.7
307.967	5.64
308.336	5.52
308.706	5.31
309.076	5.37
309.445	5.09
309.815	5.22
310.184	5.24
310.554	5.31
310.923	5.27
311.293	5.25
311.662	5.31
312.031	5.32
312.401	5.28
312.77	5.41
313.139	5.24
313.508	5.18
313.877	5.21
314.246	5.11
314.616	5.21
314.985	5.05
315.353	5.04
315.722	5.22
316.091	5.4
316.46	5.38
316.829	5.54
317.198	5.8
317.567	5.79
317.935	5.86
318.304	5.77
318.672	5.79
319.041	5.93
319.41	5.68
319.778	5.73
320.147	5.76
320.515	5.69
320.883	5.83
321.252	5.89
321.62	5.94
321.988	6.14
322.357	6.07
322.725	6.25
323.093	6.45
323.461	6.49
323.829	6.5
324.197	6.75
324.565	6.75
324.933	6.71
325.301	6.69
325.669	6.48
326.037	6.62
326.405	6.8
326.772	6.87
327.14	7.03
327.508	6.97
327.875	7.07
328.243	7.27
328.61	7.36
328.978	7.41
329.346	7.41
329.713	7.35
330.08	7.46
330.448	7.61
330.815	7.37
331.182	7.25
331.55	7.26
331.917	7.19
332.284	7.2
332.651	7.16
333.018	7.32
333.385	7.51
333.752	7.61
334.119	7.58
334.486	7.59
334.853	7.65
335.22	7.73
335.587	7.73
335.954	7.65
336.32	7.64
336.687	7.62
337.054	7.63
337.42	7.71
337.787	7.83
338.153	7.75
338.52	7.93
338.886	7.85
339.253	7.86
339.619	7.84
339.986	7.8
340.352	7.9
340.718	7.84
341.084	7.81
341.451	7.91
341.817	7.98
342.183	7.99
342.549	7.94
342.915	8.06
343.281	8.07
343.647	8.06
344.013	8.08
344.379	8
344.745	8.07
345.11	8.07
345.476	7.95
345.842	7.97
346.208	8.1
346.573	8.25
346.939	8.28
347.304	8.34
347.67	8.3
348.035	8.33
348.401	8.36
348.766	8.41
349.132	8.33
349.497	8.24
349.862	8.3
350.228	8.37
350.593	8.19
350.958	8.16
351.323	8.19
351.688	8.15
352.053	8.4
352.418	8.45
352.783	8.5
353.148	8.5
353.513	8.53
353.878	8.44
354.243	8.41
354.608	8.43
354.972	8.38
355.337	8.46
355.702	8.43
356.066	8.36
356.431	8.31
356.795	8.26
357.16	8.27
357.524	8.14
357.889	8.03
358.253	8.13
358.618	8.23
358.982	8.19
359.346	8.08
359.71	7.92
360.075	7.93
360.439	7.88
360.803	7.91
361.167	7.82
361.531	7.73
361.895	7.7
362.259	7.63
362.623	7.63
362.987	7.54
363.351	7.59
363.714	7.65
364.078	7.63
364.442	7.56
364.806	7.56
365.169	7.62
365.533	7.6
365.896	7.52
366.26	7.42
366.623	7.4
366.987	7.46
367.35	7.5
367.714	7.4
368.077	7.32
368.44	7.23
368.803	7.2
369.167	7.19
369.53	7.15
369.893	7.19
370.256	7.12
370.619	7.1
370.982	6.94
371.345	6.87
371.708	6.86
372.071	6.87
372.434	6.81
372.797	6.75
373.159	6.69
373.522	6.64
373.885	6.54
374.247	6.48
374.61	6.4
374.973	6.32
375.335	6.28
375.698	6.24
376.06	6.2
376.423	6.19
376.785	6.2
377.147	6.16
377.51	6.1
377.872	6.06
378.234	6.03
378.596	6.09
378.958	5.98
379.321	5.91
379.683	5.85
380.045	5.77
380.407	5.71
380.769	5.7
381.13	5.69
381.492	5.73
381.854	5.71
382.216	5.69
382.578	5.67
382.939	5.61
383.301	5.6
383.663	5.52
384.024	5.43
384.386	5.4
384.747	5.34
385.109	5.26
385.47	5.22
385.832	5.16
386.193	5.07
386.554	5.03
386.916	4.97
387.277	4.89
387.638	4.86
387.999	4.75
388.36	4.77
388.721	4.71
389.082	4.65
389.443	4.61
389.804	4.58
390.165	4.58
390.526	4.58
390.887	4.51
391.248	4.52
391.609	4.53
391.969	4.5
392.33	4.52
392.691	4.52
393.051	4.52
393.412	4.49
393.772	4.47
394.133	4.47
394.493	4.47
394.854	4.47
395.214	4.46
395.574	4.48
395.935	4.42
396.295	4.4
396.655	4.35
397.015	4.33
397.376	4.3
397.736	4.19
398.096	4.18
398.456	4.15
398.816	4.1
399.176	4.04
399.535	3.94
399.895	3.88
400.255	3.88
400.615	3.83
400.975	3.8
401.334	3.76
401.694	3.73
402.054	3.69
402.413	3.7
402.773	3.61
403.132	3.56
403.492	3.56
403.851	3.54
404.211	3.54
404.57	3.49
404.929	3.51
405.288	3.51
405.648	3.47
406.007	3.46
406.366	3.46
406.725	3.49
407.084	3.51
407.443	3.51
407.802	3.47
408.161	3.44
408.52	3.44
408.879	3.44
409.238	3.42
409.596	3.46
409.955	3.42
410.314	3.49
410.673	3.49
411.031	3.5
411.39	3.48
411.748	3.44
412.107	3.46
412.465	3.42
412.824	3.44
413.182	3.41
413.54	3.42
413.899	3.44
414.257	3.43
414.615	3.41
414.974	3.39
415.332	3.38
415.69	3.38
416.048	3.38
416.406	3.39
416.764	3.35
417.122	3.33
417.48	3.31
417.838	3.3
418.195	3.28
418.553	3.27
418.911	3.26
419.269	3.27
419.626	3.27
419.984	3.28
420.342	3.27
420.699	3.25
421.057	3.23
421.414	3.2
421.772	3.17
422.129	3.17
422.486	3.15
422.844	3.15
423.201	3.15
423.558	3.12
423.915	3.11
424.273	3.12
424.63	3.1
424.987	3.1
425.344	3.08
425.701	3.08
426.058	3.06
426.415	3.06
426.772	3.06
427.128	3.04
427.485	3.02
427.842	3.01
428.199	3.02
428.555	3.01
428.912	3.03
429.269	3.05
429.625	3.02
429.982	3.02
430.338	3.01
430.695	3
431.051	3
431.407	2.98
431.764	2.99
432.12	3
432.476	2.98
432.832	2.97
433.189	2.97
433.545	2.97
433.901	2.97
434.257	2.96
434.613	2.95
434.969	2.94
435.325	2.94
435.681	2.95
436.036	2.94
436.392	2.95
436.748	2.94
437.104	2.93
437.459	2.92
437.815	2.92
438.171	2.91
438.526	2.91
438.882	2.91
439.237	2.92
439.593	2.92
439.948	2.94
440.304	2.96
440.659	2.96
441.014	2.97
441.369	2.95
441.725	2.94
442.08	2.93
442.435	2.92
442.79	2.91
443.145	2.9
443.5	2.89
443.855	2.89
444.21	2.89
444.565	2.9
444.92	2.9
445.275	2.91
445.629	2.9
445.984	2.91
446.339	2.9
446.693	2.88
447.048	2.87
447.403	2.86
447.757	2.84
448.112	2.82
448.466	2.8
448.82	2.8
449.175	2.8
449.529	2.8
449.883	2.81
450.238	2.79
450.592	2.8
450.946	2.8
451.3	2.76
451.654	2.75
452.008	2.74
452.362	2.73
452.716	2.72
453.07	2.74
453.424	2.72
453.778	2.71
454.132	2.71
454.486	2.71
454.839	2.72
455.193	2.7
455.547	2.7
455.9	2.7
456.254	2.72
456.607	2.74
456.961	2.75
457.314	2.74
457.668	2.76
458.021	2.75
458.375	2.76
458.728	2.77
459.081	2.76
459.434	2.77
459.787	2.78
460.141	2.79
460.494	2.79
460.847	2.8
461.2	2.81
461.553	2.81
461.906	2.82
462.259	2.81
462.611	2.85
462.964	2.86
463.317	2.86
463.67	2.85
464.022	2.84
464.375	2.81
464.728	2.83
465.08	2.83
465.433	2.84
465.785	2.85
466.138	2.85
466.49	2.88
466.843	2.87
467.195	2.86
467.547	2.84
467.899	2.87
468.252	2.85
468.604	2.86
468.956	2.86
469.308	2.85
469.66	2.86
470.012	2.84
470.364	2.83
470.716	2.85
471.068	2.85
471.42	2.86
471.772	2.89
472.123	2.91
472.475	2.91
472.827	2.92
473.178	2.93
473.53	2.93
473.882	2.93
474.233	2.94
474.585	2.95
474.936	2.96
475.288	2.96
475.639	2.99
475.99	2.99
476.342	2.99
476.693	2.99
477.044	2.99
477.395	2.99
477.746	3
478.097	2.99
478.448	3
478.8	3
479.15	2.99
479.501	2.98
479.852	2.98
480.203	2.99
480.554	2.98
480.905	2.99
481.255	2.99
481.606	3
481.957	2.99
482.307	2.98
482.658	2.98
483.009	2.97
483.359	2.97
483.709	2.98
484.06	2.98
484.41	2.98
484.761	2.98
485.111	2.98
485.461	2.99
485.811	2.98
486.162	2.98
486.512	2.98
486.862	2.98
487.212	2.97
487.562	2.97
487.912	2.97
488.262	2.96
488.612	2.96
488.961	2.95
489.311	2.96
489.661	2.97
490.011	2.97
490.36	2.97
490.71	2.97
491.06	2.96
491.409	2.96
491.759	2.95
492.108	2.96
492.458	2.95
492.807	2.94
493.157	2.94
493.506	2.95
493.855	2.95
494.204	2.96
494.554	2.97
494.903	2.97
495.252	2.98
495.601	3.01
495.95	3
496.299	3.01
496.648	3.01
496.997	2.99
497.346	3.01
497.695	3.02
498.043	3.03
498.392	3.06
498.741	3.07
499.09	3.09
499.438	3.1
499.787	3.12
500.135	3.16
500.484	3.17
500.832	3.17
501.181	3.21
501.529	3.2
501.878	3.24
502.226	3.26
502.574	3.27
502.923	3.27
503.271	3.31
503.619	3.34
503.967	3.38
504.315	3.4
504.663	3.41
505.011	3.44
505.359	3.45
505.707	3.49
506.055	3.53
506.403	3.57
506.751	3.61
507.098	3.65
507.446	3.71
507.794	3.75
508.141	3.79
508.489	3.83
508.837	3.89
509.184	3.91
509.531	3.97
509.879	4.04
510.226	4.1
510.574	4.14
510.921	4.18
511.268	4.23
511.616	4.32
511.963	4.39
512.31	4.45
512.657	4.54
513.004	4.62
513.351	4.69
513.698	4.79
514.045	4.9
514.392	4.98
514.739	5.05
515.086	5.17
515.432	5.27
515.779	5.37
516.126	5.49
516.473	5.6
516.819	5.7
517.166	5.82
517.512	5.91
517.859	6.01
518.205	6.13
518.552	6.24
518.898	6.33
519.245	6.44
519.591	6.55
519.937	6.67
520.283	6.79
520.629	6.92
520.976	7.04
521.322	7.18
521.668	7.34
522.014	7.52
522.36	7.69
522.706	7.87
523.052	8.08
523.398	8.29
523.743	8.52
524.089	8.75
524.435	8.94
524.781	9.14
525.126	9.34
525.472	9.51
525.817	9.67
526.163	9.82
526.509	9.98
526.854	10.12
527.199	10.24
527.545	10.37
527.89	10.52
528.235	10.66
528.581	10.8
528.926	10.94
529.271	11.07
529.616	11.21
529.961	11.34
530.306	11.49
530.651	11.66
530.996	11.8
531.341	11.97
531.686	12.14
532.031	12.31
532.376	12.48
532.721	12.66
533.065	12.85
533.41	13.06
533.755	13.28
534.099	13.48
534.444	13.7
534.788	13.89
535.133	14.07
535.477	14.29
535.822	14.51
536.166	14.72
536.51	14.95
536.855	15.2
537.199	15.49
537.543	15.74
537.887	15.94
538.231	16.2
538.576	16.45
538.92	16.71
539.264	16.95
539.608	17.23
539.951	17.47
540.295	17.68
540.639	17.87
540.983	18.04
541.327	18.23
541.671	18.43
542.014	18.62
542.358	18.81
542.701	19
543.045	19.19
543.389	19.39
543.732	19.6
544.075	19.82
544.419	20.01
544.762	20.23
545.105	20.45
545.449	20.69
545.792	20.94
546.135	21.18
546.478	21.44
546.821	21.66
547.165	21.93
547.508	22.2
547.851	22.5
548.194	22.8
548.536	23.12
548.879	23.42
549.222	23.73
549.565	24.05
549.908	24.37
550.25	24.67
550.593	25.01
550.936	25.31
551.278	25.59
551.621	25.87
551.963	26.19
552.306	26.51
552.648	26.81
552.991	27.12
553.333	27.43
553.675	27.73
554.017	28.01
554.36	28.27
554.702	28.57
555.044	28.85
555.386	29.11
555.728	29.41
556.07	29.72
556.412	30.02
556.754	30.3
557.096	30.63
557.438	30.94
557.78	31.21
558.121	31.52
558.463	31.83
558.805	32.11
559.147	32.43
559.488	32.74
559.83	33.04
560.171	33.34
560.513	33.65
560.854	33.96
561.196	34.26
561.537	34.54
561.878	34.82
562.22	35.07
562.561	35.32
562.902	35.57
563.243	35.81
563.584	35.99
563.925	36.27
564.266	36.48
564.607	36.68
564.948	37
565.289	37.29
565.63	37.5
565.971	37.75
566.312	37.95
566.653	38.18
566.993	38.49
567.334	38.68
567.675	38.85
568.015	39.05
568.356	39.24
568.696	39.5
569.037	39.72
569.377	40
569.718	40.27
570.058	40.52
570.398	40.73
570.739	41
571.079	41.22
571.419	41.41
571.759	41.63
572.099	41.77
572.439	41.87
572.779	42.05
573.119	42.27
573.459	42.45
573.799	42.65
574.139	42.76
574.479	42.97
574.819	43.2
575.158	43.37
575.498	43.56
575.838	43.72
576.177	43.92
576.517	44.08
576.856	44.29
577.196	44.48
577.535	44.63
577.875	44.87
578.214	45.05
578.553	45.21
578.893	45.39
579.232	45.62
579.571	45.84
579.91	46.08
580.25	46.22
580.589	46.46
580.928	46.66
581.267	46.84
581.606	47.01
581.945	47.15
582.283	47.31
582.622	47.51
582.961	47.71
583.3	47.89
583.639	48.08
583.977	48.2
584.316	48.28
584.654	48.44
584.993	48.51
585.332	48.66
585.67	48.92
586.008	49.08
586.347	49.23
586.685	49.34
587.024	49.43
587.362	49.57
587.7	49.69
588.038	49.79
588.376	49.85
588.715	49.99
589.053	50.1
589.391	50.28
589.729	50.46
590.067	50.6
590.404	50.67
590.742	50.74
591.08	50.84
591.418	50.99
591.756	51.14
592.093	51.27
592.431	51.3
592.769	51.39
593.106	51.54
593.444	51.54
593.781	51.62
594.119	51.68
594.456	51.79
594.793	51.84
595.131	51.94
595.468	52.07
595.805	52.13
596.143	52.21
596.48	52.28
596.817	52.32
597.154	52.36
597.491	52.5
597.828	52.65
598.165	52.7
598.502	52.83
598.839	52.89
599.176	52.92
599.512	53.09
599.849	53.17
600.186	53.26
600.523	53.42
600.859	53.59
601.196	53.76
601.532	53.87
601.869	53.95
602.205	54.04
602.542	54.07
602.878	54.13
603.215	54.22
603.551	54.27
603.887	54.26
604.223	54.33
604.56	54.47
604.896	54.51
605.232	54.63
605.568	54.69
605.904	54.78
606.24	54.86
606.576	54.89
606.912	55
607.248	55.05
607.583	55.1
607.919	55.16
608.255	55.22
608.591	55.32
608.926	55.42
609.262	55.51
609.597	55.54
609.933	55.69
610.268	55.74
610.604	55.84
610.939	55.94
611.275	56.03
611.61	55.95
611.945	56.02
612.281	56.06
612.616	56.01
612.951	56.11
613.286	56.19
613.621	56.24
613.956	56.22
614.291	56.2
614.626	56.35
614.961	56.39
615.296	56.41
615.631	56.41
615.966	56.41
616.3	56.42
616.635	56.56
616.97	56.55
617.304	56.62
617.639	56.65
617.973	56.77
618.308	56.8
618.642	57.02
618.977	57.05
619.311	57.1
619.646	57.22
619.98	57.23
620.314	57.4
620.648	57.42
620.983	57.44
621.317	57.51
621.651	57.52
621.985	57.54
622.319	57.61
622.653	57.67
622.987	57.72
623.321	57.82
623.655	57.91
623.988	57.93
624.322	57.93
624.656	57.94
624.99	57.89
625.323	57.93
625.657	57.81
625.99	57.81
626.324	57.85
626.657	57.89
626.991	57.91
627.324	57.82
627.658	57.92
627.991	57.98
628.324	58.06
628.657	58.07
628.991	58.09
629.324	58.11
629.657	58.08
629.99	58.11
630.323	58.13
630.656	58.26
630.989	58.34
631.322	58.35
631.655	58.31
631.987	58.49
632.32	58.59
632.653	58.66
632.986	58.73
633.318	58.67
633.651	58.71
633.984	58.75
634.316	58.82
634.649	58.77
634.981	58.73
635.313	58.77
635.646	58.81
635.978	58.8
636.31	58.84
636.643	59.05
636.975	59.18
637.307	59.22
637.639	59.03
637.971	59.04
638.303	59.18
638.635	59.31
638.967	59.26
639.299	59.37
639.631	59.39
639.963	59.4
640.295	59.45
640.626	59.55
640.958	59.66
641.29	59.67
641.621	59.72
641.953	59.82
642.285	59.88
642.616	59.83
642.948	59.94
643.279	59.92
643.61	59.83
643.942	59.68
644.273	59.72
644.604	59.76
644.936	59.78
645.267	59.73
645.598	59.8
645.929	59.86
646.26	59.72
646.591	59.66
646.922	59.7
647.253	59.7
647.584	59.58
647.915	59.51
648.245	59.53
648.576	59.59
648.907	59.69
649.238	59.65
649.568	59.73
649.899	59.74
650.229	59.76
650.56	59.8
650.89	59.96
651.221	59.88
651.551	59.85
651.882	59.86
652.212	59.91
652.542	59.9
652.872	59.91
653.203	59.88
653.533	59.94
653.863	59.85
654.193	59.99
654.523	60.05
654.853	60.14
655.183	60.16
655.513	60.25
655.843	60.23
656.172	60.31
656.502	60.41
656.832	60.3
657.162	60.36
657.491	60.3
657.821	60.23
658.15	60.29
658.48	60.36
658.809	60.39
659.139	60.33
659.468	60.22
659.798	60.21
660.127	60.21
660.456	60.22
660.785	60.33
661.115	60.3
661.444	60.3
661.773	60.41
662.102	60.43
662.431	60.34
662.76	60.3
663.089	60.28
663.418	60.15
663.747	60.27
664.076	60.4
664.404	60.44
664.733	60.45
665.062	60.5
665.39	60.53
665.719	60.57
666.048	60.68
666.376	60.78
666.705	60.66
667.033	60.69
667.362	60.79
667.69	60.79
668.018	60.76
668.347	60.79
668.675	60.62
669.003	60.64
669.331	60.65
669.659	60.6
669.987	60.56
670.315	60.61
670.643	60.62
670.971	60.55
671.299	60.61
671.627	60.78
671.955	60.74
672.283	60.69
672.61	60.69
672.938	60.57
673.266	60.62
673.593	60.85
673.921	60.93
674.249	61.04
674.576	61.06
674.904	61.13
675.231	61.05
675.558	61.11
675.886	61.07
676.213	61.07
676.54	61.14
676.867	61.13
677.195	61.13
677.522	61.14
677.849	61.23
678.176	61.21
678.503	61.14
678.83	61.25
679.157	61.42
679.484	61.31
679.81	61.41
680.137	61.37
680.464	61.32
680.791	61.32
681.117	61.14
681.444	61.3
681.771	61.25
682.097	61.32
682.424	61.32
682.75	61.4
683.077	61.45
683.403	61.36
683.729	61.43
684.056	61.56
684.382	61.57
684.708	61.53
685.034	61.47
685.36	61.42
685.686	61.24
686.012	61.03
686.339	61.22
686.664	61.26
686.99	61.35
687.316	61.23
687.642	61.13
687.968	61.26
688.294	60.98
688.619	60.94
688.945	61.13
689.271	61.19
689.596	61.1
689.922	61.27
690.247	61.36
690.573	61.31
690.898	61.21
691.224	61.14
691.549	60.86
691.874	61.07
692.2	61.11
692.525	61.05
692.85	61.14
693.175	61.09
693.5	61.05
693.825	60.98
694.15	61.21
694.475	61.34
694.8	61.29
695.125	61.36
695.45	61.46
695.775	61.11
696.099	61.15
696.424	61.08
696.749	60.89
697.073	60.95
697.398	60.96
697.723	60.96
698.047	60.92
698.372	60.88
698.696	60.74
699.02	60.74
699.345	60.81
699.669	60.91
699.993	60.83
700.318	60.81
700.642	60.77
700.966	60.51
701.29	60.5
701.614	60.43
701.938	60.5
702.262	60.52
702.586	60.71
702.91	60.57
703.234	60.65
703.557	60.72
703.881	60.84
704.205	60.86
704.529	60.92
704.852	61.14
705.176	61.38
705.499	61.49
705.823	61.6
706.146	61.6
706.47	61.5
706.793	61.59
707.117	61.63
707.44	61.61
707.763	61.88
708.086	61.82
708.409	61.88
708.733	61.79
709.056	61.78
709.379	61.8
709.702	61.97
710.025	62.13
710.348	62.16
710.671	62.08
710.993	62.05
711.316	62.02
711.639	61.88
711.962	61.88
712.284	62.07
712.607	62.07
712.93	62.17
713.252	62.16
713.575	62.1
713.897	62.12
714.22	62.25
714.542	62.32
714.864	62.46
715.187	62.51
715.509	62.51
715.831	62.46
716.153	62.43
716.475	62.45
716.798	62.59
717.12	62.54
717.442	62.35
717.764	62.53
718.085	62.56
718.407	62.58
718.729	62.76
719.051	62.65
719.373	62.58
719.695	62.68
720.016	62.61
720.338	62.7
720.659	62.63
720.981	62.56
721.302	62.52
721.624	62.47
721.945	62.63
722.267	62.71
722.588	62.72
722.909	62.62
723.231	62.45
723.552	62.43
723.873	62.61
724.194	62.96
724.515	62.92
724.836	63.03
725.157	63.07
725.478	62.95
725.799	62.75
726.12	62.68
726.441	62.69
726.762	62.91
727.083	63.04
727.403	63.23
727.724	63.27
728.045	63.22
728.365	63.11
728.686	63.01
729.006	63.05
729.327	63.17
729.647	63.34
729.967	63.32
730.288	63.27
730.608	63.1
730.928	62.94
731.249	63.04
731.569	62.98
731.889	63.07
732.209	63.06
732.529	63.03
732.849	63.06
733.169	62.99
733.489	62.9
733.809	62.76
734.129	62.58
734.448	62.58
734.768	62.55
735.088	62.74
735.408	62.67
735.727	62.51
736.047	62.53
736.366	62.33
736.686	62.38
737.005	62.36
737.325	62.34
737.644	62.25
737.963	62.3
738.283	62.15
738.602	62.12
738.921	62.28
739.24	62.34
739.56	62.43
739.879	62.52
740.198	62.36
740.517	62.54
740.836	62.56
741.155	62.51
741.473	62.62
741.792	62.64
742.111	62.52
742.43	62.68
742.748	62.48
743.067	62.47
743.386	62.25
743.704	62.37
744.023	62.6
744.341	62.47
744.66	62.35
744.978	62.34
745.297	62.14
745.615	61.88
745.933	62.24
746.252	62.39
746.57	62.28
746.888	62.41
747.206	62.35
747.524	62.58
747.842	62.83
748.16	62.92
748.478	62.86
748.796	62.97
749.114	62.84
749.432	62.87
749.749	63
750.067	63.38
750.385	63.03
750.703	63.06
751.02	63.42
751.338	63.49
751.655	63.85
751.973	64.15
752.29	64.22
752.608	63.57
752.925	63.39
753.242	63.59
753.56	63.3
753.877	63.11
754.194	62.89
754.511	62.56
754.828	62.29
755.145	62.17
755.462	61.82
755.779	61.96
756.096	61.91
756.413	61.74
756.73	61.52
757.047	61.54
757.364	61.9
757.68	61.78
757.997	61.82
758.314	61.8
758.63	61.86
758.947	61.73
759.264	62.03
759.58	61.93
759.896	61.93
760.213	62.34
760.529	62.65
760.846	62.84
761.162	63.06
761.478	63.4
761.794	63.49
762.11	63.8
762.426	63.98
762.743	63.95
763.059	64.08
763.375	64.25
763.69	64.38
764.006	63.82
764.322	63.92
764.638	63.63
764.954	63.69
765.27	63.56
765.585	63.61
765.901	63.55
766.216	63.66
766.532	63.66
766.848	63.47
767.163	63.5
767.478	63.34
767.794	63.22
768.109	62.91
768.424	63.33
768.74	63.12
769.055	62.76
769.37	63.12
769.685	63.24
770	63.28
770.315	63.19
770.63	63.7
770.945	63.64
771.26	63.75
771.575	63.43
771.89	63.71
772.205	64.17
772.52	64.31
772.834	64.25
773.149	64.05
773.464	64.4
773.778	64.25
774.093	64.55
774.407	64.38
774.722	64.59
775.036	63.97
775.351	64.26
775.665	64.54
775.979	64.62
776.293	64.47
776.608	64.16
776.922	64.47
777.236	64.09
777.55	63.96
777.864	64.2
778.178	64.95
778.492	64.77
778.806	64.52
779.12	64.71
779.434	64.49
779.747	64.55
780.061	64.01
780.375	64.51
780.689	64.61
781.002	64.82
781.316	64.88
781.629	64.77
781.943	64.65
782.256	64.28
782.57	63.68
782.883	63.77
783.196	64.21
783.51	63.59
783.823	63.69
784.136	63.88
784.449	63.93
784.762	63.13
785.075	63.54
785.388	63.34
785.701	63.05
786.014	63.19
786.327	62.73
786.64	63.15
786.953	62.53
787.266	61.96
787.578	61.48
787.891	61.23
788.204	61.6
788.516	61.86
788.829	62.29
789.141	62.79
789.454	62.69
789.766	62.14
790.079	62.34
790.391	62.45
790.703	62.38
791.016	62.07
791.328	62.21
791.64	61.5
791.952	61.81
792.264	61.76
792.576	62.38
792.888	62.97
793.2	63.04
793.512	63.12
793.824	63.12
794.136	64.06
794.448	64.39
794.76	63.6
795.071	63.73
795.383	63.94
795.695	63.89
796.006	64.33
796.318	65.25
796.629	65.73
796.941	65.26
797.252	65.92
797.564	66.01
797.875	65.85
798.186	65.63
798.497	65.81
798.809	66.18
799.12	66.11
799.431	65.68
799.742	65.67
800.053	65.7
800.364	66.38
800.675	65.91
800.986	66.07
801.297	66.52
801.608	66.38
801.918	65.65
802.229	65.75
802.54	65.91
802.851	65.1
803.161	65.23
803.472	65.12
803.782	64.62
804.093	64.58
804.403	64.63
804.714	65.1
805.024	64.69
805.334	65.12
805.645	64.75
805.955	64.94
806.265	65.02
806.575	65
806.885	64.21
807.195	64.38
807.505	63.67
807.815	63.51
808.125	63.23
808.435	63.52
808.745	63.72
809.055	63.45
809.365	63.8
809.674	63.12
809.984	63.9
810.294	63.21
810.603	63.88
810.913	64.19
811.222	64.5
811.532	65.32
811.841	64.76
812.151	64.94
812.46	65.39
812.769	65.14
813.079	65.09
813.388	65.23
813.697	65.58
814.006	66.56
814.315	66.53
814.624	66.51
814.933	66.5
815.242	65.25
815.551	65.45
815.86	65.27
816.169	65.48
816.478	64.6
816.786	65.21
817.095	65.09
817.404	65.33
817.712	64.87
818.021	64.64
818.33	64.61
818.638	64.22
818.947	64.02
819.255	64.23
819.563	64.16
819.872	63.94
820.18	63.71
820.488	63.54
820.796	63.66
821.105	63.58
821.413	63.95
821.721	64.3
822.029	64.03
822.337	64.22
822.645	64.2
822.953	64.18
823.26	64.19
823.568	63.9
823.876	63.46
824.184	63.51
824.491	63.19
824.799	63.2
825.107	63.23
825.414	63.39
825.722	63.36
826.029	63.36
826.337	63.5
826.644	63.44
826.951	63.37
827.259	63.38
827.566	63.49
827.873	63.25
828.18	63.2
828.488	63.47
828.795	63.06
829.102	63.06
829.409	63.35
829.716	63.17
830.023	63.71
830.329	64.31
830.636	64.3
830.943	64.9
831.25	64.81
831.557	65.12
831.863	64.66
832.17	64.59
832.476	64.72
832.783	65.26
833.089	65.1
833.396	65.07
833.702	65.06
834.009	64.78
834.315	64.74
834.621	64.43
834.928	64.35
835.234	64.5
835.54	64.13
835.846	63.5
836.152	63.83
836.458	64.45
836.764	64.09
837.07	64.25
837.376	63.69
837.682	63.28
837.988	62.92
838.293	63.27
838.599	63.12
838.905	62.74
839.211	61.45
839.516	62.48
839.822	63.23
840.127	63.1
840.433	63.12
840.738	64.16
841.044	63.94
841.349	63.07
841.654	62.72
841.959	63.26
842.265	64.6
842.57	65.35
842.875	63.53
843.18	64.56
843.485	63.84
843.79	64.59
844.095	66.13
844.4	66.99
844.705	66.82
845.01	67.74
845.315	67.07
845.619	67.89
845.924	65.75
846.229	64.07
846.533	64.44
846.838	65.87
847.142	62.81
847.447	63.42
847.751	63.91
848.056	65.5
848.36	66.55
848.664	67.93
848.969	66.95
849.273	67.37
849.577	65.25
849.881	66.05
850.185	66.49
850.489	66.71
850.794	65.86
851.097	64.22
851.401	64.41
851.705	64.11
852.009	64.42
852.313	67.33
852.617	67.57
852.92	66.35
853.224	66.29
853.528	67.47
853.831	67.13
854.135	69.71
854.438	67.37
854.742	66.15
855.045	62.52
855.349	61.5
855.652	61.42
855.955	62.74
856.259	63.99
856.562	64.21
856.865	62.82
857.168	62.65
857.471	64.69
857.774	64.2
858.077	66.56
858.38	64.47
858.683	62.34
858.986	63.3
859.289	64.6
859.592	64.01
859.894	63.96
860.197	64
860.5	60.63
860.802	60.15
861.105	60.55
861.407	61.14
861.71	61.73
862.012	60.45
862.315	60.68
862.617	58.17
862.919	58.76
863.222	59.06
863.524	58.4
863.826	57.8
864.128	59.53
864.43	60.65
864.732	62.84
865.034	65.25
865.336	63.81
865.638	62.99
865.94	62.65
866.242	62.61
866.544	63.53
866.846	65.77
867.147	68.09
867.449	66.95
867.751	67.44
868.052	66.09
868.354	65.53
868.655	66.57
868.957	67.2
869.258	65.17
869.56	65.9
869.861	65.6
870.162	63.6
870.463	62.77
870.765	61.37
871.066	58.05
871.367	57.05
871.668	58.89
871.969	58.82
872.27	58.21
872.571	58.04
872.872	58.74
873.173	55.96
873.473	58.78
873.774	59.84
874.075	60.21
874.376	61.71
874.676	63.88
874.977	63.48
875.277	64.5
875.578	66.23
875.878	66.05
876.179	67.18
876.479	69.68
876.78	68.3
877.08	69.09
877.38	74.28
877.68	73.62
877.981	72.92
878.281	74.6
878.581	76.13
