Data from BU58140_Reflection_00013.txt Node
Date: Tue Nov 19 10:53:47 EST 2019
User: vgr7
Spectrometer: USB2G7710
Scans to average: 3
Trigger mode: 4
Integration Time (sec): 2.000000E-2
Electric dark correction enabled: true
Boxcar width: 10
XAxis mode: Wavelengths
Number of Pixels in Spectrum: 2048
>>>>>Begin Spectral Data<<<<<
177.721	-80.18
178.105	74.36
178.488	32.06
178.871	276.19
179.254	44.44
179.636	18.44
180.019	-105.13
180.402	1300
180.785	33.33
181.168	-488.54
181.55	683.33
181.933	377.78
182.316	95.73
182.698	27.98
183.081	27.6
183.463	42.71
183.846	61.75
184.228	8.85
184.611	-194.87
184.993	156.67
185.376	37.75
185.758	0.27
186.14	-104.17
186.522	-22.07
186.904	-16.67
187.287	19.66
187.669	20.18
188.051	13.74
188.433	13.4
188.815	26.25
189.197	42.25
189.579	24.18
189.961	22.72
190.342	20.19
190.724	-3.3
191.106	-2.13
191.488	4.42
191.869	-7.34
192.251	-5.67
192.633	2.74
193.014	-1.23
193.396	0.44
193.777	7.67
194.159	18.87
194.54	26.25
194.922	19.02
195.303	13.13
195.684	4.83
196.065	10.42
196.447	9.24
196.828	6.77
197.209	11.79
197.59	19.14
197.971	18.05
198.352	7.15
198.733	8.63
199.114	10.78
199.495	19.54
199.876	32.59
200.257	25.38
200.638	10.49
201.018	3.54
201.399	-1.79
201.78	6.35
202.16	13.19
202.541	4.81
202.922	6.75
203.302	0.07
203.683	-1.36
204.063	-1.53
204.444	1.94
204.824	1.74
205.204	1.12
205.585	2.19
205.965	-1.54
206.345	-3.21
206.725	0.91
207.106	6.17
207.486	-8.25
207.866	-7.33
208.246	4
208.626	2.85
209.006	3.51
209.386	2.4
209.766	1.44
210.145	-11.01
210.525	-7.65
210.905	-4.6
211.285	9.69
211.664	21.96
212.044	15.9
212.424	15.6
212.803	11.63
213.183	11.99
213.562	18.21
213.942	15.05
214.321	25.11
214.701	30.25
215.08	23.28
215.459	38.79
215.838	31.27
216.218	14.97
216.597	26.08
216.976	19.38
217.355	27.55
217.734	14.83
218.113	21.94
218.492	16.5
218.871	14.54
219.25	-1.01
219.629	-10.06
220.008	-8.55
220.387	-17.75
220.766	-17.63
221.144	-15.41
221.523	-17.18
221.902	-2.29
222.28	-3.83
222.659	-7.24
223.037	-1.3
223.416	-0.26
223.794	4.36
224.173	2.1
224.551	-1.07
224.929	0.71
225.308	-0.32
225.686	1.7
226.064	-0.18
226.442	0.85
226.821	0.76
227.199	5.02
227.577	6.11
227.955	7.77
228.333	7.11
228.711	7.75
229.089	7.82
229.467	4.66
229.845	3.96
230.222	3.92
230.6	-0.4
230.978	-1.42
231.356	-2.64
231.733	-1.49
232.111	0.37
232.488	0.44
232.866	0.62
233.243	2.82
233.621	6.21
233.998	5.22
234.376	6.35
234.753	5.41
235.13	4.66
235.508	3.66
235.885	3.97
236.262	5.86
236.639	5.58
237.016	5.39
237.393	6.12
237.77	5.62
238.147	5.53
238.524	7.01
238.901	6.76
239.278	5.66
239.655	5.03
240.032	4.94
240.409	4.99
240.785	4.86
241.162	4.85
241.539	3.93
241.915	3.92
242.292	3.44
242.668	3.75
243.045	3.42
243.421	3.97
243.798	4.14
244.174	4.12
244.551	4.31
244.927	4.12
245.303	3.98
245.679	3.84
246.056	3.9
246.432	3.8
246.808	3.93
247.184	4.19
247.56	4.01
247.936	3.89
248.312	3.91
248.688	3.99
249.064	3.87
249.44	3.59
249.815	3.54
250.191	3.72
250.567	3.78
250.943	3.98
251.318	3.63
251.694	3.4
252.069	3.28
252.445	3.28
252.82	3.49
253.196	3.69
253.571	3.97
253.947	3.86
254.322	3.79
254.697	3.52
255.073	3.25
255.448	3.54
255.823	3.77
256.198	3.83
256.573	3.77
256.948	3.83
257.323	4.37
257.698	4.48
258.073	4.28
258.448	4.32
258.823	4.19
259.198	4.28
259.573	4.23
259.948	4.09
260.322	3.78
260.697	3.83
261.072	3.71
261.446	3.68
261.821	3.6
262.195	3.68
262.57	3.79
262.944	4
263.319	3.93
263.693	3.94
264.067	3.96
264.442	4.01
264.816	4.12
265.19	3.85
265.564	3.83
265.938	3.82
266.313	3.59
266.687	3.67
267.061	3.42
267.435	3.43
267.809	3.4
268.183	3.63
268.556	3.41
268.93	3.68
269.304	3.55
269.678	3.69
270.051	3.69
270.425	3.62
270.799	3.42
271.172	3.52
271.546	3.62
271.919	3.57
272.293	3.49
272.666	3.38
273.04	3.35
273.413	3.43
273.787	3.38
274.16	3.48
274.533	3.52
274.906	3.62
275.279	3.75
275.653	3.91
276.026	3.9
276.399	3.95
276.772	3.93
277.145	4.09
277.518	4.05
277.891	4.01
278.263	4.01
278.636	4.03
279.009	3.97
279.382	3.71
279.755	3.75
280.127	3.78
280.5	3.53
280.872	3.62
281.245	3.62
281.617	3.7
281.99	3.67
282.362	3.61
282.735	3.57
283.107	3.51
283.479	3.43
283.852	3.41
284.224	3.39
284.596	3.17
284.968	3.09
285.34	2.99
285.713	3.14
286.085	3.13
286.457	3.2
286.829	3.24
287.201	3.26
287.572	3.24
287.944	3.35
288.316	3.49
288.688	3.61
289.06	3.63
289.431	3.73
289.803	3.86
290.175	3.89
290.546	4.11
290.918	4.16
291.289	4.15
291.661	4.28
292.032	4.25
292.403	4.46
292.775	4.51
293.146	4.66
293.517	4.5
293.889	4.5
294.26	4.56
294.631	4.54
295.002	4.64
295.373	4.63
295.744	4.6
296.115	4.64
296.486	4.4
296.857	4.32
297.228	4.29
297.599	4.22
297.97	4.28
298.34	4.25
298.711	4.33
299.082	4.56
299.452	4.63
299.823	4.68
300.194	4.68
300.564	4.66
300.935	4.71
301.305	4.85
301.676	4.91
302.046	4.9
302.416	4.75
302.787	4.84
303.157	4.96
303.527	5.09
303.897	5.06
304.267	5.19
304.637	5.36
305.008	5.52
305.378	5.62
305.748	5.57
306.117	5.62
306.487	5.59
306.857	5.51
307.227	5.48
307.597	5.54
307.967	5.53
308.336	5.68
308.706	5.82
309.076	5.99
309.445	6.13
309.815	6.15
310.184	6.28
310.554	6.23
310.923	6.21
311.293	6.21
311.662	6.4
312.031	6.62
312.401	6.6
312.77	6.66
313.139	6.67
313.508	6.75
313.877	6.76
314.246	6.89
314.616	7.04
314.985	7
315.353	7.23
315.722	7.49
316.091	7.5
316.46	7.48
316.829	7.54
317.198	7.52
317.567	7.72
317.935	7.89
318.304	8.13
318.672	8.27
319.041	8.38
319.41	8.46
319.778	8.51
320.147	8.69
320.515	8.6
320.883	8.73
321.252	8.76
321.62	8.99
321.988	9.02
322.357	9.02
322.725	9.11
323.093	9.06
323.461	8.96
323.829	8.9
324.197	8.89
324.565	8.86
324.933	8.93
325.301	8.9
325.669	8.88
326.037	8.86
326.405	9.03
326.772	8.96
327.14	8.91
327.508	8.88
327.875	8.89
328.243	8.86
328.61	8.85
328.978	8.97
329.346	8.95
329.713	9.01
330.08	9.24
330.448	9.24
330.815	9.26
331.182	9.3
331.55	9.49
331.917	9.4
332.284	9.43
332.651	9.41
333.018	9.43
333.385	9.49
333.752	9.65
334.119	9.51
334.486	9.57
334.853	9.62
335.22	9.65
335.587	9.71
335.954	9.83
336.32	9.88
336.687	9.89
337.054	9.77
337.42	9.71
337.787	9.56
338.153	9.59
338.52	9.59
338.886	9.55
339.253	9.54
339.619	9.73
339.986	9.65
340.352	9.73
340.718	9.7
341.084	9.82
341.451	9.71
341.817	9.75
342.183	9.68
342.549	9.69
342.915	9.66
343.281	9.7
343.647	9.72
344.013	9.8
344.379	9.85
344.745	9.88
345.11	9.92
345.476	9.93
345.842	10
346.208	9.94
346.573	10.06
346.939	10.07
347.304	10.04
347.67	10.09
348.035	10.05
348.401	10.1
348.766	10.01
349.132	10.03
349.497	10
349.862	10.01
350.228	10.03
350.593	10.06
350.958	9.95
351.323	9.88
351.688	9.74
352.053	9.65
352.418	9.71
352.783	9.67
353.148	9.64
353.513	9.57
353.878	9.62
354.243	9.53
354.608	9.52
354.972	9.47
355.337	9.43
355.702	9.43
356.066	9.38
356.431	9.34
356.795	9.23
357.16	9.2
357.524	9.2
357.889	9.11
358.253	9.12
358.618	9.13
358.982	9.1
359.346	9.09
359.71	9.06
360.075	9.07
360.439	9.02
360.803	9.09
361.167	9.01
361.531	8.97
361.895	8.89
362.259	8.78
362.623	8.78
362.987	8.71
363.351	8.63
363.714	8.63
364.078	8.67
364.442	8.65
364.806	8.64
365.169	8.62
365.533	8.55
365.896	8.47
366.26	8.37
366.623	8.31
366.987	8.23
367.35	8.13
367.714	7.96
368.077	7.93
368.44	7.76
368.803	7.75
369.167	7.71
369.53	7.74
369.893	7.77
370.256	7.66
370.619	7.67
370.982	7.63
371.345	7.59
371.708	7.47
372.071	7.37
372.434	7.3
372.797	7.21
373.159	7.14
373.522	7.09
373.885	7.08
374.247	7.06
374.61	7
374.973	6.93
375.335	6.94
375.698	6.81
376.06	6.73
376.423	6.67
376.785	6.66
377.147	6.58
377.51	6.5
377.872	6.5
378.234	6.46
378.596	6.51
378.958	6.41
379.321	6.4
379.683	6.39
380.045	6.31
380.407	6.29
380.769	6.31
381.13	6.21
381.492	6.18
381.854	6.12
382.216	6.11
382.578	6.06
382.939	5.95
383.301	5.91
383.663	5.84
384.024	5.81
384.386	5.72
384.747	5.62
385.109	5.62
385.47	5.62
385.832	5.56
386.193	5.45
386.554	5.39
386.916	5.35
387.277	5.31
387.638	5.24
387.999	5.2
388.36	5.17
388.721	5.2
389.082	5.16
389.443	5.12
389.804	5.11
390.165	5.11
390.526	5.07
390.887	5.04
391.248	5.07
391.609	5.03
391.969	5.01
392.33	5.04
392.691	4.99
393.051	4.93
393.412	4.89
393.772	4.88
394.133	4.84
394.493	4.77
394.854	4.74
395.214	4.74
395.574	4.73
395.935	4.68
396.295	4.61
396.655	4.58
397.015	4.54
397.376	4.47
397.736	4.43
398.096	4.42
398.456	4.39
398.816	4.32
399.176	4.23
399.535	4.18
399.895	4.15
400.255	4.13
400.615	4.08
400.975	4.07
401.334	4.04
401.694	4.06
402.054	4.06
402.413	4.02
402.773	4.03
403.132	3.96
403.492	3.92
403.851	3.89
404.211	3.84
404.57	3.84
404.929	3.82
405.288	3.79
405.648	3.77
406.007	3.79
406.366	3.8
406.725	3.82
407.084	3.82
407.443	3.76
407.802	3.74
408.161	3.74
408.52	3.72
408.879	3.69
409.238	3.66
409.596	3.62
409.955	3.63
410.314	3.59
410.673	3.62
411.031	3.63
411.39	3.65
411.748	3.66
412.107	3.64
412.465	3.63
412.824	3.64
413.182	3.6
413.54	3.59
413.899	3.56
414.257	3.53
414.615	3.51
414.974	3.53
415.332	3.51
415.69	3.48
416.048	3.47
416.406	3.44
416.764	3.43
417.122	3.41
417.48	3.39
417.838	3.38
418.195	3.34
418.553	3.29
418.911	3.26
419.269	3.23
419.626	3.22
419.984	3.21
420.342	3.2
420.699	3.22
421.057	3.2
421.414	3.2
421.772	3.2
422.129	3.18
422.486	3.16
422.844	3.14
423.201	3.13
423.558	3.11
423.915	3.12
424.273	3.1
424.63	3.09
424.987	3.09
425.344	3.09
425.701	3.09
426.058	3.1
426.415	3.09
426.772	3.1
427.128	3.09
427.485	3.09
427.842	3.08
428.199	3.07
428.555	3.06
428.912	3.03
429.269	3.03
429.625	3.04
429.982	3.04
430.338	3.03
430.695	3.01
431.051	3.03
431.407	3.04
431.764	3.02
432.12	3.02
432.476	3
432.832	3.01
433.189	3
433.545	3
433.901	3
434.257	3.02
434.613	3.01
434.969	3
435.325	3.02
435.681	2.99
436.036	2.98
436.392	3
436.748	2.99
437.104	2.99
437.459	2.98
437.815	2.99
438.171	3
438.526	2.99
438.882	2.99
439.237	2.99
439.593	3.01
439.948	3.02
440.304	3
440.659	3.01
441.014	3.01
441.369	3.01
441.725	3.01
442.08	3
442.435	3
442.79	2.99
443.145	3
443.5	3.01
443.855	2.98
444.21	2.99
444.565	2.98
444.92	2.99
445.275	2.98
445.629	2.96
445.984	2.96
446.339	2.95
446.693	2.95
447.048	2.94
447.403	2.92
447.757	2.93
448.112	2.92
448.466	2.92
448.82	2.91
449.175	2.9
449.529	2.89
449.883	2.88
450.238	2.87
450.592	2.86
450.946	2.86
451.3	2.88
451.654	2.85
452.008	2.85
452.362	2.85
452.716	2.87
453.07	2.87
453.424	2.87
453.778	2.84
454.132	2.81
454.486	2.82
454.839	2.82
455.193	2.8
455.547	2.8
455.9	2.78
456.254	2.79
456.607	2.8
456.961	2.81
457.314	2.83
457.668	2.83
458.021	2.81
458.375	2.79
458.728	2.78
459.081	2.8
459.434	2.78
459.787	2.77
460.141	2.77
460.494	2.77
460.847	2.76
461.2	2.77
461.553	2.79
461.906	2.8
462.259	2.81
462.611	2.83
462.964	2.85
463.317	2.86
463.67	2.87
464.022	2.87
464.375	2.86
464.728	2.85
465.08	2.86
465.433	2.9
465.785	2.92
466.138	2.94
466.49	2.92
466.843	2.95
467.195	2.96
467.547	2.94
467.899	2.95
468.252	2.96
468.604	2.98
468.956	3.01
469.308	2.98
469.66	2.98
470.012	2.98
470.364	2.98
470.716	2.99
471.068	2.99
471.42	3
471.772	3.02
472.123	3.05
472.475	3.06
472.827	3.05
473.178	3.04
473.53	3.05
473.882	3.07
474.233	3.06
474.585	3.08
474.936	3.1
475.288	3.09
475.639	3.1
475.99	3.09
476.342	3.09
476.693	3.11
477.044	3.11
477.395	3.11
477.746	3.09
478.097	3.09
478.448	3.07
478.8	3.05
479.15	3.02
479.501	3
479.852	3
480.203	3.01
480.554	3.02
480.905	3.02
481.255	3.02
481.606	3.02
481.957	3.02
482.307	3.01
482.658	3.01
483.009	3.01
483.359	3
483.709	3
484.06	3
484.41	3
484.761	3.01
485.111	3
485.461	3.01
485.811	3.01
486.162	3.02
486.512	3.03
486.862	3.03
487.212	3.02
487.562	3.01
487.912	3
488.262	3
488.612	3
488.961	3
489.311	2.99
489.661	3
490.011	3
490.36	3
490.71	3.01
491.06	3.02
491.409	3.02
491.759	3.03
492.108	3.02
492.458	3.02
492.807	3.03
493.157	3.03
493.506	3.03
493.855	3.03
494.204	3.04
494.554	3.05
494.903	3.07
495.252	3.09
495.601	3.1
495.95	3.13
496.299	3.14
496.648	3.18
496.997	3.19
497.346	3.21
497.695	3.22
498.043	3.24
498.392	3.26
498.741	3.29
499.09	3.32
499.438	3.37
499.787	3.42
500.135	3.45
500.484	3.48
500.832	3.52
501.181	3.57
501.529	3.65
501.878	3.68
502.226	3.72
502.574	3.77
502.923	3.82
503.271	3.85
503.619	3.92
503.967	3.93
504.315	3.98
504.663	4.04
505.011	4.11
505.359	4.15
505.707	4.21
506.055	4.28
506.403	4.35
506.751	4.4
507.098	4.47
507.446	4.54
507.794	4.63
508.141	4.69
508.489	4.74
508.837	4.78
509.184	4.89
509.531	4.96
509.879	5.02
510.226	5.1
510.574	5.19
510.921	5.28
511.268	5.4
511.616	5.5
511.963	5.59
512.31	5.68
512.657	5.8
513.004	5.9
513.351	6
513.698	6.12
514.045	6.25
514.392	6.38
514.739	6.51
515.086	6.63
515.432	6.79
515.779	6.92
516.126	7.1
516.473	7.21
516.819	7.36
517.166	7.51
517.512	7.65
517.859	7.79
518.205	7.89
518.552	8
518.898	8.12
519.245	8.25
519.591	8.38
519.937	8.53
520.283	8.68
520.629	8.79
520.976	8.94
521.322	9.1
521.668	9.29
522.014	9.45
522.36	9.65
522.706	9.83
523.052	10.06
523.398	10.27
523.743	10.5
524.089	10.73
524.435	10.95
524.781	11.18
525.126	11.34
525.472	11.55
525.817	11.72
526.163	11.88
526.509	12.01
526.854	12.18
527.199	12.3
527.545	12.45
527.89	12.6
528.235	12.75
528.581	12.89
528.926	13.02
529.271	13.17
529.616	13.31
529.961	13.46
530.306	13.59
530.651	13.74
530.996	13.91
531.341	14.08
531.686	14.26
532.031	14.44
532.376	14.64
532.721	14.82
533.065	15.03
533.41	15.25
533.755	15.48
534.099	15.69
534.444	15.92
534.788	16.13
535.133	16.35
535.477	16.56
535.822	16.81
536.166	17.06
536.51	17.33
536.855	17.6
537.199	17.86
537.543	18.18
537.887	18.47
538.231	18.74
538.576	19.01
538.92	19.32
539.264	19.58
539.608	19.85
539.951	20.11
540.295	20.34
540.639	20.57
540.983	20.8
541.327	21.05
541.671	21.27
542.014	21.51
542.358	21.73
542.701	21.97
543.045	22.19
543.389	22.41
543.732	22.61
544.075	22.86
544.419	23.1
544.762	23.34
545.105	23.6
545.449	23.9
545.792	24.2
546.135	24.44
546.478	24.72
546.821	25.04
547.165	25.37
547.508	25.7
547.851	26.03
548.194	26.33
548.536	26.6
548.879	26.93
549.222	27.23
549.565	27.55
549.908	27.83
550.25	28.15
550.593	28.48
550.936	28.85
551.278	29.14
551.621	29.45
551.963	29.75
552.306	30.06
552.648	30.35
552.991	30.65
553.333	30.96
553.675	31.29
554.017	31.55
554.36	31.74
554.702	31.99
555.044	32.3
555.386	32.63
555.728	32.93
556.07	33.21
556.412	33.51
556.754	33.74
557.096	34.06
557.438	34.37
557.78	34.6
558.121	34.91
558.463	35.17
558.805	35.5
559.147	35.81
559.488	36.05
559.83	36.31
560.171	36.58
560.513	36.87
560.854	37.08
561.196	37.41
561.537	37.71
561.878	38.03
562.22	38.24
562.561	38.4
562.902	38.6
563.243	38.87
563.584	39.06
563.925	39.32
564.266	39.51
564.607	39.69
564.948	39.97
565.289	40.11
565.63	40.3
565.971	40.47
566.312	40.64
566.653	40.85
566.993	41.02
567.334	41.18
567.675	41.36
568.015	41.54
568.356	41.7
568.696	41.92
569.037	42.05
569.377	42.22
569.718	42.47
570.058	42.69
570.398	42.85
570.739	43.03
571.079	43.21
571.419	43.38
571.759	43.57
572.099	43.71
572.439	43.91
572.779	44.09
573.119	44.24
573.459	44.39
573.799	44.51
574.139	44.64
574.479	44.82
574.819	44.99
575.158	45.18
575.498	45.3
575.838	45.44
576.177	45.58
576.517	45.75
576.856	45.9
577.196	46.04
577.535	46.14
577.875	46.34
578.214	46.56
578.553	46.78
578.893	46.94
579.232	47.07
579.571	47.22
579.91	47.39
580.25	47.61
580.589	47.73
580.928	47.96
581.267	48.16
581.606	48.22
581.945	48.34
582.283	48.49
582.622	48.63
582.961	48.76
583.3	48.94
583.639	49.07
583.977	49.16
584.316	49.26
584.654	49.37
584.993	49.49
585.332	49.57
585.67	49.63
586.008	49.76
586.347	49.87
586.685	49.96
587.024	50.09
587.362	50.17
587.7	50.3
588.038	50.47
588.376	50.59
588.715	50.78
589.053	50.91
589.391	50.98
589.729	51.09
590.067	51.26
590.404	51.34
590.742	51.47
591.08	51.59
591.418	51.61
591.756	51.72
592.093	51.76
592.431	51.86
592.769	51.94
593.106	51.98
593.444	52.17
593.781	52.27
594.119	52.34
594.456	52.37
594.793	52.42
595.131	52.41
595.468	52.49
595.805	52.62
596.143	52.6
596.48	52.67
596.817	52.77
597.154	52.76
597.491	52.83
597.828	52.84
598.165	52.9
598.502	53.04
598.839	53.06
599.176	53.2
599.512	53.25
599.849	53.28
600.186	53.45
600.523	53.45
600.859	53.55
601.196	53.58
601.532	53.69
601.869	53.82
602.205	53.92
602.542	54
602.878	53.98
603.215	54.11
603.551	54.14
603.887	54.22
604.223	54.28
604.56	54.33
604.896	54.41
605.232	54.42
605.568	54.48
605.904	54.58
606.24	54.65
606.576	54.71
606.912	54.86
607.248	54.88
607.583	54.96
607.919	55.02
608.255	55.11
608.591	55.17
608.926	55.18
609.262	55.22
609.597	55.23
609.933	55.27
610.268	55.33
610.604	55.36
610.939	55.39
611.275	55.4
611.61	55.47
611.945	55.52
612.281	55.63
612.616	55.67
612.951	55.82
613.286	55.8
613.621	55.81
613.956	55.82
614.291	55.8
614.626	55.83
614.961	55.86
615.296	55.93
615.631	55.91
615.966	56.04
616.3	56.09
616.635	56.19
616.97	56.21
617.304	56.24
617.639	56.34
617.973	56.34
618.308	56.42
618.642	56.43
618.977	56.46
619.311	56.49
619.646	56.6
619.98	56.6
620.314	56.67
620.648	56.74
620.983	56.72
621.317	56.82
621.651	56.86
621.985	56.91
622.319	56.97
622.653	57.04
622.987	57.06
623.321	57.1
623.655	57.16
623.988	57.3
624.322	57.28
624.656	57.36
624.99	57.48
625.323	57.48
625.657	57.51
625.99	57.54
626.324	57.56
626.657	57.49
626.991	57.46
627.324	57.46
627.658	57.47
627.991	57.5
628.324	57.46
628.657	57.52
628.991	57.51
629.324	57.49
629.657	57.44
629.99	57.42
630.323	57.42
630.656	57.44
630.989	57.45
631.322	57.54
631.655	57.51
631.987	57.4
632.32	57.52
632.653	57.56
632.986	57.72
633.318	57.82
633.651	57.92
633.984	57.94
634.316	57.94
634.649	58.03
634.981	58.05
635.313	58.07
635.646	58.02
635.978	58.12
636.31	58.11
636.643	58.3
636.975	58.36
637.307	58.4
637.639	58.36
637.971	58.33
638.303	58.24
638.635	58.12
638.967	58.19
639.299	58.11
639.631	58.09
639.963	58.01
640.295	57.89
640.626	57.91
640.958	57.96
641.29	58
641.621	57.97
641.953	58.09
642.285	58.21
642.616	58.28
642.948	58.16
643.279	58.22
643.61	58.13
643.942	58.1
644.273	58.1
644.604	58.13
644.936	58.23
645.267	58.31
645.598	58.47
645.929	58.43
646.26	58.55
646.591	58.6
646.922	58.56
647.253	58.59
647.584	58.69
647.915	58.71
648.245	58.81
648.576	58.87
648.907	58.78
649.238	58.77
649.568	58.76
649.899	58.77
650.229	58.77
650.56	58.8
650.89	58.83
651.221	58.87
651.551	58.86
651.882	58.75
652.212	58.71
652.542	58.79
652.872	58.81
653.203	58.75
653.533	58.8
653.863	58.81
654.193	58.87
654.523	58.79
654.853	58.8
655.183	58.7
655.513	58.7
655.843	58.73
656.172	58.81
656.502	58.82
656.832	58.86
657.162	58.91
657.491	58.89
657.821	58.9
658.15	58.95
658.48	58.98
658.809	58.97
659.139	59.03
659.468	58.89
659.798	58.94
660.127	58.94
660.456	58.94
660.785	58.98
661.115	58.99
661.444	58.95
661.773	58.97
662.102	58.98
662.431	59.02
662.76	59.09
663.089	59.07
663.418	59.12
663.747	59.15
664.076	59.17
664.404	59.21
664.733	59.25
665.062	59.36
665.39	59.41
665.719	59.48
666.048	59.51
666.376	59.62
666.705	59.72
667.033	59.68
667.362	59.66
667.69	59.55
668.018	59.56
668.347	59.58
668.675	59.53
669.003	59.59
669.331	59.48
669.659	59.34
669.987	59.3
670.315	59.29
670.643	59.24
670.971	59.2
671.299	59.21
671.627	59.14
671.955	58.89
672.283	58.86
672.61	58.98
672.938	58.93
673.266	58.83
673.593	58.75
673.921	58.91
674.249	58.93
674.576	59.04
674.904	58.9
675.231	58.91
675.558	58.93
675.886	58.89
676.213	58.91
676.54	58.94
676.867	58.97
677.195	59.02
677.522	59.09
677.849	59.19
678.176	59.3
678.503	59.43
678.83	59.5
679.157	59.54
679.484	59.6
679.81	59.61
680.137	59.73
680.464	59.77
680.791	59.8
681.117	59.75
681.444	59.75
681.771	59.86
682.097	59.89
682.424	59.88
682.75	59.97
683.077	59.97
683.403	59.91
683.729	59.88
684.056	59.8
684.382	59.83
684.708	59.87
685.034	59.77
685.36	59.61
685.686	59.64
686.012	59.54
686.339	59.43
686.664	59.42
686.99	59.33
687.316	59.35
687.642	59.35
687.968	59.34
688.294	59.33
688.619	59.44
688.945	59.31
689.271	59.43
689.596	59.38
689.922	59.34
690.247	59.63
690.573	59.71
690.898	59.74
691.224	59.81
691.549	59.81
691.874	59.77
692.2	59.77
692.525	59.83
692.85	59.83
693.175	59.61
693.5	59.66
693.825	59.77
694.15	59.79
694.475	59.78
694.8	59.79
695.125	59.68
695.45	59.5
695.775	59.73
696.099	59.72
696.424	59.77
696.749	59.96
697.073	59.85
697.398	59.76
697.723	59.75
698.047	59.66
698.372	59.61
698.696	59.7
699.02	59.83
699.345	59.76
699.669	59.85
699.993	59.96
700.318	60
700.642	59.95
700.966	59.86
701.29	59.9
701.614	59.85
701.938	59.98
702.262	59.93
702.586	59.92
702.91	59.87
703.234	59.81
703.557	59.7
703.881	59.88
704.205	60.01
704.529	59.98
704.852	60.1
705.176	60.13
705.499	60.06
705.823	60.05
706.146	60.24
706.47	60.1
706.793	60.3
707.117	60.29
707.44	60.46
707.763	60.45
708.086	60.29
708.409	60.39
708.733	60.37
709.056	60.55
709.379	60.58
709.702	60.48
710.025	60.5
710.348	60.72
710.671	60.5
710.993	60.48
711.316	60.41
711.639	60.39
711.962	60.43
712.284	60.38
712.607	60.34
712.93	60.17
713.252	60.27
713.575	59.97
713.897	59.97
714.22	59.93
714.542	60.02
714.864	60.1
715.187	60.2
715.509	60.19
715.831	60.11
716.153	59.99
716.475	60.02
716.798	60.02
717.12	59.78
717.442	59.87
717.764	59.74
718.085	59.73
718.407	59.54
718.729	59.58
719.051	59.71
719.373	59.69
719.695	59.79
720.016	59.77
720.338	60.04
720.659	59.91
720.981	59.76
721.302	59.72
721.624	59.71
721.945	59.74
722.267	59.91
722.588	59.96
722.909	59.95
723.231	59.92
723.552	59.93
723.873	59.75
724.194	59.86
724.515	59.77
724.836	59.86
725.157	60.07
725.478	59.87
725.799	59.82
726.12	59.78
726.441	59.81
726.762	59.81
727.083	59.83
727.403	59.97
727.724	59.94
728.045	59.79
728.365	59.79
728.686	59.91
729.006	59.76
729.327	59.77
729.647	59.82
729.967	59.93
730.288	59.88
730.608	59.95
730.928	59.75
731.249	59.84
731.569	59.86
731.889	59.9
732.209	60.03
732.529	60.19
732.849	60.23
733.169	60.1
733.489	60.14
733.809	59.74
734.129	59.77
734.448	59.83
734.768	59.98
735.088	59.9
735.408	59.86
735.727	59.98
736.047	60.01
736.366	59.78
736.686	59.7
737.005	59.75
737.325	59.88
737.644	60.03
737.963	60.19
738.283	60.42
738.602	60.36
738.921	60.45
739.24	60.21
739.56	60.2
739.879	60.14
740.198	60.05
740.517	60.4
740.836	60.35
741.155	60.24
741.473	60.25
741.792	60.37
742.111	60.21
742.43	60.09
742.748	60.19
743.067	60.36
743.386	60.54
743.704	60.55
744.023	60.63
744.341	60.34
744.66	60.19
744.978	59.89
745.297	59.98
745.615	59.82
745.933	59.72
746.252	59.74
746.57	59.68
746.888	59.95
747.206	59.89
747.524	59.62
747.842	59.75
748.16	59.84
748.478	59.65
748.796	59.48
749.114	59.36
749.432	59.13
749.749	58.98
750.067	59.03
750.385	59.08
750.703	59.27
751.02	59.34
751.338	59.38
751.655	59.73
751.973	59.53
752.29	59.43
752.608	59.69
752.925	59.52
753.242	59.78
753.56	59.67
753.877	59.81
754.194	60.01
754.511	60.05
754.828	60.14
755.145	60.17
755.462	60.37
755.779	60.4
756.096	60.53
756.413	60.55
756.73	60.29
757.047	60.34
757.364	60.18
757.68	60.49
757.997	60.35
758.314	60.4
758.63	60.57
758.947	60.67
759.264	60.82
759.58	61.31
759.896	61.51
760.213	61.5
760.529	61.32
760.846	61.4
761.162	61.55
761.478	61.23
761.794	61.09
762.11	61.21
762.426	61.11
762.743	60.91
763.059	61.1
763.375	61.39
763.69	61.21
764.006	61.13
764.322	61.03
764.638	61.11
764.954	61.11
765.27	61.24
765.585	61.44
765.901	61.14
766.216	61.01
766.532	60.77
766.848	60.56
767.163	60.62
767.478	60.6
767.794	60.21
768.109	60.3
768.424	60.35
768.74	60.2
769.055	60.57
769.37	60.53
769.685	60.89
770	60.61
770.315	60.78
770.63	61.03
770.945	61.1
771.26	60.94
771.575	60.58
771.89	60.29
772.205	60.11
772.52	60.54
772.834	60.55
773.149	60.79
773.464	60.63
773.778	60.29
774.093	60.05
774.407	60.51
774.722	60.36
775.036	60.75
775.351	60.7
775.665	60.26
775.979	60.36
776.293	60.36
776.608	60.41
776.922	60.3
777.236	60.05
777.55	60.17
777.864	60.31
778.178	60.34
778.492	60.21
778.806	59.92
779.12	59.33
779.434	59.24
779.747	58.74
780.061	59.65
780.375	59.7
780.689	60.14
781.002	59.47
781.316	60.06
781.629	59.96
781.943	59.62
782.256	59.51
782.57	59.74
782.883	59.32
783.196	59.04
783.51	59.48
783.823	59.62
784.136	59.17
784.449	59.48
784.762	59.54
785.075	59.75
785.388	59.94
785.701	60.08
786.014	59.89
786.327	60.29
786.64	59.87
786.953	60.25
787.266	59.89
787.578	60.56
787.891	60
788.204	60.17
788.516	60.78
788.829	61.34
789.141	61.67
789.454	61.72
789.766	62.32
790.079	61.77
790.391	61.59
790.703	61.62
791.016	61.56
791.328	61.63
791.64	61.48
791.952	61.42
792.264	62.01
792.576	62.21
792.888	62.52
793.2	62.45
793.512	62.25
793.824	62.8
794.136	62.69
794.448	62.97
794.76	62.06
795.071	62.12
795.383	61.89
795.695	61.44
796.006	61.45
796.318	60.96
796.629	60.7
796.941	60.96
797.252	60.7
797.564	60.49
797.875	60.7
798.186	61.12
798.497	61.09
798.809	60.71
799.12	60.48
799.431	60.2
799.742	60.33
800.053	60.5
800.364	60.66
800.675	60.56
800.986	60.92
801.297	60.93
801.608	60.39
801.918	60.38
802.229	60.14
802.54	59.95
802.851	59.66
803.161	59.99
803.472	59.59
803.782	59.96
804.093	60.22
804.403	59.99
804.714	59.74
805.024	60.25
805.334	59.98
805.645	60.25
805.955	60.45
806.265	60.42
806.575	60.54
806.885	59.65
807.195	59.83
807.505	59.04
807.815	60.13
808.125	60.48
808.435	61.27
808.745	61.4
809.055	60.99
809.365	61.71
809.674	61.87
809.984	61.58
810.294	61.58
810.603	61.62
810.913	61.59
811.222	61.04
811.532	60.72
811.841	61.12
812.151	60.97
812.46	60.26
812.769	60.43
813.079	60.37
813.388	60.43
813.697	60.49
814.006	61.3
814.315	60.64
814.624	60.65
814.933	59.45
815.242	59.05
815.551	59.41
815.86	59.31
816.169	58.43
816.478	59.4
816.786	59.07
817.095	59.16
817.404	59.48
817.712	59.82
818.021	59.6
818.33	59.34
818.638	59.4
818.947	59.88
819.255	60.01
819.563	60.17
819.872	59.78
820.18	59.94
820.488	60.11
820.796	60.42
821.105	60.55
821.413	60.8
821.721	61.02
822.029	61.24
822.337	61.21
822.645	61.48
822.953	61.13
823.26	61.26
823.568	61.24
823.876	61.1
824.184	61.05
824.491	61.09
824.799	61.01
825.107	61.05
825.414	60.99
825.722	61.15
826.029	61.05
826.337	61.46
826.644	61.56
826.951	61.55
827.259	61.51
827.566	61.45
827.873	61.1
828.18	61.05
828.488	60.73
828.795	60.7
829.102	60.77
829.409	61.24
829.716	61.09
830.023	61.01
830.329	60.93
830.636	61.08
830.943	61.16
831.25	61.66
831.557	61.46
831.863	61.58
832.17	61.09
832.476	61.4
832.783	61.11
833.089	60.7
833.396	60.61
833.702	60.35
834.009	60.24
834.315	60.72
834.621	60.78
834.928	61.13
835.234	61.17
835.54	61.11
835.846	60.81
836.152	61.07
836.458	61.06
836.764	61.15
837.07	60.99
837.376	60.88
837.682	61.13
837.988	61.08
838.293	61.12
838.599	61.55
838.905	61.15
839.211	61.63
839.516	62.5
839.822	61.74
840.127	62.36
840.433	62.71
840.738	62.97
841.044	62.94
841.349	62.35
841.654	61.6
841.959	61.03
842.265	61.57
842.57	60.95
842.875	60.42
843.18	60.86
843.485	61.31
843.79	61.35
844.095	60.41
844.4	60.27
844.705	60.14
845.01	58.89
845.315	59.49
845.619	59.54
845.924	57.66
846.229	57.29
846.533	57.07
846.838	55.69
847.142	55.01
847.447	54.48
847.751	55.48
848.056	56.68
848.36	57.46
848.664	56.08
848.969	55.13
849.273	53.76
849.577	53.81
849.881	53.29
850.185	51.4
850.489	52.19
850.794	52.96
851.097	53.95
851.401	52.6
851.705	52.66
852.009	51.28
852.313	52.11
852.617	54.07
852.92	52.5
853.224	53.08
853.528	53.29
853.831	56.31
854.135	56.89
854.438	55.08
854.742	54.95
855.045	56.41
855.349	59.98
855.652	64.37
855.955	62.72
856.259	64.61
856.562	65.38
856.865	63.27
857.168	64.63
857.471	64.36
857.774	64.82
858.077	64.35
858.38	65.36
858.683	65.74
858.986	64.95
859.289	67.9
859.592	68.17
859.894	67.49
860.197	64.14
860.5	63.96
860.802	64.9
861.105	63.49
861.407	63.37
861.71	61.36
862.012	60.82
862.315	63.77
862.617	62.85
862.919	63.37
863.222	64.13
863.524	61.9
863.826	60.73
864.128	63.37
864.43	67
864.732	67.83
865.034	66.55
865.336	66.52
865.638	65.83
865.94	66.94
866.242	68.93
866.544	68.27
866.846	67.08
867.147	68.4
867.449	70.68
867.751	71.65
868.052	70.46
868.354	67.38
868.655	65.08
868.957	64.42
869.258	64.85
869.56	65.3
869.861	66.15
870.162	66.26
870.463	67.57
870.765	64.92
871.066	64.45
871.367	64.23
871.668	65.9
871.969	64.65
872.27	63.47
872.571	61.02
872.872	61.88
873.173	61.79
873.473	62.02
873.774	61.31
874.075	61.25
874.376	61.78
874.676	62.75
874.977	65.78
875.277	65.17
875.578	65.67
875.878	65.39
876.179	66.37
876.479	66.81
876.78	64
877.08	62.8
877.38	61.31
877.68	63.68
877.981	62.03
878.281	62.89
878.581	64.04
