Data from BU58130_Reflection_00013.txt Node
Date: Mon Nov 18 16:37:39 EST 2019
User: vgr7
Spectrometer: USB2G7710
Scans to average: 3
Trigger mode: 4
Integration Time (sec): 2.000000E-2
Electric dark correction enabled: true
Boxcar width: 10
XAxis mode: Wavelengths
Number of Pixels in Spectrum: 2048
>>>>>Begin Spectral Data<<<<<
177.721	64.38
178.105	433.33
178.488	211.43
178.871	208.41
179.254	175.99
179.636	318.39
180.019	602.28
180.402	3.45
180.785	40.18
181.168	60.59
181.55	65
181.933	72.11
182.316	93.21
182.698	87.27
183.081	98.16
183.463	179.54
183.846	195.24
184.228	189.23
184.611	405.69
184.993	439.11
185.376	293.36
185.758	282.27
186.14	506.29
186.522	703.41
186.904	1450.21
187.287	2047.09
187.669	-1329.72
188.051	-5935.09
188.433	-3018.28
188.815	-249.21
189.197	-141
189.579	-131.65
189.961	-116.94
190.342	-101.74
190.724	-129.59
191.106	-169.44
191.488	-276.01
191.869	-448.32
192.251	-514.12
192.633	-1624.87
193.014	-12196.3
193.396	3902.47
193.777	5085.51
194.159	521.71
194.54	641.91
194.922	-394.89
195.303	-621.46
195.684	-299.2
196.065	-72.78
196.447	-80.49
196.828	-139.56
197.209	-169.56
197.59	-175.95
197.971	-151.71
198.352	-84.73
198.733	-94.96
199.114	-72.54
199.495	-47.46
199.876	-31.27
200.257	6.3
200.638	11.31
201.018	10.84
201.399	-10.85
201.78	4.83
202.16	-9.56
202.541	-20.93
202.922	-56.56
203.302	-72.53
203.683	-74.16
204.063	-101.68
204.444	-97.27
204.824	-66.53
205.204	-44.4
205.585	-46.79
205.965	-67.7
206.345	-129.09
206.725	-112.31
207.106	-128.24
207.486	-238.01
207.866	-333.01
208.246	-308.09
208.626	-299.7
209.006	-273.95
209.386	-315.69
209.766	-327.06
210.145	-274.02
210.525	-326.41
210.905	-421.92
211.285	-1036.23
211.664	-481.89
212.044	-943.14
212.424	4962.75
212.803	648.75
213.183	1455.19
213.562	-344.44
213.942	-108.41
214.321	-74.36
214.701	-72.81
215.08	-89.11
215.459	-85.86
215.838	-97.17
216.218	-96.53
216.597	-70.7
216.976	-51.36
217.355	-33.91
217.734	-44.13
218.113	-13.31
218.492	-17.3
218.871	-36.64
219.25	-23.51
219.629	-54.69
220.008	-50.42
220.387	-38.49
220.766	-55.05
221.144	-82.74
221.523	-101.91
221.902	-143.49
222.28	-114.45
222.659	-108.29
223.037	-76.01
223.416	-54.4
223.794	-51.57
224.173	-44.2
224.551	-49.51
224.929	-61.89
225.308	-43.19
225.686	-32.18
226.064	-37.61
226.442	-34.78
226.821	-26.6
227.199	-28.62
227.577	-23.16
227.955	-19.24
228.333	-17.04
228.711	-10.78
229.089	-6.86
229.467	-10.99
229.845	-9.12
230.222	-10.36
230.6	-9.57
230.978	-9.3
231.356	-8.49
231.733	-5.35
232.111	-4.68
232.488	-2.12
232.866	-0.59
233.243	-1.75
233.621	-1.22
233.998	0.83
234.376	3.64
234.753	5.26
235.13	6.89
235.508	6.75
235.885	6.98
236.262	6.21
236.639	7.07
237.016	6.97
237.393	7.19
237.77	8.09
238.147	8.79
238.524	9.08
238.901	7.69
239.278	7.09
239.655	7.02
240.032	6.24
240.409	5.46
240.785	6.02
241.162	5.85
241.539	5.32
241.915	5.24
242.292	4.77
242.668	4.7
243.045	4.53
243.421	4.33
243.798	4.05
244.174	4.12
244.551	4.21
244.927	4.22
245.303	4.36
245.679	4.17
246.056	4.13
246.432	3.89
246.808	3.91
247.184	3.85
247.56	3.62
247.936	3.78
248.312	3.9
248.688	3.56
249.064	3.47
249.44	3.37
249.815	3.43
250.191	3.59
250.567	3.58
250.943	3.59
251.318	3.6
251.694	3.7
252.069	3.65
252.445	3.4
252.82	3.31
253.196	3.35
253.571	3.27
253.947	3.09
254.322	3.48
254.697	3.9
255.073	3.76
255.448	3.77
255.823	3.93
256.198	3.88
256.573	3.93
256.948	3.96
257.323	3.99
257.698	3.78
258.073	3.63
258.448	3.69
258.823	3.62
259.198	3.45
259.573	3.33
259.948	3.37
260.322	3.48
260.697	3.43
261.072	3.33
261.446	3.43
261.821	3.52
262.195	3.51
262.57	3.34
262.944	3.38
263.319	3.4
263.693	3.24
264.067	3.3
264.442	3.42
264.816	3.26
265.19	3.43
265.564	3.52
265.938	3.35
266.313	3.08
266.687	3.32
267.061	3.76
267.435	3.83
267.809	3.89
268.183	3.87
268.556	3.95
268.93	4.04
269.304	3.94
269.678	3.92
270.051	3.98
270.425	4.03
270.799	4.06
271.172	4.19
271.546	4.28
271.919	4.21
272.293	4.21
272.666	4.45
273.04	4.44
273.413	4.41
273.787	4.6
274.16	4.75
274.533	4.63
274.906	4.42
275.279	4.37
275.653	4.32
276.026	4.24
276.399	4.03
276.772	4.2
277.145	4.09
277.518	4.04
277.891	3.99
278.263	3.97
278.636	3.85
279.009	3.67
279.382	3.73
279.755	3.78
280.127	3.75
280.5	3.82
280.872	3.76
281.245	3.7
281.617	3.92
281.99	4
282.362	4.01
282.735	3.94
283.107	3.99
283.479	3.96
283.852	3.99
284.224	4.19
284.596	3.99
284.968	4.14
285.34	4.25
285.713	4.16
286.085	4.16
286.457	4.37
286.829	4.41
287.201	4.46
287.572	4.3
287.944	4.35
288.316	4.22
288.688	4.15
289.06	4.25
289.431	4.13
289.803	4.21
290.175	4.18
290.546	4.37
290.918	4.4
291.289	4.5
291.661	4.47
292.032	4.5
292.403	4.56
292.775	4.56
293.146	4.4
293.517	4.48
293.889	4.68
294.26	4.54
294.631	4.65
295.002	4.52
295.373	4.68
295.744	4.64
296.115	4.66
296.486	4.64
296.857	4.58
297.228	4.54
297.599	4.42
297.97	4.32
298.34	4.37
298.711	4.43
299.082	4.39
299.452	4.54
299.823	4.57
300.194	4.59
300.564	4.54
300.935	4.74
301.305	4.69
301.676	4.59
302.046	4.65
302.416	4.72
302.787	4.9
303.157	4.94
303.527	5.04
303.897	5.05
304.267	5.16
304.637	5.34
305.008	5.54
305.378	5.7
305.748	5.95
306.117	5.88
306.487	5.87
306.857	5.94
307.227	5.96
307.597	5.99
307.967	6.04
308.336	6.22
308.706	6.29
309.076	6.41
309.445	6.5
309.815	6.49
310.184	6.48
310.554	6.47
310.923	6.54
311.293	6.57
311.662	6.63
312.031	6.69
312.401	6.68
312.77	6.77
313.139	6.88
313.508	6.95
313.877	7.06
314.246	7.14
314.616	7.17
314.985	7.21
315.353	7.28
315.722	7.43
316.091	7.46
316.46	7.4
316.829	7.54
317.198	7.55
317.567	7.78
317.935	7.74
318.304	7.69
318.672	7.61
319.041	7.72
319.41	7.86
319.778	7.93
320.147	7.95
320.515	7.92
320.883	7.81
321.252	7.88
321.62	8.04
321.988	8.1
322.357	8.16
322.725	8.21
323.093	8.3
323.461	8.31
323.829	8.5
324.197	8.64
324.565	8.63
324.933	8.73
325.301	8.86
325.669	9.02
326.037	9.17
326.405	9.3
326.772	9.46
327.14	9.56
327.508	9.46
327.875	9.54
328.243	9.47
328.61	9.59
328.978	9.6
329.346	9.55
329.713	9.62
330.08	9.61
330.448	9.66
330.815	9.65
331.182	9.58
331.55	9.51
331.917	9.53
332.284	9.57
332.651	9.64
333.018	9.76
333.385	9.67
333.752	9.75
334.119	9.76
334.486	9.7
334.853	9.74
335.22	9.91
335.587	9.91
335.954	9.96
336.32	9.87
336.687	9.87
337.054	9.82
337.42	9.84
337.787	10.03
338.153	9.99
338.52	10.12
338.886	10.22
339.253	10.11
339.619	10.17
339.986	10.11
340.352	10.15
340.718	10
341.084	10.11
341.451	10.1
341.817	10.12
342.183	10.1
342.549	10
342.915	10.04
343.281	10.11
343.647	10.05
344.013	10.09
344.379	10.07
344.745	10.21
345.11	10.25
345.476	10.24
345.842	10.3
346.208	10.29
346.573	10.36
346.939	10.51
347.304	10.5
347.67	10.63
348.035	10.59
348.401	10.62
348.766	10.6
349.132	10.59
349.497	10.59
349.862	10.64
350.228	10.66
350.593	10.63
350.958	10.51
351.323	10.63
351.688	10.71
352.053	10.76
352.418	10.67
352.783	10.67
353.148	10.59
353.513	10.6
353.878	10.55
354.243	10.53
354.608	10.45
354.972	10.43
355.337	10.45
355.702	10.46
356.066	10.47
356.431	10.45
356.795	10.41
357.16	10.35
357.524	10.25
357.889	10.25
358.253	10.24
358.618	10.34
358.982	10.27
359.346	10.18
359.71	10.13
360.075	10.04
360.439	9.95
360.803	9.97
361.167	9.89
361.531	9.83
361.895	9.72
362.259	9.64
362.623	9.63
362.987	9.58
363.351	9.47
363.714	9.41
364.078	9.38
364.442	9.33
364.806	9.3
365.169	9.26
365.533	9.22
365.896	9.1
366.26	8.93
366.623	8.89
366.987	8.82
367.35	8.74
367.714	8.77
368.077	8.72
368.44	8.59
368.803	8.55
369.167	8.44
369.53	8.33
369.893	8.4
370.256	8.36
370.619	8.22
370.982	8.19
371.345	8.06
371.708	7.99
372.071	7.95
372.434	7.87
372.797	7.85
373.159	7.72
373.522	7.69
373.885	7.63
374.247	7.51
374.61	7.44
374.973	7.38
375.335	7.32
375.698	7.25
376.06	7.22
376.423	7.09
376.785	7.11
377.147	7.14
377.51	7.02
377.872	6.93
378.234	6.83
378.596	6.75
378.958	6.73
379.321	6.63
379.683	6.57
380.045	6.54
380.407	6.49
380.769	6.46
381.13	6.41
381.492	6.34
381.854	6.31
382.216	6.28
382.578	6.2
382.939	6.13
383.301	6.1
383.663	6.07
384.024	6.02
384.386	6.01
384.747	5.94
385.109	5.9
385.47	5.85
385.832	5.85
386.193	5.86
386.554	5.82
386.916	5.77
387.277	5.73
387.638	5.71
387.999	5.63
388.36	5.61
388.721	5.57
389.082	5.58
389.443	5.53
389.804	5.47
390.165	5.41
390.526	5.35
390.887	5.31
391.248	5.28
391.609	5.31
391.969	5.24
392.33	5.17
392.691	5.13
393.051	5.07
393.412	5.04
393.772	4.98
394.133	4.94
394.493	4.93
394.854	4.88
395.214	4.83
395.574	4.79
395.935	4.76
396.295	4.76
396.655	4.69
397.015	4.66
397.376	4.65
397.736	4.61
398.096	4.61
398.456	4.56
398.816	4.5
399.176	4.41
399.535	4.36
399.895	4.34
400.255	4.3
400.615	4.29
400.975	4.21
401.334	4.21
401.694	4.19
402.054	4.11
402.413	4.09
402.773	4.03
403.132	3.98
403.492	3.93
403.851	3.87
404.211	3.88
404.57	3.86
404.929	3.85
405.288	3.89
405.648	3.83
406.007	3.83
406.366	3.83
406.725	3.83
407.084	3.83
407.443	3.82
407.802	3.8
408.161	3.75
408.52	3.75
408.879	3.69
409.238	3.66
409.596	3.68
409.955	3.68
410.314	3.72
410.673	3.72
411.031	3.7
411.39	3.69
411.748	3.65
412.107	3.68
412.465	3.64
412.824	3.61
413.182	3.58
413.54	3.58
413.899	3.56
414.257	3.54
414.615	3.54
414.974	3.54
415.332	3.54
415.69	3.52
416.048	3.5
416.406	3.51
416.764	3.49
417.122	3.49
417.48	3.47
417.838	3.43
418.195	3.43
418.553	3.42
418.911	3.4
419.269	3.42
419.626	3.39
419.984	3.38
420.342	3.38
420.699	3.39
421.057	3.39
421.414	3.38
421.772	3.37
422.129	3.36
422.486	3.35
422.844	3.33
423.201	3.34
423.558	3.34
423.915	3.32
424.273	3.31
424.63	3.3
424.987	3.3
425.344	3.28
425.701	3.28
426.058	3.26
426.415	3.26
426.772	3.23
427.128	3.22
427.485	3.21
427.842	3.2
428.199	3.17
428.555	3.14
428.912	3.13
429.269	3.13
429.625	3.11
429.982	3.1
430.338	3.1
430.695	3.08
431.051	3.08
431.407	3.1
431.764	3.08
432.12	3.08
432.476	3.07
432.832	3.07
433.189	3.07
433.545	3.09
433.901	3.09
434.257	3.07
434.613	3.07
434.969	3.08
435.325	3.09
435.681	3.1
436.036	3.1
436.392	3.09
436.748	3.08
437.104	3.06
437.459	3.07
437.815	3.07
438.171	3.07
438.526	3.07
438.882	3.06
439.237	3.06
439.593	3.06
439.948	3.06
440.304	3.07
440.659	3.07
441.014	3.05
441.369	3.06
441.725	3.06
442.08	3.07
442.435	3.07
442.79	3.05
443.145	3.04
443.5	3.03
443.855	3.04
444.21	3.02
444.565	3.02
444.92	3.02
445.275	3.01
445.629	3
445.984	3.01
446.339	3.01
446.693	3.01
447.048	3
447.403	2.98
447.757	2.97
448.112	2.95
448.466	2.96
448.82	2.95
449.175	2.96
449.529	2.94
449.883	2.92
450.238	2.92
450.592	2.93
450.946	2.92
451.3	2.92
451.654	2.93
452.008	2.92
452.362	2.9
452.716	2.9
453.07	2.89
453.424	2.89
453.778	2.89
454.132	2.9
454.486	2.89
454.839	2.9
455.193	2.89
455.547	2.89
455.9	2.91
456.254	2.91
456.607	2.91
456.961	2.9
457.314	2.91
457.668	2.92
458.021	2.89
458.375	2.91
458.728	2.91
459.081	2.92
459.434	2.92
459.787	2.92
460.141	2.93
460.494	2.94
460.847	2.92
461.2	2.92
461.553	2.93
461.906	2.93
462.259	2.94
462.611	2.97
462.964	2.98
463.317	2.97
463.67	2.96
464.022	2.96
464.375	2.97
464.728	2.99
465.08	2.97
465.433	2.99
465.785	2.98
466.138	2.98
466.49	2.99
466.843	2.99
467.195	2.99
467.547	2.99
467.899	2.99
468.252	3
468.604	3.02
468.956	2.98
469.308	3
469.66	2.98
470.012	2.99
470.364	2.98
470.716	2.97
471.068	3.01
471.42	3.01
471.772	3.03
472.123	3.05
472.475	3.08
472.827	3.1
473.178	3.11
473.53	3.11
473.882	3.13
474.233	3.16
474.585	3.15
474.936	3.14
475.288	3.15
475.639	3.17
475.99	3.16
476.342	3.19
476.693	3.19
477.044	3.22
477.395	3.21
477.746	3.21
478.097	3.22
478.448	3.19
478.8	3.17
479.15	3.14
479.501	3.12
479.852	3.1
480.203	3.11
480.554	3.11
480.905	3.11
481.255	3.1
481.606	3.09
481.957	3.11
482.307	3.11
482.658	3.11
483.009	3.1
483.359	3.09
483.709	3.1
484.06	3.1
484.41	3.09
484.761	3.09
485.111	3.09
485.461	3.08
485.811	3.09
486.162	3.09
486.512	3.1
486.862	3.09
487.212	3.09
487.562	3.08
487.912	3.08
488.262	3.08
488.612	3.08
488.961	3.08
489.311	3.08
489.661	3.07
490.011	3.07
490.36	3.08
490.71	3.07
491.06	3.07
491.409	3.07
491.759	3.07
492.108	3.07
492.458	3.09
492.807	3.09
493.157	3.1
493.506	3.12
493.855	3.13
494.204	3.14
494.554	3.16
494.903	3.16
495.252	3.18
495.601	3.2
495.95	3.21
496.299	3.21
496.648	3.24
496.997	3.26
497.346	3.29
497.695	3.31
498.043	3.34
498.392	3.34
498.741	3.36
499.09	3.39
499.438	3.41
499.787	3.43
500.135	3.47
500.484	3.48
500.832	3.5
501.181	3.55
501.529	3.6
501.878	3.64
502.226	3.69
502.574	3.71
502.923	3.71
503.271	3.74
503.619	3.79
503.967	3.83
504.315	3.85
504.663	3.91
505.011	3.98
505.359	4.05
505.707	4.11
506.055	4.17
506.403	4.21
506.751	4.28
507.098	4.33
507.446	4.37
507.794	4.41
508.141	4.47
508.489	4.51
508.837	4.57
509.184	4.61
509.531	4.66
509.879	4.72
510.226	4.81
510.574	4.87
510.921	4.91
511.268	4.97
511.616	5.03
511.963	5.07
512.31	5.09
512.657	5.14
513.004	5.2
513.351	5.3
513.698	5.39
514.045	5.43
514.392	5.53
514.739	5.61
515.086	5.69
515.432	5.75
515.779	5.81
516.126	5.87
516.473	5.95
516.819	6.05
517.166	6.13
517.512	6.18
517.859	6.26
518.205	6.34
518.552	6.4
518.898	6.47
519.245	6.52
519.591	6.58
519.937	6.63
520.283	6.71
520.629	6.77
520.976	6.84
521.322	6.94
521.668	7.02
522.014	7.09
522.36	7.18
522.706	7.29
523.052	7.39
523.398	7.51
523.743	7.62
524.089	7.72
524.435	7.82
524.781	7.92
525.126	8.03
525.472	8.12
525.817	8.21
526.163	8.28
526.509	8.38
526.854	8.47
527.199	8.54
527.545	8.6
527.89	8.66
528.235	8.73
528.581	8.79
528.926	8.86
529.271	8.95
529.616	9.02
529.961	9.08
530.306	9.15
530.651	9.23
530.996	9.32
531.341	9.41
531.686	9.5
532.031	9.59
532.376	9.69
532.721	9.8
533.065	9.9
533.41	10
533.755	10.1
534.099	10.2
534.444	10.31
534.788	10.45
535.133	10.55
535.477	10.67
535.822	10.81
536.166	10.96
536.51	11.11
536.855	11.28
537.199	11.48
537.543	11.67
537.887	11.85
538.231	12.04
538.576	12.22
538.92	12.41
539.264	12.61
539.608	12.79
539.951	12.94
540.295	13.11
540.639	13.29
540.983	13.46
541.327	13.63
541.671	13.82
542.014	13.98
542.358	14.17
542.701	14.33
543.045	14.49
543.389	14.64
543.732	14.82
544.075	15.01
544.419	15.2
544.762	15.38
545.105	15.59
545.449	15.77
545.792	16.01
546.135	16.23
546.478	16.48
546.821	16.71
547.165	16.97
547.508	17.25
547.851	17.53
548.194	17.82
548.536	18.12
548.879	18.44
549.222	18.72
549.565	19.02
549.908	19.38
550.25	19.71
550.593	20.07
550.936	20.38
551.278	20.71
551.621	21.01
551.963	21.4
552.306	21.73
552.648	22.12
552.991	22.47
553.333	22.81
553.675	23.15
554.017	23.48
554.36	23.85
554.702	24.13
555.044	24.5
555.386	24.82
555.728	25.16
556.07	25.44
556.412	25.78
556.754	26.12
557.096	26.44
557.438	26.81
557.78	27.19
558.121	27.57
558.463	27.92
558.805	28.3
559.147	28.6
559.488	28.98
559.83	29.29
560.171	29.61
560.513	29.95
560.854	30.24
561.196	30.59
561.537	30.97
561.878	31.38
562.22	31.67
562.561	32.04
562.902	32.38
563.243	32.75
563.584	33.1
563.925	33.46
564.266	33.73
564.607	34.04
564.948	34.39
565.289	34.68
565.63	35
565.971	35.28
566.312	35.59
566.653	35.89
566.993	36.17
567.334	36.54
567.675	36.87
568.015	37.21
568.356	37.52
568.696	37.8
569.037	38.06
569.377	38.35
569.718	38.65
570.058	38.89
570.398	39.2
570.739	39.46
571.079	39.73
571.419	40.04
571.759	40.32
572.099	40.53
572.439	40.85
572.779	41.09
573.119	41.37
573.459	41.64
573.799	41.9
574.139	42.18
574.479	42.37
574.819	42.6
575.158	42.85
575.498	43.12
575.838	43.35
576.177	43.57
576.517	43.88
576.856	44.12
577.196	44.45
577.535	44.66
577.875	44.89
578.214	45.13
578.553	45.46
578.893	45.68
579.232	45.93
579.571	46.05
579.91	46.29
580.25	46.47
580.589	46.66
580.928	46.88
581.267	47.04
581.606	47.24
581.945	47.4
582.283	47.59
582.622	47.78
582.961	47.95
583.3	48.14
583.639	48.25
583.977	48.45
584.316	48.59
584.654	48.76
584.993	48.97
585.332	49.14
585.67	49.24
586.008	49.4
586.347	49.57
586.685	49.81
587.024	49.96
587.362	50.09
587.7	50.26
588.038	50.38
588.376	50.58
588.715	50.77
589.053	50.98
589.391	51.07
589.729	51.17
590.067	51.3
590.404	51.42
590.742	51.57
591.08	51.65
591.418	51.82
591.756	51.99
592.093	52.09
592.431	52.21
592.769	52.33
593.106	52.47
593.444	52.56
593.781	52.69
594.119	52.8
594.456	52.94
594.793	53.04
595.131	53.12
595.468	53.21
595.805	53.29
596.143	53.42
596.48	53.55
596.817	53.61
597.154	53.69
597.491	53.81
597.828	53.84
598.165	53.97
598.502	54.05
598.839	54.19
599.176	54.37
599.512	54.49
599.849	54.59
600.186	54.7
600.523	54.81
600.859	54.97
601.196	55.15
601.532	55.31
601.869	55.36
602.205	55.44
602.542	55.54
602.878	55.62
603.215	55.65
603.551	55.72
603.887	55.84
604.223	55.94
604.56	56.03
604.896	56.14
605.232	56.24
605.568	56.3
605.904	56.29
606.24	56.33
606.576	56.38
606.912	56.49
607.248	56.53
607.583	56.69
607.919	56.67
608.255	56.64
608.591	56.69
608.926	56.78
609.262	56.91
609.597	56.96
609.933	57.06
610.268	57.08
610.604	57.08
610.939	57.09
611.275	57.12
611.61	57.15
611.945	57.23
612.281	57.18
612.616	57.21
612.951	57.26
613.286	57.27
613.621	57.3
613.956	57.38
614.291	57.4
614.626	57.31
614.961	57.37
615.296	57.41
615.631	57.45
615.966	57.52
616.3	57.53
616.635	57.54
616.97	57.47
617.304	57.56
617.639	57.74
617.973	57.79
618.308	57.91
618.642	57.93
618.977	57.86
619.311	57.91
619.646	57.97
619.98	58.04
620.314	58.02
620.648	58.16
620.983	58.1
621.317	58.26
621.651	58.28
621.985	58.35
622.319	58.46
622.653	58.52
622.987	58.62
623.321	58.78
623.655	58.85
623.988	58.95
624.322	58.97
624.656	58.99
624.99	59.03
625.323	59.07
625.657	59.1
625.99	59.17
626.324	59.21
626.657	59.24
626.991	59.34
627.324	59.4
627.658	59.3
627.991	59.48
628.324	59.49
628.657	59.55
628.991	59.59
629.324	59.62
629.657	59.64
629.99	59.6
630.323	59.55
630.656	59.59
630.989	59.51
631.322	59.51
631.655	59.5
631.987	59.51
632.32	59.47
632.653	59.46
632.986	59.55
633.318	59.64
633.651	59.66
633.984	59.63
634.316	59.76
634.649	59.91
634.981	59.75
635.313	59.61
635.646	59.69
635.978	59.75
636.31	59.69
636.643	59.65
636.975	59.61
637.307	59.55
637.639	59.53
637.971	59.69
638.303	59.72
638.635	59.74
638.967	59.81
639.299	59.84
639.631	59.91
639.963	59.87
640.295	59.81
640.626	59.75
640.958	59.83
641.29	59.7
641.621	59.81
641.953	59.84
642.285	59.91
642.616	59.9
642.948	59.88
643.279	59.93
643.61	60.04
643.942	60.1
644.273	60.22
644.604	60.3
644.936	60.26
645.267	60.28
645.598	60.23
645.929	60.14
646.26	60.19
646.591	60.23
646.922	60.42
647.253	60.42
647.584	60.52
647.915	60.45
648.245	60.56
648.576	60.52
648.907	60.63
649.238	60.79
649.568	60.8
649.899	60.81
650.229	60.87
650.56	60.86
650.89	60.87
651.221	60.87
651.551	60.85
651.882	60.89
652.212	60.91
652.542	60.98
652.872	61.07
653.203	61.19
653.533	61.23
653.863	61.16
654.193	61.29
654.523	61.37
654.853	61.46
655.183	61.42
655.513	61.37
655.843	61.39
656.172	61.29
656.502	61.39
656.832	61.33
657.162	61.46
657.491	61.44
657.821	61.53
658.15	61.52
658.48	61.45
658.809	61.48
659.139	61.51
659.468	61.53
659.798	61.52
660.127	61.44
660.456	61.41
660.785	61.28
661.115	61.22
661.444	61.19
661.773	61.16
662.102	61.21
662.431	61.32
662.76	61.27
663.089	61.32
663.418	61.26
663.747	61.24
664.076	61.14
664.404	61.1
664.733	61.05
665.062	61.09
665.39	61.2
665.719	61.22
666.048	61.12
666.376	61.04
666.705	61.08
667.033	61.14
667.362	61.29
667.69	61.45
668.018	61.52
668.347	61.57
668.675	61.55
669.003	61.51
669.331	61.53
669.659	61.48
669.987	61.41
670.315	61.48
670.643	61.7
670.971	61.81
671.299	61.83
671.627	61.72
671.955	61.59
672.283	61.52
672.61	61.66
672.938	61.69
673.266	61.75
673.593	61.81
673.921	61.9
674.249	61.65
674.576	61.7
674.904	61.68
675.231	61.51
675.558	61.53
675.886	61.62
676.213	61.48
676.54	61.61
676.867	61.63
677.195	61.57
677.522	61.5
677.849	61.4
678.176	61.41
678.503	61.51
678.83	61.62
679.157	61.63
679.484	61.42
679.81	61.53
680.137	61.48
680.464	61.35
680.791	61.11
681.117	61.19
681.444	61.16
681.771	61.31
682.097	61.4
682.424	61.37
682.75	61.33
683.077	61.24
683.403	61.19
683.729	61.15
684.056	61.14
684.382	61.12
684.708	61.31
685.034	61.25
685.36	61.07
685.686	61.12
686.012	61.1
686.339	61.17
686.664	61.09
686.99	61.25
687.316	61.25
687.642	61.45
687.968	61.55
688.294	61.48
688.619	61.38
688.945	61.31
689.271	61.34
689.596	61.15
689.922	61.29
690.247	61.25
690.573	61.38
690.898	61.39
691.224	61.19
691.549	60.84
691.874	60.91
692.2	61.12
692.525	61.02
692.85	61.1
693.175	61.03
693.5	60.93
693.825	60.79
694.15	60.78
694.475	60.68
694.8	60.75
695.125	60.85
695.45	60.84
695.775	60.95
696.099	61.08
696.424	61.26
696.749	61.14
697.073	61.18
697.398	61.19
697.723	61.23
698.047	61.47
698.372	61.51
698.696	61.47
699.02	61.31
699.345	61.26
699.669	61.3
699.993	61.37
700.318	61.44
700.642	61.29
700.966	61.44
701.29	61.43
701.614	61.29
701.938	61.32
702.262	61.4
702.586	61.28
702.91	61.22
703.234	61.24
703.557	61.43
703.881	61.63
704.205	61.64
704.529	61.44
704.852	61.13
705.176	61.16
705.499	61.12
705.823	61.41
706.146	61.46
706.47	61.38
706.793	61.21
707.117	61.27
707.44	61.53
707.763	61.4
708.086	61.31
708.409	61.39
708.733	61.23
709.056	61.08
709.379	61.14
709.702	61.18
710.025	61.11
710.348	60.95
710.671	60.71
710.993	60.66
711.316	60.88
711.639	60.9
711.962	60.97
712.284	60.99
712.607	60.9
712.93	60.87
713.252	60.85
713.575	60.82
713.897	60.87
714.22	60.84
714.542	60.98
714.864	60.95
715.187	60.76
715.509	60.75
715.831	60.71
716.153	60.66
716.475	60.53
716.798	60.57
717.12	60.66
717.442	60.67
717.764	60.55
718.085	60.39
718.407	60.68
718.729	60.77
719.051	60.95
719.373	60.7
719.695	60.69
720.016	60.71
720.338	60.89
720.659	60.79
720.981	60.72
721.302	60.7
721.624	60.96
721.945	61.07
722.267	61.17
722.588	61.17
722.909	61.29
723.231	61.24
723.552	61.19
723.873	61.23
724.194	61.26
724.515	61.28
724.836	61.25
725.157	61.2
725.478	61.04
725.799	60.78
726.12	60.98
726.441	61.06
726.762	61.09
727.083	61.05
727.403	61.16
727.724	61.38
728.045	61.36
728.365	61.41
728.686	61.34
729.006	61.38
729.327	61.26
729.647	61.15
729.967	61.12
730.288	61.13
730.608	60.92
730.928	60.92
731.249	60.89
731.569	61.05
731.889	60.96
732.209	61.02
732.529	61.21
732.849	61.35
733.169	61.41
733.489	61.43
733.809	61.44
734.129	61.47
734.448	61.26
734.768	61.22
735.088	60.98
735.408	61.08
735.727	60.95
736.047	61
736.366	61.03
736.686	61.13
737.005	60.95
737.325	61.11
737.644	61.01
737.963	61.1
738.283	61.19
738.602	61.22
738.921	61.1
739.24	61.02
739.56	60.87
739.879	60.71
740.198	60.97
740.517	61.07
740.836	61.02
741.155	61.19
741.473	60.93
741.792	60.87
742.111	61.05
742.43	61.09
742.748	61.22
743.067	61.26
743.386	61.34
743.704	61.49
744.023	61.5
744.341	61.4
744.66	61.46
744.978	61.03
745.297	60.81
745.615	60.86
745.933	60.85
746.252	60.98
746.57	61.15
746.888	60.73
747.206	60.74
747.524	60.92
747.842	60.89
748.16	60.86
748.478	61.18
748.796	60.99
749.114	61
749.432	60.84
749.749	60.75
750.067	60.63
750.385	60.95
750.703	60.68
751.02	60.65
751.338	60.99
751.655	61.25
751.973	61.33
752.29	61.78
752.608	61.79
752.925	62
753.242	62
753.56	62
753.877	61.81
754.194	61.51
754.511	61.35
754.828	61.33
755.145	61.12
755.462	61.3
755.779	61.35
756.096	61.78
756.413	61.75
756.73	61.64
757.047	61.43
757.364	61.79
757.68	62.19
757.997	61.9
758.314	61.74
758.63	61.73
758.947	61.38
759.264	61.26
759.58	61.31
759.896	61.25
760.213	61.1
760.529	61.31
760.846	61.23
761.162	61.38
761.478	61.85
761.794	61.82
762.11	61.67
762.426	61.69
762.743	61.39
763.059	61.32
763.375	61.54
763.69	61.29
764.006	61.21
764.322	60.89
764.638	60.78
764.954	60.82
765.27	60.83
765.585	60.9
765.901	61.08
766.216	60.9
766.532	61.03
766.848	61.18
767.163	61.17
767.478	61.1
767.794	60.98
768.109	60.74
768.424	60.8
768.74	61
769.055	61.06
769.37	61.11
769.685	61.04
770	60.79
770.315	60.86
770.63	61.09
770.945	61.49
771.26	61.72
771.575	61.95
771.89	62.28
772.205	61.84
772.52	62.13
772.834	61.94
773.149	61.89
773.464	61.74
773.778	61.44
774.093	61.65
774.407	61.6
774.722	61.81
775.036	62.03
775.351	62.11
775.665	61.95
775.979	62
776.293	62.6
776.608	62.54
776.922	63.07
777.236	63.34
777.55	63.31
777.864	63.09
778.178	63.1
778.492	63.04
778.806	63.42
779.12	63.09
779.434	63.66
779.747	63.5
780.061	63.5
780.375	63.64
780.689	63.71
781.002	64.25
781.316	64.58
781.629	64.41
781.943	63.94
782.256	63.76
782.57	63.75
782.883	63.27
783.196	63.82
783.51	63.27
783.823	62.98
784.136	62.84
784.449	62.92
784.762	63.05
785.075	62.82
785.388	62.73
785.701	62.84
786.014	62.24
786.327	62.35
786.64	62.79
786.953	63.09
787.266	63.35
787.578	62.29
787.891	61.83
788.204	62.2
788.516	62.44
788.829	62.94
789.141	63.18
789.454	63.33
789.766	63
790.079	63.48
790.391	63.32
790.703	63.62
791.016	63.69
791.328	63.43
791.64	63.57
791.952	64.06
792.264	63.78
792.576	63.93
792.888	63.8
793.2	63.89
793.512	63.66
793.824	63.75
794.136	64.6
794.448	64.6
794.76	64.54
795.071	64.38
795.383	64.06
795.695	63.66
796.006	63.16
796.318	63.27
796.629	63.41
796.941	63.45
797.252	63.14
797.564	63.27
797.875	63.28
798.186	63.62
798.497	63.33
798.809	63.11
799.12	63.38
799.431	63.78
799.742	63.41
800.053	63.36
800.364	63.23
800.675	62.98
800.986	63.12
801.297	63.02
801.608	63.36
801.918	62.85
802.229	62.65
802.54	63.6
802.851	63.25
803.161	62.79
803.472	62.51
803.782	62.63
804.093	62.12
804.403	62.69
804.714	62.1
805.024	61.95
805.334	61.63
805.645	61.37
805.955	60.72
806.265	60.56
806.575	60.8
806.885	60.56
807.195	60.38
807.505	59.77
807.815	59.52
808.125	58.8
808.435	59.1
808.745	59.35
809.055	59.34
809.365	58.98
809.674	58.95
809.984	59.08
810.294	59.11
810.603	59.01
810.913	58.57
811.222	58.17
811.532	59.07
811.841	60.36
812.151	60.55
812.46	60.84
812.769	61.15
813.079	60.82
813.388	60.98
813.697	61.66
814.006	61.32
814.315	61.82
814.624	62.2
814.933	62.62
815.242	63.18
815.551	62.2
815.86	62.98
816.169	63.47
816.478	63
816.786	62.44
817.095	63.08
817.404	62.76
817.712	63.38
818.021	62.45
818.33	61.83
818.638	61.14
818.947	61.01
819.255	60.84
819.563	60.77
819.872	60.97
820.18	60.75
820.488	61.27
820.796	60.87
821.105	60.9
821.413	61.18
821.721	61.03
822.029	61.31
822.337	61.44
822.645	61.32
822.953	61.29
823.26	61.44
823.568	61.35
823.876	61.53
824.184	61.37
824.491	61.43
824.799	61.61
825.107	61.91
825.414	61.91
825.722	62.19
826.029	62.37
826.337	62.38
826.644	62.62
826.951	62.41
827.259	62.64
827.566	62.49
827.873	62.14
828.18	62.28
828.488	62.19
828.795	61.8
829.102	62.1
829.409	62.45
829.716	62.25
830.023	62.64
830.329	62.53
830.636	63.04
830.943	63.15
831.25	62.84
831.557	62.38
831.863	62.49
832.17	62.08
832.476	61.82
832.783	61.83
833.089	61.5
833.396	61.71
833.702	61.32
834.009	61.54
834.315	62.02
834.621	61.81
834.928	61.84
835.234	62.3
835.54	61.34
835.846	61.21
836.152	61.35
836.458	60.61
836.764	60.49
837.07	59.83
837.376	59.47
837.682	59.22
837.988	59.91
838.293	59.66
838.599	59.06
838.905	59.19
839.211	58.53
839.516	57.92
839.822	58.23
840.127	59.31
840.433	59.45
840.738	58.6
841.044	58.86
841.349	58.99
841.654	59.02
841.959	60.22
842.265	60.99
842.57	61.62
842.875	63.03
843.18	63.23
843.485	63.41
843.79	63.46
844.095	63.23
844.4	62.7
844.705	62.61
845.01	63.67
845.315	63.24
845.619	63.86
845.924	65.4
846.229	66.16
846.533	66.37
846.838	66.56
847.142	67.51
847.447	67.4
847.751	66.51
848.056	65.49
848.36	65.59
848.664	66.17
848.969	64.54
849.273	62.8
849.577	63.44
849.881	63.81
850.185	64.81
850.489	66.4
850.794	64.76
851.097	64.49
851.401	62.98
851.705	62.66
852.009	62.62
852.313	60.76
852.617	59.83
852.92	57.3
853.224	59.26
853.528	57.89
853.831	57.3
854.135	57.72
854.438	57.86
854.742	56.45
855.045	55.12
855.349	56.24
855.652	56.85
855.955	55.5
856.259	56.6
856.562	55.76
856.865	54.29
857.168	56.19
857.471	56.73
857.774	56.39
858.077	58.07
858.38	57.74
858.683	60.15
858.986	60.2
859.289	63.72
859.592	61.65
859.894	62.53
860.197	62.54
860.5	63.56
860.802	64.08
861.105	63.53
861.407	61.09
861.71	60.71
862.012	61.33
862.315	63.18
862.617	61.88
862.919	61.92
863.222	62.78
863.524	59.36
863.826	60.77
864.128	61.82
864.43	62.04
864.732	62.47
865.034	60.88
865.336	60.66
865.638	56.04
865.94	55.07
866.242	54.92
866.544	56.62
866.846	55.99
867.147	56.61
867.449	58.33
867.751	58.26
868.052	60.37
868.354	59.52
868.655	58.39
868.957	58.28
869.258	58.9
869.56	57.45
869.861	61.62
870.162	61.66
870.463	61.06
870.765	59.53
871.066	59.93
871.367	58.83
871.668	57.05
871.969	59.65
872.27	60.59
872.571	60.95
872.872	59.42
873.173	57.7
873.473	59.08
873.774	57.47
874.075	59.87
874.376	55.75
874.676	55.35
874.977	55.23
875.277	56.5
875.578	56.69
875.878	58.15
876.179	55.85
876.479	54.57
876.78	55.64
877.08	55.77
877.38	54.87
877.68	55.85
877.981	58.43
878.281	56.63
878.581	56.94
