Data from BU58137_Reflection_00006.txt Node
Date: Mon Nov 18 16:39:40 EST 2019
User: vgr7
Spectrometer: USB2G7710
Scans to average: 3
Trigger mode: 4
Integration Time (sec): 2.000000E-2
Electric dark correction enabled: true
Boxcar width: 10
XAxis mode: Wavelengths
Number of Pixels in Spectrum: 2048
>>>>>Begin Spectral Data<<<<<
177.721	-150.93
178.105	-22.87
178.488	7.28
178.871	136.59
179.254	169.41
179.636	-22.45
180.019	95.99
180.402	104.55
180.785	-409.03
181.168	366.87
181.55	-493.58
181.933	185.71
182.316	254.59
182.698	400.37
183.081	339.38
183.463	333.96
183.846	371.54
184.228	211.45
184.611	177.74
184.993	344.33
185.376	249.59
185.758	408.49
186.14	489.37
186.522	608.54
186.904	2884.43
187.287	1046.58
187.669	-2274.52
188.051	1247.99
188.433	-1455.83
188.815	-1014.6
189.197	-790.96
189.579	-636.53
189.961	-491.36
190.342	-472.8
190.724	-464.74
191.106	-569.48
191.488	-324.51
191.869	-425.07
192.251	-308.82
192.633	-290.56
193.014	-296.62
193.396	-235.63
193.777	-234.68
194.159	-213.32
194.54	-191.75
194.922	-164.33
195.303	-89.01
195.684	-89.26
196.065	-61.81
196.447	-57.49
196.828	-62.18
197.209	-54.27
197.59	-73.15
197.971	-57.23
198.352	-52.44
198.733	-63.86
199.114	-46.04
199.495	-55.72
199.876	-46.93
200.257	-67.49
200.638	-46.6
201.018	-50.79
201.399	-65.46
201.78	-65.2
202.16	-47.02
202.541	-46.66
202.922	-79.41
203.302	-106.52
203.683	-96.55
204.063	-166.64
204.444	-196.76
204.824	-225.53
205.204	-200.69
205.585	-148.76
205.965	-177.01
206.345	-165.06
206.725	-176.33
207.106	-181.22
207.486	-179.95
207.866	-160.43
208.246	-148.73
208.626	-164.63
209.006	-128.13
209.386	-149.07
209.766	-156
210.145	-151.08
210.525	-131.39
210.905	-100.48
211.285	-98.55
211.664	-118.53
212.044	-103.32
212.424	-79.1
212.803	-90.74
213.183	-95.66
213.562	-102.47
213.942	-88.09
214.321	-89.95
214.701	-104.83
215.08	-128.98
215.459	-119.33
215.838	-134.46
216.218	-114.55
216.597	-98.82
216.976	-97.16
217.355	-102.83
217.734	-110.69
218.113	-126.86
218.492	-142.95
218.871	-195.98
219.25	-164.36
219.629	-153.27
220.008	-149.9
220.387	-160.29
220.766	-98.28
221.144	-105.48
221.523	-108
221.902	-123.88
222.28	-143.48
222.659	-107.81
223.037	-68.22
223.416	-81.12
223.794	-68.19
224.173	-45.54
224.551	-32.04
224.929	-40.35
225.308	-32.76
225.686	-22.74
226.064	-14.86
226.442	-15.58
226.821	-10.62
227.199	-13.08
227.577	-13.34
227.955	-8.42
228.333	-11.53
228.711	-13.24
229.089	-11.09
229.467	-11.98
229.845	-7.22
230.222	-5.78
230.6	-6.5
230.978	-8.36
231.356	-5.62
231.733	-4.67
232.111	-7.38
232.488	-8.77
232.866	-6.94
233.243	-4.82
233.621	-5.17
233.998	-5.19
234.376	-6.98
234.753	-8.17
235.13	-7.01
235.508	-6.03
235.885	-7.05
236.262	-7.08
236.639	-6.82
237.016	-5.95
237.393	-3
237.77	-2.41
238.147	-1.8
238.524	-1.55
238.901	-0.5
239.278	-0.08
239.655	0.33
240.032	1.15
240.409	1.57
240.785	1.86
241.162	2.58
241.539	2.95
241.915	3.43
242.292	3.85
242.668	3.83
243.045	4.22
243.421	4.2
243.798	4.33
244.174	4.29
244.551	4.46
244.927	4.4
245.303	4.63
245.679	4.56
246.056	4.62
246.432	4.58
246.808	4.49
247.184	4.19
247.56	3.97
247.936	3.72
248.312	3.83
248.688	3.87
249.064	3.85
249.44	3.83
249.815	3.74
250.191	3.96
250.567	4.18
250.943	3.96
251.318	4.09
251.694	4.15
252.069	4.29
252.445	4.35
252.82	4.3
253.196	3.71
253.571	3.85
253.947	3.76
254.322	4.04
254.697	3.85
255.073	4.06
255.448	4.38
255.823	4.46
256.198	4.45
256.573	4.16
256.948	3.88
257.323	4.02
257.698	3.86
258.073	3.91
258.448	3.87
258.823	3.95
259.198	3.9
259.573	3.88
259.948	3.97
260.322	3.84
260.697	3.9
261.072	4.14
261.446	4
261.821	3.92
262.195	3.9
262.57	3.96
262.944	4.02
263.319	3.86
263.693	3.94
264.067	3.93
264.442	4.15
264.816	4.3
265.19	4.09
265.564	4.28
265.938	4.16
266.313	4.11
266.687	4.24
267.061	4.25
267.435	4.38
267.809	4.46
268.183	4.53
268.556	4.47
268.93	4.46
269.304	4.43
269.678	4.63
270.051	4.69
270.425	4.74
270.799	4.82
271.172	4.91
271.546	4.82
271.919	4.58
272.293	4.42
272.666	4.31
273.04	4.64
273.413	4.36
273.787	4.31
274.16	4.35
274.533	4.13
274.906	3.96
275.279	3.74
275.653	3.66
276.026	3.62
276.399	3.6
276.772	3.57
277.145	3.54
277.518	3.58
277.891	3.58
278.263	3.59
278.636	3.34
279.009	3.41
279.382	3.64
279.755	3.71
280.127	3.86
280.5	4.23
280.872	3.94
281.245	4.23
281.617	4.36
281.99	4.52
282.362	4.63
282.735	4.83
283.107	4.96
283.479	4.88
283.852	5.07
284.224	4.99
284.596	4.93
284.968	5.02
285.34	4.83
285.713	4.74
286.085	4.75
286.457	4.99
286.829	5.1
287.201	5.14
287.572	5.23
287.944	5.25
288.316	5
288.688	4.92
289.06	4.82
289.431	4.78
289.803	4.65
290.175	4.75
290.546	4.78
290.918	4.69
291.289	4.81
291.661	4.79
292.032	4.93
292.403	4.89
292.775	4.91
293.146	4.95
293.517	5
293.889	5.1
294.26	5.07
294.631	5
295.002	4.87
295.373	4.9
295.744	4.82
296.115	4.85
296.486	5.01
296.857	5.03
297.228	5.04
297.599	5.12
297.97	5.13
298.34	5.22
298.711	5.34
299.082	5.25
299.452	5.24
299.823	5.38
300.194	5.44
300.564	5.49
300.935	5.66
301.305	5.69
301.676	5.64
302.046	5.56
302.416	5.64
302.787	5.49
303.157	5.61
303.527	5.66
303.897	5.71
304.267	5.78
304.637	5.89
305.008	5.94
305.378	5.84
305.748	5.7
306.117	5.41
306.487	5.52
306.857	5.52
307.227	5.45
307.597	5.21
307.967	5.26
308.336	5.11
308.706	4.99
309.076	4.98
309.445	5.02
309.815	5.06
310.184	4.94
310.554	5.17
310.923	4.96
311.293	5.05
311.662	4.89
312.031	4.73
312.401	4.83
312.77	4.98
313.139	5.07
313.508	5.12
313.877	5.28
314.246	5.27
314.616	5.24
314.985	5.22
315.353	5.25
315.722	5.19
316.091	5.3
316.46	5.39
316.829	5.45
317.198	5.39
317.567	5.44
317.935	5.4
318.304	5.33
318.672	5.38
319.041	5.43
319.41	5.54
319.778	5.73
320.147	5.48
320.515	5.4
320.883	5.18
321.252	5.15
321.62	5.04
321.988	5
322.357	5.17
322.725	5.27
323.093	5.42
323.461	5.54
323.829	5.53
324.197	5.54
324.565	5.49
324.933	5.44
325.301	5.39
325.669	5.44
326.037	5.43
326.405	5.41
326.772	5.36
327.14	5.62
327.508	5.6
327.875	5.58
328.243	5.48
328.61	5.65
328.978	5.69
329.346	5.83
329.713	5.8
330.08	5.75
330.448	5.64
330.815	5.54
331.182	5.52
331.55	5.48
331.917	5.46
332.284	5.49
332.651	5.57
333.018	5.59
333.385	5.58
333.752	5.46
334.119	5.59
334.486	5.61
334.853	5.46
335.22	5.57
335.587	5.67
335.954	5.68
336.32	5.59
336.687	5.62
337.054	5.54
337.42	5.44
337.787	5.48
338.153	5.45
338.52	5.49
338.886	5.37
339.253	5.41
339.619	5.45
339.986	5.36
340.352	5.42
340.718	5.44
341.084	5.49
341.451	5.71
341.817	5.71
342.183	5.6
342.549	5.58
342.915	5.5
343.281	5.5
343.647	5.5
344.013	5.5
344.379	5.54
344.745	5.61
345.11	5.74
345.476	5.66
345.842	5.73
346.208	5.81
346.573	5.91
346.939	5.99
347.304	5.89
347.67	5.92
348.035	5.78
348.401	5.72
348.766	5.78
349.132	5.73
349.497	5.7
349.862	5.77
350.228	5.75
350.593	5.72
350.958	5.77
351.323	5.76
351.688	5.8
352.053	5.8
352.418	5.76
352.783	5.77
353.148	5.83
353.513	5.79
353.878	5.7
354.243	5.73
354.608	5.71
354.972	5.72
355.337	5.8
355.702	5.9
356.066	5.85
356.431	5.74
356.795	5.71
357.16	5.65
357.524	5.62
357.889	5.62
358.253	5.69
358.618	5.66
358.982	5.59
359.346	5.5
359.71	5.46
360.075	5.48
360.439	5.46
360.803	5.42
361.167	5.4
361.531	5.35
361.895	5.3
362.259	5.26
362.623	5.33
362.987	5.25
363.351	5.28
363.714	5.37
364.078	5.4
364.442	5.38
364.806	5.42
365.169	5.43
365.533	5.43
365.896	5.35
366.26	5.36
366.623	5.43
366.987	5.53
367.35	5.55
367.714	5.53
368.077	5.47
368.44	5.48
368.803	5.51
369.167	5.57
369.53	5.55
369.893	5.58
370.256	5.58
370.619	5.56
370.982	5.48
371.345	5.42
371.708	5.44
372.071	5.5
372.434	5.45
372.797	5.48
373.159	5.5
373.522	5.53
373.885	5.53
374.247	5.54
374.61	5.53
374.973	5.5
375.335	5.45
375.698	5.47
376.06	5.49
376.423	5.5
376.785	5.49
377.147	5.5
377.51	5.5
377.872	5.49
378.234	5.53
378.596	5.61
378.958	5.62
379.321	5.64
379.683	5.63
380.045	5.63
380.407	5.64
380.769	5.6
381.13	5.59
381.492	5.57
381.854	5.61
382.216	5.6
382.578	5.6
382.939	5.57
383.301	5.57
383.663	5.49
384.024	5.53
384.386	5.6
384.747	5.66
385.109	5.67
385.47	5.61
385.832	5.59
386.193	5.57
386.554	5.54
386.916	5.53
387.277	5.56
387.638	5.61
387.999	5.57
388.36	5.57
388.721	5.58
389.082	5.56
389.443	5.53
389.804	5.57
390.165	5.59
390.526	5.66
390.887	5.66
391.248	5.7
391.609	5.67
391.969	5.66
392.33	5.61
392.691	5.61
393.051	5.63
393.412	5.62
393.772	5.59
394.133	5.6
394.493	5.59
394.854	5.51
395.214	5.46
395.574	5.49
395.935	5.48
396.295	5.5
396.655	5.48
397.015	5.49
397.376	5.47
397.736	5.44
398.096	5.39
398.456	5.42
398.816	5.45
399.176	5.46
399.535	5.44
399.895	5.38
400.255	5.33
400.615	5.34
400.975	5.37
401.334	5.32
401.694	5.33
402.054	5.33
402.413	5.33
402.773	5.33
403.132	5.31
403.492	5.34
403.851	5.3
404.211	5.34
404.57	5.29
404.929	5.29
405.288	5.29
405.648	5.3
406.007	5.32
406.366	5.29
406.725	5.29
407.084	5.29
407.443	5.32
407.802	5.34
408.161	5.31
408.52	5.27
408.879	5.3
409.238	5.29
409.596	5.28
409.955	5.32
410.314	5.34
410.673	5.35
411.031	5.33
411.39	5.36
411.748	5.32
412.107	5.35
412.465	5.34
412.824	5.34
413.182	5.31
413.54	5.3
413.899	5.31
414.257	5.35
414.615	5.34
414.974	5.35
415.332	5.36
415.69	5.39
416.048	5.42
416.406	5.43
416.764	5.43
417.122	5.43
417.48	5.4
417.838	5.39
418.195	5.37
418.553	5.38
418.911	5.38
419.269	5.38
419.626	5.37
419.984	5.36
420.342	5.37
420.699	5.35
421.057	5.34
421.414	5.33
421.772	5.31
422.129	5.3
422.486	5.3
422.844	5.3
423.201	5.27
423.558	5.27
423.915	5.25
424.273	5.24
424.63	5.24
424.987	5.26
425.344	5.25
425.701	5.26
426.058	5.25
426.415	5.23
426.772	5.24
427.128	5.25
427.485	5.24
427.842	5.22
428.199	5.23
428.555	5.23
428.912	5.23
429.269	5.22
429.625	5.21
429.982	5.2
430.338	5.19
430.695	5.21
431.051	5.19
431.407	5.18
431.764	5.18
432.12	5.15
432.476	5.13
432.832	5.15
433.189	5.16
433.545	5.16
433.901	5.15
434.257	5.15
434.613	5.15
434.969	5.18
435.325	5.2
435.681	5.23
436.036	5.25
436.392	5.23
436.748	5.23
437.104	5.24
437.459	5.25
437.815	5.27
438.171	5.29
438.526	5.28
438.882	5.3
439.237	5.33
439.593	5.34
439.948	5.35
440.304	5.36
440.659	5.35
441.014	5.35
441.369	5.34
441.725	5.32
442.08	5.32
442.435	5.31
442.79	5.29
443.145	5.29
443.5	5.28
443.855	5.28
444.21	5.28
444.565	5.28
444.92	5.28
445.275	5.26
445.629	5.26
445.984	5.27
446.339	5.26
446.693	5.24
447.048	5.22
447.403	5.22
447.757	5.18
448.112	5.17
448.466	5.16
448.82	5.18
449.175	5.19
449.529	5.19
449.883	5.17
450.238	5.17
450.592	5.16
450.946	5.13
451.3	5.12
451.654	5.11
452.008	5.09
452.362	5.07
452.716	5.07
453.07	5.07
453.424	5.05
453.778	5.05
454.132	5.04
454.486	5.07
454.839	5.04
455.193	5.07
455.547	5.06
455.9	5.06
456.254	5.06
456.607	5.07
456.961	5.07
457.314	5.08
457.668	5.09
458.021	5.1
458.375	5.12
458.728	5.13
459.081	5.14
459.434	5.15
459.787	5.16
460.141	5.16
460.494	5.14
460.847	5.15
461.2	5.15
461.553	5.16
461.906	5.14
462.259	5.14
462.611	5.15
462.964	5.16
463.317	5.18
463.67	5.19
464.022	5.17
464.375	5.17
464.728	5.17
465.08	5.18
465.433	5.18
465.785	5.19
466.138	5.19
466.49	5.2
466.843	5.2
467.195	5.2
467.547	5.21
467.899	5.23
468.252	5.25
468.604	5.27
468.956	5.25
469.308	5.28
469.66	5.28
470.012	5.29
470.364	5.3
470.716	5.28
471.068	5.27
471.42	5.28
471.772	5.3
472.123	5.3
472.475	5.28
472.827	5.28
473.178	5.28
473.53	5.24
473.882	5.23
474.233	5.23
474.585	5.24
474.936	5.24
475.288	5.24
475.639	5.21
475.99	5.2
476.342	5.21
476.693	5.19
477.044	5.22
477.395	5.21
477.746	5.18
478.097	5.2
478.448	5.21
478.8	5.21
479.15	5.18
479.501	5.18
479.852	5.18
480.203	5.18
480.554	5.19
480.905	5.22
481.255	5.23
481.606	5.25
481.957	5.28
482.307	5.29
482.658	5.29
483.009	5.31
483.359	5.31
483.709	5.31
484.06	5.32
484.41	5.33
484.761	5.33
485.111	5.35
485.461	5.35
485.811	5.36
486.162	5.35
486.512	5.37
486.862	5.37
487.212	5.38
487.562	5.39
487.912	5.4
488.262	5.4
488.612	5.4
488.961	5.4
489.311	5.39
489.661	5.39
490.011	5.39
490.36	5.38
490.71	5.4
491.06	5.41
491.409	5.41
491.759	5.39
492.108	5.38
492.458	5.37
492.807	5.37
493.157	5.36
493.506	5.38
493.855	5.38
494.204	5.39
494.554	5.39
494.903	5.38
495.252	5.37
495.601	5.38
495.95	5.38
496.299	5.37
496.648	5.36
496.997	5.36
497.346	5.38
497.695	5.38
498.043	5.39
498.392	5.38
498.741	5.37
499.09	5.4
499.438	5.43
499.787	5.45
500.135	5.46
500.484	5.49
500.832	5.48
501.181	5.48
501.529	5.5
501.878	5.52
502.226	5.56
502.574	5.56
502.923	5.56
503.271	5.55
503.619	5.59
503.967	5.6
504.315	5.6
504.663	5.59
505.011	5.61
505.359	5.6
505.707	5.64
506.055	5.68
506.403	5.68
506.751	5.69
507.098	5.7
507.446	5.71
507.794	5.7
508.141	5.72
508.489	5.72
508.837	5.72
509.184	5.72
509.531	5.73
509.879	5.75
510.226	5.77
510.574	5.78
510.921	5.77
511.268	5.77
511.616	5.77
511.963	5.79
512.31	5.78
512.657	5.8
513.004	5.79
513.351	5.78
513.698	5.79
514.045	5.78
514.392	5.8
514.739	5.8
515.086	5.83
515.432	5.84
515.779	5.85
516.126	5.87
516.473	5.9
516.819	5.91
517.166	5.91
517.512	5.91
517.859	5.93
518.205	5.93
518.552	5.94
518.898	5.95
519.245	5.95
519.591	5.95
519.937	5.93
520.283	5.93
520.629	5.95
520.976	5.97
521.322	5.98
521.668	5.96
522.014	5.99
522.36	5.98
522.706	5.99
523.052	6
523.398	6.01
523.743	6.01
524.089	6.04
524.435	6.03
524.781	6.03
525.126	6.03
525.472	6.05
525.817	6.06
526.163	6.06
526.509	6.07
526.854	6.08
527.199	6.1
527.545	6.1
527.89	6.12
528.235	6.12
528.581	6.14
528.926	6.15
529.271	6.15
529.616	6.15
529.961	6.15
530.306	6.16
530.651	6.16
530.996	6.15
531.341	6.14
531.686	6.15
532.031	6.16
532.376	6.18
532.721	6.19
533.065	6.19
533.41	6.21
533.755	6.2
534.099	6.21
534.444	6.22
534.788	6.24
535.133	6.21
535.477	6.21
535.822	6.19
536.166	6.19
536.51	6.19
536.855	6.21
537.199	6.22
537.543	6.21
537.887	6.21
538.231	6.21
538.576	6.23
538.92	6.22
539.264	6.24
539.608	6.23
539.951	6.22
540.295	6.22
540.639	6.2
540.983	6.22
541.327	6.23
541.671	6.23
542.014	6.23
542.358	6.24
542.701	6.25
543.045	6.26
543.389	6.26
543.732	6.26
544.075	6.24
544.419	6.25
544.762	6.26
545.105	6.25
545.449	6.26
545.792	6.25
546.135	6.27
546.478	6.25
546.821	6.25
547.165	6.25
547.508	6.26
547.851	6.27
548.194	6.26
548.536	6.24
548.879	6.26
549.222	6.22
549.565	6.23
549.908	6.23
550.25	6.23
550.593	6.24
550.936	6.23
551.278	6.23
551.621	6.22
551.963	6.22
552.306	6.22
552.648	6.22
552.991	6.25
553.333	6.22
553.675	6.24
554.017	6.27
554.36	6.27
554.702	6.29
555.044	6.29
555.386	6.27
555.728	6.28
556.07	6.29
556.412	6.32
556.754	6.31
557.096	6.32
557.438	6.33
557.78	6.32
558.121	6.35
558.463	6.38
558.805	6.41
559.147	6.43
559.488	6.41
559.83	6.43
560.171	6.39
560.513	6.41
560.854	6.4
561.196	6.37
561.537	6.43
561.878	6.42
562.22	6.44
562.561	6.44
562.902	6.45
563.243	6.44
563.584	6.44
563.925	6.43
564.266	6.41
564.607	6.42
564.948	6.44
565.289	6.43
565.63	6.42
565.971	6.4
566.312	6.4
566.653	6.43
566.993	6.42
567.334	6.44
567.675	6.44
568.015	6.46
568.356	6.43
568.696	6.43
569.037	6.44
569.377	6.42
569.718	6.45
570.058	6.47
570.398	6.46
570.739	6.48
571.079	6.51
571.419	6.53
571.759	6.53
572.099	6.51
572.439	6.5
572.779	6.51
573.119	6.51
573.459	6.52
573.799	6.5
574.139	6.51
574.479	6.5
574.819	6.5
575.158	6.51
575.498	6.55
575.838	6.48
576.177	6.5
576.517	6.5
576.856	6.51
577.196	6.48
577.535	6.44
577.875	6.44
578.214	6.44
578.553	6.49
578.893	6.48
579.232	6.46
579.571	6.49
579.91	6.46
580.25	6.48
580.589	6.47
580.928	6.49
581.267	6.5
581.606	6.49
581.945	6.45
582.283	6.4
582.622	6.36
582.961	6.4
583.3	6.38
583.639	6.45
583.977	6.42
584.316	6.43
584.654	6.48
584.993	6.46
585.332	6.45
585.67	6.38
586.008	6.41
586.347	6.43
586.685	6.42
587.024	6.4
587.362	6.4
587.7	6.42
588.038	6.41
588.376	6.42
588.715	6.41
589.053	6.47
589.391	6.52
589.729	6.54
590.067	6.54
590.404	6.53
590.742	6.5
591.08	6.5
591.418	6.53
591.756	6.52
592.093	6.54
592.431	6.54
592.769	6.57
593.106	6.54
593.444	6.53
593.781	6.51
594.119	6.53
594.456	6.52
594.793	6.5
595.131	6.52
595.468	6.52
595.805	6.56
596.143	6.55
596.48	6.54
596.817	6.52
597.154	6.53
597.491	6.53
597.828	6.55
598.165	6.56
598.502	6.52
598.839	6.49
599.176	6.48
599.512	6.47
599.849	6.46
600.186	6.5
600.523	6.54
600.859	6.58
601.196	6.61
601.532	6.61
601.869	6.56
602.205	6.55
602.542	6.57
602.878	6.56
603.215	6.56
603.551	6.62
603.887	6.66
604.223	6.65
604.56	6.69
604.896	6.69
605.232	6.68
605.568	6.7
605.904	6.76
606.24	6.78
606.576	6.8
606.912	6.78
607.248	6.76
607.583	6.75
607.919	6.74
608.255	6.73
608.591	6.78
608.926	6.84
609.262	6.87
609.597	6.84
609.933	6.83
610.268	6.83
610.604	6.8
610.939	6.79
611.275	6.83
611.61	6.79
611.945	6.79
612.281	6.77
612.616	6.77
612.951	6.75
613.286	6.73
613.621	6.69
613.956	6.72
614.291	6.76
614.626	6.76
614.961	6.79
615.296	6.77
615.631	6.74
615.966	6.74
616.3	6.74
616.635	6.79
616.97	6.79
617.304	6.78
617.639	6.72
617.973	6.7
618.308	6.71
618.642	6.74
618.977	6.71
619.311	6.72
619.646	6.71
619.98	6.71
620.314	6.76
620.648	6.78
620.983	6.73
621.317	6.68
621.651	6.71
621.985	6.71
622.319	6.71
622.653	6.69
622.987	6.7
623.321	6.67
623.655	6.68
623.988	6.73
624.322	6.72
624.656	6.79
624.99	6.83
625.323	6.81
625.657	6.78
625.99	6.86
626.324	6.85
626.657	6.85
626.991	6.86
627.324	6.86
627.658	6.9
627.991	6.96
628.324	7
628.657	6.96
628.991	6.97
629.324	6.96
629.657	6.99
629.99	7.05
630.323	7.04
630.656	7.06
630.989	7.08
631.322	7.12
631.655	7.05
631.987	7
632.32	6.96
632.653	6.99
632.986	6.94
633.318	6.98
633.651	7.01
633.984	7.01
634.316	6.97
634.649	6.95
634.981	6.96
635.313	6.93
635.646	6.98
635.978	6.96
636.31	6.98
636.643	6.96
636.975	6.92
637.307	6.93
637.639	6.84
637.971	6.84
638.303	6.81
638.635	6.91
638.967	6.89
639.299	6.96
639.631	6.93
639.963	6.9
640.295	6.87
640.626	6.84
640.958	6.9
641.29	6.92
641.621	6.88
641.953	6.82
642.285	6.86
642.616	6.87
642.948	6.85
643.279	6.83
643.61	6.76
643.942	6.78
644.273	6.74
644.604	6.76
644.936	6.65
645.267	6.59
645.598	6.53
645.929	6.61
646.26	6.58
646.591	6.59
646.922	6.61
647.253	6.61
647.584	6.61
647.915	6.48
648.245	6.48
648.576	6.51
648.907	6.56
649.238	6.51
649.568	6.49
649.899	6.48
650.229	6.57
650.56	6.65
650.89	6.68
651.221	6.73
651.551	6.7
651.882	6.82
652.212	6.92
652.542	6.86
652.872	6.81
653.203	6.78
653.533	6.78
653.863	6.82
654.193	6.87
654.523	6.88
654.853	6.95
655.183	6.99
655.513	6.97
655.843	6.97
656.172	6.96
656.502	6.97
656.832	7.01
657.162	6.98
657.491	6.91
657.821	6.84
658.15	6.9
658.48	6.98
658.809	6.89
659.139	6.88
659.468	6.94
659.798	6.92
660.127	6.97
660.456	7.03
660.785	7
661.115	7.01
661.444	7.01
661.773	7.06
662.102	7.01
662.431	6.99
662.76	6.98
663.089	7.03
663.418	6.96
663.747	6.94
664.076	6.92
664.404	7
664.733	7.07
665.062	7.05
665.39	7
665.719	7.1
666.048	7.07
666.376	7.08
666.705	7.15
667.033	7.14
667.362	7.18
667.69	7.17
668.018	7.25
668.347	7.26
668.675	7.19
669.003	7.2
669.331	7.39
669.659	7.42
669.987	7.36
670.315	7.46
670.643	7.54
670.971	7.54
671.299	7.52
671.627	7.54
671.955	7.54
672.283	7.58
672.61	7.52
672.938	7.56
673.266	7.53
673.593	7.61
673.921	7.55
674.249	7.44
674.576	7.49
674.904	7.37
675.231	7.33
675.558	7.35
675.886	7.46
676.213	7.31
676.54	7.28
676.867	7.37
677.195	7.33
677.522	7.26
677.849	7.31
678.176	7.28
678.503	7.21
678.83	7.19
679.157	7.16
679.484	7.15
679.81	7.16
680.137	7.16
680.464	7.06
680.791	7.15
681.117	7.13
681.444	7.09
681.771	7.15
682.097	7.21
682.424	7.22
682.75	7.13
683.077	7.15
683.403	7.19
683.729	7.14
684.056	7.13
684.382	7.21
684.708	7.1
685.034	7.16
685.36	7.19
685.686	7.15
686.012	7.07
686.339	7.16
686.664	7.04
686.99	7.14
687.316	7.1
687.642	7.05
687.968	7.08
688.294	7.19
688.619	7.16
688.945	7.09
689.271	7
689.596	7.01
689.922	7.05
690.247	6.92
690.573	7.02
690.898	7.13
691.224	7.03
691.549	7.13
691.874	7.12
692.2	7.17
692.525	7.15
692.85	7.33
693.175	7.32
693.5	7.41
693.825	7.27
694.15	7.28
694.475	7.3
694.8	7.38
695.125	7.3
695.45	7.27
695.775	7.34
696.099	7.47
696.424	7.46
696.749	7.39
697.073	7.48
697.398	7.37
697.723	7.24
698.047	7.24
698.372	7.26
698.696	7.31
699.02	7.27
699.345	7.3
699.669	7.27
699.993	7.23
700.318	7.17
700.642	7.31
700.966	7.42
701.29	7.39
701.614	7.43
701.938	7.45
702.262	7.59
702.586	7.48
702.91	7.42
703.234	7.53
703.557	7.58
703.881	7.64
704.205	7.71
704.529	7.78
704.852	7.95
705.176	7.95
705.499	7.95
705.823	7.97
706.146	7.97
706.47	7.99
706.793	8
707.117	8.14
707.44	7.95
707.763	7.86
708.086	7.88
708.409	7.79
708.733	7.81
709.056	7.65
709.379	7.74
709.702	7.91
710.025	7.9
710.348	7.88
710.671	7.76
710.993	7.84
711.316	7.87
711.639	7.75
711.962	7.74
712.284	7.69
712.607	7.76
712.93	7.8
713.252	7.79
713.575	7.92
713.897	7.91
714.22	8.07
714.542	8.15
714.864	8.1
715.187	8.01
715.509	8.03
715.831	8.11
716.153	8.06
716.475	7.9
716.798	7.85
717.12	7.89
717.442	7.86
717.764	7.64
718.085	7.66
718.407	7.56
718.729	7.66
719.051	7.72
719.373	7.58
719.695	7.7
720.016	7.64
720.338	7.58
720.659	7.64
720.981	7.47
721.302	7.44
721.624	7.39
721.945	7.49
722.267	7.37
722.588	7.29
722.909	7.38
723.231	7.3
723.552	7.36
723.873	7.53
724.194	7.6
724.515	7.88
724.836	7.92
725.157	8.08
725.478	7.96
725.799	7.91
726.12	7.92
726.441	7.88
726.762	7.92
727.083	7.98
727.403	7.69
727.724	7.75
728.045	7.74
728.365	7.89
728.686	7.84
729.006	7.92
729.327	7.94
729.647	7.96
729.967	8.06
730.288	7.98
730.608	7.67
730.928	7.72
731.249	7.47
731.569	7.59
731.889	7.53
732.209	7.52
732.529	7.72
732.849	7.72
733.169	7.69
733.489	7.72
733.809	7.42
734.129	7.57
734.448	7.63
734.768	7.48
735.088	7.41
735.408	7.54
735.727	7.54
736.047	7.75
736.366	7.87
736.686	7.89
737.005	7.88
737.325	8
737.644	8.01
737.963	8.2
738.283	7.87
738.602	7.95
738.921	7.82
739.24	7.7
739.56	7.83
739.879	7.83
740.198	7.93
740.517	8.11
740.836	8.21
741.155	8.18
741.473	8.44
741.792	8.43
742.111	8.21
742.43	8.19
742.748	7.86
743.067	7.83
743.386	7.89
743.704	7.81
744.023	7.77
744.341	7.58
744.66	7.89
744.978	8
745.297	7.91
745.615	7.99
745.933	7.87
746.252	7.89
746.57	7.92
746.888	7.55
747.206	7.52
747.524	7.24
747.842	7.39
748.16	7.46
748.478	7.73
748.796	7.79
749.114	8.05
749.432	8.01
749.749	7.98
750.067	8.06
750.385	8.27
750.703	8.49
751.02	8.69
751.338	8.3
751.655	8.24
751.973	8.41
752.29	8.41
752.608	8.52
752.925	8.27
753.242	8.2
753.56	8.44
753.877	8.6
754.194	8.9
754.511	9.03
754.828	8.73
755.145	8.41
755.462	8.55
755.779	8.42
756.096	8.75
756.413	8.53
756.73	8.48
757.047	8.27
757.364	8.29
757.68	8.52
757.997	8.67
758.314	8.83
758.63	8.74
758.947	8.94
759.264	8.91
759.58	9.19
759.896	9.17
760.213	9.35
760.529	9.34
760.846	9.24
761.162	8.85
761.478	9.01
761.794	8.97
762.11	9.03
762.426	8.94
762.743	8.74
763.059	8.78
763.375	8.64
763.69	8.74
764.006	8.74
764.322	8.67
764.638	8.65
764.954	8.74
765.27	8.62
765.585	8.46
765.901	8.47
766.216	8.37
766.532	8.26
766.848	8.13
767.163	8.1
767.478	8.34
767.794	8.54
768.109	8.7
768.424	8.81
768.74	8.82
769.055	8.85
769.37	9.02
769.685	8.97
770	9.28
770.315	9.51
770.63	9.44
770.945	9.41
771.26	9.44
771.575	9.38
771.89	9.65
772.205	9.73
772.52	9.59
772.834	9.68
773.149	9.97
773.464	9.78
773.778	9.81
774.093	9.49
774.407	9.67
774.722	9.16
775.036	9.2
775.351	9.05
775.665	9.03
775.979	9.02
776.293	9.22
776.608	8.93
776.922	8.64
777.236	8.77
777.55	8.91
777.864	8.5
778.178	8.72
778.492	8.78
778.806	8.82
779.12	9.22
779.434	9.15
779.747	9.23
780.061	9.24
780.375	9.26
780.689	9.5
781.002	9.6
781.316	9.71
781.629	10.41
781.943	10.65
782.256	10.64
782.57	10.53
782.883	10.5
783.196	10.56
783.51	10.13
783.823	10.02
784.136	9.42
784.449	9.71
784.762	9.23
785.075	9.08
785.388	8.77
785.701	8.76
786.014	9.09
786.327	9.02
786.64	9.61
786.953	9.76
787.266	9.34
787.578	8.97
787.891	9.19
788.204	8.6
788.516	8.2
788.829	8.44
789.141	8.89
789.454	9.08
789.766	9.58
790.079	9.97
790.391	10.17
790.703	11.06
791.016	11.16
791.328	11.91
791.64	11.86
791.952	12.72
792.264	11.9
792.576	11.5
792.888	11.81
793.2	11.13
793.512	10.93
793.824	10.73
794.136	10.66
794.448	10.64
794.76	10.57
795.071	10.89
795.383	10.33
795.695	9.57
796.006	9.12
796.318	8.55
796.629	8.68
796.941	8.56
797.252	8.43
797.564	8.47
797.875	7.72
798.186	7.6
798.497	6.86
798.809	7.31
799.12	7.4
799.431	7.27
799.742	7.81
800.053	8.05
800.364	8.54
800.675	8.71
800.986	8.52
801.297	8.4
801.608	8.56
801.918	8.79
802.229	8.97
802.54	8.74
802.851	9.25
803.161	9.62
803.472	9.65
803.782	9.37
804.093	9.77
804.403	10.26
804.714	9.9
805.024	9.73
805.334	10.16
805.645	10.52
805.955	10.12
806.265	10.25
806.575	9.96
806.885	9.76
807.195	10.02
807.505	10.47
807.815	10.56
808.125	10.38
808.435	9.94
808.745	9.79
809.055	10.99
809.365	10.32
809.674	9.83
809.984	9.71
810.294	9.33
810.603	9.05
810.913	9.04
811.222	9.84
811.532	10.51
811.841	10.27
812.151	10.65
812.46	10.87
812.769	10.15
813.079	10.25
813.388	10.03
813.697	9.53
814.006	9.04
814.315	9.29
814.624	9.41
814.933	9.89
815.242	10.29
815.551	9.89
815.86	10.26
816.169	10.36
816.478	10.32
816.786	10.42
817.095	10.56
817.404	11.1
817.712	10.46
818.021	9.98
818.33	9.93
818.638	9.36
818.947	9.55
819.255	10.1
819.563	10.25
819.872	10.47
820.18	10.68
820.488	10.45
820.796	10.53
821.105	10.6
821.413	10.88
821.721	10.96
822.029	10.8
822.337	10.8
822.645	10.87
822.953	10.82
823.26	10.77
823.568	10.69
823.876	10.63
824.184	10.58
824.491	10.59
824.799	10.61
825.107	10.68
825.414	10.67
825.722	10.68
826.029	10.79
826.337	10.96
826.644	10.98
826.951	10.95
827.259	10.88
827.566	10.74
827.873	10.54
828.18	10.19
828.488	10.41
828.795	10.46
829.102	10.04
829.409	10.16
829.716	10.14
830.023	9.98
830.329	9.8
830.636	10.23
830.943	10.13
831.25	10.19
831.557	10.39
831.863	10.48
832.17	10.33
832.476	9.95
832.783	9.89
833.089	9.73
833.396	10.63
833.702	10.78
834.009	10.79
834.315	10.83
834.621	11.28
834.928	10.94
835.234	10.75
835.54	10.98
835.846	11.12
836.152	11.08
836.458	11.55
836.764	11.21
837.07	10.91
837.376	11.25
837.682	11.41
837.988	10.76
838.293	10.54
838.599	9.98
838.905	10.05
839.211	9.5
839.516	9.94
839.822	9.34
840.127	8.87
840.433	9.09
840.738	9.01
841.044	9.02
841.349	8.89
841.654	8.6
841.959	8.93
842.265	8.49
842.57	9.53
842.875	8.58
843.18	9.5
843.485	9.56
843.79	9.73
844.095	8.84
844.4	8.81
844.705	7.86
845.01	8.09
845.315	7.59
845.619	6.34
845.924	5.27
846.229	5.45
846.533	5.53
846.838	3.81
847.142	2.15
847.447	1.14
847.751	0.05
848.056	-0.08
848.36	0.62
848.664	0.38
848.969	-0.45
849.273	-1.48
849.577	-1.7
849.881	-1.09
850.185	-0.35
850.489	0.26
850.794	0.71
851.097	2.68
851.401	3.28
851.705	2.49
852.009	4.5
852.313	4.56
852.617	4.7
852.92	6.28
853.224	8.69
853.528	11.89
853.831	11.72
854.135	14.14
854.438	13.48
854.742	12.12
855.045	11.85
855.349	13.49
855.652	15.36
855.955	15.26
856.259	13.67
856.562	11.13
856.865	10.31
857.168	11.25
857.471	9.4
857.774	8.93
858.077	9.57
858.38	10.1
858.683	9.47
858.986	8.77
859.289	8.07
859.592	6.32
859.894	4.63
860.197	6.44
860.5	4.97
860.802	4.96
861.105	5.46
861.407	4.52
861.71	2.85
862.012	0.61
862.315	0.77
862.617	0.69
862.919	2.17
863.222	2.34
863.524	1.67
863.826	3.46
864.128	4.65
864.43	5.01
864.732	5.45
865.034	7.52
865.336	6.58
865.638	6.47
865.94	6.22
866.242	6.28
866.544	6.56
866.846	8.58
867.147	9.8
867.449	9.49
867.751	10.37
868.052	11.87
868.354	14.53
868.655	14.61
868.957	14.77
869.258	14.03
869.56	14.85
869.861	12.97
870.162	12.41
870.463	13.13
870.765	14.2
871.066	12.79
871.367	10.16
871.668	11.18
871.969	10.61
872.27	10.81
872.571	12.46
872.872	13.31
873.173	11.09
873.473	10.89
873.774	9.1
874.075	8.39
874.376	4.8
874.676	3.62
874.977	1.49
875.277	3.4
875.578	4.13
875.878	3.24
876.179	5.13
876.479	4.68
876.78	2.73
877.08	1.7
877.38	1.41
877.68	2.27
877.981	1.85
878.281	0.72
878.581	2.3
