Data from BU58131_Reflection_00004.txt Node
Date: Mon Nov 18 16:32:06 EST 2019
User: vgr7
Spectrometer: USB2G7710
Scans to average: 3
Trigger mode: 4
Integration Time (sec): 2.000000E-2
Electric dark correction enabled: true
Boxcar width: 10
XAxis mode: Wavelengths
Number of Pixels in Spectrum: 2048
>>>>>Begin Spectral Data<<<<<
177.721	738.98
178.105	443.28
178.488	154.86
178.871	24.11
179.254	28.11
179.636	-176.79
180.019	243.65
180.402	200
180.785	-31.42
181.168	125.91
181.55	62.17
181.933	67.78
182.316	66.44
182.698	60.11
183.081	70.09
183.463	72.86
183.846	50.12
184.228	63.7
184.611	90.89
184.993	168.39
185.376	123.08
185.758	68.24
186.14	113.1
186.522	192.84
186.904	161.09
187.287	166.7
187.669	242.03
188.051	299.46
188.433	477.13
188.815	440.22
189.197	1198.71
189.579	-334.68
189.961	-159.37
190.342	-175.86
190.724	-154.04
191.106	-171.84
191.488	-101.11
191.869	-85.45
192.251	-138.73
192.633	-117.92
193.014	-157.89
193.396	-134.01
193.777	-125.01
194.159	-126.94
194.54	-143.58
194.922	-141.5
195.303	-90.82
195.684	-141.85
196.065	-80.15
196.447	-79.68
196.828	-118.94
197.209	-88.2
197.59	-80.87
197.971	-105.03
198.352	-68.41
198.733	-80.36
199.114	-82.18
199.495	-109.38
199.876	-79.99
200.257	-45.99
200.638	-38.85
201.018	-54.29
201.399	-46.36
201.78	-42.73
202.16	-77.48
202.541	-85.95
202.922	-101.09
203.302	-165.86
203.683	-148.68
204.063	-179.38
204.444	-254.48
204.824	-306.8
205.204	-292.57
205.585	-444.62
205.965	-248.13
206.345	-405.49
206.725	-1121.05
207.106	-1579.08
207.486	-6312.37
207.866	1367.67
208.246	28447.83
208.626	2702.51
209.006	-2072.31
209.386	1919.18
209.766	2366.21
210.145	-1789.2
210.525	-405.95
210.905	-409.93
211.285	-394.2
211.664	-396.07
212.044	-338.04
212.424	-237.59
212.803	-206.27
213.183	-221.19
213.562	-162.2
213.942	-188.38
214.321	-148.48
214.701	-108.92
215.08	-124.76
215.459	-123.94
215.838	-102.24
216.218	-104.95
216.597	-98.92
216.976	-85.89
217.355	-75.66
217.734	-67.1
218.113	-65.74
218.492	-84.79
218.871	-78.3
219.25	-66.87
219.629	-66.62
220.008	-75.26
220.387	-92.28
220.766	-69.36
221.144	-62.61
221.523	-66.63
221.902	-68.64
222.28	-83.77
222.659	-74.94
223.037	-61.01
223.416	-64.27
223.794	-60.52
224.173	-58.19
224.551	-59.82
224.929	-48.7
225.308	-31.14
225.686	-28.13
226.064	-31.42
226.442	-26.83
226.821	-19.41
227.199	-18.58
227.577	-15.1
227.955	-9.59
228.333	-6.51
228.711	-3.82
229.089	-3.37
229.467	-7.01
229.845	-3.18
230.222	-0.43
230.6	-3.1
230.978	-5.49
231.356	-2.66
231.733	-4.37
232.111	-3.68
232.488	-3.23
232.866	-5.57
233.243	-5.93
233.621	-7.41
233.998	-4.29
234.376	-5.57
234.753	-5.59
235.13	-4.71
235.508	-3.99
235.885	-5.18
236.262	-6.15
236.639	-7.89
237.016	-7.61
237.393	-5.2
237.77	-4.38
238.147	-2.91
238.524	-2.5
238.901	-0.58
239.278	0.35
239.655	1.36
240.032	1.7
240.409	1.57
240.785	2.48
241.162	2.78
241.539	3.02
241.915	2.85
242.292	3.12
242.668	2.97
243.045	2.97
243.421	2.65
243.798	3.01
244.174	3.17
244.551	3.27
244.927	3.35
245.303	3.77
245.679	3.71
246.056	3.34
246.432	3.41
246.808	3.32
247.184	3.02
247.56	2.96
247.936	2.96
248.312	3.18
248.688	3.16
249.064	3.16
249.44	3.27
249.815	3.25
250.191	3.26
250.567	3.42
250.943	3.49
251.318	3.68
251.694	3.67
252.069	3.73
252.445	4.12
252.82	4.08
253.196	3.9
253.571	3.65
253.947	3.93
254.322	4.27
254.697	4.38
255.073	4.48
255.448	4.64
255.823	4.55
256.198	4.51
256.573	4.31
256.948	4.23
257.323	4.35
257.698	4.53
258.073	4.46
258.448	4.23
258.823	4.26
259.198	4.12
259.573	3.93
259.948	3.85
260.322	3.71
260.697	3.86
261.072	3.75
261.446	3.9
261.821	3.83
262.195	3.84
262.57	3.8
262.944	3.88
263.319	3.86
263.693	3.88
264.067	3.97
264.442	4.25
264.816	4.34
265.19	4.2
265.564	4.16
265.938	4.21
266.313	4.27
266.687	4.27
267.061	4.52
267.435	4.57
267.809	4.5
268.183	4.63
268.556	4.73
268.93	4.73
269.304	4.89
269.678	5.06
270.051	4.97
270.425	4.98
270.799	4.88
271.172	4.97
271.546	4.98
271.919	4.77
272.293	4.64
272.666	4.69
273.04	4.75
273.413	4.62
273.787	4.58
274.16	4.46
274.533	4.2
274.906	4.07
275.279	4.28
275.653	4.36
276.026	4.26
276.399	4.19
276.772	4.32
277.145	4.09
277.518	4.06
277.891	4.15
278.263	3.95
278.636	3.98
279.009	3.76
279.382	3.82
279.755	3.87
280.127	4.04
280.5	3.97
280.872	4.03
281.245	4.16
281.617	4.3
281.99	4.37
282.362	4.58
282.735	4.54
283.107	4.48
283.479	4.54
283.852	4.52
284.224	4.32
284.596	4.19
284.968	4.3
285.34	4.2
285.713	4.05
286.085	4.2
286.457	4.23
286.829	4.45
287.201	4.4
287.572	4.36
287.944	4.31
288.316	4.35
288.688	4.24
289.06	4.21
289.431	4.17
289.803	4.32
290.175	4.38
290.546	4.5
290.918	4.52
291.289	4.51
291.661	4.65
292.032	4.86
292.403	5
292.775	4.97
293.146	5
293.517	4.93
293.889	5.03
294.26	5.06
294.631	5.04
295.002	5.13
295.373	5.27
295.744	5.26
296.115	5.24
296.486	5.33
296.857	5.3
297.228	5.35
297.599	5.24
297.97	5.15
298.34	5.25
298.711	5.29
299.082	5.35
299.452	5.28
299.823	5.32
300.194	5.34
300.564	5.32
300.935	5.38
301.305	5.52
301.676	5.49
302.046	5.48
302.416	5.54
302.787	5.54
303.157	5.64
303.527	5.73
303.897	5.87
304.267	5.98
304.637	6.08
305.008	6.04
305.378	6.29
305.748	6.39
306.117	6.38
306.487	6.44
306.857	6.38
307.227	6.52
307.597	6.51
307.967	6.47
308.336	6.45
308.706	6.56
309.076	6.56
309.445	6.55
309.815	6.69
310.184	6.63
310.554	6.69
310.923	6.72
311.293	6.5
311.662	6.4
312.031	6.28
312.401	6.38
312.77	6.58
313.139	6.47
313.508	6.5
313.877	6.43
314.246	6.37
314.616	6.41
314.985	6.45
315.353	6.43
315.722	6.44
316.091	6.51
316.46	6.3
316.829	6.35
317.198	6.32
317.567	6.22
317.935	6.01
318.304	5.9
318.672	5.79
319.041	5.99
319.41	6.06
319.778	6.13
320.147	6.02
320.515	5.91
320.883	5.96
321.252	6.02
321.62	6.12
321.988	6.11
322.357	6.07
322.725	6.04
323.093	6.1
323.461	6.13
323.829	6.11
324.197	6.29
324.565	6.24
324.933	6.35
325.301	6.4
325.669	6.58
326.037	6.56
326.405	6.5
326.772	6.56
327.14	6.58
327.508	6.66
327.875	6.56
328.243	6.55
328.61	6.62
328.978	6.69
329.346	6.64
329.713	6.49
330.08	6.59
330.448	6.52
330.815	6.37
331.182	6.41
331.55	6.36
331.917	6.37
332.284	6.45
332.651	6.47
333.018	6.42
333.385	6.43
333.752	6.56
334.119	6.67
334.486	6.64
334.853	6.68
335.22	6.53
335.587	6.72
335.954	6.67
336.32	6.57
336.687	6.58
337.054	6.47
337.42	6.63
337.787	6.59
338.153	6.63
338.52	6.75
338.886	6.76
339.253	6.8
339.619	6.74
339.986	6.75
340.352	6.7
340.718	6.64
341.084	6.59
341.451	6.52
341.817	6.49
342.183	6.39
342.549	6.32
342.915	6.43
343.281	6.39
343.647	6.43
344.013	6.48
344.379	6.36
344.745	6.52
345.11	6.47
345.476	6.54
345.842	6.53
346.208	6.54
346.573	6.49
346.939	6.56
347.304	6.53
347.67	6.47
348.035	6.48
348.401	6.52
348.766	6.62
349.132	6.53
349.497	6.52
349.862	6.62
350.228	6.73
350.593	6.65
350.958	6.59
351.323	6.68
351.688	6.7
352.053	6.81
352.418	6.78
352.783	6.86
353.148	6.78
353.513	6.73
353.878	6.73
354.243	6.85
354.608	6.85
354.972	6.87
355.337	6.94
355.702	6.99
356.066	7.07
356.431	6.98
356.795	7.06
357.16	7.05
357.524	6.98
357.889	6.89
358.253	6.89
358.618	6.92
358.982	6.89
359.346	6.87
359.71	6.8
360.075	6.84
360.439	6.84
360.803	6.84
361.167	6.81
361.531	6.79
361.895	6.74
362.259	6.72
362.623	6.68
362.987	6.68
363.351	6.69
363.714	6.62
364.078	6.61
364.442	6.54
364.806	6.52
365.169	6.57
365.533	6.52
365.896	6.51
366.26	6.52
366.623	6.47
366.987	6.43
367.35	6.46
367.714	6.4
368.077	6.33
368.44	6.35
368.803	6.38
369.167	6.29
369.53	6.25
369.893	6.28
370.256	6.35
370.619	6.36
370.982	6.31
371.345	6.35
371.708	6.38
372.071	6.39
372.434	6.43
372.797	6.4
373.159	6.45
373.522	6.48
373.885	6.44
374.247	6.42
374.61	6.46
374.973	6.43
375.335	6.42
375.698	6.49
376.06	6.47
376.423	6.47
376.785	6.51
377.147	6.52
377.51	6.51
377.872	6.52
378.234	6.47
378.596	6.5
378.958	6.44
379.321	6.45
379.683	6.53
380.045	6.54
380.407	6.57
380.769	6.55
381.13	6.53
381.492	6.55
381.854	6.54
382.216	6.53
382.578	6.6
382.939	6.59
383.301	6.55
383.663	6.53
384.024	6.53
384.386	6.57
384.747	6.56
385.109	6.58
385.47	6.52
385.832	6.52
386.193	6.5
386.554	6.5
386.916	6.44
387.277	6.42
387.638	6.39
387.999	6.34
388.36	6.36
388.721	6.38
389.082	6.36
389.443	6.34
389.804	6.34
390.165	6.32
390.526	6.3
390.887	6.3
391.248	6.32
391.609	6.31
391.969	6.28
392.33	6.28
392.691	6.24
393.051	6.27
393.412	6.25
393.772	6.21
394.133	6.23
394.493	6.24
394.854	6.24
395.214	6.23
395.574	6.24
395.935	6.22
396.295	6.22
396.655	6.21
397.015	6.24
397.376	6.25
397.736	6.21
398.096	6.25
398.456	6.24
398.816	6.21
399.176	6.19
399.535	6.19
399.895	6.17
400.255	6.18
400.615	6.19
400.975	6.18
401.334	6.18
401.694	6.15
402.054	6.15
402.413	6.11
402.773	6.07
403.132	6.04
403.492	6.04
403.851	6.04
404.211	6.04
404.57	5.99
404.929	6.01
405.288	5.99
405.648	5.95
406.007	5.9
406.366	5.89
406.725	5.93
407.084	5.93
407.443	5.92
407.802	5.91
408.161	5.85
408.52	5.84
408.879	5.82
409.238	5.83
409.596	5.85
409.955	5.83
410.314	5.85
410.673	5.85
411.031	5.84
411.39	5.83
411.748	5.8
412.107	5.82
412.465	5.78
412.824	5.76
413.182	5.74
413.54	5.76
413.899	5.77
414.257	5.75
414.615	5.73
414.974	5.73
415.332	5.72
415.69	5.72
416.048	5.72
416.406	5.74
416.764	5.73
417.122	5.72
417.48	5.7
417.838	5.71
418.195	5.69
418.553	5.69
418.911	5.68
419.269	5.69
419.626	5.68
419.984	5.68
420.342	5.68
420.699	5.69
421.057	5.69
421.414	5.68
421.772	5.68
422.129	5.67
422.486	5.67
422.844	5.67
423.201	5.67
423.558	5.67
423.915	5.65
424.273	5.63
424.63	5.61
424.987	5.62
425.344	5.61
425.701	5.61
426.058	5.58
426.415	5.56
426.772	5.54
427.128	5.54
427.485	5.52
427.842	5.5
428.199	5.49
428.555	5.46
428.912	5.44
429.269	5.4
429.625	5.39
429.982	5.36
430.338	5.34
430.695	5.34
431.051	5.33
431.407	5.32
431.764	5.34
432.12	5.35
432.476	5.34
432.832	5.31
433.189	5.29
433.545	5.28
433.901	5.28
434.257	5.26
434.613	5.26
434.969	5.26
435.325	5.26
435.681	5.25
436.036	5.26
436.392	5.27
436.748	5.27
437.104	5.25
437.459	5.24
437.815	5.24
438.171	5.23
438.526	5.25
438.882	5.24
439.237	5.24
439.593	5.26
439.948	5.26
440.304	5.28
440.659	5.31
441.014	5.31
441.369	5.33
441.725	5.34
442.08	5.34
442.435	5.34
442.79	5.36
443.145	5.35
443.5	5.35
443.855	5.34
444.21	5.35
444.565	5.36
444.92	5.37
445.275	5.37
445.629	5.37
445.984	5.36
446.339	5.35
446.693	5.32
447.048	5.29
447.403	5.29
447.757	5.27
448.112	5.27
448.466	5.26
448.82	5.25
449.175	5.24
449.529	5.23
449.883	5.22
450.238	5.2
450.592	5.2
450.946	5.18
451.3	5.17
451.654	5.16
452.008	5.15
452.362	5.13
452.716	5.12
453.07	5.09
453.424	5.07
453.778	5.06
454.132	5.07
454.486	5.07
454.839	5.07
455.193	5.06
455.547	5.05
455.9	5.06
456.254	5.06
456.607	5.06
456.961	5.04
457.314	5.02
457.668	5.03
458.021	5.03
458.375	5.03
458.728	5.02
459.081	5.02
459.434	4.99
459.787	4.99
460.141	4.98
460.494	4.97
460.847	4.97
461.2	4.98
461.553	5
461.906	4.99
462.259	4.99
462.611	4.99
462.964	4.98
463.317	4.97
463.67	4.97
464.022	4.98
464.375	4.97
464.728	4.99
465.08	4.98
465.433	4.97
465.785	4.98
466.138	4.99
466.49	5
466.843	5.01
467.195	5.01
467.547	5.08
467.899	5.1
468.252	5.11
468.604	5.12
468.956	5.1
469.308	5.1
469.66	5.13
470.012	5.13
470.364	5.14
470.716	5.16
471.068	5.15
471.42	5.16
471.772	5.2
472.123	5.2
472.475	5.23
472.827	5.24
473.178	5.26
473.53	5.25
473.882	5.28
474.233	5.3
474.585	5.3
474.936	5.28
475.288	5.27
475.639	5.28
475.99	5.28
476.342	5.29
476.693	5.29
477.044	5.3
477.395	5.31
477.746	5.3
478.097	5.32
478.448	5.33
478.8	5.33
479.15	5.32
479.501	5.35
479.852	5.33
480.203	5.33
480.554	5.35
480.905	5.37
481.255	5.36
481.606	5.37
481.957	5.38
482.307	5.38
482.658	5.38
483.009	5.37
483.359	5.38
483.709	5.39
484.06	5.39
484.41	5.39
484.761	5.4
485.111	5.41
485.461	5.41
485.811	5.4
486.162	5.4
486.512	5.41
486.862	5.41
487.212	5.41
487.562	5.41
487.912	5.41
488.262	5.4
488.612	5.4
488.961	5.39
489.311	5.4
489.661	5.39
490.011	5.4
490.36	5.41
490.71	5.4
491.06	5.39
491.409	5.39
491.759	5.37
492.108	5.36
492.458	5.36
492.807	5.34
493.157	5.36
493.506	5.36
493.855	5.35
494.204	5.34
494.554	5.34
494.903	5.34
495.252	5.34
495.601	5.35
495.95	5.37
496.299	5.37
496.648	5.36
496.997	5.36
497.346	5.35
497.695	5.38
498.043	5.4
498.392	5.41
498.741	5.45
499.09	5.44
499.438	5.47
499.787	5.5
500.135	5.54
500.484	5.54
500.832	5.56
501.181	5.58
501.529	5.61
501.878	5.63
502.226	5.64
502.574	5.64
502.923	5.66
503.271	5.66
503.619	5.71
503.967	5.75
504.315	5.78
504.663	5.81
505.011	5.83
505.359	5.83
505.707	5.88
506.055	5.91
506.403	5.94
506.751	5.96
507.098	5.96
507.446	5.98
507.794	6.01
508.141	6.04
508.489	6.06
508.837	6.09
509.184	6.1
509.531	6.15
509.879	6.19
510.226	6.22
510.574	6.25
510.921	6.25
511.268	6.25
511.616	6.27
511.963	6.3
512.31	6.32
512.657	6.35
513.004	6.35
513.351	6.38
513.698	6.4
514.045	6.4
514.392	6.42
514.739	6.43
515.086	6.47
515.432	6.49
515.779	6.5
516.126	6.5
516.473	6.53
516.819	6.53
517.166	6.54
517.512	6.54
517.859	6.55
518.205	6.59
518.552	6.61
518.898	6.62
519.245	6.64
519.591	6.64
519.937	6.65
520.283	6.67
520.629	6.68
520.976	6.69
521.322	6.7
521.668	6.72
522.014	6.74
522.36	6.72
522.706	6.73
523.052	6.77
523.398	6.8
523.743	6.82
524.089	6.83
524.435	6.87
524.781	6.91
525.126	6.94
525.472	6.94
525.817	6.97
526.163	6.98
526.509	6.99
526.854	7.02
527.199	7.04
527.545	7.06
527.89	7.07
528.235	7.07
528.581	7.09
528.926	7.1
529.271	7.11
529.616	7.13
529.961	7.14
530.306	7.15
530.651	7.15
530.996	7.16
531.341	7.16
531.686	7.16
532.031	7.15
532.376	7.15
532.721	7.17
533.065	7.15
533.41	7.17
533.755	7.16
534.099	7.16
534.444	7.17
534.788	7.16
535.133	7.16
535.477	7.16
535.822	7.17
536.166	7.18
536.51	7.18
536.855	7.19
537.199	7.18
537.543	7.19
537.887	7.21
538.231	7.23
538.576	7.26
538.92	7.28
539.264	7.3
539.608	7.31
539.951	7.31
540.295	7.34
540.639	7.36
540.983	7.37
541.327	7.38
541.671	7.37
542.014	7.38
542.358	7.39
542.701	7.42
543.045	7.42
543.389	7.43
543.732	7.45
544.075	7.47
544.419	7.48
544.762	7.48
545.105	7.48
545.449	7.48
545.792	7.46
546.135	7.46
546.478	7.46
546.821	7.47
547.165	7.45
547.508	7.46
547.851	7.44
548.194	7.43
548.536	7.44
548.879	7.46
549.222	7.44
549.565	7.44
549.908	7.44
550.25	7.47
550.593	7.48
550.936	7.46
551.278	7.45
551.621	7.48
551.963	7.5
552.306	7.5
552.648	7.52
552.991	7.55
553.333	7.56
553.675	7.56
554.017	7.6
554.36	7.64
554.702	7.64
555.044	7.66
555.386	7.67
555.728	7.68
556.07	7.69
556.412	7.69
556.754	7.71
557.096	7.69
557.438	7.67
557.78	7.68
558.121	7.71
558.463	7.72
558.805	7.69
559.147	7.7
559.488	7.7
559.83	7.7
560.171	7.69
560.513	7.72
560.854	7.71
561.196	7.7
561.537	7.7
561.878	7.67
562.22	7.65
562.561	7.66
562.902	7.65
563.243	7.67
563.584	7.71
563.925	7.68
564.266	7.7
564.607	7.71
564.948	7.7
565.289	7.72
565.63	7.73
565.971	7.75
566.312	7.72
566.653	7.69
566.993	7.71
567.334	7.71
567.675	7.7
568.015	7.7
568.356	7.69
568.696	7.7
569.037	7.71
569.377	7.74
569.718	7.76
570.058	7.75
570.398	7.76
570.739	7.73
571.079	7.76
571.419	7.76
571.759	7.79
572.099	7.82
572.439	7.8
572.779	7.8
573.119	7.82
573.459	7.85
573.799	7.9
574.139	7.86
574.479	7.86
574.819	7.86
575.158	7.86
575.498	7.88
575.838	7.86
576.177	7.84
576.517	7.85
576.856	7.83
577.196	7.85
577.535	7.82
577.875	7.84
578.214	7.85
578.553	7.86
578.893	7.84
579.232	7.79
579.571	7.78
579.91	7.72
580.25	7.7
580.589	7.69
580.928	7.69
581.267	7.74
581.606	7.75
581.945	7.77
582.283	7.76
582.622	7.71
582.961	7.73
583.3	7.78
583.639	7.8
583.977	7.8
584.316	7.77
584.654	7.79
584.993	7.79
585.332	7.78
585.67	7.79
586.008	7.79
586.347	7.84
586.685	7.83
587.024	7.85
587.362	7.86
587.7	7.87
588.038	7.86
588.376	7.85
588.715	7.88
589.053	7.87
589.391	7.92
589.729	7.98
590.067	7.96
590.404	7.95
590.742	7.96
591.08	7.95
591.418	7.98
591.756	7.98
592.093	7.99
592.431	8.01
592.769	8
593.106	7.98
593.444	7.92
593.781	7.94
594.119	7.99
594.456	7.97
594.793	7.96
595.131	7.96
595.468	7.98
595.805	7.96
596.143	7.94
596.48	7.9
596.817	7.89
597.154	7.92
597.491	7.92
597.828	7.89
598.165	7.91
598.502	7.88
598.839	7.88
599.176	7.85
599.512	7.86
599.849	7.89
600.186	7.9
600.523	7.95
600.859	7.98
601.196	7.96
601.532	7.96
601.869	7.92
602.205	7.9
602.542	7.87
602.878	7.89
603.215	7.93
603.551	7.93
603.887	7.93
604.223	7.93
604.56	7.93
604.896	7.94
605.232	7.92
605.568	7.92
605.904	7.92
606.24	7.95
606.576	7.95
606.912	7.97
607.248	7.97
607.583	7.97
607.919	7.91
608.255	7.9
608.591	7.92
608.926	7.97
609.262	8.01
609.597	8.02
609.933	8.02
610.268	7.99
610.604	8.02
610.939	7.99
611.275	8
611.61	7.96
611.945	7.95
612.281	7.97
612.616	7.95
612.951	7.95
613.286	7.95
613.621	7.94
613.956	7.9
614.291	7.89
614.626	7.89
614.961	7.96
615.296	7.96
615.631	8.01
615.966	7.99
616.3	7.9
616.635	7.96
616.97	7.92
617.304	7.93
617.639	7.94
617.973	7.96
618.308	7.92
618.642	7.99
618.977	8.01
619.311	7.98
619.646	8
619.98	7.96
620.314	7.97
620.648	7.99
620.983	8.03
621.317	8.02
621.651	8.06
621.985	8.04
622.319	8.04
622.653	7.98
622.987	8
623.321	8.07
623.655	8
623.988	8.02
624.322	8.01
624.656	8.01
624.99	7.99
625.323	8.06
625.657	8.08
625.99	8.08
626.324	8.09
626.657	8.12
626.991	8.2
627.324	8.19
627.658	8.18
627.991	8.16
628.324	8.18
628.657	8.16
628.991	8.19
629.324	8.2
629.657	8.2
629.99	8.24
630.323	8.24
630.656	8.26
630.989	8.31
631.322	8.34
631.655	8.31
631.987	8.36
632.32	8.3
632.653	8.26
632.986	8.23
633.318	8.23
633.651	8.26
633.984	8.25
634.316	8.21
634.649	8.23
634.981	8.16
635.313	8.15
635.646	8.19
635.978	8.12
636.31	8.1
636.643	8.14
636.975	8.06
637.307	8.07
637.639	8.1
637.971	8.05
638.303	8.03
638.635	8.03
638.967	8.05
639.299	8.09
639.631	8.1
639.963	8.09
640.295	8.07
640.626	8.08
640.958	8.12
641.29	8.13
641.621	8.11
641.953	8.14
642.285	8.11
642.616	8.05
642.948	8.08
643.279	8.07
643.61	8.03
643.942	8.11
644.273	8.07
644.604	8.04
644.936	7.99
645.267	7.93
645.598	7.91
645.929	7.9
646.26	7.9
646.591	7.82
646.922	7.85
647.253	7.9
647.584	7.81
647.915	7.71
648.245	7.67
648.576	7.74
648.907	7.78
649.238	7.78
649.568	7.84
649.899	7.81
650.229	7.87
650.56	7.94
650.89	7.94
651.221	7.97
651.551	7.97
651.882	8.02
652.212	8.1
652.542	8.17
652.872	8.08
653.203	8.04
653.533	8.2
653.863	8.21
654.193	8.2
654.523	8.29
654.853	8.33
655.183	8.38
655.513	8.32
655.843	8.32
656.172	8.34
656.502	8.3
656.832	8.32
657.162	8.32
657.491	8.28
657.821	8.23
658.15	8.16
658.48	8.17
658.809	8.18
659.139	8.17
659.468	8.15
659.798	8.21
660.127	8.24
660.456	8.16
660.785	8.18
661.115	8.18
661.444	8.14
661.773	8.17
662.102	8.15
662.431	8.24
662.76	8.3
663.089	8.29
663.418	8.24
663.747	8.21
664.076	8.14
664.404	8.16
664.733	8.17
665.062	8.18
665.39	8.18
665.719	8.17
666.048	8.2
666.376	8.18
666.705	8.19
667.033	8.18
667.362	8.17
667.69	8.12
668.018	8.13
668.347	8.14
668.675	8.11
669.003	8.13
669.331	8.1
669.659	8.03
669.987	7.98
670.315	8.07
670.643	8.11
670.971	8.16
671.299	8.14
671.627	8.17
671.955	8.24
672.283	8.26
672.61	8.29
672.938	8.23
673.266	8.25
673.593	8.31
673.921	8.31
674.249	8.38
674.576	8.47
674.904	8.44
675.231	8.33
675.558	8.29
675.886	8.34
676.213	8.32
676.54	8.32
676.867	8.38
677.195	8.27
677.522	8.31
677.849	8.31
678.176	8.33
678.503	8.36
678.83	8.32
679.157	8.3
679.484	8.27
679.81	8.32
680.137	8.25
680.464	8.16
680.791	8.19
681.117	8.12
681.444	8.1
681.771	8.08
682.097	8.16
682.424	8.17
682.75	8.17
683.077	8.08
683.403	8.1
683.729	8.21
684.056	8.28
684.382	8.25
684.708	8.18
685.034	8.14
685.36	8.12
685.686	8.1
686.012	8.08
686.339	8.08
686.664	8.13
686.99	8.18
687.316	8.29
687.642	8.33
687.968	8.32
688.294	8.33
688.619	8.48
688.945	8.43
689.271	8.41
689.596	8.33
689.922	8.37
690.247	8.34
690.573	8.22
690.898	8.25
691.224	8.32
691.549	8.4
691.874	8.38
692.2	8.4
692.525	8.52
692.85	8.62
693.175	8.6
693.5	8.54
693.825	8.56
694.15	8.47
694.475	8.44
694.8	8.56
695.125	8.48
695.45	8.35
695.775	8.5
696.099	8.55
696.424	8.65
696.749	8.66
697.073	8.68
697.398	8.71
697.723	8.79
698.047	8.72
698.372	8.64
698.696	8.67
699.02	8.64
699.345	8.64
699.669	8.64
699.993	8.71
700.318	8.71
700.642	8.73
700.966	8.7
701.29	8.69
701.614	8.55
701.938	8.59
702.262	8.71
702.586	8.63
702.91	8.62
703.234	8.51
703.557	8.51
703.881	8.49
704.205	8.47
704.529	8.33
704.852	8.33
705.176	8.46
705.499	8.42
705.823	8.3
706.146	8.27
706.47	8.16
706.793	8.04
707.117	8.09
707.44	8.08
707.763	8.08
708.086	8.09
708.409	8.13
708.733	8.15
709.056	8.06
709.379	8.14
709.702	8.22
710.025	8.27
710.348	8.31
710.671	8.29
710.993	8.37
711.316	8.34
711.639	8.5
711.962	8.61
712.284	8.67
712.607	8.82
712.93	8.76
713.252	8.81
713.575	8.85
713.897	8.76
714.22	8.77
714.542	8.88
714.864	8.99
715.187	9.1
715.509	9.07
715.831	9.12
716.153	9.06
716.475	8.94
716.798	9.07
717.12	9.03
717.442	9.06
717.764	9
718.085	9.03
718.407	8.97
718.729	8.72
719.051	8.74
719.373	8.55
719.695	8.5
720.016	8.64
720.338	8.77
720.659	8.84
720.981	8.8
721.302	8.81
721.624	8.62
721.945	8.58
722.267	8.51
722.588	8.31
722.909	8.32
723.231	8.35
723.552	8.14
723.873	8.03
724.194	7.98
724.515	7.89
724.836	7.91
725.157	7.92
725.478	7.93
725.799	8.09
726.12	8.21
726.441	8.14
726.762	7.89
727.083	7.75
727.403	7.85
727.724	8.03
728.045	8.04
728.365	7.93
728.686	7.9
729.006	8.1
729.327	8.15
729.647	8.11
729.967	8.13
730.288	8.22
730.608	8.31
730.928	8.38
731.249	8.24
731.569	8.37
731.889	8.26
732.209	8.3
732.529	8.09
732.849	8.05
733.169	8.2
733.489	8.24
733.809	8.35
734.129	8.46
734.448	8.37
734.768	8.31
735.088	8.42
735.408	8.53
735.727	8.51
736.047	8.72
736.366	8.94
736.686	8.91
737.005	8.87
737.325	8.96
737.644	8.85
737.963	9.15
738.283	8.95
738.602	9.08
738.921	9.05
739.24	9.12
739.56	9.13
739.879	9.16
740.198	9.18
740.517	9.02
740.836	8.7
741.155	8.65
741.473	8.7
741.792	8.54
742.111	8.56
742.43	8.59
742.748	8.43
743.067	8.29
743.386	8.4
743.704	8.38
744.023	8.42
744.341	8.54
744.66	8.58
744.978	8.53
745.297	8.38
745.615	8.68
745.933	8.72
746.252	8.77
746.57	8.73
746.888	8.87
747.206	8.84
747.524	8.99
747.842	8.92
748.16	8.9
748.478	9.01
748.796	8.9
749.114	8.92
749.432	9.06
749.749	9.14
750.067	8.98
750.385	9.07
750.703	9.23
751.02	9.26
751.338	9.23
751.655	9.3
751.973	9.63
752.29	9.46
752.608	9.31
752.925	9.26
753.242	9.13
753.56	9.06
753.877	9.2
754.194	9.07
754.511	9.09
754.828	8.89
755.145	8.91
755.462	8.81
755.779	8.6
756.096	8.45
756.413	8.35
756.73	8.65
757.047	8.92
757.364	8.87
757.68	8.75
757.997	8.51
758.314	8.6
758.63	8.34
758.947	8.28
759.264	8.62
759.58	8.63
759.896	8.99
760.213	8.97
760.529	9.01
760.846	9.17
761.162	9.17
761.478	9.33
761.794	9.27
762.11	9.47
762.426	9.42
762.743	9.4
763.059	9.41
763.375	9.55
763.69	9.34
764.006	9.36
764.322	9.39
764.638	9.52
764.954	9.58
765.27	9.52
765.585	9.63
765.901	9.62
766.216	9.62
766.532	9.44
766.848	9.38
767.163	9.41
767.478	9.5
767.794	9.59
768.109	9.54
768.424	9.69
768.74	9.59
769.055	9.77
769.37	9.92
769.685	9.92
770	9.56
770.315	9.7
770.63	9.42
770.945	9.49
771.26	9.61
771.575	9.83
771.89	9.99
772.205	9.91
772.52	9.75
772.834	9.81
773.149	10
773.464	10.1
773.778	10.4
774.093	10
774.407	10.16
774.722	10.05
775.036	10.26
775.351	10.54
775.665	10.41
775.979	10.18
776.293	10.19
776.608	10.04
776.922	9.95
777.236	10.02
777.55	9.8
777.864	9.85
778.178	9.65
778.492	9.78
778.806	9.94
779.12	9.96
779.434	9.89
779.747	9.78
780.061	10.03
780.375	9.62
780.689	9.84
781.002	9.46
781.316	9.76
781.629	9.68
781.943	9.2
782.256	9.8
782.57	9.73
782.883	9.98
783.196	9.94
783.51	9.48
783.823	9.13
784.136	9.18
784.449	9.23
784.762	9.15
785.075	8.83
785.388	8.41
785.701	8.28
786.014	8.21
786.327	8.11
786.64	8.13
786.953	8.16
787.266	7.97
787.578	7.96
787.891	7.97
788.204	7.88
788.516	8.05
788.829	7.55
789.141	7.68
789.454	7.23
789.766	7.61
790.079	7.97
790.391	8.07
790.703	8.32
791.016	7.85
791.328	7.49
791.64	7.53
791.952	8.16
792.264	8.09
792.576	7.86
792.888	7.69
793.2	7.78
793.512	7.73
793.824	7.58
794.136	7.52
794.448	7.56
794.76	7.14
795.071	6.99
795.383	6.76
795.695	6.82
796.006	7.04
796.318	6.91
796.629	6.9
796.941	6.91
797.252	7
797.564	7.44
797.875	7.7
798.186	7.71
798.497	7.13
798.809	7.06
799.12	7.84
799.431	7.97
799.742	7.77
800.053	8.13
800.364	8.4
800.675	8.5
800.986	8.26
801.297	8.48
801.608	8.49
801.918	8.44
802.229	8.37
802.54	7.95
802.851	7.86
803.161	7.92
803.472	8.24
803.782	8.32
804.093	8.02
804.403	8.13
804.714	8.37
805.024	8.17
805.334	8.51
805.645	8.41
805.955	8.52
806.265	8.11
806.575	7.22
806.885	7.47
807.195	8.13
807.505	8.37
807.815	8.47
808.125	8.49
808.435	8.92
808.745	9.2
809.055	9.8
809.365	10.01
809.674	9.75
809.984	9.92
810.294	9.83
810.603	9.97
810.913	10.11
811.222	10.31
811.532	10.83
811.841	11.02
812.151	11.4
812.46	11.57
812.769	12.09
813.079	12.19
813.388	12.05
813.697	12.47
814.006	12.26
814.315	12.14
814.624	12.23
814.933	12.51
815.242	12.48
815.551	12.52
815.86	12.98
816.169	12.78
816.478	11.68
816.786	11.11
817.095	10.96
817.404	11.18
817.712	11.09
818.021	11.3
818.33	11.13
818.638	10.67
818.947	10.78
819.255	10.8
819.563	10.86
819.872	10.72
820.18	10.48
820.488	10.35
820.796	10.88
821.105	10.75
821.413	10.64
821.721	10.59
822.029	10.87
822.337	10.76
822.645	10.93
822.953	11.1
823.26	11.37
823.568	11.44
823.876	11.38
824.184	11.21
824.491	11.19
824.799	11.16
825.107	11.37
825.414	11.29
825.722	11.4
826.029	11.38
826.337	11.48
826.644	11.45
826.951	11.52
827.259	11.39
827.566	11.38
827.873	11.33
828.18	11.6
828.488	11.32
828.795	11.33
829.102	11.37
829.409	11.71
829.716	11.53
830.023	11.56
830.329	11.55
830.636	11.87
830.943	11.58
831.25	11.55
831.557	11.3
831.863	11.29
832.17	11.14
832.476	11.48
832.783	11.29
833.089	11.39
833.396	11.53
833.702	11.3
834.009	11.6
834.315	11.65
834.621	11.57
834.928	11.36
835.234	11.09
835.54	11.1
835.846	10.73
836.152	10.73
836.458	10.9
836.764	10.86
837.07	10.58
837.376	10.8
837.682	10.83
837.988	10.49
838.293	10.65
838.599	10.41
838.905	10.2
839.211	10.14
839.516	9.59
839.822	9.82
840.127	9.68
840.433	10.59
840.738	10.79
841.044	10.13
841.349	10.39
841.654	11.45
841.959	11.5
842.265	11.41
842.57	11.06
842.875	10.63
843.18	10.76
843.485	10.95
843.79	10.74
844.095	11.01
844.4	11.29
844.705	10.43
845.01	10.16
845.315	10.05
845.619	10.21
845.924	10.08
846.229	9.46
846.533	8.32
846.838	5.15
847.142	3.84
847.447	3.99
847.751	4.11
848.056	1.07
848.36	1.08
848.664	1.6
848.969	0.49
849.273	-0.69
849.577	-2.72
849.881	-1.85
850.185	-1.01
850.489	-2.2
850.794	-3.24
851.097	-2.65
851.401	-2.8
851.705	-2.65
852.009	-0.52
852.313	-1
852.617	-1.69
852.92	0.48
853.224	2.57
853.528	3.58
853.831	2.73
854.135	2.84
854.438	3.29
854.742	1.97
855.045	1.08
855.349	1.84
855.652	2.62
855.955	3.05
856.259	1.57
856.562	0.41
856.865	-0.48
857.168	-0.82
857.471	-1.62
857.774	0.05
858.077	1.51
858.38	-0.76
858.683	2.64
858.986	4.31
859.289	5.4
859.592	5.19
859.894	5.66
860.197	5.51
860.5	3.38
860.802	4.38
861.105	5.03
861.407	4.92
861.71	6.21
862.012	5.61
862.315	6.45
862.617	8.28
862.919	11.15
863.222	13.69
863.524	12.9
863.826	14.8
864.128	15.04
864.43	13.41
864.732	14.91
865.034	14.42
865.336	13.23
865.638	11.58
865.94	10.25
866.242	9.96
866.544	9.61
866.846	11.97
867.147	11.63
867.449	11.01
867.751	11.43
868.052	11.55
868.354	12.62
868.655	15.4
868.957	14.25
869.258	11.49
869.56	8.8
869.861	8.38
870.162	8.85
870.463	9.24
870.765	10.13
871.066	11.81
871.367	6.13
871.668	6.27
871.969	6.36
872.27	5.86
872.571	6.14
872.872	7.34
873.173	5.33
873.473	3.5
873.774	2.8
874.075	2.07
874.376	0.24
874.676	0.54
874.977	-1.62
875.277	-1.23
875.578	0.17
875.878	1.4
876.179	3.59
876.479	1.89
876.78	-0.9
877.08	-1.96
877.38	-6.23
877.68	-1.14
877.981	-0.55
878.281	-1.48
878.581	1.31
