Data from BU58002_Reflection_00008.txt Node
Date: Tue Nov 19 10:57:47 EST 2019
User: vgr7
Spectrometer: USB2G7710
Scans to average: 3
Trigger mode: 4
Integration Time (sec): 2.000000E-2
Electric dark correction enabled: true
Boxcar width: 10
XAxis mode: Wavelengths
Number of Pixels in Spectrum: 2048
>>>>>Begin Spectral Data<<<<<
177.721	21.72
178.105	-1.1
178.488	41.57
178.871	218.18
179.254	126.92
179.636	171.43
180.019	132.66
180.402	66.67
180.785	75
181.168	114.71
181.55	37.5
181.933	44.75
182.316	15.04
182.698	11.21
183.081	-30.73
183.463	-31.89
183.846	-63.09
184.228	-223.77
184.611	-175.28
184.993	-218.18
185.376	-65.16
185.758	-434.48
186.14	115.38
186.522	244.07
186.904	-870
187.287	-1176.32
187.669	670.59
188.051	150.69
188.433	-701.89
188.815	1135.71
189.197	276.26
189.579	138.93
189.961	63.33
190.342	41.55
190.724	49.94
191.106	46.66
191.488	64.13
191.869	73.31
192.251	79.02
192.633	61.24
193.014	63.6
193.396	68.26
193.777	62.39
194.159	55.99
194.54	55.23
194.922	44.83
195.303	42.86
195.684	37.9
196.065	58.39
196.447	38.9
196.828	56.71
197.209	49.12
197.59	56.71
197.971	57.93
198.352	55.41
198.733	54.02
199.114	39.41
199.495	39.28
199.876	33.96
200.257	18.73
200.638	23.2
201.018	20.82
201.399	7.89
201.78	22.27
202.16	25.57
202.541	11.83
202.922	22.96
203.302	18.86
203.683	4.57
204.063	12.55
204.444	1.52
204.824	-7.63
205.204	1.77
205.585	12.99
205.965	1.26
206.345	-1.03
206.725	-4.76
207.106	12.49
207.486	10.57
207.866	16.94
208.246	24.3
208.626	15.09
209.006	14.2
209.386	19.79
209.766	14.54
210.145	15.77
210.525	23.08
210.905	18.42
211.285	29.04
211.664	35.54
212.044	38.22
212.424	42.73
212.803	37.5
213.183	35.59
213.562	23.16
213.942	21.92
214.321	23.72
214.701	25.67
215.08	19.66
215.459	28.98
215.838	26.2
216.218	16.74
216.597	30.44
216.976	20.74
217.355	19.04
217.734	12.69
218.113	14.41
218.492	4.16
218.871	12
219.25	11.82
219.629	8.5
220.008	-12.53
220.387	-20.12
220.766	-2.71
221.144	2.75
221.523	-10.98
221.902	7.55
222.28	6.2
222.659	12.82
223.037	14.17
223.416	0.94
223.794	2.31
224.173	2.94
224.551	4.24
224.929	3.37
225.308	5.79
225.686	9.59
226.064	6.91
226.442	14.86
226.821	10.83
227.199	9.74
227.577	13.47
227.955	17.07
228.333	15.75
228.711	12.46
229.089	9.79
229.467	10.83
229.845	7.26
230.222	9.37
230.6	7.4
230.978	7.98
231.356	8.87
231.733	10.19
232.111	11.46
232.488	8.69
232.866	10.95
233.243	9.61
233.621	11.25
233.998	11.67
234.376	8.27
234.753	9.54
235.13	7.61
235.508	6.98
235.885	6.82
236.262	6.86
236.639	6.99
237.016	7.12
237.393	7.24
237.77	9.03
238.147	8.27
238.524	7.67
238.901	6.5
239.278	6.09
239.655	5.09
240.032	5.07
240.409	5.71
240.785	4.93
241.162	5.31
241.539	4.66
241.915	4.87
242.292	4.76
242.668	4.81
243.045	5.15
243.421	5.03
243.798	5.1
244.174	5.28
244.551	5.31
244.927	5.26
245.303	4.85
245.679	4.52
246.056	4.36
246.432	4.26
246.808	4.54
247.184	4.64
247.56	4.64
247.936	4.75
248.312	4.88
248.688	4.81
249.064	4.7
249.44	4.64
249.815	4.42
250.191	4.42
250.567	4.24
250.943	4.26
251.318	4.35
251.694	4.1
252.069	4.2
252.445	4.27
252.82	4.51
253.196	4.69
253.571	4.7
253.947	4.67
254.322	4.75
254.697	4.48
255.073	4.42
255.448	4.57
255.823	4.35
256.198	4.08
256.573	4.3
256.948	4.44
257.323	4.69
257.698	4.69
258.073	4.65
258.448	4.57
258.823	4.4
259.198	4.28
259.573	4.37
259.948	4.24
260.322	4.21
260.697	4.15
261.072	4.21
261.446	4.2
261.821	4.19
262.195	4.16
262.57	4.13
262.944	4.09
263.319	4.08
263.693	3.98
264.067	4.1
264.442	4.1
264.816	4.13
265.19	4.01
265.564	3.97
265.938	4.06
266.313	4.17
266.687	4.05
267.061	4.21
267.435	4.18
267.809	3.93
268.183	3.84
268.556	3.71
268.93	3.64
269.304	3.68
269.678	3.71
270.051	3.73
270.425	3.86
270.799	3.83
271.172	3.78
271.546	3.98
271.919	3.88
272.293	3.83
272.666	3.76
273.04	3.67
273.413	3.73
273.787	3.73
274.16	3.54
274.533	3.66
274.906	3.63
275.279	3.56
275.653	3.72
276.026	3.64
276.399	3.6
276.772	3.67
277.145	3.71
277.518	3.66
277.891	3.74
278.263	3.78
278.636	3.98
279.009	3.91
279.382	3.81
279.755	3.87
280.127	3.93
280.5	3.99
280.872	3.91
281.245	3.82
281.617	3.72
281.99	3.9
282.362	3.87
282.735	3.68
283.107	3.56
283.479	3.59
283.852	3.7
284.224	3.78
284.596	3.74
284.968	3.65
285.34	3.63
285.713	3.66
286.085	3.6
286.457	3.47
286.829	3.5
287.201	3.55
287.572	3.53
287.944	3.49
288.316	3.41
288.688	3.54
289.06	3.6
289.431	3.78
289.803	3.85
290.175	3.82
290.546	3.91
290.918	4.11
291.289	4
291.661	4.07
292.032	4.07
292.403	4.14
292.775	4.24
293.146	4.39
293.517	4.37
293.889	4.4
294.26	4.35
294.631	4.41
295.002	4.24
295.373	4.23
295.744	4.28
296.115	4.36
296.486	4.32
296.857	4.35
297.228	4.24
297.599	4.13
297.97	4.32
298.34	4.37
298.711	4.43
299.082	4.56
299.452	4.57
299.823	4.64
300.194	4.75
300.564	4.72
300.935	4.82
301.305	4.87
301.676	4.95
302.046	5.13
302.416	5.06
302.787	5.21
303.157	5.29
303.527	5.42
303.897	5.52
304.267	5.65
304.637	5.79
305.008	5.87
305.378	6.03
305.748	5.89
306.117	5.95
306.487	5.9
306.857	5.99
307.227	6.01
307.597	6.04
307.967	5.95
308.336	6.17
308.706	6.19
309.076	6.35
309.445	6.44
309.815	6.42
310.184	6.68
310.554	6.7
310.923	6.69
311.293	6.6
311.662	6.72
312.031	6.79
312.401	6.71
312.77	6.87
313.139	6.84
313.508	6.91
313.877	6.88
314.246	6.89
314.616	6.98
314.985	7.09
315.353	7.27
315.722	7.45
316.091	7.37
316.46	7.28
316.829	7.35
317.198	7.37
317.567	7.43
317.935	7.48
318.304	7.73
318.672	7.95
319.041	8.18
319.41	8.04
319.778	8.08
320.147	8.25
320.515	8.16
320.883	8.2
321.252	8.32
321.62	8.64
321.988	8.9
322.357	8.82
322.725	8.83
323.093	8.73
323.461	8.69
323.829	8.72
324.197	8.87
324.565	8.84
324.933	8.76
325.301	8.7
325.669	8.56
326.037	8.58
326.405	8.64
326.772	8.64
327.14	8.74
327.508	8.8
327.875	8.74
328.243	8.83
328.61	8.99
328.978	8.92
329.346	8.82
329.713	8.78
330.08	8.88
330.448	8.85
330.815	8.91
331.182	8.96
331.55	9
331.917	8.93
332.284	9
332.651	9.03
333.018	9.25
333.385	9.41
333.752	9.21
334.119	9.18
334.486	9.13
334.853	9.05
335.22	8.98
335.587	9.03
335.954	8.94
336.32	8.9
336.687	8.99
337.054	8.96
337.42	8.84
337.787	8.91
338.153	9.06
338.52	9.14
338.886	9.19
339.253	9.28
339.619	9.32
339.986	9.34
340.352	9.53
340.718	9.41
341.084	9.45
341.451	9.63
341.817	9.75
342.183	9.79
342.549	9.94
342.915	10.04
343.281	10.2
343.647	10.32
344.013	10.26
344.379	10.3
344.745	10.37
345.11	10.34
345.476	10.33
345.842	10.24
346.208	10.23
346.573	10.16
346.939	10.23
347.304	10.23
347.67	10.13
348.035	10
348.401	10.11
348.766	10.06
349.132	10.03
349.497	10
349.862	9.94
350.228	9.93
350.593	9.88
350.958	9.87
351.323	9.78
351.688	9.87
352.053	9.8
352.418	9.72
352.783	9.82
353.148	9.83
353.513	9.88
353.878	9.79
354.243	9.77
354.608	9.76
354.972	9.65
355.337	9.65
355.702	9.6
356.066	9.54
356.431	9.53
356.795	9.47
357.16	9.36
357.524	9.3
357.889	9.23
358.253	9.24
358.618	9.11
358.982	9.15
359.346	9.09
359.71	9.1
360.075	9.12
360.439	9.11
360.803	9.05
361.167	9.02
361.531	8.99
361.895	9.02
362.259	8.94
362.623	9.01
362.987	8.93
363.351	8.89
363.714	8.85
364.078	8.85
364.442	8.83
364.806	8.86
365.169	8.86
365.533	8.83
365.896	8.82
366.26	8.78
366.623	8.7
366.987	8.65
367.35	8.65
367.714	8.61
368.077	8.5
368.44	8.46
368.803	8.32
369.167	8.25
369.53	8.11
369.893	7.97
370.256	7.86
370.619	7.83
370.982	7.77
371.345	7.77
371.708	7.67
372.071	7.61
372.434	7.56
372.797	7.52
373.159	7.35
373.522	7.3
373.885	7.23
374.247	7.15
374.61	7.1
374.973	7.01
375.335	6.92
375.698	6.88
376.06	6.77
376.423	6.74
376.785	6.72
377.147	6.72
377.51	6.67
377.872	6.64
378.234	6.65
378.596	6.61
378.958	6.51
379.321	6.45
379.683	6.37
380.045	6.27
380.407	6.22
380.769	6.23
381.13	6.08
381.492	6.04
381.854	6.02
382.216	6
382.578	5.9
382.939	5.85
383.301	5.79
383.663	5.75
384.024	5.72
384.386	5.71
384.747	5.64
385.109	5.61
385.47	5.58
385.832	5.48
386.193	5.43
386.554	5.38
386.916	5.35
387.277	5.34
387.638	5.26
387.999	5.25
388.36	5.21
388.721	5.2
389.082	5.18
389.443	5.14
389.804	5.09
390.165	5.08
390.526	5.04
390.887	5.01
391.248	4.99
391.609	4.95
391.969	4.89
392.33	4.87
392.691	4.85
393.051	4.78
393.412	4.77
393.772	4.76
394.133	4.7
394.493	4.72
394.854	4.68
395.214	4.69
395.574	4.61
395.935	4.57
396.295	4.57
396.655	4.52
397.015	4.49
397.376	4.45
397.736	4.4
398.096	4.39
398.456	4.39
398.816	4.36
399.176	4.3
399.535	4.28
399.895	4.25
400.255	4.23
400.615	4.21
400.975	4.2
401.334	4.18
401.694	4.19
402.054	4.11
402.413	4.08
402.773	4.04
403.132	4.03
403.492	4.04
403.851	4.03
404.211	4.03
404.57	4.01
404.929	3.99
405.288	4
405.648	3.96
406.007	3.93
406.366	3.9
406.725	3.92
407.084	3.9
407.443	3.89
407.802	3.84
408.161	3.85
408.52	3.86
408.879	3.83
409.238	3.79
409.596	3.8
409.955	3.8
410.314	3.82
410.673	3.8
411.031	3.77
411.39	3.72
411.748	3.69
412.107	3.66
412.465	3.67
412.824	3.61
413.182	3.59
413.54	3.58
413.899	3.59
414.257	3.56
414.615	3.55
414.974	3.54
415.332	3.55
415.69	3.53
416.048	3.47
416.406	3.46
416.764	3.45
417.122	3.44
417.48	3.42
417.838	3.4
418.195	3.36
418.553	3.34
418.911	3.32
419.269	3.33
419.626	3.32
419.984	3.3
420.342	3.3
420.699	3.3
421.057	3.29
421.414	3.27
421.772	3.26
422.129	3.25
422.486	3.23
422.844	3.24
423.201	3.24
423.558	3.25
423.915	3.24
424.273	3.25
424.63	3.24
424.987	3.23
425.344	3.22
425.701	3.23
426.058	3.24
426.415	3.25
426.772	3.23
427.128	3.24
427.485	3.24
427.842	3.24
428.199	3.24
428.555	3.24
428.912	3.24
429.269	3.23
429.625	3.24
429.982	3.25
430.338	3.24
430.695	3.21
431.051	3.22
431.407	3.21
431.764	3.2
432.12	3.21
432.476	3.21
432.832	3.21
433.189	3.21
433.545	3.19
433.901	3.17
434.257	3.17
434.613	3.16
434.969	3.16
435.325	3.17
435.681	3.15
436.036	3.16
436.392	3.15
436.748	3.15
437.104	3.15
437.459	3.13
437.815	3.12
438.171	3.14
438.526	3.13
438.882	3.13
439.237	3.12
439.593	3.09
439.948	3.1
440.304	3.1
440.659	3.1
441.014	3.1
441.369	3.12
441.725	3.12
442.08	3.11
442.435	3.1
442.79	3.08
443.145	3.1
443.5	3.08
443.855	3.05
444.21	3.05
444.565	3.04
444.92	3.06
445.275	3.05
445.629	3.04
445.984	3.04
446.339	3.04
446.693	3.04
447.048	3.03
447.403	3.03
447.757	3.01
448.112	3.02
448.466	3.02
448.82	3
449.175	2.99
449.529	2.98
449.883	2.98
450.238	2.99
450.592	2.97
450.946	2.97
451.3	2.99
451.654	2.99
452.008	2.98
452.362	2.96
452.716	2.96
453.07	2.95
453.424	2.94
453.778	2.93
454.132	2.93
454.486	2.94
454.839	2.93
455.193	2.97
455.547	2.95
455.9	2.96
456.254	2.96
456.607	2.97
456.961	2.97
457.314	2.99
457.668	2.97
458.021	2.98
458.375	2.99
458.728	2.99
459.081	3
459.434	3.01
459.787	3.03
460.141	3.04
460.494	3.05
460.847	3.05
461.2	3.05
461.553	3.06
461.906	3.06
462.259	3.06
462.611	3.05
462.964	3.05
463.317	3.06
463.67	3.06
464.022	3.07
464.375	3.1
464.728	3.1
465.08	3.1
465.433	3.1
465.785	3.09
466.138	3.09
466.49	3.11
466.843	3.12
467.195	3.12
467.547	3.1
467.899	3.1
468.252	3.11
468.604	3.11
468.956	3.13
469.308	3.14
469.66	3.16
470.012	3.17
470.364	3.19
470.716	3.2
471.068	3.22
471.42	3.2
471.772	3.19
472.123	3.19
472.475	3.21
472.827	3.2
473.178	3.2
473.53	3.21
473.882	3.21
474.233	3.21
474.585	3.2
474.936	3.22
475.288	3.23
475.639	3.23
475.99	3.23
476.342	3.22
476.693	3.22
477.044	3.21
477.395	3.21
477.746	3.2
478.097	3.19
478.448	3.18
478.8	3.18
479.15	3.17
479.501	3.18
479.852	3.18
480.203	3.19
480.554	3.2
480.905	3.2
481.255	3.19
481.606	3.19
481.957	3.18
482.307	3.18
482.658	3.17
483.009	3.17
483.359	3.18
483.709	3.17
484.06	3.18
484.41	3.18
484.761	3.17
485.111	3.18
485.461	3.18
485.811	3.18
486.162	3.19
486.512	3.21
486.862	3.19
487.212	3.19
487.562	3.19
487.912	3.19
488.262	3.18
488.612	3.19
488.961	3.19
489.311	3.2
489.661	3.19
490.011	3.19
490.36	3.19
490.71	3.19
491.06	3.2
491.409	3.2
491.759	3.21
492.108	3.22
492.458	3.22
492.807	3.22
493.157	3.23
493.506	3.23
493.855	3.22
494.204	3.24
494.554	3.25
494.903	3.25
495.252	3.27
495.601	3.28
495.95	3.29
496.299	3.3
496.648	3.31
496.997	3.32
497.346	3.36
497.695	3.38
498.043	3.42
498.392	3.42
498.741	3.44
499.09	3.45
499.438	3.49
499.787	3.5
500.135	3.51
500.484	3.52
500.832	3.55
501.181	3.57
501.529	3.62
501.878	3.65
502.226	3.69
502.574	3.7
502.923	3.72
503.271	3.72
503.619	3.74
503.967	3.77
504.315	3.83
504.663	3.86
505.011	3.89
505.359	3.89
505.707	3.93
506.055	3.95
506.403	3.96
506.751	3.99
507.098	4.03
507.446	4.08
507.794	4.12
508.141	4.18
508.489	4.22
508.837	4.24
509.184	4.26
509.531	4.31
509.879	4.36
510.226	4.4
510.574	4.47
510.921	4.53
511.268	4.59
511.616	4.63
511.963	4.68
512.31	4.75
512.657	4.81
513.004	4.87
513.351	4.95
513.698	5.01
514.045	5.09
514.392	5.16
514.739	5.24
515.086	5.32
515.432	5.39
515.779	5.49
516.126	5.59
516.473	5.68
516.819	5.76
517.166	5.86
517.512	5.93
517.859	6.04
518.205	6.1
518.552	6.18
518.898	6.24
519.245	6.33
519.591	6.42
519.937	6.52
520.283	6.61
520.629	6.69
520.976	6.8
521.322	6.91
521.668	7.02
522.014	7.13
522.36	7.23
522.706	7.35
523.052	7.46
523.398	7.59
523.743	7.73
524.089	7.87
524.435	8
524.781	8.14
525.126	8.24
525.472	8.38
525.817	8.48
526.163	8.59
526.509	8.67
526.854	8.75
527.199	8.82
527.545	8.92
527.89	9
528.235	9.06
528.581	9.12
528.926	9.21
529.271	9.3
529.616	9.38
529.961	9.46
530.306	9.55
530.651	9.62
530.996	9.73
531.341	9.83
531.686	9.92
532.031	10.03
532.376	10.13
532.721	10.22
533.065	10.34
533.41	10.45
533.755	10.57
534.099	10.69
534.444	10.82
534.788	10.94
535.133	11.07
535.477	11.22
535.822	11.35
536.166	11.49
536.51	11.63
536.855	11.79
537.199	11.98
537.543	12.16
537.887	12.33
538.231	12.5
538.576	12.64
538.92	12.81
539.264	12.96
539.608	13.11
539.951	13.25
540.295	13.38
540.639	13.53
540.983	13.66
541.327	13.8
541.671	13.93
542.014	14.06
542.358	14.2
542.701	14.34
543.045	14.51
543.389	14.64
543.732	14.79
544.075	14.94
544.419	15.06
544.762	15.21
545.105	15.39
545.449	15.54
545.792	15.74
546.135	15.91
546.478	16.11
546.821	16.32
547.165	16.57
547.508	16.81
547.851	17.01
548.194	17.23
548.536	17.46
548.879	17.69
549.222	17.93
549.565	18.18
549.908	18.43
550.25	18.66
550.593	18.93
550.936	19.17
551.278	19.45
551.621	19.72
551.963	20.01
552.306	20.31
552.648	20.59
552.991	20.89
553.333	21.19
553.675	21.49
554.017	21.78
554.36	21.93
554.702	22.17
555.044	22.46
555.386	22.74
555.728	22.99
556.07	23.29
556.412	23.55
556.754	23.79
557.096	24.07
557.438	24.36
557.78	24.65
558.121	24.96
558.463	25.25
558.805	25.51
559.147	25.8
559.488	26.05
559.83	26.38
560.171	26.66
560.513	26.95
560.854	27.2
561.196	27.55
561.537	27.93
561.878	28.28
562.22	28.57
562.561	28.9
562.902	29.18
563.243	29.46
563.584	29.75
563.925	30.09
564.266	30.39
564.607	30.65
564.948	30.93
565.289	31.19
565.63	31.49
565.971	31.78
566.312	32.04
566.653	32.31
566.993	32.6
567.334	32.85
567.675	33.14
568.015	33.44
568.356	33.67
568.696	33.93
569.037	34.17
569.377	34.47
569.718	34.73
570.058	35.05
570.398	35.33
570.739	35.65
571.079	35.91
571.419	36.15
571.759	36.4
572.099	36.65
572.439	36.95
572.779	37.17
573.119	37.44
573.459	37.66
573.799	37.94
574.139	38.13
574.479	38.35
574.819	38.55
575.158	38.74
575.498	38.98
575.838	39.25
576.177	39.48
576.517	39.72
576.856	39.91
577.196	40.12
577.535	40.37
577.875	40.57
578.214	40.76
578.553	41.03
578.893	41.33
579.232	41.58
579.571	41.8
579.91	42.03
580.25	42.22
580.589	42.47
580.928	42.67
581.267	42.92
581.606	43.17
581.945	43.41
582.283	43.64
582.622	43.78
582.961	43.94
583.3	44.13
583.639	44.35
583.977	44.62
584.316	44.77
584.654	45.01
584.993	45.23
585.332	45.5
585.67	45.64
586.008	45.77
586.347	45.9
586.685	46.03
587.024	46.25
587.362	46.46
587.7	46.68
588.038	46.79
588.376	46.95
588.715	47.05
589.053	47.24
589.391	47.42
589.729	47.65
590.067	47.79
590.404	48.02
590.742	48.13
591.08	48.27
591.418	48.45
591.756	48.65
592.093	48.77
592.431	48.94
592.769	49.06
593.106	49.25
593.444	49.4
593.781	49.55
594.119	49.68
594.456	49.82
594.793	49.91
595.131	50.05
595.468	50.13
595.805	50.3
596.143	50.33
596.48	50.46
596.817	50.6
597.154	50.73
597.491	50.82
597.828	50.94
598.165	51.07
598.502	51.21
598.839	51.24
599.176	51.39
599.512	51.38
599.849	51.58
600.186	51.7
600.523	51.84
600.859	52
601.196	52.11
601.532	52.16
601.869	52.28
602.205	52.42
602.542	52.55
602.878	52.66
603.215	52.75
603.551	52.74
603.887	52.78
604.223	52.9
604.56	52.96
604.896	53.06
605.232	53.12
605.568	53.26
605.904	53.34
606.24	53.44
606.576	53.62
606.912	53.7
607.248	53.75
607.583	53.83
607.919	53.88
608.255	53.96
608.591	54.19
608.926	54.25
609.262	54.33
609.597	54.42
609.933	54.52
610.268	54.64
610.604	54.86
610.939	54.95
611.275	54.96
611.61	55.09
611.945	55.15
612.281	55.26
612.616	55.22
612.951	55.29
613.286	55.25
613.621	55.21
613.956	55.2
614.291	55.28
614.626	55.44
614.961	55.49
615.296	55.6
615.631	55.54
615.966	55.58
616.3	55.67
616.635	55.66
616.97	55.74
617.304	55.79
617.639	55.81
617.973	55.82
618.308	55.9
618.642	55.85
618.977	55.89
619.311	55.92
619.646	55.99
619.98	56.15
620.314	56.24
620.648	56.43
620.983	56.52
621.317	56.62
621.651	56.57
621.985	56.7
622.319	56.64
622.653	56.72
622.987	56.72
623.321	56.71
623.655	56.85
623.988	56.75
624.322	56.69
624.656	56.63
624.99	56.7
625.323	56.87
625.657	56.97
625.99	57
626.324	57.06
626.657	57.12
626.991	57.01
627.324	57.01
627.658	56.95
627.991	56.93
628.324	56.89
628.657	56.9
628.991	56.88
629.324	57.01
629.657	57.05
629.99	57.17
630.323	57.23
630.656	57.23
630.989	57.32
631.322	57.4
631.655	57.53
631.987	57.64
632.32	57.51
632.653	57.46
632.986	57.45
633.318	57.48
633.651	57.57
633.984	57.67
634.316	57.76
634.649	57.84
634.981	58
635.313	58.1
635.646	58.19
635.978	58.3
636.31	58.26
636.643	58.18
636.975	58.2
637.307	58.09
637.639	58.07
637.971	58.07
638.303	58.13
638.635	58.04
638.967	57.98
639.299	58.04
639.631	58.13
639.963	58.27
640.295	58.28
640.626	58.35
640.958	58.39
641.29	58.68
641.621	58.78
641.953	58.66
642.285	58.6
642.616	58.64
642.948	58.73
643.279	58.76
643.61	58.87
643.942	58.94
644.273	59.13
644.604	59.12
644.936	59.25
645.267	59.34
645.598	59.45
645.929	59.46
646.26	59.53
646.591	59.52
646.922	59.47
647.253	59.45
647.584	59.41
647.915	59.32
648.245	59
648.576	58.92
648.907	59.11
649.238	59.17
649.568	59.25
649.899	59.09
650.229	59.14
650.56	59.06
650.89	59.08
651.221	59.11
651.551	59.31
651.882	59.27
652.212	59.31
652.542	59.43
652.872	59.41
653.203	59.41
653.533	59.41
653.863	59.34
654.193	59.41
654.523	59.44
654.853	59.6
655.183	59.77
655.513	59.83
655.843	59.75
656.172	59.87
656.502	59.89
656.832	59.92
657.162	59.85
657.491	59.99
657.821	59.85
658.15	59.75
658.48	59.7
658.809	59.71
659.139	59.74
659.468	59.64
659.798	59.77
660.127	59.74
660.456	59.82
660.785	59.91
661.115	59.83
661.444	59.78
661.773	59.79
662.102	59.71
662.431	59.66
662.76	59.6
663.089	59.5
663.418	59.39
663.747	59.43
664.076	59.52
664.404	59.4
664.733	59.42
665.062	59.46
665.39	59.49
665.719	59.53
666.048	59.53
666.376	59.63
666.705	59.65
667.033	59.59
667.362	59.51
667.69	59.49
668.018	59.53
668.347	59.58
668.675	59.52
669.003	59.52
669.331	59.59
669.659	59.54
669.987	59.58
670.315	59.6
670.643	59.53
670.971	59.49
671.299	59.56
671.627	59.69
671.955	59.81
672.283	59.93
672.61	59.95
672.938	59.77
673.266	59.72
673.593	59.71
673.921	59.76
674.249	59.83
674.576	59.81
674.904	59.79
675.231	59.89
675.558	60
675.886	60
676.213	59.99
676.54	60.09
676.867	60.1
677.195	60.16
677.522	60.21
677.849	60.35
678.176	60.44
678.503	60.48
678.83	60.41
679.157	60.34
679.484	60.26
679.81	60.43
680.137	60.43
680.464	60.42
680.791	60.44
681.117	60.39
681.444	60.49
681.771	60.62
682.097	60.5
682.424	60.49
682.75	60.55
683.077	60.57
683.403	60.52
683.729	60.36
684.056	60.39
684.382	60.43
684.708	60.3
685.034	60.19
685.36	60.17
685.686	60.28
686.012	60.22
686.339	60.33
686.664	60.28
686.99	60.26
687.316	60.16
687.642	60.21
687.968	60.26
688.294	60.18
688.619	60.1
688.945	60.08
689.271	60.13
689.596	60.22
689.922	60.28
690.247	60.39
690.573	60.62
690.898	60.67
691.224	60.73
691.549	60.91
691.874	60.9
692.2	60.95
692.525	60.83
692.85	60.81
693.175	60.81
693.5	60.83
693.825	60.88
694.15	60.89
694.475	60.89
694.8	60.72
695.125	60.83
695.45	60.81
695.775	60.77
696.099	60.64
696.424	60.51
696.749	60.44
697.073	60.35
697.398	60.39
697.723	60.37
698.047	60.41
698.372	60.11
698.696	60.29
699.02	60.27
699.345	60.3
699.669	60.3
699.993	60.24
700.318	60.19
700.642	60.26
700.966	60.25
701.29	60.22
701.614	60.43
701.938	60.32
702.262	60.26
702.586	60.34
702.91	60.45
703.234	60.6
703.557	60.63
703.881	60.86
704.205	60.75
704.529	60.67
704.852	60.59
705.176	60.88
705.499	60.75
705.823	60.67
706.146	60.59
706.47	60.62
706.793	60.63
707.117	60.55
707.44	60.56
707.763	60.54
708.086	60.5
708.409	60.49
708.733	60.42
709.056	60.69
709.379	60.65
709.702	60.75
710.025	60.65
710.348	60.62
710.671	60.6
710.993	60.62
711.316	60.65
711.639	60.51
711.962	60.37
712.284	60.27
712.607	60.33
712.93	60.34
713.252	60.17
713.575	60.12
713.897	60.29
714.22	60.17
714.542	60.38
714.864	60.55
715.187	60.49
715.509	60.63
715.831	60.5
716.153	60.6
716.475	60.36
716.798	60.36
717.12	60.3
717.442	60.13
717.764	60.16
718.085	60.26
718.407	60.51
718.729	60.65
719.051	60.65
719.373	60.57
719.695	60.65
720.016	60.92
720.338	61.02
720.659	60.9
720.981	60.89
721.302	60.75
721.624	60.73
721.945	60.89
722.267	60.97
722.588	60.99
722.909	60.87
723.231	60.82
723.552	60.62
723.873	60.7
724.194	60.67
724.515	60.86
724.836	60.73
725.157	60.5
725.478	60.65
725.799	60.76
726.12	60.67
726.441	60.65
726.762	60.73
727.083	60.88
727.403	60.89
727.724	61
728.045	61.17
728.365	60.99
728.686	60.96
729.006	60.97
729.327	60.78
729.647	60.83
729.967	60.86
730.288	61.11
730.608	61.25
730.928	61.39
731.249	61.2
731.569	61.05
731.889	61.2
732.209	60.95
732.529	60.7
732.849	60.77
733.169	60.92
733.489	60.8
733.809	60.88
734.129	60.9
734.448	60.91
734.768	60.9
735.088	61.01
735.408	60.75
735.727	60.63
736.047	60.82
736.366	60.77
736.686	60.85
737.005	60.73
737.325	60.5
737.644	60.32
737.963	60.56
738.283	60.69
738.602	60.56
738.921	60.69
739.24	60.96
739.56	61.17
739.879	61.03
740.198	61.14
740.517	60.94
740.836	61.05
741.155	60.99
741.473	60.65
741.792	60.6
742.111	60.78
742.43	60.86
742.748	60.94
743.067	61.1
743.386	61.15
743.704	61.28
744.023	61.34
744.341	61.68
744.66	61.4
744.978	61.17
745.297	61.12
745.615	61.03
745.933	60.95
746.252	60.8
746.57	60.65
746.888	60.61
747.206	60.64
747.524	60.46
747.842	60.37
748.16	60.66
748.478	60.75
748.796	60.73
749.114	60.63
749.432	60.19
749.749	60.13
750.067	60.24
750.385	59.98
750.703	59.86
751.02	59.62
751.338	59.74
751.655	60.16
751.973	60.36
752.29	60.48
752.608	60.41
752.925	60.58
753.242	60.71
753.56	60.79
753.877	60.73
754.194	60.98
754.511	61.23
754.828	61.21
755.145	61.33
755.462	61.59
755.779	61.38
756.096	61.65
756.413	61.49
756.73	61.56
757.047	61.46
757.364	61.31
757.68	61.52
757.997	61.3
758.314	61.31
758.63	61.06
758.947	61.13
759.264	61.11
759.58	61.22
759.896	61.48
760.213	61.09
760.529	61.26
760.846	61.33
761.162	61.5
761.478	61.57
761.794	61.75
762.11	61.74
762.426	62.03
762.743	62.11
763.059	62.22
763.375	61.88
763.69	61.94
764.006	62.21
764.322	61.77
764.638	61.67
764.954	61.87
765.27	62.13
765.585	61.98
765.901	62.2
766.216	62.11
766.532	62
766.848	62.16
767.163	62.09
767.478	61.93
767.794	61.57
768.109	61.43
768.424	60.99
768.74	60.91
769.055	60.75
769.37	60.63
769.685	60.71
770	60.91
770.315	60.98
770.63	61.14
770.945	61.47
771.26	61.76
771.575	61.28
771.89	61.01
772.205	61.06
772.52	60.71
772.834	60.52
773.149	60.62
773.464	60.81
773.778	60.72
774.093	60.87
774.407	61.09
774.722	60.83
775.036	61.22
775.351	61.07
775.665	60.88
775.979	61.04
776.293	60.92
776.608	60.89
776.922	61.1
777.236	61.06
777.55	61.4
777.864	61.25
778.178	61.39
778.492	61.65
778.806	62.13
779.12	62.57
779.434	62.91
779.747	62.61
780.061	62.37
780.375	62.12
780.689	61.81
781.002	62.08
781.316	62.83
781.629	62.81
781.943	62.61
782.256	63.02
782.57	62.53
782.883	62.95
783.196	63.22
783.51	63.23
783.823	63.23
784.136	63.02
784.449	63.4
784.762	63.81
785.075	63.75
785.388	63.11
785.701	62.98
786.014	62.99
786.327	62.69
786.64	62.89
786.953	62.8
787.266	63.17
787.578	62.74
787.891	62.27
788.204	62.06
788.516	61.94
788.829	61.97
789.141	62.3
789.454	62.21
789.766	62.16
790.079	62.64
790.391	62.56
790.703	63
791.016	62.95
791.328	62.82
791.64	62.77
791.952	62.95
792.264	62.82
792.576	62.71
792.888	63.02
793.2	63.42
793.512	64.04
793.824	64.19
794.136	64.35
794.448	63.99
794.76	63.93
795.071	64.46
795.383	64.41
795.695	63.83
796.006	63.47
796.318	63.72
796.629	63.07
796.941	63.23
797.252	62.7
797.564	62.45
797.875	62.06
798.186	62.11
798.497	61.9
798.809	62.5
799.12	62.52
799.431	62.85
799.742	62.48
800.053	62.14
800.364	62.4
800.675	62.53
800.986	62.64
801.297	63.32
801.608	63.1
801.918	62.91
802.229	63.29
802.54	63.11
802.851	62.56
803.161	63.16
803.472	63.16
803.782	63.12
804.093	62.62
804.403	62.67
804.714	62.47
805.024	63.09
805.334	62.21
805.645	61.83
805.955	61.92
806.265	61.72
806.575	61.34
806.885	60.48
807.195	60.49
807.505	60.28
807.815	60.04
808.125	59.71
808.435	59.98
808.745	60.35
809.055	60.56
809.365	60.32
809.674	59.57
809.984	59.26
810.294	59.24
810.603	59.93
810.913	60.49
811.222	60.54
811.532	60.54
811.841	60.85
812.151	60.8
812.46	59.83
812.769	59.95
813.079	61.04
813.388	61.08
813.697	60.76
814.006	61.2
814.315	60.53
814.624	61.53
814.933	61.4
815.242	61.33
815.551	60.93
815.86	61.49
816.169	60.87
816.478	60.52
816.786	60.69
817.095	60.3
817.404	59.16
817.712	59.28
818.021	58.95
818.33	58.33
818.638	58.88
818.947	59.58
819.255	59.57
819.563	59.28
819.872	59.48
820.18	59.83
820.488	59.88
820.796	60.14
821.105	60.24
821.413	60.41
821.721	60.47
822.029	60.93
822.337	61.22
822.645	61.55
822.953	61.91
823.26	61.91
823.568	62.04
823.876	62.3
824.184	62.48
824.491	62.59
824.799	62.7
825.107	62.77
825.414	62.84
825.722	62.8
826.029	63.18
826.337	63.34
826.644	63.39
826.951	63.41
827.259	63.53
827.566	63.52
827.873	63.42
828.18	63.48
828.488	62.99
828.795	62.77
829.102	62.73
829.409	62.47
829.716	62.75
830.023	63.2
830.329	62.9
830.636	62.7
830.943	62.45
831.25	62.56
831.557	62.3
831.863	62.16
832.17	62.58
832.476	61.96
832.783	61.99
833.089	62
833.396	62.41
833.702	62.14
834.009	61.95
834.315	62.15
834.621	62.47
834.928	62.99
835.234	62.82
835.54	62.77
835.846	62.6
836.152	62.29
836.458	61.81
836.764	61.74
837.07	61.24
837.376	61.29
837.682	61.34
837.988	61.98
838.293	61.96
838.599	61.87
838.905	61.8
839.211	61.22
839.516	61.54
839.822	62.01
840.127	62.79
840.433	63.01
840.738	62.74
841.044	62.93
841.349	62.67
841.654	62.96
841.959	62.24
842.265	62.81
842.57	62.36
842.875	62.94
843.18	63.28
843.485	63.5
843.79	63.39
844.095	63.52
844.4	62.76
844.705	63.48
845.01	64.29
845.315	64.32
845.619	64.44
845.924	63.92
846.229	62.96
846.533	62.39
846.838	62.29
847.142	62.15
847.447	61.57
847.751	61.34
848.056	61.12
848.36	62
848.664	61.4
848.969	62.35
849.273	60.59
849.577	61.3
849.881	63.46
850.185	64.66
850.489	65.26
850.794	64.35
851.097	63.36
851.401	64.05
851.705	64.21
852.009	65.81
852.313	64.84
852.617	63.52
852.92	64.68
853.224	65.74
853.528	65.62
853.831	64.38
854.135	64.57
854.438	64.35
854.742	65.1
855.045	65.82
855.349	65.95
855.652	68.01
855.955	66.95
856.259	64.84
856.562	66.11
856.865	65.98
857.168	67.49
857.471	67.2
857.774	64.8
858.077	64.29
858.38	62.71
858.683	62.58
858.986	65.01
859.289	63.23
859.592	61.69
859.894	64.63
860.197	65.19
860.5	67.02
860.802	69.07
861.105	68.15
861.407	67.89
861.71	67.4
862.012	65.02
862.315	67.8
862.617	69.1
862.919	66.85
863.222	66.38
863.524	65.56
863.826	66.11
864.128	67.08
864.43	68.89
864.732	71.08
865.034	71.4
865.336	71.74
865.638	72
865.94	74.25
866.242	73.19
866.544	74.83
866.846	73.34
867.147	72.6
867.449	75.46
867.751	74.58
868.052	76.97
868.354	77.97
868.655	76.89
868.957	76.84
869.258	75.99
869.56	72.83
869.861	73.14
870.162	75.17
870.463	75.26
870.765	75.92
871.066	73.02
871.367	74.74
871.668	71.84
871.969	72.81
872.27	71.58
872.571	69.38
872.872	68.52
873.173	68.44
873.473	66.79
873.774	65.24
874.075	66.63
874.376	63.92
874.676	63.5
874.977	64.99
875.277	64.42
875.578	66.05
875.878	69.35
876.179	68.78
876.479	67.16
876.78	66.55
877.08	64.29
877.38	66.35
877.68	65.07
877.981	67.68
878.281	66.81
878.581	67.21
