Data from BU58131_Reflection_00013.txt Node
Date: Mon Nov 18 16:32:36 EST 2019
User: vgr7
Spectrometer: USB2G7710
Scans to average: 3
Trigger mode: 4
Integration Time (sec): 2.000000E-2
Electric dark correction enabled: true
Boxcar width: 10
XAxis mode: Wavelengths
Number of Pixels in Spectrum: 2048
>>>>>Begin Spectral Data<<<<<
177.721	243.77
178.105	55.22
178.488	32.67
178.871	39.73
179.254	26.83
179.636	-181.25
180.019	448.07
180.402	4.76
180.785	-140.25
181.168	100
181.55	40.67
181.933	42.21
182.316	49.66
182.698	40.16
183.081	24.86
183.463	-3.25
183.846	19.84
184.228	12.62
184.611	-2.51
184.993	7.42
185.376	-26.37
185.758	-13.5
186.14	30.32
186.522	50.43
186.904	61.51
187.287	84.5
187.669	112.39
188.051	162.56
188.433	382.84
188.815	257.39
189.197	833.91
189.579	-194.8
189.961	-130.22
190.342	-140.08
190.724	-139.07
191.106	-274.16
191.488	-172.26
191.869	-131.62
192.251	-164.06
192.633	-146.56
193.014	-266.91
193.396	-245.8
193.777	-193.44
194.159	-192.6
194.54	-242.73
194.922	-206.06
195.303	-186.23
195.684	-236.71
196.065	-105.95
196.447	-71.39
196.828	-121.32
197.209	-76.95
197.59	-90.83
197.971	-96.34
198.352	-39.86
198.733	-39.79
199.114	-8.31
199.495	-10.61
199.876	-19.49
200.257	-26.63
200.638	-11.35
201.018	-2.38
201.399	-2.51
201.78	18.22
202.16	18.38
202.541	-2.23
202.922	-35.04
203.302	-38.54
203.683	-25.75
204.063	-51.49
204.444	-72.5
204.824	-84.98
205.204	-87.62
205.585	-106.99
205.965	-74.64
206.345	-206.85
206.725	-563.16
207.106	-871.35
207.486	-3147.42
207.866	620.34
208.246	15621.74
208.626	1819.67
209.006	-1256.92
209.386	1127.4
209.766	1400.34
210.145	-905.54
210.525	-176.14
210.905	-147.92
211.285	-192.83
211.664	-249.54
212.044	-206.05
212.424	-152.53
212.803	-134.32
213.183	-165.52
213.562	-155.89
213.942	-158.87
214.321	-101.16
214.701	-88.79
215.08	-94.44
215.459	-93.35
215.838	-75.46
216.218	-59.01
216.597	-41.59
216.976	-53.87
217.355	-52.82
217.734	-49.96
218.113	-57.47
218.492	-61.17
218.871	-79.54
219.25	-62.18
219.629	-66.37
220.008	-62.44
220.387	-88.61
220.766	-76.56
221.144	-89.32
221.523	-70.57
221.902	-79.15
222.28	-106.55
222.659	-97.38
223.037	-98.69
223.416	-100.09
223.794	-110.03
224.173	-114.04
224.551	-93.89
224.929	-81.65
225.308	-58.48
225.686	-52.93
226.064	-52.65
226.442	-59.17
226.821	-48.19
227.199	-42.66
227.577	-38.99
227.955	-35.19
228.333	-28.88
228.711	-27.97
229.089	-17.51
229.467	-22.31
229.845	-18.48
230.222	-15.5
230.6	-16.78
230.978	-12.89
231.356	-8.6
231.733	-6.94
232.111	-5.63
232.488	-4.47
232.866	-3.91
233.243	-4.32
233.621	-5.99
233.998	-5.6
234.376	-3.15
234.753	-1.55
235.13	-2.19
235.508	-0.79
235.885	-0.64
236.262	-3.32
236.639	-2.86
237.016	-2.86
237.393	-0.89
237.77	-0.47
238.147	-0.12
238.524	0.91
238.901	1.59
239.278	1.1
239.655	1.9
240.032	1.79
240.409	1.91
240.785	1.75
241.162	2.27
241.539	2.87
241.915	3.11
242.292	2.75
242.668	2.76
243.045	3.01
243.421	3.13
243.798	3.05
244.174	3.49
244.551	3.72
244.927	3.61
245.303	3.98
245.679	4.19
246.056	4.03
246.432	3.98
246.808	3.79
247.184	3.77
247.56	3.61
247.936	3.66
248.312	3.63
248.688	3.63
249.064	3.56
249.44	3.54
249.815	3.55
250.191	3.66
250.567	3.71
250.943	3.81
251.318	3.75
251.694	3.51
252.069	3.4
252.445	3.25
252.82	3.17
253.196	2.93
253.571	2.7
253.947	2.78
254.322	2.46
254.697	2.4
255.073	2.48
255.448	2.6
255.823	2.46
256.198	2.38
256.573	2.47
256.948	2.39
257.323	2.57
257.698	2.52
258.073	2.38
258.448	2.39
258.823	2.19
259.198	2.24
259.573	2.29
259.948	2.35
260.322	2.4
260.697	2.47
261.072	2.49
261.446	2.52
261.821	2.51
262.195	2.75
262.57	2.65
262.944	2.68
263.319	2.64
263.693	2.58
264.067	2.62
264.442	2.81
264.816	2.68
265.19	2.45
265.564	2.48
265.938	2.45
266.313	2.26
266.687	2.29
267.061	2.2
267.435	2.41
267.809	2.42
268.183	2.42
268.556	2.39
268.93	2.44
269.304	2.36
269.678	2.28
270.051	2.12
270.425	2.37
270.799	2.27
271.172	2.2
271.546	2.26
271.919	2.19
272.293	2.07
272.666	2.31
273.04	2.49
273.413	2.43
273.787	2.36
274.16	2.47
274.533	2.56
274.906	2.46
275.279	2.42
275.653	2.51
276.026	2.39
276.399	2.36
276.772	2.34
277.145	2.26
277.518	2.24
277.891	2.27
278.263	2.12
278.636	2.07
279.009	2.17
279.382	2.36
279.755	2.23
280.127	2.21
280.5	2.12
280.872	2.04
281.245	2.05
281.617	2.3
281.99	2.33
282.362	2.24
282.735	2.21
283.107	2.05
283.479	1.96
283.852	2.12
284.224	2.08
284.596	2.05
284.968	2.24
285.34	2.45
285.713	2.45
286.085	2.53
286.457	2.6
286.829	2.65
287.201	2.54
287.572	2.58
287.944	2.58
288.316	2.62
288.688	2.56
289.06	2.7
289.431	2.64
289.803	2.66
290.175	2.72
290.546	2.91
290.918	3.11
291.289	3.14
291.661	3.2
292.032	3.33
292.403	3.38
292.775	3.29
293.146	3.21
293.517	3.28
293.889	3.34
294.26	3.41
294.631	3.31
295.002	3.35
295.373	3.47
295.744	3.54
296.115	3.6
296.486	3.71
296.857	3.67
297.228	3.75
297.599	3.76
297.97	3.87
298.34	3.85
298.711	4
299.082	4.04
299.452	4.12
299.823	4.15
300.194	4.18
300.564	4.23
300.935	4.14
301.305	4.27
301.676	4.33
302.046	4.37
302.416	4.47
302.787	4.62
303.157	4.76
303.527	4.81
303.897	4.74
304.267	4.75
304.637	4.76
305.008	4.92
305.378	4.99
305.748	5.07
306.117	5.04
306.487	4.97
306.857	5.04
307.227	5.03
307.597	5.05
307.967	5.02
308.336	5.14
308.706	5.35
309.076	5.36
309.445	5.34
309.815	5.39
310.184	5.46
310.554	5.46
310.923	5.41
311.293	5.36
311.662	5.46
312.031	5.58
312.401	5.64
312.77	5.59
313.139	5.74
313.508	5.71
313.877	5.94
314.246	6.04
314.616	6.1
314.985	6.1
315.353	6.17
315.722	6.39
316.091	6.47
316.46	6.45
316.829	6.58
317.198	6.65
317.567	6.77
317.935	6.72
318.304	6.76
318.672	6.75
319.041	6.97
319.41	7.1
319.778	7.08
320.147	7.3
320.515	7.44
320.883	7.32
321.252	7.46
321.62	7.34
321.988	7.48
322.357	7.54
322.725	7.76
323.093	7.84
323.461	7.83
323.829	7.82
324.197	7.98
324.565	7.99
324.933	8.05
325.301	7.99
325.669	8.17
326.037	8.29
326.405	8.46
326.772	8.51
327.14	8.43
327.508	8.59
327.875	8.61
328.243	8.75
328.61	8.86
328.978	8.97
329.346	9.22
329.713	9.17
330.08	9.28
330.448	9.19
330.815	9.2
331.182	9.27
331.55	9.34
331.917	9.6
332.284	9.66
332.651	9.78
333.018	9.83
333.385	9.85
333.752	9.84
334.119	9.93
334.486	10.02
334.853	10.15
335.22	10.07
335.587	10.14
335.954	10.07
336.32	10.17
336.687	10.13
337.054	10.14
337.42	10.15
337.787	10.11
338.153	10.12
338.52	10.28
338.886	10.14
339.253	10.12
339.619	9.95
339.986	10.09
340.352	10.15
340.718	10.29
341.084	10.29
341.451	10.31
341.817	10.34
342.183	10.26
342.549	10.31
342.915	10.43
343.281	10.42
343.647	10.45
344.013	10.47
344.379	10.47
344.745	10.42
345.11	10.49
345.476	10.61
345.842	10.62
346.208	10.58
346.573	10.79
346.939	10.97
347.304	11.01
347.67	10.93
348.035	10.9
348.401	10.89
348.766	11.02
349.132	11.01
349.497	10.89
349.862	10.97
350.228	10.96
350.593	10.93
350.958	10.85
351.323	10.82
351.688	10.8
352.053	10.9
352.418	10.98
352.783	11.01
353.148	10.98
353.513	10.92
353.878	10.86
354.243	10.79
354.608	10.68
354.972	10.69
355.337	10.66
355.702	10.77
356.066	10.75
356.431	10.64
356.795	10.66
357.16	10.63
357.524	10.51
357.889	10.45
358.253	10.44
358.618	10.51
358.982	10.48
359.346	10.42
359.71	10.36
360.075	10.27
360.439	10.25
360.803	10.16
361.167	10.16
361.531	10.12
361.895	10.07
362.259	10.02
362.623	9.94
362.987	9.88
363.351	9.78
363.714	9.7
364.078	9.65
364.442	9.54
364.806	9.5
365.169	9.55
365.533	9.52
365.896	9.44
366.26	9.35
366.623	9.3
366.987	9.23
367.35	9.09
367.714	9.07
368.077	8.96
368.44	8.94
368.803	8.95
369.167	8.91
369.53	8.8
369.893	8.8
370.256	8.78
370.619	8.69
370.982	8.58
371.345	8.49
371.708	8.43
372.071	8.39
372.434	8.39
372.797	8.24
373.159	8.18
373.522	8.18
373.885	8.12
374.247	8.05
374.61	8.01
374.973	7.94
375.335	7.82
375.698	7.71
376.06	7.58
376.423	7.46
376.785	7.43
377.147	7.46
377.51	7.37
377.872	7.31
378.234	7.29
378.596	7.2
378.958	7.15
379.321	7.11
379.683	7.07
380.045	6.95
380.407	6.87
380.769	6.84
381.13	6.68
381.492	6.56
381.854	6.5
382.216	6.39
382.578	6.4
382.939	6.32
383.301	6.29
383.663	6.3
384.024	6.26
384.386	6.15
384.747	6.1
385.109	6.05
385.47	5.98
385.832	5.92
386.193	5.96
386.554	5.9
386.916	5.86
387.277	5.81
387.638	5.81
387.999	5.77
388.36	5.72
388.721	5.67
389.082	5.67
389.443	5.59
389.804	5.56
390.165	5.48
390.526	5.41
390.887	5.36
391.248	5.32
391.609	5.29
391.969	5.3
392.33	5.2
392.691	5.13
393.051	5.09
393.412	5.03
393.772	4.91
394.133	4.89
394.493	4.84
394.854	4.75
395.214	4.66
395.574	4.62
395.935	4.53
396.295	4.54
396.655	4.46
397.015	4.44
397.376	4.38
397.736	4.32
398.096	4.33
398.456	4.34
398.816	4.27
399.176	4.19
399.535	4.13
399.895	4.12
400.255	4.13
400.615	4.07
400.975	4.03
401.334	4.01
401.694	3.96
402.054	3.9
402.413	3.91
402.773	3.87
403.132	3.84
403.492	3.81
403.851	3.76
404.211	3.75
404.57	3.72
404.929	3.71
405.288	3.71
405.648	3.67
406.007	3.6
406.366	3.58
406.725	3.58
407.084	3.55
407.443	3.52
407.802	3.49
408.161	3.5
408.52	3.48
408.879	3.45
409.238	3.49
409.596	3.48
409.955	3.48
410.314	3.48
410.673	3.47
411.031	3.5
411.39	3.48
411.748	3.48
412.107	3.48
412.465	3.49
412.824	3.49
413.182	3.48
413.54	3.47
413.899	3.47
414.257	3.46
414.615	3.44
414.974	3.45
415.332	3.42
415.69	3.4
416.048	3.38
416.406	3.35
416.764	3.28
417.122	3.3
417.48	3.28
417.838	3.28
418.195	3.26
418.553	3.24
418.911	3.24
419.269	3.21
419.626	3.2
419.984	3.18
420.342	3.17
420.699	3.14
421.057	3.13
421.414	3.12
421.772	3.11
422.129	3.1
422.486	3.08
422.844	3.09
423.201	3.07
423.558	3.06
423.915	3.07
424.273	3.06
424.63	3.04
424.987	3.02
425.344	3.02
425.701	3.01
426.058	2.98
426.415	2.96
426.772	2.97
427.128	2.95
427.485	2.95
427.842	2.92
428.199	2.92
428.555	2.89
428.912	2.89
429.269	2.89
429.625	2.87
429.982	2.85
430.338	2.82
430.695	2.8
431.051	2.8
431.407	2.8
431.764	2.8
432.12	2.78
432.476	2.8
432.832	2.77
433.189	2.77
433.545	2.75
433.901	2.74
434.257	2.73
434.613	2.74
434.969	2.73
435.325	2.74
435.681	2.75
436.036	2.76
436.392	2.76
436.748	2.74
437.104	2.74
437.459	2.72
437.815	2.73
438.171	2.75
438.526	2.75
438.882	2.76
439.237	2.75
439.593	2.75
439.948	2.75
440.304	2.74
440.659	2.74
441.014	2.76
441.369	2.77
441.725	2.75
442.08	2.75
442.435	2.74
442.79	2.74
443.145	2.75
443.5	2.74
443.855	2.72
444.21	2.72
444.565	2.72
444.92	2.75
445.275	2.72
445.629	2.71
445.984	2.7
446.339	2.69
446.693	2.68
447.048	2.66
447.403	2.64
447.757	2.64
448.112	2.63
448.466	2.61
448.82	2.59
449.175	2.6
449.529	2.6
449.883	2.61
450.238	2.61
450.592	2.6
450.946	2.59
451.3	2.58
451.654	2.56
452.008	2.55
452.362	2.53
452.716	2.55
453.07	2.55
453.424	2.55
453.778	2.53
454.132	2.52
454.486	2.52
454.839	2.53
455.193	2.54
455.547	2.54
455.9	2.55
456.254	2.58
456.607	2.56
456.961	2.54
457.314	2.53
457.668	2.53
458.021	2.52
458.375	2.53
458.728	2.53
459.081	2.56
459.434	2.54
459.787	2.56
460.141	2.56
460.494	2.56
460.847	2.57
461.2	2.58
461.553	2.6
461.906	2.63
462.259	2.64
462.611	2.66
462.964	2.67
463.317	2.66
463.67	2.65
464.022	2.66
464.375	2.68
464.728	2.69
465.08	2.69
465.433	2.7
465.785	2.7
466.138	2.7
466.49	2.7
466.843	2.71
467.195	2.72
467.547	2.73
467.899	2.75
468.252	2.75
468.604	2.77
468.956	2.76
469.308	2.74
469.66	2.74
470.012	2.74
470.364	2.73
470.716	2.75
471.068	2.76
471.42	2.76
471.772	2.78
472.123	2.8
472.475	2.81
472.827	2.82
473.178	2.84
473.53	2.83
473.882	2.83
474.233	2.84
474.585	2.8
474.936	2.79
475.288	2.77
475.639	2.8
475.99	2.78
476.342	2.79
476.693	2.82
477.044	2.84
477.395	2.84
477.746	2.84
478.097	2.84
478.448	2.82
478.8	2.82
479.15	2.79
479.501	2.79
479.852	2.78
480.203	2.77
480.554	2.79
480.905	2.8
481.255	2.81
481.606	2.82
481.957	2.84
482.307	2.84
482.658	2.84
483.009	2.83
483.359	2.84
483.709	2.85
484.06	2.83
484.41	2.83
484.761	2.84
485.111	2.83
485.461	2.83
485.811	2.83
486.162	2.82
486.512	2.83
486.862	2.84
487.212	2.83
487.562	2.83
487.912	2.82
488.262	2.81
488.612	2.81
488.961	2.8
489.311	2.8
489.661	2.8
490.011	2.81
490.36	2.8
490.71	2.81
491.06	2.81
491.409	2.8
491.759	2.8
492.108	2.8
492.458	2.81
492.807	2.82
493.157	2.84
493.506	2.86
493.855	2.87
494.204	2.87
494.554	2.89
494.903	2.9
495.252	2.91
495.601	2.95
495.95	2.96
496.299	2.98
496.648	2.99
496.997	3
497.346	3.01
497.695	3.05
498.043	3.07
498.392	3.06
498.741	3.1
499.09	3.1
499.438	3.12
499.787	3.14
500.135	3.16
500.484	3.17
500.832	3.21
501.181	3.24
501.529	3.25
501.878	3.32
502.226	3.36
502.574	3.39
502.923	3.4
503.271	3.45
503.619	3.49
503.967	3.54
504.315	3.59
504.663	3.64
505.011	3.68
505.359	3.7
505.707	3.78
506.055	3.84
506.403	3.9
506.751	3.95
507.098	4
507.446	4.07
507.794	4.14
508.141	4.18
508.489	4.25
508.837	4.33
509.184	4.37
509.531	4.43
509.879	4.5
510.226	4.58
510.574	4.64
510.921	4.7
511.268	4.79
511.616	4.86
511.963	4.92
512.31	5
512.657	5.1
513.004	5.18
513.351	5.28
513.698	5.38
514.045	5.47
514.392	5.58
514.739	5.66
515.086	5.74
515.432	5.86
515.779	5.94
516.126	6.05
516.473	6.15
516.819	6.26
517.166	6.35
517.512	6.44
517.859	6.56
518.205	6.66
518.552	6.75
518.898	6.84
519.245	6.95
519.591	7.03
519.937	7.12
520.283	7.23
520.629	7.33
520.976	7.44
521.322	7.58
521.668	7.7
522.014	7.85
522.36	8
522.706	8.14
523.052	8.33
523.398	8.48
523.743	8.65
524.089	8.82
524.435	8.97
524.781	9.12
525.126	9.26
525.472	9.38
525.817	9.49
526.163	9.61
526.509	9.71
526.854	9.83
527.199	9.93
527.545	10.02
527.89	10.12
528.235	10.23
528.581	10.32
528.926	10.43
529.271	10.54
529.616	10.64
529.961	10.74
530.306	10.85
530.651	10.97
530.996	11.09
531.341	11.2
531.686	11.34
532.031	11.47
532.376	11.59
532.721	11.73
533.065	11.87
533.41	12.02
533.755	12.16
534.099	12.33
534.444	12.48
534.788	12.64
535.133	12.79
535.477	12.96
535.822	13.12
536.166	13.3
536.51	13.47
536.855	13.7
537.199	13.92
537.543	14.12
537.887	14.34
538.231	14.56
538.576	14.79
538.92	15.04
539.264	15.24
539.608	15.45
539.951	15.66
540.295	15.86
540.639	16.04
540.983	16.22
541.327	16.38
541.671	16.57
542.014	16.76
542.358	16.94
542.701	17.1
543.045	17.28
543.389	17.44
543.732	17.64
544.075	17.83
544.419	18
544.762	18.2
545.105	18.4
545.449	18.62
545.792	18.83
546.135	19.06
546.478	19.32
546.821	19.58
547.165	19.83
547.508	20.11
547.851	20.41
548.194	20.66
548.536	20.91
548.879	21.18
549.222	21.46
549.565	21.74
549.908	22.02
550.25	22.33
550.593	22.64
550.936	22.93
551.278	23.21
551.621	23.53
551.963	23.86
552.306	24.15
552.648	24.45
552.991	24.73
553.333	25.01
553.675	25.25
554.017	25.49
554.36	25.77
554.702	26.01
555.044	26.25
555.386	26.52
555.728	26.81
556.07	27.12
556.412	27.41
556.754	27.71
557.096	28.01
557.438	28.3
557.78	28.55
558.121	28.86
558.463	29.13
558.805	29.46
559.147	29.7
559.488	30
559.83	30.26
560.171	30.5
560.513	30.73
560.854	30.99
561.196	31.31
561.537	31.52
561.878	31.8
562.22	32.06
562.561	32.32
562.902	32.61
563.243	32.83
563.584	33.05
563.925	33.27
564.266	33.5
564.607	33.68
564.948	33.92
565.289	34.11
565.63	34.31
565.971	34.51
566.312	34.68
566.653	34.85
566.993	35.07
567.334	35.3
567.675	35.5
568.015	35.72
568.356	35.94
568.696	36.2
569.037	36.4
569.377	36.64
569.718	36.85
570.058	37.04
570.398	37.23
570.739	37.49
571.079	37.7
571.419	37.87
571.759	38.1
572.099	38.26
572.439	38.46
572.779	38.62
573.119	38.73
573.459	38.95
573.799	39.13
574.139	39.24
574.479	39.43
574.819	39.62
575.158	39.85
575.498	39.98
575.838	40.14
576.177	40.23
576.517	40.34
576.856	40.47
577.196	40.63
577.535	40.75
577.875	40.9
578.214	41.01
578.553	41.16
578.893	41.31
579.232	41.49
579.571	41.61
579.91	41.72
580.25	41.96
580.589	42.09
580.928	42.24
581.267	42.41
581.606	42.48
581.945	42.56
582.283	42.6
582.622	42.71
582.961	42.83
583.3	43.04
583.639	43.14
583.977	43.32
584.316	43.4
584.654	43.54
584.993	43.56
585.332	43.72
585.67	43.83
586.008	43.86
586.347	43.91
586.685	43.95
587.024	44.14
587.362	44.12
587.7	44.16
588.038	44.21
588.376	44.23
588.715	44.33
589.053	44.48
589.391	44.56
589.729	44.66
590.067	44.69
590.404	44.73
590.742	44.84
591.08	44.82
591.418	44.89
591.756	44.92
592.093	44.98
592.431	45.01
592.769	45.1
593.106	45.26
593.444	45.34
593.781	45.4
594.119	45.48
594.456	45.59
594.793	45.66
595.131	45.71
595.468	45.78
595.805	45.82
596.143	45.86
596.48	45.94
596.817	45.97
597.154	46
597.491	46.03
597.828	46.08
598.165	46.17
598.502	46.24
598.839	46.35
599.176	46.46
599.512	46.52
599.849	46.52
600.186	46.48
600.523	46.53
600.859	46.63
601.196	46.66
601.532	46.65
601.869	46.67
602.205	46.73
602.542	46.86
602.878	46.96
603.215	46.94
603.551	46.97
603.887	47.04
604.223	47.07
604.56	47.12
604.896	47.14
605.232	47.22
605.568	47.2
605.904	47.21
606.24	47.17
606.576	47.25
606.912	47.34
607.248	47.45
607.583	47.55
607.919	47.6
608.255	47.62
608.591	47.71
608.926	47.73
609.262	47.8
609.597	47.78
609.933	47.7
610.268	47.79
610.604	47.84
610.939	47.79
611.275	47.91
611.61	47.95
611.945	48
612.281	48.01
612.616	48.09
612.951	48.17
613.286	48.18
613.621	48.14
613.956	48.07
614.291	48.05
614.626	48.01
614.961	48
615.296	47.95
615.631	47.92
615.966	48.06
616.3	48.08
616.635	48.14
616.97	48.25
617.304	48.26
617.639	48.32
617.973	48.37
618.308	48.35
618.642	48.37
618.977	48.3
619.311	48.33
619.646	48.39
619.98	48.37
620.314	48.51
620.648	48.61
620.983	48.78
621.317	48.81
621.651	48.89
621.985	48.93
622.319	48.99
622.653	49.07
622.987	49.07
623.321	48.99
623.655	49.05
623.988	49.11
624.322	49.14
624.656	49.11
624.99	49.14
625.323	49.16
625.657	49.23
625.99	49.29
626.324	49.28
626.657	49.3
626.991	49.35
627.324	49.29
627.658	49.34
627.991	49.38
628.324	49.43
628.657	49.45
628.991	49.44
629.324	49.56
629.657	49.59
629.99	49.63
630.323	49.7
630.656	49.65
630.989	49.67
631.322	49.68
631.655	49.84
631.987	49.88
632.32	49.97
632.653	49.93
632.986	50
633.318	50.02
633.651	50.04
633.984	50.09
634.316	50.15
634.649	50.04
634.981	49.96
635.313	50.04
635.646	50.05
635.978	50.02
636.31	50.03
636.643	50.03
636.975	50.04
637.307	50.07
637.639	50.07
637.971	50.01
638.303	49.99
638.635	49.79
638.967	49.8
639.299	49.78
639.631	49.79
639.963	49.7
640.295	49.73
640.626	49.72
640.958	49.68
641.29	49.71
641.621	49.71
641.953	49.7
642.285	49.62
642.616	49.62
642.948	49.72
643.279	49.7
643.61	49.8
643.942	49.81
644.273	49.82
644.604	49.83
644.936	49.9
645.267	49.91
645.598	50.04
645.929	50.09
646.26	50.1
646.591	50.13
646.922	50.14
647.253	50.14
647.584	50.1
647.915	50.23
648.245	50.29
648.576	50.34
648.907	50.37
649.238	50.33
649.568	50.37
649.899	50.49
650.229	50.46
650.56	50.38
650.89	50.43
651.221	50.46
651.551	50.44
651.882	50.4
652.212	50.45
652.542	50.51
652.872	50.43
653.203	50.56
653.533	50.68
653.863	50.7
654.193	50.72
654.523	50.77
654.853	50.63
655.183	50.56
655.513	50.55
655.843	50.51
656.172	50.57
656.502	50.53
656.832	50.48
657.162	50.46
657.491	50.44
657.821	50.41
658.15	50.44
658.48	50.48
658.809	50.46
659.139	50.48
659.468	50.34
659.798	50.39
660.127	50.28
660.456	50.24
660.785	50.25
661.115	50.35
661.444	50.38
661.773	50.41
662.102	50.48
662.431	50.58
662.76	50.6
663.089	50.67
663.418	50.65
663.747	50.53
664.076	50.62
664.404	50.54
664.733	50.5
665.062	50.4
665.39	50.4
665.719	50.36
666.048	50.27
666.376	50.33
666.705	50.31
667.033	50.24
667.362	50.2
667.69	50.27
668.018	50.23
668.347	50.2
668.675	50.27
669.003	50.29
669.331	50.3
669.659	50.44
669.987	50.32
670.315	50.26
670.643	50.37
670.971	50.29
671.299	50.41
671.627	50.42
671.955	50.54
672.283	50.66
672.61	50.88
672.938	50.95
673.266	51.01
673.593	51.05
673.921	51.27
674.249	51.28
674.576	51.26
674.904	51.13
675.231	51.06
675.558	51.08
675.886	50.99
676.213	50.91
676.54	50.8
676.867	50.87
677.195	50.95
677.522	50.85
677.849	50.89
678.176	50.91
678.503	50.99
678.83	50.92
679.157	50.87
679.484	50.8
679.81	50.76
680.137	50.77
680.464	50.74
680.791	50.63
681.117	50.53
681.444	50.54
681.771	50.57
682.097	50.69
682.424	50.7
682.75	50.67
683.077	50.67
683.403	50.69
683.729	50.71
684.056	50.66
684.382	50.79
684.708	50.8
685.034	50.72
685.36	50.75
685.686	50.73
686.012	50.62
686.339	50.56
686.664	50.56
686.99	50.54
687.316	50.5
687.642	50.53
687.968	50.79
688.294	50.79
688.619	50.94
688.945	50.84
689.271	50.76
689.596	50.98
689.922	51.07
690.247	51.12
690.573	51.11
690.898	51.18
691.224	51.18
691.549	51.15
691.874	51.29
692.2	51.15
692.525	51.17
692.85	51.37
693.175	51.48
693.5	51.55
693.825	51.48
694.15	51.54
694.475	51.38
694.8	51.4
695.125	51.45
695.45	51.34
695.775	51.44
696.099	51.5
696.424	51.31
696.749	51.07
697.073	50.98
697.398	51.01
697.723	50.96
698.047	50.91
698.372	50.93
698.696	50.89
699.02	50.9
699.345	50.98
699.669	50.9
699.993	50.81
700.318	50.76
700.642	50.83
700.966	50.78
701.29	50.92
701.614	50.85
701.938	50.77
702.262	50.84
702.586	50.7
702.91	50.7
703.234	50.81
703.557	51.11
703.881	51.19
704.205	51.29
704.529	51.39
704.852	51.33
705.176	51.33
705.499	51.34
705.823	51.32
706.146	51.21
706.47	51.34
706.793	51.41
707.117	51.34
707.44	51.54
707.763	51.56
708.086	51.48
708.409	51.33
708.733	51.5
709.056	51.46
709.379	51.55
709.702	51.4
710.025	51.21
710.348	51.1
710.671	51.07
710.993	50.91
711.316	50.81
711.639	51.04
711.962	51.09
712.284	51.03
712.607	51.2
712.93	51.29
713.252	51.2
713.575	51.24
713.897	51.42
714.22	51.21
714.542	51.21
714.864	51.34
715.187	51.21
715.509	51
715.831	51
716.153	50.96
716.475	50.95
716.798	51.11
717.12	51.17
717.442	51.2
717.764	51.28
718.085	51.3
718.407	51.17
718.729	51.14
719.051	51.23
719.373	51.28
719.695	51.07
720.016	51.18
720.338	51.16
720.659	51.06
720.981	51.11
721.302	51.28
721.624	51.08
721.945	51.25
722.267	51.45
722.588	51.42
722.909	51.24
723.231	51.26
723.552	51.11
723.873	51.17
724.194	51
724.515	50.81
724.836	50.6
725.157	50.81
725.478	50.74
725.799	50.76
726.12	50.44
726.441	50.64
726.762	50.68
727.083	50.72
727.403	50.71
727.724	51.01
728.045	51.08
728.365	51.21
728.686	51.2
729.006	51.05
729.327	51.12
729.647	51.18
729.967	51.15
730.288	51.37
730.608	51.22
730.928	51.32
731.249	51.45
731.569	51.79
731.889	51.45
732.209	51.4
732.529	51.2
732.849	51.17
733.169	51.08
733.489	50.98
733.809	50.98
734.129	51.04
734.448	50.73
734.768	50.43
735.088	50.42
735.408	50.62
735.727	50.67
736.047	50.54
736.366	50.72
736.686	50.69
737.005	50.46
737.325	50.52
737.644	50.73
737.963	50.67
738.283	50.53
738.602	50.72
738.921	50.93
739.24	51.1
739.56	51.1
739.879	51.08
740.198	50.82
740.517	50.6
740.836	50.68
741.155	50.65
741.473	50.9
741.792	50.63
742.111	50.28
742.43	50.04
742.748	50.18
743.067	50.19
743.386	50.27
743.704	50.17
744.023	50.1
744.341	49.67
744.66	49.67
744.978	49.48
745.297	49.51
745.615	49.41
745.933	49.46
746.252	49.54
746.57	49.53
746.888	49.68
747.206	49.86
747.524	49.91
747.842	49.84
748.16	49.79
748.478	49.95
748.796	50.13
749.114	50.35
749.432	50.23
749.749	50.02
750.067	49.76
750.385	49.79
750.703	49.74
751.02	50
751.338	50.01
751.655	50.08
751.973	50.17
752.29	50.21
752.608	50.05
752.925	50.42
753.242	50.35
753.56	50.16
753.877	50.21
754.194	50.3
754.511	50.42
754.828	50.39
755.145	50.44
755.462	50.15
755.779	50.46
756.096	50.46
756.413	50.47
756.73	50.9
757.047	50.87
757.364	50.94
757.68	51.07
757.997	51.13
758.314	51.26
758.63	51.28
758.947	51.14
759.264	50.99
759.58	50.95
759.896	51.1
760.213	51.01
760.529	51.18
760.846	51.27
761.162	51.02
761.478	51.1
761.794	50.82
762.11	50.9
762.426	50.74
762.743	50.79
763.059	50.76
763.375	50.67
763.69	50.91
764.006	51.05
764.322	51.09
764.638	51.24
764.954	51.21
765.27	51.23
765.585	51.3
765.901	51.39
766.216	51.19
766.532	51.24
766.848	51.69
767.163	51.63
767.478	51.43
767.794	51.64
768.109	51.64
768.424	51.6
768.74	52
769.055	52.03
769.37	52.12
769.685	52.5
770	52.74
770.315	52.68
770.63	52.41
770.945	52.6
771.26	52.23
771.575	52.24
771.89	51.84
772.205	51.88
772.52	52.35
772.834	52.4
773.149	52.22
773.464	51.99
773.778	51.94
774.093	51.69
774.407	51.48
774.722	51.5
775.036	52.26
775.351	52.12
775.665	51.95
775.979	52.13
776.293	51.52
776.608	51.39
776.922	51.11
777.236	51.1
777.55	50.33
777.864	50.92
778.178	50.87
778.492	51.32
778.806	50.83
779.12	50.54
779.434	50.68
779.747	50.85
780.061	51.04
780.375	50.91
780.689	51.11
781.002	51.41
781.316	51.68
781.629	51.38
781.943	51.45
782.256	51.42
782.57	51.2
782.883	51.57
783.196	50.9
783.51	51.05
783.823	50.84
784.136	51.25
784.449	50.66
784.762	50.42
785.075	50.19
785.388	50.58
785.701	50.31
786.014	50.22
786.327	50.29
786.64	49.81
786.953	49.9
787.266	49.69
787.578	49.74
787.891	49.15
788.204	49.23
788.516	48.68
788.829	49.21
789.141	49.01
789.454	48.67
789.766	49.51
790.079	49.58
790.391	49.82
790.703	49.83
791.016	49.74
791.328	50.16
791.64	49.82
791.952	49.8
792.264	49.64
792.576	49.54
792.888	49.18
793.2	49.59
793.512	49.37
793.824	49.3
794.136	49.39
794.448	49.93
794.76	50.11
795.071	50.4
795.383	49.61
795.695	50.35
796.006	50.76
796.318	50.37
796.629	50.26
796.941	50.08
797.252	50.04
797.564	50.26
797.875	50.13
798.186	50.59
798.497	50.61
798.809	50.92
799.12	50.69
799.431	50.88
799.742	50.78
800.053	50.99
800.364	51.17
800.675	50.72
800.986	49.92
801.297	49.79
801.608	49.72
801.918	49.73
802.229	48.41
802.54	48.43
802.851	48.46
803.161	48.95
803.472	49.33
803.782	49.31
804.093	49.3
804.403	49.46
804.714	49.32
805.024	49
805.334	49.71
805.645	49.96
805.955	50.13
806.265	50.3
806.575	49.88
806.885	49.76
807.195	49.32
807.505	49.79
807.815	49.6
808.125	49.73
808.435	49.94
808.745	50.24
809.055	50.55
809.365	50.12
809.674	49.35
809.984	49.25
810.294	49
810.603	49.22
810.913	48.89
811.222	48.1
811.532	48.14
811.841	47.9
812.151	48.3
812.46	47.54
812.769	47.68
813.079	48.27
813.388	48.55
813.697	49.87
814.006	49.87
814.315	49.47
814.624	48.67
814.933	48.6
815.242	49.62
815.551	49.08
815.86	49.55
816.169	49.45
816.478	49.57
816.786	49.58
817.095	48.99
817.404	49.28
817.712	50.32
818.021	50.03
818.33	49.52
818.638	48.59
818.947	49.37
819.255	49.37
819.563	49.22
819.872	48.79
820.18	48.56
820.488	48.63
820.796	49.35
821.105	49.68
821.413	50.04
821.721	50.04
822.029	50.26
822.337	50.26
822.645	50.39
822.953	50.48
823.26	50.47
823.568	50.65
823.876	50.51
824.184	50.07
824.491	50.43
824.799	50.52
825.107	50.79
825.414	51.03
825.722	50.94
826.029	51.1
826.337	51.52
826.644	51.61
826.951	51.8
827.259	51.49
827.566	51.53
827.873	51.18
828.18	51.1
828.488	51.01
828.795	51.06
829.102	51.1
829.409	51
829.716	51.26
830.023	51.21
830.329	51.63
830.636	52.31
830.943	52.06
831.25	51.85
831.557	51.82
831.863	50.91
832.17	51.02
832.476	50.78
832.783	50.54
833.089	50.3
833.396	50.19
833.702	50.36
834.009	50.38
834.315	50.95
834.621	51.11
834.928	51.15
835.234	51.25
835.54	51.4
835.846	51.46
836.152	51.55
836.458	51.63
836.764	51.38
837.07	51.48
837.376	51.15
837.682	50.92
837.988	50.34
838.293	50.91
838.599	51.04
838.905	50.56
839.211	50.08
839.516	50.53
839.822	50.25
840.127	50.09
840.433	50.58
840.738	49.84
841.044	49.07
841.349	48.78
841.654	48.87
841.959	48.75
842.265	48.03
842.57	47.6
842.875	48.18
843.18	48.5
843.485	49.35
843.79	50.05
844.095	50.7
844.4	53.03
844.705	52.66
845.01	52.33
845.315	53.17
845.619	53.71
845.924	54.12
846.229	54.34
846.533	55.36
846.838	55.58
847.142	57.01
847.447	56.99
847.751	56.57
848.056	56.75
848.36	55.15
848.664	56.73
848.969	56.37
849.273	54.28
849.577	52.25
849.881	50.81
850.185	50.91
850.489	51.67
850.794	49.54
851.097	49.07
851.401	49.09
851.705	48.3
852.009	48.69
852.313	48.61
852.617	48.35
852.92	48.72
853.224	47.16
853.528	47.45
853.831	48.49
854.135	49.05
854.438	46.65
854.742	47.8
855.045	47.64
855.349	46.4
855.652	47.95
855.955	50.56
856.259	49.06
856.562	47.16
856.865	45.75
857.168	45.68
857.471	47.77
857.774	48.3
858.077	50.92
858.38	49.89
858.683	48.92
858.986	48.33
859.289	48.52
859.592	48.12
859.894	46.65
860.197	45.25
860.5	44.54
860.802	44.84
861.105	45.79
861.407	43.13
861.71	43.36
862.012	43.71
862.315	41.01
862.617	42.74
862.919	41.22
863.222	41.01
863.524	42.71
863.826	42.93
864.128	42.44
864.43	41.69
864.732	42.81
865.034	43.46
865.336	42.94
865.638	40.24
865.94	39.07
866.242	40.71
866.544	42.9
866.846	45.61
867.147	47.99
867.449	47.72
867.751	47.65
868.052	49.26
868.354	45.65
868.655	50.42
868.957	51.01
869.258	52.97
869.56	53.02
869.861	50.59
870.162	48.53
870.463	50.11
870.765	48.82
871.066	48.51
871.367	46.16
871.668	45.68
871.969	49.33
872.27	51.7
872.571	48.22
872.872	49.3
873.173	45.1
873.473	45.59
873.774	46.48
874.075	48.66
874.376	46.96
874.676	50
874.977	45.76
875.277	46.08
875.578	48.26
875.878	50.01
876.179	50.25
876.479	50.42
876.78	48.64
877.08	49.46
877.38	48.72
877.68	51.7
877.981	54.73
878.281	52.28
878.581	51.75
