Data from BU58141_Reflection_00003.txt Node
Date: Mon Nov 18 16:46:39 EST 2019
User: vgr7
Spectrometer: USB2G7710
Scans to average: 3
Trigger mode: 4
Integration Time (sec): 2.000000E-2
Electric dark correction enabled: true
Boxcar width: 10
XAxis mode: Wavelengths
Number of Pixels in Spectrum: 2048
>>>>>Begin Spectral Data<<<<<
177.721	78.57
178.105	71.58
178.488	121.48
178.871	107.59
179.254	163.44
179.636	-3587.5
180.019	748.83
180.402	51.85
180.785	144.88
181.168	-1370.59
181.55	-75.12
181.933	101.79
182.316	286.5
182.698	101.24
183.081	103.55
183.463	88.44
183.846	90.02
184.228	87.54
184.611	98.63
184.993	132.47
185.376	155.75
185.758	163.92
186.14	160.98
186.522	242.58
186.904	457.46
187.287	551.87
187.669	-633.56
188.051	-881.95
188.433	-230.15
188.815	-189.44
189.197	829.61
189.579	-9820
189.961	-1369.61
190.342	-1021.02
190.724	-137.61
191.106	-37.18
191.488	-46.39
191.869	-29.29
192.251	-52.47
192.633	-39.59
193.014	-32.95
193.396	-41.19
193.777	-59.7
194.159	-63.34
194.54	-47.79
194.922	-48.91
195.303	-52.03
195.684	-75.14
196.065	-42.91
196.447	-41.23
196.828	-45.66
197.209	-27.45
197.59	-20.15
197.971	-17.46
198.352	-13.56
198.733	-33.39
199.114	-37
199.495	-28.34
199.876	-29.6
200.257	-28.36
200.638	-34.33
201.018	-40.45
201.399	-29.23
201.78	-23.9
202.16	-24.59
202.541	-40.09
202.922	-72.3
203.302	-89.15
203.683	-89.56
204.063	-110.49
204.444	-109.42
204.824	-98.61
205.204	-91.95
205.585	-107.87
205.965	-108.19
206.345	-118.78
206.725	-106.61
207.106	-133.54
207.486	-170.63
207.866	-186.44
208.246	-154.2
208.626	-148.39
209.006	-116.84
209.386	-170.13
209.766	-169.28
210.145	-138.92
210.525	-109.17
210.905	-78.6
211.285	-66.62
211.664	-55.14
212.044	-61.31
212.424	-54.09
212.803	-59.45
213.183	-61.47
213.562	-60.54
213.942	-55.78
214.321	-50.28
214.701	-56.33
215.08	-49.95
215.459	-37.93
215.838	-27.91
216.218	-35.12
216.597	-19.6
216.976	-22.25
217.355	-11.52
217.734	-21.88
218.113	-26.34
218.492	-25.06
218.871	-24.69
219.25	-22.57
219.629	-38.31
220.008	-36.83
220.387	-39.62
220.766	-41.67
221.144	-38.15
221.523	-39.77
221.902	-38.89
222.28	-44.37
222.659	-29.63
223.037	-23.98
223.416	-24.34
223.794	-37.97
224.173	-31.55
224.551	-34.81
224.929	-37.49
225.308	-33.67
225.686	-26.95
226.064	-17.97
226.442	-20.08
226.821	-14.67
227.199	-15.67
227.577	-12.42
227.955	-8.78
228.333	-6.4
228.711	-2.72
229.089	-0.76
229.467	1.15
229.845	1.53
230.222	2.14
230.6	0.38
230.978	1.68
231.356	1.8
231.733	2.42
232.111	1.61
232.488	4.35
232.866	6
233.243	4.8
233.621	4.99
233.998	4.3
234.376	4.55
234.753	2.28
235.13	3.41
235.508	5.24
235.885	5.3
236.262	2.51
236.639	1.62
237.016	2.22
237.393	2.76
237.77	3.34
238.147	3.47
238.524	4.36
238.901	4.33
239.278	4.16
239.655	4.68
240.032	4.87
240.409	4.27
240.785	3.75
241.162	3.3
241.539	3.33
241.915	3.49
242.292	3.46
242.668	3.48
243.045	3.2
243.421	2.92
243.798	2.95
244.174	3.27
244.551	3.36
244.927	2.74
245.303	3.07
245.679	3.18
246.056	3.07
246.432	3.07
246.808	3.28
247.184	3.27
247.56	3.07
247.936	3.04
248.312	2.96
248.688	3.22
249.064	3.54
249.44	3.4
249.815	3.24
250.191	3.23
250.567	3.26
250.943	3.22
251.318	3.49
251.694	3.56
252.069	3.52
252.445	3.38
252.82	3.52
253.196	2.75
253.571	2.62
253.947	2.57
254.322	2.34
254.697	1.87
255.073	1.68
255.448	1.72
255.823	1.77
256.198	1.97
256.573	2.15
256.948	2.1
257.323	2.23
257.698	2.3
258.073	2.33
258.448	2.34
258.823	2.33
259.198	2.28
259.573	2.2
259.948	2.2
260.322	2.37
260.697	2.36
261.072	2.61
261.446	2.46
261.821	2.61
262.195	2.57
262.57	2.49
262.944	2.48
263.319	2.45
263.693	2.61
264.067	2.64
264.442	2.49
264.816	2.53
265.19	2.34
265.564	2.43
265.938	2.58
266.313	2.6
266.687	2.67
267.061	2.72
267.435	2.75
267.809	2.62
268.183	2.52
268.556	2.61
268.93	2.47
269.304	2.45
269.678	2.49
270.051	2.68
270.425	2.95
270.799	3.19
271.172	3.26
271.546	3.02
271.919	2.83
272.293	2.75
272.666	2.8
273.04	2.94
273.413	2.98
273.787	2.91
274.16	2.83
274.533	2.71
274.906	2.55
275.279	2.72
275.653	2.86
276.026	2.83
276.399	2.68
276.772	2.66
277.145	2.75
277.518	2.57
277.891	2.39
278.263	2.22
278.636	1.97
279.009	1.88
279.382	2.12
279.755	2.25
280.127	2.37
280.5	2.41
280.872	2.47
281.245	2.35
281.617	2.4
281.99	2.58
282.362	2.67
282.735	2.61
283.107	2.38
283.479	2.41
283.852	2.49
284.224	2.69
284.596	2.89
284.968	2.92
285.34	3.1
285.713	3.2
286.085	3.21
286.457	3.34
286.829	3.44
287.201	3.38
287.572	3.29
287.944	3.19
288.316	3.07
288.688	2.95
289.06	2.9
289.431	2.94
289.803	2.92
290.175	2.93
290.546	3.09
290.918	3.1
291.289	3.14
291.661	3.12
292.032	3.1
292.403	3.13
292.775	2.99
293.146	2.84
293.517	2.78
293.889	2.92
294.26	2.85
294.631	2.85
295.002	2.8
295.373	2.76
295.744	2.98
296.115	2.99
296.486	3.08
296.857	3.15
297.228	3.24
297.599	3.15
297.97	3.21
298.34	3.24
298.711	3.39
299.082	3.4
299.452	3.41
299.823	3.54
300.194	3.43
300.564	3.56
300.935	3.61
301.305	3.72
301.676	3.76
302.046	3.84
302.416	3.82
302.787	3.84
303.157	3.99
303.527	3.89
303.897	3.91
304.267	3.98
304.637	4.15
305.008	4.04
305.378	4.22
305.748	4.26
306.117	4.25
306.487	4.2
306.857	4.31
307.227	4.41
307.597	4.17
307.967	4.19
308.336	4.19
308.706	4.24
309.076	4.23
309.445	4.04
309.815	4
310.184	3.96
310.554	4.06
310.923	4.04
311.293	4.02
311.662	4.06
312.031	3.92
312.401	3.8
312.77	3.77
313.139	3.76
313.508	3.7
313.877	3.45
314.246	3.49
314.616	3.36
314.985	3.19
315.353	3.21
315.722	3.28
316.091	3.31
316.46	3.29
316.829	3.3
317.198	3.42
317.567	3.32
317.935	3.47
318.304	3.49
318.672	3.53
319.041	3.59
319.41	3.51
319.778	3.58
320.147	3.72
320.515	3.69
320.883	3.63
321.252	3.74
321.62	3.92
321.988	3.82
322.357	3.7
322.725	3.77
323.093	3.95
323.461	3.94
323.829	3.96
324.197	3.98
324.565	3.84
324.933	3.73
325.301	3.85
325.669	3.71
326.037	3.59
326.405	3.58
326.772	3.63
327.14	3.78
327.508	3.86
327.875	3.78
328.243	3.86
328.61	3.84
328.978	3.79
329.346	3.86
329.713	3.78
330.08	3.88
330.448	3.8
330.815	3.51
331.182	3.52
331.55	3.49
331.917	3.52
332.284	3.63
332.651	3.78
333.018	3.82
333.385	3.85
333.752	3.86
334.119	3.85
334.486	3.64
334.853	3.61
335.22	3.46
335.587	3.42
335.954	3.37
336.32	3.27
336.687	3.25
337.054	3.14
337.42	3.2
337.787	3.17
338.153	3.22
338.52	3.36
338.886	3.22
339.253	3.05
339.619	2.98
339.986	2.97
340.352	3.01
340.718	2.93
341.084	2.82
341.451	2.92
341.817	2.93
342.183	2.99
342.549	2.86
342.915	2.98
343.281	3
343.647	2.93
344.013	2.99
344.379	2.93
344.745	2.96
345.11	2.96
345.476	2.97
345.842	2.94
346.208	2.83
346.573	2.95
346.939	3.24
347.304	3.32
347.67	3.25
348.035	3.11
348.401	3.26
348.766	3.38
349.132	3.37
349.497	3.37
349.862	3.51
350.228	3.53
350.593	3.36
350.958	3.46
351.323	3.62
351.688	3.66
352.053	3.69
352.418	3.7
352.783	3.71
353.148	3.64
353.513	3.63
353.878	3.78
354.243	3.78
354.608	3.67
354.972	3.59
355.337	3.6
355.702	3.7
356.066	3.66
356.431	3.68
356.795	3.66
357.16	3.61
357.524	3.49
357.889	3.48
358.253	3.62
358.618	3.56
358.982	3.48
359.346	3.36
359.71	3.38
360.075	3.43
360.439	3.51
360.803	3.62
361.167	3.66
361.531	3.55
361.895	3.52
362.259	3.5
362.623	3.54
362.987	3.56
363.351	3.55
363.714	3.53
364.078	3.49
364.442	3.46
364.806	3.53
365.169	3.58
365.533	3.64
365.896	3.62
366.26	3.6
366.623	3.62
366.987	3.72
367.35	3.75
367.714	3.71
368.077	3.66
368.44	3.62
368.803	3.65
369.167	3.7
369.53	3.69
369.893	3.75
370.256	3.68
370.619	3.7
370.982	3.63
371.345	3.64
371.708	3.64
372.071	3.59
372.434	3.5
372.797	3.47
373.159	3.42
373.522	3.45
373.885	3.51
374.247	3.54
374.61	3.56
374.973	3.5
375.335	3.48
375.698	3.52
376.06	3.51
376.423	3.42
376.785	3.45
377.147	3.5
377.51	3.45
377.872	3.47
378.234	3.46
378.596	3.46
378.958	3.47
379.321	3.47
379.683	3.55
380.045	3.62
380.407	3.62
380.769	3.66
381.13	3.65
381.492	3.66
381.854	3.62
382.216	3.63
382.578	3.64
382.939	3.64
383.301	3.59
383.663	3.56
384.024	3.61
384.386	3.58
384.747	3.57
385.109	3.59
385.47	3.56
385.832	3.59
386.193	3.6
386.554	3.55
386.916	3.53
387.277	3.5
387.638	3.48
387.999	3.5
388.36	3.47
388.721	3.46
389.082	3.47
389.443	3.47
389.804	3.46
390.165	3.47
390.526	3.48
390.887	3.48
391.248	3.55
391.609	3.51
391.969	3.56
392.33	3.54
392.691	3.52
393.051	3.54
393.412	3.52
393.772	3.52
394.133	3.54
394.493	3.58
394.854	3.63
395.214	3.65
395.574	3.65
395.935	3.71
396.295	3.73
396.655	3.69
397.015	3.68
397.376	3.67
397.736	3.71
398.096	3.69
398.456	3.73
398.816	3.67
399.176	3.7
399.535	3.63
399.895	3.65
400.255	3.62
400.615	3.64
400.975	3.67
401.334	3.68
401.694	3.67
402.054	3.64
402.413	3.61
402.773	3.56
403.132	3.56
403.492	3.49
403.851	3.51
404.211	3.5
404.57	3.48
404.929	3.53
405.288	3.52
405.648	3.53
406.007	3.5
406.366	3.52
406.725	3.52
407.084	3.54
407.443	3.55
407.802	3.6
408.161	3.59
408.52	3.53
408.879	3.53
409.238	3.55
409.596	3.58
409.955	3.56
410.314	3.59
410.673	3.55
411.031	3.59
411.39	3.58
411.748	3.58
412.107	3.61
412.465	3.6
412.824	3.61
413.182	3.63
413.54	3.67
413.899	3.69
414.257	3.69
414.615	3.69
414.974	3.68
415.332	3.66
415.69	3.65
416.048	3.68
416.406	3.67
416.764	3.64
417.122	3.64
417.48	3.64
417.838	3.63
418.195	3.64
418.553	3.62
418.911	3.62
419.269	3.62
419.626	3.62
419.984	3.64
420.342	3.64
420.699	3.64
421.057	3.63
421.414	3.61
421.772	3.63
422.129	3.64
422.486	3.64
422.844	3.64
423.201	3.64
423.558	3.64
423.915	3.64
424.273	3.67
424.63	3.66
424.987	3.68
425.344	3.7
425.701	3.71
426.058	3.72
426.415	3.71
426.772	3.71
427.128	3.72
427.485	3.7
427.842	3.67
428.199	3.67
428.555	3.65
428.912	3.67
429.269	3.67
429.625	3.65
429.982	3.64
430.338	3.66
430.695	3.69
431.051	3.7
431.407	3.71
431.764	3.7
432.12	3.7
432.476	3.68
432.832	3.66
433.189	3.68
433.545	3.67
433.901	3.7
434.257	3.7
434.613	3.74
434.969	3.72
435.325	3.73
435.681	3.76
436.036	3.76
436.392	3.77
436.748	3.75
437.104	3.75
437.459	3.77
437.815	3.76
438.171	3.74
438.526	3.75
438.882	3.73
439.237	3.74
439.593	3.76
439.948	3.77
440.304	3.79
440.659	3.79
441.014	3.8
441.369	3.78
441.725	3.78
442.08	3.76
442.435	3.76
442.79	3.77
443.145	3.75
443.5	3.76
443.855	3.75
444.21	3.74
444.565	3.76
444.92	3.76
445.275	3.76
445.629	3.75
445.984	3.75
446.339	3.74
446.693	3.74
447.048	3.72
447.403	3.72
447.757	3.71
448.112	3.7
448.466	3.69
448.82	3.7
449.175	3.71
449.529	3.71
449.883	3.7
450.238	3.7
450.592	3.71
450.946	3.7
451.3	3.71
451.654	3.72
452.008	3.73
452.362	3.71
452.716	3.73
453.07	3.75
453.424	3.75
453.778	3.78
454.132	3.76
454.486	3.77
454.839	3.76
455.193	3.75
455.547	3.76
455.9	3.77
456.254	3.76
456.607	3.77
456.961	3.77
457.314	3.78
457.668	3.78
458.021	3.76
458.375	3.75
458.728	3.75
459.081	3.76
459.434	3.75
459.787	3.76
460.141	3.74
460.494	3.74
460.847	3.74
461.2	3.72
461.553	3.73
461.906	3.73
462.259	3.74
462.611	3.75
462.964	3.75
463.317	3.75
463.67	3.76
464.022	3.75
464.375	3.72
464.728	3.72
465.08	3.73
465.433	3.73
465.785	3.75
466.138	3.74
466.49	3.75
466.843	3.75
467.195	3.74
467.547	3.74
467.899	3.74
468.252	3.73
468.604	3.74
468.956	3.74
469.308	3.74
469.66	3.72
470.012	3.72
470.364	3.72
470.716	3.7
471.068	3.7
471.42	3.7
471.772	3.73
472.123	3.75
472.475	3.73
472.827	3.75
473.178	3.75
473.53	3.74
473.882	3.72
474.233	3.73
474.585	3.72
474.936	3.71
475.288	3.72
475.639	3.72
475.99	3.72
476.342	3.72
476.693	3.73
477.044	3.77
477.395	3.76
477.746	3.75
478.097	3.76
478.448	3.77
478.8	3.75
479.15	3.73
479.501	3.73
479.852	3.74
480.203	3.74
480.554	3.76
480.905	3.78
481.255	3.79
481.606	3.8
481.957	3.82
482.307	3.83
482.658	3.84
483.009	3.84
483.359	3.85
483.709	3.86
484.06	3.86
484.41	3.85
484.761	3.84
485.111	3.86
485.461	3.87
485.811	3.87
486.162	3.89
486.512	3.9
486.862	3.91
487.212	3.91
487.562	3.91
487.912	3.9
488.262	3.9
488.612	3.9
488.961	3.9
489.311	3.9
489.661	3.9
490.011	3.89
490.36	3.88
490.71	3.87
491.06	3.85
491.409	3.84
491.759	3.86
492.108	3.87
492.458	3.85
492.807	3.84
493.157	3.84
493.506	3.82
493.855	3.81
494.204	3.8
494.554	3.8
494.903	3.79
495.252	3.79
495.601	3.79
495.95	3.79
496.299	3.8
496.648	3.77
496.997	3.78
497.346	3.8
497.695	3.81
498.043	3.81
498.392	3.83
498.741	3.85
499.09	3.83
499.438	3.85
499.787	3.87
500.135	3.88
500.484	3.9
500.832	3.92
501.181	3.92
501.529	3.93
501.878	3.94
502.226	3.95
502.574	3.96
502.923	3.96
503.271	3.97
503.619	3.99
503.967	3.99
504.315	3.98
504.663	3.99
505.011	3.97
505.359	3.96
505.707	3.99
506.055	4.01
506.403	4.01
506.751	4.02
507.098	4.02
507.446	4.03
507.794	4.03
508.141	4.02
508.489	4.03
508.837	4.04
509.184	4.05
509.531	4.06
509.879	4.06
510.226	4.07
510.574	4.06
510.921	4.04
511.268	4.03
511.616	4.05
511.963	4.04
512.31	4.07
512.657	4.09
513.004	4.08
513.351	4.09
513.698	4.1
514.045	4.08
514.392	4.08
514.739	4.07
515.086	4.08
515.432	4.1
515.779	4.09
516.126	4.08
516.473	4.09
516.819	4.1
517.166	4.1
517.512	4.1
517.859	4.09
518.205	4.1
518.552	4.12
518.898	4.14
519.245	4.14
519.591	4.14
519.937	4.13
520.283	4.12
520.629	4.13
520.976	4.13
521.322	4.12
521.668	4.13
522.014	4.15
522.36	4.17
522.706	4.16
523.052	4.17
523.398	4.19
523.743	4.2
524.089	4.19
524.435	4.18
524.781	4.19
525.126	4.21
525.472	4.22
525.817	4.21
526.163	4.19
526.509	4.2
526.854	4.21
527.199	4.23
527.545	4.24
527.89	4.24
528.235	4.23
528.581	4.24
528.926	4.23
529.271	4.22
529.616	4.21
529.961	4.21
530.306	4.22
530.651	4.21
530.996	4.22
531.341	4.22
531.686	4.22
532.031	4.22
532.376	4.21
532.721	4.21
533.065	4.22
533.41	4.23
533.755	4.21
534.099	4.21
534.444	4.2
534.788	4.2
535.133	4.2
535.477	4.18
535.822	4.18
536.166	4.17
536.51	4.18
536.855	4.18
537.199	4.19
537.543	4.19
537.887	4.19
538.231	4.17
538.576	4.17
538.92	4.18
539.264	4.18
539.608	4.17
539.951	4.16
540.295	4.16
540.639	4.17
540.983	4.18
541.327	4.19
541.671	4.18
542.014	4.18
542.358	4.18
542.701	4.2
543.045	4.2
543.389	4.21
543.732	4.21
544.075	4.21
544.419	4.22
544.762	4.23
545.105	4.24
545.449	4.25
545.792	4.25
546.135	4.26
546.478	4.27
546.821	4.29
547.165	4.31
547.508	4.3
547.851	4.31
548.194	4.3
548.536	4.29
548.879	4.32
549.222	4.32
549.565	4.34
549.908	4.34
550.25	4.34
550.593	4.36
550.936	4.36
551.278	4.37
551.621	4.35
551.963	4.35
552.306	4.32
552.648	4.33
552.991	4.35
553.333	4.32
553.675	4.32
554.017	4.3
554.36	4.29
554.702	4.3
555.044	4.28
555.386	4.27
555.728	4.29
556.07	4.29
556.412	4.3
556.754	4.29
557.096	4.31
557.438	4.33
557.78	4.33
558.121	4.36
558.463	4.34
558.805	4.36
559.147	4.35
559.488	4.39
559.83	4.39
560.171	4.39
560.513	4.42
560.854	4.42
561.196	4.44
561.537	4.47
561.878	4.46
562.22	4.47
562.561	4.47
562.902	4.45
563.243	4.44
563.584	4.42
563.925	4.43
564.266	4.41
564.607	4.39
564.948	4.36
565.289	4.35
565.63	4.37
565.971	4.37
566.312	4.38
566.653	4.38
566.993	4.37
567.334	4.36
567.675	4.36
568.015	4.37
568.356	4.38
568.696	4.42
569.037	4.44
569.377	4.42
569.718	4.44
570.058	4.46
570.398	4.43
570.739	4.43
571.079	4.43
571.419	4.43
571.759	4.46
572.099	4.48
572.439	4.47
572.779	4.48
573.119	4.48
573.459	4.48
573.799	4.48
574.139	4.47
574.479	4.52
574.819	4.53
575.158	4.49
575.498	4.52
575.838	4.47
576.177	4.45
576.517	4.46
576.856	4.44
577.196	4.45
577.535	4.49
577.875	4.51
578.214	4.52
578.553	4.55
578.893	4.51
579.232	4.52
579.571	4.5
579.91	4.46
580.25	4.47
580.589	4.46
580.928	4.46
581.267	4.47
581.606	4.39
581.945	4.35
582.283	4.36
582.622	4.3
582.961	4.32
583.3	4.33
583.639	4.33
583.977	4.3
584.316	4.25
584.654	4.26
584.993	4.27
585.332	4.25
585.67	4.24
586.008	4.24
586.347	4.23
586.685	4.26
587.024	4.27
587.362	4.25
587.7	4.28
588.038	4.33
588.376	4.32
588.715	4.37
589.053	4.41
589.391	4.43
589.729	4.48
590.067	4.46
590.404	4.45
590.742	4.46
591.08	4.49
591.418	4.53
591.756	4.55
592.093	4.53
592.431	4.52
592.769	4.53
593.106	4.55
593.444	4.52
593.781	4.49
594.119	4.48
594.456	4.48
594.793	4.48
595.131	4.43
595.468	4.42
595.805	4.42
596.143	4.39
596.48	4.38
596.817	4.38
597.154	4.42
597.491	4.39
597.828	4.39
598.165	4.4
598.502	4.38
598.839	4.34
599.176	4.37
599.512	4.39
599.849	4.4
600.186	4.38
600.523	4.4
600.859	4.45
601.196	4.48
601.532	4.45
601.869	4.42
602.205	4.41
602.542	4.45
602.878	4.42
603.215	4.45
603.551	4.49
603.887	4.48
604.223	4.44
604.56	4.49
604.896	4.52
605.232	4.53
605.568	4.56
605.904	4.57
606.24	4.58
606.576	4.55
606.912	4.54
607.248	4.52
607.583	4.54
607.919	4.55
608.255	4.53
608.591	4.57
608.926	4.58
609.262	4.58
609.597	4.57
609.933	4.59
610.268	4.6
610.604	4.57
610.939	4.58
611.275	4.59
611.61	4.57
611.945	4.54
612.281	4.53
612.616	4.48
612.951	4.46
613.286	4.45
613.621	4.47
613.956	4.48
614.291	4.53
614.626	4.52
614.961	4.43
615.296	4.43
615.631	4.44
615.966	4.44
616.3	4.47
616.635	4.47
616.97	4.45
617.304	4.43
617.639	4.43
617.973	4.43
618.308	4.43
618.642	4.42
618.977	4.41
619.311	4.42
619.646	4.46
619.98	4.49
620.314	4.55
620.648	4.56
620.983	4.56
621.317	4.55
621.651	4.53
621.985	4.59
622.319	4.63
622.653	4.59
622.987	4.6
623.321	4.59
623.655	4.6
623.988	4.63
624.322	4.63
624.656	4.64
624.99	4.62
625.323	4.64
625.657	4.68
625.99	4.67
626.324	4.7
626.657	4.72
626.991	4.7
627.324	4.61
627.658	4.64
627.991	4.66
628.324	4.7
628.657	4.71
628.991	4.75
629.324	4.72
629.657	4.75
629.99	4.76
630.323	4.78
630.656	4.78
630.989	4.86
631.322	4.9
631.655	4.93
631.987	4.98
632.32	5
632.653	4.96
632.986	5.02
633.318	4.95
633.651	4.92
633.984	4.92
634.316	4.95
634.649	4.92
634.981	4.89
635.313	4.87
635.646	4.84
635.978	4.78
636.31	4.78
636.643	4.77
636.975	4.79
637.307	4.79
637.639	4.82
637.971	4.74
638.303	4.75
638.635	4.73
638.967	4.75
639.299	4.77
639.631	4.78
639.963	4.71
640.295	4.83
640.626	4.89
640.958	4.95
641.29	4.97
641.621	5.03
641.953	5.02
642.285	5.05
642.616	5.07
642.948	5.08
643.279	5.08
643.61	5.11
643.942	5.12
644.273	5.12
644.604	5.04
644.936	5.01
645.267	4.98
645.598	4.97
645.929	4.95
646.26	4.91
646.591	4.94
646.922	4.99
647.253	4.9
647.584	4.87
647.915	4.79
648.245	4.76
648.576	4.75
648.907	4.79
649.238	4.73
649.568	4.73
649.899	4.78
650.229	4.75
650.56	4.78
650.89	4.75
651.221	4.79
651.551	4.84
651.882	4.87
652.212	4.88
652.542	4.87
652.872	4.85
653.203	4.8
653.533	4.8
653.863	4.75
654.193	4.77
654.523	4.74
654.853	4.75
655.183	4.74
655.513	4.69
655.843	4.68
656.172	4.68
656.502	4.73
656.832	4.69
657.162	4.78
657.491	4.66
657.821	4.68
658.15	4.61
658.48	4.59
658.809	4.63
659.139	4.62
659.468	4.62
659.798	4.6
660.127	4.59
660.456	4.57
660.785	4.66
661.115	4.65
661.444	4.72
661.773	4.74
662.102	4.75
662.431	4.77
662.76	4.76
663.089	4.82
663.418	4.81
663.747	4.82
664.076	4.82
664.404	4.92
664.733	4.96
665.062	5.06
665.39	5.09
665.719	4.96
666.048	5.02
666.376	5.07
666.705	5.09
667.033	5.15
667.362	5.17
667.69	5.12
668.018	5.16
668.347	5.1
668.675	5.13
669.003	5.13
669.331	5.22
669.659	5.21
669.987	5.14
670.315	5.22
670.643	5.25
670.971	5.24
671.299	5.27
671.627	5.23
671.955	5.19
672.283	5.16
672.61	5.23
672.938	5.16
673.266	5.14
673.593	5.2
673.921	5.2
674.249	5.26
674.576	5.14
674.904	5.16
675.231	5.1
675.558	5.01
675.886	5.09
676.213	5.01
676.54	5.06
676.867	5.12
677.195	5.03
677.522	5.03
677.849	5.01
678.176	4.96
678.503	4.99
678.83	4.98
679.157	4.96
679.484	4.96
679.81	4.98
680.137	4.91
680.464	4.88
680.791	4.87
681.117	4.71
681.444	4.8
681.771	4.8
682.097	4.87
682.424	4.98
682.75	4.89
683.077	4.91
683.403	4.93
683.729	4.92
684.056	4.94
684.382	4.96
684.708	4.93
685.034	4.95
685.36	4.94
685.686	4.92
686.012	4.95
686.339	4.9
686.664	4.82
686.99	4.92
687.316	4.9
687.642	4.96
687.968	5.05
688.294	5.06
688.619	5.05
688.945	5.07
689.271	5.04
689.596	5.08
689.922	5.18
690.247	5.13
690.573	5.08
690.898	5.11
691.224	5.16
691.549	5.2
691.874	5.17
692.2	5.08
692.525	5.18
692.85	5.28
693.175	5.41
693.5	5.53
693.825	5.48
694.15	5.58
694.475	5.54
694.8	5.55
695.125	5.56
695.45	5.55
695.775	5.52
696.099	5.48
696.424	5.49
696.749	5.34
697.073	5.29
697.398	5.31
697.723	5.33
698.047	5.21
698.372	5.16
698.696	5.2
699.02	5.25
699.345	5.16
699.669	5.19
699.993	5.1
700.318	5.09
700.642	5.15
700.966	5.01
701.29	5.04
701.614	5.06
701.938	5.06
702.262	5.13
702.586	5.05
702.91	5.15
703.234	5.12
703.557	5.14
703.881	5.22
704.205	5.33
704.529	5.28
704.852	5.48
705.176	5.55
705.499	5.53
705.823	5.48
706.146	5.54
706.47	5.4
706.793	5.58
707.117	5.56
707.44	5.45
707.763	5.49
708.086	5.42
708.409	5.35
708.733	5.3
709.056	5.16
709.379	5.32
709.702	5.24
710.025	5.29
710.348	5.3
710.671	5.16
710.993	5.11
711.316	5.21
711.639	5.21
711.962	5.16
712.284	5.17
712.607	5.25
712.93	5.28
713.252	5.31
713.575	5.18
713.897	5.21
714.22	5.32
714.542	5.33
714.864	5.32
715.187	5.28
715.509	5.23
715.831	5.32
716.153	5.34
716.475	5.3
716.798	5.33
717.12	5.42
717.442	5.5
717.764	5.41
718.085	5.25
718.407	5.23
718.729	5.28
719.051	5.26
719.373	5.21
719.695	5.23
720.016	5.37
720.338	5.48
720.659	5.59
720.981	5.48
721.302	5.49
721.624	5.59
721.945	5.73
722.267	5.73
722.588	5.61
722.909	5.68
723.231	5.62
723.552	5.56
723.873	5.66
724.194	5.67
724.515	5.73
724.836	5.93
725.157	6
725.478	5.87
725.799	5.82
726.12	5.85
726.441	5.88
726.762	5.83
727.083	5.72
727.403	5.66
727.724	5.82
728.045	6.09
728.365	6.05
728.686	6.08
729.006	6.23
729.327	6.39
729.647	6.21
729.967	6.26
730.288	6.34
730.608	6.19
730.928	6.18
731.249	6.12
731.569	6
731.889	5.77
732.209	5.93
732.529	6.09
732.849	6.14
733.169	6.1
733.489	6.02
733.809	6.02
734.129	5.98
734.448	6
734.768	5.63
735.088	5.84
735.408	5.88
735.727	5.84
736.047	5.79
736.366	5.91
736.686	6.07
737.005	6.03
737.325	5.93
737.644	5.88
737.963	5.95
738.283	5.92
738.602	6.09
738.921	6.05
739.24	6.01
739.56	5.92
739.879	6.02
740.198	6.17
740.517	6.09
740.836	6.09
741.155	6.02
741.473	6.18
741.792	5.96
742.111	5.89
742.43	5.97
742.748	5.87
743.067	5.83
743.386	5.81
743.704	5.61
744.023	5.79
744.341	5.8
744.66	5.99
744.978	5.99
745.297	5.86
745.615	5.9
745.933	5.76
746.252	5.94
746.57	5.71
746.888	5.41
747.206	5.26
747.524	5.14
747.842	5.14
748.16	5.41
748.478	5.47
748.796	5.53
749.114	5.46
749.432	5.49
749.749	5.55
750.067	5.32
750.385	5.32
750.703	5.25
751.02	5.24
751.338	4.9
751.655	4.98
751.973	4.91
752.29	4.85
752.608	5.25
752.925	5.03
753.242	5.1
753.56	5.32
753.877	5.86
754.194	5.88
754.511	5.77
754.828	5.42
755.145	5.47
755.462	5.18
755.779	5.39
756.096	5.4
756.413	5.38
756.73	5.69
757.047	5.7
757.364	5.87
757.68	5.81
757.997	6.22
758.314	6.06
758.63	6.05
758.947	6.22
759.264	5.94
759.58	6.09
759.896	6.21
760.213	6.2
760.529	6.04
760.846	6.19
761.162	6.24
761.478	6.3
761.794	5.94
762.11	6.28
762.426	6.1
762.743	6.26
763.059	6.16
763.375	6.09
763.69	6.37
764.006	6.31
764.322	6.48
764.638	6.34
764.954	6.7
765.27	6.85
765.585	6.77
765.901	6.68
766.216	6.82
766.532	6.78
766.848	6.71
767.163	6.68
767.478	6.76
767.794	6.81
768.109	6.7
768.424	7.04
768.74	6.8
769.055	6.96
769.37	6.94
769.685	6.8
770	6.57
770.315	6.22
770.63	6.34
770.945	6.28
771.26	6.51
771.575	5.95
771.89	6.13
772.205	6.32
772.52	6.53
772.834	6.18
773.149	6.2
773.464	6.31
773.778	6.53
774.093	6.33
774.407	6.25
774.722	6.61
775.036	6.66
775.351	6.99
775.665	6.89
775.979	6.6
776.293	6.91
776.608	7.29
776.922	7.57
777.236	7.33
777.55	7.38
777.864	7.32
778.178	7.71
778.492	7.87
778.806	7.77
779.12	7.6
779.434	7.56
779.747	7.52
780.061	7.61
780.375	7.45
780.689	7.39
781.002	7.75
781.316	7.87
781.629	7.93
781.943	7.52
782.256	7.41
782.57	7.44
782.883	7.56
783.196	7.49
783.51	7.44
783.823	7.8
784.136	7.75
784.449	7.5
784.762	7.55
785.075	6.96
785.388	6.83
785.701	6.94
786.014	7.04
786.327	6.8
786.64	6.94
786.953	7.2
787.266	7.3
787.578	6.91
787.891	6.42
788.204	6.54
788.516	6.84
788.829	7.06
789.141	7.4
789.454	7.19
789.766	7.5
790.079	7.66
790.391	7.16
790.703	7.15
791.016	7.26
791.328	7
791.64	6.83
791.952	6.85
792.264	6.64
792.576	6.69
792.888	6.61
793.2	6.24
793.512	5.76
793.824	5.89
794.136	5.98
794.448	6.26
794.76	5.81
795.071	6.02
795.383	6.01
795.695	5.67
796.006	6
796.318	5.71
796.629	5.88
796.941	6.26
797.252	6.74
797.564	6.75
797.875	6.68
798.186	6.93
798.497	7.15
798.809	7.26
799.12	7.18
799.431	7.69
799.742	7.99
800.053	8.35
800.364	8.56
800.675	8.59
800.986	8.54
801.297	8.59
801.608	8.52
801.918	8.01
802.229	8.02
802.54	7.45
802.851	7.38
803.161	6.97
803.472	7.14
803.782	6.64
804.093	6.44
804.403	6.18
804.714	6.45
805.024	6.2
805.334	6.87
805.645	7.14
805.955	7.05
806.265	6.68
806.575	6.49
806.885	6.27
807.195	6.59
807.505	7.12
807.815	7.27
808.125	7.12
808.435	7.65
808.745	7.93
809.055	9
809.365	9.21
809.674	8.89
809.984	8.71
810.294	8.8
810.603	9.33
810.913	10.51
811.222	10.62
811.532	10.66
811.841	10.53
812.151	10.95
812.46	10.73
812.769	10.57
813.079	10.5
813.388	10.4
813.697	10.6
814.006	9.77
814.315	10.11
814.624	10.11
814.933	10.32
815.242	9.53
815.551	8.91
815.86	8.56
816.169	8.95
816.478	8.69
816.786	8.11
817.095	7.98
817.404	7.9
817.712	7.89
818.021	8
818.33	7.31
818.638	7.11
818.947	7.71
819.255	7.99
819.563	7.93
819.872	8.04
820.18	7.81
820.488	7.92
820.796	8
821.105	7.78
821.413	7.7
821.721	8.07
822.029	7.94
822.337	7.96
822.645	8
822.953	8.1
823.26	8.32
823.568	8.13
823.876	8.01
824.184	7.99
824.491	8.07
824.799	8.14
825.107	7.94
825.414	7.93
825.722	7.91
826.029	8
826.337	8.07
826.644	8.03
826.951	8.04
827.259	7.9
827.566	8.02
827.873	7.88
828.18	7.6
828.488	7.75
828.795	7.72
829.102	7.65
829.409	7.53
829.716	7.12
830.023	7.37
830.329	7.07
830.636	7.12
830.943	6.89
831.25	7.08
831.557	7.3
831.863	7.03
832.17	6.61
832.476	6.75
832.783	6.55
833.089	6.44
833.396	6.48
833.702	6.58
834.009	6.8
834.315	7.14
834.621	7.48
834.928	7.56
835.234	7.35
835.54	7.12
835.846	6.95
836.152	7.32
836.458	7.23
836.764	6.97
837.07	6.97
837.376	6.59
837.682	6.53
837.988	6.72
838.293	7.29
838.599	7.98
838.905	7.77
839.211	7.94
839.516	7.76
839.822	7.84
840.127	7.37
840.433	7.51
840.738	7.9
841.044	7.8
841.349	6.92
841.654	7.63
841.959	8.12
842.265	8.72
842.57	8.34
842.875	8.26
843.18	9.13
843.485	9.11
843.79	10.44
844.095	9.73
844.4	10.43
844.705	8.12
845.01	7.72
845.315	7.3
845.619	6.87
845.924	7.16
846.229	6.76
846.533	7.84
846.838	6.88
847.142	5.18
847.447	4.11
847.751	4.72
848.056	2.59
848.36	4.09
848.664	3.58
848.969	4.43
849.273	4.41
849.577	4.1
849.881	3.11
850.185	3.47
850.489	5
850.794	2.57
851.097	4.41
851.401	5.52
851.705	5.67
852.009	5.88
852.313	6.44
852.617	6.71
852.92	6.66
853.224	6.02
853.528	7.85
853.831	8.5
854.135	7.3
854.438	8.55
854.742	5.83
855.045	5.15
855.349	6.09
855.652	7.51
855.955	9.15
856.259	8.34
856.562	6.07
856.865	5.6
857.168	6.19
857.471	8.36
857.774	7.67
858.077	6.76
858.38	7.37
858.683	8.03
858.986	10.31
859.289	9.49
859.592	11.82
859.894	11.81
860.197	11.81
860.5	14.25
860.802	16.07
861.105	16.55
861.407	17.26
861.71	16.16
862.012	14.46
862.315	13.6
862.617	14.2
862.919	15.34
863.222	15.34
863.524	16.67
863.826	15.67
864.128	15.89
864.43	17.19
864.732	15.01
865.034	14.98
865.336	12.49
865.638	13.81
865.94	10.22
866.242	9.53
866.544	9.56
866.846	9.41
867.147	7.78
867.449	7.71
867.751	9.29
868.052	9.9
868.354	7.45
868.655	7.63
868.957	6.11
869.258	3.78
869.56	5.75
869.861	3.95
870.162	2.26
870.463	2.06
870.765	1.3
871.066	3.84
871.367	3.17
871.668	5.18
871.969	6.01
872.27	6.43
872.571	6.13
872.872	7.06
873.173	5.61
873.473	6.76
873.774	7.86
874.075	6.92
874.376	5.48
874.676	6.71
874.977	4.27
875.277	8.29
875.578	10.25
875.878	7.77
876.179	8.73
876.479	9.28
876.78	9.61
877.08	10.55
877.38	8.53
877.68	9.02
877.981	6.16
878.281	3.25
878.581	5.54
