Data from BU58137_Reflection_00014.txt Node
Date: Mon Nov 18 16:40:04 EST 2019
User: vgr7
Spectrometer: USB2G7710
Scans to average: 3
Trigger mode: 4
Integration Time (sec): 2.000000E-2
Electric dark correction enabled: true
Boxcar width: 10
XAxis mode: Wavelengths
Number of Pixels in Spectrum: 2048
>>>>>Begin Spectral Data<<<<<
177.721	-121.1
178.105	-67.24
178.488	-28.34
178.871	75.61
179.254	97.43
179.636	74.49
180.019	130.71
180.402	177.27
180.785	-242.96
181.168	60.12
181.55	-55.08
181.933	88.02
182.316	135.81
182.698	113.6
183.081	74.09
183.463	10.17
183.846	26.94
184.228	76.5
184.611	83.39
184.993	114.69
185.376	120.85
185.758	152.16
186.14	158.1
186.522	169.65
186.904	1028.14
187.287	378.8
187.669	-730.12
188.051	529.18
188.433	-507.94
188.815	-330.68
189.197	-165.42
189.579	-128.74
189.961	-131.32
190.342	-124.06
190.724	-127.42
191.106	-159.35
191.488	-110.56
191.869	-143.14
192.251	-104.74
192.633	-97.27
193.014	-116.07
193.396	-91.72
193.777	-72.14
194.159	-59.41
194.54	-54.7
194.922	-31.2
195.303	-10.78
195.684	-4.5
196.065	20.36
196.447	24.17
196.828	32.12
197.209	14.15
197.59	14.75
197.971	22.68
198.352	52.28
198.733	39.84
199.114	45.02
199.495	55.55
199.876	55.17
200.257	72.23
200.638	83.08
201.018	74.06
201.399	82.08
201.78	91.66
202.16	83.66
202.541	75.68
202.922	77.29
203.302	58.43
203.683	38.8
204.063	11.92
204.444	18.7
204.824	0.5
205.204	4.35
205.585	-14.25
205.965	-5.7
206.345	-27.3
206.725	-20.73
207.106	-24.88
207.486	-27.93
207.866	-22.14
208.246	-17.25
208.626	-29.1
209.006	-24.2
209.386	-29.81
209.766	-35.09
210.145	-43.22
210.525	-33.35
210.905	-23.12
211.285	-16.23
211.664	-17.4
212.044	-14.2
212.424	-10.92
212.803	-13.68
213.183	-14.77
213.562	-13.28
213.942	-18.55
214.321	-11.96
214.701	-20.97
215.08	-36.35
215.459	-20.72
215.838	-28.19
216.218	-53.11
216.597	-57.5
216.976	-48.62
217.355	-72.84
217.734	-79.84
218.113	-67.24
218.492	-81.59
218.871	-119.63
219.25	-94.21
219.629	-121.67
220.008	-108.05
220.387	-149.38
220.766	-101.41
221.144	-112.88
221.523	-110.76
221.902	-101.67
222.28	-144.19
222.659	-110.25
223.037	-73.53
223.416	-97.47
223.794	-106.26
224.173	-81.1
224.551	-66.09
224.929	-60.68
225.308	-46.42
225.686	-43.13
226.064	-32.16
226.442	-25.9
226.821	-21.72
227.199	-22.67
227.577	-17.78
227.955	-18.66
228.333	-16.71
228.711	-17.37
229.089	-14.35
229.467	-16.39
229.845	-15.95
230.222	-11.71
230.6	-12.27
230.978	-13.61
231.356	-9.69
231.733	-6.9
232.111	-5.6
232.488	-2.4
232.866	-1.57
233.243	0.45
233.621	2.4
233.998	2.5
234.376	0.54
234.753	0.85
235.13	2.62
235.508	3.63
235.885	4.39
236.262	2.44
236.639	1.73
237.016	2.82
237.393	5.52
237.77	4.99
238.147	5.44
238.524	5.99
238.901	6.16
239.278	5.91
239.655	6.25
240.032	5.7
240.409	4.74
240.785	4.54
241.162	4.75
241.539	4.14
241.915	3.76
242.292	4.21
242.668	3.73
243.045	3.57
243.421	3.26
243.798	3.32
244.174	3.28
244.551	3.43
244.927	3.05
245.303	3.12
245.679	3.17
246.056	2.97
246.432	2.8
246.808	2.86
247.184	2.52
247.56	2.2
247.936	2.3
248.312	2.51
248.688	2.36
249.064	1.99
249.44	2.07
249.815	1.99
250.191	2.01
250.567	2.35
250.943	2.03
251.318	2.1
251.694	2.01
252.069	2.23
252.445	2.29
252.82	2.43
253.196	2.19
253.571	2.18
253.947	2.25
254.322	2.32
254.697	2.29
255.073	2.31
255.448	2.42
255.823	2.14
256.198	2.23
256.573	2.53
256.948	2.88
257.323	2.98
257.698	3.25
258.073	3.27
258.448	3.17
258.823	3.28
259.198	3.33
259.573	3.42
259.948	3.41
260.322	3.55
260.697	3.47
261.072	3.39
261.446	3.4
261.821	3.48
262.195	3.6
262.57	3.37
262.944	3.47
263.319	3.56
263.693	3.68
264.067	3.63
264.442	3.6
264.816	3.48
265.19	3.3
265.564	3.13
265.938	2.86
266.313	2.83
266.687	2.92
267.061	2.93
267.435	2.99
267.809	2.97
268.183	2.84
268.556	2.8
268.93	2.97
269.304	2.82
269.678	2.82
270.051	2.72
270.425	2.81
270.799	2.73
271.172	2.75
271.546	2.69
271.919	2.63
272.293	2.68
272.666	2.67
273.04	2.76
273.413	2.83
273.787	2.92
274.16	2.91
274.533	2.92
274.906	2.84
275.279	2.66
275.653	2.61
276.026	2.6
276.399	2.73
276.772	2.68
277.145	2.66
277.518	2.65
277.891	2.62
278.263	2.61
278.636	2.64
279.009	2.47
279.382	2.62
279.755	2.58
280.127	2.58
280.5	2.73
280.872	2.73
281.245	2.65
281.617	2.86
281.99	3
282.362	3
282.735	2.94
283.107	2.89
283.479	3.06
283.852	2.98
284.224	2.93
284.596	2.91
284.968	3.01
285.34	2.98
285.713	2.91
286.085	2.96
286.457	3.04
286.829	3.22
287.201	3.25
287.572	3.24
287.944	3.14
288.316	3.13
288.688	3.08
289.06	3.04
289.431	2.91
289.803	2.84
290.175	2.96
290.546	3.17
290.918	3.25
291.289	3.22
291.661	3.27
292.032	3.35
292.403	3.39
292.775	3.46
293.146	3.48
293.517	3.58
293.889	3.57
294.26	3.68
294.631	3.59
295.002	3.57
295.373	3.61
295.744	3.68
296.115	3.66
296.486	3.58
296.857	3.74
297.228	3.9
297.599	3.9
297.97	3.92
298.34	3.81
298.711	3.93
299.082	3.88
299.452	3.89
299.823	3.99
300.194	3.93
300.564	3.92
300.935	4.02
301.305	3.97
301.676	4.13
302.046	4.17
302.416	4.3
302.787	4.34
303.157	4.37
303.527	4.38
303.897	4.51
304.267	4.75
304.637	4.71
305.008	4.65
305.378	4.73
305.748	4.66
306.117	4.66
306.487	4.78
306.857	4.78
307.227	4.92
307.597	4.91
307.967	5.01
308.336	5.14
308.706	5.13
309.076	5.33
309.445	5.25
309.815	5.19
310.184	5.13
310.554	5.14
310.923	5.16
311.293	5.29
311.662	5.26
312.031	5.23
312.401	5.25
312.77	5.3
313.139	5.29
313.508	5.38
313.877	5.48
314.246	5.44
314.616	5.46
314.985	5.44
315.353	5.34
315.722	5.59
316.091	5.64
316.46	5.57
316.829	5.48
317.198	5.61
317.567	5.73
317.935	5.92
318.304	6.19
318.672	6.32
319.041	6.44
319.41	6.59
319.778	6.83
320.147	6.89
320.515	6.96
320.883	6.99
321.252	7.03
321.62	7.05
321.988	7.03
322.357	7.12
322.725	7.17
323.093	7.37
323.461	7.22
323.829	7.27
324.197	7.41
324.565	7.56
324.933	7.62
325.301	7.66
325.669	7.56
326.037	7.48
326.405	7.49
326.772	7.39
327.14	7.52
327.508	7.42
327.875	7.58
328.243	7.62
328.61	7.72
328.978	7.74
329.346	7.87
329.713	8.01
330.08	8.15
330.448	8.21
330.815	8.17
331.182	8.28
331.55	8.25
331.917	8.3
332.284	8.32
332.651	8.35
333.018	8.47
333.385	8.69
333.752	8.8
334.119	8.98
334.486	9.1
334.853	9.1
335.22	9.18
335.587	9.2
335.954	9.32
336.32	9.36
336.687	9.33
337.054	9.42
337.42	9.51
337.787	9.59
338.153	9.59
338.52	9.81
338.886	9.76
339.253	9.78
339.619	9.81
339.986	9.67
340.352	9.75
340.718	9.71
341.084	9.58
341.451	9.58
341.817	9.5
342.183	9.56
342.549	9.53
342.915	9.5
343.281	9.44
343.647	9.31
344.013	9.43
344.379	9.42
344.745	9.33
345.11	9.3
345.476	9.25
345.842	9.31
346.208	9.17
346.573	9.3
346.939	9.35
347.304	9.22
347.67	9.21
348.035	9.15
348.401	9.07
348.766	9.2
349.132	9.24
349.497	9.23
349.862	9.31
350.228	9.24
350.593	9.14
350.958	9.2
351.323	9.22
351.688	9.15
352.053	9.19
352.418	9.23
352.783	9.27
353.148	9.26
353.513	9.21
353.878	9.19
354.243	9.2
354.608	9.17
354.972	9.29
355.337	9.43
355.702	9.5
356.066	9.64
356.431	9.55
356.795	9.48
357.16	9.44
357.524	9.2
357.889	9.13
358.253	9.18
358.618	9.13
358.982	9.15
359.346	9.04
359.71	8.98
360.075	9
360.439	8.98
360.803	8.91
361.167	8.85
361.531	8.86
361.895	8.68
362.259	8.63
362.623	8.58
362.987	8.51
363.351	8.41
363.714	8.25
364.078	8.23
364.442	8.18
364.806	8.17
365.169	8.25
365.533	8.27
365.896	8.23
366.26	8.18
366.623	8.07
366.987	8.04
367.35	7.98
367.714	7.88
368.077	7.73
368.44	7.67
368.803	7.65
369.167	7.54
369.53	7.54
369.893	7.49
370.256	7.42
370.619	7.32
370.982	7.21
371.345	7.2
371.708	7.13
372.071	7.15
372.434	7.05
372.797	6.95
373.159	6.83
373.522	6.77
373.885	6.73
374.247	6.7
374.61	6.67
374.973	6.59
375.335	6.52
375.698	6.45
376.06	6.39
376.423	6.34
376.785	6.32
377.147	6.29
377.51	6.2
377.872	6.12
378.234	6.14
378.596	6.11
378.958	6.05
379.321	6.01
379.683	5.89
380.045	5.88
380.407	5.83
380.769	5.77
381.13	5.72
381.492	5.61
381.854	5.54
382.216	5.45
382.578	5.44
382.939	5.34
383.301	5.31
383.663	5.27
384.024	5.17
384.386	5.14
384.747	5.11
385.109	5.11
385.47	5.06
385.832	4.94
386.193	4.94
386.554	4.9
386.916	4.86
387.277	4.81
387.638	4.76
387.999	4.75
388.36	4.74
388.721	4.67
389.082	4.67
389.443	4.61
389.804	4.63
390.165	4.54
390.526	4.56
390.887	4.54
391.248	4.55
391.609	4.57
391.969	4.51
392.33	4.45
392.691	4.43
393.051	4.41
393.412	4.44
393.772	4.35
394.133	4.28
394.493	4.21
394.854	4.17
395.214	4.15
395.574	4.09
395.935	4.02
396.295	4.06
396.655	4.02
397.015	3.99
397.376	3.94
397.736	3.92
398.096	3.91
398.456	3.88
398.816	3.82
399.176	3.76
399.535	3.74
399.895	3.7
400.255	3.66
400.615	3.61
400.975	3.56
401.334	3.55
401.694	3.55
402.054	3.54
402.413	3.53
402.773	3.45
403.132	3.43
403.492	3.45
403.851	3.43
404.211	3.41
404.57	3.4
404.929	3.4
405.288	3.4
405.648	3.35
406.007	3.31
406.366	3.29
406.725	3.32
407.084	3.31
407.443	3.33
407.802	3.32
408.161	3.31
408.52	3.3
408.879	3.31
409.238	3.29
409.596	3.28
409.955	3.28
410.314	3.29
410.673	3.26
411.031	3.26
411.39	3.24
411.748	3.23
412.107	3.22
412.465	3.21
412.824	3.19
413.182	3.17
413.54	3.16
413.899	3.16
414.257	3.13
414.615	3.09
414.974	3.09
415.332	3.08
415.69	3.08
416.048	3.07
416.406	3.08
416.764	3.07
417.122	3.08
417.48	3.05
417.838	3.03
418.195	3.03
418.553	3
418.911	2.98
419.269	2.98
419.626	2.96
419.984	2.93
420.342	2.92
420.699	2.93
421.057	2.92
421.414	2.92
421.772	2.89
422.129	2.88
422.486	2.86
422.844	2.85
423.201	2.83
423.558	2.82
423.915	2.8
424.273	2.79
424.63	2.75
424.987	2.75
425.344	2.76
425.701	2.75
426.058	2.74
426.415	2.73
426.772	2.72
427.128	2.7
427.485	2.71
427.842	2.71
428.199	2.71
428.555	2.7
428.912	2.7
429.269	2.73
429.625	2.73
429.982	2.73
430.338	2.72
430.695	2.73
431.051	2.72
431.407	2.72
431.764	2.7
432.12	2.7
432.476	2.7
432.832	2.69
433.189	2.69
433.545	2.69
433.901	2.69
434.257	2.69
434.613	2.7
434.969	2.7
435.325	2.69
435.681	2.68
436.036	2.69
436.392	2.68
436.748	2.65
437.104	2.64
437.459	2.63
437.815	2.65
438.171	2.65
438.526	2.67
438.882	2.66
439.237	2.68
439.593	2.69
439.948	2.68
440.304	2.67
440.659	2.68
441.014	2.68
441.369	2.67
441.725	2.67
442.08	2.68
442.435	2.66
442.79	2.65
443.145	2.65
443.5	2.63
443.855	2.61
444.21	2.62
444.565	2.63
444.92	2.63
445.275	2.61
445.629	2.61
445.984	2.61
446.339	2.6
446.693	2.59
447.048	2.58
447.403	2.57
447.757	2.57
448.112	2.55
448.466	2.54
448.82	2.55
449.175	2.56
449.529	2.54
449.883	2.55
450.238	2.54
450.592	2.55
450.946	2.54
451.3	2.56
451.654	2.56
452.008	2.56
452.362	2.56
452.716	2.56
453.07	2.55
453.424	2.54
453.778	2.54
454.132	2.53
454.486	2.52
454.839	2.51
455.193	2.51
455.547	2.54
455.9	2.54
456.254	2.54
456.607	2.52
456.961	2.53
457.314	2.52
457.668	2.52
458.021	2.51
458.375	2.52
458.728	2.53
459.081	2.53
459.434	2.53
459.787	2.52
460.141	2.51
460.494	2.52
460.847	2.52
461.2	2.51
461.553	2.52
461.906	2.55
462.259	2.58
462.611	2.59
462.964	2.6
463.317	2.61
463.67	2.62
464.022	2.62
464.375	2.62
464.728	2.63
465.08	2.64
465.433	2.66
465.785	2.66
466.138	2.64
466.49	2.65
466.843	2.64
467.195	2.66
467.547	2.68
467.899	2.68
468.252	2.7
468.604	2.71
468.956	2.7
469.308	2.7
469.66	2.69
470.012	2.7
470.364	2.68
470.716	2.69
471.068	2.69
471.42	2.71
471.772	2.72
472.123	2.71
472.475	2.73
472.827	2.72
473.178	2.74
473.53	2.75
473.882	2.74
474.233	2.77
474.585	2.74
474.936	2.74
475.288	2.74
475.639	2.72
475.99	2.73
476.342	2.74
476.693	2.74
477.044	2.73
477.395	2.7
477.746	2.71
478.097	2.7
478.448	2.7
478.8	2.68
479.15	2.67
479.501	2.68
479.852	2.66
480.203	2.66
480.554	2.66
480.905	2.66
481.255	2.67
481.606	2.66
481.957	2.67
482.307	2.68
482.658	2.69
483.009	2.69
483.359	2.69
483.709	2.7
484.06	2.69
484.41	2.69
484.761	2.7
485.111	2.69
485.461	2.68
485.811	2.68
486.162	2.69
486.512	2.7
486.862	2.7
487.212	2.7
487.562	2.7
487.912	2.7
488.262	2.7
488.612	2.7
488.961	2.69
489.311	2.69
489.661	2.7
490.011	2.7
490.36	2.69
490.71	2.69
491.06	2.69
491.409	2.7
491.759	2.71
492.108	2.72
492.458	2.72
492.807	2.73
493.157	2.74
493.506	2.76
493.855	2.75
494.204	2.76
494.554	2.78
494.903	2.79
495.252	2.8
495.601	2.82
495.95	2.84
496.299	2.87
496.648	2.89
496.997	2.89
497.346	2.91
497.695	2.93
498.043	2.96
498.392	2.98
498.741	3.01
499.09	3.04
499.438	3.08
499.787	3.12
500.135	3.16
500.484	3.2
500.832	3.22
501.181	3.25
501.529	3.28
501.878	3.3
502.226	3.33
502.574	3.35
502.923	3.37
503.271	3.4
503.619	3.46
503.967	3.49
504.315	3.54
504.663	3.59
505.011	3.66
505.359	3.7
505.707	3.74
506.055	3.76
506.403	3.8
506.751	3.83
507.098	3.87
507.446	3.92
507.794	3.96
508.141	4.03
508.489	4.07
508.837	4.14
509.184	4.2
509.531	4.26
509.879	4.35
510.226	4.43
510.574	4.49
510.921	4.53
511.268	4.59
511.616	4.68
511.963	4.75
512.31	4.81
512.657	4.89
513.004	4.98
513.351	5.06
513.698	5.14
514.045	5.23
514.392	5.33
514.739	5.42
515.086	5.52
515.432	5.59
515.779	5.68
516.126	5.77
516.473	5.86
516.819	5.93
517.166	6
517.512	6.07
517.859	6.12
518.205	6.21
518.552	6.3
518.898	6.35
519.245	6.42
519.591	6.5
519.937	6.57
520.283	6.64
520.629	6.75
520.976	6.84
521.322	6.93
521.668	7.02
522.014	7.13
522.36	7.25
522.706	7.37
523.052	7.5
523.398	7.64
523.743	7.78
524.089	7.94
524.435	8.06
524.781	8.22
525.126	8.38
525.472	8.5
525.817	8.64
526.163	8.74
526.509	8.85
526.854	8.95
527.199	9.07
527.545	9.17
527.89	9.27
528.235	9.38
528.581	9.49
528.926	9.61
529.271	9.73
529.616	9.84
529.961	9.95
530.306	10.08
530.651	10.2
530.996	10.35
531.341	10.48
531.686	10.65
532.031	10.79
532.376	10.94
532.721	11.11
533.065	11.25
533.41	11.43
533.755	11.62
534.099	11.8
534.444	11.98
534.788	12.17
535.133	12.35
535.477	12.53
535.822	12.73
536.166	12.96
536.51	13.18
536.855	13.45
537.199	13.71
537.543	13.96
537.887	14.22
538.231	14.49
538.576	14.74
538.92	14.99
539.264	15.23
539.608	15.47
539.951	15.69
540.295	15.92
540.639	16.15
540.983	16.36
541.327	16.57
541.671	16.78
542.014	16.99
542.358	17.19
542.701	17.41
543.045	17.61
543.389	17.8
543.732	18.02
544.075	18.22
544.419	18.44
544.762	18.67
545.105	18.93
545.449	19.17
545.792	19.44
546.135	19.72
546.478	20.03
546.821	20.35
547.165	20.66
547.508	20.98
547.851	21.27
548.194	21.59
548.536	21.9
548.879	22.22
549.222	22.54
549.565	22.89
549.908	23.18
550.25	23.49
550.593	23.82
550.936	24.15
551.278	24.5
551.621	24.86
551.963	25.2
552.306	25.51
552.648	25.82
552.991	26.19
553.333	26.51
553.675	26.82
554.017	27.12
554.36	27.41
554.702	27.72
555.044	28
555.386	28.3
555.728	28.61
556.07	28.93
556.412	29.23
556.754	29.5
557.096	29.87
557.438	30.18
557.78	30.51
558.121	30.9
558.463	31.17
558.805	31.49
559.147	31.77
559.488	32.04
559.83	32.28
560.171	32.57
560.513	32.84
560.854	33.05
561.196	33.31
561.537	33.53
561.878	33.81
562.22	34.09
562.561	34.38
562.902	34.65
563.243	34.9
563.584	35.18
563.925	35.47
564.266	35.71
564.607	35.92
564.948	36.17
565.289	36.35
565.63	36.56
565.971	36.76
566.312	37.05
566.653	37.31
566.993	37.58
567.334	37.76
567.675	38
568.015	38.27
568.356	38.45
568.696	38.73
569.037	38.93
569.377	39.16
569.718	39.35
570.058	39.55
570.398	39.77
570.739	39.93
571.079	40.1
571.419	40.29
571.759	40.52
572.099	40.66
572.439	40.82
572.779	41.04
573.119	41.2
573.459	41.32
573.799	41.47
574.139	41.58
574.479	41.76
574.819	41.89
575.158	42.02
575.498	42.23
575.838	42.38
576.177	42.52
576.517	42.72
576.856	42.95
577.196	43.14
577.535	43.24
577.875	43.44
578.214	43.6
578.553	43.76
578.893	43.91
579.232	44.11
579.571	44.25
579.91	44.37
580.25	44.52
580.589	44.62
580.928	44.81
581.267	44.96
581.606	45.13
581.945	45.24
582.283	45.43
582.622	45.6
582.961	45.67
583.3	45.83
583.639	45.94
583.977	45.97
584.316	46.01
584.654	46.22
584.993	46.34
585.332	46.5
585.67	46.56
586.008	46.68
586.347	46.76
586.685	46.89
587.024	46.99
587.362	47.14
587.7	47.29
588.038	47.38
588.376	47.57
588.715	47.63
589.053	47.79
589.391	47.82
589.729	47.88
590.067	48.05
590.404	48.1
590.742	48.2
591.08	48.22
591.418	48.36
591.756	48.39
592.093	48.44
592.431	48.5
592.769	48.65
593.106	48.8
593.444	48.77
593.781	48.84
594.119	48.87
594.456	48.83
594.793	48.83
595.131	48.87
595.468	48.92
595.805	49.05
596.143	49.06
596.48	49.11
596.817	49.11
597.154	49.15
597.491	49.24
597.828	49.24
598.165	49.39
598.502	49.45
598.839	49.58
599.176	49.63
599.512	49.74
599.849	49.85
600.186	49.85
600.523	50.02
600.859	50.09
601.196	50.21
601.532	50.3
601.869	50.43
602.205	50.53
602.542	50.58
602.878	50.53
603.215	50.67
603.551	50.83
603.887	50.97
604.223	51.04
604.56	51.04
604.896	51.13
605.232	51.13
605.568	51.18
605.904	51.26
606.24	51.36
606.576	51.36
606.912	51.4
607.248	51.52
607.583	51.6
607.919	51.63
608.255	51.67
608.591	51.78
608.926	51.86
609.262	51.9
609.597	51.95
609.933	52.05
610.268	52.04
610.604	52.02
610.939	52.05
611.275	52.09
611.61	52.2
611.945	52.16
612.281	52.2
612.616	52.25
612.951	52.2
613.286	52.21
613.621	52.3
613.956	52.33
614.291	52.26
614.626	52.21
614.961	52.36
615.296	52.36
615.631	52.4
615.966	52.34
616.3	52.37
616.635	52.46
616.97	52.46
617.304	52.53
617.639	52.56
617.973	52.55
618.308	52.61
618.642	52.63
618.977	52.78
619.311	52.88
619.646	52.95
619.98	53.02
620.314	53.09
620.648	53.12
620.983	53.14
621.317	53.25
621.651	53.36
621.985	53.25
622.319	53.37
622.653	53.35
622.987	53.38
623.321	53.39
623.655	53.41
623.988	53.51
624.322	53.48
624.656	53.48
624.99	53.46
625.323	53.41
625.657	53.38
625.99	53.41
626.324	53.43
626.657	53.52
626.991	53.5
627.324	53.5
627.658	53.48
627.991	53.51
628.324	53.51
628.657	53.5
628.991	53.55
629.324	53.55
629.657	53.62
629.99	53.73
630.323	53.79
630.656	53.81
630.989	53.81
631.322	53.86
631.655	54
631.987	54.07
632.32	54.09
632.653	54.12
632.986	54.21
633.318	54.15
633.651	54.08
633.984	54.23
634.316	54.23
634.649	54.26
634.981	54.3
635.313	54.26
635.646	54.38
635.978	54.44
636.31	54.4
636.643	54.45
636.975	54.47
637.307	54.5
637.639	54.44
637.971	54.46
638.303	54.4
638.635	54.35
638.967	54.31
639.299	54.36
639.631	54.4
639.963	54.19
640.295	54.21
640.626	54.15
640.958	54.06
641.29	54.07
641.621	54
641.953	53.95
642.285	53.97
642.616	53.87
642.948	53.96
643.279	54.01
643.61	53.92
643.942	53.86
644.273	53.88
644.604	53.86
644.936	53.89
645.267	53.98
645.598	54.02
645.929	54.14
646.26	54.14
646.591	54.2
646.922	54.3
647.253	54.35
647.584	54.48
647.915	54.5
648.245	54.54
648.576	54.56
648.907	54.64
649.238	54.72
649.568	54.73
649.899	54.59
650.229	54.73
650.56	54.93
650.89	55.05
651.221	54.97
651.551	55.11
651.882	55.11
652.212	55.18
652.542	55.13
652.872	55.04
653.203	55.06
653.533	55.04
653.863	55.2
654.193	55.12
654.523	55.13
654.853	55.14
655.183	55.1
655.513	55.26
655.843	55.24
656.172	55.23
656.502	55.33
656.832	55.36
657.162	55.27
657.491	55.16
657.821	55.15
658.15	55.31
658.48	55.25
658.809	55.2
659.139	55.15
659.468	55.16
659.798	55.28
660.127	55.29
660.456	55.32
660.785	55.27
661.115	55.36
661.444	55.29
661.773	55.43
662.102	55.6
662.431	55.58
662.76	55.57
663.089	55.62
663.418	55.54
663.747	55.53
664.076	55.61
664.404	55.56
664.733	55.54
665.062	55.43
665.39	55.43
665.719	55.56
666.048	55.53
666.376	55.52
666.705	55.42
667.033	55.52
667.362	55.49
667.69	55.51
668.018	55.57
668.347	55.45
668.675	55.41
669.003	55.27
669.331	55.14
669.659	55.26
669.987	55.31
670.315	55.39
670.643	55.5
670.971	55.56
671.299	55.55
671.627	55.47
671.955	55.47
672.283	55.46
672.61	55.32
672.938	55.4
673.266	55.45
673.593	55.44
673.921	55.43
674.249	55.47
674.576	55.36
674.904	55.4
675.231	55.64
675.558	55.41
675.886	55.53
676.213	55.56
676.54	55.42
676.867	55.29
677.195	55.24
677.522	55.17
677.849	55.12
678.176	55.26
678.503	55.29
678.83	55.27
679.157	55.25
679.484	55.31
679.81	55.29
680.137	55.16
680.464	55.24
680.791	55.11
681.117	55.17
681.444	55.24
681.771	55.21
682.097	55.17
682.424	55.22
682.75	55.04
683.077	55.1
683.403	55.08
683.729	55.05
684.056	55.11
684.382	55.07
684.708	54.98
685.034	54.73
685.36	54.79
685.686	54.88
686.012	54.94
686.339	54.92
686.664	54.84
686.99	55.02
687.316	54.98
687.642	55.05
687.968	54.92
688.294	54.99
688.619	54.99
688.945	54.83
689.271	54.91
689.596	55
689.922	55.13
690.247	55.2
690.573	55.39
690.898	55.42
691.224	55.44
691.549	55.52
691.874	55.72
692.2	55.8
692.525	55.7
692.85	55.61
693.175	55.69
693.5	55.85
693.825	55.96
694.15	55.88
694.475	55.79
694.8	55.87
695.125	55.88
695.45	55.73
695.775	55.94
696.099	55.93
696.424	55.88
696.749	55.74
697.073	55.75
697.398	55.63
697.723	55.54
698.047	55.6
698.372	55.64
698.696	55.72
699.02	55.57
699.345	55.72
699.669	55.73
699.993	55.69
700.318	55.54
700.642	55.44
700.966	55.59
701.29	55.76
701.614	55.61
701.938	55.48
702.262	55.65
702.586	55.61
702.91	55.66
703.234	55.77
703.557	55.83
703.881	55.85
704.205	55.77
704.529	55.86
704.852	55.78
705.176	55.76
705.499	55.8
705.823	55.77
706.146	55.52
706.47	55.83
706.793	55.9
707.117	56.2
707.44	56.08
707.763	55.74
708.086	55.6
708.409	55.53
708.733	55.53
709.056	55.53
709.379	55.4
709.702	55.49
710.025	55.3
710.348	55.34
710.671	55.36
710.993	55.47
711.316	55.55
711.639	55.88
711.962	55.81
712.284	55.73
712.607	55.82
712.93	56.13
713.252	56.03
713.575	56.06
713.897	56.03
714.22	56.24
714.542	56.6
714.864	56.48
715.187	56.8
715.509	56.73
715.831	56.84
716.153	56.86
716.475	56.77
716.798	56.95
717.12	56.92
717.442	56.79
717.764	56.81
718.085	56.74
718.407	56.48
718.729	56.62
719.051	56.4
719.373	56.53
719.695	56.49
720.016	56.53
720.338	56.47
720.659	56.44
720.981	56.39
721.302	56.43
721.624	56.65
721.945	56.66
722.267	56.86
722.588	56.81
722.909	56.84
723.231	56.92
723.552	56.91
723.873	57.06
724.194	56.92
724.515	57.07
724.836	57.01
725.157	56.88
725.478	56.84
725.799	57.17
726.12	56.79
726.441	56.53
726.762	56.28
727.083	56.26
727.403	56.11
727.724	56.03
728.045	55.88
728.365	55.92
728.686	55.76
729.006	55.84
729.327	55.67
729.647	55.7
729.967	55.58
730.288	55.58
730.608	55.32
730.928	55.64
731.249	55.36
731.569	55.6
731.889	55.71
732.209	55.66
732.529	55.51
732.849	55.71
733.169	55.73
733.489	55.74
733.809	55.93
734.129	55.96
734.448	55.91
734.768	55.92
735.088	55.89
735.408	55.94
735.727	55.83
736.047	55.87
736.366	55.8
736.686	55.83
737.005	55.94
737.325	56.06
737.644	55.87
737.963	56.11
738.283	55.81
738.602	55.91
738.921	55.76
739.24	55.68
739.56	55.54
739.879	55.67
740.198	55.74
740.517	55.43
740.836	55.33
741.155	55.34
741.473	55.44
741.792	55.42
742.111	55.23
742.43	55.31
742.748	55.29
743.067	55.31
743.386	55.43
743.704	55.21
744.023	55.24
744.341	55.27
744.66	55.37
744.978	55.18
745.297	55.06
745.615	55.17
745.933	55.33
746.252	55.59
746.57	55.25
746.888	55.05
747.206	55.32
747.524	55.41
747.842	55.27
748.16	55.22
748.478	55.08
748.796	55.3
749.114	55
749.432	55.12
749.749	55.25
750.067	54.99
750.385	55.04
750.703	55.15
751.02	55.2
751.338	54.94
751.655	55.21
751.973	55.39
752.29	55.38
752.608	55.13
752.925	54.92
753.242	55.25
753.56	55.51
753.877	55.27
754.194	55.33
754.511	55.6
754.828	55.38
755.145	55.33
755.462	55.4
755.779	55.72
756.096	55.45
756.413	55.08
756.73	55.21
757.047	55.28
757.364	55.26
757.68	55.23
757.997	55.38
758.314	55.4
758.63	55.1
758.947	55.23
759.264	55.54
759.58	55.38
759.896	55.31
760.213	55.35
760.529	55.42
760.846	55.34
761.162	55.24
761.478	54.91
761.794	55.29
762.11	55
762.426	55.04
762.743	55.13
763.059	55.44
763.375	55.37
763.69	55.36
764.006	55.07
764.322	54.97
764.638	54.88
764.954	54.99
765.27	55.09
765.585	55.18
765.901	55.41
766.216	55.5
766.532	55.4
766.848	55.48
767.163	55.54
767.478	55.62
767.794	55.82
768.109	56.37
768.424	56.09
768.74	56.41
769.055	56.57
769.37	56.73
769.685	56.52
770	56.88
770.315	56.76
770.63	57.21
770.945	57.12
771.26	57.55
771.575	57.51
771.89	57.45
772.205	57.17
772.52	56.54
772.834	56.81
773.149	56.71
773.464	56.44
773.778	56.47
774.093	55.97
774.407	55.63
774.722	55.48
775.036	55.54
775.351	55.56
775.665	55.41
775.979	55.03
776.293	55.23
776.608	54.7
776.922	54.78
777.236	54.51
777.55	54.55
777.864	54.18
778.178	53.88
778.492	54.16
778.806	54.18
779.12	54.27
779.434	54.24
779.747	54.22
780.061	54.12
780.375	54.45
780.689	55.19
781.002	55.72
781.316	56.05
781.629	56.33
781.943	56.41
782.256	56.3
782.57	56.75
782.883	57.03
783.196	57.37
783.51	57.3
783.823	57.72
784.136	58.11
784.449	57.82
784.762	58.17
785.075	58.19
785.388	58.15
785.701	57.83
786.014	57.81
786.327	58.2
786.64	58.46
786.953	58.07
787.266	57.92
787.578	57.35
787.891	56.83
788.204	56.77
788.516	56.95
788.829	56.83
789.141	57
789.454	56.49
789.766	56.17
790.079	56.16
790.391	55.86
790.703	55.94
791.016	55.95
791.328	56.5
791.64	56.18
791.952	56.11
792.264	56.47
792.576	56.69
792.888	56.28
793.2	56.24
793.512	56.39
793.824	55.99
794.136	55.68
794.448	55.69
794.76	55.96
795.071	56.23
795.383	56.44
795.695	56.3
796.006	56.45
796.318	57.06
796.629	57.13
796.941	57.35
797.252	57.22
797.564	57.18
797.875	56.51
798.186	57
798.497	57.19
798.809	57.4
799.12	57.12
799.431	57.31
799.742	57.38
800.053	57.11
800.364	57.9
800.675	57.86
800.986	58.09
801.297	57.01
801.608	57.12
801.918	57.02
802.229	57.2
802.54	57.19
802.851	56.4
803.161	56.66
803.472	56.28
803.782	56.4
804.093	56.98
804.403	56.93
804.714	57.04
805.024	57
805.334	56.53
805.645	56.3
805.955	56.45
806.265	56.44
806.575	56.15
806.885	55.67
807.195	55.93
807.505	55.96
807.815	56.38
808.125	55.66
808.435	55.5
808.745	54.97
809.055	54.88
809.365	55.39
809.674	54.76
809.984	55.27
810.294	55.19
810.603	55.16
810.913	55.29
811.222	55.22
811.532	55.47
811.841	56.02
812.151	57.02
812.46	57.01
812.769	56.89
813.079	56.64
813.388	56.62
813.697	56.7
814.006	56.65
814.315	56.99
814.624	56.73
814.933	56.32
815.242	56.63
815.551	56.96
815.86	56.58
816.169	57.1
816.478	56.26
816.786	56.23
817.095	56.18
817.404	55.81
817.712	55.93
818.021	55.54
818.33	55.64
818.638	54.63
818.947	54.67
819.255	54.6
819.563	55.21
819.872	55.35
820.18	55.56
820.488	55.22
820.796	55.58
821.105	55.69
821.413	56.1
821.721	56.04
822.029	56.04
822.337	56.27
822.645	56.24
822.953	56.25
823.26	56.32
823.568	56.12
823.876	56.08
824.184	55.78
824.491	55.84
824.799	55.63
825.107	55.93
825.414	55.81
825.722	55.75
826.029	55.76
826.337	55.68
826.644	55.49
826.951	55.64
827.259	55.39
827.566	55.2
827.873	55.09
828.18	54.91
828.488	54.86
828.795	54.55
829.102	54.13
829.409	54.42
829.716	54.14
830.023	54.2
830.329	54.37
830.636	54.82
830.943	54.78
831.25	54.94
831.557	54.9
831.863	55.36
832.17	55.68
832.476	55.39
832.783	55.65
833.089	56.16
833.396	56.26
833.702	56.35
834.009	56.53
834.315	55.98
834.621	56.27
834.928	56.25
835.234	56.46
835.54	56.9
835.846	56.16
836.152	56.34
836.458	56.56
836.764	56.33
837.07	55.76
837.376	55.5
837.682	55.79
837.988	55.29
838.293	55.17
838.599	55.16
838.905	55.46
839.211	55.04
839.516	55.22
839.822	55.56
840.127	55.6
840.433	55.97
840.738	56.59
841.044	56.44
841.349	57.32
841.654	56.51
841.959	57.64
842.265	58.5
842.57	59.78
842.875	58.67
843.18	59.03
843.485	59.61
843.79	59.62
844.095	58.96
844.4	59.91
844.705	59.27
845.01	58.74
845.315	58.44
845.619	57.56
845.924	57.79
846.229	56.38
846.533	55.49
846.838	55.21
847.142	54.97
847.447	54.47
847.751	51.59
848.056	51.16
848.36	50.16
848.664	49.48
848.969	46.31
849.273	46.57
849.577	45.97
849.881	46.48
850.185	47.69
850.489	48.6
850.794	46.71
851.097	47.28
851.401	48.41
851.705	48.28
852.009	51.9
852.313	50.23
852.617	50.82
852.92	51.2
853.224	50.7
853.528	50.49
853.831	50.32
854.135	51.24
854.438	52.34
854.742	51.43
855.045	52.29
855.349	53.43
855.652	53.29
855.955	53.84
856.259	50.91
856.562	50.53
856.865	50.96
857.168	51.96
857.471	52.59
857.774	49.88
858.077	49.27
858.38	47.09
858.683	46.54
858.986	47.11
859.289	48.07
859.592	47.35
859.894	46.87
860.197	46.99
860.5	47.41
860.802	46.13
861.105	46.92
861.407	46.13
861.71	46.52
862.012	46.12
862.315	45.59
862.617	50.51
862.919	48.96
863.222	48.01
863.524	46.74
863.826	45.41
864.128	48.28
864.43	49.46
864.732	49.92
865.034	51.48
865.336	52.74
865.638	53.4
865.94	54.5
866.242	54.44
866.544	55.87
866.846	55.23
867.147	56.6
867.449	56.47
867.751	56.03
868.052	58.04
868.354	61.1
868.655	60.81
868.957	56.68
869.258	56.31
869.56	56.71
869.861	59.1
870.162	61.38
870.463	59.73
870.765	58.99
871.066	59.12
871.367	56.72
871.668	54.25
871.969	51.8
872.27	53.39
872.571	54.03
872.872	53.56
873.173	53.12
873.473	52.49
873.774	52.4
874.075	54.69
874.376	50.26
874.676	49.98
874.977	48.45
875.277	47.54
875.578	50.03
875.878	49.54
876.179	48.25
876.479	46.89
876.78	46.81
877.08	46.33
877.38	44.49
877.68	45.12
877.981	45.42
878.281	46.77
878.581	42.75
