Data from BU58130_Reflection_00005.txt Node
Date: Mon Nov 18 16:37:19 EST 2019
User: vgr7
Spectrometer: USB2G7710
Scans to average: 3
Trigger mode: 4
Integration Time (sec): 2.000000E-2
Electric dark correction enabled: true
Boxcar width: 10
XAxis mode: Wavelengths
Number of Pixels in Spectrum: 2048
>>>>>Begin Spectral Data<<<<<
177.721	-375.83
178.105	254.47
178.488	206.7
178.871	234.3
179.254	143.18
179.636	-204.6
180.019	-142.01
180.402	55.17
180.785	83.12
181.168	70.16
181.55	95.63
181.933	71.68
182.316	87.69
182.698	114.1
183.081	133.56
183.463	165.8
183.846	194.53
184.228	200.06
184.611	540.65
184.993	737.76
185.376	568.98
185.758	490.76
186.14	539.2
186.522	1007.54
186.904	1901.69
187.287	2644.97
187.669	-1494.38
188.051	-6970.18
188.433	-4233.33
188.815	-326.7
189.197	-254.29
189.579	-264.31
189.961	-280.87
190.342	-293.45
190.724	-250.52
191.106	-358.04
191.488	-593.19
191.869	-931.56
192.251	-660.26
192.633	-1746.56
193.014	-11270.37
193.396	4260.49
193.777	5418.84
194.159	743.41
194.54	885.58
194.922	-895.91
195.303	-1657.99
195.684	-836.13
196.065	-282.23
196.447	-208.52
196.828	-282.61
197.209	-228.07
197.59	-221.73
197.971	-207.17
198.352	-152.86
198.733	-151.55
199.114	-124.09
199.495	-84.32
199.876	-73.98
200.257	-104.42
200.638	-125.84
201.018	-139.44
201.399	-120.91
201.78	-102.36
202.16	-87.85
202.541	-106.67
202.922	-150.56
203.302	-133.26
203.683	-131.78
204.063	-156.56
204.444	-163.13
204.824	-141.85
205.204	-143.74
205.585	-152.68
205.965	-133.19
206.345	-183.39
206.725	-221.44
207.106	-199.39
207.486	-385.64
207.866	-537.73
208.246	-428.58
208.626	-366.07
209.006	-323.75
209.386	-361.96
209.766	-428.93
210.145	-388.94
210.525	-406.76
210.905	-488.18
211.285	-1137.68
211.664	-664.93
212.044	-1362.75
212.424	6825.49
212.803	918.59
213.183	1941.53
213.562	-446.9
213.942	-180.37
214.321	-155.01
214.701	-119.37
215.08	-156.64
215.459	-115.64
215.838	-104.09
216.218	-80.35
216.597	-55.41
216.976	-45.13
217.355	-45.74
217.734	-40.14
218.113	-37.99
218.492	-41.76
218.871	-45.98
219.25	-59.71
219.629	-73.45
220.008	-67.88
220.387	-53.44
220.766	-38.26
221.144	-50.59
221.523	-83.13
221.902	-136.09
222.28	-114.12
222.659	-91.14
223.037	-72.49
223.416	-71.73
223.794	-55.27
224.173	-59.58
224.551	-53.77
224.929	-62.76
225.308	-39.77
225.686	-29.3
226.064	-25.72
226.442	-17.05
226.821	-10.64
227.199	-13.14
227.577	-10.43
227.955	-9.04
228.333	-8.24
228.711	-7.2
229.089	-4.2
229.467	-7.16
229.845	-8.17
230.222	-7.41
230.6	-8.96
230.978	-9.52
231.356	-5.1
231.733	-6.29
232.111	-7.91
232.488	-7.16
232.866	-3.93
233.243	-4.89
233.621	-2.86
233.998	-0.71
234.376	-2.88
234.753	-4.06
235.13	-2.59
235.508	-3.98
235.885	-2.81
236.262	-4.33
236.639	-4.25
237.016	-6
237.393	-2.73
237.77	-0.4
238.147	0.51
238.524	1.9
238.901	3.14
239.278	2.98
239.655	2.98
240.032	4
240.409	3.62
240.785	3.61
241.162	3.6
241.539	3.15
241.915	2.98
242.292	2.81
242.668	3.32
243.045	3.6
243.421	3.76
243.798	3.67
244.174	4.12
244.551	4.16
244.927	4.36
245.303	4.36
245.679	4.87
246.056	5.02
246.432	4.74
246.808	4.69
247.184	4.33
247.56	4.33
247.936	4.27
248.312	4.31
248.688	4.42
249.064	4.32
249.44	4.39
249.815	4.33
250.191	4.42
250.567	4.37
250.943	4.48
251.318	4.77
251.694	4.66
252.069	4.27
252.445	4.48
252.82	4.48
253.196	4.38
253.571	3.88
253.947	3.63
254.322	3.76
254.697	3.64
255.073	3.85
255.448	3.72
255.823	3.64
256.198	3.76
256.573	3.42
256.948	3.55
257.323	3.79
257.698	3.85
258.073	3.98
258.448	3.93
258.823	3.85
259.198	3.65
259.573	3.66
259.948	3.83
260.322	3.63
260.697	3.64
261.072	3.66
261.446	3.58
261.821	3.74
262.195	3.82
262.57	3.83
262.944	3.69
263.319	3.65
263.693	3.68
264.067	3.65
264.442	3.87
264.816	3.79
265.19	3.64
265.564	3.59
265.938	3.48
266.313	3.54
266.687	3.69
267.061	3.86
267.435	4.02
267.809	3.82
268.183	3.94
268.556	4.01
268.93	3.97
269.304	4.01
269.678	4.1
270.051	3.82
270.425	3.82
270.799	3.98
271.172	4.08
271.546	4.07
271.919	3.94
272.293	3.86
272.666	3.92
273.04	3.96
273.413	3.92
273.787	3.99
274.16	3.98
274.533	3.76
274.906	3.7
275.279	3.63
275.653	3.84
276.026	3.72
276.399	3.65
276.772	3.78
277.145	3.67
277.518	3.56
277.891	3.74
278.263	3.62
278.636	3.57
279.009	3.48
279.382	3.62
279.755	3.72
280.127	3.85
280.5	4.03
280.872	4.04
281.245	4.06
281.617	4.15
281.99	4.18
282.362	4.25
282.735	4.15
283.107	4.17
283.479	4.2
283.852	4.4
284.224	4.32
284.596	4.32
284.968	4.47
285.34	4.45
285.713	4.39
286.085	4.45
286.457	4.52
286.829	4.64
287.201	4.58
287.572	4.54
287.944	4.3
288.316	4.12
288.688	4.03
289.06	4.04
289.431	3.94
289.803	3.98
290.175	3.97
290.546	4.16
290.918	4.02
291.289	4.07
291.661	3.97
292.032	4.12
292.403	4
292.775	3.98
293.146	3.93
293.517	4.06
293.889	4.14
294.26	4.05
294.631	3.94
295.002	3.93
295.373	4
295.744	4.23
296.115	4.23
296.486	4.23
296.857	4.3
297.228	4.3
297.599	4.26
297.97	4.23
298.34	4.11
298.711	4.35
299.082	4.26
299.452	4.37
299.823	4.42
300.194	4.55
300.564	4.43
300.935	4.44
301.305	4.3
301.676	4.34
302.046	4.46
302.416	4.63
302.787	4.6
303.157	4.57
303.527	4.52
303.897	4.47
304.267	4.62
304.637	4.65
305.008	4.78
305.378	4.98
305.748	5.11
306.117	5.13
306.487	5.02
306.857	5.09
307.227	5.11
307.597	5.16
307.967	5.2
308.336	5.29
308.706	5.35
309.076	5.38
309.445	5.32
309.815	5.23
310.184	5.09
310.554	5.03
310.923	5.04
311.293	5.09
311.662	5.19
312.031	5.2
312.401	5.14
312.77	5.02
313.139	4.97
313.508	4.91
313.877	4.89
314.246	4.9
314.616	4.78
314.985	4.69
315.353	4.49
315.722	4.53
316.091	4.58
316.46	4.44
316.829	4.53
317.198	4.51
317.567	4.47
317.935	4.52
318.304	4.5
318.672	4.46
319.041	4.48
319.41	4.52
319.778	4.38
320.147	4.45
320.515	4.38
320.883	4.25
321.252	4.18
321.62	4.14
321.988	4.08
322.357	4.13
322.725	4.2
323.093	4.35
323.461	4.26
323.829	4.23
324.197	4.37
324.565	4.36
324.933	4.38
325.301	4.53
325.669	4.6
326.037	4.67
326.405	4.71
326.772	4.62
327.14	4.68
327.508	4.68
327.875	4.6
328.243	4.71
328.61	4.69
328.978	4.84
329.346	4.93
329.713	4.96
330.08	4.96
330.448	4.73
330.815	4.56
331.182	4.56
331.55	4.59
331.917	4.56
332.284	4.59
332.651	4.63
333.018	4.6
333.385	4.52
333.752	4.56
334.119	4.62
334.486	4.66
334.853	4.55
335.22	4.5
335.587	4.46
335.954	4.48
336.32	4.47
336.687	4.53
337.054	4.51
337.42	4.45
337.787	4.37
338.153	4.5
338.52	4.66
338.886	4.55
339.253	4.39
339.619	4.44
339.986	4.4
340.352	4.39
340.718	4.3
341.084	4.28
341.451	4.33
341.817	4.34
342.183	4.31
342.549	4.39
342.915	4.42
343.281	4.55
343.647	4.54
344.013	4.54
344.379	4.4
344.745	4.44
345.11	4.39
345.476	4.4
345.842	4.37
346.208	4.24
346.573	4.3
346.939	4.48
347.304	4.39
347.67	4.34
348.035	4.31
348.401	4.29
348.766	4.36
349.132	4.3
349.497	4.23
349.862	4.26
350.228	4.16
350.593	4.2
350.958	4.13
351.323	4.2
351.688	4.26
352.053	4.3
352.418	4.33
352.783	4.45
353.148	4.47
353.513	4.49
353.878	4.55
354.243	4.54
354.608	4.53
354.972	4.63
355.337	4.73
355.702	4.77
356.066	4.87
356.431	4.83
356.795	4.91
357.16	4.92
357.524	4.78
357.889	4.71
358.253	4.78
358.618	4.76
358.982	4.66
359.346	4.59
359.71	4.6
360.075	4.57
360.439	4.6
360.803	4.61
361.167	4.61
361.531	4.57
361.895	4.55
362.259	4.53
362.623	4.49
362.987	4.47
363.351	4.45
363.714	4.46
364.078	4.43
364.442	4.31
364.806	4.28
365.169	4.38
365.533	4.5
365.896	4.45
366.26	4.44
366.623	4.5
366.987	4.54
367.35	4.55
367.714	4.54
368.077	4.47
368.44	4.49
368.803	4.49
369.167	4.49
369.53	4.5
369.893	4.49
370.256	4.51
370.619	4.52
370.982	4.51
371.345	4.47
371.708	4.51
372.071	4.52
372.434	4.55
372.797	4.57
373.159	4.52
373.522	4.47
373.885	4.48
374.247	4.48
374.61	4.53
374.973	4.43
375.335	4.4
375.698	4.45
376.06	4.39
376.423	4.41
376.785	4.45
377.147	4.49
377.51	4.49
377.872	4.45
378.234	4.41
378.596	4.35
378.958	4.29
379.321	4.31
379.683	4.3
380.045	4.27
380.407	4.2
380.769	4.19
381.13	4.23
381.492	4.23
381.854	4.21
382.216	4.16
382.578	4.22
382.939	4.22
383.301	4.15
383.663	4.16
384.024	4.14
384.386	4.18
384.747	4.2
385.109	4.19
385.47	4.15
385.832	4.15
386.193	4.19
386.554	4.22
386.916	4.2
387.277	4.22
387.638	4.28
387.999	4.29
388.36	4.29
388.721	4.3
389.082	4.34
389.443	4.29
389.804	4.26
390.165	4.25
390.526	4.27
390.887	4.27
391.248	4.3
391.609	4.27
391.969	4.24
392.33	4.19
392.691	4.18
393.051	4.23
393.412	4.28
393.772	4.26
394.133	4.29
394.493	4.28
394.854	4.26
395.214	4.24
395.574	4.21
395.935	4.21
396.295	4.2
396.655	4.17
397.015	4.19
397.376	4.19
397.736	4.2
398.096	4.18
398.456	4.21
398.816	4.18
399.176	4.17
399.535	4.15
399.895	4.15
400.255	4.18
400.615	4.14
400.975	4.12
401.334	4.16
401.694	4.14
402.054	4.08
402.413	4.1
402.773	4.05
403.132	4.09
403.492	4.09
403.851	4.05
404.211	4.06
404.57	4.04
404.929	4.07
405.288	4.06
405.648	4.03
406.007	4.04
406.366	4.04
406.725	4.06
407.084	4.07
407.443	4.05
407.802	4.06
408.161	4.06
408.52	4.04
408.879	4.03
409.238	4.04
409.596	4.06
409.955	4.05
410.314	4.07
410.673	4.04
411.031	4.05
411.39	4.06
411.748	4.05
412.107	4.05
412.465	4.04
412.824	4.02
413.182	4.05
413.54	4.05
413.899	4.06
414.257	4.05
414.615	4.06
414.974	4.07
415.332	4.04
415.69	4.02
416.048	4
416.406	3.98
416.764	3.97
417.122	3.97
417.48	3.95
417.838	3.95
418.195	3.98
418.553	3.97
418.911	3.97
419.269	3.98
419.626	3.98
419.984	3.98
420.342	3.99
420.699	3.98
421.057	3.96
421.414	3.97
421.772	3.96
422.129	3.96
422.486	3.94
422.844	3.94
423.201	3.93
423.558	3.93
423.915	3.94
424.273	3.94
424.63	3.93
424.987	3.96
425.344	3.95
425.701	3.92
426.058	3.92
426.415	3.9
426.772	3.89
427.128	3.88
427.485	3.87
427.842	3.87
428.199	3.86
428.555	3.85
428.912	3.85
429.269	3.85
429.625	3.8
429.982	3.79
430.338	3.79
430.695	3.79
431.051	3.78
431.407	3.78
431.764	3.79
432.12	3.78
432.476	3.77
432.832	3.77
433.189	3.79
433.545	3.77
433.901	3.78
434.257	3.78
434.613	3.78
434.969	3.8
435.325	3.81
435.681	3.82
436.036	3.83
436.392	3.84
436.748	3.84
437.104	3.86
437.459	3.86
437.815	3.87
438.171	3.88
438.526	3.91
438.882	3.9
439.237	3.91
439.593	3.92
439.948	3.91
440.304	3.92
440.659	3.9
441.014	3.92
441.369	3.91
441.725	3.9
442.08	3.89
442.435	3.89
442.79	3.89
443.145	3.88
443.5	3.87
443.855	3.87
444.21	3.86
444.565	3.87
444.92	3.87
445.275	3.86
445.629	3.85
445.984	3.84
446.339	3.84
446.693	3.82
447.048	3.8
447.403	3.79
447.757	3.77
448.112	3.78
448.466	3.75
448.82	3.76
449.175	3.77
449.529	3.77
449.883	3.75
450.238	3.73
450.592	3.72
450.946	3.71
451.3	3.69
451.654	3.68
452.008	3.68
452.362	3.68
452.716	3.67
453.07	3.68
453.424	3.66
453.778	3.64
454.132	3.64
454.486	3.67
454.839	3.67
455.193	3.66
455.547	3.66
455.9	3.71
456.254	3.72
456.607	3.71
456.961	3.69
457.314	3.7
457.668	3.71
458.021	3.71
458.375	3.72
458.728	3.72
459.081	3.72
459.434	3.7
459.787	3.69
460.141	3.7
460.494	3.69
460.847	3.7
461.2	3.71
461.553	3.72
461.906	3.71
462.259	3.7
462.611	3.72
462.964	3.73
463.317	3.7
463.67	3.71
464.022	3.71
464.375	3.72
464.728	3.73
465.08	3.74
465.433	3.75
465.785	3.72
466.138	3.75
466.49	3.76
466.843	3.78
467.195	3.77
467.547	3.78
467.899	3.78
468.252	3.78
468.604	3.78
468.956	3.75
469.308	3.75
469.66	3.76
470.012	3.76
470.364	3.76
470.716	3.78
471.068	3.78
471.42	3.79
471.772	3.81
472.123	3.82
472.475	3.83
472.827	3.83
473.178	3.86
473.53	3.82
473.882	3.83
474.233	3.84
474.585	3.84
474.936	3.84
475.288	3.85
475.639	3.86
475.99	3.88
476.342	3.89
476.693	3.92
477.044	3.94
477.395	3.95
477.746	3.95
478.097	3.94
478.448	3.92
478.8	3.93
479.15	3.91
479.501	3.92
479.852	3.9
480.203	3.91
480.554	3.94
480.905	3.95
481.255	3.95
481.606	3.96
481.957	3.97
482.307	3.97
482.658	3.97
483.009	3.97
483.359	3.97
483.709	3.98
484.06	3.97
484.41	3.97
484.761	3.97
485.111	3.97
485.461	3.99
485.811	4
486.162	3.99
486.512	4
486.862	3.99
487.212	4
487.562	3.99
487.912	3.98
488.262	3.99
488.612	3.98
488.961	3.97
489.311	3.98
489.661	3.97
490.011	3.97
490.36	3.96
490.71	3.97
491.06	3.95
491.409	3.95
491.759	3.93
492.108	3.93
492.458	3.91
492.807	3.89
493.157	3.87
493.506	3.87
493.855	3.87
494.204	3.87
494.554	3.86
494.903	3.86
495.252	3.85
495.601	3.85
495.95	3.86
496.299	3.85
496.648	3.84
496.997	3.85
497.346	3.86
497.695	3.87
498.043	3.87
498.392	3.89
498.741	3.9
499.09	3.91
499.438	3.95
499.787	3.96
500.135	3.99
500.484	4.01
500.832	4.02
501.181	4.03
501.529	4.02
501.878	4.03
502.226	4.07
502.574	4.06
502.923	4.05
503.271	4.06
503.619	4.06
503.967	4.05
504.315	4.04
504.663	4.05
505.011	4.08
505.359	4.07
505.707	4.06
506.055	4.05
506.403	4.08
506.751	4.06
507.098	4.09
507.446	4.1
507.794	4.12
508.141	4.12
508.489	4.13
508.837	4.16
509.184	4.15
509.531	4.13
509.879	4.16
510.226	4.19
510.574	4.21
510.921	4.23
511.268	4.24
511.616	4.26
511.963	4.26
512.31	4.27
512.657	4.31
513.004	4.33
513.351	4.37
513.698	4.37
514.045	4.39
514.392	4.38
514.739	4.38
515.086	4.39
515.432	4.42
515.779	4.42
516.126	4.42
516.473	4.46
516.819	4.48
517.166	4.48
517.512	4.47
517.859	4.48
518.205	4.49
518.552	4.52
518.898	4.51
519.245	4.51
519.591	4.5
519.937	4.48
520.283	4.49
520.629	4.49
520.976	4.51
521.322	4.52
521.668	4.53
522.014	4.54
522.36	4.56
522.706	4.55
523.052	4.56
523.398	4.59
523.743	4.6
524.089	4.6
524.435	4.62
524.781	4.66
525.126	4.68
525.472	4.7
525.817	4.72
526.163	4.73
526.509	4.75
526.854	4.78
527.199	4.79
527.545	4.78
527.89	4.79
528.235	4.78
528.581	4.78
528.926	4.78
529.271	4.77
529.616	4.77
529.961	4.77
530.306	4.78
530.651	4.78
530.996	4.78
531.341	4.79
531.686	4.79
532.031	4.79
532.376	4.79
532.721	4.78
533.065	4.78
533.41	4.78
533.755	4.77
534.099	4.77
534.444	4.78
534.788	4.81
535.133	4.81
535.477	4.82
535.822	4.84
536.166	4.86
536.51	4.87
536.855	4.87
537.199	4.89
537.543	4.89
537.887	4.89
538.231	4.89
538.576	4.91
538.92	4.91
539.264	4.9
539.608	4.89
539.951	4.92
540.295	4.9
540.639	4.91
540.983	4.92
541.327	4.92
541.671	4.91
542.014	4.89
542.358	4.88
542.701	4.88
543.045	4.88
543.389	4.87
543.732	4.88
544.075	4.9
544.419	4.89
544.762	4.88
545.105	4.9
545.449	4.89
545.792	4.87
546.135	4.87
546.478	4.87
546.821	4.86
547.165	4.85
547.508	4.88
547.851	4.87
548.194	4.84
548.536	4.84
548.879	4.85
549.222	4.86
549.565	4.88
549.908	4.89
550.25	4.9
550.593	4.92
550.936	4.93
551.278	4.91
551.621	4.92
551.963	4.96
552.306	4.92
552.648	4.92
552.991	4.94
553.333	4.96
553.675	4.99
554.017	5.02
554.36	5.02
554.702	5.02
555.044	5.04
555.386	5.06
555.728	5.07
556.07	5.09
556.412	5.09
556.754	5.07
557.096	5.09
557.438	5.05
557.78	5.04
558.121	5.05
558.463	5.03
558.805	5.01
559.147	4.98
559.488	4.98
559.83	5
560.171	4.98
560.513	5.01
560.854	4.98
561.196	4.96
561.537	4.95
561.878	4.95
562.22	4.94
562.561	4.92
562.902	4.93
563.243	4.94
563.584	4.95
563.925	4.98
564.266	4.94
564.607	4.94
564.948	4.96
565.289	4.95
565.63	4.97
565.971	4.97
566.312	4.97
566.653	4.99
566.993	5
567.334	4.99
567.675	5.01
568.015	5.02
568.356	5.01
568.696	5.03
569.037	5.01
569.377	5.02
569.718	5.04
570.058	5.01
570.398	4.99
570.739	4.97
571.079	4.94
571.419	4.96
571.759	4.98
572.099	4.96
572.439	4.98
572.779	4.99
573.119	4.98
573.459	4.99
573.799	5.03
574.139	5.05
574.479	5.05
574.819	5.03
575.158	5.04
575.498	5.05
575.838	5.02
576.177	5.01
576.517	5.02
576.856	5.01
577.196	5.03
577.535	5.03
577.875	5.03
578.214	5.06
578.553	5.08
578.893	5.09
579.232	5.12
579.571	5.1
579.91	5.09
580.25	5.09
580.589	5.05
580.928	5.04
581.267	5.05
581.606	5.05
581.945	5.03
582.283	5.01
582.622	4.96
582.961	4.96
583.3	4.99
583.639	4.99
583.977	5
584.316	5
584.654	5
584.993	5.04
585.332	5.04
585.67	5.03
586.008	5.02
586.347	5.02
586.685	4.98
587.024	4.98
587.362	5
587.7	5.05
588.038	5.05
588.376	5.02
588.715	5
589.053	5.01
589.391	5.05
589.729	5.09
590.067	5.15
590.404	5.11
590.742	5.16
591.08	5.15
591.418	5.18
591.756	5.17
592.093	5.13
592.431	5.12
592.769	5.1
593.106	5.09
593.444	5.07
593.781	5.1
594.119	5.12
594.456	5.11
594.793	5.1
595.131	5.06
595.468	5.08
595.805	5.07
596.143	5.07
596.48	5.04
596.817	5.04
597.154	5.04
597.491	5.04
597.828	4.99
598.165	5
598.502	4.99
598.839	4.99
599.176	5.01
599.512	5.01
599.849	5.01
600.186	5.01
600.523	5.03
600.859	5.04
601.196	5.05
601.532	5.09
601.869	5.06
602.205	5.08
602.542	5.09
602.878	5.13
603.215	5.14
603.551	5.14
603.887	5.17
604.223	5.17
604.56	5.18
604.896	5.18
605.232	5.18
605.568	5.16
605.904	5.17
606.24	5.2
606.576	5.21
606.912	5.23
607.248	5.25
607.583	5.28
607.919	5.25
608.255	5.22
608.591	5.2
608.926	5.25
609.262	5.28
609.597	5.27
609.933	5.25
610.268	5.25
610.604	5.25
610.939	5.25
611.275	5.2
611.61	5.22
611.945	5.23
612.281	5.2
612.616	5.22
612.951	5.21
613.286	5.18
613.621	5.13
613.956	5.11
614.291	5.05
614.626	5.04
614.961	5.03
615.296	5.01
615.631	5.03
615.966	5.01
616.3	4.98
616.635	4.97
616.97	4.99
617.304	4.99
617.639	4.97
617.973	4.93
618.308	4.96
618.642	4.96
618.977	4.96
619.311	4.96
619.646	4.97
619.98	4.98
620.314	5.01
620.648	5.05
620.983	5.04
621.317	5.06
621.651	5.06
621.985	5.09
622.319	5.11
622.653	5.1
622.987	5.13
623.321	5.13
623.655	5.12
623.988	5.16
624.322	5.13
624.656	5.18
624.99	5.22
625.323	5.23
625.657	5.22
625.99	5.23
626.324	5.26
626.657	5.3
626.991	5.29
627.324	5.23
627.658	5.23
627.991	5.26
628.324	5.29
628.657	5.29
628.991	5.29
629.324	5.31
629.657	5.32
629.99	5.3
630.323	5.34
630.656	5.32
630.989	5.26
631.322	5.27
631.655	5.22
631.987	5.21
632.32	5.19
632.653	5.13
632.986	5.15
633.318	5.13
633.651	5.09
633.984	5.09
634.316	5.11
634.649	5.08
634.981	5.04
635.313	5.05
635.646	5.02
635.978	5.01
636.31	4.93
636.643	4.9
636.975	4.94
637.307	4.93
637.639	4.96
637.971	4.95
638.303	4.96
638.635	4.94
638.967	4.9
639.299	4.95
639.631	4.95
639.963	4.91
640.295	4.95
640.626	4.95
640.958	4.92
641.29	4.89
641.621	4.99
641.953	4.99
642.285	4.94
642.616	5.05
642.948	5.06
643.279	5.16
643.61	5.17
643.942	5.13
644.273	5.1
644.604	5.06
644.936	5.1
645.267	5.11
645.598	5.16
645.929	5.17
646.26	5.18
646.591	5.22
646.922	5.22
647.253	5.2
647.584	5.2
647.915	5.22
648.245	5.3
648.576	5.27
648.907	5.3
649.238	5.37
649.568	5.34
649.899	5.34
650.229	5.37
650.56	5.34
650.89	5.33
651.221	5.35
651.551	5.37
651.882	5.34
652.212	5.42
652.542	5.39
652.872	5.39
653.203	5.34
653.533	5.4
653.863	5.48
654.193	5.49
654.523	5.49
654.853	5.51
655.183	5.46
655.513	5.46
655.843	5.42
656.172	5.34
656.502	5.38
656.832	5.33
657.162	5.33
657.491	5.28
657.821	5.28
658.15	5.29
658.48	5.34
658.809	5.31
659.139	5.2
659.468	5.22
659.798	5.27
660.127	5.31
660.456	5.23
660.785	5.17
661.115	5.15
661.444	5.19
661.773	5.16
662.102	5.21
662.431	5.18
662.76	5.16
663.089	5.2
663.418	5.15
663.747	5.16
664.076	5.12
664.404	5.16
664.733	5.19
665.062	5.21
665.39	5.1
665.719	5.16
666.048	5.3
666.376	5.29
666.705	5.26
667.033	5.23
667.362	5.34
667.69	5.32
668.018	5.37
668.347	5.35
668.675	5.41
669.003	5.4
669.331	5.44
669.659	5.48
669.987	5.45
670.315	5.4
670.643	5.42
670.971	5.43
671.299	5.52
671.627	5.5
671.955	5.54
672.283	5.65
672.61	5.61
672.938	5.55
673.266	5.6
673.593	5.75
673.921	5.7
674.249	5.63
674.576	5.63
674.904	5.57
675.231	5.51
675.558	5.45
675.886	5.38
676.213	5.39
676.54	5.34
676.867	5.36
677.195	5.39
677.522	5.38
677.849	5.43
678.176	5.43
678.503	5.47
678.83	5.4
679.157	5.36
679.484	5.37
679.81	5.37
680.137	5.32
680.464	5.18
680.791	5.2
681.117	5.16
681.444	5.09
681.771	5.16
682.097	5.15
682.424	5.19
682.75	5.19
683.077	5.12
683.403	5.13
683.729	5.09
684.056	5.13
684.382	5.2
684.708	5.07
685.034	4.96
685.36	4.96
685.686	4.97
686.012	4.91
686.339	4.99
686.664	4.98
686.99	5.04
687.316	4.99
687.642	5.12
687.968	5.22
688.294	5.37
688.619	5.39
688.945	5.42
689.271	5.35
689.596	5.41
689.922	5.49
690.247	5.48
690.573	5.53
690.898	5.5
691.224	5.53
691.549	5.59
691.874	5.48
692.2	5.5
692.525	5.47
692.85	5.58
693.175	5.48
693.5	5.54
693.825	5.62
694.15	5.65
694.475	5.6
694.8	5.48
695.125	5.49
695.45	5.47
695.775	5.47
696.099	5.52
696.424	5.48
696.749	5.45
697.073	5.5
697.398	5.51
697.723	5.53
698.047	5.49
698.372	5.51
698.696	5.61
699.02	5.62
699.345	5.6
699.669	5.58
699.993	5.54
700.318	5.47
700.642	5.32
700.966	5.31
701.29	5.27
701.614	5.33
701.938	5.33
702.262	5.31
702.586	5.33
702.91	5.31
703.234	5.34
703.557	5.35
703.881	5.31
704.205	5.3
704.529	5.17
704.852	5.16
705.176	5.07
705.499	5.18
705.823	5.08
706.146	5.1
706.47	5.19
706.793	5.25
707.117	5.26
707.44	5.3
707.763	5.25
708.086	5.24
708.409	5.25
708.733	5.15
709.056	4.97
709.379	5.13
709.702	5.1
710.025	5.05
710.348	4.98
710.671	5.05
710.993	5.07
711.316	5.22
711.639	5.23
711.962	5.38
712.284	5.36
712.607	5.46
712.93	5.46
713.252	5.45
713.575	5.51
713.897	5.58
714.22	5.64
714.542	5.83
714.864	5.79
715.187	5.75
715.509	5.77
715.831	6.01
716.153	5.96
716.475	6.03
716.798	6.14
717.12	6.17
717.442	6.14
717.764	6.16
718.085	6.05
718.407	5.96
718.729	5.82
719.051	5.72
719.373	5.49
719.695	5.51
720.016	5.51
720.338	5.41
720.659	5.45
720.981	5.39
721.302	5.29
721.624	5.24
721.945	5.37
722.267	5.47
722.588	5.31
722.909	5.18
723.231	5.1
723.552	4.93
723.873	4.91
724.194	4.92
724.515	4.93
724.836	5.04
725.157	5.14
725.478	5.18
725.799	5.36
726.12	5.41
726.441	5.36
726.762	5.27
727.083	5.33
727.403	5.24
727.724	5.35
728.045	5.39
728.365	5.38
728.686	5.35
729.006	5.41
729.327	5.42
729.647	5.33
729.967	5.4
730.288	5.61
730.608	5.54
730.928	5.45
731.249	5.16
731.569	5.15
731.889	5.13
732.209	5.29
732.529	5.21
732.849	5.3
733.169	5.29
733.489	5.38
733.809	5.36
734.129	5.3
734.448	5.3
734.768	5.15
735.088	5.24
735.408	5.28
735.727	5.11
736.047	5.11
736.366	5.11
736.686	4.92
737.005	4.74
737.325	4.76
737.644	4.7
737.963	4.87
738.283	4.84
738.602	4.9
738.921	4.77
739.24	4.8
739.56	4.69
739.879	4.66
740.198	4.62
740.517	4.63
740.836	4.82
741.155	4.96
741.473	5.14
741.792	5.07
742.111	4.92
742.43	4.84
742.748	4.68
743.067	4.86
743.386	5.09
743.704	5.1
744.023	5.21
744.341	5.17
744.66	5.42
744.978	5.22
745.297	5.13
745.615	5.2
745.933	5.14
746.252	5.28
746.57	5.38
746.888	5.15
747.206	5.06
747.524	5
747.842	4.87
748.16	4.92
748.478	4.99
748.796	5.05
749.114	5.32
749.432	5.53
749.749	5.26
750.067	4.97
750.385	5.02
750.703	4.92
751.02	5.21
751.338	5.14
751.655	5.16
751.973	5.02
752.29	4.94
752.608	5.03
752.925	4.86
753.242	4.76
753.56	4.91
753.877	4.79
754.194	4.69
754.511	4.78
754.828	4.49
755.145	4.5
755.462	4.32
755.779	4.21
756.096	4.39
756.413	4.65
756.73	4.91
757.047	4.98
757.364	5.03
757.68	5.02
757.997	4.89
758.314	4.8
758.63	5.08
758.947	4.97
759.264	4.74
759.58	4.82
759.896	4.96
760.213	5.23
760.529	5.49
760.846	5.51
761.162	5.16
761.478	5.37
761.794	5.4
762.11	5.63
762.426	5.61
762.743	5.56
763.059	5.55
763.375	5.63
763.69	5.63
764.006	5.7
764.322	5.6
764.638	5.79
764.954	6.14
765.27	6.07
765.585	6.15
765.901	6.33
766.216	6.53
766.532	6.52
766.848	6.27
767.163	6.12
767.478	6.18
767.794	6.47
768.109	6.35
768.424	6.38
768.74	6.36
769.055	6.54
769.37	6.54
769.685	6.33
770	6.21
770.315	5.97
770.63	6.16
770.945	6.29
771.26	6.01
771.575	5.89
771.89	5.92
772.205	5.97
772.52	5.88
772.834	5.64
773.149	5.49
773.464	5.65
773.778	5.83
774.093	5.88
774.407	5.56
774.722	5.9
775.036	5.9
775.351	5.95
775.665	5.76
775.979	5.66
776.293	5.96
776.608	5.9
776.922	6.26
777.236	6.08
777.55	6.22
777.864	6.56
778.178	6.38
778.492	6.43
778.806	6.22
779.12	6.36
779.434	6.26
779.747	6.31
780.061	5.99
780.375	5.87
780.689	5.76
781.002	5.78
781.316	5.45
781.629	5.36
781.943	5.28
782.256	5.45
782.57	5.53
782.883	5.6
783.196	5.65
783.51	5.42
783.823	5.43
784.136	5.39
784.449	5.32
784.762	5.46
785.075	5.25
785.388	5.55
785.701	5.95
786.014	6.12
786.327	5.95
786.64	6.59
786.953	7
787.266	7.12
787.578	6.98
787.891	7.01
788.204	6.74
788.516	6.73
788.829	6.59
789.141	6.59
789.454	6.15
789.766	6.24
790.079	6.41
790.391	6.22
790.703	5.93
791.016	6.14
791.328	5.91
791.64	6.27
791.952	5.85
792.264	5.01
792.576	4.79
792.888	5.09
793.2	4.88
793.512	4.52
793.824	4.12
794.136	4.07
794.448	3.86
794.76	3.9
795.071	3.74
795.383	3.49
795.695	3.25
796.006	3.73
796.318	3.39
796.629	3.62
796.941	3.72
797.252	4.04
797.564	3.82
797.875	4.23
798.186	3.83
798.497	4.6
798.809	4.92
799.12	5.34
799.431	4.86
799.742	4.57
800.053	4.74
800.364	5.02
800.675	5.39
800.986	5.76
801.297	6.1
801.608	6.13
801.918	6.07
802.229	6.08
802.54	6.34
802.851	6.75
803.161	6.3
803.472	6
803.782	6.11
804.093	6.02
804.403	5.42
804.714	5.06
805.024	4.24
805.334	4.1
805.645	3.88
805.955	4.83
806.265	4.82
806.575	4.37
806.885	4.6
807.195	4.68
807.505	4.36
807.815	4.44
808.125	4.45
808.435	4.57
808.745	4.75
809.055	4.44
809.365	4.29
809.674	4.47
809.984	4.82
810.294	4.58
810.603	4.53
810.913	4.92
811.222	4.95
811.532	5.73
811.841	6.46
812.151	6.64
812.46	6.24
812.769	6.62
813.079	6.94
813.388	6.76
813.697	6.58
814.006	7.4
814.315	7.51
814.624	7.36
814.933	8.13
815.242	8.29
815.551	7.84
815.86	8.27
816.169	7.86
816.478	7.53
816.786	7.52
817.095	7.44
817.404	7.73
817.712	8.12
818.021	7.56
818.33	7.59
818.638	7.45
818.947	7.47
819.255	7.57
819.563	7.52
819.872	7.17
820.18	7.29
820.488	7.14
820.796	7.09
821.105	7.07
821.413	6.97
821.721	7.09
822.029	7.27
822.337	7.53
822.645	7.73
822.953	7.78
823.26	7.8
823.568	7.83
823.876	7.69
824.184	7.66
824.491	7.72
824.799	7.69
825.107	7.7
825.414	7.69
825.722	7.76
826.029	7.85
826.337	8.04
826.644	8.05
826.951	7.85
827.259	7.88
827.566	7.89
827.873	7.82
828.18	7.7
828.488	7.62
828.795	6.97
829.102	6.93
829.409	7.05
829.716	6.91
830.023	6.89
830.329	6.94
830.636	6.82
830.943	6.71
831.25	6.43
831.557	6.61
831.863	6.51
832.17	5.74
832.476	5.76
832.783	5.88
833.089	5.9
833.396	6.58
833.702	6.58
834.009	7.15
834.315	7.05
834.621	7.05
834.928	7.2
835.234	7.5
835.54	6.97
835.846	6.86
836.152	7.05
836.458	6.86
836.764	6.3
837.07	6.34
837.376	6.47
837.682	6.65
837.988	6.05
838.293	6.13
838.599	6.71
838.905	6.53
839.211	6.05
839.516	5.9
839.822	5.16
840.127	4.8
840.433	3.83
840.738	3.95
841.044	3.54
841.349	3.03
841.654	3.59
841.959	3.65
842.265	2.62
842.57	2.64
842.875	2.55
843.18	4.24
843.485	4.19
843.79	3.22
844.095	2.8
844.4	3.85
844.705	2.84
845.01	2.28
845.315	1.44
845.619	1.32
845.924	0.71
846.229	1.67
846.533	2.65
846.838	2.17
847.142	1.33
847.447	0.4
847.751	0.93
848.056	-1.37
848.36	-1.07
848.664	0.88
848.969	0.74
849.273	1.47
849.577	-0.1
849.881	-0.52
850.185	1.74
850.489	2.84
850.794	1.43
851.097	3.45
851.401	3.18
851.705	3.5
852.009	3.84
852.313	3.38
852.617	1
852.92	2.39
853.224	2.1
853.528	3.99
853.831	3.98
854.135	3.28
854.438	3.58
854.742	2.49
855.045	-0.23
855.349	0.46
855.652	-1.22
855.955	-2.2
856.259	-2.38
856.562	-4.23
856.865	-6.2
857.168	-7.14
857.471	-9.07
857.774	-7.89
858.077	-8.38
858.38	-6.46
858.683	-5.36
858.986	-3.38
859.289	-6.57
859.592	-4.26
859.894	-4.8
860.197	-4.09
860.5	-3.79
860.802	-4.32
861.105	-0.81
861.407	0.13
861.71	-2.2
862.012	-1.39
862.315	0.11
862.617	0.19
862.919	0.1
863.222	0.11
863.524	0.73
863.826	2.14
864.128	1.02
864.43	1.98
864.732	0.87
865.034	0.08
865.336	-1.66
865.638	-1.53
865.94	-3.91
866.242	-4.32
866.544	-3.99
866.846	-2.77
867.147	-0.12
867.449	-1.59
867.751	-0.74
868.052	-1.04
868.354	-1.68
868.655	-1.42
868.957	-0.04
869.258	-0.57
869.56	-0.02
869.861	0.04
870.162	-0.23
870.463	0.02
870.765	-0.95
871.066	-2.9
871.367	-1.98
871.668	0.38
871.969	-0.53
872.27	-0.33
872.571	0.21
872.872	1.28
873.173	-1.38
873.473	-2.37
873.774	-4.27
874.075	-3.28
874.376	-3.26
874.676	-0.81
874.977	-4.63
875.277	-4.91
875.578	-3.44
875.878	-4.28
876.179	-3.92
876.479	-4.24
876.78	-4.2
877.08	-3.21
877.38	-2.81
877.68	-4.2
877.981	-6.9
878.281	-6
878.581	-4.13
