Data from BU58137_Reflection_00005.txt Node
Date: Mon Nov 18 16:39:38 EST 2019
User: vgr7
Spectrometer: USB2G7710
Scans to average: 3
Trigger mode: 4
Integration Time (sec): 2.000000E-2
Electric dark correction enabled: true
Boxcar width: 10
XAxis mode: Wavelengths
Number of Pixels in Spectrum: 2048
>>>>>Begin Spectral Data<<<<<
177.721	279.54
178.105	175.09
178.488	127.76
178.871	60.37
179.254	71.72
179.636	18.37
180.019	-10.81
180.402	95.45
180.785	-640.07
181.168	314.72
181.55	-290.37
181.933	111.98
182.316	158.52
182.698	190.23
183.081	212.95
183.463	148.37
183.846	225.41
184.228	141.7
184.611	116.61
184.993	261.55
185.376	226.02
185.758	414.46
186.14	264.4
186.522	243.23
186.904	752.69
187.287	382.14
187.669	-714.67
188.051	419.24
188.433	-453.35
188.815	-256.75
189.197	-202.73
189.579	-174.25
189.961	-208.73
190.342	-256.58
190.724	-312.4
191.106	-386.13
191.488	-254.1
191.869	-309.65
192.251	-291.71
192.633	-251.9
193.014	-264.01
193.396	-234.65
193.777	-209.44
194.159	-171.88
194.54	-183.55
194.922	-165.87
195.303	-99.16
195.684	-98.32
196.065	-58.6
196.447	-75.25
196.828	-72.06
197.209	-60.45
197.59	-72.66
197.971	-63.81
198.352	-47.28
198.733	-48.25
199.114	-32.48
199.495	-39.66
199.876	-30.86
200.257	-17.8
200.638	-6.08
201.018	-3.51
201.399	-13.33
201.78	-18.95
202.16	-29.93
202.541	-32.33
202.922	-53.82
203.302	-67.94
203.683	-71.74
204.063	-118.02
204.444	-104.65
204.824	-135.48
205.204	-136.61
205.585	-95.26
205.965	-70.14
206.345	-84.28
206.725	-87.52
207.106	-85.16
207.486	-89.68
207.866	-94.03
208.246	-82.18
208.626	-103.58
209.006	-89.03
209.386	-114.27
209.766	-115.5
210.145	-109.36
210.525	-103.96
210.905	-76.31
211.285	-80.78
211.664	-92.69
212.044	-87.98
212.424	-66.29
212.803	-59.61
213.183	-58.12
213.562	-55.48
213.942	-58.87
214.321	-59.4
214.701	-78.05
215.08	-95.86
215.459	-89.7
215.838	-92.16
216.218	-83.09
216.597	-83.79
216.976	-76.98
217.355	-56.44
217.734	-75.43
218.113	-64.1
218.492	-33.07
218.871	-28.41
219.25	-24.07
219.629	-41.31
220.008	-23.57
220.387	-37.33
220.766	-34.14
221.144	-60.31
221.523	-74.2
221.902	-94.03
222.28	-95.57
222.659	-57.77
223.037	-54.93
223.416	-39.47
223.794	-48.89
224.173	-51.13
224.551	-26.25
224.929	-37.9
225.308	-26.2
225.686	-19.62
226.064	-14.02
226.442	-12.2
226.821	-10.01
227.199	-8.65
227.577	-9.69
227.955	-10.54
228.333	-12.85
228.711	-10.45
229.089	-4.66
229.467	-7.25
229.845	-5.04
230.222	-5.13
230.6	-4.35
230.978	-1.64
231.356	-1.32
231.733	1.43
232.111	2.94
232.488	2.77
232.866	5.15
233.243	4.21
233.621	5.5
233.998	4.79
234.376	3.37
234.753	2.97
235.13	3.62
235.508	5.59
235.885	4.97
236.262	4.83
236.639	4.31
237.016	4.13
237.393	5.35
237.77	4.16
238.147	4.07
238.524	3.78
238.901	3.47
239.278	4.24
239.655	5
240.032	4.92
240.409	4.97
240.785	4.52
241.162	4.56
241.539	4.44
241.915	4.59
242.292	4.19
242.668	4.02
243.045	3.87
243.421	3.29
243.798	3.65
244.174	3.82
244.551	3.84
244.927	3.5
245.303	3.54
245.679	4.16
246.056	4.43
246.432	4.25
246.808	4.33
247.184	4.01
247.56	3.7
247.936	3.48
248.312	3.4
248.688	3.71
249.064	3.52
249.44	3.46
249.815	3.1
250.191	3.39
250.567	3.56
250.943	3.67
251.318	3.99
251.694	4.09
252.069	3.83
252.445	3.85
252.82	4.07
253.196	3.83
253.571	3.49
253.947	3.45
254.322	3.99
254.697	3.86
255.073	3.64
255.448	3.76
255.823	4.18
256.198	4.31
256.573	4.05
256.948	4.44
257.323	4.66
257.698	5.15
258.073	5.19
258.448	4.99
258.823	5.05
259.198	5.01
259.573	4.78
259.948	4.77
260.322	4.69
260.697	4.72
261.072	4.84
261.446	4.92
261.821	5.03
262.195	4.83
262.57	4.87
262.944	4.9
263.319	4.93
263.693	4.65
264.067	4.61
264.442	4.72
264.816	4.59
265.19	4.41
265.564	4.12
265.938	3.81
266.313	3.87
266.687	3.74
267.061	3.95
267.435	4.03
267.809	4.34
268.183	4.46
268.556	4.35
268.93	4.45
269.304	4.32
269.678	4.03
270.051	4.01
270.425	4.08
270.799	4.1
271.172	4
271.546	4.12
271.919	4.05
272.293	3.95
272.666	3.94
273.04	4.13
273.413	4.16
273.787	4.27
274.16	4.14
274.533	4.03
274.906	3.81
275.279	3.75
275.653	3.46
276.026	3.3
276.399	3.45
276.772	3.32
277.145	3.33
277.518	3.44
277.891	3.44
278.263	3.5
278.636	3.59
279.009	3.49
279.382	3.58
279.755	3.66
280.127	3.8
280.5	3.9
280.872	3.87
281.245	3.91
281.617	4.04
281.99	4.17
282.362	4.25
282.735	4.23
283.107	4.27
283.479	4.48
283.852	4.54
284.224	4.43
284.596	4.4
284.968	4.46
285.34	4.55
285.713	4.46
286.085	4.3
286.457	4.39
286.829	4.64
287.201	4.7
287.572	4.61
287.944	4.6
288.316	4.66
288.688	4.56
289.06	4.53
289.431	4.49
289.803	4.63
290.175	4.6
290.546	4.87
290.918	5
291.289	5.1
291.661	5.13
292.032	5.23
292.403	5.26
292.775	5.28
293.146	5.19
293.517	5.3
293.889	5.45
294.26	5.33
294.631	5.33
295.002	5.2
295.373	5.27
295.744	5.39
296.115	5.28
296.486	5.35
296.857	5.45
297.228	5.59
297.599	5.44
297.97	5.6
298.34	5.62
298.711	5.55
299.082	5.42
299.452	5.44
299.823	5.44
300.194	5.66
300.564	5.8
300.935	5.88
301.305	5.85
301.676	5.95
302.046	6.05
302.416	6.06
302.787	6.16
303.157	6.26
303.527	6.17
303.897	6.32
304.267	6.38
304.637	6.38
305.008	6.39
305.378	6.57
305.748	6.61
306.117	6.39
306.487	6.42
306.857	6.49
307.227	6.48
307.597	6.47
307.967	6.24
308.336	6.19
308.706	6.17
309.076	6.37
309.445	6.3
309.815	6.15
310.184	5.99
310.554	6.04
310.923	6
311.293	5.96
311.662	5.85
312.031	5.82
312.401	5.7
312.77	5.64
313.139	5.57
313.508	5.41
313.877	5.4
314.246	5.43
314.616	5.4
314.985	5.34
315.353	5.28
315.722	5.41
316.091	5.22
316.46	5.09
316.829	5.02
317.198	5.06
317.567	5.19
317.935	5.26
318.304	5.24
318.672	5.12
319.041	5.16
319.41	5.22
319.778	5.2
320.147	5.41
320.515	5.35
320.883	5.42
321.252	5.57
321.62	5.51
321.988	5.55
322.357	5.41
322.725	5.61
323.093	5.72
323.461	5.66
323.829	5.77
324.197	5.97
324.565	5.92
324.933	5.86
325.301	5.86
325.669	5.87
326.037	5.87
326.405	6.04
326.772	6.07
327.14	6.14
327.508	6.14
327.875	6.03
328.243	6.13
328.61	5.97
328.978	5.95
329.346	6.18
329.713	6.07
330.08	6.14
330.448	5.99
330.815	5.89
331.182	5.9
331.55	5.89
331.917	5.99
332.284	6.03
332.651	6.05
333.018	6.18
333.385	6.17
333.752	6.22
334.119	6.19
334.486	6.26
334.853	6.05
335.22	5.98
335.587	6.03
335.954	6.02
336.32	6.01
336.687	6
337.054	5.87
337.42	5.97
337.787	6.08
338.153	6.08
338.52	6.13
338.886	6.03
339.253	6.04
339.619	5.95
339.986	5.9
340.352	5.95
340.718	5.82
341.084	5.75
341.451	5.85
341.817	5.82
342.183	5.74
342.549	5.85
342.915	5.95
343.281	6
343.647	5.91
344.013	6.02
344.379	6.02
344.745	6.08
345.11	6.03
345.476	6.05
345.842	6.14
346.208	6.11
346.573	6.18
346.939	6.23
347.304	6.14
347.67	6.18
348.035	6.04
348.401	6.04
348.766	6.15
349.132	6.13
349.497	6.1
349.862	6.1
350.228	6.13
350.593	6.09
350.958	6.01
351.323	6.03
351.688	6.06
352.053	6.04
352.418	6.05
352.783	6.04
353.148	5.95
353.513	5.89
353.878	5.89
354.243	5.9
354.608	5.87
354.972	5.9
355.337	5.87
355.702	5.97
356.066	6.01
356.431	6
356.795	5.97
357.16	6
357.524	5.94
357.889	5.96
358.253	5.95
358.618	6.01
358.982	5.96
359.346	5.85
359.71	5.9
360.075	5.93
360.439	6.01
360.803	5.99
361.167	5.92
361.531	5.85
361.895	5.82
362.259	5.87
362.623	5.83
362.987	5.79
363.351	5.73
363.714	5.83
364.078	5.79
364.442	5.76
364.806	5.69
365.169	5.72
365.533	5.71
365.896	5.71
366.26	5.63
366.623	5.65
366.987	5.65
367.35	5.68
367.714	5.61
368.077	5.51
368.44	5.56
368.803	5.57
369.167	5.59
369.53	5.6
369.893	5.59
370.256	5.65
370.619	5.7
370.982	5.66
371.345	5.56
371.708	5.56
372.071	5.53
372.434	5.53
372.797	5.53
373.159	5.54
373.522	5.56
373.885	5.6
374.247	5.58
374.61	5.68
374.973	5.59
375.335	5.6
375.698	5.6
376.06	5.56
376.423	5.67
376.785	5.74
377.147	5.81
377.51	5.79
377.872	5.76
378.234	5.75
378.596	5.84
378.958	5.82
379.321	5.83
379.683	5.83
380.045	5.88
380.407	5.91
380.769	5.9
381.13	5.86
381.492	5.85
381.854	5.87
382.216	5.84
382.578	5.9
382.939	5.8
383.301	5.78
383.663	5.75
384.024	5.77
384.386	5.78
384.747	5.74
385.109	5.74
385.47	5.72
385.832	5.72
386.193	5.71
386.554	5.72
386.916	5.73
387.277	5.77
387.638	5.79
387.999	5.8
388.36	5.78
388.721	5.83
389.082	5.82
389.443	5.82
389.804	5.82
390.165	5.8
390.526	5.88
390.887	5.89
391.248	5.96
391.609	5.91
391.969	5.89
392.33	5.89
392.691	5.89
393.051	5.9
393.412	5.93
393.772	5.89
394.133	5.88
394.493	5.89
394.854	5.86
395.214	5.84
395.574	5.79
395.935	5.8
396.295	5.82
396.655	5.82
397.015	5.82
397.376	5.82
397.736	5.81
398.096	5.82
398.456	5.82
398.816	5.81
399.176	5.78
399.535	5.8
399.895	5.81
400.255	5.82
400.615	5.83
400.975	5.83
401.334	5.86
401.694	5.86
402.054	5.87
402.413	5.85
402.773	5.84
403.132	5.85
403.492	5.87
403.851	5.86
404.211	5.87
404.57	5.84
404.929	5.84
405.288	5.86
405.648	5.86
406.007	5.87
406.366	5.86
406.725	5.91
407.084	5.88
407.443	5.85
407.802	5.86
408.161	5.85
408.52	5.83
408.879	5.83
409.238	5.83
409.596	5.78
409.955	5.83
410.314	5.84
410.673	5.85
411.031	5.79
411.39	5.77
411.748	5.75
412.107	5.8
412.465	5.77
412.824	5.76
413.182	5.75
413.54	5.71
413.899	5.71
414.257	5.68
414.615	5.67
414.974	5.68
415.332	5.66
415.69	5.64
416.048	5.63
416.406	5.61
416.764	5.61
417.122	5.62
417.48	5.57
417.838	5.57
418.195	5.57
418.553	5.59
418.911	5.61
419.269	5.61
419.626	5.6
419.984	5.6
420.342	5.59
420.699	5.6
421.057	5.62
421.414	5.59
421.772	5.58
422.129	5.6
422.486	5.59
422.844	5.6
423.201	5.6
423.558	5.62
423.915	5.62
424.273	5.62
424.63	5.63
424.987	5.62
425.344	5.62
425.701	5.62
426.058	5.6
426.415	5.58
426.772	5.58
427.128	5.56
427.485	5.57
427.842	5.55
428.199	5.56
428.555	5.54
428.912	5.58
429.269	5.61
429.625	5.58
429.982	5.59
430.338	5.55
430.695	5.55
431.051	5.54
431.407	5.55
431.764	5.53
432.12	5.53
432.476	5.55
432.832	5.53
433.189	5.55
433.545	5.56
433.901	5.56
434.257	5.55
434.613	5.57
434.969	5.57
435.325	5.59
435.681	5.57
436.036	5.57
436.392	5.57
436.748	5.55
437.104	5.56
437.459	5.56
437.815	5.57
438.171	5.6
438.526	5.62
438.882	5.6
439.237	5.62
439.593	5.63
439.948	5.64
440.304	5.66
440.659	5.64
441.014	5.65
441.369	5.65
441.725	5.64
442.08	5.63
442.435	5.63
442.79	5.62
443.145	5.63
443.5	5.63
443.855	5.63
444.21	5.61
444.565	5.62
444.92	5.63
445.275	5.61
445.629	5.6
445.984	5.57
446.339	5.58
446.693	5.54
447.048	5.53
447.403	5.52
447.757	5.5
448.112	5.51
448.466	5.5
448.82	5.51
449.175	5.51
449.529	5.51
449.883	5.5
450.238	5.48
450.592	5.47
450.946	5.45
451.3	5.44
451.654	5.45
452.008	5.43
452.362	5.41
452.716	5.42
453.07	5.41
453.424	5.44
453.778	5.42
454.132	5.45
454.486	5.46
454.839	5.44
455.193	5.42
455.547	5.4
455.9	5.4
456.254	5.42
456.607	5.43
456.961	5.43
457.314	5.44
457.668	5.46
458.021	5.45
458.375	5.45
458.728	5.46
459.081	5.46
459.434	5.47
459.787	5.48
460.141	5.49
460.494	5.5
460.847	5.5
461.2	5.51
461.553	5.51
461.906	5.5
462.259	5.53
462.611	5.53
462.964	5.58
463.317	5.57
463.67	5.56
464.022	5.55
464.375	5.56
464.728	5.57
465.08	5.56
465.433	5.58
465.785	5.59
466.138	5.59
466.49	5.61
466.843	5.58
467.195	5.57
467.547	5.57
467.899	5.59
468.252	5.58
468.604	5.59
468.956	5.59
469.308	5.59
469.66	5.61
470.012	5.63
470.364	5.6
470.716	5.6
471.068	5.59
471.42	5.6
471.772	5.63
472.123	5.63
472.475	5.64
472.827	5.62
473.178	5.6
473.53	5.6
473.882	5.6
474.233	5.63
474.585	5.63
474.936	5.63
475.288	5.6
475.639	5.61
475.99	5.6
476.342	5.6
476.693	5.58
477.044	5.58
477.395	5.57
477.746	5.6
478.097	5.59
478.448	5.61
478.8	5.6
479.15	5.57
479.501	5.58
479.852	5.59
480.203	5.61
480.554	5.62
480.905	5.64
481.255	5.65
481.606	5.65
481.957	5.65
482.307	5.67
482.658	5.68
483.009	5.68
483.359	5.67
483.709	5.68
484.06	5.69
484.41	5.68
484.761	5.69
485.111	5.69
485.461	5.7
485.811	5.7
486.162	5.71
486.512	5.73
486.862	5.72
487.212	5.71
487.562	5.71
487.912	5.72
488.262	5.72
488.612	5.71
488.961	5.71
489.311	5.71
489.661	5.69
490.011	5.69
490.36	5.69
490.71	5.69
491.06	5.71
491.409	5.69
491.759	5.7
492.108	5.68
492.458	5.67
492.807	5.66
493.157	5.68
493.506	5.66
493.855	5.66
494.204	5.66
494.554	5.67
494.903	5.66
495.252	5.65
495.601	5.66
495.95	5.68
496.299	5.68
496.648	5.69
496.997	5.7
497.346	5.73
497.695	5.74
498.043	5.75
498.392	5.73
498.741	5.76
499.09	5.76
499.438	5.83
499.787	5.84
500.135	5.86
500.484	5.85
500.832	5.88
501.181	5.9
501.529	5.93
501.878	5.95
502.226	5.97
502.574	5.99
502.923	6
503.271	6.01
503.619	6.03
503.967	6.04
504.315	6.05
504.663	6.03
505.011	6.05
505.359	6.06
505.707	6.08
506.055	6.06
506.403	6.08
506.751	6.06
507.098	6.06
507.446	6.07
507.794	6.1
508.141	6.1
508.489	6.09
508.837	6.09
509.184	6.11
509.531	6.1
509.879	6.13
510.226	6.15
510.574	6.15
510.921	6.15
511.268	6.16
511.616	6.15
511.963	6.16
512.31	6.17
512.657	6.2
513.004	6.2
513.351	6.25
513.698	6.24
514.045	6.25
514.392	6.26
514.739	6.26
515.086	6.29
515.432	6.3
515.779	6.31
516.126	6.33
516.473	6.33
516.819	6.33
517.166	6.31
517.512	6.3
517.859	6.3
518.205	6.31
518.552	6.34
518.898	6.34
519.245	6.35
519.591	6.36
519.937	6.34
520.283	6.35
520.629	6.35
520.976	6.37
521.322	6.37
521.668	6.38
522.014	6.39
522.36	6.37
522.706	6.37
523.052	6.37
523.398	6.37
523.743	6.37
524.089	6.38
524.435	6.41
524.781	6.43
525.126	6.44
525.472	6.45
525.817	6.46
526.163	6.48
526.509	6.49
526.854	6.51
527.199	6.53
527.545	6.53
527.89	6.53
528.235	6.54
528.581	6.55
528.926	6.56
529.271	6.56
529.616	6.57
529.961	6.58
530.306	6.59
530.651	6.59
530.996	6.59
531.341	6.6
531.686	6.6
532.031	6.6
532.376	6.61
532.721	6.61
533.065	6.62
533.41	6.61
533.755	6.61
534.099	6.6
534.444	6.59
534.788	6.6
535.133	6.62
535.477	6.62
535.822	6.61
536.166	6.6
536.51	6.62
536.855	6.62
537.199	6.63
537.543	6.64
537.887	6.64
538.231	6.65
538.576	6.66
538.92	6.68
539.264	6.67
539.608	6.67
539.951	6.67
540.295	6.65
540.639	6.67
540.983	6.67
541.327	6.66
541.671	6.66
542.014	6.63
542.358	6.62
542.701	6.62
543.045	6.62
543.389	6.63
543.732	6.63
544.075	6.64
544.419	6.64
544.762	6.62
545.105	6.63
545.449	6.67
545.792	6.68
546.135	6.66
546.478	6.67
546.821	6.67
547.165	6.67
547.508	6.7
547.851	6.7
548.194	6.67
548.536	6.68
548.879	6.69
549.222	6.72
549.565	6.74
549.908	6.75
550.25	6.78
550.593	6.79
550.936	6.74
551.278	6.74
551.621	6.76
551.963	6.76
552.306	6.77
552.648	6.73
552.991	6.74
553.333	6.74
553.675	6.74
554.017	6.73
554.36	6.71
554.702	6.73
555.044	6.73
555.386	6.73
555.728	6.72
556.07	6.74
556.412	6.74
556.754	6.7
557.096	6.68
557.438	6.68
557.78	6.69
558.121	6.73
558.463	6.7
558.805	6.7
559.147	6.7
559.488	6.67
559.83	6.64
560.171	6.6
560.513	6.66
560.854	6.65
561.196	6.63
561.537	6.64
561.878	6.61
562.22	6.63
562.561	6.64
562.902	6.67
563.243	6.69
563.584	6.72
563.925	6.72
564.266	6.7
564.607	6.71
564.948	6.69
565.289	6.71
565.63	6.72
565.971	6.72
566.312	6.74
566.653	6.76
566.993	6.76
567.334	6.77
567.675	6.75
568.015	6.76
568.356	6.79
568.696	6.8
569.037	6.81
569.377	6.8
569.718	6.82
570.058	6.83
570.398	6.82
570.739	6.8
571.079	6.84
571.419	6.84
571.759	6.83
572.099	6.85
572.439	6.83
572.779	6.83
573.119	6.85
573.459	6.86
573.799	6.85
574.139	6.85
574.479	6.86
574.819	6.83
575.158	6.81
575.498	6.82
575.838	6.79
576.177	6.78
576.517	6.76
576.856	6.79
577.196	6.77
577.535	6.74
577.875	6.75
578.214	6.74
578.553	6.76
578.893	6.76
579.232	6.77
579.571	6.77
579.91	6.75
580.25	6.74
580.589	6.74
580.928	6.79
581.267	6.8
581.606	6.83
581.945	6.82
582.283	6.84
582.622	6.81
582.961	6.87
583.3	6.86
583.639	6.92
583.977	6.88
584.316	6.86
584.654	6.86
584.993	6.83
585.332	6.82
585.67	6.83
586.008	6.81
586.347	6.79
586.685	6.77
587.024	6.8
587.362	6.79
587.7	6.79
588.038	6.76
588.376	6.8
588.715	6.79
589.053	6.82
589.391	6.81
589.729	6.83
590.067	6.82
590.404	6.84
590.742	6.78
591.08	6.82
591.418	6.85
591.756	6.89
592.093	6.91
592.431	6.92
592.769	6.92
593.106	6.95
593.444	6.94
593.781	6.97
594.119	6.96
594.456	6.96
594.793	6.94
595.131	6.94
595.468	6.92
595.805	6.91
596.143	6.93
596.48	6.93
596.817	6.92
597.154	6.87
597.491	6.84
597.828	6.87
598.165	6.86
598.502	6.87
598.839	6.87
599.176	6.86
599.512	6.86
599.849	6.88
600.186	6.86
600.523	6.9
600.859	6.89
601.196	6.93
601.532	6.96
601.869	6.95
602.205	6.96
602.542	6.96
602.878	6.97
603.215	6.94
603.551	6.96
603.887	6.97
604.223	7
604.56	7.03
604.896	7.07
605.232	7.07
605.568	7.03
605.904	7.01
606.24	7.07
606.576	7.07
606.912	7.05
607.248	7.07
607.583	7.06
607.919	7.04
608.255	7.02
608.591	7
608.926	7.03
609.262	7.03
609.597	7.05
609.933	7.03
610.268	7.07
610.604	7.11
610.939	7.11
611.275	7.09
611.61	7.07
611.945	7.06
612.281	7.05
612.616	7.08
612.951	7.13
613.286	7.09
613.621	7.06
613.956	7.08
614.291	7.06
614.626	7.08
614.961	7.14
615.296	7.15
615.631	7.17
615.966	7.15
616.3	7.12
616.635	7.14
616.97	7.17
617.304	7.11
617.639	7.05
617.973	7.05
618.308	7.1
618.642	7.17
618.977	7.11
619.311	7.07
619.646	7.12
619.98	7.08
620.314	7.1
620.648	7.13
620.983	7.11
621.317	7.08
621.651	7.07
621.985	7.06
622.319	7.1
622.653	7.05
622.987	7.09
623.321	7.11
623.655	7.1
623.988	7.11
624.322	7.14
624.656	7.17
624.99	7.2
625.323	7.18
625.657	7.19
625.99	7.24
626.324	7.29
626.657	7.27
626.991	7.28
627.324	7.3
627.658	7.32
627.991	7.36
628.324	7.46
628.657	7.47
628.991	7.44
629.324	7.45
629.657	7.5
629.99	7.5
630.323	7.51
630.656	7.49
630.989	7.53
631.322	7.55
631.655	7.57
631.987	7.58
632.32	7.66
632.653	7.59
632.986	7.61
633.318	7.59
633.651	7.63
633.984	7.61
634.316	7.57
634.649	7.54
634.981	7.52
635.313	7.47
635.646	7.49
635.978	7.52
636.31	7.46
636.643	7.45
636.975	7.5
637.307	7.48
637.639	7.53
637.971	7.49
638.303	7.47
638.635	7.39
638.967	7.39
639.299	7.36
639.631	7.33
639.963	7.28
640.295	7.33
640.626	7.21
640.958	7.24
641.29	7.26
641.621	7.29
641.953	7.36
642.285	7.32
642.616	7.34
642.948	7.38
643.279	7.42
643.61	7.36
643.942	7.33
644.273	7.35
644.604	7.33
644.936	7.26
645.267	7.28
645.598	7.3
645.929	7.23
646.26	7.21
646.591	7.32
646.922	7.34
647.253	7.35
647.584	7.41
647.915	7.4
648.245	7.35
648.576	7.36
648.907	7.25
649.238	7.31
649.568	7.28
649.899	7.18
650.229	7.22
650.56	7.32
650.89	7.29
651.221	7.29
651.551	7.23
651.882	7.34
652.212	7.35
652.542	7.42
652.872	7.38
653.203	7.32
653.533	7.28
653.863	7.27
654.193	7.2
654.523	7.24
654.853	7.25
655.183	7.25
655.513	7.24
655.843	7.27
656.172	7.26
656.502	7.24
656.832	7.29
657.162	7.29
657.491	7.21
657.821	7.21
658.15	7.21
658.48	7.25
658.809	7.2
659.139	7.3
659.468	7.27
659.798	7.37
660.127	7.47
660.456	7.54
660.785	7.52
661.115	7.61
661.444	7.58
661.773	7.64
662.102	7.72
662.431	7.79
662.76	7.86
663.089	7.88
663.418	7.9
663.747	7.95
664.076	7.93
664.404	7.94
664.733	8.02
665.062	8.02
665.39	8.03
665.719	8.05
666.048	7.94
666.376	7.97
666.705	7.92
667.033	7.82
667.362	7.8
667.69	7.85
668.018	7.8
668.347	7.72
668.675	7.73
669.003	7.68
669.331	7.61
669.659	7.54
669.987	7.47
670.315	7.42
670.643	7.41
670.971	7.45
671.299	7.51
671.627	7.55
671.955	7.49
672.283	7.51
672.61	7.47
672.938	7.5
673.266	7.52
673.593	7.56
673.921	7.59
674.249	7.52
674.576	7.41
674.904	7.4
675.231	7.46
675.558	7.4
675.886	7.35
676.213	7.29
676.54	7.32
676.867	7.39
677.195	7.5
677.522	7.48
677.849	7.43
678.176	7.36
678.503	7.27
678.83	7.33
679.157	7.3
679.484	7.38
679.81	7.38
680.137	7.34
680.464	7.33
680.791	7.38
681.117	7.38
681.444	7.46
681.771	7.48
682.097	7.53
682.424	7.52
682.75	7.56
683.077	7.6
683.403	7.6
683.729	7.6
684.056	7.58
684.382	7.61
684.708	7.55
685.034	7.65
685.36	7.62
685.686	7.62
686.012	7.63
686.339	7.71
686.664	7.73
686.99	7.73
687.316	7.78
687.642	7.69
687.968	7.81
688.294	7.79
688.619	7.89
688.945	7.82
689.271	7.84
689.596	7.88
689.922	7.92
690.247	7.95
690.573	7.91
690.898	7.95
691.224	7.92
691.549	8.05
691.874	8.05
692.2	8.12
692.525	8.16
692.85	8.17
693.175	8.08
693.5	8.01
693.825	7.97
694.15	7.94
694.475	7.94
694.8	7.9
695.125	7.91
695.45	7.76
695.775	7.83
696.099	7.86
696.424	7.88
696.749	7.85
697.073	7.81
697.398	7.86
697.723	7.91
698.047	7.93
698.372	7.79
698.696	7.78
699.02	7.81
699.345	7.69
699.669	7.73
699.993	7.7
700.318	7.72
700.642	7.71
700.966	7.7
701.29	7.75
701.614	7.66
701.938	7.66
702.262	7.79
702.586	7.74
702.91	7.7
703.234	7.69
703.557	7.69
703.881	7.57
704.205	7.57
704.529	7.36
704.852	7.42
705.176	7.54
705.499	7.54
705.823	7.35
706.146	7.43
706.47	7.48
706.793	7.5
707.117	7.57
707.44	7.58
707.763	7.69
708.086	7.64
708.409	7.69
708.733	7.62
709.056	7.61
709.379	7.62
709.702	7.58
710.025	7.53
710.348	7.49
710.671	7.64
710.993	7.68
711.316	7.76
711.639	7.67
711.962	7.68
712.284	7.68
712.607	7.78
712.93	7.72
713.252	7.72
713.575	7.86
713.897	7.93
714.22	8.03
714.542	8.03
714.864	8.08
715.187	8.18
715.509	8.28
715.831	8.31
716.153	8.34
716.475	8.43
716.798	8.57
717.12	8.69
717.442	8.72
717.764	8.7
718.085	8.62
718.407	8.73
718.729	8.74
719.051	8.75
719.373	8.74
719.695	8.77
720.016	8.89
720.338	8.82
720.659	8.73
720.981	8.67
721.302	8.67
721.624	8.64
721.945	8.6
722.267	8.72
722.588	8.46
722.909	8.56
723.231	8.36
723.552	8.23
723.873	8.13
724.194	7.94
724.515	7.96
724.836	7.93
725.157	7.96
725.478	7.85
725.799	7.8
726.12	7.91
726.441	7.97
726.762	7.99
727.083	7.82
727.403	7.73
727.724	7.68
728.045	7.67
728.365	7.72
728.686	7.63
729.006	7.56
729.327	7.6
729.647	7.58
729.967	7.69
730.288	7.82
730.608	7.82
730.928	7.99
731.249	7.87
731.569	8.18
731.889	8.17
732.209	8.31
732.529	8.33
732.849	8.43
733.169	8.53
733.489	8.41
733.809	8.56
734.129	8.57
734.448	8.64
734.768	8.65
735.088	8.75
735.408	8.79
735.727	8.84
736.047	9.2
736.366	9.28
736.686	9.29
737.005	9.14
737.325	9.07
737.644	9.1
737.963	9.3
738.283	8.85
738.602	8.9
738.921	8.88
739.24	8.9
739.56	8.88
739.879	8.8
740.198	8.81
740.517	8.75
740.836	8.89
741.155	8.78
741.473	8.86
741.792	8.74
742.111	8.88
742.43	8.72
742.748	8.28
743.067	8.33
743.386	8.43
743.704	8.58
744.023	8.83
744.341	8.7
744.66	8.95
744.978	9.07
745.297	9.01
745.615	9.18
745.933	9.32
746.252	9.27
746.57	9.11
746.888	9.22
747.206	9.11
747.524	9.27
747.842	9.49
748.16	9.46
748.478	9.51
748.796	9.65
749.114	9.97
749.432	10.12
749.749	10.11
750.067	10.03
750.385	9.85
750.703	9.67
751.02	9.87
751.338	9.36
751.655	9.6
751.973	9.6
752.29	9.68
752.608	9.58
752.925	9.55
753.242	9.8
753.56	9.57
753.877	9.94
754.194	9.72
754.511	9.83
754.828	9.61
755.145	9.69
755.462	9.45
755.779	9.28
756.096	9.28
756.413	9.26
756.73	9.39
757.047	9.41
757.364	9.77
757.68	9.7
757.997	10.03
758.314	9.82
758.63	9.96
758.947	9.78
759.264	9.84
759.58	9.6
759.896	9.57
760.213	9.64
760.529	9.33
760.846	9.49
761.162	9.1
761.478	9.01
761.794	8.86
762.11	8.85
762.426	8.91
762.743	9.05
763.059	9.04
763.375	9.02
763.69	9.26
764.006	9.18
764.322	9.22
764.638	9.09
764.954	9.33
765.27	9.22
765.585	9.22
765.901	9.15
766.216	9.29
766.532	9.27
766.848	9.2
767.163	9.43
767.478	9.46
767.794	9.83
768.109	10.15
768.424	10.06
768.74	10.16
769.055	10.25
769.37	10.25
769.685	10.08
770	10.17
770.315	9.92
770.63	9.91
770.945	9.71
771.26	9.67
771.575	9.63
771.89	9.63
772.205	9.46
772.52	9.37
772.834	9.46
773.149	9.33
773.464	9.61
773.778	9.13
774.093	8.69
774.407	8.59
774.722	8.56
775.036	8.77
775.351	8.69
775.665	8.42
775.979	8.44
776.293	8.73
776.608	9.2
776.922	9.16
777.236	9.07
777.55	9.05
777.864	9.2
778.178	8.93
778.492	9.29
778.806	9.3
779.12	9.13
779.434	9.06
779.747	9.51
780.061	9.14
780.375	9.61
780.689	9.99
781.002	10.2
781.316	10.36
781.629	10.77
781.943	11.09
782.256	11.19
782.57	10.87
782.883	10.77
783.196	9.76
783.51	9.81
783.823	9.77
784.136	9.66
784.449	10.02
784.762	10.19
785.075	9.78
785.388	10.08
785.701	10.37
786.014	10.55
786.327	10.55
786.64	11.06
786.953	11.35
787.266	11.2
787.578	11.01
787.891	10.66
788.204	10.47
788.516	9.99
788.829	9.86
789.141	10.28
789.454	10.42
789.766	11.14
790.079	11.27
790.391	11.22
790.703	11.44
791.016	11.29
791.328	11.51
791.64	11.61
791.952	11.7
792.264	11.68
792.576	11.32
792.888	10.88
793.2	10.94
793.512	10.54
793.824	10.22
794.136	10.06
794.448	9.92
794.76	9.68
795.071	9.99
795.383	10.14
795.695	9.96
796.006	9.47
796.318	8.77
796.629	8.9
796.941	8.87
797.252	9.5
797.564	9.45
797.875	9.25
798.186	8.85
798.497	8.32
798.809	8.69
799.12	9.41
799.431	9.47
799.742	9.77
800.053	10.1
800.364	10.04
800.675	9.95
800.986	10.4
801.297	10.16
801.608	10.2
801.918	10.07
802.229	10.27
802.54	10.66
802.851	10.65
803.161	9.96
803.472	10.18
803.782	9.39
804.093	9.08
804.403	8.93
804.714	9.53
805.024	9.85
805.334	9.69
805.645	9.52
805.955	9.95
806.265	9.49
806.575	8.99
806.885	9.38
807.195	9.3
807.505	8.94
807.815	9.22
808.125	9.54
808.435	10.01
808.745	9.96
809.055	10.19
809.365	10.49
809.674	10.84
809.984	10.68
810.294	10.94
810.603	10.57
810.913	11.58
811.222	11.94
811.532	12.52
811.841	12.34
812.151	12.68
812.46	12.97
812.769	12.21
813.079	12.39
813.388	12.3
813.697	13.13
814.006	13.16
814.315	13.48
814.624	12.91
814.933	12.73
815.242	12.55
815.551	12.1
815.86	12.16
816.169	12.24
816.478	12.6
816.786	12.83
817.095	13.92
817.404	13.04
817.712	12.24
818.021	12.48
818.33	12.85
818.638	12.72
818.947	12.49
819.255	12.68
819.563	12.58
819.872	12.59
820.18	12.27
820.488	12.32
820.796	12.26
821.105	12.1
821.413	11.94
821.721	11.8
822.029	11.81
822.337	11.86
822.645	12.06
822.953	11.93
823.26	11.99
823.568	11.77
823.876	11.92
824.184	11.93
824.491	11.8
824.799	11.71
825.107	11.66
825.414	11.74
825.722	11.8
826.029	11.98
826.337	11.97
826.644	12.23
826.951	12.13
827.259	12.07
827.566	12.25
827.873	12.34
828.18	12.49
828.488	12.56
828.795	12.62
829.102	12.37
829.409	12.54
829.716	12.46
830.023	12.85
830.329	12.82
830.636	13.04
830.943	12.96
831.25	13.13
831.557	12.98
831.863	12.74
832.17	12.4
832.476	12.15
832.783	12.48
833.089	11.81
833.396	12.21
833.702	12.17
834.009	11.64
834.315	11.47
834.621	11.18
834.928	11.25
835.234	11.21
835.54	11.41
835.846	11.48
836.152	11.13
836.458	10.61
836.764	10.37
837.07	9.77
837.376	9.75
837.682	10.07
837.988	9.92
838.293	9.85
838.599	10.14
838.905	9.3
839.211	8.87
839.516	9.51
839.822	8.7
840.127	8.45
840.433	9.71
840.738	10.08
841.044	10.95
841.349	10.53
841.654	10.84
841.959	10.02
842.265	9.7
842.57	10.86
842.875	10.74
843.18	10.16
843.485	11.73
843.79	11.67
844.095	10.63
844.4	11.52
844.705	10.16
845.01	9.82
845.315	11.2
845.619	10.33
845.924	9.8
846.229	11.07
846.533	11.28
846.838	9.99
847.142	10.39
847.447	9.27
847.751	9.81
848.056	9.66
848.36	10.94
848.664	9.59
848.969	8.43
849.273	7.03
849.577	8.3
849.881	6.2
850.185	7.9
850.489	8.68
850.794	7.72
851.097	10.2
851.401	11.05
851.705	10.57
852.009	12.66
852.313	11.75
852.617	9.48
852.92	11.03
853.224	10.09
853.528	10.77
853.831	9.93
854.135	9.68
854.438	7.41
854.742	7.56
855.045	9.38
855.349	8.65
855.652	11.81
855.955	11.74
856.259	12.07
856.562	10.45
856.865	8.28
857.168	9.97
857.471	8.13
857.774	10.11
858.077	12.01
858.38	12.51
858.683	12.47
858.986	15.08
859.289	15.13
859.592	17.59
859.894	15.75
860.197	16.89
860.5	17.54
860.802	18.76
861.105	17.63
861.407	16.99
861.71	17.25
862.012	16.84
862.315	15.26
862.617	16.53
862.919	14.56
863.222	15.84
863.524	14.22
863.826	14.23
864.128	12.76
864.43	11.47
864.732	10.05
865.034	11.41
865.336	10.06
865.638	8.56
865.94	6.47
866.242	7.85
866.544	7.59
866.846	8.84
867.147	8.71
867.449	8.2
867.751	8.71
868.052	9.81
868.354	9.06
868.655	9.85
868.957	10.14
869.258	11.33
869.56	9.75
869.861	10.4
870.162	10.61
870.463	10.66
870.765	9.83
871.066	9.48
871.367	8.16
871.668	8.8
871.969	7.48
872.27	8.48
872.571	5.38
872.872	6.82
873.173	1.13
873.473	0.64
873.774	2.86
874.075	3.07
874.376	2.03
874.676	5.3
874.977	5.92
875.277	3.86
875.578	2.38
875.878	3
876.179	2.11
876.479	2.6
876.78	1.4
877.08	1.2
877.38	0.76
877.68	0.24
877.981	-0.46
878.281	1.87
878.581	1.14
