Data from BU58127_Reflection_00004.txt Node
Date: Mon Nov 18 16:44:07 EST 2019
User: vgr7
Spectrometer: USB2G7710
Scans to average: 3
Trigger mode: 4
Integration Time (sec): 2.000000E-2
Electric dark correction enabled: true
Boxcar width: 10
XAxis mode: Wavelengths
Number of Pixels in Spectrum: 2048
>>>>>Begin Spectral Data<<<<<
177.721	-1455.56
178.105	-186.38
178.488	-171.42
178.871	-130.68
179.254	-60.4
179.636	-656.94
180.019	-15.35
180.402	210
180.785	-982.13
181.168	-2381.48
181.55	1560.32
181.933	162.1
182.316	161.36
182.698	348.01
183.081	292.35
183.463	329.26
183.846	325.75
184.228	288.14
184.611	182.96
184.993	908.08
185.376	502.93
185.758	-3489.74
186.14	339.65
186.522	142.65
186.904	91.2
187.287	209
187.669	-1171.32
188.051	563.77
188.433	10174.07
188.815	-345.47
189.197	-603.36
189.579	-164.98
189.961	-116.34
190.342	-133.8
190.724	-137.41
191.106	-124.55
191.488	-138.58
191.869	-104.56
192.251	-166.42
192.633	-102.45
193.014	-154.33
193.396	-213.03
193.777	-269.96
194.159	-301.27
194.54	-220.76
194.922	-199.75
195.303	-207.1
195.684	-230.64
196.065	-149.47
196.447	-141
196.828	-170.54
197.209	-141.29
197.59	-150.31
197.971	-177.09
198.352	-146.04
198.733	-148.01
199.114	-128.75
199.495	-113
199.876	-119.28
200.257	-101.8
200.638	-96.73
201.018	-85.35
201.399	-85.64
201.78	-73.82
202.16	-69.8
202.541	-93.5
202.922	-98.37
203.302	-108.75
203.683	-97.7
204.063	-105.81
204.444	-101.49
204.824	-83.27
205.204	-79.22
205.585	-79.91
205.965	-58.63
206.345	-61.14
206.725	-59.93
207.106	-59.2
207.486	-68.48
207.866	-76.17
208.246	-69.77
208.626	-72.73
209.006	-76.14
209.386	-74.14
209.766	-99.11
210.145	-91.66
210.525	-48.65
210.905	-43
211.285	-38.71
211.664	-61.2
212.044	-67.42
212.424	-55.54
212.803	-68.63
213.183	-78.79
213.562	-81.19
213.942	-78.06
214.321	-57.16
214.701	-63.92
215.08	-85.1
215.459	-80.74
215.838	-68.42
216.218	-94.76
216.597	-73.46
216.976	-62.39
217.355	-66.32
217.734	-38.37
218.113	-43.71
218.492	-55.45
218.871	-69.82
219.25	-74.8
219.629	-71.96
220.008	-72.5
220.387	-62.12
220.766	-68.98
221.144	-72.52
221.523	-80.26
221.902	-99.58
222.28	-114.55
222.659	-102.75
223.037	-95.93
223.416	-105.75
223.794	-105.73
224.173	-84.88
224.551	-83.16
224.929	-78.87
225.308	-58.02
225.686	-63.65
226.064	-55.84
226.442	-50.53
226.821	-41.31
227.199	-35.9
227.577	-31.18
227.955	-26.15
228.333	-27.66
228.711	-24.48
229.089	-18.95
229.467	-17.32
229.845	-16.17
230.222	-15.23
230.6	-16.75
230.978	-14.17
231.356	-11.86
231.733	-10.3
232.111	-8.74
232.488	-7.63
232.866	-6.04
233.243	-4.46
233.621	-5.33
233.998	-3.4
234.376	-4.91
234.753	-3.5
235.13	-1.01
235.508	-0.34
235.885	0.31
236.262	-0.09
236.639	0.34
237.016	-1.01
237.393	0.24
237.77	0.56
238.147	1.58
238.524	2.75
238.901	3.74
239.278	3.82
239.655	4.05
240.032	4.32
240.409	3.84
240.785	3.09
241.162	2.1
241.539	2.61
241.915	2.57
242.292	2.13
242.668	2.07
243.045	2.05
243.421	2
243.798	2.3
244.174	2.46
244.551	2.5
244.927	2.57
245.303	2.66
245.679	2.82
246.056	2.67
246.432	2.69
246.808	2.81
247.184	2.66
247.56	2.58
247.936	2.51
248.312	2.59
248.688	2.75
249.064	3.06
249.44	3.07
249.815	3.26
250.191	3.6
250.567	3.66
250.943	3.48
251.318	3.57
251.694	3.39
252.069	3.32
252.445	3.54
252.82	3.5
253.196	3.25
253.571	3.03
253.947	3.16
254.322	2.93
254.697	2.62
255.073	2.56
255.448	2.51
255.823	2.35
256.198	2.52
256.573	2.37
256.948	2.45
257.323	2.73
257.698	2.66
258.073	2.63
258.448	2.4
258.823	2.41
259.198	2.46
259.573	2.52
259.948	2.56
260.322	2.58
260.697	2.56
261.072	2.57
261.446	2.65
261.821	2.52
262.195	2.54
262.57	2.54
262.944	2.56
263.319	2.6
263.693	2.53
264.067	2.55
264.442	2.59
264.816	2.36
265.19	2.04
265.564	1.9
265.938	1.84
266.313	1.8
266.687	1.9
267.061	1.81
267.435	1.76
267.809	1.61
268.183	1.62
268.556	1.57
268.93	1.58
269.304	1.61
269.678	1.87
270.051	1.91
270.425	1.91
270.799	1.97
271.172	1.98
271.546	1.99
271.919	1.91
272.293	2.07
272.666	2.12
273.04	2.33
273.413	2.32
273.787	2.33
274.16	2.45
274.533	2.32
274.906	2.36
275.279	2.33
275.653	2.6
276.026	2.51
276.399	2.65
276.772	2.61
277.145	2.45
277.518	2.34
277.891	2.16
278.263	2
278.636	1.96
279.009	1.91
279.382	2.09
279.755	2.07
280.127	2.18
280.5	2.31
280.872	2.26
281.245	2.23
281.617	2.36
281.99	2.49
282.362	2.7
282.735	2.66
283.107	2.68
283.479	2.62
283.852	2.6
284.224	2.52
284.596	2.63
284.968	2.93
285.34	3.03
285.713	3.13
286.085	3.23
286.457	3.22
286.829	3.37
287.201	3.4
287.572	3.35
287.944	3.1
288.316	3
288.688	2.93
289.06	2.87
289.431	2.86
289.803	2.85
290.175	2.68
290.546	2.9
290.918	2.86
291.289	2.78
291.661	2.83
292.032	2.88
292.403	2.84
292.775	2.68
293.146	2.6
293.517	2.54
293.889	2.54
294.26	2.6
294.631	2.49
295.002	2.42
295.373	2.49
295.744	2.63
296.115	2.72
296.486	2.77
296.857	2.83
297.228	2.92
297.599	2.84
297.97	2.97
298.34	2.85
298.711	2.92
299.082	2.99
299.452	2.97
299.823	3.08
300.194	3.11
300.564	3.16
300.935	3.15
301.305	3.2
301.676	3.35
302.046	3.4
302.416	3.46
302.787	3.55
303.157	3.46
303.527	3.38
303.897	3.32
304.267	3.38
304.637	3.48
305.008	3.42
305.378	3.57
305.748	3.51
306.117	3.42
306.487	3.37
306.857	3.4
307.227	3.45
307.597	3.38
307.967	3.38
308.336	3.43
308.706	3.39
309.076	3.47
309.445	3.4
309.815	3.32
310.184	3.27
310.554	3.15
310.923	3.23
311.293	3.25
311.662	3.23
312.031	3.21
312.401	3.11
312.77	3.1
313.139	2.96
313.508	2.94
313.877	3.08
314.246	3.06
314.616	3.05
314.985	2.97
315.353	2.92
315.722	2.91
316.091	2.75
316.46	2.79
316.829	2.64
317.198	2.54
317.567	2.51
317.935	2.5
318.304	2.56
318.672	2.53
319.041	2.56
319.41	2.72
319.778	2.7
320.147	2.79
320.515	2.71
320.883	2.7
321.252	2.72
321.62	2.53
321.988	2.53
322.357	2.45
322.725	2.53
323.093	2.71
323.461	2.77
323.829	2.8
324.197	2.7
324.565	2.78
324.933	2.78
325.301	2.86
325.669	2.8
326.037	2.77
326.405	2.74
326.772	2.73
327.14	2.71
327.508	2.55
327.875	2.54
328.243	2.56
328.61	2.65
328.978	2.68
329.346	2.83
329.713	2.83
330.08	2.92
330.448	2.86
330.815	2.6
331.182	2.49
331.55	2.49
331.917	2.64
332.284	2.78
332.651	2.67
333.018	2.67
333.385	2.68
333.752	2.7
334.119	2.71
334.486	2.62
334.853	2.63
335.22	2.89
335.587	2.92
335.954	2.91
336.32	2.84
336.687	2.9
337.054	2.88
337.42	2.91
337.787	2.88
338.153	2.9
338.52	3.07
338.886	3.01
339.253	3.07
339.619	3.06
339.986	3.05
340.352	3.17
340.718	3.14
341.084	3.1
341.451	3.22
341.817	3.31
342.183	3.39
342.549	3.36
342.915	3.32
343.281	3.24
343.647	3.23
344.013	3.32
344.379	3.25
344.745	3.31
345.11	3.38
345.476	3.39
345.842	3.4
346.208	3.35
346.573	3.45
346.939	3.52
347.304	3.45
347.67	3.34
348.035	3.22
348.401	3.17
348.766	3.28
349.132	3.12
349.497	3.01
349.862	3.05
350.228	3.03
350.593	3
350.958	3.02
351.323	3.05
351.688	3.02
352.053	3.07
352.418	3.02
352.783	3.09
353.148	3.04
353.513	3
353.878	2.98
354.243	2.96
354.608	2.91
354.972	2.95
355.337	2.91
355.702	3.09
356.066	3.2
356.431	3.18
356.795	3.28
357.16	3.26
357.524	3.19
357.889	3.16
358.253	3.14
358.618	3.21
358.982	3.19
359.346	3.15
359.71	3.09
360.075	3.08
360.439	2.91
360.803	2.9
361.167	2.99
361.531	3.02
361.895	3.01
362.259	2.96
362.623	2.97
362.987	3.04
363.351	3.03
363.714	2.99
364.078	2.94
364.442	2.93
364.806	3
365.169	3.09
365.533	3.06
365.896	3.13
366.26	3.13
366.623	3.16
366.987	3.16
367.35	3.18
367.714	3.19
368.077	3.25
368.44	3.28
368.803	3.26
369.167	3.24
369.53	3.27
369.893	3.37
370.256	3.33
370.619	3.24
370.982	3.22
371.345	3.23
371.708	3.26
372.071	3.24
372.434	3.23
372.797	3.16
373.159	3.21
373.522	3.1
373.885	3.08
374.247	3.05
374.61	3.15
374.973	3.14
375.335	3.16
375.698	3.2
376.06	3.19
376.423	3.11
376.785	3.15
377.147	3.16
377.51	3.1
377.872	3.12
378.234	3.21
378.596	3.2
378.958	3.21
379.321	3.21
379.683	3.23
380.045	3.23
380.407	3.3
380.769	3.33
381.13	3.35
381.492	3.37
381.854	3.4
382.216	3.33
382.578	3.38
382.939	3.3
383.301	3.29
383.663	3.31
384.024	3.3
384.386	3.31
384.747	3.32
385.109	3.34
385.47	3.33
385.832	3.29
386.193	3.3
386.554	3.29
386.916	3.31
387.277	3.28
387.638	3.32
387.999	3.27
388.36	3.24
388.721	3.26
389.082	3.29
389.443	3.26
389.804	3.24
390.165	3.22
390.526	3.29
390.887	3.27
391.248	3.26
391.609	3.3
391.969	3.29
392.33	3.28
392.691	3.27
393.051	3.29
393.412	3.31
393.772	3.3
394.133	3.29
394.493	3.26
394.854	3.3
395.214	3.25
395.574	3.25
395.935	3.25
396.295	3.27
396.655	3.2
397.015	3.21
397.376	3.26
397.736	3.28
398.096	3.29
398.456	3.33
398.816	3.33
399.176	3.3
399.535	3.29
399.895	3.26
400.255	3.26
400.615	3.25
400.975	3.24
401.334	3.21
401.694	3.24
402.054	3.24
402.413	3.23
402.773	3.23
403.132	3.19
403.492	3.22
403.851	3.22
404.211	3.24
404.57	3.21
404.929	3.19
405.288	3.18
405.648	3.14
406.007	3.17
406.366	3.17
406.725	3.2
407.084	3.21
407.443	3.26
407.802	3.25
408.161	3.26
408.52	3.27
408.879	3.29
409.238	3.29
409.596	3.3
409.955	3.31
410.314	3.34
410.673	3.36
411.031	3.37
411.39	3.35
411.748	3.34
412.107	3.37
412.465	3.33
412.824	3.35
413.182	3.32
413.54	3.28
413.899	3.3
414.257	3.3
414.615	3.3
414.974	3.3
415.332	3.32
415.69	3.31
416.048	3.31
416.406	3.3
416.764	3.27
417.122	3.29
417.48	3.27
417.838	3.28
418.195	3.31
418.553	3.31
418.911	3.32
419.269	3.34
419.626	3.35
419.984	3.37
420.342	3.36
420.699	3.38
421.057	3.39
421.414	3.38
421.772	3.38
422.129	3.39
422.486	3.38
422.844	3.39
423.201	3.37
423.558	3.38
423.915	3.41
424.273	3.43
424.63	3.42
424.987	3.42
425.344	3.4
425.701	3.39
426.058	3.4
426.415	3.4
426.772	3.38
427.128	3.36
427.485	3.37
427.842	3.37
428.199	3.36
428.555	3.36
428.912	3.36
429.269	3.39
429.625	3.38
429.982	3.39
430.338	3.37
430.695	3.38
431.051	3.35
431.407	3.32
431.764	3.31
432.12	3.31
432.476	3.32
432.832	3.31
433.189	3.34
433.545	3.33
433.901	3.32
434.257	3.32
434.613	3.34
434.969	3.33
435.325	3.33
435.681	3.33
436.036	3.31
436.392	3.31
436.748	3.29
437.104	3.26
437.459	3.26
437.815	3.27
438.171	3.28
438.526	3.28
438.882	3.3
439.237	3.3
439.593	3.3
439.948	3.31
440.304	3.31
440.659	3.28
441.014	3.27
441.369	3.27
441.725	3.27
442.08	3.26
442.435	3.28
442.79	3.28
443.145	3.3
443.5	3.31
443.855	3.31
444.21	3.32
444.565	3.34
444.92	3.35
445.275	3.36
445.629	3.36
445.984	3.37
446.339	3.35
446.693	3.34
447.048	3.36
447.403	3.34
447.757	3.33
448.112	3.35
448.466	3.35
448.82	3.34
449.175	3.35
449.529	3.35
449.883	3.32
450.238	3.31
450.592	3.31
450.946	3.3
451.3	3.29
451.654	3.28
452.008	3.27
452.362	3.25
452.716	3.24
453.07	3.24
453.424	3.24
453.778	3.24
454.132	3.25
454.486	3.23
454.839	3.23
455.193	3.24
455.547	3.24
455.9	3.25
456.254	3.26
456.607	3.27
456.961	3.27
457.314	3.29
457.668	3.31
458.021	3.3
458.375	3.29
458.728	3.3
459.081	3.31
459.434	3.31
459.787	3.32
460.141	3.33
460.494	3.33
460.847	3.33
461.2	3.34
461.553	3.34
461.906	3.36
462.259	3.37
462.611	3.37
462.964	3.38
463.317	3.37
463.67	3.38
464.022	3.38
464.375	3.38
464.728	3.35
465.08	3.35
465.433	3.35
465.785	3.36
466.138	3.37
466.49	3.37
466.843	3.39
467.195	3.38
467.547	3.36
467.899	3.36
468.252	3.35
468.604	3.34
468.956	3.34
469.308	3.35
469.66	3.3
470.012	3.31
470.364	3.31
470.716	3.31
471.068	3.3
471.42	3.3
471.772	3.32
472.123	3.34
472.475	3.34
472.827	3.35
473.178	3.36
473.53	3.35
473.882	3.33
474.233	3.33
474.585	3.33
474.936	3.34
475.288	3.34
475.639	3.33
475.99	3.32
476.342	3.32
476.693	3.32
477.044	3.35
477.395	3.36
477.746	3.33
478.097	3.35
478.448	3.37
478.8	3.38
479.15	3.37
479.501	3.38
479.852	3.36
480.203	3.36
480.554	3.37
480.905	3.38
481.255	3.4
481.606	3.41
481.957	3.42
482.307	3.42
482.658	3.42
483.009	3.42
483.359	3.43
483.709	3.43
484.06	3.43
484.41	3.43
484.761	3.43
485.111	3.44
485.461	3.45
485.811	3.45
486.162	3.44
486.512	3.44
486.862	3.44
487.212	3.45
487.562	3.45
487.912	3.45
488.262	3.44
488.612	3.44
488.961	3.43
489.311	3.42
489.661	3.43
490.011	3.43
490.36	3.43
490.71	3.43
491.06	3.43
491.409	3.43
491.759	3.42
492.108	3.42
492.458	3.42
492.807	3.4
493.157	3.39
493.506	3.41
493.855	3.42
494.204	3.42
494.554	3.42
494.903	3.4
495.252	3.4
495.601	3.41
495.95	3.41
496.299	3.41
496.648	3.4
496.997	3.39
497.346	3.39
497.695	3.4
498.043	3.43
498.392	3.4
498.741	3.43
499.09	3.44
499.438	3.46
499.787	3.46
500.135	3.47
500.484	3.47
500.832	3.47
501.181	3.45
501.529	3.45
501.878	3.45
502.226	3.48
502.574	3.49
502.923	3.49
503.271	3.49
503.619	3.5
503.967	3.51
504.315	3.5
504.663	3.5
505.011	3.51
505.359	3.51
505.707	3.53
506.055	3.51
506.403	3.52
506.751	3.49
507.098	3.5
507.446	3.5
507.794	3.5
508.141	3.49
508.489	3.5
508.837	3.5
509.184	3.5
509.531	3.49
509.879	3.5
510.226	3.49
510.574	3.47
510.921	3.48
511.268	3.48
511.616	3.51
511.963	3.51
512.31	3.5
512.657	3.51
513.004	3.49
513.351	3.53
513.698	3.53
514.045	3.54
514.392	3.52
514.739	3.53
515.086	3.55
515.432	3.55
515.779	3.54
516.126	3.55
516.473	3.56
516.819	3.57
517.166	3.56
517.512	3.59
517.859	3.63
518.205	3.62
518.552	3.62
518.898	3.61
519.245	3.61
519.591	3.61
519.937	3.59
520.283	3.58
520.629	3.55
520.976	3.56
521.322	3.57
521.668	3.57
522.014	3.58
522.36	3.58
522.706	3.58
523.052	3.59
523.398	3.61
523.743	3.61
524.089	3.61
524.435	3.59
524.781	3.59
525.126	3.59
525.472	3.59
525.817	3.59
526.163	3.59
526.509	3.6
526.854	3.62
527.199	3.63
527.545	3.64
527.89	3.64
528.235	3.64
528.581	3.64
528.926	3.65
529.271	3.65
529.616	3.66
529.961	3.66
530.306	3.66
530.651	3.65
530.996	3.66
531.341	3.65
531.686	3.66
532.031	3.66
532.376	3.66
532.721	3.66
533.065	3.66
533.41	3.67
533.755	3.67
534.099	3.66
534.444	3.66
534.788	3.65
535.133	3.64
535.477	3.64
535.822	3.62
536.166	3.61
536.51	3.59
536.855	3.58
537.199	3.58
537.543	3.58
537.887	3.6
538.231	3.59
538.576	3.58
538.92	3.58
539.264	3.58
539.608	3.58
539.951	3.59
540.295	3.59
540.639	3.61
540.983	3.59
541.327	3.59
541.671	3.59
542.014	3.6
542.358	3.62
542.701	3.63
543.045	3.66
543.389	3.66
543.732	3.68
544.075	3.67
544.419	3.66
544.762	3.67
545.105	3.66
545.449	3.65
545.792	3.68
546.135	3.66
546.478	3.66
546.821	3.65
547.165	3.64
547.508	3.67
547.851	3.64
548.194	3.64
548.536	3.64
548.879	3.64
549.222	3.63
549.565	3.62
549.908	3.59
550.25	3.57
550.593	3.53
550.936	3.49
551.278	3.5
551.621	3.51
551.963	3.5
552.306	3.5
552.648	3.52
552.991	3.53
553.333	3.54
553.675	3.55
554.017	3.56
554.36	3.56
554.702	3.55
555.044	3.54
555.386	3.55
555.728	3.55
556.07	3.57
556.412	3.55
556.754	3.56
557.096	3.55
557.438	3.54
557.78	3.58
558.121	3.63
558.463	3.63
558.805	3.63
559.147	3.61
559.488	3.62
559.83	3.63
560.171	3.6
560.513	3.61
560.854	3.61
561.196	3.57
561.537	3.62
561.878	3.6
562.22	3.6
562.561	3.6
562.902	3.6
563.243	3.58
563.584	3.61
563.925	3.63
564.266	3.63
564.607	3.65
564.948	3.65
565.289	3.63
565.63	3.62
565.971	3.58
566.312	3.62
566.653	3.61
566.993	3.57
567.334	3.56
567.675	3.56
568.015	3.56
568.356	3.56
568.696	3.57
569.037	3.61
569.377	3.59
569.718	3.59
570.058	3.58
570.398	3.59
570.739	3.57
571.079	3.57
571.419	3.58
571.759	3.59
572.099	3.59
572.439	3.6
572.779	3.64
573.119	3.67
573.459	3.65
573.799	3.67
574.139	3.69
574.479	3.68
574.819	3.69
575.158	3.66
575.498	3.68
575.838	3.64
576.177	3.58
576.517	3.6
576.856	3.59
577.196	3.59
577.535	3.58
577.875	3.59
578.214	3.56
578.553	3.58
578.893	3.57
579.232	3.54
579.571	3.54
579.91	3.52
580.25	3.49
580.589	3.5
580.928	3.52
581.267	3.52
581.606	3.53
581.945	3.51
582.283	3.53
582.622	3.51
582.961	3.52
583.3	3.54
583.639	3.56
583.977	3.56
584.316	3.56
584.654	3.56
584.993	3.57
585.332	3.59
585.67	3.59
586.008	3.59
586.347	3.61
586.685	3.56
587.024	3.54
587.362	3.55
587.7	3.54
588.038	3.55
588.376	3.56
588.715	3.61
589.053	3.63
589.391	3.65
589.729	3.67
590.067	3.64
590.404	3.66
590.742	3.64
591.08	3.66
591.418	3.72
591.756	3.72
592.093	3.7
592.431	3.7
592.769	3.7
593.106	3.67
593.444	3.67
593.781	3.68
594.119	3.71
594.456	3.7
594.793	3.7
595.131	3.67
595.468	3.68
595.805	3.66
596.143	3.67
596.48	3.65
596.817	3.68
597.154	3.73
597.491	3.72
597.828	3.69
598.165	3.67
598.502	3.64
598.839	3.62
599.176	3.61
599.512	3.62
599.849	3.64
600.186	3.67
600.523	3.71
600.859	3.77
601.196	3.75
601.532	3.77
601.869	3.76
602.205	3.75
602.542	3.75
602.878	3.73
603.215	3.78
603.551	3.78
603.887	3.73
604.223	3.71
604.56	3.72
604.896	3.75
605.232	3.76
605.568	3.74
605.904	3.76
606.24	3.78
606.576	3.77
606.912	3.75
607.248	3.73
607.583	3.67
607.919	3.63
608.255	3.63
608.591	3.66
608.926	3.66
609.262	3.69
609.597	3.68
609.933	3.69
610.268	3.62
610.604	3.64
610.939	3.69
611.275	3.66
611.61	3.64
611.945	3.63
612.281	3.66
612.616	3.66
612.951	3.64
613.286	3.67
613.621	3.68
613.956	3.67
614.291	3.67
614.626	3.69
614.961	3.7
615.296	3.7
615.631	3.64
615.966	3.65
616.3	3.61
616.635	3.55
616.97	3.52
617.304	3.53
617.639	3.52
617.973	3.48
618.308	3.52
618.642	3.53
618.977	3.49
619.311	3.46
619.646	3.52
619.98	3.51
620.314	3.5
620.648	3.45
620.983	3.46
621.317	3.5
621.651	3.47
621.985	3.47
622.319	3.49
622.653	3.52
622.987	3.54
623.321	3.55
623.655	3.63
623.988	3.68
624.322	3.68
624.656	3.67
624.99	3.66
625.323	3.66
625.657	3.69
625.99	3.75
626.324	3.75
626.657	3.71
626.991	3.73
627.324	3.72
627.658	3.75
627.991	3.77
628.324	3.81
628.657	3.83
628.991	3.85
629.324	3.83
629.657	3.88
629.99	3.87
630.323	3.86
630.656	3.86
630.989	3.87
631.322	3.88
631.655	3.85
631.987	3.86
632.32	3.86
632.653	3.85
632.986	3.82
633.318	3.85
633.651	3.88
633.984	3.91
634.316	3.89
634.649	3.86
634.981	3.85
635.313	3.8
635.646	3.81
635.978	3.77
636.31	3.75
636.643	3.7
636.975	3.7
637.307	3.68
637.639	3.64
637.971	3.6
638.303	3.58
638.635	3.59
638.967	3.62
639.299	3.65
639.631	3.65
639.963	3.65
640.295	3.69
640.626	3.67
640.958	3.66
641.29	3.62
641.621	3.61
641.953	3.61
642.285	3.61
642.616	3.67
642.948	3.72
643.279	3.76
643.61	3.82
643.942	3.82
644.273	3.85
644.604	3.84
644.936	3.78
645.267	3.79
645.598	3.84
645.929	3.87
646.26	3.79
646.591	3.75
646.922	3.71
647.253	3.63
647.584	3.65
647.915	3.61
648.245	3.63
648.576	3.63
648.907	3.66
649.238	3.62
649.568	3.59
649.899	3.53
650.229	3.53
650.56	3.44
650.89	3.43
651.221	3.44
651.551	3.41
651.882	3.42
652.212	3.45
652.542	3.44
652.872	3.39
653.203	3.38
653.533	3.44
653.863	3.45
654.193	3.46
654.523	3.47
654.853	3.52
655.183	3.59
655.513	3.59
655.843	3.57
656.172	3.63
656.502	3.63
656.832	3.74
657.162	3.78
657.491	3.79
657.821	3.79
658.15	3.74
658.48	3.78
658.809	3.86
659.139	3.78
659.468	3.77
659.798	3.8
660.127	3.88
660.456	3.87
660.785	3.9
661.115	3.85
661.444	3.85
661.773	3.91
662.102	3.85
662.431	3.87
662.76	3.88
663.089	3.85
663.418	3.8
663.747	3.71
664.076	3.68
664.404	3.7
664.733	3.71
665.062	3.75
665.39	3.78
665.719	3.73
666.048	3.76
666.376	3.69
666.705	3.67
667.033	3.68
667.362	3.67
667.69	3.68
668.018	3.74
668.347	3.75
668.675	3.71
669.003	3.76
669.331	3.8
669.659	3.81
669.987	3.81
670.315	3.85
670.643	3.88
670.971	3.87
671.299	3.87
671.627	3.82
671.955	3.8
672.283	3.7
672.61	3.72
672.938	3.81
673.266	3.85
673.593	3.9
673.921	3.82
674.249	3.79
674.576	3.69
674.904	3.72
675.231	3.71
675.558	3.71
675.886	3.73
676.213	3.78
676.54	3.75
676.867	3.84
677.195	3.85
677.522	3.8
677.849	3.81
678.176	3.86
678.503	3.93
678.83	3.97
679.157	3.96
679.484	3.9
679.81	3.81
680.137	3.81
680.464	3.78
680.791	3.73
681.117	3.75
681.444	3.85
681.771	3.79
682.097	3.77
682.424	3.74
682.75	3.7
683.077	3.63
683.403	3.7
683.729	3.59
684.056	3.65
684.382	3.68
684.708	3.64
685.034	3.64
685.36	3.61
685.686	3.59
686.012	3.68
686.339	3.81
686.664	3.74
686.99	3.78
687.316	3.76
687.642	3.86
687.968	3.96
688.294	3.92
688.619	3.95
688.945	3.98
689.271	3.9
689.596	3.88
689.922	3.93
690.247	3.88
690.573	3.94
690.898	3.89
691.224	3.92
691.549	3.99
691.874	3.89
692.2	3.9
692.525	3.9
692.85	3.95
693.175	3.82
693.5	3.9
693.825	4.02
694.15	4.01
694.475	4.01
694.8	3.91
695.125	3.88
695.45	3.86
695.775	3.88
696.099	3.95
696.424	4.01
696.749	3.87
697.073	3.84
697.398	3.85
697.723	3.86
698.047	3.77
698.372	3.76
698.696	3.88
699.02	3.93
699.345	3.91
699.669	3.89
699.993	3.96
700.318	3.99
700.642	3.89
700.966	3.91
701.29	3.91
701.614	3.92
701.938	4
702.262	4.08
702.586	4.05
702.91	4.06
703.234	4.04
703.557	4.22
703.881	4.18
704.205	4.1
704.529	4.07
704.852	4.05
705.176	4.04
705.499	3.92
705.823	3.85
706.146	3.87
706.47	3.85
706.793	3.85
707.117	3.86
707.44	3.74
707.763	3.78
708.086	3.72
708.409	3.65
708.733	3.56
709.056	3.52
709.379	3.66
709.702	3.64
710.025	3.58
710.348	3.51
710.671	3.55
710.993	3.58
711.316	3.62
711.639	3.77
711.962	3.85
712.284	3.89
712.607	3.93
712.93	3.97
713.252	4
713.575	4.04
713.897	4.1
714.22	4.25
714.542	4.16
714.864	4.24
715.187	4.39
715.509	4.5
715.831	4.51
716.153	4.39
716.475	4.44
716.798	4.44
717.12	4.53
717.442	4.6
717.764	4.65
718.085	4.6
718.407	4.54
718.729	4.41
719.051	4.33
719.373	4.09
719.695	4.02
720.016	3.91
720.338	3.85
720.659	3.79
720.981	3.7
721.302	3.73
721.624	3.65
721.945	3.62
722.267	3.58
722.588	3.67
722.909	3.69
723.231	3.79
723.552	3.95
723.873	3.84
724.194	3.81
724.515	3.92
724.836	3.8
725.157	3.91
725.478	3.73
725.799	3.76
726.12	4.06
726.441	4.09
726.762	4.23
727.083	4.26
727.403	4.3
727.724	4.49
728.045	4.54
728.365	4.57
728.686	4.39
729.006	4.39
729.327	4.22
729.647	4.11
729.967	4.03
730.288	3.84
730.608	3.94
730.928	3.76
731.249	3.62
731.569	3.88
731.889	3.88
732.209	4.04
732.529	4.02
732.849	3.89
733.169	3.82
733.489	3.73
733.809	3.6
734.129	3.54
734.448	3.45
734.768	3.2
735.088	3.31
735.408	3.51
735.727	3.48
736.047	3.6
736.366	3.59
736.686	3.62
737.005	3.71
737.325	3.6
737.644	3.73
737.963	3.71
738.283	3.36
738.602	3.33
738.921	3.21
739.24	3.32
739.56	3.22
739.879	3.24
740.198	3.31
740.517	3.48
740.836	3.53
741.155	3.39
741.473	3.7
741.792	3.74
742.111	3.74
742.43	3.7
742.748	3.56
743.067	3.67
743.386	3.73
743.704	3.63
744.023	3.64
744.341	3.68
744.66	3.76
744.978	3.92
745.297	3.96
745.615	4.05
745.933	3.95
746.252	3.99
746.57	4.08
746.888	4.14
747.206	3.85
747.524	3.73
747.842	3.85
748.16	3.95
748.478	3.76
748.796	3.74
749.114	3.87
749.432	3.66
749.749	3.74
750.067	3.71
750.385	3.71
750.703	3.71
751.02	3.71
751.338	3.56
751.655	3.5
751.973	3.4
752.29	3.44
752.608	3.37
752.925	3.56
753.242	3.51
753.56	3.42
753.877	3.73
754.194	3.82
754.511	4.01
754.828	3.9
755.145	3.78
755.462	3.66
755.779	3.72
756.096	4
756.413	3.93
756.73	3.9
757.047	3.97
757.364	3.87
757.68	3.75
757.997	4.04
758.314	4.21
758.63	4.15
758.947	4.13
759.264	4.23
759.58	3.79
759.896	3.66
760.213	3.57
760.529	3.72
760.846	3.7
761.162	3.5
761.478	3.43
761.794	3.54
762.11	3.54
762.426	3.69
762.743	3.65
763.059	3.57
763.375	3.56
763.69	3.73
764.006	3.97
764.322	4.06
764.638	4.08
764.954	4.27
765.27	4.29
765.585	4.36
765.901	4.25
766.216	4.66
766.532	4.71
766.848	4.64
767.163	4.51
767.478	4.48
767.794	4.48
768.109	4.35
768.424	4.26
768.74	4.35
769.055	4.21
769.37	4.4
769.685	4.3
770	4.12
770.315	4.08
770.63	3.89
770.945	3.97
771.26	3.73
771.575	3.41
771.89	3.55
772.205	3.84
772.52	4
772.834	3.81
773.149	3.82
773.464	4.16
773.778	4.19
774.093	4.09
774.407	4.16
774.722	4.34
775.036	4.45
775.351	4.45
775.665	3.81
775.979	3.59
776.293	3.66
776.608	3.95
776.922	3.84
777.236	4.12
777.55	3.57
777.864	3.56
778.178	3.48
778.492	3.45
778.806	3.13
779.12	3.22
779.434	2.99
779.747	2.83
780.061	2.84
780.375	2.71
780.689	2.89
781.002	2.87
781.316	2.95
781.629	3.07
781.943	3.04
782.256	3.37
782.57	3.41
782.883	2.95
783.196	2.64
783.51	2.22
783.823	1.67
784.136	2.04
784.449	2.26
784.762	2.62
785.075	2.69
785.388	2.4
785.701	2.68
786.014	3.18
786.327	3.62
786.64	4.04
786.953	4.24
787.266	4.14
787.578	4.1
787.891	4.05
788.204	3.84
788.516	3.96
788.829	3.97
789.141	3.86
789.454	4.48
789.766	4.59
790.079	5.15
790.391	5.27
790.703	5.82
791.016	5.65
791.328	5.1
791.64	4.76
791.952	4.82
792.264	3.99
792.576	3.75
792.888	3.76
793.2	3.32
793.512	2.78
793.824	3.03
794.136	2.72
794.448	2.93
794.76	3
795.071	2.53
795.383	2.48
795.695	2.34
796.006	2.43
796.318	2.52
796.629	2.41
796.941	2.41
797.252	2.06
797.564	2.3
797.875	2.81
798.186	3.07
798.497	3.23
798.809	3.35
799.12	3.36
799.431	3.27
799.742	3.01
800.053	3.6
800.364	3.68
800.675	3.92
800.986	3.06
801.297	2.64
801.608	2.61
801.918	2.92
802.229	2.96
802.54	2.92
802.851	2.96
803.161	2.85
803.472	3.04
803.782	2.46
804.093	2.39
804.403	1.94
804.714	1.76
805.024	1.21
805.334	1.76
805.645	2.02
805.955	2.07
806.265	2.08
806.575	1.75
806.885	1.37
807.195	1.41
807.505	2.3
807.815	2.78
808.125	2.87
808.435	2.56
808.745	3.06
809.055	3.59
809.365	3.49
809.674	3.71
809.984	3.65
810.294	3.97
810.603	3.99
810.913	4.69
811.222	5.07
811.532	6.01
811.841	6.2
812.151	6.56
812.46	6.48
812.769	6.35
813.079	6.4
813.388	6.38
813.697	6.59
814.006	6.21
814.315	6.04
814.624	5.89
814.933	6.37
815.242	6.01
815.551	5.6
815.86	5.77
816.169	5.16
816.478	5.07
816.786	4.86
817.095	5.28
817.404	5.44
817.712	5.12
818.021	5.43
818.33	5.17
818.638	5.13
818.947	5.61
819.255	6.14
819.563	6.19
819.872	6.23
820.18	6.08
820.488	6.23
820.796	6.5
821.105	6.62
821.413	6.53
821.721	6.71
822.029	6.54
822.337	6.6
822.645	6.65
822.953	6.61
823.26	6.69
823.568	6.51
823.876	6.37
824.184	6.35
824.491	6.26
824.799	6.21
825.107	6.06
825.414	5.92
825.722	5.8
826.029	5.95
826.337	5.98
826.644	6.12
826.951	5.93
827.259	5.82
827.566	5.83
827.873	5.81
828.18	5.7
828.488	5.85
828.795	5.8
829.102	6.08
829.409	6.01
829.716	6.02
830.023	5.8
830.329	5.65
830.636	5.72
830.943	5.5
831.25	5.79
831.557	5.61
831.863	5.64
832.17	5.45
832.476	5.06
832.783	4.76
833.089	4.28
833.396	4.71
833.702	4.57
834.009	4.56
834.315	4.46
834.621	3.99
834.928	3.56
835.234	3.05
835.54	2.45
835.846	2.26
836.152	2.18
836.458	2.51
836.764	2.38
837.07	2.26
837.376	1.65
837.682	1.38
837.988	1.56
838.293	1.33
838.599	1.6
838.905	1.11
839.211	1.25
839.516	1.67
839.822	1.13
840.127	0.79
840.433	0.59
840.738	0.03
841.044	0.38
841.349	0.91
841.654	1.24
841.959	0.81
842.265	0.45
842.57	0.67
842.875	-0.01
843.18	1.5
843.485	0.77
843.79	2.17
844.095	1.74
844.4	1.62
844.705	0.83
845.01	0.04
845.315	0.12
845.619	-0.69
845.924	-2.11
846.229	-2.31
846.533	-1.96
846.838	-2.89
847.142	-2.91
847.447	-5.4
847.751	-7.06
848.056	-7.81
848.36	-6.29
848.664	-5.37
848.969	-5
849.273	-5.79
849.577	-7.66
849.881	-8.35
850.185	-8.38
850.489	-7.7
850.794	-9.19
851.097	-8.02
851.401	-8.22
851.705	-8.71
852.009	-7.07
852.313	-6
852.617	-7.35
852.92	-5.99
853.224	-7.8
853.528	-8.2
853.831	-7.93
854.135	-5.76
854.438	-6.76
854.742	-7.08
855.045	-7.8
855.349	-9.54
855.652	-8.72
855.955	-9.44
856.259	-7.58
856.562	-7.28
856.865	-8.1
857.168	-6.9
857.471	-7.47
857.774	-7.1
858.077	-5.87
858.38	-5.42
858.683	-7.19
858.986	-3.95
859.289	-4.14
859.592	-1.81
859.894	-0.48
860.197	1.59
860.5	1.46
860.802	1.88
861.105	1.37
861.407	2.14
861.71	2.64
862.012	4.02
862.315	2.87
862.617	2.96
862.919	1.02
863.222	2.41
863.524	2.65
863.826	3.5
864.128	3.15
864.43	2.22
864.732	0.66
865.034	2.11
865.336	-1.56
865.638	-3.86
865.94	-4.81
866.242	-5.78
866.544	-3.25
866.846	-5.82
867.147	-5.77
867.449	-5.81
867.751	-5.94
868.052	-6.14
868.354	-9.74
868.655	-8.54
868.957	-9.02
869.258	-9.22
869.56	-12.81
869.861	-14.12
870.162	-15.96
870.463	-15.44
870.765	-15.49
871.066	-13.81
871.367	-14.89
871.668	-15.07
871.969	-16.09
872.27	-14.14
872.571	-13.71
872.872	-14.24
873.173	-13.56
873.473	-13.38
873.774	-12.55
874.075	-12.35
874.376	-13.77
874.676	-9.54
874.977	-9.71
875.277	-10.14
875.578	-8.43
875.878	-7.01
876.179	-5.6
876.479	-4.36
876.78	-4.43
877.08	-3.36
877.38	-5.61
877.68	-4.1
877.981	-1.59
878.281	0.02
878.581	-1.94
