Data from BU58002_Reflection_00004.txt Node
Date: Tue Nov 19 10:57:38 EST 2019
User: vgr7
Spectrometer: USB2G7710
Scans to average: 3
Trigger mode: 4
Integration Time (sec): 2.000000E-2
Electric dark correction enabled: true
Boxcar width: 10
XAxis mode: Wavelengths
Number of Pixels in Spectrum: 2048
>>>>>Begin Spectral Data<<<<<
177.721	57.44
178.105	6.25
178.488	31.14
178.871	11.36
179.254	25
179.636	7.01
180.019	35.93
180.402	-50
180.785	-21.88
181.168	452.94
181.55	6.25
181.933	48.2
182.316	72.84
182.698	28.15
183.081	17.12
183.463	49.8
183.846	83.91
184.228	-4.51
184.611	-178.09
184.993	-261.36
185.376	-127.38
185.758	-1581.03
186.14	382.69
186.522	589.41
186.904	-1415
187.287	-1735.53
187.669	779.41
188.051	359.22
188.433	-1187.74
188.815	2216.07
189.197	493.88
189.579	256.76
189.961	138.91
190.342	95.24
190.724	68.79
191.106	89.4
191.488	94.62
191.869	103.16
192.251	131.48
192.633	81.17
193.014	63.87
193.396	58.25
193.777	62.67
194.159	49.89
194.54	52.46
194.922	33.05
195.303	34.24
195.684	25.32
196.065	24.14
196.447	39.13
196.828	39.71
197.209	46.58
197.59	50.31
197.971	44.86
198.352	44.72
198.733	49.9
199.114	39.64
199.495	45.21
199.876	67.54
200.257	41.28
200.638	60.53
201.018	66.65
201.399	52.8
201.78	61.63
202.16	78.69
202.541	60.85
202.922	66.65
203.302	64.12
203.683	85.53
204.063	76.78
204.444	84.15
204.824	80.3
205.204	82.93
205.585	83.44
205.965	94.49
206.345	99.14
206.725	117.84
207.106	99.29
207.486	88.77
207.866	74.84
208.246	78.52
208.626	85.06
209.006	67.67
209.386	77.4
209.766	61.01
210.145	50.73
210.525	45.19
210.905	55.21
211.285	64.93
211.664	53.48
212.044	57.98
212.424	49.7
212.803	47.57
213.183	43.43
213.562	32.17
213.942	25.32
214.321	18.65
214.701	1.65
215.08	1.13
215.459	17.44
215.838	17.12
216.218	13.25
216.597	14.69
216.976	22.22
217.355	22.03
217.734	34.11
218.113	30.32
218.492	47.98
218.871	33.25
219.25	21.9
219.629	30.05
220.008	15.6
220.387	13.11
220.766	29.74
221.144	18.28
221.523	25.34
221.902	35.38
222.28	48.55
222.659	59.8
223.037	49.74
223.416	37.66
223.794	30.21
224.173	26.15
224.551	19.3
224.929	17.22
225.308	17.14
225.686	11.91
226.064	7.84
226.442	5.93
226.821	8.28
227.199	8.69
227.577	8.27
227.955	10.89
228.333	9.6
228.711	10.42
229.089	11.89
229.467	13.37
229.845	10.46
230.222	9.16
230.6	5.71
230.978	6.59
231.356	6.42
231.733	6.67
232.111	7.17
232.488	8.11
232.866	9.2
233.243	6.72
233.621	9.33
233.998	9.79
234.376	10.77
234.753	8.45
235.13	8.73
235.508	8.75
235.885	7.69
236.262	6.73
236.639	5.62
237.016	6.14
237.393	5.66
237.77	6.85
238.147	7.16
238.524	7.17
238.901	7.08
239.278	7.23
239.655	6.92
240.032	6.34
240.409	6.06
240.785	5.2
241.162	5.13
241.539	5.01
241.915	5.36
242.292	5.51
242.668	5.95
243.045	6.2
243.421	5.87
243.798	5.95
244.174	5.94
244.551	5.87
244.927	5.75
245.303	5.67
245.679	5.62
246.056	5.47
246.432	5.61
246.808	5.89
247.184	5.73
247.56	5.79
247.936	5.8
248.312	5.77
248.688	5.95
249.064	6.21
249.44	6.1
249.815	5.85
250.191	5.75
250.567	5.63
250.943	5.37
251.318	5.26
251.694	4.99
252.069	5.02
252.445	5.04
252.82	5.28
253.196	5.33
253.571	5.24
253.947	5.31
254.322	5.31
254.697	4.98
255.073	5.11
255.448	5.09
255.823	5.19
256.198	5.19
256.573	5.33
256.948	5.14
257.323	5.3
257.698	5.28
258.073	5.12
258.448	5.17
258.823	5.06
259.198	5.08
259.573	5
259.948	5.05
260.322	5.01
260.697	4.78
261.072	4.77
261.446	4.76
261.821	4.7
262.195	4.69
262.57	4.81
262.944	4.73
263.319	4.76
263.693	4.76
264.067	4.94
264.442	4.72
264.816	4.66
265.19	4.5
265.564	4.68
265.938	4.68
266.313	4.68
266.687	4.83
267.061	5.04
267.435	5.15
267.809	5.07
268.183	5.14
268.556	5.21
268.93	5.28
269.304	5.32
269.678	5.42
270.051	5.22
270.425	5.2
270.799	5.13
271.172	5.13
271.546	5.13
271.919	4.89
272.293	5.07
272.666	5.18
273.04	5.32
273.413	5.28
273.787	5.37
274.16	5.24
274.533	5.32
274.906	5.28
275.279	5.5
275.653	5.73
276.026	6.03
276.399	6.07
276.772	6.17
277.145	6.2
277.518	6.07
277.891	6.17
278.263	6.09
278.636	6.3
279.009	6.34
279.382	6.25
279.755	6.29
280.127	6.21
280.5	6.27
280.872	6.09
281.245	6.17
281.617	6.13
281.99	6.21
282.362	5.98
282.735	5.96
283.107	5.74
283.479	5.51
283.852	5.38
284.224	5.32
284.596	5.25
284.968	5.34
285.34	5.29
285.713	5.42
286.085	5.36
286.457	5.24
286.829	5.17
287.201	5.2
287.572	5.27
287.944	5.27
288.316	5.34
288.688	5.52
289.06	5.5
289.431	5.48
289.803	5.53
290.175	5.56
290.546	5.54
290.918	5.61
291.289	5.6
291.661	5.51
292.032	5.6
292.403	5.55
292.775	5.51
293.146	5.59
293.517	5.51
293.889	5.58
294.26	5.63
294.631	5.74
295.002	5.94
295.373	5.84
295.744	5.87
296.115	5.89
296.486	5.85
296.857	5.87
297.228	5.88
297.599	5.82
297.97	6.06
298.34	6.11
298.711	6.18
299.082	6.3
299.452	6.27
299.823	6.22
300.194	6.32
300.564	6.31
300.935	6.36
301.305	6.39
301.676	6.39
302.046	6.46
302.416	6.4
302.787	6.29
303.157	6.43
303.527	6.52
303.897	6.39
304.267	6.33
304.637	6.31
305.008	6.38
305.378	6.42
305.748	6.29
306.117	6.31
306.487	6.3
306.857	6.28
307.227	6.4
307.597	6.43
307.967	6.35
308.336	6.36
308.706	6.42
309.076	6.52
309.445	6.61
309.815	6.63
310.184	6.56
310.554	6.56
310.923	6.51
311.293	6.52
311.662	6.59
312.031	6.58
312.401	6.52
312.77	6.47
313.139	6.52
313.508	6.52
313.877	6.42
314.246	6.32
314.616	6.53
314.985	6.35
315.353	6.42
315.722	6.41
316.091	6.35
316.46	6.36
316.829	6.06
317.198	5.99
317.567	6.07
317.935	6.12
318.304	6.12
318.672	6.12
319.041	6.17
319.41	6.09
319.778	6.2
320.147	6.19
320.515	6.35
320.883	6.41
321.252	6.51
321.62	6.54
321.988	6.64
322.357	6.32
322.725	6.58
323.093	6.35
323.461	6.36
323.829	6.37
324.197	6.4
324.565	6.69
324.933	6.6
325.301	6.38
325.669	6.47
326.037	6.49
326.405	6.46
326.772	6.49
327.14	6.48
327.508	6.4
327.875	6.48
328.243	6.38
328.61	6.35
328.978	6.27
329.346	6.31
329.713	6.38
330.08	6.46
330.448	6.32
330.815	6.39
331.182	6.28
331.55	6.39
331.917	6.29
332.284	6.24
332.651	6.25
333.018	6.39
333.385	6.41
333.752	6.42
334.119	6.6
334.486	6.51
334.853	6.45
335.22	6.41
335.587	6.33
335.954	6.3
336.32	6.19
336.687	6.17
337.054	6.07
337.42	6.01
337.787	6.05
338.153	6.13
338.52	6.16
338.886	6.35
339.253	6.11
339.619	6.29
339.986	6.14
340.352	6.27
340.718	6.22
341.084	6.14
341.451	6.09
341.817	6.06
342.183	6.13
342.549	6.21
342.915	6.33
343.281	6.47
343.647	6.48
344.013	6.46
344.379	6.43
344.745	6.46
345.11	6.42
345.476	6.44
345.842	6.38
346.208	6.44
346.573	6.37
346.939	6.48
347.304	6.27
347.67	6.38
348.035	6.36
348.401	6.31
348.766	6.24
349.132	6.23
349.497	6.23
349.862	6.2
350.228	6.11
350.593	6.09
350.958	6.01
351.323	6.05
351.688	6.09
352.053	6.08
352.418	6.12
352.783	6.18
353.148	6.08
353.513	6.06
353.878	6
354.243	5.95
354.608	5.94
354.972	5.97
355.337	5.98
355.702	5.98
356.066	6.05
356.431	6.14
356.795	6.11
357.16	6
357.524	5.99
357.889	6.06
358.253	5.99
358.618	5.94
358.982	5.95
359.346	5.98
359.71	5.99
360.075	5.99
360.439	5.99
360.803	6.05
361.167	6.06
361.531	6.07
361.895	6.11
362.259	6.2
362.623	6.23
362.987	6.15
363.351	6.13
363.714	6.18
364.078	6.21
364.442	6.23
364.806	6.29
365.169	6.25
365.533	6.21
365.896	6.27
366.26	6.29
366.623	6.25
366.987	6.24
367.35	6.28
367.714	6.32
368.077	6.32
368.44	6.27
368.803	6.19
369.167	6.18
369.53	6.15
369.893	6.1
370.256	6.01
370.619	5.99
370.982	5.97
371.345	5.93
371.708	5.86
372.071	5.84
372.434	5.76
372.797	5.79
373.159	5.82
373.522	5.77
373.885	5.79
374.247	5.77
374.61	5.73
374.973	5.73
375.335	5.71
375.698	5.68
376.06	5.71
376.423	5.79
376.785	5.83
377.147	5.83
377.51	5.82
377.872	5.86
378.234	5.92
378.596	5.91
378.958	5.88
379.321	5.91
379.683	5.91
380.045	5.96
380.407	5.93
380.769	5.93
381.13	5.94
381.492	5.95
381.854	5.95
382.216	5.97
382.578	5.96
382.939	5.95
383.301	5.92
383.663	5.9
384.024	5.88
384.386	5.86
384.747	5.85
385.109	5.84
385.47	5.83
385.832	5.79
386.193	5.81
386.554	5.79
386.916	5.77
387.277	5.75
387.638	5.68
387.999	5.68
388.36	5.62
388.721	5.6
389.082	5.61
389.443	5.65
389.804	5.65
390.165	5.61
390.526	5.62
390.887	5.62
391.248	5.62
391.609	5.6
391.969	5.58
392.33	5.54
392.691	5.54
393.051	5.54
393.412	5.57
393.772	5.56
394.133	5.55
394.493	5.55
394.854	5.55
395.214	5.62
395.574	5.6
395.935	5.63
396.295	5.64
396.655	5.59
397.015	5.56
397.376	5.52
397.736	5.52
398.096	5.46
398.456	5.45
398.816	5.42
399.176	5.37
399.535	5.38
399.895	5.41
400.255	5.39
400.615	5.4
400.975	5.36
401.334	5.37
401.694	5.39
402.054	5.38
402.413	5.39
402.773	5.35
403.132	5.35
403.492	5.34
403.851	5.36
404.211	5.36
404.57	5.36
404.929	5.39
405.288	5.4
405.648	5.41
406.007	5.42
406.366	5.44
406.725	5.46
407.084	5.49
407.443	5.49
407.802	5.46
408.161	5.45
408.52	5.46
408.879	5.45
409.238	5.41
409.596	5.42
409.955	5.4
410.314	5.38
410.673	5.37
411.031	5.38
411.39	5.34
411.748	5.36
412.107	5.35
412.465	5.31
412.824	5.27
413.182	5.29
413.54	5.27
413.899	5.23
414.257	5.23
414.615	5.2
414.974	5.18
415.332	5.22
415.69	5.2
416.048	5.19
416.406	5.16
416.764	5.18
417.122	5.17
417.48	5.18
417.838	5.17
418.195	5.15
418.553	5.12
418.911	5.13
419.269	5.12
419.626	5.1
419.984	5.1
420.342	5.09
420.699	5.05
421.057	5.05
421.414	5.06
421.772	5.06
422.129	5.05
422.486	5.05
422.844	5.03
423.201	5.03
423.558	5.03
423.915	5.04
424.273	5.04
424.63	5.02
424.987	5
425.344	5.01
425.701	5.01
426.058	5.02
426.415	5.01
426.772	4.99
427.128	4.99
427.485	4.99
427.842	4.99
428.199	5.02
428.555	5.02
428.912	5.02
429.269	5
429.625	4.99
429.982	4.97
430.338	4.98
430.695	4.96
431.051	4.96
431.407	4.93
431.764	4.92
432.12	4.94
432.476	4.95
432.832	4.96
433.189	4.94
433.545	4.92
433.901	4.92
434.257	4.91
434.613	4.9
434.969	4.9
435.325	4.91
435.681	4.88
436.036	4.85
436.392	4.86
436.748	4.86
437.104	4.87
437.459	4.85
437.815	4.84
438.171	4.88
438.526	4.87
438.882	4.86
439.237	4.85
439.593	4.85
439.948	4.84
440.304	4.84
440.659	4.86
441.014	4.86
441.369	4.85
441.725	4.86
442.08	4.88
442.435	4.89
442.79	4.88
443.145	4.89
443.5	4.9
443.855	4.88
444.21	4.89
444.565	4.89
444.92	4.9
445.275	4.9
445.629	4.88
445.984	4.88
446.339	4.91
446.693	4.92
447.048	4.89
447.403	4.87
447.757	4.85
448.112	4.83
448.466	4.83
448.82	4.85
449.175	4.83
449.529	4.82
449.883	4.8
450.238	4.81
450.592	4.8
450.946	4.78
451.3	4.79
451.654	4.78
452.008	4.77
452.362	4.77
452.716	4.77
453.07	4.77
453.424	4.76
453.778	4.73
454.132	4.73
454.486	4.74
454.839	4.76
455.193	4.77
455.547	4.78
455.9	4.78
456.254	4.76
456.607	4.77
456.961	4.77
457.314	4.78
457.668	4.77
458.021	4.77
458.375	4.77
458.728	4.75
459.081	4.74
459.434	4.73
459.787	4.74
460.141	4.73
460.494	4.73
460.847	4.74
461.2	4.73
461.553	4.73
461.906	4.73
462.259	4.73
462.611	4.72
462.964	4.73
463.317	4.74
463.67	4.73
464.022	4.73
464.375	4.73
464.728	4.72
465.08	4.72
465.433	4.74
465.785	4.77
466.138	4.81
466.49	4.82
466.843	4.83
467.195	4.81
467.547	4.81
467.899	4.82
468.252	4.82
468.604	4.83
468.956	4.82
469.308	4.81
469.66	4.81
470.012	4.82
470.364	4.84
470.716	4.85
471.068	4.87
471.42	4.87
471.772	4.86
472.123	4.87
472.475	4.87
472.827	4.85
473.178	4.83
473.53	4.82
473.882	4.82
474.233	4.85
474.585	4.86
474.936	4.87
475.288	4.86
475.639	4.86
475.99	4.87
476.342	4.89
476.693	4.91
477.044	4.9
477.395	4.88
477.746	4.87
478.097	4.88
478.448	4.88
478.8	4.89
479.15	4.88
479.501	4.9
479.852	4.9
480.203	4.92
480.554	4.93
480.905	4.93
481.255	4.94
481.606	4.92
481.957	4.94
482.307	4.95
482.658	4.96
483.009	4.96
483.359	4.95
483.709	4.96
484.06	4.97
484.41	4.97
484.761	4.98
485.111	4.97
485.461	4.97
485.811	4.97
486.162	4.97
486.512	4.99
486.862	4.98
487.212	4.98
487.562	4.97
487.912	4.97
488.262	4.98
488.612	4.98
488.961	4.98
489.311	4.96
489.661	4.96
490.011	4.95
490.36	4.94
490.71	4.95
491.06	4.94
491.409	4.92
491.759	4.92
492.108	4.91
492.458	4.91
492.807	4.91
493.157	4.93
493.506	4.92
493.855	4.91
494.204	4.92
494.554	4.94
494.903	4.94
495.252	4.93
495.601	4.94
495.95	4.95
496.299	4.96
496.648	4.97
496.997	4.98
497.346	5
497.695	5.02
498.043	5.02
498.392	5.06
498.741	5.08
499.09	5.09
499.438	5.12
499.787	5.15
500.135	5.15
500.484	5.13
500.832	5.15
501.181	5.16
501.529	5.17
501.878	5.18
502.226	5.2
502.574	5.19
502.923	5.19
503.271	5.17
503.619	5.2
503.967	5.21
504.315	5.2
504.663	5.19
505.011	5.22
505.359	5.23
505.707	5.22
506.055	5.24
506.403	5.22
506.751	5.23
507.098	5.26
507.446	5.29
507.794	5.31
508.141	5.32
508.489	5.34
508.837	5.34
509.184	5.36
509.531	5.38
509.879	5.41
510.226	5.43
510.574	5.46
510.921	5.47
511.268	5.49
511.616	5.51
511.963	5.52
512.31	5.52
512.657	5.54
513.004	5.53
513.351	5.54
513.698	5.56
514.045	5.56
514.392	5.56
514.739	5.55
515.086	5.57
515.432	5.59
515.779	5.6
516.126	5.63
516.473	5.62
516.819	5.64
517.166	5.65
517.512	5.66
517.859	5.65
518.205	5.65
518.552	5.65
518.898	5.66
519.245	5.68
519.591	5.66
519.937	5.67
520.283	5.69
520.629	5.69
520.976	5.71
521.322	5.73
521.668	5.74
522.014	5.75
522.36	5.75
522.706	5.76
523.052	5.77
523.398	5.76
523.743	5.78
524.089	5.8
524.435	5.82
524.781	5.83
525.126	5.85
525.472	5.88
525.817	5.89
526.163	5.9
526.509	5.91
526.854	5.93
527.199	5.95
527.545	5.95
527.89	5.96
528.235	5.95
528.581	5.94
528.926	5.95
529.271	5.96
529.616	5.97
529.961	5.97
530.306	5.99
530.651	5.99
530.996	6
531.341	6.01
531.686	6.01
532.031	6.02
532.376	6.02
532.721	6.01
533.065	6.02
533.41	6.02
533.755	6.01
534.099	6.02
534.444	6.01
534.788	6.01
535.133	6.02
535.477	6.04
535.822	6.06
536.166	6.06
536.51	6.05
536.855	6.05
537.199	6.04
537.543	6.03
537.887	6.06
538.231	6.06
538.576	6.06
538.92	6.06
539.264	6.07
539.608	6.08
539.951	6.09
540.295	6.08
540.639	6.08
540.983	6.09
541.327	6.09
541.671	6.1
542.014	6.11
542.358	6.11
542.701	6.11
543.045	6.11
543.389	6.13
543.732	6.13
544.075	6.13
544.419	6.15
544.762	6.15
545.105	6.16
545.449	6.17
545.792	6.18
546.135	6.16
546.478	6.16
546.821	6.14
547.165	6.16
547.508	6.16
547.851	6.16
548.194	6.14
548.536	6.14
548.879	6.13
549.222	6.14
549.565	6.13
549.908	6.12
550.25	6.12
550.593	6.13
550.936	6.14
551.278	6.16
551.621	6.12
551.963	6.14
552.306	6.13
552.648	6.12
552.991	6.12
553.333	6.14
553.675	6.16
554.017	6.17
554.36	6.18
554.702	6.19
555.044	6.21
555.386	6.25
555.728	6.26
556.07	6.28
556.412	6.26
556.754	6.27
557.096	6.28
557.438	6.29
557.78	6.25
558.121	6.23
558.463	6.21
558.805	6.25
559.147	6.25
559.488	6.22
559.83	6.19
560.171	6.19
560.513	6.17
560.854	6.15
561.196	6.17
561.537	6.21
561.878	6.21
562.22	6.22
562.561	6.21
562.902	6.17
563.243	6.15
563.584	6.15
563.925	6.18
564.266	6.18
564.607	6.19
564.948	6.18
565.289	6.22
565.63	6.26
565.971	6.24
566.312	6.21
566.653	6.23
566.993	6.23
567.334	6.22
567.675	6.21
568.015	6.19
568.356	6.15
568.696	6.13
569.037	6.11
569.377	6.12
569.718	6.14
570.058	6.17
570.398	6.18
570.739	6.22
571.079	6.2
571.419	6.19
571.759	6.2
572.099	6.2
572.439	6.18
572.779	6.18
573.119	6.19
573.459	6.19
573.799	6.18
574.139	6.2
574.479	6.24
574.819	6.25
575.158	6.26
575.498	6.28
575.838	6.25
576.177	6.24
576.517	6.22
576.856	6.23
577.196	6.22
577.535	6.24
577.875	6.21
578.214	6.22
578.553	6.25
578.893	6.22
579.232	6.22
579.571	6.25
579.91	6.24
580.25	6.21
580.589	6.25
580.928	6.24
581.267	6.2
581.606	6.17
581.945	6.19
582.283	6.17
582.622	6.18
582.961	6.22
583.3	6.24
583.639	6.25
583.977	6.23
584.316	6.21
584.654	6.19
584.993	6.18
585.332	6.16
585.67	6.14
586.008	6.19
586.347	6.21
586.685	6.21
587.024	6.2
587.362	6.24
587.7	6.24
588.038	6.25
588.376	6.3
588.715	6.29
589.053	6.27
589.391	6.28
589.729	6.3
590.067	6.32
590.404	6.29
590.742	6.29
591.08	6.33
591.418	6.34
591.756	6.37
592.093	6.38
592.431	6.38
592.769	6.36
593.106	6.32
593.444	6.31
593.781	6.3
594.119	6.31
594.456	6.34
594.793	6.32
595.131	6.36
595.468	6.36
595.805	6.37
596.143	6.36
596.48	6.38
596.817	6.39
597.154	6.36
597.491	6.39
597.828	6.38
598.165	6.35
598.502	6.37
598.839	6.32
599.176	6.33
599.512	6.33
599.849	6.36
600.186	6.37
600.523	6.39
600.859	6.39
601.196	6.38
601.532	6.33
601.869	6.35
602.205	6.31
602.542	6.26
602.878	6.26
603.215	6.31
603.551	6.3
603.887	6.29
604.223	6.28
604.56	6.27
604.896	6.3
605.232	6.3
605.568	6.27
605.904	6.3
606.24	6.3
606.576	6.35
606.912	6.29
607.248	6.29
607.583	6.27
607.919	6.28
608.255	6.32
608.591	6.37
608.926	6.39
609.262	6.41
609.597	6.43
609.933	6.45
610.268	6.45
610.604	6.49
610.939	6.49
611.275	6.52
611.61	6.55
611.945	6.52
612.281	6.55
612.616	6.63
612.951	6.64
613.286	6.66
613.621	6.63
613.956	6.68
614.291	6.71
614.626	6.73
614.961	6.72
615.296	6.7
615.631	6.69
615.966	6.69
616.3	6.7
616.635	6.71
616.97	6.76
617.304	6.71
617.639	6.72
617.973	6.7
618.308	6.67
618.642	6.6
618.977	6.65
619.311	6.69
619.646	6.63
619.98	6.67
620.314	6.63
620.648	6.64
620.983	6.62
621.317	6.64
621.651	6.65
621.985	6.7
622.319	6.65
622.653	6.64
622.987	6.61
623.321	6.59
623.655	6.6
623.988	6.54
624.322	6.58
624.656	6.53
624.99	6.56
625.323	6.6
625.657	6.64
625.99	6.61
626.324	6.52
626.657	6.52
626.991	6.48
627.324	6.48
627.658	6.44
627.991	6.47
628.324	6.46
628.657	6.43
628.991	6.37
629.324	6.39
629.657	6.37
629.99	6.4
630.323	6.42
630.656	6.41
630.989	6.41
631.322	6.41
631.655	6.42
631.987	6.38
632.32	6.38
632.653	6.38
632.986	6.34
633.318	6.42
633.651	6.45
633.984	6.45
634.316	6.52
634.649	6.58
634.981	6.59
635.313	6.63
635.646	6.67
635.978	6.72
636.31	6.73
636.643	6.7
636.975	6.68
637.307	6.69
637.639	6.76
637.971	6.73
638.303	6.67
638.635	6.7
638.967	6.73
639.299	6.67
639.631	6.66
639.963	6.76
640.295	6.73
640.626	6.71
640.958	6.69
641.29	6.67
641.621	6.64
641.953	6.57
642.285	6.51
642.616	6.52
642.948	6.54
643.279	6.52
643.61	6.57
643.942	6.59
644.273	6.52
644.604	6.42
644.936	6.42
645.267	6.47
645.598	6.42
645.929	6.44
646.26	6.46
646.591	6.51
646.922	6.39
647.253	6.37
647.584	6.43
647.915	6.46
648.245	6.43
648.576	6.47
648.907	6.55
649.238	6.56
649.568	6.49
649.899	6.41
650.229	6.5
650.56	6.48
650.89	6.47
651.221	6.47
651.551	6.48
651.882	6.53
652.212	6.56
652.542	6.59
652.872	6.57
653.203	6.6
653.533	6.64
653.863	6.71
654.193	6.73
654.523	6.61
654.853	6.63
655.183	6.67
655.513	6.65
655.843	6.6
656.172	6.66
656.502	6.69
656.832	6.72
657.162	6.68
657.491	6.69
657.821	6.7
658.15	6.73
658.48	6.79
658.809	6.76
659.139	6.79
659.468	6.83
659.798	6.85
660.127	6.8
660.456	6.75
660.785	6.72
661.115	6.8
661.444	6.82
661.773	6.81
662.102	6.81
662.431	6.78
662.76	6.84
663.089	6.87
663.418	6.89
663.747	6.92
664.076	6.95
664.404	7.07
664.733	7.06
665.062	7.12
665.39	7.09
665.719	7.1
666.048	6.97
666.376	6.98
666.705	6.92
667.033	6.98
667.362	6.95
667.69	7.02
668.018	6.97
668.347	7.05
668.675	7.04
669.003	7.02
669.331	7.1
669.659	7.04
669.987	6.98
670.315	6.92
670.643	6.89
670.971	6.91
671.299	6.88
671.627	6.95
671.955	6.88
672.283	6.91
672.61	6.91
672.938	7.04
673.266	7
673.593	7.06
673.921	7.05
674.249	7.05
674.576	7.09
674.904	7.14
675.231	7.11
675.558	7.12
675.886	7.13
676.213	7.06
676.54	7.11
676.867	7.1
677.195	7.19
677.522	7.18
677.849	7.15
678.176	7.08
678.503	7.05
678.83	7.07
679.157	7.05
679.484	7.04
679.81	6.99
680.137	7.05
680.464	7.07
680.791	7.1
681.117	7.13
681.444	7.09
681.771	7.05
682.097	7.02
682.424	7.03
682.75	7.08
683.077	7.12
683.403	7.11
683.729	7.06
684.056	7.01
684.382	7.03
684.708	7.01
685.034	6.99
685.36	6.96
685.686	6.98
686.012	6.99
686.339	7.03
686.664	7.09
686.99	6.99
687.316	6.98
687.642	6.95
687.968	6.91
688.294	6.88
688.619	6.86
688.945	6.87
689.271	6.82
689.596	6.83
689.922	6.8
690.247	6.78
690.573	6.83
690.898	6.92
691.224	6.93
691.549	6.99
691.874	6.99
692.2	6.93
692.525	6.96
692.85	6.94
693.175	6.94
693.5	6.78
693.825	6.87
694.15	6.83
694.475	6.84
694.8	6.95
695.125	6.95
695.45	7.04
695.775	7.03
696.099	7.07
696.424	7.03
696.749	7.06
697.073	7.08
697.398	7.12
697.723	7.03
698.047	7
698.372	7
698.696	7.02
699.02	7.11
699.345	7.13
699.669	7.21
699.993	7.26
700.318	7.36
700.642	7.38
700.966	7.48
701.29	7.54
701.614	7.48
701.938	7.47
702.262	7.38
702.586	7.44
702.91	7.5
703.234	7.45
703.557	7.38
703.881	7.4
704.205	7.48
704.529	7.54
704.852	7.54
705.176	7.56
705.499	7.54
705.823	7.53
706.146	7.51
706.47	7.49
706.793	7.5
707.117	7.48
707.44	7.56
707.763	7.53
708.086	7.56
708.409	7.53
708.733	7.47
709.056	7.56
709.379	7.68
709.702	7.71
710.025	7.87
710.348	7.87
710.671	7.92
710.993	7.88
711.316	7.82
711.639	7.9
711.962	7.95
712.284	8.01
712.607	8
712.93	7.92
713.252	7.86
713.575	7.78
713.897	7.75
714.22	7.55
714.542	7.52
714.864	7.43
715.187	7.5
715.509	7.49
715.831	7.35
716.153	7.12
716.475	7.14
716.798	7.06
717.12	7.12
717.442	7.11
717.764	7.07
718.085	7.2
718.407	7.1
718.729	6.95
719.051	6.91
719.373	6.94
719.695	6.98
720.016	6.97
720.338	7.07
720.659	7.12
720.981	7.14
721.302	7.31
721.624	7.36
721.945	7.35
722.267	7.61
722.588	7.59
722.909	7.77
723.231	7.53
723.552	7.54
723.873	7.45
724.194	7.32
724.515	7.29
724.836	7.16
725.157	7.36
725.478	7.52
725.799	7.58
726.12	7.52
726.441	7.62
726.762	7.68
727.083	7.63
727.403	7.72
727.724	7.7
728.045	7.65
728.365	7.64
728.686	7.59
729.006	7.62
729.327	7.85
729.647	7.92
729.967	8.07
730.288	8.06
730.608	8.08
730.928	8.26
731.249	8.43
731.569	8.27
731.889	8.16
732.209	8.02
732.529	8
732.849	7.93
733.169	8.03
733.489	7.98
733.809	8.01
734.129	7.87
734.448	8.12
734.768	8.01
735.088	8.06
735.408	8.11
735.727	7.99
736.047	7.98
736.366	7.87
736.686	7.83
737.005	7.8
737.325	7.9
737.644	7.8
737.963	7.84
738.283	8.09
738.602	8.08
738.921	8.17
739.24	8.27
739.56	8.57
739.879	8.21
740.198	8.17
740.517	8.19
740.836	8.25
741.155	7.99
741.473	8.17
741.792	8.21
742.111	8.53
742.43	8.58
742.748	8.67
743.067	8.63
743.386	8.56
743.704	8.48
744.023	8.54
744.341	8.63
744.66	8.56
744.978	8.51
745.297	8.72
745.615	8.65
745.933	8.58
746.252	8.4
746.57	8.4
746.888	8.55
747.206	8.64
747.524	8.84
747.842	9.11
748.16	9.15
748.478	9.13
748.796	8.7
749.114	8.65
749.432	8.53
749.749	8.57
750.067	8.52
750.385	8.82
750.703	8.88
751.02	8.69
751.338	8.46
751.655	8.53
751.973	8.38
752.29	8.27
752.608	8.31
752.925	8.44
753.242	8.78
753.56	8.66
753.877	8.65
754.194	8.69
754.511	8.58
754.828	8.33
755.145	8.47
755.462	8.63
755.779	8.52
756.096	8.69
756.413	8.92
756.73	9.13
757.047	9.02
757.364	8.95
757.68	8.96
757.997	9.1
758.314	9.16
758.63	9.04
758.947	9.28
759.264	9.2
759.58	9.12
759.896	9.06
760.213	9.13
760.529	8.91
760.846	8.83
761.162	8.53
761.478	8.57
761.794	8.53
762.11	8.45
762.426	8.62
762.743	8.41
763.059	8.41
763.375	8.4
763.69	8.32
764.006	8.2
764.322	8.25
764.638	8.35
764.954	8.3
765.27	8.48
765.585	8.4
765.901	8.34
766.216	8.25
766.532	8.07
766.848	8.1
767.163	8.15
767.478	8.09
767.794	8.25
768.109	8.21
768.424	8.2
768.74	8.26
769.055	8.11
769.37	8.13
769.685	8
770	8.26
770.315	8.33
770.63	8.57
770.945	8.63
771.26	8.54
771.575	8.57
771.89	8.38
772.205	8.04
772.52	8.09
772.834	8.4
773.149	8.98
773.464	8.97
773.778	8.99
774.093	9.13
774.407	9.23
774.722	8.96
775.036	9.02
775.351	9.04
775.665	9.27
775.979	9.56
776.293	9.74
776.608	9.12
776.922	9.03
777.236	8.96
777.55	8.76
777.864	8.79
778.178	8.94
778.492	8.91
778.806	9.74
779.12	9.97
779.434	10.05
779.747	9.96
780.061	10.15
780.375	10.24
780.689	10.15
781.002	10.57
781.316	10.88
781.629	10.54
781.943	10.57
782.256	10.3
782.57	10.21
782.883	9.98
783.196	10.22
783.51	10.62
783.823	10.74
784.136	10.74
784.449	10.69
784.762	10.53
785.075	10.64
785.388	10.08
785.701	9.73
786.014	9.52
786.327	9.21
786.64	9.51
786.953	9.42
787.266	9.68
787.578	9.43
787.891	9.5
788.204	9.75
788.516	9.75
788.829	9.78
789.141	9.99
789.454	10.06
789.766	10.32
790.079	10.12
790.391	9.93
790.703	10.26
791.016	10.31
791.328	10.4
791.64	10.11
791.952	10.52
792.264	10.57
792.576	10.69
792.888	10.65
793.2	10.21
793.512	9.96
793.824	9.87
794.136	9.74
794.448	9.8
794.76	9.72
795.071	9.94
795.383	10.27
795.695	10.03
796.006	10.48
796.318	10.56
796.629	10.72
796.941	10.45
797.252	10.4
797.564	10.64
797.875	10.38
798.186	10.91
798.497	10.57
798.809	10.4
799.12	9.95
799.431	10.12
799.742	10.56
800.053	10.9
800.364	10.91
800.675	11.3
800.986	11.62
801.297	11.59
801.608	11.08
801.918	10.38
802.229	10.75
802.54	10.34
802.851	10.05
803.161	9.93
803.472	10.24
803.782	10.45
804.093	9.89
804.403	10.22
804.714	10.02
805.024	10.06
805.334	10.24
805.645	10.7
805.955	10.86
806.265	10.58
806.575	10.26
806.885	9.84
807.195	9.3
807.505	9.05
807.815	9.35
808.125	10.03
808.435	10.29
808.745	9.59
809.055	9.77
809.365	9.77
809.674	9.94
809.984	9.33
810.294	9.28
810.603	9.53
810.913	9.52
811.222	9.31
811.532	9.6
811.841	10.13
812.151	10.42
812.46	10.02
812.769	9.71
813.079	10.4
813.388	10.64
813.697	10.21
814.006	10.51
814.315	10.51
814.624	10.08
814.933	10.54
815.242	10.55
815.551	10.32
815.86	10.23
816.169	9.34
816.478	10.24
816.786	9.53
817.095	9.85
817.404	10.28
817.712	10.69
818.021	10.87
818.33	10.51
818.638	10.03
818.947	9.88
819.255	9.87
819.563	9.7
819.872	9.82
820.18	10.06
820.488	9.97
820.796	10.04
821.105	10.09
821.413	10.02
821.721	9.75
822.029	9.79
822.337	9.8
822.645	10.16
822.953	10.27
823.26	10.48
823.568	10.34
823.876	10.17
824.184	10.16
824.491	10.01
824.799	9.96
825.107	10.04
825.414	10.15
825.722	10.18
826.029	10.12
826.337	10.19
826.644	10.38
826.951	10.44
827.259	10.51
827.566	10.56
827.873	10.68
828.18	11.24
828.488	11.29
828.795	11.39
829.102	11.11
829.409	10.99
829.716	10.98
830.023	11.31
830.329	11.47
830.636	11.33
830.943	11.31
831.25	11.69
831.557	11.73
831.863	11.64
832.17	11.91
832.476	12.04
832.783	11.56
833.089	11.23
833.396	11.16
833.702	10.74
834.009	10.54
834.315	10.29
834.621	9.83
834.928	9.52
835.234	9.52
835.54	9.71
835.846	9.8
836.152	9.59
836.458	9.42
836.764	9.41
837.07	9.39
837.376	9.19
837.682	8.67
837.988	8.3
838.293	8.24
838.599	7.63
838.905	7.72
839.211	8.29
839.516	7.97
839.822	8.69
840.127	8.87
840.433	9.34
840.738	8.86
841.044	9.47
841.349	10.19
841.654	10.1
841.959	10.82
842.265	10.36
842.57	10
842.875	9.62
843.18	8.7
843.485	9.04
843.79	9.87
844.095	10
844.4	10.87
844.705	11.13
845.01	12.48
845.315	12.25
845.619	13.02
845.924	13.17
846.229	11.43
846.533	11.17
846.838	9.81
847.142	11.32
847.447	11.97
847.751	11.55
848.056	11.71
848.36	10.04
848.664	10.3
848.969	11.74
849.273	12.56
849.577	12.62
849.881	13.37
850.185	13.51
850.489	14.44
850.794	13.98
851.097	13.64
851.401	13.7
851.705	13.97
852.009	12.65
852.313	13.61
852.617	13.63
852.92	15.12
853.224	16.44
853.528	15.54
853.831	12.64
854.135	13.8
854.438	14.85
854.742	16.43
855.045	17.55
855.349	16.59
855.652	16.22
855.955	17.66
856.259	16.54
856.562	17.49
856.865	19.05
857.168	21.2
857.471	21.69
857.774	21.31
858.077	22.3
858.38	21.53
858.683	21.37
858.986	22.49
859.289	21.43
859.592	22.35
859.894	24.26
860.197	25.28
860.5	22.95
860.802	21.58
861.105	21.03
861.407	19.57
861.71	20.17
862.012	19.74
862.315	20.56
862.617	21
862.919	20.55
863.222	19.19
863.524	17.05
863.826	17.27
864.128	17.01
864.43	16.86
864.732	16.1
865.034	15.99
865.336	15.87
865.638	15.71
865.94	17.91
866.242	16.58
866.544	17.62
866.846	21.45
867.147	22.98
867.449	22.32
867.751	22.7
868.052	23.05
868.354	23.16
868.655	22.65
868.957	22.24
869.258	20.69
869.56	19.18
869.861	18.34
870.162	17.95
870.463	17.49
870.765	14.6
871.066	16.71
871.367	16.36
871.668	15.79
871.969	17.75
872.27	12.48
872.571	13.03
872.872	12.81
873.173	8.32
873.473	6.92
873.774	8.28
874.075	9.83
874.376	7.18
874.676	8.59
874.977	9.57
875.277	11.91
875.578	12.86
875.878	14.11
876.179	14.86
876.479	15.4
876.78	15.09
877.08	17.6
877.38	16.52
877.68	16.99
877.981	16.58
878.281	13.94
878.581	16.44
