Data from BU58130_Reflection_00001.txt Node
Date: Mon Nov 18 16:37:11 EST 2019
User: vgr7
Spectrometer: USB2G7710
Scans to average: 3
Trigger mode: 4
Integration Time (sec): 2.000000E-2
Electric dark correction enabled: true
Boxcar width: 10
XAxis mode: Wavelengths
Number of Pixels in Spectrum: 2048
>>>>>Begin Spectral Data<<<<<
177.721	-83.21
178.105	51.22
178.488	32.01
178.871	-1.94
179.254	27.46
179.636	-262.07
180.019	100
180.402	162.07
180.785	-21.56
181.168	44.26
181.55	31.76
181.933	63.4
182.316	51.59
182.698	67.26
183.081	28.28
183.463	-12.8
183.846	27.51
184.228	57.93
184.611	129.27
184.993	192.49
185.376	203.9
185.758	137.45
186.14	220.17
186.522	304.38
186.904	505.06
187.287	639.68
187.669	-261.45
188.051	-2110.53
188.433	-1383.87
188.815	-146.5
189.197	-68.96
189.579	-89.9
189.961	-104.75
190.342	-144.49
190.724	-84.16
191.106	-154.04
191.488	-246.02
191.869	-361.54
192.251	-323.65
192.633	-947.62
193.014	-7677.78
193.396	2988.89
193.777	4621.74
194.159	490.7
194.54	649.71
194.922	-660.74
195.303	-1269.86
195.684	-678.44
196.065	-217.85
196.447	-133.5
196.828	-146.41
197.209	-105.13
197.59	-97.29
197.971	-86.92
198.352	-42.66
198.733	-59.77
199.114	-71.52
199.495	-62.98
199.876	-49.61
200.257	-37.87
200.638	-44.49
201.018	-34.63
201.399	-29.24
201.78	-17.31
202.16	-18.43
202.541	-45.43
202.922	-59.77
203.302	-84.52
203.683	-75.17
204.063	-96.27
204.444	-98.43
204.824	-110.35
205.204	-110.28
205.585	-131.51
205.965	-118.67
206.345	-171.11
206.725	-190.45
207.106	-157.85
207.486	-312.83
207.866	-427.33
208.246	-369.66
208.626	-280.31
209.006	-249.43
209.386	-285.88
209.766	-276.53
210.145	-204.07
210.525	-167.3
210.905	-218.04
211.285	-508.7
211.664	-223.7
212.044	-582.35
212.424	2923.53
212.803	290.48
213.183	722.95
213.562	-220.35
213.942	-96.89
214.321	-73.43
214.701	-67.6
215.08	-80.39
215.459	-33.48
215.838	-44.27
216.218	-37.69
216.597	-35.11
216.976	-41.9
217.355	-38.53
217.734	-41.67
218.113	-35.56
218.492	-32.63
218.871	-34.51
219.25	-29.08
219.629	-29.87
220.008	-17.65
220.387	-17.32
220.766	-4.9
221.144	-13.9
221.523	-1.57
221.902	22.99
222.28	14.48
222.659	28.91
223.037	13.89
223.416	-13.44
223.794	-12.05
224.173	-13.84
224.551	-11.3
224.929	-14.64
225.308	-10.06
225.686	-7.08
226.064	-13.18
226.442	-9.9
226.821	-5.26
227.199	-5.85
227.577	-9.05
227.955	-6.14
228.333	-5.14
228.711	-7.14
229.089	-3.5
229.467	-4.27
229.845	-8.72
230.222	-9.68
230.6	-12.28
230.978	-7.88
231.356	-2.48
231.733	-4.03
232.111	-0.85
232.488	-1.16
232.866	-0.1
233.243	1.7
233.621	-0.52
233.998	1.48
234.376	0.13
234.753	0.07
235.13	1.82
235.508	2.8
235.885	1.78
236.262	0.98
236.639	2.97
237.016	2.34
237.393	3.43
237.77	5.05
238.147	6.03
238.524	6.38
238.901	5.99
239.278	5.88
239.655	6.82
240.032	7.1
240.409	7.2
240.785	7.03
241.162	6.86
241.539	7.19
241.915	6.81
242.292	6.8
242.668	6.9
243.045	6.85
243.421	6.77
243.798	6.55
244.174	6.21
244.551	5.93
244.927	5.82
245.303	5.55
245.679	5.62
246.056	5.55
246.432	5.49
246.808	5.31
247.184	4.82
247.56	4.59
247.936	4.34
248.312	4.29
248.688	4.4
249.064	4.26
249.44	4.44
249.815	4.33
250.191	4.35
250.567	4.22
250.943	3.96
251.318	3.93
251.694	3.66
252.069	3.76
252.445	3.77
252.82	3.77
253.196	3.8
253.571	3.31
253.947	3.22
254.322	3.25
254.697	3.16
255.073	3.42
255.448	3.25
255.823	3.3
256.198	3.49
256.573	3.45
256.948	3.79
257.323	3.69
257.698	3.79
258.073	3.89
258.448	3.9
258.823	4.13
259.198	4.06
259.573	4.44
259.948	4.44
260.322	4.44
260.697	4.3
261.072	4.24
261.446	4.4
261.821	4.29
262.195	4.37
262.57	4.33
262.944	4.3
263.319	4.45
263.693	4.44
264.067	4.36
264.442	4.48
264.816	4.21
265.19	3.99
265.564	4.14
265.938	3.91
266.313	3.97
266.687	3.82
267.061	3.85
267.435	3.52
267.809	3.57
268.183	3.46
268.556	3.33
268.93	3.46
269.304	3.34
269.678	3.38
270.051	3.35
270.425	3.5
270.799	3.64
271.172	3.61
271.546	3.59
271.919	3.57
272.293	3.48
272.666	3.58
273.04	3.72
273.413	3.59
273.787	3.89
274.16	3.74
274.533	3.7
274.906	3.46
275.279	3.73
275.653	3.7
276.026	3.6
276.399	3.82
276.772	3.84
277.145	3.89
277.518	3.99
277.891	3.98
278.263	3.96
278.636	3.78
279.009	3.88
279.382	3.91
279.755	3.78
280.127	3.88
280.5	3.94
280.872	4.07
281.245	4.16
281.617	4.01
281.99	4.13
282.362	4.06
282.735	4.17
283.107	3.98
283.479	4.02
283.852	4.08
284.224	4.1
284.596	4.16
284.968	4.11
285.34	4.17
285.713	4.14
286.085	4.22
286.457	4.41
286.829	4.4
287.201	4.38
287.572	4.54
287.944	4.42
288.316	4.44
288.688	4.22
289.06	4.08
289.431	4.1
289.803	4.08
290.175	4.16
290.546	4.41
290.918	4.52
291.289	4.54
291.661	4.77
292.032	4.84
292.403	4.7
292.775	4.84
293.146	4.66
293.517	4.69
293.889	4.65
294.26	4.6
294.631	4.63
295.002	4.69
295.373	4.6
295.744	4.68
296.115	4.68
296.486	4.77
296.857	4.96
297.228	5.01
297.599	4.99
297.97	4.93
298.34	4.88
298.711	4.86
299.082	4.74
299.452	4.65
299.823	4.66
300.194	4.7
300.564	4.57
300.935	4.86
301.305	4.86
301.676	4.88
302.046	4.9
302.416	4.92
302.787	4.86
303.157	4.8
303.527	4.67
303.897	4.57
304.267	4.61
304.637	4.54
305.008	4.48
305.378	4.52
305.748	4.68
306.117	4.49
306.487	4.5
306.857	4.63
307.227	4.63
307.597	4.56
307.967	4.6
308.336	4.61
308.706	4.42
309.076	4.39
309.445	4.43
309.815	4.4
310.184	4.28
310.554	4.32
310.923	4.41
311.293	4.6
311.662	4.64
312.031	4.62
312.401	4.56
312.77	4.65
313.139	4.66
313.508	4.56
313.877	4.5
314.246	4.49
314.616	4.48
314.985	4.44
315.353	4.36
315.722	4.21
316.091	4.26
316.46	4.12
316.829	4.19
317.198	4.2
317.567	4.14
317.935	4.17
318.304	4.19
318.672	4.12
319.041	3.98
319.41	3.99
319.778	3.95
320.147	3.97
320.515	3.78
320.883	3.7
321.252	3.77
321.62	4
321.988	3.98
322.357	4.02
322.725	3.83
323.093	3.99
323.461	4.17
323.829	4.11
324.197	4.33
324.565	4.26
324.933	4.12
325.301	4.05
325.669	4.2
326.037	4.03
326.405	4.08
326.772	4.18
327.14	4.24
327.508	4.2
327.875	4.17
328.243	4.36
328.61	4.43
328.978	4.47
329.346	4.4
329.713	4.35
330.08	4.34
330.448	4.34
330.815	4.23
331.182	4.15
331.55	4.24
331.917	4.11
332.284	4.15
332.651	4.23
333.018	4.4
333.385	4.3
333.752	4.46
334.119	4.4
334.486	4.27
334.853	4.19
335.22	4.07
335.587	4.03
335.954	3.91
336.32	3.94
336.687	3.87
337.054	3.7
337.42	3.72
337.787	3.7
338.153	3.78
338.52	3.87
338.886	3.77
339.253	3.7
339.619	3.76
339.986	3.74
340.352	3.81
340.718	3.76
341.084	3.72
341.451	3.81
341.817	3.86
342.183	3.99
342.549	3.93
342.915	4.08
343.281	4.16
343.647	4.11
344.013	4.02
344.379	4
344.745	4.15
345.11	4.15
345.476	4.17
345.842	4.17
346.208	4.11
346.573	4.23
346.939	4.3
347.304	4.27
347.67	4.2
348.035	4.07
348.401	3.99
348.766	4.02
349.132	3.96
349.497	3.91
349.862	3.84
350.228	3.95
350.593	3.84
350.958	3.78
351.323	3.76
351.688	3.83
352.053	3.88
352.418	3.94
352.783	3.97
353.148	3.9
353.513	3.94
353.878	3.91
354.243	3.95
354.608	3.97
354.972	4.03
355.337	4.11
355.702	4.21
356.066	4.23
356.431	4.2
356.795	4.23
357.16	4.22
357.524	4.1
357.889	4.01
358.253	4.1
358.618	4.11
358.982	4.11
359.346	4.09
359.71	4.06
360.075	4.02
360.439	4.06
360.803	4.04
361.167	4.02
361.531	4.04
361.895	4
362.259	3.93
362.623	3.93
362.987	3.85
363.351	3.87
363.714	3.96
364.078	3.93
364.442	3.84
364.806	3.84
365.169	3.87
365.533	3.92
365.896	3.89
366.26	3.88
366.623	3.9
366.987	3.91
367.35	3.91
367.714	3.93
368.077	3.86
368.44	3.9
368.803	3.93
369.167	3.87
369.53	3.88
369.893	4
370.256	3.99
370.619	4.05
370.982	3.94
371.345	3.85
371.708	3.9
372.071	3.95
372.434	3.93
372.797	3.98
373.159	3.93
373.522	3.99
373.885	3.98
374.247	4.01
374.61	4.03
374.973	4.1
375.335	4.05
375.698	4.09
376.06	4.06
376.423	4.03
376.785	4.12
377.147	4.15
377.51	4.09
377.872	4.08
378.234	4.11
378.596	4.14
378.958	4.13
379.321	4.15
379.683	4.17
380.045	4.17
380.407	4.14
380.769	4.14
381.13	4.11
381.492	4.13
381.854	4.08
382.216	4.01
382.578	4
382.939	4.04
383.301	4
383.663	4.01
384.024	4.04
384.386	4.01
384.747	3.99
385.109	3.98
385.47	3.94
385.832	3.88
386.193	3.91
386.554	3.93
386.916	3.92
387.277	3.88
387.638	3.93
387.999	3.94
388.36	3.97
388.721	3.98
389.082	3.98
389.443	3.99
389.804	4.01
390.165	3.96
390.526	3.95
390.887	3.97
391.248	3.99
391.609	3.96
391.969	3.99
392.33	3.95
392.691	3.96
393.051	3.98
393.412	4.04
393.772	3.99
394.133	4
394.493	3.97
394.854	3.97
395.214	3.94
395.574	3.94
395.935	3.9
396.295	3.98
396.655	3.96
397.015	3.96
397.376	3.97
397.736	3.95
398.096	3.94
398.456	3.94
398.816	3.9
399.176	3.89
399.535	3.87
399.895	3.89
400.255	3.89
400.615	3.9
400.975	3.89
401.334	3.89
401.694	3.86
402.054	3.87
402.413	3.88
402.773	3.89
403.132	3.88
403.492	3.92
403.851	3.83
404.211	3.83
404.57	3.78
404.929	3.79
405.288	3.8
405.648	3.78
406.007	3.78
406.366	3.79
406.725	3.84
407.084	3.86
407.443	3.86
407.802	3.85
408.161	3.84
408.52	3.82
408.879	3.85
409.238	3.87
409.596	3.87
409.955	3.87
410.314	3.87
410.673	3.85
411.031	3.86
411.39	3.87
411.748	3.86
412.107	3.91
412.465	3.9
412.824	3.89
413.182	3.91
413.54	3.9
413.899	3.9
414.257	3.88
414.615	3.85
414.974	3.84
415.332	3.81
415.69	3.8
416.048	3.77
416.406	3.76
416.764	3.73
417.122	3.75
417.48	3.71
417.838	3.72
418.195	3.73
418.553	3.72
418.911	3.71
419.269	3.72
419.626	3.72
419.984	3.73
420.342	3.73
420.699	3.73
421.057	3.73
421.414	3.72
421.772	3.72
422.129	3.73
422.486	3.73
422.844	3.75
423.201	3.75
423.558	3.77
423.915	3.78
424.273	3.8
424.63	3.79
424.987	3.82
425.344	3.83
425.701	3.82
426.058	3.81
426.415	3.82
426.772	3.82
427.128	3.82
427.485	3.82
427.842	3.83
428.199	3.84
428.555	3.83
428.912	3.85
429.269	3.85
429.625	3.84
429.982	3.84
430.338	3.82
430.695	3.82
431.051	3.82
431.407	3.8
431.764	3.78
432.12	3.77
432.476	3.78
432.832	3.77
433.189	3.76
433.545	3.78
433.901	3.76
434.257	3.75
434.613	3.78
434.969	3.78
435.325	3.77
435.681	3.76
436.036	3.78
436.392	3.77
436.748	3.78
437.104	3.78
437.459	3.8
437.815	3.8
438.171	3.81
438.526	3.79
438.882	3.8
439.237	3.79
439.593	3.8
439.948	3.79
440.304	3.79
440.659	3.8
441.014	3.8
441.369	3.81
441.725	3.8
442.08	3.79
442.435	3.78
442.79	3.79
443.145	3.78
443.5	3.77
443.855	3.75
444.21	3.74
444.565	3.74
444.92	3.75
445.275	3.74
445.629	3.73
445.984	3.73
446.339	3.73
446.693	3.73
447.048	3.71
447.403	3.71
447.757	3.7
448.112	3.7
448.466	3.7
448.82	3.7
449.175	3.71
449.529	3.71
449.883	3.71
450.238	3.69
450.592	3.72
450.946	3.73
451.3	3.74
451.654	3.74
452.008	3.75
452.362	3.71
452.716	3.71
453.07	3.73
453.424	3.74
453.778	3.73
454.132	3.73
454.486	3.73
454.839	3.72
455.193	3.72
455.547	3.71
455.9	3.71
456.254	3.71
456.607	3.7
456.961	3.7
457.314	3.7
457.668	3.7
458.021	3.67
458.375	3.66
458.728	3.66
459.081	3.67
459.434	3.64
459.787	3.66
460.141	3.65
460.494	3.67
460.847	3.69
461.2	3.68
461.553	3.69
461.906	3.71
462.259	3.72
462.611	3.74
462.964	3.75
463.317	3.76
463.67	3.76
464.022	3.75
464.375	3.73
464.728	3.74
465.08	3.75
465.433	3.78
465.785	3.78
466.138	3.78
466.49	3.77
466.843	3.82
467.195	3.81
467.547	3.82
467.899	3.79
468.252	3.75
468.604	3.78
468.956	3.78
469.308	3.76
469.66	3.75
470.012	3.75
470.364	3.76
470.716	3.74
471.068	3.76
471.42	3.77
471.772	3.79
472.123	3.78
472.475	3.76
472.827	3.75
473.178	3.74
473.53	3.73
473.882	3.73
474.233	3.73
474.585	3.73
474.936	3.72
475.288	3.73
475.639	3.75
475.99	3.75
476.342	3.74
476.693	3.75
477.044	3.78
477.395	3.77
477.746	3.76
478.097	3.77
478.448	3.75
478.8	3.76
479.15	3.76
479.501	3.77
479.852	3.79
480.203	3.8
480.554	3.83
480.905	3.84
481.255	3.84
481.606	3.85
481.957	3.85
482.307	3.86
482.658	3.87
483.009	3.87
483.359	3.86
483.709	3.87
484.06	3.87
484.41	3.86
484.761	3.87
485.111	3.87
485.461	3.88
485.811	3.88
486.162	3.88
486.512	3.89
486.862	3.89
487.212	3.88
487.562	3.88
487.912	3.87
488.262	3.86
488.612	3.86
488.961	3.85
489.311	3.85
489.661	3.85
490.011	3.85
490.36	3.85
490.71	3.86
491.06	3.85
491.409	3.86
491.759	3.86
492.108	3.86
492.458	3.86
492.807	3.86
493.157	3.86
493.506	3.87
493.855	3.85
494.204	3.84
494.554	3.84
494.903	3.86
495.252	3.86
495.601	3.88
495.95	3.9
496.299	3.9
496.648	3.89
496.997	3.89
497.346	3.91
497.695	3.92
498.043	3.93
498.392	3.94
498.741	3.92
499.09	3.93
499.438	3.93
499.787	3.93
500.135	3.94
500.484	3.95
500.832	3.94
501.181	3.95
501.529	3.96
501.878	3.99
502.226	3.98
502.574	3.98
502.923	3.95
503.271	3.91
503.619	3.92
503.967	3.9
504.315	3.9
504.663	3.89
505.011	3.9
505.359	3.89
505.707	3.88
506.055	3.91
506.403	3.91
506.751	3.92
507.098	3.91
507.446	3.92
507.794	3.91
508.141	3.92
508.489	3.91
508.837	3.92
509.184	3.9
509.531	3.91
509.879	3.91
510.226	3.95
510.574	3.96
510.921	3.98
511.268	3.99
511.616	3.99
511.963	4.01
512.31	4.01
512.657	4.01
513.004	4.01
513.351	4.02
513.698	4.02
514.045	3.99
514.392	4.01
514.739	4.02
515.086	4.03
515.432	4.03
515.779	4.03
516.126	4.04
516.473	4.06
516.819	4.08
517.166	4.09
517.512	4.08
517.859	4.09
518.205	4.06
518.552	4.07
518.898	4.07
519.245	4.06
519.591	4.06
519.937	4.05
520.283	4.05
520.629	4.05
520.976	4.04
521.322	4.05
521.668	4.04
522.014	4.03
522.36	4.04
522.706	4.05
523.052	4.07
523.398	4.08
523.743	4.08
524.089	4.07
524.435	4.07
524.781	4.09
525.126	4.09
525.472	4.11
525.817	4.12
526.163	4.12
526.509	4.12
526.854	4.14
527.199	4.15
527.545	4.14
527.89	4.14
528.235	4.15
528.581	4.15
528.926	4.16
529.271	4.16
529.616	4.17
529.961	4.17
530.306	4.17
530.651	4.17
530.996	4.17
531.341	4.17
531.686	4.16
532.031	4.16
532.376	4.16
532.721	4.16
533.065	4.15
533.41	4.15
533.755	4.14
534.099	4.14
534.444	4.15
534.788	4.17
535.133	4.17
535.477	4.17
535.822	4.18
536.166	4.17
536.51	4.17
536.855	4.15
537.199	4.17
537.543	4.16
537.887	4.16
538.231	4.17
538.576	4.16
538.92	4.17
539.264	4.17
539.608	4.18
539.951	4.18
540.295	4.18
540.639	4.2
540.983	4.22
541.327	4.21
541.671	4.19
542.014	4.19
542.358	4.2
542.701	4.19
543.045	4.19
543.389	4.2
543.732	4.2
544.075	4.21
544.419	4.19
544.762	4.18
545.105	4.2
545.449	4.19
545.792	4.18
546.135	4.19
546.478	4.19
546.821	4.19
547.165	4.19
547.508	4.2
547.851	4.18
548.194	4.17
548.536	4.18
548.879	4.2
549.222	4.18
549.565	4.17
549.908	4.17
550.25	4.19
550.593	4.21
550.936	4.22
551.278	4.23
551.621	4.26
551.963	4.29
552.306	4.28
552.648	4.27
552.991	4.3
553.333	4.32
553.675	4.31
554.017	4.33
554.36	4.34
554.702	4.34
555.044	4.35
555.386	4.35
555.728	4.34
556.07	4.34
556.412	4.34
556.754	4.34
557.096	4.34
557.438	4.33
557.78	4.31
558.121	4.31
558.463	4.27
558.805	4.25
559.147	4.25
559.488	4.24
559.83	4.25
560.171	4.23
560.513	4.21
560.854	4.21
561.196	4.2
561.537	4.21
561.878	4.19
562.22	4.19
562.561	4.17
562.902	4.18
563.243	4.19
563.584	4.21
563.925	4.19
564.266	4.18
564.607	4.17
564.948	4.18
565.289	4.18
565.63	4.21
565.971	4.21
566.312	4.21
566.653	4.21
566.993	4.21
567.334	4.2
567.675	4.21
568.015	4.22
568.356	4.19
568.696	4.18
569.037	4.2
569.377	4.2
569.718	4.21
570.058	4.23
570.398	4.21
570.739	4.21
571.079	4.24
571.419	4.27
571.759	4.28
572.099	4.28
572.439	4.27
572.779	4.24
573.119	4.24
573.459	4.24
573.799	4.27
574.139	4.27
574.479	4.28
574.819	4.28
575.158	4.26
575.498	4.29
575.838	4.26
576.177	4.25
576.517	4.23
576.856	4.24
577.196	4.23
577.535	4.22
577.875	4.22
578.214	4.2
578.553	4.21
578.893	4.22
579.232	4.21
579.571	4.18
579.91	4.19
580.25	4.22
580.589	4.2
580.928	4.19
581.267	4.22
581.606	4.22
581.945	4.21
582.283	4.19
582.622	4.2
582.961	4.2
583.3	4.24
583.639	4.3
583.977	4.31
584.316	4.28
584.654	4.29
584.993	4.31
585.332	4.29
585.67	4.28
586.008	4.27
586.347	4.22
586.685	4.24
587.024	4.26
587.362	4.23
587.7	4.24
588.038	4.24
588.376	4.24
588.715	4.21
589.053	4.23
589.391	4.26
589.729	4.22
590.067	4.23
590.404	4.21
590.742	4.17
591.08	4.15
591.418	4.19
591.756	4.19
592.093	4.2
592.431	4.2
592.769	4.19
593.106	4.17
593.444	4.21
593.781	4.22
594.119	4.24
594.456	4.22
594.793	4.23
595.131	4.18
595.468	4.17
595.805	4.19
596.143	4.19
596.48	4.17
596.817	4.2
597.154	4.22
597.491	4.19
597.828	4.18
598.165	4.18
598.502	4.17
598.839	4.17
599.176	4.14
599.512	4.15
599.849	4.18
600.186	4.2
600.523	4.2
600.859	4.24
601.196	4.22
601.532	4.19
601.869	4.15
602.205	4.16
602.542	4.2
602.878	4.14
603.215	4.16
603.551	4.17
603.887	4.17
604.223	4.16
604.56	4.2
604.896	4.22
605.232	4.27
605.568	4.28
605.904	4.28
606.24	4.32
606.576	4.35
606.912	4.31
607.248	4.29
607.583	4.31
607.919	4.27
608.255	4.25
608.591	4.31
608.926	4.36
609.262	4.36
609.597	4.32
609.933	4.37
610.268	4.35
610.604	4.33
610.939	4.36
611.275	4.37
611.61	4.33
611.945	4.33
612.281	4.26
612.616	4.26
612.951	4.27
613.286	4.23
613.621	4.23
613.956	4.26
614.291	4.22
614.626	4.18
614.961	4.17
615.296	4.19
615.631	4.15
615.966	4.16
616.3	4.2
616.635	4.21
616.97	4.21
617.304	4.29
617.639	4.36
617.973	4.27
618.308	4.27
618.642	4.28
618.977	4.25
619.311	4.28
619.646	4.27
619.98	4.24
620.314	4.24
620.648	4.21
620.983	4.21
621.317	4.28
621.651	4.3
621.985	4.35
622.319	4.42
622.653	4.45
622.987	4.47
623.321	4.45
623.655	4.45
623.988	4.44
624.322	4.38
624.656	4.37
624.99	4.42
625.323	4.43
625.657	4.47
625.99	4.5
626.324	4.48
626.657	4.47
626.991	4.52
627.324	4.59
627.658	4.61
627.991	4.62
628.324	4.61
628.657	4.6
628.991	4.58
629.324	4.5
629.657	4.5
629.99	4.51
630.323	4.51
630.656	4.57
630.989	4.6
631.322	4.57
631.655	4.51
631.987	4.53
632.32	4.49
632.653	4.44
632.986	4.42
633.318	4.39
633.651	4.43
633.984	4.36
634.316	4.33
634.649	4.32
634.981	4.27
635.313	4.22
635.646	4.23
635.978	4.25
636.31	4.25
636.643	4.26
636.975	4.23
637.307	4.22
637.639	4.18
637.971	4.17
638.303	4.22
638.635	4.26
638.967	4.25
639.299	4.33
639.631	4.33
639.963	4.33
640.295	4.37
640.626	4.35
640.958	4.37
641.29	4.36
641.621	4.32
641.953	4.33
642.285	4.41
642.616	4.42
642.948	4.42
643.279	4.46
643.61	4.5
643.942	4.46
644.273	4.51
644.604	4.54
644.936	4.5
645.267	4.47
645.598	4.45
645.929	4.46
646.26	4.46
646.591	4.47
646.922	4.48
647.253	4.49
647.584	4.44
647.915	4.45
648.245	4.41
648.576	4.4
648.907	4.43
649.238	4.34
649.568	4.33
649.899	4.27
650.229	4.26
650.56	4.26
650.89	4.3
651.221	4.3
651.551	4.24
651.882	4.23
652.212	4.24
652.542	4.31
652.872	4.28
653.203	4.26
653.533	4.23
653.863	4.24
654.193	4.29
654.523	4.34
654.853	4.39
655.183	4.42
655.513	4.45
655.843	4.47
656.172	4.54
656.502	4.54
656.832	4.58
657.162	4.56
657.491	4.53
657.821	4.52
658.15	4.5
658.48	4.57
658.809	4.62
659.139	4.62
659.468	4.55
659.798	4.57
660.127	4.55
660.456	4.61
660.785	4.63
661.115	4.59
661.444	4.61
661.773	4.61
662.102	4.59
662.431	4.65
662.76	4.61
663.089	4.59
663.418	4.64
663.747	4.62
664.076	4.62
664.404	4.53
664.733	4.58
665.062	4.59
665.39	4.53
665.719	4.54
666.048	4.57
666.376	4.68
666.705	4.66
667.033	4.69
667.362	4.69
667.69	4.71
668.018	4.79
668.347	4.75
668.675	4.7
669.003	4.73
669.331	4.74
669.659	4.78
669.987	4.8
670.315	4.7
670.643	4.71
670.971	4.76
671.299	4.85
671.627	4.74
671.955	4.71
672.283	4.76
672.61	4.7
672.938	4.71
673.266	4.63
673.593	4.69
673.921	4.65
674.249	4.62
674.576	4.52
674.904	4.41
675.231	4.33
675.558	4.31
675.886	4.31
676.213	4.21
676.54	4.16
676.867	4.18
677.195	4.24
677.522	4.27
677.849	4.28
678.176	4.28
678.503	4.32
678.83	4.31
679.157	4.32
679.484	4.37
679.81	4.35
680.137	4.3
680.464	4.29
680.791	4.35
681.117	4.33
681.444	4.34
681.771	4.37
682.097	4.44
682.424	4.46
682.75	4.47
683.077	4.49
683.403	4.56
683.729	4.57
684.056	4.57
684.382	4.61
684.708	4.63
685.034	4.68
685.36	4.72
685.686	4.72
686.012	4.74
686.339	4.73
686.664	4.72
686.99	4.78
687.316	4.73
687.642	4.75
687.968	4.8
688.294	4.8
688.619	4.78
688.945	4.71
689.271	4.63
689.596	4.64
689.922	4.71
690.247	4.61
690.573	4.59
690.898	4.68
691.224	4.72
691.549	4.73
691.874	4.61
692.2	4.61
692.525	4.61
692.85	4.63
693.175	4.5
693.5	4.49
693.825	4.43
694.15	4.45
694.475	4.36
694.8	4.46
695.125	4.39
695.45	4.42
695.775	4.6
696.099	4.72
696.424	4.82
696.749	4.67
697.073	4.67
697.398	4.58
697.723	4.56
698.047	4.51
698.372	4.51
698.696	4.56
699.02	4.52
699.345	4.52
699.669	4.5
699.993	4.62
700.318	4.66
700.642	4.67
700.966	4.66
701.29	4.7
701.614	4.58
701.938	4.74
702.262	4.78
702.586	4.69
702.91	4.65
703.234	4.5
703.557	4.7
703.881	4.73
704.205	4.84
704.529	4.83
704.852	4.87
705.176	4.77
705.499	4.81
705.823	4.79
706.146	4.81
706.47	4.81
706.793	4.7
707.117	4.64
707.44	4.65
707.763	4.65
708.086	4.61
708.409	4.59
708.733	4.6
709.056	4.46
709.379	4.53
709.702	4.55
710.025	4.56
710.348	4.43
710.671	4.48
710.993	4.41
711.316	4.39
711.639	4.34
711.962	4.4
712.284	4.44
712.607	4.6
712.93	4.69
713.252	4.67
713.575	4.74
713.897	4.69
714.22	4.8
714.542	4.84
714.864	4.87
715.187	4.87
715.509	4.86
715.831	5.03
716.153	5.06
716.475	5.18
716.798	5.33
717.12	5.35
717.442	5.44
717.764	5.43
718.085	5.43
718.407	5.43
718.729	5.42
719.051	5.34
719.373	5.16
719.695	4.93
720.016	5.08
720.338	5.11
720.659	5.19
720.981	5.07
721.302	5.11
721.624	5.08
721.945	5.19
722.267	5.04
722.588	4.84
722.909	4.65
723.231	4.36
723.552	4.16
723.873	4.29
724.194	4.15
724.515	4.25
724.836	4.27
725.157	4.26
725.478	4.24
725.799	4.33
726.12	4.35
726.441	4.56
726.762	4.37
727.083	4.3
727.403	4.33
727.724	4.37
728.045	4.4
728.365	4.57
728.686	4.51
729.006	4.65
729.327	4.72
729.647	4.9
729.967	4.97
730.288	5.17
730.608	5.09
730.928	5.16
731.249	5.07
731.569	5.21
731.889	5.11
732.209	5.12
732.529	5.06
732.849	5.15
733.169	5.12
733.489	5.22
733.809	5.13
734.129	5.11
734.448	5.06
734.768	4.93
735.088	4.91
735.408	4.92
735.727	4.87
736.047	5.04
736.366	4.95
736.686	4.97
737.005	4.93
737.325	4.92
737.644	4.78
737.963	4.89
738.283	4.54
738.602	4.55
738.921	4.54
739.24	4.54
739.56	4.39
739.879	4.48
740.198	4.5
740.517	4.55
740.836	4.77
741.155	4.89
741.473	5.03
741.792	5.01
742.111	4.96
742.43	5.02
742.748	4.8
743.067	5.03
743.386	5.09
743.704	5.12
744.023	5.06
744.341	5.04
744.66	5.19
744.978	5.4
745.297	5.39
745.615	5.48
745.933	5.55
746.252	5.61
746.57	5.34
746.888	5.18
747.206	5.33
747.524	5.17
747.842	5.32
748.16	5.4
748.478	5.35
748.796	5.39
749.114	5.51
749.432	5.49
749.749	5.22
750.067	5.16
750.385	4.91
750.703	4.95
751.02	4.94
751.338	4.76
751.655	4.64
751.973	4.83
752.29	4.88
752.608	4.88
752.925	4.98
753.242	5
753.56	5.09
753.877	5.01
754.194	4.71
754.511	4.67
754.828	4.56
755.145	4.42
755.462	4.46
755.779	4.35
756.096	4.62
756.413	4.76
756.73	4.87
757.047	4.96
757.364	5.03
757.68	5.23
757.997	5.23
758.314	5.39
758.63	5.39
758.947	5.26
759.264	5.25
759.58	5.09
759.896	5.29
760.213	5.38
760.529	5.39
760.846	5.54
761.162	5.43
761.478	5.37
761.794	5.46
762.11	5.32
762.426	5.22
762.743	5.03
763.059	4.8
763.375	4.79
763.69	4.81
764.006	4.86
764.322	4.91
764.638	4.95
764.954	5.07
765.27	5.01
765.585	5.08
765.901	5.2
766.216	5.39
766.532	5.43
766.848	5.26
767.163	5.3
767.478	5.2
767.794	5.24
768.109	5.16
768.424	5.05
768.74	5.26
769.055	5.26
769.37	5.39
769.685	5.41
770	5.31
770.315	5.32
770.63	5.12
770.945	5.01
771.26	4.89
771.575	4.78
771.89	4.79
772.205	4.74
772.52	4.33
772.834	4.12
773.149	3.9
773.464	4.05
773.778	3.98
774.093	4.01
774.407	4.03
774.722	4.03
775.036	4.25
775.351	4.35
775.665	4.6
775.979	4.31
776.293	4.56
776.608	4.52
776.922	4.33
777.236	4.46
777.55	4.42
777.864	4.76
778.178	4.61
778.492	4.97
778.806	4.49
779.12	4.72
779.434	5.17
779.747	5.45
780.061	5.36
780.375	5.23
780.689	5.63
781.002	5.44
781.316	5.63
781.629	5.89
781.943	5.74
782.256	5
782.57	5.28
782.883	5.18
783.196	4.94
783.51	4.82
783.823	4.71
784.136	4.89
784.449	4.52
784.762	4.8
785.075	4.45
785.388	4.85
785.701	4.63
786.014	4.47
786.327	4.47
786.64	4.79
786.953	5.05
787.266	5.1
787.578	5.12
787.891	5.34
788.204	4.92
788.516	4.77
788.829	5.39
789.141	5.54
789.454	6.01
789.766	6.5
790.079	6.82
790.391	7.18
790.703	7.19
791.016	7.18
791.328	7.07
791.64	7.03
791.952	7.29
792.264	7.55
792.576	7.16
792.888	7.24
793.2	6.98
793.512	6.9
793.824	6.49
794.136	6.54
794.448	6.5
794.76	6.48
795.071	6.42
795.383	6.41
795.695	5.85
796.006	5.4
796.318	5.2
796.629	5.35
796.941	5.07
797.252	5.14
797.564	5.25
797.875	5.02
798.186	4.7
798.497	4.48
798.809	4.06
799.12	4.31
799.431	3.99
799.742	3.99
800.053	3.91
800.364	4.6
800.675	4.28
800.986	4.26
801.297	4.15
801.608	4.2
801.918	4.02
802.229	4.52
802.54	4.72
802.851	4.39
803.161	4.34
803.472	4.25
803.782	4.07
804.093	4.15
804.403	4.34
804.714	4.69
805.024	4.44
805.334	4.83
805.645	5.19
805.955	5.23
806.265	5.6
806.575	5.61
806.885	5.05
807.195	5.73
807.505	5.36
807.815	5.19
808.125	4.96
808.435	4.58
808.745	4.35
809.055	4.55
809.365	5.22
809.674	5
809.984	4.78
810.294	4.64
810.603	4.49
810.913	4.82
811.222	4.85
811.532	5.1
811.841	5.82
812.151	6.22
812.46	6.14
812.769	5.62
813.079	6.06
813.388	5.59
813.697	5.18
814.006	5.27
814.315	5.25
814.624	5.6
814.933	6.49
815.242	6.87
815.551	6.43
815.86	5.97
816.169	5.95
816.478	5.85
816.786	5.87
817.095	6.53
817.404	6.94
817.712	7.24
818.021	8.02
818.33	7.26
818.638	6.74
818.947	7.19
819.255	7.35
819.563	7.2
819.872	7.35
820.18	7.59
820.488	7.47
820.796	7.71
821.105	7.5
821.413	7.58
821.721	7.28
822.029	7.23
822.337	7.37
822.645	7.36
822.953	7.42
823.26	7.54
823.568	7.34
823.876	7.07
824.184	6.96
824.491	6.86
824.799	6.94
825.107	6.86
825.414	6.72
825.722	6.65
826.029	6.67
826.337	6.72
826.644	6.49
826.951	6.67
827.259	6.6
827.566	6.65
827.873	6.63
828.18	6.85
828.488	6.97
828.795	7.04
829.102	7.09
829.409	7.13
829.716	6.64
830.023	6.79
830.329	6.7
830.636	6.99
830.943	7.06
831.25	6.79
831.557	7.05
831.863	7.22
832.17	6.99
832.476	6.87
832.783	7.31
833.089	7.6
833.396	7.39
833.702	7.44
834.009	7.23
834.315	7.05
834.621	7.05
834.928	7.09
835.234	6.8
835.54	6.27
835.846	6.19
836.152	6.48
836.458	6.71
836.764	6.82
837.07	6.59
837.376	5.72
837.682	6.18
837.988	5.7
838.293	5.77
838.599	6.47
838.905	6.18
839.211	4.98
839.516	4.73
839.822	4.64
840.127	4.87
840.433	5.15
840.738	4.78
841.044	3.98
841.349	3.72
841.654	4.07
841.959	4.95
842.265	5.86
842.57	7.12
842.875	5.62
843.18	6.13
843.485	6.04
843.79	7.55
844.095	7.03
844.4	7.04
844.705	6.46
845.01	5.25
845.315	5.59
845.619	6.16
845.924	6.43
846.229	5.87
846.533	4.63
846.838	4.96
847.142	3.84
847.447	4.01
847.751	3.21
848.056	-0.04
848.36	0.56
848.664	0.46
848.969	-1.66
849.273	-1.7
849.577	-2.27
849.881	-3.88
850.185	-5.1
850.489	-4.28
850.794	-4.57
851.097	-4.42
851.401	-3.61
851.705	-4.49
852.009	-3.56
852.313	-3.85
852.617	-2.75
852.92	-2.99
853.224	-4.54
853.528	-3.57
853.831	-3.73
854.135	-3.9
854.438	-4.2
854.742	-4.7
855.045	-5.91
855.349	-5.9
855.652	-3.81
855.955	-2.85
856.259	-2.86
856.562	-0.5
856.865	-0.98
857.168	-0.21
857.471	0.16
857.774	0.6
858.077	1.2
858.38	2.82
858.683	3.38
858.986	4.49
859.289	5.98
859.592	7.96
859.894	10.7
860.197	11.64
860.5	12.13
860.802	14.22
861.105	13.98
861.407	12.92
861.71	14.09
862.012	13.85
862.315	13.32
862.617	14.62
862.919	12.54
863.222	11.15
863.524	12.3
863.826	11.53
864.128	10.67
864.43	10.26
864.732	9.03
865.034	7.57
865.336	3.43
865.638	2.08
865.94	1.51
866.242	-2.28
866.544	-3.56
866.846	-4.16
867.147	-3.1
867.449	-2.17
867.751	-1.52
868.052	-2.4
868.354	-3.87
868.655	-3.75
868.957	-2.56
869.258	-3.06
869.56	-3.15
869.861	-6.21
870.162	-6.98
870.463	-5.71
870.765	-6.14
871.066	-7.15
871.367	-5.97
871.668	-6.2
871.969	-6.19
872.27	-6.68
872.571	-6.68
872.872	-4.5
873.173	-5.35
873.473	-5.34
873.774	-5.51
874.075	-5.82
874.376	-6.45
874.676	-5.63
874.977	-6.33
875.277	-5.74
875.578	-4.29
875.878	-3.79
876.179	-2.22
876.479	-1.21
876.78	-2.86
877.08	-0.9
877.38	-1.63
877.68	-2.23
877.981	1.06
878.281	2.12
878.581	3.64
