Data from BU58131_Reflection_00003.txt Node
Date: Mon Nov 18 16:32:04 EST 2019
User: vgr7
Spectrometer: USB2G7710
Scans to average: 3
Trigger mode: 4
Integration Time (sec): 2.000000E-2
Electric dark correction enabled: true
Boxcar width: 10
XAxis mode: Wavelengths
Number of Pixels in Spectrum: 2048
>>>>>Begin Spectral Data<<<<<
177.721	-142.81
178.105	85.07
178.488	-99.5
178.871	50.89
179.254	12.71
179.636	-150
180.019	409.39
180.402	100
180.785	251.95
181.168	-161.66
181.55	-10.06
181.933	42.56
182.316	48.28
182.698	58.32
183.081	56.64
183.463	75.76
183.846	58.67
184.228	66.23
184.611	60.82
184.993	78.32
185.376	29.6
185.758	48.62
186.14	41.63
186.522	136.19
186.904	98.78
187.287	82.15
187.669	133.03
188.051	158.02
188.433	300.93
188.815	363.91
189.197	1198.71
189.579	-265.32
189.961	-137.95
190.342	-175.86
190.724	-150.45
191.106	-162.88
191.488	-101.11
191.869	-78.8
192.251	-100.09
192.633	-88.92
193.014	-147.92
193.396	-120.97
193.777	-92.76
194.159	-101.9
194.54	-77.15
194.922	-100.1
195.303	-121.76
195.684	-189.65
196.065	-101.14
196.447	-118.93
196.828	-144.65
197.209	-101.71
197.59	-109.43
197.971	-132.49
198.352	-87.93
198.733	-72.31
199.114	-56.34
199.495	-41.1
199.876	-43.51
200.257	-42.18
200.638	-43.66
201.018	-54.29
201.399	-60.87
201.78	-59.26
202.16	-110.13
202.541	-141.48
202.922	-159.15
203.302	-186.58
203.683	-142.34
204.063	-193.53
204.444	-233.14
204.824	-281.29
205.204	-218.27
205.585	-306.62
205.965	-130.55
206.345	-212.76
206.725	-678.95
207.106	-1235.24
207.486	-5137.11
207.866	1085.01
208.246	22708.7
208.626	1949.37
209.006	-1370.77
209.386	1458.9
209.766	1772.35
210.145	-1323.82
210.525	-293.24
210.905	-256.18
211.285	-226.28
211.664	-220.23
212.044	-161.67
212.424	-97.44
212.803	-72.37
213.183	-84.22
213.562	-70.59
213.942	-105.45
214.321	-87.52
214.701	-79.87
215.08	-74.69
215.459	-81.17
215.838	-63.24
216.218	-62.54
216.597	-62.81
216.976	-69.1
217.355	-48.56
217.734	-55.83
218.113	-45.63
218.492	-44.3
218.871	-51.48
219.25	-35.77
219.629	-41.03
220.008	-56.42
220.387	-56.75
220.766	-58.93
221.144	-79.63
221.523	-91.69
221.902	-72.67
222.28	-69.95
222.659	-68.89
223.037	-66.63
223.416	-77.14
223.794	-77.54
224.173	-77.34
224.551	-74.19
224.929	-74.57
225.308	-57.77
225.686	-43.99
226.064	-44.23
226.442	-40.64
226.821	-28.84
227.199	-28.35
227.577	-26.62
227.955	-17.87
228.333	-20.29
228.711	-15
229.089	-9.95
229.467	-9.74
229.845	-12.14
230.222	-13.77
230.6	-11.11
230.978	-11.34
231.356	-4.4
231.733	-2.94
232.111	-2.57
232.488	-0.69
232.866	1.94
233.243	3.38
233.621	2.68
233.998	4.12
234.376	3.05
234.753	3.71
235.13	3.84
235.508	5.34
235.885	4.89
236.262	4.09
236.639	2.59
237.016	3.32
237.393	4.3
237.77	4.49
238.147	5.51
238.524	5.19
238.901	5.34
239.278	5.28
239.655	5.13
240.032	4.74
240.409	4
240.785	3.95
241.162	4.4
241.539	4.74
241.915	4.27
242.292	4.45
242.668	4.11
243.045	4.09
243.421	4.02
243.798	3.93
244.174	4.09
244.551	3.95
244.927	3.63
245.303	3.88
245.679	4.21
246.056	4.29
246.432	4.41
246.808	4.53
247.184	4.32
247.56	4.29
247.936	4.38
248.312	4.48
248.688	4.4
249.064	4.32
249.44	4.24
249.815	4.29
250.191	4.28
250.567	4.29
250.943	4.19
251.318	4.16
251.694	4.2
252.069	4.34
252.445	4.69
252.82	5.01
253.196	5.07
253.571	4.94
253.947	4.93
254.322	5.02
254.697	4.95
255.073	4.79
255.448	4.72
255.823	4.75
256.198	4.89
256.573	5.05
256.948	5.01
257.323	5.21
257.698	5.2
258.073	5.23
258.448	5.13
258.823	5.27
259.198	5.14
259.573	4.94
259.948	4.68
260.322	4.59
260.697	4.4
261.072	4.34
261.446	4.25
261.821	4.18
262.195	4.21
262.57	4.09
262.944	4.23
263.319	4.17
263.693	4.03
264.067	3.95
264.442	3.76
264.816	3.74
265.19	3.5
265.564	3.37
265.938	3.21
266.313	3.35
266.687	3.23
267.061	3.44
267.435	3.48
267.809	3.54
268.183	3.44
268.556	3.52
268.93	3.65
269.304	3.66
269.678	3.77
270.051	3.53
270.425	3.69
270.799	3.69
271.172	3.86
271.546	3.91
271.919	3.92
272.293	4.05
272.666	3.96
273.04	4.01
273.413	4.05
273.787	4.01
274.16	3.97
274.533	3.81
274.906	3.66
275.279	3.69
275.653	3.66
276.026	3.79
276.399	3.72
276.772	3.73
277.145	3.65
277.518	3.61
277.891	3.89
278.263	3.81
278.636	3.72
279.009	3.54
279.382	3.69
279.755	3.72
280.127	3.87
280.5	4.05
280.872	3.99
281.245	4.12
281.617	4.18
281.99	4.27
282.362	4.47
282.735	4.52
283.107	4.44
283.479	4.56
283.852	4.64
284.224	4.73
284.596	4.48
284.968	4.69
285.34	4.64
285.713	4.39
286.085	4.44
286.457	4.54
286.829	4.71
287.201	4.68
287.572	4.62
287.944	4.55
288.316	4.49
288.688	4.54
289.06	4.44
289.431	4.41
289.803	4.37
290.175	4.32
290.546	4.5
290.918	4.72
291.289	4.76
291.661	4.79
292.032	4.86
292.403	5.03
292.775	4.93
293.146	4.94
293.517	5.05
293.889	5.03
294.26	4.98
294.631	5.01
295.002	5.04
295.373	5.11
295.744	5.07
296.115	5.17
296.486	5.13
296.857	5.2
297.228	5.3
297.599	5.14
297.97	5.23
298.34	5.12
298.711	5.07
299.082	5.06
299.452	4.87
299.823	4.89
300.194	4.77
300.564	4.81
300.935	4.82
301.305	4.72
301.676	4.79
302.046	4.91
302.416	4.9
302.787	5
303.157	5.02
303.527	5.08
303.897	4.91
304.267	5.06
304.637	5.12
305.008	5.28
305.378	5.5
305.748	5.57
306.117	5.53
306.487	5.53
306.857	5.56
307.227	5.77
307.597	5.77
307.967	6.05
308.336	6.12
308.706	6.22
309.076	6.27
309.445	6.31
309.815	6.13
310.184	6.02
310.554	5.86
310.923	5.8
311.293	5.74
311.662	5.81
312.031	5.83
312.401	5.84
312.77	5.62
313.139	5.72
313.508	5.65
313.877	5.76
314.246	5.69
314.616	5.71
314.985	5.56
315.353	5.5
315.722	5.4
316.091	5.27
316.46	5.28
316.829	5.37
317.198	5.39
317.567	5.48
317.935	5.53
318.304	5.56
318.672	5.6
319.041	5.75
319.41	5.69
319.778	5.82
320.147	5.8
320.515	5.91
320.883	5.81
321.252	5.84
321.62	5.76
321.988	5.87
322.357	5.78
322.725	5.85
323.093	6
323.461	5.91
323.829	5.95
324.197	5.83
324.565	5.76
324.933	5.59
325.301	5.61
325.669	5.58
326.037	5.59
326.405	5.62
326.772	5.6
327.14	5.74
327.508	5.5
327.875	5.42
328.243	5.38
328.61	5.37
328.978	5.43
329.346	5.36
329.713	5.33
330.08	5.24
330.448	5.25
330.815	5.07
331.182	5.06
331.55	4.97
331.917	5.09
332.284	5.21
332.651	5.28
333.018	5.26
333.385	5.38
333.752	5.44
334.119	5.42
334.486	5.4
334.853	5.27
335.22	5.33
335.587	5.41
335.954	5.39
336.32	5.37
336.687	5.3
337.054	5.37
337.42	5.43
337.787	5.6
338.153	5.61
338.52	5.62
338.886	5.62
339.253	5.72
339.619	5.62
339.986	5.6
340.352	5.69
340.718	5.7
341.084	5.65
341.451	5.66
341.817	5.64
342.183	5.67
342.549	5.63
342.915	5.75
343.281	5.78
343.647	5.75
344.013	5.73
344.379	5.67
344.745	5.65
345.11	5.62
345.476	5.57
345.842	5.58
346.208	5.61
346.573	5.64
346.939	5.56
347.304	5.58
347.67	5.45
348.035	5.4
348.401	5.49
348.766	5.4
349.132	5.37
349.497	5.35
349.862	5.39
350.228	5.48
350.593	5.33
350.958	5.27
351.323	5.31
351.688	5.35
352.053	5.46
352.418	5.44
352.783	5.44
353.148	5.42
353.513	5.38
353.878	5.33
354.243	5.4
354.608	5.43
354.972	5.5
355.337	5.57
355.702	5.51
356.066	5.43
356.431	5.44
356.795	5.48
357.16	5.52
357.524	5.45
357.889	5.43
358.253	5.45
358.618	5.54
358.982	5.54
359.346	5.5
359.71	5.47
360.075	5.53
360.439	5.52
360.803	5.54
361.167	5.56
361.531	5.59
361.895	5.56
362.259	5.55
362.623	5.53
362.987	5.51
363.351	5.59
363.714	5.61
364.078	5.58
364.442	5.52
364.806	5.5
365.169	5.54
365.533	5.53
365.896	5.55
366.26	5.44
366.623	5.41
366.987	5.43
367.35	5.4
367.714	5.37
368.077	5.33
368.44	5.31
368.803	5.28
369.167	5.25
369.53	5.24
369.893	5.29
370.256	5.27
370.619	5.33
370.982	5.22
371.345	5.27
371.708	5.33
372.071	5.34
372.434	5.37
372.797	5.35
373.159	5.31
373.522	5.31
373.885	5.42
374.247	5.52
374.61	5.57
374.973	5.58
375.335	5.51
375.698	5.56
376.06	5.58
376.423	5.54
376.785	5.58
377.147	5.59
377.51	5.55
377.872	5.58
378.234	5.55
378.596	5.59
378.958	5.51
379.321	5.51
379.683	5.53
380.045	5.51
380.407	5.49
380.769	5.53
381.13	5.5
381.492	5.43
381.854	5.38
382.216	5.31
382.578	5.33
382.939	5.38
383.301	5.35
383.663	5.31
384.024	5.37
384.386	5.41
384.747	5.43
385.109	5.44
385.47	5.4
385.832	5.41
386.193	5.45
386.554	5.46
386.916	5.44
387.277	5.43
387.638	5.46
387.999	5.48
388.36	5.46
388.721	5.49
389.082	5.53
389.443	5.52
389.804	5.49
390.165	5.47
390.526	5.45
390.887	5.45
391.248	5.47
391.609	5.45
391.969	5.44
392.33	5.4
392.691	5.41
393.051	5.42
393.412	5.41
393.772	5.35
394.133	5.37
394.493	5.38
394.854	5.37
395.214	5.36
395.574	5.33
395.935	5.3
396.295	5.3
396.655	5.24
397.015	5.24
397.376	5.25
397.736	5.23
398.096	5.26
398.456	5.28
398.816	5.29
399.176	5.26
399.535	5.23
399.895	5.21
400.255	5.18
400.615	5.21
400.975	5.24
401.334	5.25
401.694	5.22
402.054	5.17
402.413	5.17
402.773	5.12
403.132	5.1
403.492	5.11
403.851	5.07
404.211	5.09
404.57	5.07
404.929	5.06
405.288	5.05
405.648	5.02
406.007	4.98
406.366	5
406.725	5.04
407.084	5.06
407.443	5.08
407.802	5.09
408.161	5.06
408.52	5.04
408.879	5.03
409.238	5.03
409.596	5.09
409.955	5.08
410.314	5.12
410.673	5.1
411.031	5.11
411.39	5.1
411.748	5.1
412.107	5.12
412.465	5.13
412.824	5.13
413.182	5.15
413.54	5.15
413.899	5.1
414.257	5.04
414.615	4.99
414.974	5
415.332	4.98
415.69	4.98
416.048	4.95
416.406	4.96
416.764	4.96
417.122	4.95
417.48	4.92
417.838	4.9
418.195	4.91
418.553	4.89
418.911	4.88
419.269	4.89
419.626	4.86
419.984	4.85
420.342	4.85
420.699	4.83
421.057	4.84
421.414	4.84
421.772	4.84
422.129	4.85
422.486	4.85
422.844	4.85
423.201	4.82
423.558	4.84
423.915	4.82
424.273	4.81
424.63	4.79
424.987	4.78
425.344	4.79
425.701	4.77
426.058	4.78
426.415	4.78
426.772	4.75
427.128	4.76
427.485	4.77
427.842	4.75
428.199	4.77
428.555	4.73
428.912	4.73
429.269	4.73
429.625	4.72
429.982	4.67
430.338	4.67
430.695	4.69
431.051	4.68
431.407	4.69
431.764	4.67
432.12	4.67
432.476	4.67
432.832	4.64
433.189	4.66
433.545	4.65
433.901	4.65
434.257	4.64
434.613	4.66
434.969	4.66
435.325	4.65
435.681	4.66
436.036	4.68
436.392	4.65
436.748	4.65
437.104	4.64
437.459	4.66
437.815	4.67
438.171	4.66
438.526	4.67
438.882	4.65
439.237	4.67
439.593	4.67
439.948	4.68
440.304	4.7
440.659	4.69
441.014	4.7
441.369	4.69
441.725	4.71
442.08	4.71
442.435	4.68
442.79	4.69
443.145	4.67
443.5	4.68
443.855	4.68
444.21	4.68
444.565	4.68
444.92	4.67
445.275	4.66
445.629	4.67
445.984	4.65
446.339	4.66
446.693	4.63
447.048	4.63
447.403	4.63
447.757	4.62
448.112	4.61
448.466	4.59
448.82	4.59
449.175	4.58
449.529	4.54
449.883	4.55
450.238	4.54
450.592	4.54
450.946	4.5
451.3	4.49
451.654	4.51
452.008	4.51
452.362	4.51
452.716	4.49
453.07	4.5
453.424	4.47
453.778	4.45
454.132	4.47
454.486	4.44
454.839	4.42
455.193	4.41
455.547	4.42
455.9	4.43
456.254	4.44
456.607	4.44
456.961	4.44
457.314	4.45
457.668	4.46
458.021	4.46
458.375	4.47
458.728	4.49
459.081	4.47
459.434	4.46
459.787	4.45
460.141	4.46
460.494	4.44
460.847	4.44
461.2	4.45
461.553	4.46
461.906	4.49
462.259	4.5
462.611	4.52
462.964	4.52
463.317	4.52
463.67	4.53
464.022	4.53
464.375	4.54
464.728	4.54
465.08	4.52
465.433	4.53
465.785	4.53
466.138	4.53
466.49	4.55
466.843	4.57
467.195	4.58
467.547	4.59
467.899	4.61
468.252	4.64
468.604	4.67
468.956	4.67
469.308	4.68
469.66	4.68
470.012	4.68
470.364	4.68
470.716	4.68
471.068	4.67
471.42	4.68
471.772	4.69
472.123	4.7
472.475	4.71
472.827	4.71
473.178	4.75
473.53	4.74
473.882	4.73
474.233	4.73
474.585	4.7
474.936	4.67
475.288	4.67
475.639	4.66
475.99	4.65
476.342	4.66
476.693	4.64
477.044	4.64
477.395	4.62
477.746	4.63
478.097	4.63
478.448	4.63
478.8	4.63
479.15	4.63
479.501	4.64
479.852	4.64
480.203	4.65
480.554	4.65
480.905	4.67
481.255	4.66
481.606	4.67
481.957	4.69
482.307	4.71
482.658	4.71
483.009	4.72
483.359	4.72
483.709	4.72
484.06	4.73
484.41	4.73
484.761	4.73
485.111	4.74
485.461	4.75
485.811	4.75
486.162	4.75
486.512	4.76
486.862	4.76
487.212	4.76
487.562	4.75
487.912	4.76
488.262	4.75
488.612	4.76
488.961	4.75
489.311	4.74
489.661	4.74
490.011	4.72
490.36	4.71
490.71	4.7
491.06	4.71
491.409	4.7
491.759	4.7
492.108	4.7
492.458	4.69
492.807	4.68
493.157	4.69
493.506	4.69
493.855	4.68
494.204	4.67
494.554	4.68
494.903	4.68
495.252	4.69
495.601	4.7
495.95	4.71
496.299	4.72
496.648	4.74
496.997	4.74
497.346	4.77
497.695	4.78
498.043	4.78
498.392	4.79
498.741	4.8
499.09	4.8
499.438	4.81
499.787	4.84
500.135	4.86
500.484	4.86
500.832	4.88
501.181	4.91
501.529	4.93
501.878	4.94
502.226	4.95
502.574	4.95
502.923	4.94
503.271	4.94
503.619	4.96
503.967	4.96
504.315	4.97
504.663	4.98
505.011	5
505.359	5.01
505.707	5.03
506.055	5.04
506.403	5.06
506.751	5.1
507.098	5.1
507.446	5.12
507.794	5.13
508.141	5.15
508.489	5.16
508.837	5.16
509.184	5.18
509.531	5.19
509.879	5.22
510.226	5.25
510.574	5.25
510.921	5.25
511.268	5.25
511.616	5.28
511.963	5.31
512.31	5.35
512.657	5.38
513.004	5.39
513.351	5.41
513.698	5.4
514.045	5.39
514.392	5.4
514.739	5.41
515.086	5.45
515.432	5.46
515.779	5.46
516.126	5.48
516.473	5.49
516.819	5.5
517.166	5.51
517.512	5.52
517.859	5.54
518.205	5.53
518.552	5.57
518.898	5.56
519.245	5.57
519.591	5.55
519.937	5.53
520.283	5.53
520.629	5.55
520.976	5.57
521.322	5.57
521.668	5.57
522.014	5.59
522.36	5.59
522.706	5.61
523.052	5.63
523.398	5.66
523.743	5.68
524.089	5.71
524.435	5.68
524.781	5.7
525.126	5.71
525.472	5.75
525.817	5.76
526.163	5.78
526.509	5.78
526.854	5.8
527.199	5.82
527.545	5.82
527.89	5.81
528.235	5.83
528.581	5.84
528.926	5.85
529.271	5.85
529.616	5.85
529.961	5.86
530.306	5.86
530.651	5.85
530.996	5.84
531.341	5.84
531.686	5.86
532.031	5.86
532.376	5.88
532.721	5.87
533.065	5.87
533.41	5.88
533.755	5.89
534.099	5.88
534.444	5.88
534.788	5.92
535.133	5.94
535.477	5.95
535.822	5.96
536.166	5.97
536.51	5.98
536.855	5.99
537.199	5.99
537.543	5.98
537.887	5.99
538.231	5.99
538.576	6.01
538.92	6.03
539.264	6.05
539.608	6.06
539.951	6.06
540.295	6.07
540.639	6.08
540.983	6.08
541.327	6.08
541.671	6.09
542.014	6.06
542.358	6.07
542.701	6.06
543.045	6.07
543.389	6.08
543.732	6.06
544.075	6.07
544.419	6.06
544.762	6.1
545.105	6.12
545.449	6.14
545.792	6.13
546.135	6.12
546.478	6.11
546.821	6.09
547.165	6.09
547.508	6.1
547.851	6.08
548.194	6.07
548.536	6.07
548.879	6.05
549.222	6.06
549.565	6.03
549.908	6.04
550.25	6.02
550.593	5.99
550.936	5.99
551.278	6.03
551.621	6.08
551.963	6.04
552.306	6.03
552.648	6.01
552.991	6
553.333	5.99
553.675	5.99
554.017	6
554.36	6
554.702	5.98
555.044	6
555.386	6.01
555.728	6.02
556.07	6.05
556.412	6.09
556.754	6.1
557.096	6.11
557.438	6.13
557.78	6.14
558.121	6.18
558.463	6.19
558.805	6.15
559.147	6.14
559.488	6.14
559.83	6.17
560.171	6.18
560.513	6.19
560.854	6.21
561.196	6.2
561.537	6.23
561.878	6.23
562.22	6.22
562.561	6.23
562.902	6.25
563.243	6.22
563.584	6.21
563.925	6.22
564.266	6.2
564.607	6.17
564.948	6.16
565.289	6.17
565.63	6.11
565.971	6.13
566.312	6.12
566.653	6.12
566.993	6.1
567.334	6.11
567.675	6.11
568.015	6.11
568.356	6.13
568.696	6.13
569.037	6.15
569.377	6.18
569.718	6.21
570.058	6.22
570.398	6.23
570.739	6.24
571.079	6.23
571.419	6.26
571.759	6.3
572.099	6.31
572.439	6.29
572.779	6.32
573.119	6.32
573.459	6.36
573.799	6.39
574.139	6.38
574.479	6.39
574.819	6.4
575.158	6.43
575.498	6.42
575.838	6.42
576.177	6.4
576.517	6.38
576.856	6.38
577.196	6.37
577.535	6.41
577.875	6.39
578.214	6.37
578.553	6.4
578.893	6.38
579.232	6.41
579.571	6.42
579.91	6.45
580.25	6.45
580.589	6.43
580.928	6.37
581.267	6.4
581.606	6.36
581.945	6.37
582.283	6.35
582.622	6.33
582.961	6.32
583.3	6.33
583.639	6.36
583.977	6.36
584.316	6.33
584.654	6.32
584.993	6.33
585.332	6.37
585.67	6.36
586.008	6.37
586.347	6.33
586.685	6.32
587.024	6.32
587.362	6.32
587.7	6.3
588.038	6.37
588.376	6.38
588.715	6.41
589.053	6.39
589.391	6.43
589.729	6.45
590.067	6.44
590.404	6.47
590.742	6.46
591.08	6.42
591.418	6.41
591.756	6.37
592.093	6.39
592.431	6.38
592.769	6.31
593.106	6.3
593.444	6.3
593.781	6.29
594.119	6.29
594.456	6.29
594.793	6.31
595.131	6.31
595.468	6.33
595.805	6.33
596.143	6.32
596.48	6.34
596.817	6.33
597.154	6.36
597.491	6.35
597.828	6.37
598.165	6.4
598.502	6.4
598.839	6.44
599.176	6.42
599.512	6.44
599.849	6.47
600.186	6.49
600.523	6.51
600.859	6.55
601.196	6.57
601.532	6.56
601.869	6.53
602.205	6.51
602.542	6.5
602.878	6.49
603.215	6.51
603.551	6.45
603.887	6.42
604.223	6.42
604.56	6.45
604.896	6.42
605.232	6.44
605.568	6.47
605.904	6.46
606.24	6.48
606.576	6.45
606.912	6.44
607.248	6.43
607.583	6.43
607.919	6.41
608.255	6.39
608.591	6.41
608.926	6.46
609.262	6.5
609.597	6.5
609.933	6.49
610.268	6.51
610.604	6.56
610.939	6.58
611.275	6.55
611.61	6.47
611.945	6.49
612.281	6.47
612.616	6.46
612.951	6.47
613.286	6.47
613.621	6.53
613.956	6.53
614.291	6.52
614.626	6.52
614.961	6.49
615.296	6.45
615.631	6.48
615.966	6.46
616.3	6.36
616.635	6.36
616.97	6.39
617.304	6.36
617.639	6.35
617.973	6.36
618.308	6.41
618.642	6.47
618.977	6.46
619.311	6.49
619.646	6.5
619.98	6.49
620.314	6.5
620.648	6.44
620.983	6.45
621.317	6.46
621.651	6.49
621.985	6.53
622.319	6.57
622.653	6.55
622.987	6.57
623.321	6.6
623.655	6.59
623.988	6.59
624.322	6.6
624.656	6.58
624.99	6.58
625.323	6.59
625.657	6.56
625.99	6.53
626.324	6.52
626.657	6.48
626.991	6.47
627.324	6.44
627.658	6.44
627.991	6.49
628.324	6.51
628.657	6.48
628.991	6.48
629.324	6.47
629.657	6.43
629.99	6.46
630.323	6.49
630.656	6.55
630.989	6.55
631.322	6.53
631.655	6.54
631.987	6.52
632.32	6.53
632.653	6.54
632.986	6.56
633.318	6.57
633.651	6.61
633.984	6.64
634.316	6.65
634.649	6.7
634.981	6.61
635.313	6.62
635.646	6.63
635.978	6.64
636.31	6.67
636.643	6.66
636.975	6.65
637.307	6.58
637.639	6.52
637.971	6.51
638.303	6.53
638.635	6.56
638.967	6.6
639.299	6.61
639.631	6.62
639.963	6.6
640.295	6.6
640.626	6.6
640.958	6.62
641.29	6.66
641.621	6.62
641.953	6.65
642.285	6.6
642.616	6.65
642.948	6.61
643.279	6.57
643.61	6.61
643.942	6.54
644.273	6.54
644.604	6.55
644.936	6.55
645.267	6.54
645.598	6.51
645.929	6.53
646.26	6.49
646.591	6.48
646.922	6.49
647.253	6.5
647.584	6.46
647.915	6.42
648.245	6.36
648.576	6.41
648.907	6.45
649.238	6.43
649.568	6.38
649.899	6.4
650.229	6.46
650.56	6.45
650.89	6.5
651.221	6.56
651.551	6.56
651.882	6.58
652.212	6.56
652.542	6.57
652.872	6.48
653.203	6.43
653.533	6.45
653.863	6.44
654.193	6.44
654.523	6.43
654.853	6.51
655.183	6.5
655.513	6.47
655.843	6.42
656.172	6.46
656.502	6.53
656.832	6.57
657.162	6.53
657.491	6.54
657.821	6.55
658.15	6.51
658.48	6.55
658.809	6.56
659.139	6.56
659.468	6.56
659.798	6.62
660.127	6.73
660.456	6.74
660.785	6.8
661.115	6.82
661.444	6.87
661.773	6.83
662.102	6.88
662.431	6.96
662.76	6.98
663.089	6.96
663.418	6.9
663.747	6.83
664.076	6.81
664.404	6.86
664.733	6.91
665.062	6.98
665.39	6.97
665.719	6.98
666.048	7
666.376	7.04
666.705	7.06
667.033	7.03
667.362	6.99
667.69	6.86
668.018	6.84
668.347	6.84
668.675	6.82
669.003	6.89
669.331	6.87
669.659	6.8
669.987	6.78
670.315	6.79
670.643	6.85
670.971	6.92
671.299	6.9
671.627	6.85
671.955	6.83
672.283	6.77
672.61	6.71
672.938	6.71
673.266	6.75
673.593	6.77
673.921	6.65
674.249	6.72
674.576	6.8
674.904	6.79
675.231	6.8
675.558	6.82
675.886	6.71
676.213	6.68
676.54	6.8
676.867	6.84
677.195	6.85
677.522	6.8
677.849	6.79
678.176	6.75
678.503	6.78
678.83	6.74
679.157	6.65
679.484	6.67
679.81	6.63
680.137	6.54
680.464	6.57
680.791	6.58
681.117	6.51
681.444	6.51
681.771	6.51
682.097	6.46
682.424	6.48
682.75	6.5
683.077	6.57
683.403	6.48
683.729	6.46
684.056	6.45
684.382	6.44
684.708	6.32
685.034	6.28
685.36	6.24
685.686	6.3
686.012	6.41
686.339	6.45
686.664	6.49
686.99	6.53
687.316	6.43
687.642	6.51
687.968	6.58
688.294	6.75
688.619	6.78
688.945	6.81
689.271	6.81
689.596	6.74
689.922	6.65
690.247	6.69
690.573	6.7
690.898	6.76
691.224	6.83
691.549	6.94
691.874	6.96
692.2	6.95
692.525	6.87
692.85	6.85
693.175	6.88
693.5	6.92
693.825	6.85
694.15	6.99
694.475	6.99
694.8	7
695.125	6.82
695.45	6.76
695.775	6.71
696.099	6.75
696.424	6.79
696.749	6.79
697.073	6.8
697.398	6.79
697.723	6.76
698.047	6.77
698.372	6.78
698.696	6.84
699.02	6.84
699.345	6.87
699.669	6.95
699.993	6.98
700.318	6.98
700.642	7.02
700.966	6.84
701.29	6.82
701.614	6.85
701.938	6.97
702.262	7.08
702.586	7.21
702.91	7.11
703.234	7.22
703.557	7.24
703.881	7.15
704.205	7.26
704.529	7.17
704.852	7.2
705.176	7.25
705.499	7.29
705.823	7.21
706.146	7.17
706.47	7.08
706.793	6.96
707.117	6.94
707.44	6.85
707.763	6.95
708.086	6.97
708.409	7
708.733	6.93
709.056	6.9
709.379	6.94
709.702	6.82
710.025	6.75
710.348	6.81
710.671	6.91
710.993	6.79
711.316	6.86
711.639	6.76
711.962	6.7
712.284	6.62
712.607	6.7
712.93	6.88
713.252	6.95
713.575	7.03
713.897	6.92
714.22	7
714.542	7.12
714.864	7.1
715.187	7.06
715.509	7.13
715.831	7.07
716.153	6.98
716.475	7.13
716.798	7.34
717.12	7.27
717.442	7.31
717.764	7.29
718.085	7.3
718.407	7.32
718.729	7.31
719.051	7.36
719.373	7.3
719.695	7.15
720.016	7.11
720.338	7.15
720.659	7.16
720.981	7.11
721.302	7.12
721.624	7.12
721.945	7.07
722.267	6.85
722.588	6.91
722.909	6.81
723.231	6.82
723.552	6.47
723.873	6.43
724.194	6.37
724.515	6.44
724.836	6.62
725.157	6.79
725.478	6.82
725.799	6.96
726.12	7.06
726.441	7.15
726.762	7.34
727.083	7.27
727.403	7.37
727.724	7.61
728.045	7.59
728.365	7.41
728.686	7.4
729.006	7.44
729.327	7.33
729.647	7.25
729.967	7.16
730.288	7.27
730.608	7.39
730.928	7.45
731.249	7.55
731.569	7.49
731.889	7.46
732.209	7.54
732.529	7.35
732.849	7.34
733.169	7.32
733.489	7.07
733.809	7.03
734.129	6.99
734.448	6.92
734.768	6.9
735.088	7.25
735.408	7.29
735.727	7.51
736.047	7.57
736.366	7.63
736.686	7.5
737.005	7.51
737.325	7.33
737.644	7.37
737.963	7.16
738.283	6.91
738.602	7.01
738.921	6.9
739.24	6.92
739.56	6.97
739.879	7.11
740.198	7.26
740.517	7.3
740.836	7.51
741.155	7.52
741.473	7.38
741.792	7.14
742.111	7.23
742.43	7.08
742.748	6.99
743.067	7.2
743.386	7.53
743.704	7.5
744.023	7.84
744.341	7.62
744.66	7.82
744.978	7.86
745.297	7.94
745.615	7.92
745.933	8.07
746.252	8.23
746.57	7.92
746.888	7.8
747.206	7.75
747.524	7.62
747.842	7.55
748.16	7.83
748.478	7.98
748.796	7.85
749.114	7.82
749.432	7.94
749.749	7.8
750.067	7.57
750.385	7.72
750.703	7.4
751.02	7.58
751.338	7.49
751.655	7.6
751.973	7.37
752.29	7.59
752.608	7.45
752.925	7.26
753.242	7.37
753.56	7.31
753.877	7.56
754.194	7.67
754.511	7.82
754.828	7.56
755.145	7.26
755.462	7.18
755.779	7.22
756.096	7.33
756.413	7.48
756.73	7.85
757.047	7.89
757.364	7.91
757.68	7.86
757.997	7.9
758.314	7.92
758.63	8.02
758.947	7.76
759.264	7.61
759.58	7.57
759.896	7.72
760.213	7.84
760.529	7.79
760.846	7.63
761.162	7.59
761.478	7.74
761.794	7.73
762.11	7.87
762.426	7.9
762.743	7.74
763.059	7.65
763.375	7.61
763.69	7.47
764.006	7.71
764.322	7.78
764.638	7.85
764.954	8.01
765.27	7.79
765.585	7.82
765.901	8.05
766.216	8.17
766.532	7.82
766.848	7.8
767.163	7.77
767.478	7.84
767.794	7.9
768.109	7.68
768.424	7.91
768.74	7.93
769.055	7.86
769.37	8.03
769.685	7.97
770	8.23
770.315	8.31
770.63	8.12
770.945	8.16
771.26	7.91
771.575	7.79
771.89	7.98
772.205	8.07
772.52	7.79
772.834	7.5
773.149	8.16
773.464	8.41
773.778	8.61
774.093	8.4
774.407	8.21
774.722	8.39
775.036	8.3
775.351	8.35
775.665	8.17
775.979	8.15
776.293	8.21
776.608	7.76
776.922	7.51
777.236	7.53
777.55	7.43
777.864	7.86
778.178	7.85
778.492	8.23
778.806	8.35
779.12	8.64
779.434	9.02
779.747	8.77
780.061	8.51
780.375	8.26
780.689	8.55
781.002	8.33
781.316	8.25
781.629	8.27
781.943	8.2
782.256	8.37
782.57	8.15
782.883	8.14
783.196	8.1
783.51	8.08
783.823	8.19
784.136	8.48
784.449	8.31
784.762	8.16
785.075	7.55
785.388	7.2
785.701	7.25
786.014	6.64
786.327	6.24
786.64	6.46
786.953	6.49
787.266	6.04
787.578	6.08
787.891	6.27
788.204	6.57
788.516	6.85
788.829	7.23
789.141	7.5
789.454	7.3
789.766	7.54
790.079	7.65
790.391	7.27
790.703	7.04
791.016	6.93
791.328	7.12
791.64	7.01
791.952	7.27
792.264	6.62
792.576	7.02
792.888	7.69
793.2	7.7
793.512	7.88
793.824	8.17
794.136	8.27
794.448	8.25
794.76	8.32
795.071	8.26
795.383	7.7
795.695	7.52
796.006	7.41
796.318	7.57
796.629	7.56
796.941	7.98
797.252	8.08
797.564	7.98
797.875	7.7
798.186	7.67
798.497	7.42
798.809	7.61
799.12	7.84
799.431	7.13
799.742	6.84
800.053	6.93
800.364	7.03
800.675	7.3
800.986	7.27
801.297	6.7
801.608	6.48
801.918	6.58
802.229	6.86
802.54	7.37
802.851	6.9
803.161	7.09
803.472	7.08
803.782	7.21
804.093	7.37
804.403	7.47
804.714	7.99
805.024	7.98
805.334	8.66
805.645	8.45
805.955	9.35
806.265	9.73
806.575	9.3
806.885	9.21
807.195	8.98
807.505	9.08
807.815	9.69
808.125	9.1
808.435	9.69
808.745	10.03
809.055	9.85
809.365	10.06
809.674	10.28
809.984	10.51
810.294	10.6
810.603	11.01
810.913	11.21
811.222	11.3
811.532	11.77
811.841	11.8
812.151	12.4
812.46	12.07
812.769	11.86
813.079	12.02
813.388	11.82
813.697	12.12
814.006	11.55
814.315	11.43
814.624	11.22
814.933	11.51
815.242	10.59
815.551	11.28
815.86	11.45
816.169	10.98
816.478	10.37
816.786	10.03
817.095	9.85
817.404	10.09
817.712	9.87
818.021	9.55
818.33	9.02
818.638	8.77
818.947	9.2
819.255	9.45
819.563	9.07
819.872	9.35
820.18	9.6
820.488	9.64
820.796	9.61
821.105	9.83
821.413	9.66
821.721	9.8
822.029	9.76
822.337	9.77
822.645	9.84
822.953	9.77
823.26	9.93
823.568	9.84
823.876	9.85
824.184	9.84
824.491	9.97
824.799	9.97
825.107	9.89
825.414	9.77
825.722	9.8
826.029	10.14
826.337	10.22
826.644	10.27
826.951	10.28
827.259	10.29
827.566	10.25
827.873	10.06
828.18	10.05
828.488	9.96
828.795	9.76
829.102	9.69
829.409	10.01
829.716	9.76
830.023	9.78
830.329	9.6
830.636	9.8
830.943	9.59
831.25	9.87
831.557	9.88
831.863	9.89
832.17	9.66
832.476	9.54
832.783	9.64
833.089	9.08
833.396	9.43
833.702	9.72
834.009	9.99
834.315	10.31
834.621	10.36
834.928	10.37
835.234	10.48
835.54	10.71
835.846	10.22
836.152	10.38
836.458	10.3
836.764	10.25
837.07	9.82
837.376	9.85
837.682	9.72
837.988	9.28
838.293	9.24
838.599	9.1
838.905	8.29
839.211	7.41
839.516	7.85
839.822	7.82
840.127	7.05
840.433	6.42
840.738	5.98
841.044	5.13
841.349	5.15
841.654	5.38
841.959	5.35
842.265	6.11
842.57	5.75
842.875	5.03
843.18	5.01
843.485	5.75
843.79	5.67
844.095	5.39
844.4	7.29
844.705	7.22
845.01	7.91
845.315	9.05
845.619	8.83
845.924	8.64
846.229	8.1
846.533	7.68
846.838	8.78
847.142	10.01
847.447	9.89
847.751	9.96
848.056	7.39
848.36	6.73
848.664	6.68
848.969	6.97
849.273	8.11
849.577	7.7
849.881	7.53
850.185	7.84
850.489	9.18
850.794	6.97
851.097	7.14
851.401	7.88
851.705	5.75
852.009	6.97
852.313	5.69
852.617	5.41
852.92	7.49
853.224	5.35
853.528	6.05
853.831	6.29
854.135	5.37
854.438	9.25
854.742	8.84
855.045	8.68
855.349	9.14
855.652	9.64
855.955	10.56
856.259	10.99
856.562	10.58
856.865	8.84
857.168	9.11
857.471	9.48
857.774	6.6
858.077	8.71
858.38	10.94
858.683	10.45
858.986	10.24
859.289	10.16
859.592	11.17
859.894	8.73
860.197	8.46
860.5	8.45
860.802	6.69
861.105	7.17
861.407	5.71
861.71	6.21
862.012	6.01
862.315	5.23
862.617	3.65
862.919	5.14
863.222	6.43
863.524	5.55
863.826	5.37
864.128	8.43
864.43	7.3
864.732	4.91
865.034	5.99
865.336	5.4
865.638	3.32
865.94	1.73
866.242	0.95
866.544	2.4
866.846	2.49
867.147	2.83
867.449	4.18
867.751	6
868.052	4.38
868.354	4.49
868.655	4.82
868.957	2.33
869.258	-0.89
869.56	-1.94
869.861	0.08
870.162	-3.33
870.463	-5.25
870.765	-6.1
871.066	-7.49
871.367	-8.76
871.668	-7.4
871.969	-7.49
872.27	-6.07
872.571	-3.96
872.872	-2.96
873.173	-1.26
873.473	-0.89
873.774	-3.24
874.075	-2.37
874.376	-2.99
874.676	-0.38
874.977	-0.71
875.277	2.37
875.578	3.97
875.878	3.35
876.179	3.01
876.479	5.82
876.78	5.31
877.08	7.43
877.38	9.63
877.68	13.19
877.981	13.45
878.281	14.56
878.581	16.89
