Data from BU58129_Reflection_00006.txt Node
Date: Mon Nov 18 16:35:01 EST 2019
User: vgr7
Spectrometer: USB2G7710
Scans to average: 3
Trigger mode: 4
Integration Time (sec): 2.000000E-2
Electric dark correction enabled: true
Boxcar width: 10
XAxis mode: Wavelengths
Number of Pixels in Spectrum: 2048
>>>>>Begin Spectral Data<<<<<
177.721	63.78
178.105	82.91
178.488	14.7
178.871	252.78
179.254	-479.71
179.636	79.91
180.019	158.48
180.402	145
180.785	-125.54
181.168	-336.51
181.55	-178.39
181.933	23.37
182.316	48.91
182.698	57.76
183.081	54.35
183.463	-0.75
183.846	-77.55
184.228	-301.18
184.611	-2655.56
184.993	175.17
185.376	103.52
185.758	170.41
186.14	240.65
186.522	193.29
186.904	1067.32
187.287	-1170.44
187.669	376.34
188.051	-793.77
188.433	-862.96
188.815	-1819.19
189.197	-626.07
189.579	-1015.15
189.961	-1419.38
190.342	-367.71
190.724	-995.79
191.106	-1345.89
191.488	-260.45
191.869	-180.55
192.251	-99.91
192.633	-53.47
193.014	-41.08
193.396	-55.58
193.777	-38.62
194.159	-29.27
194.54	-28.64
194.922	-59.71
195.303	-63.65
195.684	-67.03
196.065	-130.34
196.447	-159.97
196.828	-289.8
197.209	-224.46
197.59	-319.41
197.971	-255.56
198.352	902.26
198.733	-589.14
199.114	1061.24
199.495	156.09
199.876	268.81
200.257	207.59
200.638	150.15
201.018	160.37
201.399	152.47
201.78	145.18
202.16	118.93
202.541	162.64
202.922	249.66
203.302	109.39
203.683	193.42
204.063	861.9
204.444	2213.82
204.824	1177.63
205.204	16633.33
205.585	1422.4
205.965	719.61
206.345	1787.07
206.725	1425.49
207.106	415.91
207.486	427.18
207.866	651.21
208.246	1743.19
208.626	778.94
209.006	7611.11
209.386	1472.55
209.766	526
210.145	859.91
210.525	-1627.89
210.905	-3821.57
211.285	-277.01
211.664	-61.62
212.044	3.27
212.424	82.57
212.803	317.05
213.183	-30.51
213.562	-93.06
213.942	-109.28
214.321	-176.42
214.701	-231.31
215.08	-131.11
215.459	-186.72
215.838	-132.39
216.218	-225.63
216.597	-80.43
216.976	-139.32
217.355	-89.3
217.734	-43.27
218.113	9.91
218.492	-12.56
218.871	-33.48
219.25	-22.72
219.629	-21.7
220.008	-24.76
220.387	-29.38
220.766	-41.64
221.144	-46.1
221.523	-32.85
221.902	-64.21
222.28	-34.9
222.659	-16.49
223.037	-14.52
223.416	-3.33
223.794	-13.64
224.173	-0.51
224.551	-2.32
224.929	6.76
225.308	2.6
225.686	8.38
226.064	0.01
226.442	3.35
226.821	4.02
227.199	5.85
227.577	4.81
227.955	5.96
228.333	7.98
228.711	12.64
229.089	17.7
229.467	17.49
229.845	17.89
230.222	15.96
230.6	16.17
230.978	14.83
231.356	15.68
231.733	16.43
232.111	13.2
232.488	12.5
232.866	11.03
233.243	10.23
233.621	6.78
233.998	8.66
234.376	7.57
234.753	9
235.13	7.59
235.508	7.49
235.885	6.49
236.262	5.44
236.639	3.26
237.016	1.38
237.393	1.87
237.77	2.59
238.147	3.8
238.524	3.96
238.901	4.84
239.278	4.59
239.655	4.96
240.032	5.25
240.409	5.54
240.785	5.32
241.162	5.15
241.539	6.22
241.915	6.15
242.292	6.09
242.668	5.87
243.045	6.01
243.421	5.8
243.798	5.7
244.174	5.77
244.551	6.09
244.927	5.81
245.303	5.73
245.679	5.97
246.056	5.69
246.432	5.76
246.808	5.63
247.184	5.61
247.56	5.55
247.936	5.4
248.312	5.26
248.688	5.37
249.064	5.35
249.44	5.01
249.815	4.78
250.191	4.63
250.567	4.66
250.943	4.33
251.318	4.38
251.694	4.58
252.069	4.29
252.445	3.95
252.82	4.14
253.196	4.18
253.571	3.7
253.947	3.83
254.322	3.9
254.697	3.76
255.073	3.44
255.448	3.36
255.823	3.52
256.198	3.67
256.573	3.64
256.948	3.82
257.323	4.13
257.698	4.24
258.073	4.33
258.448	4.24
258.823	4.36
259.198	4.4
259.573	4.29
259.948	4.28
260.322	4.27
260.697	4.3
261.072	4.27
261.446	4.39
261.821	4.38
262.195	4.5
262.57	4.56
262.944	4.65
263.319	4.48
263.693	4.49
264.067	4.48
264.442	4.58
264.816	4.35
265.19	4.32
265.564	4.36
265.938	4.26
266.313	4.36
266.687	4.34
267.061	4.42
267.435	4.53
267.809	4.72
268.183	4.67
268.556	4.57
268.93	4.39
269.304	4.54
269.678	4.55
270.051	4.32
270.425	4.34
270.799	4.4
271.172	4.46
271.546	4.51
271.919	4.46
272.293	4.46
272.666	4.63
273.04	4.61
273.413	4.52
273.787	4.69
274.16	4.64
274.533	4.71
274.906	4.46
275.279	4.47
275.653	4.44
276.026	4.51
276.399	4.33
276.772	4.48
277.145	4.25
277.518	4.22
277.891	4.15
278.263	3.99
278.636	3.86
279.009	3.99
279.382	4.07
279.755	4.05
280.127	4.04
280.5	4.21
280.872	4.16
281.245	4.26
281.617	4.39
281.99	4.33
282.362	4.45
282.735	4.59
283.107	4.5
283.479	4.46
283.852	4.48
284.224	4.59
284.596	4.53
284.968	4.56
285.34	4.53
285.713	4.63
286.085	4.68
286.457	4.84
286.829	4.81
287.201	4.87
287.572	4.79
287.944	4.77
288.316	4.68
288.688	4.72
289.06	4.69
289.431	4.53
289.803	4.66
290.175	4.57
290.546	4.57
290.918	4.49
291.289	4.57
291.661	4.63
292.032	4.78
292.403	4.77
292.775	4.87
293.146	4.76
293.517	4.69
293.889	4.82
294.26	4.74
294.631	4.78
295.002	4.67
295.373	4.75
295.744	4.74
296.115	4.73
296.486	4.62
296.857	4.73
297.228	4.84
297.599	4.71
297.97	4.64
298.34	4.55
298.711	4.73
299.082	4.72
299.452	4.72
299.823	4.67
300.194	4.73
300.564	4.62
300.935	4.73
301.305	4.72
301.676	4.72
302.046	4.74
302.416	4.83
302.787	4.83
303.157	4.93
303.527	4.93
303.897	4.99
304.267	5.12
304.637	5.04
305.008	5
305.378	5.22
305.748	5.34
306.117	5.5
306.487	5.41
306.857	5.44
307.227	5.47
307.597	5.46
307.967	5.47
308.336	5.58
308.706	5.56
309.076	5.58
309.445	5.46
309.815	5.43
310.184	5.32
310.554	5.35
310.923	5.24
311.293	5.26
311.662	5.22
312.031	5.28
312.401	5.36
312.77	5.44
313.139	5.32
313.508	5.26
313.877	5.21
314.246	5.21
314.616	5.08
314.985	4.97
315.353	4.87
315.722	4.86
316.091	4.77
316.46	4.7
316.829	4.75
317.198	4.79
317.567	4.89
317.935	4.87
318.304	4.82
318.672	4.91
319.041	5.06
319.41	5
319.778	4.95
320.147	4.9
320.515	4.75
320.883	4.7
321.252	4.79
321.62	4.71
321.988	4.7
322.357	4.81
322.725	4.87
323.093	4.98
323.461	4.99
323.829	5.07
324.197	5.13
324.565	5.12
324.933	5.1
325.301	4.97
325.669	5.02
326.037	5.03
326.405	4.94
326.772	4.89
327.14	4.94
327.508	4.87
327.875	4.78
328.243	4.86
328.61	4.92
328.978	4.88
329.346	4.94
329.713	4.86
330.08	4.79
330.448	4.75
330.815	4.64
331.182	4.63
331.55	4.57
331.917	4.55
332.284	4.53
332.651	4.63
333.018	4.73
333.385	4.7
333.752	4.78
334.119	4.83
334.486	4.77
334.853	4.74
335.22	4.72
335.587	4.76
335.954	4.72
336.32	4.68
336.687	4.7
337.054	4.78
337.42	4.91
337.787	5.05
338.153	5.17
338.52	5.25
338.886	5.21
339.253	5.08
339.619	5.21
339.986	5.25
340.352	5.25
340.718	5.2
341.084	5.27
341.451	5.34
341.817	5.37
342.183	5.32
342.549	5.35
342.915	5.36
343.281	5.43
343.647	5.35
344.013	5.45
344.379	5.36
344.745	5.24
345.11	5.18
345.476	5.11
345.842	5.06
346.208	5.04
346.573	5.06
346.939	5.25
347.304	5.19
347.67	5.16
348.035	5.06
348.401	5.09
348.766	5.09
349.132	4.96
349.497	4.92
349.862	5.05
350.228	5.07
350.593	4.97
350.958	4.93
351.323	5.06
351.688	4.96
352.053	5.03
352.418	5.11
352.783	5.14
353.148	5.05
353.513	5.04
353.878	5.01
354.243	5.07
354.608	5.06
354.972	5.08
355.337	5.17
355.702	5.21
356.066	5.27
356.431	5.25
356.795	5.31
357.16	5.33
357.524	5.22
357.889	5.12
358.253	5.25
358.618	5.22
358.982	5.22
359.346	5.18
359.71	5.14
360.075	5.18
360.439	5.22
360.803	5.27
361.167	5.19
361.531	5.2
361.895	5.18
362.259	5.11
362.623	5.07
362.987	4.99
363.351	4.94
363.714	4.89
364.078	4.82
364.442	4.76
364.806	4.81
365.169	4.83
365.533	4.85
365.896	4.8
366.26	4.84
366.623	4.82
366.987	4.9
367.35	4.98
367.714	4.96
368.077	4.84
368.44	4.83
368.803	4.88
369.167	4.86
369.53	4.77
369.893	4.84
370.256	4.88
370.619	4.95
370.982	4.96
371.345	4.95
371.708	5.01
372.071	4.98
372.434	4.9
372.797	4.88
373.159	4.89
373.522	4.93
373.885	4.93
374.247	4.9
374.61	4.85
374.973	4.79
375.335	4.72
375.698	4.77
376.06	4.78
376.423	4.81
376.785	4.84
377.147	4.94
377.51	4.89
377.872	4.88
378.234	4.88
378.596	4.92
378.958	4.89
379.321	4.9
379.683	4.93
380.045	4.9
380.407	4.87
380.769	4.88
381.13	4.87
381.492	4.88
381.854	4.85
382.216	4.79
382.578	4.79
382.939	4.76
383.301	4.75
383.663	4.74
384.024	4.73
384.386	4.74
384.747	4.69
385.109	4.7
385.47	4.69
385.832	4.65
386.193	4.62
386.554	4.65
386.916	4.61
387.277	4.63
387.638	4.66
387.999	4.69
388.36	4.73
388.721	4.69
389.082	4.67
389.443	4.69
389.804	4.74
390.165	4.76
390.526	4.76
390.887	4.77
391.248	4.81
391.609	4.75
391.969	4.74
392.33	4.77
392.691	4.77
393.051	4.78
393.412	4.77
393.772	4.75
394.133	4.73
394.493	4.78
394.854	4.76
395.214	4.76
395.574	4.74
395.935	4.67
396.295	4.67
396.655	4.64
397.015	4.63
397.376	4.63
397.736	4.63
398.096	4.65
398.456	4.65
398.816	4.6
399.176	4.65
399.535	4.64
399.895	4.61
400.255	4.61
400.615	4.61
400.975	4.6
401.334	4.59
401.694	4.63
402.054	4.57
402.413	4.58
402.773	4.58
403.132	4.61
403.492	4.64
403.851	4.63
404.211	4.65
404.57	4.67
404.929	4.67
405.288	4.66
405.648	4.66
406.007	4.64
406.366	4.65
406.725	4.66
407.084	4.69
407.443	4.68
407.802	4.68
408.161	4.66
408.52	4.65
408.879	4.69
409.238	4.67
409.596	4.69
409.955	4.66
410.314	4.68
410.673	4.66
411.031	4.66
411.39	4.66
411.748	4.64
412.107	4.62
412.465	4.6
412.824	4.6
413.182	4.62
413.54	4.61
413.899	4.61
414.257	4.6
414.615	4.59
414.974	4.62
415.332	4.61
415.69	4.62
416.048	4.62
416.406	4.63
416.764	4.61
417.122	4.61
417.48	4.62
417.838	4.6
418.195	4.59
418.553	4.6
418.911	4.6
419.269	4.61
419.626	4.61
419.984	4.62
420.342	4.61
420.699	4.59
421.057	4.62
421.414	4.62
421.772	4.62
422.129	4.62
422.486	4.59
422.844	4.58
423.201	4.56
423.558	4.58
423.915	4.56
424.273	4.55
424.63	4.54
424.987	4.53
425.344	4.55
425.701	4.54
426.058	4.53
426.415	4.53
426.772	4.51
427.128	4.5
427.485	4.49
427.842	4.49
428.199	4.51
428.555	4.48
428.912	4.47
429.269	4.46
429.625	4.44
429.982	4.46
430.338	4.48
430.695	4.48
431.051	4.46
431.407	4.47
431.764	4.47
432.12	4.47
432.476	4.45
432.832	4.44
433.189	4.44
433.545	4.45
433.901	4.46
434.257	4.45
434.613	4.49
434.969	4.5
435.325	4.49
435.681	4.47
436.036	4.47
436.392	4.49
436.748	4.49
437.104	4.49
437.459	4.49
437.815	4.5
438.171	4.51
438.526	4.53
438.882	4.53
439.237	4.54
439.593	4.57
439.948	4.58
440.304	4.59
440.659	4.59
441.014	4.59
441.369	4.59
441.725	4.6
442.08	4.59
442.435	4.57
442.79	4.59
443.145	4.59
443.5	4.59
443.855	4.57
444.21	4.55
444.565	4.56
444.92	4.57
445.275	4.56
445.629	4.55
445.984	4.52
446.339	4.51
446.693	4.49
447.048	4.46
447.403	4.44
447.757	4.43
448.112	4.44
448.466	4.43
448.82	4.42
449.175	4.42
449.529	4.41
449.883	4.4
450.238	4.38
450.592	4.4
450.946	4.4
451.3	4.4
451.654	4.4
452.008	4.4
452.362	4.39
452.716	4.4
453.07	4.4
453.424	4.41
453.778	4.42
454.132	4.41
454.486	4.43
454.839	4.44
455.193	4.45
455.547	4.44
455.9	4.45
456.254	4.44
456.607	4.43
456.961	4.43
457.314	4.42
457.668	4.42
458.021	4.4
458.375	4.39
458.728	4.4
459.081	4.41
459.434	4.38
459.787	4.39
460.141	4.38
460.494	4.38
460.847	4.37
461.2	4.37
461.553	4.38
461.906	4.39
462.259	4.4
462.611	4.4
462.964	4.4
463.317	4.4
463.67	4.43
464.022	4.44
464.375	4.45
464.728	4.46
465.08	4.48
465.433	4.5
465.785	4.51
466.138	4.5
466.49	4.51
466.843	4.53
467.195	4.53
467.547	4.54
467.899	4.55
468.252	4.55
468.604	4.56
468.956	4.56
469.308	4.55
469.66	4.57
470.012	4.57
470.364	4.56
470.716	4.56
471.068	4.55
471.42	4.55
471.772	4.57
472.123	4.58
472.475	4.58
472.827	4.58
473.178	4.58
473.53	4.58
473.882	4.57
474.233	4.58
474.585	4.57
474.936	4.57
475.288	4.55
475.639	4.59
475.99	4.59
476.342	4.58
476.693	4.57
477.044	4.57
477.395	4.57
477.746	4.59
478.097	4.58
478.448	4.6
478.8	4.59
479.15	4.56
479.501	4.57
479.852	4.55
480.203	4.57
480.554	4.57
480.905	4.58
481.255	4.59
481.606	4.6
481.957	4.6
482.307	4.61
482.658	4.61
483.009	4.61
483.359	4.61
483.709	4.62
484.06	4.61
484.41	4.61
484.761	4.62
485.111	4.61
485.461	4.61
485.811	4.61
486.162	4.61
486.512	4.63
486.862	4.63
487.212	4.63
487.562	4.62
487.912	4.63
488.262	4.63
488.612	4.63
488.961	4.61
489.311	4.62
489.661	4.61
490.011	4.61
490.36	4.62
490.71	4.6
491.06	4.6
491.409	4.6
491.759	4.59
492.108	4.59
492.458	4.6
492.807	4.6
493.157	4.6
493.506	4.61
493.855	4.6
494.204	4.57
494.554	4.59
494.903	4.58
495.252	4.58
495.601	4.57
495.95	4.57
496.299	4.58
496.648	4.57
496.997	4.57
497.346	4.59
497.695	4.59
498.043	4.62
498.392	4.64
498.741	4.67
499.09	4.67
499.438	4.68
499.787	4.67
500.135	4.67
500.484	4.68
500.832	4.68
501.181	4.69
501.529	4.69
501.878	4.72
502.226	4.74
502.574	4.75
502.923	4.75
503.271	4.74
503.619	4.75
503.967	4.79
504.315	4.78
504.663	4.79
505.011	4.8
505.359	4.78
505.707	4.79
506.055	4.78
506.403	4.79
506.751	4.81
507.098	4.81
507.446	4.84
507.794	4.84
508.141	4.86
508.489	4.85
508.837	4.89
509.184	4.87
509.531	4.89
509.879	4.89
510.226	4.92
510.574	4.94
510.921	4.95
511.268	4.94
511.616	4.97
511.963	4.97
512.31	4.96
512.657	4.96
513.004	4.97
513.351	4.98
513.698	4.98
514.045	4.97
514.392	4.98
514.739	4.97
515.086	4.97
515.432	4.98
515.779	4.97
516.126	4.97
516.473	5
516.819	5
517.166	4.99
517.512	4.99
517.859	5
518.205	5.01
518.552	5.02
518.898	5.01
519.245	5
519.591	4.99
519.937	5.02
520.283	5.03
520.629	5.02
520.976	5.05
521.322	5.07
521.668	5.07
522.014	5.08
522.36	5.08
522.706	5.07
523.052	5.08
523.398	5.08
523.743	5.09
524.089	5.08
524.435	5.09
524.781	5.09
525.126	5.08
525.472	5.07
525.817	5.07
526.163	5.08
526.509	5.09
526.854	5.1
527.199	5.11
527.545	5.1
527.89	5.11
528.235	5.1
528.581	5.1
528.926	5.09
529.271	5.09
529.616	5.08
529.961	5.09
530.306	5.09
530.651	5.09
530.996	5.1
531.341	5.11
531.686	5.11
532.031	5.11
532.376	5.11
532.721	5.12
533.065	5.12
533.41	5.11
533.755	5.12
534.099	5.12
534.444	5.11
534.788	5.13
535.133	5.12
535.477	5.14
535.822	5.13
536.166	5.13
536.51	5.15
536.855	5.17
537.199	5.16
537.543	5.17
537.887	5.19
538.231	5.18
538.576	5.19
538.92	5.18
539.264	5.18
539.608	5.2
539.951	5.21
540.295	5.22
540.639	5.24
540.983	5.24
541.327	5.23
541.671	5.22
542.014	5.22
542.358	5.23
542.701	5.23
543.045	5.25
543.389	5.26
543.732	5.25
544.075	5.26
544.419	5.25
544.762	5.26
545.105	5.24
545.449	5.25
545.792	5.24
546.135	5.27
546.478	5.27
546.821	5.25
547.165	5.22
547.508	5.21
547.851	5.19
548.194	5.18
548.536	5.18
548.879	5.19
549.222	5.17
549.565	5.18
549.908	5.15
550.25	5.14
550.593	5.13
550.936	5.15
551.278	5.14
551.621	5.17
551.963	5.2
552.306	5.18
552.648	5.18
552.991	5.2
553.333	5.18
553.675	5.15
554.017	5.2
554.36	5.24
554.702	5.25
555.044	5.27
555.386	5.28
555.728	5.31
556.07	5.32
556.412	5.34
556.754	5.31
557.096	5.3
557.438	5.31
557.78	5.34
558.121	5.32
558.463	5.35
558.805	5.33
559.147	5.25
559.488	5.25
559.83	5.24
560.171	5.23
560.513	5.22
560.854	5.24
561.196	5.23
561.537	5.2
561.878	5.21
562.22	5.22
562.561	5.21
562.902	5.19
563.243	5.18
563.584	5.18
563.925	5.18
564.266	5.19
564.607	5.18
564.948	5.16
565.289	5.15
565.63	5.12
565.971	5.1
566.312	5.15
566.653	5.14
566.993	5.15
567.334	5.14
567.675	5.14
568.015	5.13
568.356	5.1
568.696	5.14
569.037	5.14
569.377	5.14
569.718	5.14
570.058	5.13
570.398	5.15
570.739	5.15
571.079	5.16
571.419	5.16
571.759	5.18
572.099	5.16
572.439	5.15
572.779	5.16
573.119	5.18
573.459	5.19
573.799	5.23
574.139	5.22
574.479	5.24
574.819	5.25
575.158	5.26
575.498	5.28
575.838	5.25
576.177	5.23
576.517	5.22
576.856	5.25
577.196	5.25
577.535	5.22
577.875	5.24
578.214	5.24
578.553	5.28
578.893	5.27
579.232	5.29
579.571	5.31
579.91	5.31
580.25	5.32
580.589	5.31
580.928	5.29
581.267	5.28
581.606	5.28
581.945	5.26
582.283	5.25
582.622	5.29
582.961	5.31
583.3	5.32
583.639	5.36
583.977	5.33
584.316	5.37
584.654	5.35
584.993	5.34
585.332	5.34
585.67	5.3
586.008	5.32
586.347	5.29
586.685	5.28
587.024	5.27
587.362	5.29
587.7	5.25
588.038	5.27
588.376	5.28
588.715	5.27
589.053	5.33
589.391	5.33
589.729	5.33
590.067	5.32
590.404	5.33
590.742	5.32
591.08	5.31
591.418	5.3
591.756	5.32
592.093	5.34
592.431	5.33
592.769	5.34
593.106	5.3
593.444	5.31
593.781	5.34
594.119	5.35
594.456	5.3
594.793	5.33
595.131	5.31
595.468	5.32
595.805	5.34
596.143	5.29
596.48	5.32
596.817	5.31
597.154	5.33
597.491	5.33
597.828	5.3
598.165	5.3
598.502	5.28
598.839	5.29
599.176	5.29
599.512	5.3
599.849	5.29
600.186	5.35
600.523	5.38
600.859	5.38
601.196	5.41
601.532	5.43
601.869	5.4
602.205	5.4
602.542	5.41
602.878	5.4
603.215	5.41
603.551	5.38
603.887	5.37
604.223	5.36
604.56	5.36
604.896	5.36
605.232	5.39
605.568	5.4
605.904	5.36
606.24	5.38
606.576	5.35
606.912	5.35
607.248	5.33
607.583	5.33
607.919	5.33
608.255	5.33
608.591	5.34
608.926	5.32
609.262	5.31
609.597	5.33
609.933	5.31
610.268	5.32
610.604	5.33
610.939	5.31
611.275	5.31
611.61	5.3
611.945	5.31
612.281	5.27
612.616	5.28
612.951	5.28
613.286	5.24
613.621	5.27
613.956	5.25
614.291	5.22
614.626	5.19
614.961	5.15
615.296	5.1
615.631	5.06
615.966	5.13
616.3	5.18
616.635	5.15
616.97	5.15
617.304	5.14
617.639	5.14
617.973	5.13
618.308	5.12
618.642	5.11
618.977	5.15
619.311	5.15
619.646	5.13
619.98	5.19
620.314	5.22
620.648	5.22
620.983	5.27
621.317	5.28
621.651	5.34
621.985	5.4
622.319	5.41
622.653	5.46
622.987	5.47
623.321	5.4
623.655	5.44
623.988	5.49
624.322	5.51
624.656	5.51
624.99	5.51
625.323	5.52
625.657	5.51
625.99	5.49
626.324	5.49
626.657	5.52
626.991	5.51
627.324	5.49
627.658	5.51
627.991	5.53
628.324	5.55
628.657	5.5
628.991	5.49
629.324	5.52
629.657	5.51
629.99	5.51
630.323	5.51
630.656	5.53
630.989	5.5
631.322	5.48
631.655	5.49
631.987	5.5
632.32	5.48
632.653	5.48
632.986	5.48
633.318	5.47
633.651	5.44
633.984	5.43
634.316	5.4
634.649	5.37
634.981	5.35
635.313	5.32
635.646	5.33
635.978	5.34
636.31	5.33
636.643	5.35
636.975	5.33
637.307	5.33
637.639	5.28
637.971	5.28
638.303	5.26
638.635	5.25
638.967	5.23
639.299	5.24
639.631	5.25
639.963	5.25
640.295	5.32
640.626	5.36
640.958	5.39
641.29	5.43
641.621	5.4
641.953	5.36
642.285	5.36
642.616	5.4
642.948	5.36
643.279	5.29
643.61	5.29
643.942	5.29
644.273	5.29
644.604	5.29
644.936	5.31
645.267	5.32
645.598	5.35
645.929	5.39
646.26	5.41
646.591	5.46
646.922	5.47
647.253	5.43
647.584	5.37
647.915	5.34
648.245	5.33
648.576	5.38
648.907	5.38
649.238	5.38
649.568	5.31
649.899	5.27
650.229	5.35
650.56	5.4
650.89	5.39
651.221	5.49
651.551	5.49
651.882	5.49
652.212	5.53
652.542	5.51
652.872	5.43
653.203	5.39
653.533	5.4
653.863	5.36
654.193	5.41
654.523	5.49
654.853	5.52
655.183	5.53
655.513	5.52
655.843	5.53
656.172	5.52
656.502	5.58
656.832	5.65
657.162	5.7
657.491	5.65
657.821	5.65
658.15	5.59
658.48	5.6
658.809	5.63
659.139	5.57
659.468	5.53
659.798	5.63
660.127	5.71
660.456	5.7
660.785	5.73
661.115	5.7
661.444	5.64
661.773	5.62
662.102	5.63
662.431	5.65
662.76	5.7
663.089	5.71
663.418	5.66
663.747	5.6
664.076	5.52
664.404	5.5
664.733	5.53
665.062	5.48
665.39	5.44
665.719	5.39
666.048	5.45
666.376	5.45
666.705	5.36
667.033	5.26
667.362	5.28
667.69	5.27
668.018	5.32
668.347	5.36
668.675	5.38
669.003	5.4
669.331	5.47
669.659	5.46
669.987	5.41
670.315	5.42
670.643	5.46
670.971	5.51
671.299	5.58
671.627	5.61
671.955	5.66
672.283	5.67
672.61	5.67
672.938	5.69
673.266	5.73
673.593	5.87
673.921	5.84
674.249	5.79
674.576	5.75
674.904	5.73
675.231	5.67
675.558	5.61
675.886	5.54
676.213	5.46
676.54	5.46
676.867	5.55
677.195	5.53
677.522	5.54
677.849	5.55
678.176	5.47
678.503	5.43
678.83	5.39
679.157	5.33
679.484	5.31
679.81	5.3
680.137	5.27
680.464	5.17
680.791	5.18
681.117	5.18
681.444	5.17
681.771	5.1
682.097	5.11
682.424	5.19
682.75	5.19
683.077	5.18
683.403	5.22
683.729	5.16
684.056	5.18
684.382	5.17
684.708	5.1
685.034	5.11
685.36	5.15
685.686	5.26
686.012	5.33
686.339	5.46
686.664	5.44
686.99	5.49
687.316	5.48
687.642	5.6
687.968	5.63
688.294	5.71
688.619	5.8
688.945	5.72
689.271	5.7
689.596	5.71
689.922	5.79
690.247	5.76
690.573	5.8
690.898	5.79
691.224	5.77
691.549	5.83
691.874	5.73
692.2	5.7
692.525	5.68
692.85	5.75
693.175	5.71
693.5	5.64
693.825	5.63
694.15	5.67
694.475	5.68
694.8	5.72
695.125	5.72
695.45	5.57
695.775	5.65
696.099	5.61
696.424	5.59
696.749	5.55
697.073	5.49
697.398	5.54
697.723	5.54
698.047	5.54
698.372	5.57
698.696	5.74
699.02	5.7
699.345	5.66
699.669	5.79
699.993	5.68
700.318	5.78
700.642	5.8
700.966	5.83
701.29	5.85
701.614	5.77
701.938	5.76
702.262	5.99
702.586	6.08
702.91	6.13
703.234	6.17
703.557	6.2
703.881	6.24
704.205	6.25
704.529	6.37
704.852	6.4
705.176	6.43
705.499	6.42
705.823	6.36
706.146	6.31
706.47	6.17
706.793	6.3
707.117	6.35
707.44	6.28
707.763	6.24
708.086	6.19
708.409	6.32
708.733	6.27
709.056	6.18
709.379	6.16
709.702	6.1
710.025	6.07
710.348	6.14
710.671	6.13
710.993	6.21
711.316	6.09
711.639	6.17
711.962	6.14
712.284	6.08
712.607	6.17
712.93	6.24
713.252	6.18
713.575	6.06
713.897	6.03
714.22	6.11
714.542	6.05
714.864	5.99
715.187	5.83
715.509	5.89
715.831	5.87
716.153	5.98
716.475	6.08
716.798	6.17
717.12	6.15
717.442	6.12
717.764	5.94
718.085	5.91
718.407	5.98
718.729	5.89
719.051	5.9
719.373	5.91
719.695	5.96
720.016	5.97
720.338	5.91
720.659	5.9
720.981	5.81
721.302	5.85
721.624	5.81
721.945	5.94
722.267	5.87
722.588	5.78
722.909	5.66
723.231	5.51
723.552	5.53
723.873	5.5
724.194	5.49
724.515	5.56
724.836	5.51
725.157	5.47
725.478	5.62
725.799	5.68
726.12	5.61
726.441	5.5
726.762	5.48
727.083	5.79
727.403	5.88
727.724	6.16
728.045	6.26
728.365	6.29
728.686	6.24
729.006	6.32
729.327	6.37
729.647	6.37
729.967	6.48
730.288	6.38
730.608	6.32
730.928	6.46
731.249	6.51
731.569	6.68
731.889	6.63
732.209	6.53
732.529	6.42
732.849	6.57
733.169	6.7
733.489	6.63
733.809	6.41
734.129	6.33
734.448	6.2
734.768	6.08
735.088	6.16
735.408	6.21
735.727	6.15
736.047	6.24
736.366	6.14
736.686	6.16
737.005	6.22
737.325	6.35
737.644	6.11
737.963	6.18
738.283	6.16
738.602	6.16
738.921	6.19
739.24	6.38
739.56	6.2
739.879	6.29
740.198	6.58
740.517	6.65
740.836	6.61
741.155	6.57
741.473	6.63
741.792	6.64
742.111	6.54
742.43	6.62
742.748	6.29
743.067	6.39
743.386	6.52
743.704	6.55
744.023	6.45
744.341	6.71
744.66	6.81
744.978	6.82
745.297	6.74
745.615	6.8
745.933	6.63
746.252	6.81
746.57	6.54
746.888	6.53
747.206	6.21
747.524	6.28
747.842	6.27
748.16	6.41
748.478	6.36
748.796	6.6
749.114	6.76
749.432	6.95
749.749	7.09
750.067	6.81
750.385	6.9
750.703	6.96
751.02	7.04
751.338	6.75
751.655	6.8
751.973	6.94
752.29	6.94
752.608	6.87
752.925	6.81
753.242	7.07
753.56	6.89
753.877	7.51
754.194	7.64
754.511	7.95
754.828	7.71
755.145	7.71
755.462	7.58
755.779	7.51
756.096	7.45
756.413	7.26
756.73	7.29
757.047	7.43
757.364	7.18
757.68	7.27
757.997	7.5
758.314	7.47
758.63	7.18
758.947	7.22
759.264	7.36
759.58	7.32
759.896	7.27
760.213	7.2
760.529	7.08
760.846	6.91
761.162	6.56
761.478	6.64
761.794	6.59
762.11	6.49
762.426	6.54
762.743	6.66
763.059	6.73
763.375	6.82
763.69	6.67
764.006	6.99
764.322	6.76
764.638	6.59
764.954	6.71
765.27	6.82
765.585	6.66
765.901	6.47
766.216	6.45
766.532	6.3
766.848	6.18
767.163	5.91
767.478	5.81
767.794	5.91
768.109	5.73
768.424	5.82
768.74	5.79
769.055	5.83
769.37	5.89
769.685	5.89
770	5.57
770.315	5.42
770.63	5.12
770.945	4.88
771.26	5.01
771.575	4.75
771.89	4.77
772.205	4.94
772.52	5.25
772.834	5.11
773.149	4.99
773.464	5.3
773.778	5.42
774.093	5.43
774.407	5.45
774.722	5.77
775.036	5.98
775.351	5.93
775.665	5.52
775.979	5.24
776.293	5.33
776.608	5.35
776.922	5.52
777.236	5.51
777.55	6.1
777.864	6.35
778.178	6.39
778.492	6.74
778.806	6.57
779.12	6.62
779.434	6.73
779.747	7.04
780.061	6.91
780.375	7
780.689	7.09
781.002	7.41
781.316	7.08
781.629	7.04
781.943	7.18
782.256	7.49
782.57	7.89
782.883	7.93
783.196	8.11
783.51	8.18
783.823	8.25
784.136	7.64
784.449	7.38
784.762	7.2
785.075	6.82
785.388	6.8
785.701	6.96
786.014	6.59
786.327	6.27
786.64	6.45
786.953	6.66
787.266	6.61
787.578	5.83
787.891	6.12
788.204	6.23
788.516	6.35
788.829	6.19
789.141	6.12
789.454	5.74
789.766	6.09
790.079	6.16
790.391	6.4
790.703	7.06
791.016	6.99
791.328	7.43
791.64	7.31
791.952	7.4
792.264	7.02
792.576	7.58
792.888	7.87
793.2	7.92
793.512	7.54
793.824	7.69
794.136	8.04
794.448	7.92
794.76	7.17
795.071	7.03
795.383	6.95
795.695	7.06
796.006	7.43
796.318	7.15
796.629	7.11
796.941	6.66
797.252	6.8
797.564	7.16
797.875	7.36
798.186	7.21
798.497	7.48
798.809	7.45
799.12	7.67
799.431	7.75
799.742	7.35
800.053	7.67
800.364	7.71
800.675	7.52
800.986	7.49
801.297	7.72
801.608	8.04
801.918	8.23
802.229	7.66
802.54	7.5
802.851	7.63
803.161	7.48
803.472	7.97
803.782	7.41
804.093	6.84
804.403	5.91
804.714	6.57
805.024	6.09
805.334	6.31
805.645	6.07
805.955	6.47
806.265	6.76
806.575	6.58
806.885	6.15
807.195	6.49
807.505	6.72
807.815	6.57
808.125	6.38
808.435	6.1
808.745	6.33
809.055	6.7
809.365	6.4
809.674	6.41
809.984	6.47
810.294	6.97
810.603	7.09
810.913	7.95
811.222	7.85
811.532	8.2
811.841	9.06
812.151	9.74
812.46	9.05
812.769	9.19
813.079	9.28
813.388	9.81
813.697	10.35
814.006	10.46
814.315	10.93
814.624	10.84
814.933	11.15
815.242	11.3
815.551	10.87
815.86	11.3
816.169	10.88
816.478	9.85
816.786	9.19
817.095	9.76
817.404	9.91
817.712	9.37
818.021	9.03
818.33	7.96
818.638	7.33
818.947	7.71
819.255	7.78
819.563	7.8
819.872	7.49
820.18	7.33
820.488	7.43
820.796	7.52
821.105	7.43
821.413	7.4
821.721	7.29
822.029	7.19
822.337	7.18
822.645	7.42
822.953	7.41
823.26	7.59
823.568	7.37
823.876	7.19
824.184	7.24
824.491	7.25
824.799	7.38
825.107	7.39
825.414	7.3
825.722	7.38
826.029	7.43
826.337	7.54
826.644	7.46
826.951	7.38
827.259	7.36
827.566	7.53
827.873	7.51
828.18	7.61
828.488	7.77
828.795	7.88
829.102	8.11
829.409	8.47
829.716	8.31
830.023	8.35
830.329	8.53
830.636	8.8
830.943	8.93
831.25	8.62
831.557	8.61
831.863	8.92
832.17	8.39
832.476	8.55
832.783	8.58
833.089	8.53
833.396	8.83
833.702	8.93
834.009	8.87
834.315	8.79
834.621	8.96
834.928	8.98
835.234	8.88
835.54	8.08
835.846	8.1
836.152	8.29
836.458	8.5
836.764	8.31
837.07	8.08
837.376	8.18
837.682	8.34
837.988	8.05
838.293	7.64
838.599	7.7
838.905	6.92
839.211	6.91
839.516	7.58
839.822	7
840.127	6.72
840.433	6.78
840.738	7.45
841.044	6.81
841.349	6.91
841.654	6.85
841.959	7.15
842.265	7.56
842.57	7.18
842.875	7.57
843.18	7.87
843.485	8.1
843.79	7.94
844.095	8.16
844.4	10.17
844.705	10.2
845.01	10.55
845.315	11.78
845.619	10.91
845.924	11
846.229	11.07
846.533	10.83
846.838	10.54
847.142	10.83
847.447	11.38
847.751	10.9
848.056	9.65
848.36	10.84
848.664	9.21
848.969	9.56
849.273	9.78
849.577	8.84
849.881	7.17
850.185	8.73
850.489	9.46
850.794	6.27
851.097	6.66
851.401	7.13
851.705	6.06
852.009	7.99
852.313	5.97
852.617	5.46
852.92	7.2
853.224	6.66
853.528	6.44
853.831	6.36
854.135	7.09
854.438	7.9
854.742	5.07
855.045	5.03
855.349	6.46
855.652	6.74
855.955	7.72
856.259	9.67
856.562	6.61
856.865	5.77
857.168	5.9
857.471	5.49
857.774	7.33
858.077	8.64
858.38	7.69
858.683	8.26
858.986	10.33
859.289	8.87
859.592	9.16
859.894	9.34
860.197	11.98
860.5	13.16
860.802	13.52
861.105	16.18
861.407	16.96
861.71	17.07
862.012	15.08
862.315	14.96
862.617	15.06
862.919	17.94
863.222	16.64
863.524	18.53
863.826	20.15
864.128	20.51
864.43	19.67
864.732	21.73
865.034	23.08
865.336	21.03
865.638	19.87
865.94	19.13
866.242	18.02
866.544	15.94
866.846	13.11
867.147	14.1
867.449	12.86
867.751	13.44
868.052	12.12
868.354	14.16
868.655	14.24
868.957	15.36
869.258	15.12
869.56	15.1
869.861	12.32
870.162	10.98
870.463	7.97
870.765	9.34
871.066	8.63
871.367	9.46
871.668	11.64
871.969	12.23
872.27	12.15
872.571	12.55
872.872	15.37
873.173	17.21
873.473	17.27
873.774	16.97
874.075	17.79
874.376	17.68
874.676	15.62
874.977	15.76
875.277	15.98
875.578	14.79
875.878	16.28
876.179	19.31
876.479	20.32
876.78	22.41
877.08	22.54
877.38	21.02
877.68	19.13
877.981	17.59
878.281	19.69
878.581	22.76
