Data from BU58141_Reflection_00001.txt Node
Date: Mon Nov 18 16:46:35 EST 2019
User: vgr7
Spectrometer: USB2G7710
Scans to average: 3
Trigger mode: 4
Integration Time (sec): 2.000000E-2
Electric dark correction enabled: true
Boxcar width: 10
XAxis mode: Wavelengths
Number of Pixels in Spectrum: 2048
>>>>>Begin Spectral Data<<<<<
177.721	-126.36
178.105	-33.21
178.488	44.77
178.871	18.06
179.254	59.93
179.636	-462.5
180.019	280.6
180.402	166.67
180.785	-101.96
181.168	-164.71
181.55	182.95
181.933	67.71
182.316	122.09
182.698	55.53
183.081	60.09
183.463	50.47
183.846	29.46
184.228	5.46
184.611	19.73
184.993	31.55
185.376	8.77
185.758	12.84
186.14	48.55
186.522	119.1
186.904	232.94
187.287	312.18
187.669	-377.51
188.051	-614.8
188.433	-194.68
188.815	-238.64
189.197	718.03
189.579	-6860
189.961	-894.48
190.342	-740.76
190.724	-96.45
191.106	-57.81
191.488	-32.02
191.869	-35.21
192.251	-67.35
192.633	-52.46
193.014	-27.13
193.396	-59.74
193.777	-87.2
194.159	-104.5
194.54	-57.41
194.922	-36.81
195.303	-48.88
195.684	-56.34
196.065	-10.36
196.447	-5.43
196.828	-22.55
197.209	-21.59
197.59	-33.3
197.971	-25.27
198.352	-26.5
198.733	-40.24
199.114	-39.37
199.495	-30.52
199.876	-21.96
200.257	-10.84
200.638	-7.12
201.018	-24.21
201.399	-13.84
201.78	-9.76
202.16	-11.3
202.541	-28.65
202.922	-59.4
203.302	-60.34
203.683	-74.08
204.063	-120.93
204.444	-121.74
204.824	-107.85
205.204	-96.72
205.585	-76.53
205.965	-72.99
206.345	-91.59
206.725	-81.42
207.106	-92.24
207.486	-132.3
207.866	-144.79
208.246	-141.69
208.626	-147.63
209.006	-98.52
209.386	-133.77
209.766	-132.64
210.145	-127.58
210.525	-92.39
210.905	-70.27
211.285	-74.61
211.664	-53.1
212.044	-33.5
212.424	-34.76
212.803	-42.61
213.183	-19.16
213.562	-33.4
213.942	-25.71
214.321	0.55
214.701	-4.82
215.08	-5.85
215.459	-6
215.838	-7.8
216.218	-14.36
216.597	-10.32
216.976	-12.69
217.355	-3.46
217.734	-3.9
218.113	12.92
218.492	11.19
218.871	-0.87
219.25	7.12
219.629	-3.27
220.008	-5.43
220.387	-1.65
220.766	8.59
221.144	-6.72
221.523	-21.98
221.902	-31.82
222.28	-53.01
222.659	-36.28
223.037	-20.37
223.416	-15.68
223.794	-19.14
224.173	-7.72
224.551	-1.33
224.929	-0.31
225.308	-1.19
225.686	-3.87
226.064	-5.53
226.442	-0.65
226.821	5.13
227.199	0.66
227.577	4.61
227.955	4.23
228.333	6.73
228.711	7.01
229.089	15.07
229.467	13.75
229.845	14.75
230.222	15.77
230.6	14.87
230.978	12.6
231.356	11.27
231.733	12.2
232.111	12.35
232.488	12.68
232.866	12.69
233.243	11.96
233.621	12.58
233.998	11.31
234.376	9.34
234.753	10.77
235.13	10.67
235.508	11.57
235.885	12.16
236.262	9.42
236.639	8.21
237.016	4.66
237.393	7.42
237.77	6.69
238.147	5.99
238.524	4.89
238.901	5.6
239.278	5.71
239.655	6.62
240.032	6
240.409	5.58
240.785	5.72
241.162	5.89
241.539	5.75
241.915	6.02
242.292	5.3
242.668	5.03
243.045	5.36
243.421	4.66
243.798	4.52
244.174	4.78
244.551	4.53
244.927	4.88
245.303	4.8
245.679	4.73
246.056	4.9
246.432	4.88
246.808	4.59
247.184	4.26
247.56	3.59
247.936	3.64
248.312	3.74
248.688	3.79
249.064	3.77
249.44	3.69
249.815	3.8
250.191	3.97
250.567	3.76
250.943	3.5
251.318	3.54
251.694	3.55
252.069	3.41
252.445	3.55
252.82	3.24
253.196	3.15
253.571	3.29
253.947	3.14
254.322	3.39
254.697	3.37
255.073	3.25
255.448	3.6
255.823	3.52
256.198	3.59
256.573	3.29
256.948	3.48
257.323	3.62
257.698	3.6
258.073	3.59
258.448	3.57
258.823	3.48
259.198	3.53
259.573	3.53
259.948	3.53
260.322	3.63
260.697	3.56
261.072	3.52
261.446	3.61
261.821	3.59
262.195	3.58
262.57	3.47
262.944	3.63
263.319	3.58
263.693	3.62
264.067	3.57
264.442	3.71
264.816	3.5
265.19	3.34
265.564	3.29
265.938	3.39
266.313	3.65
266.687	3.76
267.061	4
267.435	3.93
267.809	3.91
268.183	3.83
268.556	3.83
268.93	3.8
269.304	3.81
269.678	3.72
270.051	3.82
270.425	3.95
270.799	3.9
271.172	4
271.546	3.93
271.919	3.88
272.293	3.93
272.666	4
273.04	3.97
273.413	3.93
273.787	3.83
274.16	3.76
274.533	3.83
274.906	3.68
275.279	3.7
275.653	3.66
276.026	3.56
276.399	3.7
276.772	3.8
277.145	3.55
277.518	3.65
277.891	3.53
278.263	3.56
278.636	3.61
279.009	3.71
279.382	3.88
279.755	3.84
280.127	3.82
280.5	3.81
280.872	3.88
281.245	3.85
281.617	4.08
281.99	4.17
282.362	4.22
282.735	4.14
283.107	4.11
283.479	4.32
283.852	4.29
284.224	4.28
284.596	4.14
284.968	4.3
285.34	4.26
285.713	4.25
286.085	4.29
286.457	4.47
286.829	4.38
287.201	4.29
287.572	4.22
287.944	4.03
288.316	4.08
288.688	4.1
289.06	4.12
289.431	4.12
289.803	4.09
290.175	4.04
290.546	4.25
290.918	4.21
291.289	4.09
291.661	4.26
292.032	4.33
292.403	4.35
292.775	4.46
293.146	4.49
293.517	4.48
293.889	4.49
294.26	4.35
294.631	4.41
295.002	4.45
295.373	4.51
295.744	4.68
296.115	4.7
296.486	4.63
296.857	4.69
297.228	4.65
297.599	4.63
297.97	4.68
298.34	4.61
298.711	4.75
299.082	4.69
299.452	4.62
299.823	4.61
300.194	4.69
300.564	4.52
300.935	4.54
301.305	4.72
301.676	4.74
302.046	4.79
302.416	4.89
302.787	4.82
303.157	4.84
303.527	4.81
303.897	4.69
304.267	4.83
304.637	4.81
305.008	4.77
305.378	4.88
305.748	4.86
306.117	4.91
306.487	4.75
306.857	4.76
307.227	4.77
307.597	4.61
307.967	4.68
308.336	4.69
308.706	4.61
309.076	4.59
309.445	4.54
309.815	4.41
310.184	4.24
310.554	4.39
310.923	4.42
311.293	4.33
311.662	4.4
312.031	4.29
312.401	4.26
312.77	4.32
313.139	4.26
313.508	4.21
313.877	3.94
314.246	3.98
314.616	3.91
314.985	3.88
315.353	3.85
315.722	3.84
316.091	3.8
316.46	3.93
316.829	3.88
317.198	3.88
317.567	4
317.935	4.08
318.304	4.04
318.672	4.03
319.041	4.19
319.41	4.13
319.778	4.13
320.147	4.1
320.515	3.97
320.883	3.87
321.252	3.97
321.62	4.21
321.988	4.28
322.357	4.25
322.725	4.18
323.093	4.34
323.461	4.2
323.829	4.26
324.197	4.21
324.565	4.13
324.933	4
325.301	4.04
325.669	3.94
326.037	3.86
326.405	3.88
326.772	3.84
327.14	3.92
327.508	4
327.875	4
328.243	4.02
328.61	4.12
328.978	4.05
329.346	4.1
329.713	3.92
330.08	4.02
330.448	3.95
330.815	3.84
331.182	3.9
331.55	4.04
331.917	4.07
332.284	4.12
332.651	4.26
333.018	4.27
333.385	4.25
333.752	4.22
334.119	4.31
334.486	4.19
334.853	4.17
335.22	4.18
335.587	4.31
335.954	4.43
336.32	4.47
336.687	4.36
337.054	4.32
337.42	4.41
337.787	4.44
338.153	4.6
338.52	4.76
338.886	4.72
339.253	4.52
339.619	4.56
339.986	4.55
340.352	4.5
340.718	4.45
341.084	4.37
341.451	4.41
341.817	4.39
342.183	4.43
342.549	4.38
342.915	4.34
343.281	4.19
343.647	4.03
344.013	3.96
344.379	4.04
344.745	3.97
345.11	4.01
345.476	4.02
345.842	4.02
346.208	3.89
346.573	3.92
346.939	4.01
347.304	3.89
347.67	3.85
348.035	3.85
348.401	3.83
348.766	4
349.132	3.98
349.497	3.92
349.862	4.02
350.228	4.06
350.593	3.97
350.958	4.04
351.323	4.05
351.688	4.06
352.053	4.14
352.418	4.32
352.783	4.32
353.148	4.28
353.513	4.32
353.878	4.37
354.243	4.43
354.608	4.39
354.972	4.41
355.337	4.5
355.702	4.5
356.066	4.57
356.431	4.51
356.795	4.53
357.16	4.55
357.524	4.45
357.889	4.38
358.253	4.48
358.618	4.52
358.982	4.54
359.346	4.52
359.71	4.37
360.075	4.33
360.439	4.35
360.803	4.36
361.167	4.28
361.531	4.21
361.895	4.16
362.259	4.16
362.623	4.16
362.987	4.08
363.351	4.11
363.714	4.07
364.078	4.06
364.442	4.07
364.806	4.09
365.169	4.11
365.533	4.13
365.896	4.11
366.26	4.06
366.623	3.99
366.987	3.96
367.35	4.06
367.714	4.05
368.077	4
368.44	4
368.803	3.98
369.167	3.97
369.53	3.92
369.893	3.91
370.256	3.9
370.619	3.92
370.982	3.9
371.345	3.85
371.708	3.88
372.071	3.91
372.434	3.87
372.797	3.9
373.159	3.88
373.522	3.86
373.885	3.87
374.247	3.93
374.61	3.95
374.973	3.97
375.335	3.93
375.698	3.91
376.06	3.95
376.423	3.95
376.785	4.03
377.147	4.12
377.51	4.12
377.872	4.15
378.234	4.19
378.596	4.24
378.958	4.25
379.321	4.27
379.683	4.24
380.045	4.25
380.407	4.24
380.769	4.25
381.13	4.28
381.492	4.28
381.854	4.29
382.216	4.28
382.578	4.26
382.939	4.25
383.301	4.24
383.663	4.18
384.024	4.2
384.386	4.19
384.747	4.13
385.109	4.17
385.47	4.16
385.832	4.13
386.193	4.11
386.554	4.13
386.916	4.06
387.277	4.06
387.638	4.06
387.999	4.05
388.36	4.06
388.721	4.07
389.082	4.07
389.443	4.04
389.804	4.06
390.165	4.02
390.526	4.02
390.887	4.05
391.248	4.13
391.609	4.14
391.969	4.14
392.33	4.17
392.691	4.17
393.051	4.19
393.412	4.2
393.772	4.14
394.133	4.15
394.493	4.21
394.854	4.21
395.214	4.22
395.574	4.22
395.935	4.27
396.295	4.25
396.655	4.27
397.015	4.27
397.376	4.26
397.736	4.28
398.096	4.34
398.456	4.32
398.816	4.26
399.176	4.22
399.535	4.24
399.895	4.23
400.255	4.23
400.615	4.21
400.975	4.21
401.334	4.25
401.694	4.24
402.054	4.22
402.413	4.23
402.773	4.24
403.132	4.24
403.492	4.2
403.851	4.18
404.211	4.19
404.57	4.18
404.929	4.19
405.288	4.16
405.648	4.11
406.007	4.11
406.366	4.11
406.725	4.14
407.084	4.17
407.443	4.16
407.802	4.13
408.161	4.14
408.52	4.11
408.879	4.12
409.238	4.12
409.596	4.11
409.955	4.08
410.314	4.06
410.673	4.04
411.031	4.04
411.39	4.05
411.748	4.04
412.107	4.05
412.465	4.02
412.824	4.04
413.182	4.05
413.54	4.09
413.899	4.1
414.257	4.13
414.615	4.1
414.974	4.09
415.332	4.08
415.69	4.06
416.048	4.09
416.406	4.08
416.764	4.07
417.122	4.07
417.48	4.1
417.838	4.1
418.195	4.12
418.553	4.12
418.911	4.12
419.269	4.14
419.626	4.14
419.984	4.15
420.342	4.16
420.699	4.16
421.057	4.14
421.414	4.13
421.772	4.11
422.129	4.12
422.486	4.12
422.844	4.14
423.201	4.13
423.558	4.12
423.915	4.13
424.273	4.13
424.63	4.12
424.987	4.12
425.344	4.14
425.701	4.15
426.058	4.14
426.415	4.14
426.772	4.15
427.128	4.15
427.485	4.14
427.842	4.13
428.199	4.13
428.555	4.15
428.912	4.16
429.269	4.17
429.625	4.17
429.982	4.16
430.338	4.16
430.695	4.2
431.051	4.2
431.407	4.21
431.764	4.22
432.12	4.22
432.476	4.22
432.832	4.2
433.189	4.19
433.545	4.17
433.901	4.19
434.257	4.16
434.613	4.18
434.969	4.2
435.325	4.21
435.681	4.19
436.036	4.18
436.392	4.17
436.748	4.16
437.104	4.14
437.459	4.15
437.815	4.13
438.171	4.13
438.526	4.13
438.882	4.14
439.237	4.13
439.593	4.14
439.948	4.14
440.304	4.14
440.659	4.14
441.014	4.17
441.369	4.15
441.725	4.14
442.08	4.13
442.435	4.13
442.79	4.14
443.145	4.15
443.5	4.13
443.855	4.14
444.21	4.14
444.565	4.15
444.92	4.17
445.275	4.18
445.629	4.19
445.984	4.19
446.339	4.16
446.693	4.16
447.048	4.16
447.403	4.15
447.757	4.15
448.112	4.14
448.466	4.14
448.82	4.15
449.175	4.18
449.529	4.17
449.883	4.14
450.238	4.13
450.592	4.15
450.946	4.16
451.3	4.16
451.654	4.15
452.008	4.14
452.362	4.13
452.716	4.12
453.07	4.1
453.424	4.12
453.778	4.12
454.132	4.13
454.486	4.12
454.839	4.09
455.193	4.07
455.547	4.07
455.9	4.08
456.254	4.09
456.607	4.07
456.961	4.1
457.314	4.11
457.668	4.13
458.021	4.1
458.375	4.11
458.728	4.13
459.081	4.14
459.434	4.13
459.787	4.14
460.141	4.14
460.494	4.14
460.847	4.14
461.2	4.14
461.553	4.13
461.906	4.15
462.259	4.15
462.611	4.21
462.964	4.22
463.317	4.2
463.67	4.18
464.022	4.2
464.375	4.19
464.728	4.2
465.08	4.19
465.433	4.19
465.785	4.21
466.138	4.2
466.49	4.21
466.843	4.21
467.195	4.2
467.547	4.23
467.899	4.23
468.252	4.22
468.604	4.24
468.956	4.22
469.308	4.22
469.66	4.21
470.012	4.19
470.364	4.2
470.716	4.22
471.068	4.23
471.42	4.21
471.772	4.23
472.123	4.22
472.475	4.25
472.827	4.24
473.178	4.24
473.53	4.25
473.882	4.23
474.233	4.23
474.585	4.23
474.936	4.21
475.288	4.21
475.639	4.23
475.99	4.22
476.342	4.22
476.693	4.24
477.044	4.26
477.395	4.25
477.746	4.23
478.097	4.22
478.448	4.22
478.8	4.22
479.15	4.21
479.501	4.24
479.852	4.25
480.203	4.26
480.554	4.26
480.905	4.25
481.255	4.27
481.606	4.29
481.957	4.3
482.307	4.31
482.658	4.31
483.009	4.3
483.359	4.31
483.709	4.32
484.06	4.32
484.41	4.32
484.761	4.32
485.111	4.33
485.461	4.34
485.811	4.34
486.162	4.35
486.512	4.36
486.862	4.35
487.212	4.34
487.562	4.33
487.912	4.33
488.262	4.34
488.612	4.34
488.961	4.34
489.311	4.34
489.661	4.32
490.011	4.32
490.36	4.33
490.71	4.33
491.06	4.32
491.409	4.32
491.759	4.31
492.108	4.31
492.458	4.31
492.807	4.31
493.157	4.3
493.506	4.3
493.855	4.29
494.204	4.28
494.554	4.3
494.903	4.31
495.252	4.32
495.601	4.3
495.95	4.32
496.299	4.31
496.648	4.3
496.997	4.31
497.346	4.32
497.695	4.33
498.043	4.31
498.392	4.31
498.741	4.33
499.09	4.32
499.438	4.34
499.787	4.34
500.135	4.34
500.484	4.34
500.832	4.33
501.181	4.35
501.529	4.34
501.878	4.34
502.226	4.36
502.574	4.35
502.923	4.37
503.271	4.36
503.619	4.35
503.967	4.35
504.315	4.36
504.663	4.37
505.011	4.37
505.359	4.39
505.707	4.4
506.055	4.4
506.403	4.41
506.751	4.42
507.098	4.43
507.446	4.43
507.794	4.44
508.141	4.45
508.489	4.45
508.837	4.46
509.184	4.45
509.531	4.46
509.879	4.48
510.226	4.5
510.574	4.48
510.921	4.51
511.268	4.51
511.616	4.52
511.963	4.54
512.31	4.54
512.657	4.54
513.004	4.56
513.351	4.58
513.698	4.59
514.045	4.59
514.392	4.59
514.739	4.58
515.086	4.59
515.432	4.59
515.779	4.6
516.126	4.59
516.473	4.63
516.819	4.62
517.166	4.62
517.512	4.62
517.859	4.62
518.205	4.6
518.552	4.63
518.898	4.62
519.245	4.6
519.591	4.59
519.937	4.59
520.283	4.58
520.629	4.59
520.976	4.59
521.322	4.6
521.668	4.58
522.014	4.6
522.36	4.59
522.706	4.61
523.052	4.61
523.398	4.61
523.743	4.58
524.089	4.58
524.435	4.59
524.781	4.58
525.126	4.59
525.472	4.6
525.817	4.6
526.163	4.62
526.509	4.64
526.854	4.66
527.199	4.67
527.545	4.68
527.89	4.67
528.235	4.68
528.581	4.69
528.926	4.71
529.271	4.71
529.616	4.7
529.961	4.7
530.306	4.7
530.651	4.71
530.996	4.72
531.341	4.72
531.686	4.72
532.031	4.73
532.376	4.74
532.721	4.75
533.065	4.75
533.41	4.74
533.755	4.72
534.099	4.72
534.444	4.71
534.788	4.71
535.133	4.7
535.477	4.7
535.822	4.69
536.166	4.67
536.51	4.67
536.855	4.69
537.199	4.69
537.543	4.7
537.887	4.71
538.231	4.71
538.576	4.72
538.92	4.7
539.264	4.7
539.608	4.7
539.951	4.69
540.295	4.69
540.639	4.69
540.983	4.7
541.327	4.7
541.671	4.7
542.014	4.7
542.358	4.7
542.701	4.7
543.045	4.7
543.389	4.72
543.732	4.72
544.075	4.72
544.419	4.72
544.762	4.72
545.105	4.7
545.449	4.72
545.792	4.72
546.135	4.75
546.478	4.75
546.821	4.75
547.165	4.74
547.508	4.75
547.851	4.77
548.194	4.75
548.536	4.77
548.879	4.77
549.222	4.78
549.565	4.79
549.908	4.78
550.25	4.79
550.593	4.81
550.936	4.8
551.278	4.78
551.621	4.78
551.963	4.79
552.306	4.81
552.648	4.78
552.991	4.77
553.333	4.77
553.675	4.78
554.017	4.77
554.36	4.8
554.702	4.8
555.044	4.81
555.386	4.83
555.728	4.8
556.07	4.84
556.412	4.83
556.754	4.84
557.096	4.81
557.438	4.8
557.78	4.81
558.121	4.83
558.463	4.84
558.805	4.86
559.147	4.81
559.488	4.8
559.83	4.8
560.171	4.83
560.513	4.84
560.854	4.87
561.196	4.86
561.537	4.85
561.878	4.8
562.22	4.79
562.561	4.78
562.902	4.81
563.243	4.76
563.584	4.79
563.925	4.82
564.266	4.82
564.607	4.82
564.948	4.8
565.289	4.78
565.63	4.79
565.971	4.76
566.312	4.81
566.653	4.8
566.993	4.81
567.334	4.8
567.675	4.81
568.015	4.79
568.356	4.8
568.696	4.83
569.037	4.85
569.377	4.87
569.718	4.9
570.058	4.9
570.398	4.88
570.739	4.87
571.079	4.85
571.419	4.87
571.759	4.9
572.099	4.89
572.439	4.89
572.779	4.91
573.119	4.92
573.459	4.94
573.799	4.96
574.139	4.97
574.479	4.98
574.819	4.97
575.158	4.97
575.498	4.97
575.838	4.96
576.177	4.94
576.517	4.9
576.856	4.89
577.196	4.86
577.535	4.86
577.875	4.86
578.214	4.87
578.553	4.87
578.893	4.84
579.232	4.86
579.571	4.86
579.91	4.82
580.25	4.84
580.589	4.81
580.928	4.78
581.267	4.73
581.606	4.74
581.945	4.75
582.283	4.74
582.622	4.71
582.961	4.67
583.3	4.7
583.639	4.7
583.977	4.68
584.316	4.67
584.654	4.71
584.993	4.68
585.332	4.65
585.67	4.67
586.008	4.66
586.347	4.69
586.685	4.66
587.024	4.64
587.362	4.63
587.7	4.66
588.038	4.72
588.376	4.74
588.715	4.72
589.053	4.7
589.391	4.72
589.729	4.77
590.067	4.77
590.404	4.78
590.742	4.83
591.08	4.83
591.418	4.9
591.756	4.9
592.093	4.9
592.431	4.91
592.769	4.93
593.106	4.95
593.444	4.91
593.781	4.94
594.119	4.99
594.456	4.98
594.793	4.97
595.131	4.94
595.468	4.96
595.805	4.96
596.143	4.96
596.48	4.96
596.817	4.93
597.154	4.95
597.491	4.96
597.828	4.93
598.165	4.95
598.502	4.93
598.839	4.93
599.176	4.93
599.512	4.93
599.849	4.92
600.186	4.9
600.523	4.92
600.859	4.95
601.196	4.94
601.532	4.93
601.869	4.92
602.205	4.91
602.542	4.9
602.878	4.91
603.215	4.9
603.551	4.9
603.887	4.94
604.223	4.95
604.56	4.95
604.896	5
605.232	5.03
605.568	5.05
605.904	5.03
606.24	5.07
606.576	5.09
606.912	5.09
607.248	5.11
607.583	5.08
607.919	5.03
608.255	5.02
608.591	5.04
608.926	5.03
609.262	5.04
609.597	5.04
609.933	5.03
610.268	5.08
610.604	5.09
610.939	5.07
611.275	5.05
611.61	5.04
611.945	5.01
612.281	4.98
612.616	4.94
612.951	4.99
613.286	4.96
613.621	4.95
613.956	4.9
614.291	4.92
614.626	4.95
614.961	4.95
615.296	4.93
615.631	4.93
615.966	4.97
616.3	5.01
616.635	5.04
616.97	5.03
617.304	5.03
617.639	4.99
617.973	4.96
618.308	4.98
618.642	4.97
618.977	4.93
619.311	4.88
619.646	4.94
619.98	4.94
620.314	4.95
620.648	4.96
620.983	5
621.317	4.95
621.651	4.97
621.985	5.02
622.319	5.03
622.653	5.03
622.987	5.06
623.321	5.05
623.655	5.07
623.988	5.07
624.322	5.05
624.656	5.09
624.99	5.15
625.323	5.14
625.657	5.2
625.99	5.25
626.324	5.26
626.657	5.25
626.991	5.25
627.324	5.23
627.658	5.27
627.991	5.29
628.324	5.32
628.657	5.3
628.991	5.29
629.324	5.3
629.657	5.33
629.99	5.3
630.323	5.3
630.656	5.32
630.989	5.34
631.322	5.32
631.655	5.31
631.987	5.3
632.32	5.31
632.653	5.28
632.986	5.23
633.318	5.29
633.651	5.26
633.984	5.24
634.316	5.23
634.649	5.19
634.981	5.2
635.313	5.19
635.646	5.23
635.978	5.22
636.31	5.2
636.643	5.17
636.975	5.2
637.307	5.2
637.639	5.14
637.971	5.11
638.303	5.07
638.635	5.05
638.967	5.06
639.299	5.07
639.631	5.03
639.963	5.05
640.295	5
640.626	5.06
640.958	5.07
641.29	5.01
641.621	5.01
641.953	4.97
642.285	4.99
642.616	4.99
642.948	5.04
643.279	5.06
643.61	5.05
643.942	5.03
644.273	5
644.604	5.03
644.936	5.01
645.267	5.05
645.598	5.08
645.929	5.04
646.26	5.1
646.591	5.09
646.922	5.11
647.253	5.18
647.584	5.07
647.915	5.04
648.245	5.13
648.576	5.22
648.907	5.26
649.238	5.16
649.568	5.06
649.899	5.07
650.229	5.12
650.56	5.16
650.89	5.19
651.221	5.2
651.551	5.17
651.882	5.22
652.212	5.26
652.542	5.23
652.872	5.18
653.203	5.12
653.533	5.17
653.863	5.16
654.193	5.12
654.523	5.17
654.853	5.2
655.183	5.18
655.513	5.11
655.843	5.07
656.172	5.17
656.502	5.2
656.832	5.19
657.162	5.17
657.491	5.11
657.821	5.04
658.15	5.08
658.48	5.12
658.809	5.08
659.139	5.07
659.468	5.02
659.798	5.07
660.127	5.15
660.456	5.19
660.785	5.29
661.115	5.29
661.444	5.34
661.773	5.37
662.102	5.38
662.431	5.41
662.76	5.45
663.089	5.41
663.418	5.43
663.747	5.38
664.076	5.39
664.404	5.41
664.733	5.52
665.062	5.49
665.39	5.58
665.719	5.67
666.048	5.74
666.376	5.81
666.705	5.78
667.033	5.65
667.362	5.59
667.69	5.5
668.018	5.53
668.347	5.47
668.675	5.45
669.003	5.49
669.331	5.51
669.659	5.53
669.987	5.54
670.315	5.59
670.643	5.74
670.971	5.74
671.299	5.77
671.627	5.76
671.955	5.76
672.283	5.66
672.61	5.63
672.938	5.6
673.266	5.61
673.593	5.69
673.921	5.72
674.249	5.76
674.576	5.73
674.904	5.63
675.231	5.62
675.558	5.65
675.886	5.66
676.213	5.61
676.54	5.58
676.867	5.69
677.195	5.63
677.522	5.53
677.849	5.57
678.176	5.6
678.503	5.55
678.83	5.6
679.157	5.6
679.484	5.6
679.81	5.57
680.137	5.52
680.464	5.51
680.791	5.48
681.117	5.43
681.444	5.48
681.771	5.52
682.097	5.54
682.424	5.52
682.75	5.49
683.077	5.52
683.403	5.58
683.729	5.61
684.056	5.66
684.382	5.78
684.708	5.67
685.034	5.68
685.36	5.74
685.686	5.64
686.012	5.6
686.339	5.62
686.664	5.68
686.99	5.85
687.316	5.81
687.642	6
687.968	6.11
688.294	6.12
688.619	6.13
688.945	6.19
689.271	6.23
689.596	6.16
689.922	6.1
690.247	5.93
690.573	5.82
690.898	5.86
691.224	5.82
691.549	5.89
691.874	5.8
692.2	5.73
692.525	5.83
692.85	5.97
693.175	5.9
693.5	5.88
693.825	5.78
694.15	5.82
694.475	5.7
694.8	5.63
695.125	5.56
695.45	5.61
695.775	5.62
696.099	5.57
696.424	5.63
696.749	5.66
697.073	5.8
697.398	5.82
697.723	5.84
698.047	5.77
698.372	5.78
698.696	5.87
699.02	5.86
699.345	5.86
699.669	5.88
699.993	5.84
700.318	5.82
700.642	5.82
700.966	5.78
701.29	5.79
701.614	5.77
701.938	5.78
702.262	5.8
702.586	5.84
702.91	5.81
703.234	5.84
703.557	5.82
703.881	5.72
704.205	5.71
704.529	5.55
704.852	5.58
705.176	5.59
705.499	5.62
705.823	5.69
706.146	5.57
706.47	5.46
706.793	5.57
707.117	5.57
707.44	5.66
707.763	5.77
708.086	5.72
708.409	5.84
708.733	5.9
709.056	5.85
709.379	5.88
709.702	5.94
710.025	6.04
710.348	6.11
710.671	6.12
710.993	6.27
711.316	6.32
711.639	6.32
711.962	6.32
712.284	6.35
712.607	6.28
712.93	6.41
713.252	6.36
713.575	6.34
713.897	6.24
714.22	6.08
714.542	5.98
714.864	6.05
715.187	5.97
715.509	5.87
715.831	5.83
716.153	5.79
716.475	5.81
716.798	5.81
717.12	5.77
717.442	5.79
717.764	5.75
718.085	5.73
718.407	5.74
718.729	5.65
719.051	5.53
719.373	5.58
719.695	5.58
720.016	5.7
720.338	5.73
720.659	5.88
720.981	6.19
721.302	6.39
721.624	6.41
721.945	6.36
722.267	6.51
722.588	6.47
722.909	6.38
723.231	6.35
723.552	6.2
723.873	6.35
724.194	6.24
724.515	6.2
724.836	6.18
725.157	6.15
725.478	6.16
725.799	6.13
726.12	6.1
726.441	6.03
726.762	6
727.083	5.89
727.403	5.95
727.724	5.84
728.045	5.63
728.365	5.64
728.686	5.79
729.006	5.87
729.327	5.86
729.647	5.95
729.967	5.99
730.288	6.1
730.608	5.98
730.928	5.94
731.249	5.79
731.569	6.03
731.889	6.18
732.209	6.29
732.529	6.5
732.849	6.48
733.169	6.42
733.489	6.38
733.809	6.48
734.129	6.58
734.448	6.56
734.768	6.56
735.088	6.61
735.408	6.53
735.727	6.6
736.047	6.78
736.366	6.53
736.686	6.56
737.005	6.65
737.325	6.61
737.644	6.82
737.963	7.01
738.283	6.7
738.602	6.58
738.921	6.67
739.24	6.32
739.56	6.37
739.879	6.25
740.198	6.34
740.517	6.56
740.836	6.43
741.155	6.31
741.473	6.54
741.792	6.29
742.111	6.41
742.43	6.29
742.748	6.1
743.067	6.36
743.386	6.28
743.704	6.19
744.023	6.32
744.341	6.42
744.66	6.59
744.978	6.49
745.297	6.45
745.615	6.33
745.933	6.68
746.252	6.89
746.57	6.93
746.888	7.04
747.206	6.73
747.524	6.81
747.842	6.94
748.16	6.93
748.478	7.35
748.796	7.28
749.114	7.33
749.432	7.27
749.749	7.36
750.067	7.23
750.385	7.07
750.703	6.96
751.02	6.86
751.338	6.77
751.655	7.19
751.973	7.2
752.29	7.15
752.608	7.09
752.925	6.98
753.242	7.12
753.56	6.85
753.877	6.84
754.194	6.64
754.511	6.77
754.828	6.47
755.145	6.12
755.462	6.13
755.779	6.17
756.096	6.5
756.413	6.28
756.73	6.49
757.047	6.46
757.364	6.53
757.68	6.68
757.997	6.54
758.314	6.34
758.63	6.3
758.947	6.21
759.264	6.19
759.58	5.94
759.896	6.01
760.213	6.14
760.529	6.19
760.846	6.27
761.162	6.11
761.478	6.21
761.794	6.19
762.11	6.36
762.426	6.32
762.743	6.22
763.059	6.37
763.375	6.39
763.69	6.59
764.006	6.66
764.322	6.59
764.638	6.58
764.954	6.77
765.27	6.77
765.585	6.99
765.901	6.97
766.216	7.24
766.532	7.3
766.848	7.33
767.163	7.59
767.478	7.64
767.794	7.67
768.109	7.49
768.424	7.71
768.74	7.62
769.055	7.65
769.37	7.74
769.685	7.56
770	7.28
770.315	7.05
770.63	6.78
770.945	6.55
771.26	6.62
771.575	6.26
771.89	6.53
772.205	6.31
772.52	6
772.834	5.79
773.149	5.86
773.464	5.94
773.778	5.66
774.093	5.5
774.407	5.6
774.722	5.76
775.036	5.75
775.351	5.95
775.665	5.66
775.979	5.44
776.293	5.52
776.608	6.16
776.922	6.2
777.236	6.41
777.55	6.78
777.864	6.81
778.178	7.2
778.492	7.29
778.806	7.32
779.12	7.58
779.434	7.67
779.747	7.43
780.061	7.18
780.375	7.19
780.689	7.3
781.002	7.52
781.316	7.6
781.629	7.8
781.943	7.28
782.256	7.63
782.57	7.85
782.883	8.26
783.196	7.94
783.51	7.71
783.823	7.85
784.136	7.72
784.449	8
784.762	8.12
785.075	7.64
785.388	7.85
785.701	8
786.014	7.62
786.327	7.66
786.64	7.84
786.953	8.02
787.266	8.01
787.578	7.5
787.891	7.49
788.204	6.99
788.516	7.14
788.829	7.22
789.141	7.45
789.454	7.2
789.766	7.54
790.079	7.67
790.391	7.79
790.703	7.85
791.016	7.53
791.328	7.42
791.64	7.77
791.952	8.1
792.264	7.9
792.576	8.04
792.888	8.32
793.2	8.52
793.512	8.28
793.824	8.35
794.136	8.42
794.448	8.73
794.76	8.45
795.071	8.56
795.383	8.55
795.695	8.1
796.006	8.12
796.318	7.44
796.629	7.52
796.941	7.44
797.252	7.6
797.564	7.23
797.875	7.07
798.186	6.6
798.497	6.14
798.809	6.16
799.12	6.21
799.431	6.11
799.742	6.18
800.053	6.48
800.364	6.15
800.675	6.74
800.986	6.5
801.297	7.24
801.608	7.4
801.918	7.29
802.229	7.62
802.54	7.18
802.851	7.63
803.161	7.78
803.472	7.3
803.782	7.37
804.093	7.94
804.403	7.94
804.714	8.4
805.024	7.81
805.334	7.96
805.645	8.23
805.955	8.35
806.265	8.58
806.575	8.26
806.885	8.45
807.195	7.91
807.505	8.24
807.815	8.3
808.125	8.15
808.435	7.66
808.745	7.53
809.055	8.35
809.365	8.4
809.674	8.43
809.984	9.05
810.294	8.65
810.603	8.7
810.913	8.94
811.222	8.65
811.532	9.29
811.841	9.49
812.151	9.18
812.46	9.12
812.769	8.25
813.079	8.24
813.388	8.35
813.697	8.89
814.006	7.98
814.315	7.91
814.624	7.79
814.933	8.35
815.242	8.56
815.551	8.35
815.86	8.46
816.169	7.76
816.478	7.51
816.786	7.29
817.095	7.22
817.404	6.78
817.712	7.21
818.021	7.29
818.33	7.03
818.638	7.26
818.947	7.56
819.255	8.04
819.563	7.94
819.872	7.99
820.18	7.82
820.488	8.1
820.796	8.17
821.105	8.22
821.413	8.23
821.721	8.15
822.029	8.07
822.337	8.06
822.645	8.51
822.953	8.6
823.26	8.64
823.568	8.5
823.876	8.62
824.184	8.47
824.491	8.42
824.799	8.5
825.107	8.6
825.414	8.67
825.722	8.7
826.029	8.78
826.337	8.93
826.644	9.04
826.951	9.12
827.259	9.14
827.566	9.09
827.873	9.11
828.18	9.27
828.488	9.53
828.795	9.49
829.102	9.3
829.409	9.41
829.716	9.53
830.023	9.64
830.329	9.64
830.636	10.01
830.943	10.04
831.25	9.87
831.557	9.77
831.863	9.39
832.17	9.07
832.476	8.89
832.783	8.98
833.089	8.98
833.396	8.96
833.702	8.86
834.009	9.04
834.315	9.03
834.621	8.94
834.928	8.8
835.234	8.87
835.54	8.49
835.846	8.18
836.152	8.14
836.458	8.22
836.764	7.98
837.07	7.8
837.376	7.99
837.682	8.14
837.988	7.86
838.293	8.01
838.599	7.75
838.905	7.28
839.211	6.64
839.516	6.77
839.822	7.45
840.127	7.08
840.433	7.28
840.738	7.38
841.044	7.18
841.349	7.09
841.654	6.36
841.959	6.57
842.265	6.86
842.57	7.53
842.875	8.03
843.18	9.16
843.485	9.5
843.79	9.91
844.095	10.44
844.4	11.96
844.705	11.33
845.01	12.41
845.315	13.78
845.619	12.74
845.924	12.46
846.229	10.45
846.533	11.25
846.838	11.45
847.142	10.31
847.447	11.35
847.751	10.28
848.056	11.07
848.36	11.11
848.664	10.24
848.969	8.39
849.273	7.91
849.577	5.1
849.881	5.1
850.185	4.5
850.489	4.4
850.794	3.97
851.097	5.12
851.401	5.07
851.705	7.24
852.009	9.44
852.313	8.5
852.617	10.83
852.92	12.18
853.224	10.55
853.528	12.03
853.831	10.3
854.135	12.52
854.438	14.42
854.742	14.21
855.045	15.45
855.349	16.19
855.652	15.86
855.955	17.57
856.259	17.47
856.562	17.41
856.865	16.56
857.168	15.31
857.471	16.03
857.774	17.77
858.077	17.17
858.38	17.72
858.683	17.35
858.986	16.83
859.289	14.63
859.592	16.4
859.894	16.78
860.197	17.83
860.5	17.21
860.802	16.49
861.105	17.32
861.407	18.04
861.71	17.88
862.012	18.49
862.315	18.31
862.617	16.27
862.919	17.65
863.222	19.19
863.524	19.38
863.826	20.79
864.128	20.7
864.43	19.72
864.732	19.37
865.034	19.72
865.336	18.68
865.638	19.5
865.94	17.66
866.242	16.86
866.544	15.27
866.846	16.39
867.147	16.49
867.449	18.28
867.751	15.77
868.052	18.58
868.354	16.79
868.655	17.52
868.957	18.27
869.258	16.65
869.56	15.94
869.861	14.06
870.162	11.06
870.463	8.55
870.765	9.81
871.066	9.21
871.367	10.06
871.668	9.4
871.969	8.15
872.27	9.15
872.571	9.78
872.872	13.11
873.173	11.48
873.473	11.4
873.774	10.46
874.075	10.33
874.376	7.95
874.676	10.96
874.977	8.97
875.277	11.33
875.578	10.52
875.878	9.98
876.179	11.99
876.479	13.07
876.78	14
877.08	12.32
877.38	13.54
877.68	13.12
877.981	15.1
878.281	18.24
878.581	18.94
