Data from BU58140_Reflection_00002.txt Node
Date: Tue Nov 19 10:53:21 EST 2019
User: vgr7
Spectrometer: USB2G7710
Scans to average: 3
Trigger mode: 4
Integration Time (sec): 2.000000E-2
Electric dark correction enabled: true
Boxcar width: 10
XAxis mode: Wavelengths
Number of Pixels in Spectrum: 2048
>>>>>Begin Spectral Data<<<<<
177.721	244.14
178.105	-214.1
178.488	-63.48
178.871	-280.95
179.254	-288.89
179.636	209.93
180.019	356.41
180.402	466.67
180.785	108.33
181.168	-66.67
181.55	683.33
181.933	211.11
182.316	57.26
182.698	65.02
183.081	56.28
183.463	23.18
183.846	69.95
184.228	94.79
184.611	458.97
184.993	-73.33
185.376	-64.66
185.758	-3.83
186.14	20.83
186.522	34.27
186.904	6.41
187.287	-9.11
187.669	-21.93
188.051	-44.05
188.433	-65.03
188.815	-64.45
189.197	-52.05
189.579	-35.91
189.961	-53.9
190.342	-36.15
190.724	-54.63
191.106	-64.16
191.488	-60.1
191.869	-38.08
192.251	-18.64
192.633	-10.52
193.014	-4.59
193.396	5.39
193.777	-12.11
194.159	-0.2
194.54	-2.49
194.922	4.9
195.303	11.62
195.684	1.87
196.065	5.25
196.447	8
196.828	-3.14
197.209	-16.32
197.59	-10.56
197.971	-10.32
198.352	-13.39
198.733	-1.24
199.114	1.14
199.495	-7.84
199.876	-15.18
200.257	-29.01
200.638	-27.7
201.018	-30.2
201.399	-41.13
201.78	-38.83
202.16	-50.35
202.541	-63.07
202.922	-66.32
203.302	-57.28
203.683	-53.4
204.063	-71.65
204.444	-59.39
204.824	-43.06
205.204	-31.38
205.585	-37.71
205.965	-47.63
206.345	-56.82
206.725	-61.06
207.106	-50.13
207.486	-54.79
207.866	-52.08
208.246	-33.57
208.626	-46.89
209.006	-50.94
209.386	-47.09
209.766	-45.98
210.145	-39.56
210.525	-35.52
210.905	-31.89
211.285	-30.6
211.664	-26.46
212.044	-16.11
212.424	-15.65
212.803	-27.52
213.183	-28.36
213.562	-28.09
213.942	-21.99
214.321	-16.95
214.701	-26.09
215.08	-20.37
215.459	-18.1
215.838	-26.42
216.218	-36.95
216.597	-29.35
216.976	-27.37
217.355	-29.88
217.734	-33.63
218.113	-29.88
218.492	-34.38
218.871	-34.4
219.25	-45.38
219.629	-50.14
220.008	-45.62
220.387	-55.8
220.766	-56.34
221.144	-60.97
221.523	-48.84
221.902	-41.99
222.28	-31.27
222.659	-21.34
223.037	-34.41
223.416	-23.88
223.794	-8.72
224.173	-21.39
224.551	-14.38
224.929	-17.36
225.308	-14.28
225.686	-13.82
226.064	-12.68
226.442	-10.43
226.821	-11.16
227.199	-10.22
227.577	-8.9
227.955	-7.64
228.333	-9.69
228.711	-9.09
229.089	-6.22
229.467	-7.09
229.845	-8.52
230.222	-7.84
230.6	-6.97
230.978	-1.91
231.356	-3.83
231.733	-6.26
232.111	-3.2
232.488	-4.84
232.866	-2.81
233.243	-2.99
233.621	-2.7
233.998	-4.59
234.376	-4.21
234.753	-4.08
235.13	-3.73
235.508	-3.71
235.885	-3.56
236.262	-1.1
236.639	-0.93
237.016	-1.79
237.393	-1.45
237.77	0.2
238.147	-0.4
238.524	0.14
238.901	-0.92
239.278	-0.74
239.655	-0.62
240.032	-0.52
240.409	0.08
240.785	0.13
241.162	0.44
241.539	1.29
241.915	1.49
242.292	2.04
242.668	2.73
243.045	3.26
243.421	3.63
243.798	4.01
244.174	3.74
244.551	3.89
244.927	3.84
245.303	3.66
245.679	3.64
246.056	3.66
246.432	3.77
246.808	4.07
247.184	4.21
247.56	4.29
247.936	4.3
248.312	4.34
248.688	4.42
249.064	4.54
249.44	4.17
249.815	4.42
250.191	4.23
250.567	3.96
250.943	4.02
251.318	4.25
251.694	3.88
252.069	4.07
252.445	4.17
252.82	4.37
253.196	4.8
253.571	4.91
253.947	5
254.322	4.98
254.697	4.88
255.073	4.53
255.448	4.49
255.823	4.62
256.198	4.41
256.573	4.3
256.948	4.37
257.323	4.39
257.698	4.4
258.073	4.43
258.448	4.43
258.823	4.19
259.198	3.97
259.573	3.82
259.948	3.75
260.322	3.52
260.697	3.63
261.072	3.58
261.446	3.47
261.821	3.51
262.195	3.43
262.57	3.35
262.944	3.43
263.319	3.44
263.693	3.45
264.067	3.43
264.442	3.34
264.816	3.13
265.19	3.28
265.564	3.06
265.938	3.14
266.313	3.04
266.687	2.92
267.061	2.98
267.435	3.32
267.809	3.17
268.183	3.43
268.556	3.27
268.93	3.23
269.304	3.2
269.678	3.38
270.051	3.42
270.425	3.28
270.799	3.25
271.172	3.24
271.546	3.32
271.919	3.52
272.293	3.55
272.666	3.6
273.04	3.55
273.413	3.64
273.787	3.59
274.16	3.69
274.533	3.85
274.906	3.81
275.279	3.7
275.653	3.77
276.026	3.66
276.399	3.69
276.772	3.64
277.145	3.73
277.518	3.41
277.891	3.47
278.263	3.8
278.636	3.94
279.009	4.03
279.382	3.95
279.755	3.8
280.127	3.83
280.5	3.84
280.872	3.71
281.245	3.54
281.617	3.48
281.99	3.44
282.362	3.3
282.735	3.22
283.107	3.13
283.479	3.38
283.852	3.47
284.224	3.5
284.596	3.65
284.968	3.67
285.34	3.71
285.713	3.64
286.085	3.56
286.457	3.51
286.829	3.44
287.201	3.34
287.572	3.42
287.944	3.39
288.316	3.43
288.688	3.57
289.06	3.72
289.431	3.8
289.803	3.92
290.175	3.96
290.546	4.06
290.918	4.14
291.289	3.94
291.661	4.04
292.032	3.99
292.403	3.96
292.775	4.06
293.146	4.16
293.517	4.16
293.889	4.12
294.26	4.22
294.631	4.28
295.002	4.38
295.373	4.35
295.744	4.46
296.115	4.54
296.486	4.44
296.857	4.51
297.228	4.42
297.599	4.25
297.97	4.26
298.34	4.25
298.711	4.28
299.082	4.44
299.452	4.32
299.823	4.4
300.194	4.36
300.564	4.21
300.935	4.35
301.305	4.36
301.676	4.39
302.046	4.42
302.416	4.32
302.787	4.34
303.157	4.38
303.527	4.45
303.897	4.39
304.267	4.54
304.637	4.49
305.008	4.62
305.378	4.72
305.748	4.75
306.117	4.77
306.487	4.87
306.857	4.81
307.227	5.02
307.597	5.11
307.967	5.16
308.336	5.29
308.706	5.11
309.076	5.19
309.445	5.29
309.815	5.19
310.184	5.19
310.554	5.24
310.923	5.23
311.293	5.21
311.662	5.27
312.031	5.15
312.401	5.09
312.77	5.07
313.139	5.19
313.508	5.22
313.877	5.13
314.246	5.11
314.616	5.1
314.985	4.95
315.353	4.79
315.722	4.85
316.091	4.9
316.46	4.96
316.829	4.99
317.198	4.96
317.567	5.1
317.935	5.21
318.304	5.27
318.672	5.2
319.041	5.2
319.41	5.04
319.778	5.17
320.147	5.15
320.515	5.2
320.883	5.07
321.252	5.08
321.62	5.19
321.988	5.25
322.357	5.25
322.725	5.15
323.093	5.28
323.461	5.38
323.829	5.38
324.197	5.31
324.565	5.29
324.933	5.23
325.301	5.05
325.669	5.11
326.037	4.97
326.405	5.05
326.772	5.02
327.14	5.07
327.508	4.93
327.875	5.04
328.243	4.98
328.61	4.98
328.978	4.95
329.346	4.87
329.713	4.89
330.08	4.91
330.448	4.95
330.815	4.84
331.182	4.67
331.55	4.56
331.917	4.61
332.284	4.64
332.651	4.65
333.018	4.67
333.385	4.61
333.752	4.63
334.119	4.65
334.486	4.7
334.853	4.73
335.22	4.75
335.587	4.74
335.954	4.7
336.32	4.59
336.687	4.6
337.054	4.6
337.42	4.53
337.787	4.43
338.153	4.45
338.52	4.58
338.886	4.48
339.253	4.52
339.619	4.47
339.986	4.5
340.352	4.46
340.718	4.52
341.084	4.53
341.451	4.65
341.817	4.58
342.183	4.54
342.549	4.48
342.915	4.57
343.281	4.53
343.647	4.59
344.013	4.71
344.379	4.74
344.745	4.77
345.11	4.86
345.476	4.92
345.842	4.98
346.208	4.82
346.573	4.91
346.939	4.88
347.304	4.95
347.67	4.92
348.035	4.97
348.401	4.98
348.766	4.94
349.132	4.94
349.497	4.99
349.862	5.01
350.228	5.03
350.593	4.98
350.958	5.05
351.323	5.03
351.688	5.12
352.053	5.16
352.418	5.15
352.783	5.06
353.148	5.08
353.513	4.98
353.878	4.99
354.243	4.95
354.608	4.91
354.972	4.89
355.337	4.89
355.702	4.81
356.066	4.8
356.431	4.76
356.795	4.72
357.16	4.73
357.524	4.74
357.889	4.72
358.253	4.7
358.618	4.65
358.982	4.64
359.346	4.6
359.71	4.56
360.075	4.6
360.439	4.61
360.803	4.62
361.167	4.67
361.531	4.71
361.895	4.73
362.259	4.83
362.623	4.87
362.987	4.85
363.351	4.85
363.714	4.82
364.078	4.81
364.442	4.77
364.806	4.79
365.169	4.74
365.533	4.81
365.896	4.89
366.26	4.87
366.623	4.86
366.987	4.83
367.35	4.87
367.714	4.84
368.077	4.85
368.44	4.85
368.803	4.87
369.167	4.82
369.53	4.87
369.893	4.87
370.256	4.82
370.619	4.81
370.982	4.84
371.345	4.91
371.708	4.92
372.071	4.94
372.434	4.91
372.797	4.95
373.159	4.9
373.522	4.81
373.885	4.88
374.247	4.89
374.61	4.9
374.973	4.83
375.335	4.85
375.698	4.83
376.06	4.79
376.423	4.72
376.785	4.78
377.147	4.7
377.51	4.64
377.872	4.63
378.234	4.7
378.596	4.72
378.958	4.7
379.321	4.73
379.683	4.77
380.045	4.76
380.407	4.75
380.769	4.78
381.13	4.82
381.492	4.77
381.854	4.78
382.216	4.78
382.578	4.83
382.939	4.86
383.301	4.89
383.663	4.94
384.024	4.98
384.386	5
384.747	5.02
385.109	5.02
385.47	5.03
385.832	5.01
386.193	4.97
386.554	4.91
386.916	4.94
387.277	4.88
387.638	4.91
387.999	4.9
388.36	4.85
388.721	4.85
389.082	4.88
389.443	4.87
389.804	4.84
390.165	4.87
390.526	4.89
390.887	4.92
391.248	4.9
391.609	4.93
391.969	4.91
392.33	4.91
392.691	4.9
393.051	4.89
393.412	4.87
393.772	4.9
394.133	4.91
394.493	4.9
394.854	4.93
395.214	4.94
395.574	4.93
395.935	4.93
396.295	4.93
396.655	4.97
397.015	4.99
397.376	4.97
397.736	4.93
398.096	4.88
398.456	4.84
398.816	4.83
399.176	4.79
399.535	4.75
399.895	4.74
400.255	4.77
400.615	4.82
400.975	4.83
401.334	4.8
401.694	4.83
402.054	4.82
402.413	4.81
402.773	4.78
403.132	4.79
403.492	4.82
403.851	4.84
404.211	4.82
404.57	4.8
404.929	4.85
405.288	4.89
405.648	4.91
406.007	4.89
406.366	4.89
406.725	4.92
407.084	4.96
407.443	4.97
407.802	4.95
408.161	4.93
408.52	4.97
408.879	4.99
409.238	5
409.596	5.01
409.955	5.01
410.314	5.02
410.673	5.02
411.031	5
411.39	5
411.748	5
412.107	5.02
412.465	4.99
412.824	4.96
413.182	4.96
413.54	4.98
413.899	4.97
414.257	4.95
414.615	4.95
414.974	4.98
415.332	4.98
415.69	4.97
416.048	4.94
416.406	4.92
416.764	4.89
417.122	4.88
417.48	4.88
417.838	4.88
418.195	4.86
418.553	4.87
418.911	4.85
419.269	4.83
419.626	4.83
419.984	4.83
420.342	4.84
420.699	4.84
421.057	4.83
421.414	4.84
421.772	4.84
422.129	4.81
422.486	4.79
422.844	4.79
423.201	4.8
423.558	4.79
423.915	4.82
424.273	4.83
424.63	4.82
424.987	4.82
425.344	4.81
425.701	4.83
426.058	4.83
426.415	4.83
426.772	4.83
427.128	4.83
427.485	4.82
427.842	4.82
428.199	4.82
428.555	4.8
428.912	4.8
429.269	4.8
429.625	4.82
429.982	4.83
430.338	4.82
430.695	4.8
431.051	4.81
431.407	4.78
431.764	4.76
432.12	4.8
432.476	4.8
432.832	4.83
433.189	4.85
433.545	4.86
433.901	4.83
434.257	4.83
434.613	4.81
434.969	4.81
435.325	4.82
435.681	4.81
436.036	4.85
436.392	4.84
436.748	4.86
437.104	4.84
437.459	4.86
437.815	4.87
438.171	4.88
438.526	4.9
438.882	4.92
439.237	4.94
439.593	4.93
439.948	4.93
440.304	4.92
440.659	4.91
441.014	4.89
441.369	4.91
441.725	4.93
442.08	4.93
442.435	4.94
442.79	4.93
443.145	4.94
443.5	4.92
443.855	4.94
444.21	4.93
444.565	4.93
444.92	4.94
445.275	4.94
445.629	4.93
445.984	4.91
446.339	4.88
446.693	4.89
447.048	4.88
447.403	4.87
447.757	4.85
448.112	4.85
448.466	4.85
448.82	4.85
449.175	4.85
449.529	4.85
449.883	4.84
450.238	4.83
450.592	4.84
450.946	4.84
451.3	4.85
451.654	4.83
452.008	4.84
452.362	4.81
452.716	4.8
453.07	4.8
453.424	4.78
453.778	4.78
454.132	4.77
454.486	4.77
454.839	4.78
455.193	4.81
455.547	4.82
455.9	4.82
456.254	4.82
456.607	4.83
456.961	4.83
457.314	4.84
457.668	4.84
458.021	4.83
458.375	4.82
458.728	4.8
459.081	4.81
459.434	4.82
459.787	4.84
460.141	4.85
460.494	4.86
460.847	4.87
461.2	4.88
461.553	4.88
461.906	4.9
462.259	4.87
462.611	4.87
462.964	4.88
463.317	4.89
463.67	4.9
464.022	4.89
464.375	4.9
464.728	4.9
465.08	4.92
465.433	4.93
465.785	4.97
466.138	4.99
466.49	5
466.843	5
467.195	5
467.547	5
467.899	5
468.252	5.02
468.604	5.02
468.956	5.03
469.308	5
469.66	5.03
470.012	5.02
470.364	5.02
470.716	5.01
471.068	5
471.42	5
471.772	5.01
472.123	5.04
472.475	5.02
472.827	5.02
473.178	5
473.53	4.99
473.882	4.98
474.233	4.98
474.585	4.98
474.936	4.98
475.288	4.96
475.639	4.93
475.99	4.93
476.342	4.93
476.693	4.95
477.044	4.95
477.395	4.94
477.746	4.91
478.097	4.93
478.448	4.92
478.8	4.93
479.15	4.92
479.501	4.91
479.852	4.94
480.203	4.95
480.554	4.97
480.905	4.97
481.255	4.99
481.606	5
481.957	5
482.307	5
482.658	5
483.009	5.01
483.359	5.02
483.709	5.02
484.06	5.02
484.41	5.02
484.761	5.03
485.111	5.05
485.461	5.05
485.811	5.06
486.162	5.05
486.512	5.06
486.862	5.06
487.212	5.06
487.562	5.05
487.912	5.04
488.262	5.04
488.612	5.03
488.961	5.02
489.311	5.02
489.661	5.03
490.011	5.03
490.36	5.03
490.71	5.02
491.06	5.03
491.409	5.02
491.759	5.02
492.108	5.03
492.458	5.01
492.807	5
493.157	4.99
493.506	5
493.855	5
494.204	5.01
494.554	5
494.903	5.01
495.252	5.01
495.601	5
495.95	5.01
496.299	5.03
496.648	5.03
496.997	5.02
497.346	5.02
497.695	5.03
498.043	5.05
498.392	5.05
498.741	5.07
499.09	5.07
499.438	5.06
499.787	5.08
500.135	5.08
500.484	5.09
500.832	5.08
501.181	5.07
501.529	5.07
501.878	5.06
502.226	5.07
502.574	5.07
502.923	5.08
503.271	5.07
503.619	5.05
503.967	5.04
504.315	5.05
504.663	5.05
505.011	5.05
505.359	5.03
505.707	5.02
506.055	5.01
506.403	5.01
506.751	5.02
507.098	5.01
507.446	5.02
507.794	5.02
508.141	5.03
508.489	5.02
508.837	5.01
509.184	5.01
509.531	5.01
509.879	5
510.226	5.01
510.574	5.02
510.921	5.02
511.268	5.03
511.616	5.03
511.963	5.02
512.31	5.03
512.657	5.05
513.004	5.05
513.351	5.05
513.698	5.06
514.045	5.05
514.392	5.04
514.739	5.06
515.086	5.07
515.432	5.09
515.779	5.1
516.126	5.12
516.473	5.11
516.819	5.1
517.166	5.1
517.512	5.09
517.859	5.11
518.205	5.11
518.552	5.11
518.898	5.11
519.245	5.12
519.591	5.12
519.937	5.14
520.283	5.15
520.629	5.14
520.976	5.15
521.322	5.16
521.668	5.17
522.014	5.14
522.36	5.14
522.706	5.13
523.052	5.13
523.398	5.13
523.743	5.14
524.089	5.17
524.435	5.18
524.781	5.21
525.126	5.21
525.472	5.24
525.817	5.25
526.163	5.25
526.509	5.26
526.854	5.26
527.199	5.26
527.545	5.27
527.89	5.27
528.235	5.28
528.581	5.28
528.926	5.29
529.271	5.31
529.616	5.31
529.961	5.32
530.306	5.32
530.651	5.32
530.996	5.33
531.341	5.33
531.686	5.33
532.031	5.33
532.376	5.32
532.721	5.31
533.065	5.31
533.41	5.31
533.755	5.3
534.099	5.29
534.444	5.29
534.788	5.27
535.133	5.28
535.477	5.27
535.822	5.27
536.166	5.26
536.51	5.25
536.855	5.25
537.199	5.23
537.543	5.23
537.887	5.24
538.231	5.23
538.576	5.2
538.92	5.22
539.264	5.21
539.608	5.23
539.951	5.22
540.295	5.23
540.639	5.22
540.983	5.24
541.327	5.25
541.671	5.24
542.014	5.27
542.358	5.28
542.701	5.3
543.045	5.3
543.389	5.31
543.732	5.31
544.075	5.32
544.419	5.34
544.762	5.36
545.105	5.37
545.449	5.39
545.792	5.42
546.135	5.4
546.478	5.4
546.821	5.4
547.165	5.39
547.508	5.39
547.851	5.41
548.194	5.4
548.536	5.38
548.879	5.39
549.222	5.36
549.565	5.33
549.908	5.31
550.25	5.3
550.593	5.3
550.936	5.3
551.278	5.28
551.621	5.28
551.963	5.27
552.306	5.24
552.648	5.2
552.991	5.22
553.333	5.22
553.675	5.25
554.017	5.25
554.36	5.3
554.702	5.29
555.044	5.27
555.386	5.3
555.728	5.33
556.07	5.3
556.412	5.3
556.754	5.3
557.096	5.3
557.438	5.28
557.78	5.28
558.121	5.28
558.463	5.27
558.805	5.28
559.147	5.27
559.488	5.3
559.83	5.35
560.171	5.33
560.513	5.33
560.854	5.33
561.196	5.31
561.537	5.28
561.878	5.27
562.22	5.27
562.561	5.26
562.902	5.22
563.243	5.22
563.584	5.24
563.925	5.26
564.266	5.25
564.607	5.29
564.948	5.29
565.289	5.31
565.63	5.32
565.971	5.32
566.312	5.28
566.653	5.26
566.993	5.23
567.334	5.22
567.675	5.22
568.015	5.22
568.356	5.23
568.696	5.22
569.037	5.23
569.377	5.25
569.718	5.24
570.058	5.25
570.398	5.27
570.739	5.27
571.079	5.25
571.419	5.26
571.759	5.24
572.099	5.24
572.439	5.26
572.779	5.25
573.119	5.26
573.459	5.31
573.799	5.31
574.139	5.29
574.479	5.31
574.819	5.32
575.158	5.32
575.498	5.33
575.838	5.36
576.177	5.36
576.517	5.34
576.856	5.35
577.196	5.38
577.535	5.36
577.875	5.36
578.214	5.38
578.553	5.37
578.893	5.41
579.232	5.42
579.571	5.39
579.91	5.41
580.25	5.43
580.589	5.41
580.928	5.45
581.267	5.49
581.606	5.47
581.945	5.45
582.283	5.48
582.622	5.48
582.961	5.46
583.3	5.46
583.639	5.5
583.977	5.52
584.316	5.53
584.654	5.55
584.993	5.57
585.332	5.52
585.67	5.58
586.008	5.59
586.347	5.57
586.685	5.54
587.024	5.53
587.362	5.5
587.7	5.5
588.038	5.49
588.376	5.5
588.715	5.53
589.053	5.56
589.391	5.5
589.729	5.54
590.067	5.54
590.404	5.56
590.742	5.51
591.08	5.49
591.418	5.47
591.756	5.48
592.093	5.48
592.431	5.52
592.769	5.5
593.106	5.48
593.444	5.51
593.781	5.53
594.119	5.53
594.456	5.53
594.793	5.58
595.131	5.58
595.468	5.56
595.805	5.55
596.143	5.53
596.48	5.57
596.817	5.54
597.154	5.54
597.491	5.53
597.828	5.5
598.165	5.52
598.502	5.54
598.839	5.54
599.176	5.52
599.512	5.53
599.849	5.54
600.186	5.52
600.523	5.48
600.859	5.5
601.196	5.51
601.532	5.53
601.869	5.5
602.205	5.49
602.542	5.48
602.878	5.48
603.215	5.5
603.551	5.48
603.887	5.47
604.223	5.46
604.56	5.48
604.896	5.57
605.232	5.56
605.568	5.55
605.904	5.55
606.24	5.58
606.576	5.55
606.912	5.52
607.248	5.54
607.583	5.56
607.919	5.55
608.255	5.55
608.591	5.55
608.926	5.54
609.262	5.52
609.597	5.54
609.933	5.54
610.268	5.57
610.604	5.6
610.939	5.61
611.275	5.62
611.61	5.63
611.945	5.53
612.281	5.56
612.616	5.58
612.951	5.6
613.286	5.59
613.621	5.57
613.956	5.61
614.291	5.63
614.626	5.68
614.961	5.69
615.296	5.7
615.631	5.65
615.966	5.69
616.3	5.71
616.635	5.71
616.97	5.71
617.304	5.71
617.639	5.65
617.973	5.67
618.308	5.68
618.642	5.63
618.977	5.68
619.311	5.65
619.646	5.68
619.98	5.65
620.314	5.67
620.648	5.71
620.983	5.67
621.317	5.66
621.651	5.63
621.985	5.66
622.319	5.68
622.653	5.73
622.987	5.71
623.321	5.68
623.655	5.69
623.988	5.71
624.322	5.69
624.656	5.72
624.99	5.73
625.323	5.74
625.657	5.75
625.99	5.76
626.324	5.75
626.657	5.73
626.991	5.78
627.324	5.75
627.658	5.73
627.991	5.75
628.324	5.72
628.657	5.7
628.991	5.66
629.324	5.65
629.657	5.62
629.99	5.66
630.323	5.64
630.656	5.62
630.989	5.61
631.322	5.61
631.655	5.63
631.987	5.62
632.32	5.58
632.653	5.59
632.986	5.62
633.318	5.61
633.651	5.6
633.984	5.55
634.316	5.57
634.649	5.56
634.981	5.58
635.313	5.6
635.646	5.64
635.978	5.72
636.31	5.65
636.643	5.65
636.975	5.6
637.307	5.64
637.639	5.66
637.971	5.67
638.303	5.67
638.635	5.65
638.967	5.61
639.299	5.62
639.631	5.65
639.963	5.62
640.295	5.65
640.626	5.65
640.958	5.63
641.29	5.65
641.621	5.64
641.953	5.59
642.285	5.57
642.616	5.54
642.948	5.44
643.279	5.49
643.61	5.46
643.942	5.48
644.273	5.52
644.604	5.48
644.936	5.51
645.267	5.49
645.598	5.47
645.929	5.55
646.26	5.53
646.591	5.51
646.922	5.49
647.253	5.5
647.584	5.46
647.915	5.47
648.245	5.46
648.576	5.5
648.907	5.47
649.238	5.49
649.568	5.53
649.899	5.53
650.229	5.57
650.56	5.61
650.89	5.64
651.221	5.54
651.551	5.57
651.882	5.52
652.212	5.48
652.542	5.58
652.872	5.56
653.203	5.61
653.533	5.65
653.863	5.69
654.193	5.67
654.523	5.73
654.853	5.8
655.183	5.79
655.513	5.81
655.843	5.82
656.172	5.87
656.502	5.81
656.832	5.84
657.162	5.8
657.491	5.81
657.821	5.77
658.15	5.81
658.48	5.89
658.809	5.9
659.139	5.97
659.468	5.94
659.798	5.91
660.127	5.92
660.456	5.8
660.785	5.81
661.115	5.8
661.444	5.73
661.773	5.66
662.102	5.67
662.431	5.66
662.76	5.7
663.089	5.72
663.418	5.71
663.747	5.72
664.076	5.77
664.404	5.74
664.733	5.75
665.062	5.76
665.39	5.73
665.719	5.77
666.048	5.74
666.376	5.75
666.705	5.76
667.033	5.79
667.362	5.88
667.69	5.96
668.018	6.06
668.347	6.15
668.675	6.12
669.003	6.19
669.331	6.14
669.659	6.08
669.987	6.05
670.315	6.07
670.643	6.08
670.971	6.07
671.299	6.1
671.627	6.15
671.955	6.07
672.283	5.94
672.61	5.87
672.938	5.86
673.266	5.85
673.593	5.82
673.921	5.76
674.249	5.76
674.576	5.71
674.904	5.61
675.231	5.61
675.558	5.73
675.886	5.62
676.213	5.58
676.54	5.68
676.867	5.66
677.195	5.67
677.522	5.69
677.849	5.7
678.176	5.7
678.503	5.66
678.83	5.7
679.157	5.77
679.484	5.84
679.81	5.9
680.137	5.93
680.464	5.94
680.791	5.97
681.117	5.96
681.444	5.93
681.771	5.96
682.097	5.96
682.424	5.93
682.75	5.93
683.077	5.99
683.403	5.96
683.729	5.98
684.056	6.01
684.382	6.01
684.708	5.99
685.034	6.03
685.36	6.01
685.686	6.03
686.012	6.07
686.339	5.98
686.664	5.91
686.99	5.8
687.316	5.84
687.642	5.88
687.968	5.92
688.294	6
688.619	6.09
688.945	6.08
689.271	6.06
689.596	6.12
689.922	6.11
690.247	6.21
690.573	6.15
690.898	6.15
691.224	6.06
691.549	6.01
691.874	5.95
692.2	5.99
692.525	5.95
692.85	5.92
693.175	6.01
693.5	6.1
693.825	6.19
694.15	6.12
694.475	6.05
694.8	6.09
695.125	6.07
695.45	5.85
695.775	5.84
696.099	5.85
696.424	5.85
696.749	5.91
697.073	5.81
697.398	5.89
697.723	5.93
698.047	6.05
698.372	6.09
698.696	6.11
699.02	6.13
699.345	6.14
699.669	6.13
699.993	6.07
700.318	6.09
700.642	6.12
700.966	6.14
701.29	6.11
701.614	6.02
701.938	5.88
702.262	5.95
702.586	5.97
702.91	5.97
703.234	5.94
703.557	5.98
703.881	6.01
704.205	5.94
704.529	5.95
704.852	5.85
705.176	5.98
705.499	5.88
705.823	5.84
706.146	5.98
706.47	6.1
706.793	6.21
707.117	6.11
707.44	6.1
707.763	6.19
708.086	6.22
708.409	6.22
708.733	6.3
709.056	6.34
709.379	6.29
709.702	6.29
710.025	6.44
710.348	6.37
710.671	6.4
710.993	6.43
711.316	6.35
711.639	6.29
711.962	6.19
712.284	6.27
712.607	6.4
712.93	6.4
713.252	6.37
713.575	6.26
713.897	6.31
714.22	6.24
714.542	6.3
714.864	6.21
715.187	6.22
715.509	6.26
715.831	6.32
716.153	6.34
716.475	6.31
716.798	6.18
717.12	6.14
717.442	5.93
717.764	5.99
718.085	6.02
718.407	6.13
718.729	6.18
719.051	6.17
719.373	5.97
719.695	5.8
720.016	5.69
720.338	5.82
720.659	5.74
720.981	5.8
721.302	5.7
721.624	5.77
721.945	5.79
722.267	5.83
722.588	5.77
722.909	5.84
723.231	5.84
723.552	5.84
723.873	5.75
724.194	5.84
724.515	5.79
724.836	5.69
725.157	5.77
725.478	5.7
725.799	5.79
726.12	5.82
726.441	5.88
726.762	6
727.083	6.11
727.403	6.11
727.724	6.04
728.045	6.13
728.365	6.28
728.686	6.33
729.006	6.29
729.327	6.37
729.647	6.29
729.967	6.28
730.288	6.23
730.608	6.41
730.928	6.6
731.249	6.57
731.569	6.63
731.889	6.63
732.209	6.66
732.529	6.57
732.849	6.69
733.169	6.7
733.489	6.62
733.809	6.51
734.129	6.48
734.448	6.49
734.768	6.46
735.088	6.39
735.408	6.34
735.727	6.43
736.047	6.32
736.366	6.43
736.686	6.65
737.005	6.77
737.325	6.61
737.644	6.54
737.963	6.55
738.283	6.58
738.602	6.51
738.921	6.62
739.24	6.79
739.56	6.8
739.879	6.83
740.198	7.01
740.517	7.05
740.836	7.16
741.155	7.4
741.473	7.36
741.792	7.39
742.111	7.51
742.43	7.37
742.748	7.4
743.067	7.36
743.386	7.2
743.704	7.15
744.023	7.46
744.341	7.49
744.66	7.41
744.978	7.39
745.297	7.28
745.615	7.17
745.933	7.12
746.252	7.15
746.57	6.98
746.888	6.89
747.206	6.61
747.524	6.6
747.842	6.19
748.16	6.15
748.478	6.23
748.796	6.14
749.114	6.41
749.432	6.43
749.749	6.51
750.067	6.35
750.385	6.36
750.703	6.13
751.02	6.19
751.338	6.39
751.655	6.32
751.973	6.38
752.29	6.42
752.608	6.12
752.925	5.96
753.242	6.24
753.56	6.17
753.877	6.34
754.194	6.37
754.511	6.52
754.828	6.42
755.145	6.39
755.462	6.31
755.779	6.07
756.096	6.2
756.413	6.32
756.73	6.7
757.047	6.69
757.364	6.77
757.68	6.67
757.997	6.63
758.314	6.7
758.63	6.78
758.947	6.56
759.264	6.88
759.58	6.93
759.896	6.68
760.213	6.69
760.529	6.87
760.846	6.8
761.162	6.86
761.478	7.05
761.794	6.99
762.11	7.2
762.426	7.14
762.743	7.3
763.059	7.33
763.375	7.14
763.69	7.2
764.006	7.2
764.322	7.29
764.638	7.2
764.954	7.17
765.27	7.09
765.585	6.99
765.901	6.83
766.216	7.01
766.532	7.03
766.848	6.97
767.163	6.96
767.478	6.86
767.794	6.84
768.109	6.71
768.424	6.5
768.74	6.33
769.055	6.54
769.37	6.09
769.685	5.85
770	5.56
770.315	5.43
770.63	5.42
770.945	5.37
771.26	5.35
771.575	5.27
771.89	5.14
772.205	5.33
772.52	5.44
772.834	5.31
773.149	5.46
773.464	5.43
773.778	5.14
774.093	5.48
774.407	5.33
774.722	5.23
775.036	5.53
775.351	5.53
775.665	5.23
775.979	5.31
776.293	5.47
776.608	5.91
776.922	6
777.236	5.86
777.55	5.4
777.864	5.62
778.178	6
778.492	6.06
778.806	6.43
779.12	6.39
779.434	6.55
779.747	6.46
780.061	6.59
780.375	7.03
780.689	7
781.002	6.95
781.316	7.01
781.629	7.12
781.943	7.16
782.256	7.29
782.57	7.43
782.883	7.08
783.196	6.97
783.51	7.09
783.823	7.38
784.136	7.66
784.449	7.44
784.762	7.18
785.075	7.89
785.388	7.5
785.701	7.43
786.014	7.36
786.327	7.44
786.64	7.43
786.953	7.3
787.266	7.21
787.578	7.37
787.891	7.44
788.204	7.18
788.516	7.13
788.829	7.31
789.141	7.4
789.454	7.54
789.766	7.38
790.079	7.1
790.391	6.71
790.703	7.07
791.016	7.19
791.328	7.06
791.64	6.4
791.952	6.73
792.264	6.7
792.576	6.66
792.888	6.78
793.2	6.9
793.512	7.31
793.824	7.65
794.136	7.63
794.448	7.36
794.76	7.61
795.071	7.73
795.383	7.29
795.695	7.36
796.006	7.33
796.318	7.85
796.629	7.81
796.941	8.3
797.252	8.09
797.564	8.3
797.875	8.42
798.186	8.2
798.497	7.91
798.809	8.24
799.12	8.02
799.431	8.15
799.742	8.2
800.053	7.47
800.364	7.38
800.675	7.69
800.986	8.49
801.297	8.41
801.608	8.06
801.918	8.44
802.229	8.26
802.54	8.21
802.851	8.33
803.161	8.47
803.472	8.44
803.782	8.84
804.093	8.67
804.403	9.05
804.714	9.52
805.024	9.64
805.334	9.48
805.645	9.43
805.955	9.58
806.265	9.4
806.575	9.72
806.885	9.34
807.195	8.8
807.505	8.23
807.815	8.12
808.125	8.52
808.435	8.29
808.745	7.78
809.055	7.69
809.365	7.13
809.674	7.41
809.984	6.61
810.294	6.15
810.603	6.01
810.913	5.47
811.222	5.63
811.532	5.49
811.841	5.94
812.151	5.44
812.46	4.95
812.769	4.29
813.079	3.96
813.388	4.65
813.697	4.82
814.006	4.78
814.315	4.7
814.624	5.07
814.933	5.36
815.242	5.92
815.551	5.87
815.86	6.06
816.169	5.15
816.478	5.45
816.786	5.55
817.095	5.87
817.404	5.94
817.712	5.84
818.021	5.85
818.33	5.6
818.638	6.11
818.947	5.91
819.255	6.39
819.563	6.73
819.872	6.51
820.18	6.95
820.488	7.41
820.796	7.5
821.105	7.42
821.413	7.47
821.721	7.51
822.029	7.78
822.337	7.91
822.645	8.14
822.953	8.35
823.26	8.35
823.568	8.15
823.876	8.07
824.184	8.03
824.491	8.16
824.799	8.28
825.107	8.4
825.414	8.62
825.722	8.6
826.029	8.6
826.337	8.77
826.644	8.69
826.951	8.63
827.259	8.72
827.566	8.84
827.873	8.82
828.18	8.78
828.488	8.68
828.795	8.63
829.102	8.72
829.409	8.36
829.716	8.37
830.023	8.63
830.329	8.84
830.636	8.89
830.943	8.76
831.25	8.28
831.557	7.95
831.863	7.7
832.17	7.98
832.476	7.75
832.783	7.43
833.089	7.47
833.396	7.18
833.702	7.16
834.009	7.03
834.315	7.04
834.621	6.82
834.928	6.8
835.234	6.63
835.54	6.58
835.846	7.04
836.152	6.83
836.458	6.92
836.764	7.03
837.07	6.97
837.376	7.08
837.682	7.05
837.988	7.22
838.293	7.72
838.599	7.66
838.905	7.89
839.211	7.7
839.516	8.03
839.822	7.84
840.127	7.5
840.433	7.55
840.738	7.78
841.044	7.83
841.349	7.99
841.654	7.71
841.959	7.44
842.265	7.59
842.57	8.28
842.875	8.7
843.18	8.16
843.485	8.41
843.79	8.61
844.095	8.89
844.4	8.93
844.705	7.21
845.01	6.99
845.315	7.05
845.619	7.3
845.924	6.47
846.229	7.31
846.533	7.05
846.838	6.45
847.142	6.92
847.447	8.77
847.751	9.27
848.056	9.6
848.36	9.43
848.664	8.81
848.969	8.97
849.273	7.57
849.577	6.58
849.881	6.91
850.185	6.94
850.489	8.21
850.794	8.83
851.097	10
851.401	10.5
851.705	9.77
852.009	11.56
852.313	11.17
852.617	10.51
852.92	13.88
853.224	13.44
853.528	11.3
853.831	9.98
854.135	8.81
854.438	10.05
854.742	10.12
855.045	9.54
855.349	8.65
855.652	9.95
855.955	12.75
856.259	13.32
856.562	12.73
856.865	12.15
857.168	10.51
857.471	9.67
857.774	10.16
858.077	10.87
858.38	8.85
858.683	9.9
858.986	9.34
859.289	7.46
859.592	8.28
859.894	10.6
860.197	9.43
860.5	10.33
860.802	9.44
861.105	9.24
861.407	10.23
861.71	10.27
862.012	7.84
862.315	5.61
862.617	4.39
862.919	3.81
863.222	2.2
863.524	3.1
863.826	6.32
864.128	7.85
864.43	8.01
864.732	8.31
865.034	6.5
865.336	6.25
865.638	5.2
865.94	5.96
866.242	3.95
866.544	6.9
866.846	5.15
867.147	6.92
867.449	7.89
867.751	6.45
868.052	5.2
868.354	6.1
868.655	7.25
868.957	7.52
869.258	7.55
869.56	9.99
869.861	7.41
870.162	6.53
870.463	2.65
870.765	1.44
871.066	3.22
871.367	4.67
871.668	4.08
871.969	4.42
872.27	3.53
872.571	3.7
872.872	1.88
873.173	1.86
873.473	-1.42
873.774	-2.64
874.075	-0.92
874.376	-0.51
874.676	1.97
874.977	2.44
875.277	2.18
875.578	2.68
875.878	1.37
876.179	4.03
876.479	2.36
876.78	4.11
877.08	4.91
877.38	2.42
877.68	1.89
877.981	3.84
878.281	3.15
878.581	2.7
