Data from BU58138_Reflection_00005.txt Node
Date: Mon Nov 18 16:42:07 EST 2019
User: vgr7
Spectrometer: USB2G7710
Scans to average: 3
Trigger mode: 4
Integration Time (sec): 2.000000E-2
Electric dark correction enabled: true
Boxcar width: 10
XAxis mode: Wavelengths
Number of Pixels in Spectrum: 2048
>>>>>Begin Spectral Data<<<<<
177.721	-55900
178.105	338.1
178.488	198.65
178.871	1662.5
179.254	-206.57
179.636	-11.55
180.019	-13.61
180.402	25.93
180.785	72.46
181.168	-27.07
181.55	-2.19
181.933	33.77
182.316	7.91
182.698	-4.98
183.081	-6.16
183.463	-20.25
183.846	-1.91
184.228	17.53
184.611	21.47
184.993	34.99
185.376	21.91
185.758	-0.44
186.14	-18.95
186.522	-29.83
186.904	-35.2
187.287	291.78
187.669	-158.06
188.051	209.89
188.433	-35.69
188.815	-2515.38
189.197	241.41
189.579	100
189.961	55.84
190.342	-20.34
190.724	10.85
191.106	15.84
191.488	9.72
191.869	23.57
192.251	27.12
192.633	44.01
193.014	37.75
193.396	13.5
193.777	-3.81
194.159	-14.87
194.54	-7.11
194.922	8.74
195.303	35.48
195.684	55.87
196.065	56.13
196.447	47.18
196.828	48.46
197.209	52.07
197.59	54.65
197.971	80.08
198.352	91.8
198.733	87.17
199.114	79.41
199.495	81.28
199.876	89.34
200.257	101.55
200.638	95.47
201.018	95.31
201.399	79.7
201.78	70.61
202.16	83.01
202.541	75.59
202.922	87.33
203.302	72.57
203.683	50.17
204.063	35.24
204.444	16.9
204.824	9.33
205.204	-4.04
205.585	-1.95
205.965	-20.15
206.345	-34.78
206.725	-36.63
207.106	-55.72
207.486	-63.77
207.866	-66.53
208.246	-61.96
208.626	-48.95
209.006	-38.32
209.386	-25.75
209.766	-8.5
210.145	-13.09
210.525	-3.76
210.905	-5.55
211.285	2.59
211.664	3.96
212.044	4.65
212.424	3.79
212.803	1.87
213.183	11.43
213.562	10.19
213.942	14.14
214.321	16.57
214.701	19.68
215.08	20.16
215.459	24.75
215.838	26.52
216.218	28.8
216.597	36.46
216.976	28.34
217.355	18.88
217.734	8.44
218.113	15.54
218.492	15.67
218.871	20.68
219.25	19.84
219.629	26.28
220.008	21.54
220.387	26.1
220.766	24.5
221.144	-16.9
221.523	-24.19
221.902	-30.78
222.28	-43.11
222.659	-28.76
223.037	-19.83
223.416	-34.6
223.794	-28
224.173	-25.76
224.551	-26.9
224.929	-22.33
225.308	-12.57
225.686	-7.21
226.064	-9.37
226.442	-12
226.821	-3.64
227.199	-3.89
227.577	-6.5
227.955	-3.47
228.333	-4.91
228.711	-2.64
229.089	3.56
229.467	0.83
229.845	1.75
230.222	1.5
230.6	-1.04
230.978	-1.16
231.356	1.06
231.733	1.29
232.111	1.15
232.488	1.22
232.866	2.08
233.243	2.13
233.621	2.19
233.998	4.04
234.376	3.79
234.753	2.86
235.13	3.47
235.508	6.31
235.885	5.25
236.262	5.66
236.639	4.57
237.016	2.62
237.393	4.46
237.77	4.1
238.147	5.63
238.524	6.28
238.901	6.38
239.278	6.08
239.655	6.09
240.032	6.06
240.409	5.3
240.785	5.08
241.162	5.05
241.539	4.9
241.915	4.9
242.292	4.94
242.668	4.58
243.045	4.9
243.421	4.23
243.798	4.44
244.174	4.66
244.551	5.06
244.927	5.31
245.303	5.44
245.679	5.5
246.056	5.01
246.432	4.88
246.808	4.97
247.184	4.95
247.56	4.72
247.936	4.77
248.312	5.02
248.688	5.24
249.064	5.16
249.44	5.28
249.815	5.15
250.191	5.38
250.567	5.67
250.943	5.46
251.318	5.78
251.694	5.99
252.069	5.79
252.445	5.62
252.82	5.75
253.196	5.57
253.571	5.64
253.947	5.82
254.322	5.85
254.697	5.52
255.073	5.35
255.448	5.3
255.823	5.23
256.198	5.12
256.573	5.07
256.948	5.19
257.323	5.13
257.698	5.14
258.073	4.88
258.448	4.83
258.823	4.9
259.198	4.68
259.573	4.55
259.948	4.73
260.322	4.85
260.697	4.7
261.072	4.66
261.446	4.53
261.821	4.51
262.195	4.63
262.57	4.54
262.944	4.56
263.319	4.69
263.693	4.74
264.067	4.83
264.442	4.82
264.816	4.83
265.19	4.76
265.564	4.78
265.938	4.86
266.313	4.59
266.687	4.7
267.061	4.7
267.435	4.78
267.809	4.74
268.183	4.63
268.556	4.57
268.93	4.71
269.304	4.75
269.678	5.02
270.051	4.89
270.425	5.05
270.799	5.12
271.172	4.98
271.546	4.94
271.919	4.75
272.293	4.72
272.666	4.65
273.04	4.87
273.413	4.91
273.787	5.02
274.16	5.16
274.533	4.99
274.906	5
275.279	4.96
275.653	4.86
276.026	4.92
276.399	4.86
276.772	4.75
277.145	4.72
277.518	4.59
277.891	4.63
278.263	4.74
278.636	4.64
279.009	4.69
279.382	4.86
279.755	4.93
280.127	4.95
280.5	5.12
280.872	5
281.245	4.9
281.617	4.88
281.99	4.99
282.362	5.03
282.735	4.92
283.107	4.82
283.479	4.83
283.852	4.75
284.224	4.92
284.596	4.86
284.968	4.84
285.34	4.95
285.713	4.88
286.085	4.83
286.457	4.96
286.829	5.06
287.201	4.96
287.572	4.87
287.944	4.79
288.316	4.67
288.688	4.67
289.06	4.75
289.431	4.78
289.803	4.79
290.175	4.88
290.546	5.01
290.918	5.06
291.289	5.15
291.661	5.26
292.032	5.3
292.403	5.49
292.775	5.65
293.146	5.5
293.517	5.5
293.889	5.55
294.26	5.44
294.631	5.39
295.002	5.43
295.373	5.61
295.744	5.68
296.115	5.66
296.486	5.49
296.857	5.47
297.228	5.4
297.599	5.27
297.97	5.3
298.34	5.39
298.711	5.42
299.082	5.5
299.452	5.53
299.823	5.51
300.194	5.4
300.564	5.29
300.935	5.29
301.305	5.4
301.676	5.38
302.046	5.44
302.416	5.44
302.787	5.35
303.157	5.24
303.527	5.29
303.897	5.35
304.267	5.56
304.637	5.52
305.008	5.58
305.378	5.66
305.748	5.39
306.117	5.38
306.487	5.31
306.857	5.21
307.227	5.15
307.597	5.2
307.967	5.25
308.336	5.35
308.706	5.29
309.076	5.3
309.445	5.27
309.815	5.26
310.184	5.32
310.554	5.39
310.923	5.42
311.293	5.34
311.662	5.41
312.031	5.5
312.401	5.58
312.77	5.66
313.139	5.69
313.508	5.9
313.877	5.89
314.246	5.97
314.616	5.97
314.985	6.02
315.353	5.94
315.722	5.95
316.091	5.9
316.46	6.04
316.829	6.04
317.198	6.1
317.567	6.16
317.935	6.03
318.304	5.97
318.672	5.99
319.041	6.1
319.41	5.99
319.778	5.85
320.147	5.81
320.515	5.52
320.883	5.47
321.252	5.53
321.62	5.52
321.988	5.63
322.357	5.44
322.725	5.35
323.093	5.43
323.461	5.45
323.829	5.59
324.197	5.54
324.565	5.45
324.933	5.45
325.301	5.34
325.669	5.41
326.037	5.47
326.405	5.45
326.772	5.36
327.14	5.43
327.508	5.52
327.875	5.32
328.243	5.43
328.61	5.42
328.978	5.41
329.346	5.45
329.713	5.28
330.08	5.48
330.448	5.35
330.815	5.12
331.182	5.18
331.55	5.08
331.917	5.13
332.284	5.28
332.651	5.27
333.018	5.36
333.385	5.37
333.752	5.46
334.119	5.56
334.486	5.54
334.853	5.44
335.22	5.3
335.587	5.43
335.954	5.4
336.32	5.34
336.687	5.41
337.054	5.41
337.42	5.5
337.787	5.54
338.153	5.67
338.52	5.8
338.886	5.58
339.253	5.48
339.619	5.37
339.986	5.26
340.352	5.23
340.718	5.15
341.084	5.15
341.451	5.05
341.817	5.12
342.183	5.24
342.549	5.29
342.915	5.31
343.281	5.34
343.647	5.31
344.013	5.44
344.379	5.26
344.745	5.2
345.11	5.14
345.476	5.03
345.842	5.05
346.208	5.07
346.573	5.16
346.939	5.22
347.304	5.21
347.67	5.19
348.035	5.17
348.401	5.23
348.766	5.18
349.132	5.21
349.497	5.07
349.862	5.08
350.228	5.05
350.593	5.12
350.958	5.13
351.323	5.18
351.688	5.17
352.053	5.18
352.418	5.3
352.783	5.39
353.148	5.36
353.513	5.43
353.878	5.41
354.243	5.45
354.608	5.51
354.972	5.56
355.337	5.61
355.702	5.74
356.066	5.73
356.431	5.73
356.795	5.68
357.16	5.67
357.524	5.56
357.889	5.6
358.253	5.61
358.618	5.66
358.982	5.65
359.346	5.56
359.71	5.6
360.075	5.56
360.439	5.54
360.803	5.66
361.167	5.53
361.531	5.58
361.895	5.55
362.259	5.53
362.623	5.54
362.987	5.57
363.351	5.5
363.714	5.49
364.078	5.45
364.442	5.51
364.806	5.52
365.169	5.59
365.533	5.63
365.896	5.61
366.26	5.54
366.623	5.52
366.987	5.6
367.35	5.64
367.714	5.59
368.077	5.54
368.44	5.48
368.803	5.54
369.167	5.5
369.53	5.53
369.893	5.59
370.256	5.51
370.619	5.49
370.982	5.47
371.345	5.45
371.708	5.44
372.071	5.36
372.434	5.36
372.797	5.31
373.159	5.22
373.522	5.17
373.885	5.2
374.247	5.26
374.61	5.2
374.973	5.14
375.335	5.16
375.698	5.23
376.06	5.16
376.423	5.12
376.785	5.15
377.147	5.16
377.51	5.05
377.872	5.16
378.234	5.11
378.596	5.17
378.958	5.15
379.321	5.15
379.683	5.2
380.045	5.21
380.407	5.19
380.769	5.22
381.13	5.25
381.492	5.21
381.854	5.21
382.216	5.2
382.578	5.18
382.939	5.16
383.301	5.08
383.663	5.16
384.024	5.17
384.386	5.15
384.747	5.18
385.109	5.24
385.47	5.2
385.832	5.23
386.193	5.23
386.554	5.21
386.916	5.21
387.277	5.16
387.638	5.18
387.999	5.19
388.36	5.16
388.721	5.19
389.082	5.2
389.443	5.16
389.804	5.14
390.165	5.16
390.526	5.17
390.887	5.2
391.248	5.25
391.609	5.25
391.969	5.24
392.33	5.13
392.691	5.13
393.051	5.12
393.412	5.12
393.772	5.08
394.133	5.11
394.493	5.14
394.854	5.14
395.214	5.11
395.574	5.15
395.935	5.16
396.295	5.12
396.655	5.11
397.015	5.13
397.376	5.14
397.736	5.14
398.096	5.15
398.456	5.11
398.816	5.07
399.176	5.06
399.535	5.05
399.895	5.09
400.255	5.08
400.615	5.09
400.975	5.09
401.334	5.06
401.694	5.05
402.054	5.09
402.413	5.09
402.773	5.09
403.132	5.06
403.492	5.04
403.851	5.07
404.211	5.05
404.57	5.05
404.929	5.05
405.288	5.03
405.648	5.02
406.007	5.03
406.366	5.01
406.725	5.01
407.084	5.05
407.443	5.05
407.802	5.03
408.161	5.01
408.52	4.99
408.879	4.97
409.238	5
409.596	4.99
409.955	4.98
410.314	4.98
410.673	4.98
411.031	4.97
411.39	4.93
411.748	4.94
412.107	4.94
412.465	4.95
412.824	4.97
413.182	4.95
413.54	4.94
413.899	4.96
414.257	4.96
414.615	4.93
414.974	4.93
415.332	4.92
415.69	4.9
416.048	4.89
416.406	4.91
416.764	4.9
417.122	4.87
417.48	4.87
417.838	4.86
418.195	4.85
418.553	4.86
418.911	4.85
419.269	4.86
419.626	4.85
419.984	4.85
420.342	4.86
420.699	4.86
421.057	4.85
421.414	4.84
421.772	4.84
422.129	4.83
422.486	4.82
422.844	4.83
423.201	4.84
423.558	4.85
423.915	4.84
424.273	4.82
424.63	4.83
424.987	4.83
425.344	4.84
425.701	4.85
426.058	4.84
426.415	4.85
426.772	4.85
427.128	4.84
427.485	4.83
427.842	4.81
428.199	4.83
428.555	4.82
428.912	4.82
429.269	4.82
429.625	4.81
429.982	4.8
430.338	4.79
430.695	4.79
431.051	4.79
431.407	4.82
431.764	4.82
432.12	4.82
432.476	4.81
432.832	4.78
433.189	4.78
433.545	4.79
433.901	4.76
434.257	4.75
434.613	4.79
434.969	4.79
435.325	4.79
435.681	4.76
436.036	4.79
436.392	4.8
436.748	4.77
437.104	4.77
437.459	4.78
437.815	4.78
438.171	4.78
438.526	4.78
438.882	4.77
439.237	4.77
439.593	4.77
439.948	4.76
440.304	4.77
440.659	4.76
441.014	4.76
441.369	4.78
441.725	4.76
442.08	4.74
442.435	4.73
442.79	4.73
443.145	4.73
443.5	4.72
443.855	4.71
444.21	4.7
444.565	4.69
444.92	4.69
445.275	4.68
445.629	4.68
445.984	4.66
446.339	4.63
446.693	4.61
447.048	4.58
447.403	4.59
447.757	4.58
448.112	4.57
448.466	4.56
448.82	4.54
449.175	4.54
449.529	4.54
449.883	4.53
450.238	4.5
450.592	4.5
450.946	4.48
451.3	4.47
451.654	4.51
452.008	4.52
452.362	4.51
452.716	4.53
453.07	4.53
453.424	4.54
453.778	4.55
454.132	4.57
454.486	4.57
454.839	4.57
455.193	4.59
455.547	4.59
455.9	4.59
456.254	4.61
456.607	4.61
456.961	4.6
457.314	4.6
457.668	4.62
458.021	4.61
458.375	4.61
458.728	4.62
459.081	4.6
459.434	4.6
459.787	4.6
460.141	4.59
460.494	4.57
460.847	4.57
461.2	4.59
461.553	4.6
461.906	4.62
462.259	4.6
462.611	4.61
462.964	4.61
463.317	4.64
463.67	4.63
464.022	4.63
464.375	4.64
464.728	4.65
465.08	4.67
465.433	4.67
465.785	4.7
466.138	4.7
466.49	4.69
466.843	4.69
467.195	4.72
467.547	4.72
467.899	4.74
468.252	4.74
468.604	4.73
468.956	4.71
469.308	4.73
469.66	4.76
470.012	4.74
470.364	4.76
470.716	4.74
471.068	4.75
471.42	4.78
471.772	4.77
472.123	4.79
472.475	4.79
472.827	4.82
473.178	4.83
473.53	4.83
473.882	4.84
474.233	4.87
474.585	4.84
474.936	4.85
475.288	4.86
475.639	4.88
475.99	4.87
476.342	4.9
476.693	4.88
477.044	4.89
477.395	4.9
477.746	4.88
478.097	4.89
478.448	4.88
478.8	4.86
479.15	4.85
479.501	4.83
479.852	4.82
480.203	4.8
480.554	4.81
480.905	4.81
481.255	4.81
481.606	4.81
481.957	4.82
482.307	4.83
482.658	4.84
483.009	4.83
483.359	4.84
483.709	4.84
484.06	4.85
484.41	4.86
484.761	4.86
485.111	4.87
485.461	4.87
485.811	4.86
486.162	4.87
486.512	4.88
486.862	4.88
487.212	4.87
487.562	4.89
487.912	4.88
488.262	4.88
488.612	4.87
488.961	4.87
489.311	4.86
489.661	4.84
490.011	4.83
490.36	4.83
490.71	4.83
491.06	4.82
491.409	4.81
491.759	4.79
492.108	4.78
492.458	4.78
492.807	4.77
493.157	4.78
493.506	4.77
493.855	4.78
494.204	4.79
494.554	4.8
494.903	4.78
495.252	4.77
495.601	4.79
495.95	4.8
496.299	4.81
496.648	4.82
496.997	4.86
497.346	4.87
497.695	4.89
498.043	4.9
498.392	4.92
498.741	4.94
499.09	4.96
499.438	4.98
499.787	4.99
500.135	5.03
500.484	5.05
500.832	5.06
501.181	5.06
501.529	5.05
501.878	5.08
502.226	5.1
502.574	5.13
502.923	5.12
503.271	5.13
503.619	5.16
503.967	5.17
504.315	5.19
504.663	5.18
505.011	5.18
505.359	5.19
505.707	5.18
506.055	5.18
506.403	5.21
506.751	5.22
507.098	5.23
507.446	5.25
507.794	5.26
508.141	5.27
508.489	5.26
508.837	5.29
509.184	5.28
509.531	5.3
509.879	5.32
510.226	5.36
510.574	5.38
510.921	5.4
511.268	5.41
511.616	5.42
511.963	5.43
512.31	5.45
512.657	5.46
513.004	5.48
513.351	5.49
513.698	5.48
514.045	5.49
514.392	5.51
514.739	5.52
515.086	5.53
515.432	5.54
515.779	5.57
516.126	5.57
516.473	5.6
516.819	5.61
517.166	5.61
517.512	5.61
517.859	5.61
518.205	5.6
518.552	5.61
518.898	5.62
519.245	5.64
519.591	5.63
519.937	5.63
520.283	5.65
520.629	5.66
520.976	5.67
521.322	5.68
521.668	5.67
522.014	5.67
522.36	5.68
522.706	5.68
523.052	5.68
523.398	5.7
523.743	5.7
524.089	5.7
524.435	5.68
524.781	5.68
525.126	5.68
525.472	5.7
525.817	5.7
526.163	5.7
526.509	5.71
526.854	5.73
527.199	5.74
527.545	5.74
527.89	5.75
528.235	5.75
528.581	5.75
528.926	5.76
529.271	5.76
529.616	5.77
529.961	5.78
530.306	5.8
530.651	5.8
530.996	5.8
531.341	5.8
531.686	5.81
532.031	5.81
532.376	5.82
532.721	5.82
533.065	5.83
533.41	5.8
533.755	5.81
534.099	5.8
534.444	5.81
534.788	5.82
535.133	5.81
535.477	5.82
535.822	5.81
536.166	5.81
536.51	5.8
536.855	5.8
537.199	5.79
537.543	5.76
537.887	5.77
538.231	5.76
538.576	5.8
538.92	5.8
539.264	5.8
539.608	5.8
539.951	5.81
540.295	5.8
540.639	5.83
540.983	5.83
541.327	5.84
541.671	5.83
542.014	5.81
542.358	5.84
542.701	5.85
543.045	5.85
543.389	5.85
543.732	5.86
544.075	5.87
544.419	5.87
544.762	5.88
545.105	5.88
545.449	5.9
545.792	5.87
546.135	5.89
546.478	5.89
546.821	5.91
547.165	5.91
547.508	5.93
547.851	5.93
548.194	5.94
548.536	5.94
548.879	5.96
549.222	5.97
549.565	5.94
549.908	5.93
550.25	5.97
550.593	5.98
550.936	5.98
551.278	5.99
551.621	6
551.963	6.04
552.306	6.05
552.648	6.04
552.991	6.07
553.333	6.06
553.675	6.09
554.017	6.08
554.36	6.06
554.702	6.07
555.044	6.05
555.386	6.03
555.728	6
556.07	6.03
556.412	6.01
556.754	6.01
557.096	6
557.438	5.95
557.78	5.96
558.121	5.97
558.463	5.96
558.805	5.97
559.147	5.93
559.488	5.93
559.83	5.95
560.171	5.96
560.513	5.99
560.854	5.98
561.196	5.95
561.537	6
561.878	5.96
562.22	5.98
562.561	5.95
562.902	5.97
563.243	5.95
563.584	5.96
563.925	5.96
564.266	5.95
564.607	5.97
564.948	5.97
565.289	5.96
565.63	5.97
565.971	5.96
566.312	5.96
566.653	5.95
566.993	5.94
567.334	5.94
567.675	5.92
568.015	5.92
568.356	5.92
568.696	5.91
569.037	5.92
569.377	5.93
569.718	5.95
570.058	5.94
570.398	5.94
570.739	5.97
571.079	5.95
571.419	5.97
571.759	5.99
572.099	5.97
572.439	5.97
572.779	5.97
573.119	5.97
573.459	6
573.799	6.06
574.139	6.05
574.479	6.05
574.819	6.05
575.158	6.05
575.498	6.06
575.838	6.08
576.177	6.05
576.517	6.06
576.856	6.08
577.196	6.12
577.535	6.14
577.875	6.13
578.214	6.15
578.553	6.19
578.893	6.19
579.232	6.2
579.571	6.18
579.91	6.23
580.25	6.22
580.589	6.2
580.928	6.19
581.267	6.19
581.606	6.18
581.945	6.19
582.283	6.23
582.622	6.29
582.961	6.27
583.3	6.32
583.639	6.31
583.977	6.29
584.316	6.27
584.654	6.24
584.993	6.23
585.332	6.25
585.67	6.2
586.008	6.23
586.347	6.23
586.685	6.24
587.024	6.19
587.362	6.19
587.7	6.19
588.038	6.17
588.376	6.21
588.715	6.23
589.053	6.24
589.391	6.24
589.729	6.16
590.067	6.16
590.404	6.14
590.742	6.15
591.08	6.14
591.418	6.15
591.756	6.21
592.093	6.2
592.431	6.21
592.769	6.25
593.106	6.21
593.444	6.18
593.781	6.19
594.119	6.23
594.456	6.23
594.793	6.21
595.131	6.21
595.468	6.16
595.805	6.14
596.143	6.14
596.48	6.1
596.817	6.18
597.154	6.19
597.491	6.17
597.828	6.15
598.165	6.13
598.502	6.1
598.839	6.06
599.176	6.06
599.512	6.04
599.849	6.05
600.186	6.06
600.523	6.1
600.859	6.11
601.196	6.11
601.532	6.1
601.869	6.09
602.205	6.09
602.542	6.13
602.878	6.11
603.215	6.11
603.551	6.12
603.887	6.08
604.223	6.09
604.56	6.13
604.896	6.16
605.232	6.2
605.568	6.2
605.904	6.23
606.24	6.24
606.576	6.21
606.912	6.21
607.248	6.2
607.583	6.24
607.919	6.26
608.255	6.24
608.591	6.26
608.926	6.31
609.262	6.32
609.597	6.3
609.933	6.3
610.268	6.32
610.604	6.33
610.939	6.34
611.275	6.35
611.61	6.31
611.945	6.33
612.281	6.33
612.616	6.37
612.951	6.37
613.286	6.42
613.621	6.47
613.956	6.45
614.291	6.47
614.626	6.42
614.961	6.39
615.296	6.39
615.631	6.41
615.966	6.39
616.3	6.37
616.635	6.38
616.97	6.41
617.304	6.35
617.639	6.38
617.973	6.4
618.308	6.4
618.642	6.42
618.977	6.39
619.311	6.38
619.646	6.37
619.98	6.35
620.314	6.37
620.648	6.4
620.983	6.4
621.317	6.42
621.651	6.47
621.985	6.49
622.319	6.51
622.653	6.51
622.987	6.55
623.321	6.56
623.655	6.59
623.988	6.63
624.322	6.64
624.656	6.63
624.99	6.58
625.323	6.51
625.657	6.52
625.99	6.54
626.324	6.52
626.657	6.51
626.991	6.52
627.324	6.46
627.658	6.48
627.991	6.48
628.324	6.44
628.657	6.38
628.991	6.36
629.324	6.35
629.657	6.33
629.99	6.37
630.323	6.37
630.656	6.38
630.989	6.36
631.322	6.34
631.655	6.34
631.987	6.38
632.32	6.43
632.653	6.4
632.986	6.39
633.318	6.44
633.651	6.48
633.984	6.49
634.316	6.5
634.649	6.46
634.981	6.46
635.313	6.48
635.646	6.55
635.978	6.57
636.31	6.63
636.643	6.61
636.975	6.56
637.307	6.57
637.639	6.46
637.971	6.45
638.303	6.51
638.635	6.47
638.967	6.5
639.299	6.49
639.631	6.53
639.963	6.47
640.295	6.42
640.626	6.45
640.958	6.52
641.29	6.53
641.621	6.54
641.953	6.55
642.285	6.56
642.616	6.54
642.948	6.45
643.279	6.43
643.61	6.41
643.942	6.34
644.273	6.34
644.604	6.42
644.936	6.38
645.267	6.41
645.598	6.38
645.929	6.41
646.26	6.48
646.591	6.43
646.922	6.44
647.253	6.46
647.584	6.47
647.915	6.37
648.245	6.35
648.576	6.34
648.907	6.34
649.238	6.29
649.568	6.3
649.899	6.41
650.229	6.38
650.56	6.47
650.89	6.54
651.221	6.55
651.551	6.51
651.882	6.52
652.212	6.5
652.542	6.54
652.872	6.45
653.203	6.43
653.533	6.5
653.863	6.51
654.193	6.49
654.523	6.43
654.853	6.44
655.183	6.51
655.513	6.46
655.843	6.39
656.172	6.46
656.502	6.47
656.832	6.44
657.162	6.46
657.491	6.37
657.821	6.31
658.15	6.28
658.48	6.28
658.809	6.27
659.139	6.2
659.468	6.19
659.798	6.24
660.127	6.2
660.456	6.15
660.785	6.14
661.115	6.19
661.444	6.12
661.773	6.16
662.102	6.07
662.431	6.18
662.76	6.23
663.089	6.16
663.418	6.13
663.747	6.15
664.076	6.15
664.404	6.2
664.733	6.22
665.062	6.23
665.39	6.28
665.719	6.29
666.048	6.35
666.376	6.31
666.705	6.31
667.033	6.32
667.362	6.37
667.69	6.36
668.018	6.31
668.347	6.39
668.675	6.39
669.003	6.45
669.331	6.43
669.659	6.44
669.987	6.39
670.315	6.46
670.643	6.33
670.971	6.36
671.299	6.34
671.627	6.3
671.955	6.28
672.283	6.3
672.61	6.27
672.938	6.25
673.266	6.27
673.593	6.25
673.921	6.25
674.249	6.3
674.576	6.33
674.904	6.32
675.231	6.36
675.558	6.31
675.886	6.31
676.213	6.28
676.54	6.28
676.867	6.43
677.195	6.36
677.522	6.4
677.849	6.35
678.176	6.43
678.503	6.53
678.83	6.54
679.157	6.44
679.484	6.43
679.81	6.51
680.137	6.49
680.464	6.42
680.791	6.44
681.117	6.46
681.444	6.48
681.771	6.56
682.097	6.56
682.424	6.6
682.75	6.59
683.077	6.62
683.403	6.62
683.729	6.62
684.056	6.62
684.382	6.74
684.708	6.73
685.034	6.71
685.36	6.74
685.686	6.78
686.012	6.85
686.339	6.95
686.664	6.97
686.99	7.01
687.316	7.07
687.642	7.04
687.968	7
688.294	7.01
688.619	6.99
688.945	6.99
689.271	6.92
689.596	6.88
689.922	6.98
690.247	6.91
690.573	6.86
690.898	6.92
691.224	6.95
691.549	7.02
691.874	6.96
692.2	6.95
692.525	7.02
692.85	7.09
693.175	7.11
693.5	7.04
693.825	7.06
694.15	7.02
694.475	7.04
694.8	7.01
695.125	6.93
695.45	6.91
695.775	6.94
696.099	6.94
696.424	6.92
696.749	6.75
697.073	6.84
697.398	6.89
697.723	6.86
698.047	6.71
698.372	6.62
698.696	6.68
699.02	6.6
699.345	6.53
699.669	6.56
699.993	6.47
700.318	6.52
700.642	6.48
700.966	6.53
701.29	6.52
701.614	6.61
701.938	6.76
702.262	6.75
702.586	6.65
702.91	6.68
703.234	6.77
703.557	6.83
703.881	6.84
704.205	6.8
704.529	6.81
704.852	7.01
705.176	7.14
705.499	7.21
705.823	7.23
706.146	7.24
706.47	7.24
706.793	7.24
707.117	7.12
707.44	7.3
707.763	7.28
708.086	7.3
708.409	7.29
708.733	7.18
709.056	7.29
709.379	7.37
709.702	7.35
710.025	7.36
710.348	7.41
710.671	7.4
710.993	7.42
711.316	7.39
711.639	7.41
711.962	7.48
712.284	7.38
712.607	7.44
712.93	7.54
713.252	7.4
713.575	7.56
713.897	7.7
714.22	7.56
714.542	7.62
714.864	7.62
715.187	7.63
715.509	7.7
715.831	7.74
716.153	7.66
716.475	7.8
716.798	7.81
717.12	7.71
717.442	7.62
717.764	7.84
718.085	7.97
718.407	7.82
718.729	7.65
719.051	7.73
719.373	7.56
719.695	7.5
720.016	7.63
720.338	7.68
720.659	7.62
720.981	7.65
721.302	7.51
721.624	7.57
721.945	7.5
722.267	7.46
722.588	7.16
722.909	7.26
723.231	7.09
723.552	7.12
723.873	7.19
724.194	7.32
724.515	7.17
724.836	7.05
725.157	7.24
725.478	7.21
725.799	7.18
726.12	7.38
726.441	7.35
726.762	7.33
727.083	7.18
727.403	7.2
727.724	7.35
728.045	7.42
728.365	7.39
728.686	7.39
729.006	7.51
729.327	7.68
729.647	7.65
729.967	7.65
730.288	7.63
730.608	7.77
730.928	7.82
731.249	7.69
731.569	7.89
731.889	7.83
732.209	7.88
732.529	8.01
732.849	8
733.169	8.16
733.489	8.18
733.809	8.13
734.129	8.09
734.448	8.11
734.768	8.04
735.088	8.14
735.408	8.16
735.727	7.95
736.047	7.88
736.366	7.96
736.686	8.18
737.005	8.25
737.325	8.26
737.644	8.13
737.963	8.18
738.283	8.1
738.602	8
738.921	8.11
739.24	8.24
739.56	8.35
739.879	8.2
740.198	8.05
740.517	8.07
740.836	8.07
741.155	7.95
741.473	8.22
741.792	8.18
742.111	8.31
742.43	8.35
742.748	8.28
743.067	8.21
743.386	8.11
743.704	7.85
744.023	7.76
744.341	7.67
744.66	7.74
744.978	7.32
745.297	7.44
745.615	7.42
745.933	7.24
746.252	7.15
746.57	7.2
746.888	7.41
747.206	7.54
747.524	7.44
747.842	7.56
748.16	7.42
748.478	7.36
748.796	7.38
749.114	7.59
749.432	7.73
749.749	7.91
750.067	7.78
750.385	8.08
750.703	7.87
751.02	8.08
751.338	8.09
751.655	8.49
751.973	8.61
752.29	8.47
752.608	8.34
752.925	8.28
753.242	8.36
753.56	8.5
753.877	8.5
754.194	8.51
754.511	8.49
754.828	8.48
755.145	8.35
755.462	8.16
755.779	8.06
756.096	8.09
756.413	8.14
756.73	8.32
757.047	8.16
757.364	8.25
757.68	8.2
757.997	7.83
758.314	7.65
758.63	7.39
758.947	7.55
759.264	7.48
759.58	7.65
759.896	7.71
760.213	7.69
760.529	7.74
760.846	7.84
761.162	7.66
761.478	7.6
761.794	7.72
762.11	7.74
762.426	7.73
762.743	7.75
763.059	7.4
763.375	7.28
763.69	7.41
764.006	7.65
764.322	7.88
764.638	8.31
764.954	8.5
765.27	8.55
765.585	8.43
765.901	8.65
766.216	8.46
766.532	8.4
766.848	8.24
767.163	8.35
767.478	8.34
767.794	8.31
768.109	8.29
768.424	8.28
768.74	8.17
769.055	8.1
769.37	8.16
769.685	8.32
770	8.62
770.315	8.35
770.63	8.12
770.945	7.96
771.26	7.6
771.575	7.49
771.89	7.55
772.205	7.63
772.52	7.45
772.834	7.39
773.149	7.4
773.464	7.54
773.778	7.44
774.093	7.29
774.407	7.25
774.722	7.52
775.036	7.5
775.351	7.95
775.665	7.85
775.979	7.47
776.293	7.63
776.608	7.39
776.922	7.55
777.236	7.42
777.55	7.29
777.864	7.29
778.178	7.15
778.492	7.58
778.806	7.4
779.12	7.7
779.434	7.82
779.747	7.61
780.061	7.49
780.375	7.46
780.689	7.7
781.002	8.24
781.316	8.39
781.629	8.72
781.943	8.6
782.256	8.94
782.57	9.22
782.883	9.63
783.196	9.75
783.51	9.79
783.823	9.99
784.136	10.13
784.449	10.52
784.762	10.56
785.075	10.06
785.388	10.23
785.701	10.12
786.014	10.21
786.327	10.34
786.64	10.58
786.953	10.69
787.266	10.16
787.578	10.14
787.891	9.94
788.204	9.76
788.516	9.73
788.829	9.53
789.141	9.67
789.454	9.11
789.766	9.26
790.079	9.46
790.391	9.5
790.703	9.47
791.016	9.21
791.328	9.13
791.64	9.58
791.952	10.18
792.264	9.56
792.576	9.24
792.888	9.46
793.2	9.41
793.512	8.88
793.824	9.4
794.136	9.2
794.448	9.53
794.76	9.48
795.071	9.74
795.383	10.04
795.695	9.78
796.006	10.19
796.318	9.87
796.629	10
796.941	10.02
797.252	10.3
797.564	10.56
797.875	10.77
798.186	10.26
798.497	10.01
798.809	10.25
799.12	10.44
799.431	10.57
799.742	10.24
800.053	11.11
800.364	11.15
800.675	10.95
800.986	11.18
801.297	11.39
801.608	10.89
801.918	10.38
802.229	10.78
802.54	11.17
802.851	11.35
803.161	11.34
803.472	11.01
803.782	10.48
804.093	10.22
804.403	10.06
804.714	10.55
805.024	10.37
805.334	10.68
805.645	11.15
805.955	10.84
806.265	10.92
806.575	10.06
806.885	10.2
807.195	10.63
807.505	9.9
807.815	9.96
808.125	10.08
808.435	10.69
808.745	10.68
809.055	10.57
809.365	10.58
809.674	9.93
809.984	10.03
810.294	9.87
810.603	10.5
810.913	10.74
811.222	10.59
811.532	10.48
811.841	10.51
812.151	10.66
812.46	10.57
812.769	10.76
813.079	11.14
813.388	11.41
813.697	11.15
814.006	11.47
814.315	11.53
814.624	11.68
814.933	11.86
815.242	11.97
815.551	11.53
815.86	11.9
816.169	12.14
816.478	12.47
816.786	13.15
817.095	12.68
817.404	12.73
817.712	12.34
818.021	12.63
818.33	11.87
818.638	11.15
818.947	11.31
819.255	11.09
819.563	11.33
819.872	10.65
820.18	10.45
820.488	10.5
820.796	10.17
821.105	10.03
821.413	9.89
821.721	9.62
822.029	9.52
822.337	9.54
822.645	9.76
822.953	9.56
823.26	9.41
823.568	9.35
823.876	9.24
824.184	9.22
824.491	9.23
824.799	9.34
825.107	9.35
825.414	9.29
825.722	9.37
826.029	9.27
826.337	9.5
826.644	9.75
826.951	9.58
827.259	9.74
827.566	9.72
827.873	9.79
828.18	9.95
828.488	10.13
828.795	10.04
829.102	9.93
829.409	10.27
829.716	10.47
830.023	10.47
830.329	10.58
830.636	10.78
830.943	10.86
831.25	11.08
831.557	11.52
831.863	11.69
832.17	11.49
832.476	11.5
832.783	11.77
833.089	11.39
833.396	11.57
833.702	11.61
834.009	11.42
834.315	11.17
834.621	11.16
834.928	11.23
835.234	10.99
835.54	10.53
835.846	10.61
836.152	10.56
836.458	10.24
836.764	10.2
837.07	10.13
837.376	9.77
837.682	9.92
837.988	9.1
838.293	8.82
838.599	8.94
838.905	8.64
839.211	7.54
839.516	7.08
839.822	7.18
840.127	7.45
840.433	8.34
840.738	8.76
841.044	8.88
841.349	9.2
841.654	9.62
841.959	10.33
842.265	9.68
842.57	10.3
842.875	10.93
843.18	11.97
843.485	11.23
843.79	11.45
844.095	10.63
844.4	12.34
844.705	12.51
845.01	11.98
845.315	13.43
845.619	14.03
845.924	14.92
846.229	15.06
846.533	14.12
846.838	12.01
847.142	12.4
847.447	11.51
847.751	10.87
848.056	10.12
848.36	9.92
848.664	10.77
848.969	9.4
849.273	9.99
849.577	8.19
849.881	8.42
850.185	10.1
850.489	11.19
850.794	9.57
851.097	10.45
851.401	12.49
851.705	10.23
852.009	11.16
852.313	11.28
852.617	10.17
852.92	11.68
853.224	12.32
853.528	11.18
853.831	11.53
854.135	11.44
854.438	10.94
854.742	12.11
855.045	11.69
855.349	10.79
855.652	10.55
855.955	11.62
856.259	13.26
856.562	12.97
856.865	13.26
857.168	12.53
857.471	12.58
857.774	11.73
858.077	12.51
858.38	13.31
858.683	14.26
858.986	15.36
859.289	16
859.592	17.98
859.894	19.11
860.197	20.62
860.5	21.28
860.802	22.44
861.105	21.22
861.407	20.65
861.71	23.14
862.012	23.66
862.315	24.94
862.617	24.62
862.919	23.81
863.222	24.43
863.524	23.76
863.826	22.14
864.128	23.21
864.43	24.78
864.732	24.73
865.034	24.45
865.336	26.49
865.638	24.32
865.94	24.19
866.242	23.21
866.544	22.42
866.846	22.96
867.147	23.47
867.449	24.43
867.751	22.76
868.052	21.96
868.354	21.15
868.655	19.17
868.957	17.56
869.258	14.3
869.56	12.28
869.861	12.52
870.162	14.53
870.463	14.27
870.765	13.03
871.066	12.75
871.367	10.17
871.668	7.85
871.969	6.1
872.27	6.46
872.571	6.34
872.872	7.02
873.173	5.22
873.473	4.22
873.774	1.47
874.075	4.3
874.376	2.42
874.676	5.5
874.977	4.49
875.277	8.98
875.578	13.38
875.878	13.58
876.179	15.68
876.479	14.37
876.78	13.38
877.08	13.07
877.38	11.63
877.68	13.87
877.981	13.67
878.281	16.79
878.581	17.04
