Data from BU58119_Reflection_00004.txt Node
Date: Tue Nov 19 10:50:45 EST 2019
User: vgr7
Spectrometer: USB2G7710
Scans to average: 3
Trigger mode: 4
Integration Time (sec): 2.000000E-2
Electric dark correction enabled: true
Boxcar width: 10
XAxis mode: Wavelengths
Number of Pixels in Spectrum: 2048
>>>>>Begin Spectral Data<<<<<
177.721	-355.27
178.105	-249.51
178.488	-293.37
178.871	-527.27
179.254	-1280
179.636	397.41
180.019	325.32
180.402	148.15
180.785	-690.91
181.168	-94.81
181.55	9.89
181.933	0.91
182.316	-54.71
182.698	-16.48
183.081	-45.34
183.463	-0.58
183.846	-62.97
184.228	-234.53
184.611	-202.37
184.993	-225.35
185.376	-360.29
185.758	1319.63
186.14	417.91
186.522	246.42
186.904	270.89
187.287	210.24
187.669	151.72
188.051	135.04
188.433	77.25
188.815	47.55
189.197	39.9
189.579	17.56
189.961	0.49
190.342	-1.01
190.724	-18.26
191.106	-21.4
191.488	-18.03
191.869	-12.55
192.251	-9.55
192.633	-10.64
193.014	-16.39
193.396	-28.33
193.777	-38.69
194.159	-31.11
194.54	-17.44
194.922	-18.4
195.303	-21.62
195.684	-30.82
196.065	-25.39
196.447	-26.18
196.828	-23.97
197.209	-16.37
197.59	11.4
197.971	7.79
198.352	19.09
198.733	26.06
199.114	33.78
199.495	60.02
199.876	13.28
200.257	-36.36
200.638	-231.17
201.018	148.39
201.399	43.69
201.78	172.49
202.16	-2.99
202.541	-484.75
202.922	-212.08
203.302	1830.77
203.683	160
204.063	-547.37
204.444	-211.88
204.824	400
205.204	0.28
205.585	-17.46
205.965	-13.35
206.345	-20.57
206.725	-18.5
207.106	-10.86
207.486	8.44
207.866	20.91
208.246	19.61
208.626	26.66
209.006	15.44
209.386	32.42
209.766	23.91
210.145	33.83
210.525	24.83
210.905	37.94
211.285	33.35
211.664	27.52
212.044	38.66
212.424	31.58
212.803	26.05
213.183	25.6
213.562	25.52
213.942	31.97
214.321	15
214.701	13.99
215.08	15.84
215.459	7.82
215.838	3.15
216.218	-2.85
216.597	-5.22
216.976	-4.59
217.355	-13.85
217.734	-18.61
218.113	-8.59
218.492	-2.72
218.871	-5.14
219.25	-3.49
219.629	-10.64
220.008	-8.71
220.387	-19.68
220.766	-15.56
221.144	-22.57
221.523	-32.62
221.902	-34.34
222.28	-9.03
222.659	0.31
223.037	-11.23
223.416	-4.56
223.794	-10.27
224.173	-10.97
224.551	-13.34
224.929	-6.45
225.308	-3.84
225.686	0.05
226.064	-13.87
226.442	-11.91
226.821	-14.2
227.199	-16.07
227.577	-11.04
227.955	-5.81
228.333	-3.17
228.711	-3.07
229.089	-4.61
229.467	0.8
229.845	-0.68
230.222	3.28
230.6	5.44
230.978	7.34
231.356	7.82
231.733	11.6
232.111	17.05
232.488	17.67
232.866	20.15
233.243	19.38
233.621	20.04
233.998	20.73
234.376	19.56
234.753	20.96
235.13	20.4
235.508	19.51
235.885	18.39
236.262	19.18
236.639	17.66
237.016	18.3
237.393	16.58
237.77	16.61
238.147	14.42
238.524	13.95
238.901	11.99
239.278	9.89
239.655	8.86
240.032	7.71
240.409	7.1
240.785	6.73
241.162	7.13
241.539	6.82
241.915	6.89
242.292	7.58
242.668	7.89
243.045	8.18
243.421	7.78
243.798	7.58
244.174	7.28
244.551	7.29
244.927	7.27
245.303	6.82
245.679	6.96
246.056	6.69
246.432	6.47
246.808	6.97
247.184	7.33
247.56	7.02
247.936	7.18
248.312	7.27
248.688	7.04
249.064	6.83
249.44	6.87
249.815	6.89
250.191	6.63
250.567	6.14
250.943	6.13
251.318	6.15
251.694	6.09
252.069	6.21
252.445	6.28
252.82	6.3
253.196	6.85
253.571	6.83
253.947	7.26
254.322	7.26
254.697	6.64
255.073	6.2
255.448	6.32
255.823	5.74
256.198	5.5
256.573	5.5
256.948	5.68
257.323	5.68
257.698	5.76
258.073	5.78
258.448	5.97
258.823	5.64
259.198	5.77
259.573	5.67
259.948	5.85
260.322	5.75
260.697	5.7
261.072	5.53
261.446	5.48
261.821	5.34
262.195	5.42
262.57	5.55
262.944	5.83
263.319	6.18
263.693	6.34
264.067	6.66
264.442	6.82
264.816	6.71
265.19	6.66
265.564	6.54
265.938	6.42
266.313	6.26
266.687	6.38
267.061	6.12
267.435	6.22
267.809	5.85
268.183	5.57
268.556	5.56
268.93	5.41
269.304	5.41
269.678	5.45
270.051	5.28
270.425	5.19
270.799	5.05
271.172	4.95
271.546	4.96
271.919	5.03
272.293	4.87
272.666	5.05
273.04	4.92
273.413	4.83
273.787	5.12
274.16	5.15
274.533	5.22
274.906	5.29
275.279	5.29
275.653	5.44
276.026	5.73
276.399	5.85
276.772	5.94
277.145	5.98
277.518	6
277.891	5.94
278.263	6.14
278.636	6.1
279.009	6.08
279.382	6.02
279.755	5.88
280.127	5.96
280.5	5.73
280.872	5.91
281.245	5.75
281.617	5.68
281.99	5.83
282.362	5.85
282.735	5.84
283.107	5.85
283.479	5.75
283.852	5.6
284.224	5.48
284.596	5.43
284.968	5.44
285.34	5.56
285.713	5.53
286.085	5.44
286.457	5.48
286.829	5.4
287.201	5.45
287.572	5.45
287.944	5.64
288.316	5.76
288.688	5.69
289.06	5.97
289.431	5.96
289.803	5.93
290.175	6.02
290.546	6.08
290.918	6.01
291.289	6.03
291.661	6.22
292.032	6.29
292.403	6.44
292.775	6.4
293.146	6.28
293.517	6.35
293.889	6.42
294.26	6.46
294.631	6.63
295.002	6.66
295.373	6.64
295.744	6.44
296.115	6.36
296.486	6.48
296.857	6.49
297.228	6.39
297.599	6.43
297.97	6.35
298.34	6.4
298.711	6.42
299.082	6.54
299.452	6.51
299.823	6.47
300.194	6.35
300.564	6.34
300.935	6.43
301.305	6.46
301.676	6.28
302.046	6.24
302.416	6.13
302.787	6.17
303.157	6.3
303.527	6.52
303.897	6.5
304.267	6.46
304.637	6.46
305.008	6.48
305.378	6.26
305.748	6.29
306.117	6.27
306.487	6.32
306.857	6.27
307.227	6.28
307.597	6.26
307.967	6.32
308.336	6.43
308.706	6.27
309.076	6.34
309.445	6.68
309.815	6.59
310.184	6.48
310.554	6.35
310.923	6.22
311.293	6.12
311.662	6.11
312.031	6.16
312.401	6.21
312.77	6.28
313.139	6.47
313.508	6.47
313.877	6.34
314.246	6.42
314.616	6.43
314.985	6.44
315.353	6.45
315.722	6.7
316.091	6.56
316.46	6.8
316.829	6.7
317.198	6.52
317.567	6.68
317.935	6.93
318.304	7.01
318.672	7.06
319.041	6.92
319.41	6.88
319.778	6.82
320.147	6.55
320.515	6.39
320.883	6.2
321.252	6.17
321.62	6.31
321.988	6.39
322.357	6.37
322.725	6.38
323.093	6.38
323.461	6.19
323.829	6.18
324.197	6.06
324.565	6.22
324.933	6.14
325.301	6.07
325.669	6
326.037	6.03
326.405	5.94
326.772	6.01
327.14	6.08
327.508	6.06
327.875	6.18
328.243	6.36
328.61	6.49
328.978	6.53
329.346	6.47
329.713	6.45
330.08	6.41
330.448	6.38
330.815	6.44
331.182	6.45
331.55	6.51
331.917	6.56
332.284	6.42
332.651	6.45
333.018	6.42
333.385	6.36
333.752	6.41
334.119	6.51
334.486	6.51
334.853	6.59
335.22	6.62
335.587	6.61
335.954	6.59
336.32	6.6
336.687	6.71
337.054	6.77
337.42	6.7
337.787	6.65
338.153	6.76
338.52	6.75
338.886	6.8
339.253	6.79
339.619	6.8
339.986	6.88
340.352	7
340.718	7.04
341.084	7.05
341.451	7.12
341.817	7.12
342.183	7.11
342.549	7.04
342.915	7.01
343.281	6.96
343.647	6.91
344.013	6.87
344.379	6.82
344.745	6.82
345.11	6.73
345.476	6.83
345.842	6.75
346.208	6.82
346.573	6.72
346.939	6.77
347.304	6.8
347.67	6.7
348.035	6.61
348.401	6.6
348.766	6.56
349.132	6.49
349.497	6.45
349.862	6.47
350.228	6.45
350.593	6.49
350.958	6.62
351.323	6.6
351.688	6.59
352.053	6.49
352.418	6.54
352.783	6.54
353.148	6.48
353.513	6.43
353.878	6.31
354.243	6.22
354.608	6.15
354.972	6.03
355.337	6.07
355.702	6.05
356.066	6.08
356.431	6.08
356.795	6.06
357.16	6.06
357.524	6.07
357.889	6.06
358.253	6.02
358.618	5.95
358.982	5.97
359.346	5.95
359.71	5.92
360.075	5.82
360.439	5.82
360.803	5.86
361.167	5.88
361.531	5.9
361.895	5.98
362.259	6.05
362.623	6.07
362.987	6.06
363.351	6.13
363.714	6.16
364.078	6.16
364.442	6.18
364.806	6.22
365.169	6.21
365.533	6.27
365.896	6.34
366.26	6.35
366.623	6.34
366.987	6.43
367.35	6.47
367.714	6.55
368.077	6.57
368.44	6.57
368.803	6.49
369.167	6.4
369.53	6.34
369.893	6.26
370.256	6.25
370.619	6.26
370.982	6.18
371.345	6.18
371.708	6.14
372.071	6.04
372.434	5.95
372.797	5.88
373.159	5.82
373.522	5.82
373.885	5.8
374.247	5.74
374.61	5.7
374.973	5.68
375.335	5.66
375.698	5.58
376.06	5.55
376.423	5.59
376.785	5.67
377.147	5.72
377.51	5.73
377.872	5.75
378.234	5.79
378.596	5.81
378.958	5.77
379.321	5.78
379.683	5.86
380.045	5.91
380.407	5.97
380.769	5.89
381.13	5.81
381.492	5.84
381.854	5.84
382.216	5.85
382.578	5.91
382.939	5.92
383.301	5.9
383.663	5.89
384.024	5.93
384.386	5.9
384.747	5.84
385.109	5.83
385.47	5.81
385.832	5.72
386.193	5.67
386.554	5.68
386.916	5.69
387.277	5.68
387.638	5.67
387.999	5.66
388.36	5.73
388.721	5.76
389.082	5.74
389.443	5.76
389.804	5.76
390.165	5.72
390.526	5.74
390.887	5.79
391.248	5.77
391.609	5.77
391.969	5.77
392.33	5.81
392.691	5.8
393.051	5.82
393.412	5.89
393.772	5.92
394.133	5.87
394.493	5.83
394.854	5.83
395.214	5.79
395.574	5.8
395.935	5.79
396.295	5.79
396.655	5.79
397.015	5.82
397.376	5.8
397.736	5.77
398.096	5.73
398.456	5.73
398.816	5.79
399.176	5.78
399.535	5.82
399.895	5.82
400.255	5.86
400.615	5.85
400.975	5.8
401.334	5.77
401.694	5.83
402.054	5.85
402.413	5.81
402.773	5.86
403.132	5.82
403.492	5.81
403.851	5.79
404.211	5.79
404.57	5.77
404.929	5.77
405.288	5.83
405.648	5.87
406.007	5.87
406.366	5.8
406.725	5.78
407.084	5.77
407.443	5.78
407.802	5.72
408.161	5.71
408.52	5.76
408.879	5.77
409.238	5.74
409.596	5.78
409.955	5.78
410.314	5.76
410.673	5.76
411.031	5.77
411.39	5.74
411.748	5.75
412.107	5.72
412.465	5.72
412.824	5.67
413.182	5.61
413.54	5.63
413.899	5.66
414.257	5.64
414.615	5.63
414.974	5.61
415.332	5.64
415.69	5.63
416.048	5.6
416.406	5.58
416.764	5.59
417.122	5.6
417.48	5.61
417.838	5.62
418.195	5.62
418.553	5.59
418.911	5.59
419.269	5.58
419.626	5.59
419.984	5.6
420.342	5.61
420.699	5.59
421.057	5.58
421.414	5.56
421.772	5.55
422.129	5.54
422.486	5.53
422.844	5.5
423.201	5.5
423.558	5.49
423.915	5.51
424.273	5.49
424.63	5.46
424.987	5.45
425.344	5.42
425.701	5.43
426.058	5.45
426.415	5.45
426.772	5.46
427.128	5.46
427.485	5.44
427.842	5.44
428.199	5.47
428.555	5.48
428.912	5.47
429.269	5.47
429.625	5.46
429.982	5.47
430.338	5.48
430.695	5.46
431.051	5.48
431.407	5.45
431.764	5.47
432.12	5.5
432.476	5.49
432.832	5.49
433.189	5.46
433.545	5.45
433.901	5.46
434.257	5.43
434.613	5.42
434.969	5.41
435.325	5.41
435.681	5.41
436.036	5.42
436.392	5.43
436.748	5.44
437.104	5.44
437.459	5.45
437.815	5.45
438.171	5.46
438.526	5.47
438.882	5.48
439.237	5.47
439.593	5.45
439.948	5.43
440.304	5.45
440.659	5.47
441.014	5.48
441.369	5.48
441.725	5.49
442.08	5.47
442.435	5.46
442.79	5.46
443.145	5.43
443.5	5.43
443.855	5.45
444.21	5.46
444.565	5.46
444.92	5.45
445.275	5.47
445.629	5.45
445.984	5.44
446.339	5.46
446.693	5.45
447.048	5.46
447.403	5.47
447.757	5.46
448.112	5.45
448.466	5.43
448.82	5.44
449.175	5.44
449.529	5.45
449.883	5.47
450.238	5.49
450.592	5.5
450.946	5.48
451.3	5.46
451.654	5.45
452.008	5.44
452.362	5.44
452.716	5.44
453.07	5.45
453.424	5.45
453.778	5.42
454.132	5.43
454.486	5.42
454.839	5.43
455.193	5.44
455.547	5.47
455.9	5.51
456.254	5.5
456.607	5.5
456.961	5.51
457.314	5.5
457.668	5.47
458.021	5.47
458.375	5.47
458.728	5.47
459.081	5.48
459.434	5.47
459.787	5.48
460.141	5.48
460.494	5.49
460.847	5.51
461.2	5.53
461.553	5.54
461.906	5.53
462.259	5.51
462.611	5.5
462.964	5.47
463.317	5.45
463.67	5.46
464.022	5.45
464.375	5.44
464.728	5.43
465.08	5.44
465.433	5.45
465.785	5.48
466.138	5.49
466.49	5.49
466.843	5.53
467.195	5.49
467.547	5.48
467.899	5.48
468.252	5.48
468.604	5.48
468.956	5.49
469.308	5.49
469.66	5.51
470.012	5.5
470.364	5.53
470.716	5.53
471.068	5.55
471.42	5.58
471.772	5.6
472.123	5.61
472.475	5.61
472.827	5.63
473.178	5.61
473.53	5.61
473.882	5.61
474.233	5.58
474.585	5.61
474.936	5.64
475.288	5.62
475.639	5.62
475.99	5.62
476.342	5.63
476.693	5.63
477.044	5.63
477.395	5.64
477.746	5.61
478.097	5.6
478.448	5.57
478.8	5.53
479.15	5.51
479.501	5.52
479.852	5.53
480.203	5.52
480.554	5.53
480.905	5.53
481.255	5.54
481.606	5.57
481.957	5.57
482.307	5.57
482.658	5.58
483.009	5.57
483.359	5.57
483.709	5.58
484.06	5.57
484.41	5.58
484.761	5.6
485.111	5.6
485.461	5.61
485.811	5.62
486.162	5.64
486.512	5.64
486.862	5.65
487.212	5.65
487.562	5.65
487.912	5.64
488.262	5.64
488.612	5.65
488.961	5.62
489.311	5.61
489.661	5.61
490.011	5.62
490.36	5.62
490.71	5.62
491.06	5.62
491.409	5.63
491.759	5.63
492.108	5.61
492.458	5.6
492.807	5.6
493.157	5.6
493.506	5.59
493.855	5.59
494.204	5.58
494.554	5.57
494.903	5.58
495.252	5.61
495.601	5.61
495.95	5.61
496.299	5.64
496.648	5.67
496.997	5.66
497.346	5.66
497.695	5.67
498.043	5.66
498.392	5.66
498.741	5.66
499.09	5.68
499.438	5.73
499.787	5.74
500.135	5.73
500.484	5.72
500.832	5.72
501.181	5.72
501.529	5.73
501.878	5.75
502.226	5.75
502.574	5.75
502.923	5.75
503.271	5.75
503.619	5.74
503.967	5.72
504.315	5.75
504.663	5.74
505.011	5.73
505.359	5.75
505.707	5.76
506.055	5.78
506.403	5.78
506.751	5.74
507.098	5.74
507.446	5.76
507.794	5.79
508.141	5.81
508.489	5.83
508.837	5.83
509.184	5.85
509.531	5.84
509.879	5.84
510.226	5.84
510.574	5.86
510.921	5.89
511.268	5.93
511.616	5.94
511.963	5.95
512.31	5.99
512.657	5.99
513.004	5.99
513.351	5.96
513.698	5.97
514.045	6.02
514.392	6.04
514.739	6.04
515.086	6.07
515.432	6.07
515.779	6.07
516.126	6.08
516.473	6.08
516.819	6.11
517.166	6.14
517.512	6.14
517.859	6.15
518.205	6.15
518.552	6.15
518.898	6.15
519.245	6.17
519.591	6.16
519.937	6.16
520.283	6.16
520.629	6.18
520.976	6.16
521.322	6.15
521.668	6.15
522.014	6.15
522.36	6.13
522.706	6.15
523.052	6.18
523.398	6.18
523.743	6.19
524.089	6.19
524.435	6.17
524.781	6.18
525.126	6.19
525.472	6.2
525.817	6.19
526.163	6.2
526.509	6.19
526.854	6.18
527.199	6.2
527.545	6.21
527.89	6.22
528.235	6.22
528.581	6.22
528.926	6.21
529.271	6.23
529.616	6.23
529.961	6.24
530.306	6.24
530.651	6.23
530.996	6.25
531.341	6.27
531.686	6.29
532.031	6.29
532.376	6.29
532.721	6.29
533.065	6.3
533.41	6.3
533.755	6.33
534.099	6.34
534.444	6.33
534.788	6.34
535.133	6.33
535.477	6.34
535.822	6.37
536.166	6.38
536.51	6.38
536.855	6.39
537.199	6.37
537.543	6.39
537.887	6.4
538.231	6.4
538.576	6.39
538.92	6.4
539.264	6.42
539.608	6.42
539.951	6.42
540.295	6.42
540.639	6.41
540.983	6.4
541.327	6.42
541.671	6.43
542.014	6.43
542.358	6.43
542.701	6.46
543.045	6.44
543.389	6.45
543.732	6.45
544.075	6.46
544.419	6.48
544.762	6.46
545.105	6.5
545.449	6.48
545.792	6.46
546.135	6.46
546.478	6.42
546.821	6.43
547.165	6.42
547.508	6.43
547.851	6.42
548.194	6.42
548.536	6.38
548.879	6.39
549.222	6.38
549.565	6.36
549.908	6.33
550.25	6.34
550.593	6.36
550.936	6.35
551.278	6.33
551.621	6.32
551.963	6.35
552.306	6.31
552.648	6.35
552.991	6.35
553.333	6.37
553.675	6.43
554.017	6.41
554.36	6.44
554.702	6.42
555.044	6.46
555.386	6.49
555.728	6.5
556.07	6.48
556.412	6.51
556.754	6.55
557.096	6.56
557.438	6.57
557.78	6.56
558.121	6.59
558.463	6.58
558.805	6.57
559.147	6.56
559.488	6.52
559.83	6.51
560.171	6.56
560.513	6.54
560.854	6.5
561.196	6.53
561.537	6.55
561.878	6.57
562.22	6.54
562.561	6.5
562.902	6.51
563.243	6.51
563.584	6.54
563.925	6.55
564.266	6.53
564.607	6.51
564.948	6.49
565.289	6.49
565.63	6.5
565.971	6.51
566.312	6.51
566.653	6.54
566.993	6.53
567.334	6.54
567.675	6.54
568.015	6.55
568.356	6.52
568.696	6.51
569.037	6.53
569.377	6.53
569.718	6.55
570.058	6.56
570.398	6.56
570.739	6.54
571.079	6.5
571.419	6.51
571.759	6.51
572.099	6.53
572.439	6.51
572.779	6.49
573.119	6.49
573.459	6.49
573.799	6.49
574.139	6.48
574.479	6.49
574.819	6.5
575.158	6.51
575.498	6.53
575.838	6.5
576.177	6.48
576.517	6.5
576.856	6.5
577.196	6.52
577.535	6.53
577.875	6.54
578.214	6.59
578.553	6.6
578.893	6.62
579.232	6.64
579.571	6.66
579.91	6.72
580.25	6.72
580.589	6.72
580.928	6.73
581.267	6.75
581.606	6.69
581.945	6.67
582.283	6.67
582.622	6.66
582.961	6.69
583.3	6.69
583.639	6.65
583.977	6.65
584.316	6.61
584.654	6.61
584.993	6.59
585.332	6.57
585.67	6.61
586.008	6.67
586.347	6.66
586.685	6.64
587.024	6.6
587.362	6.61
587.7	6.63
588.038	6.65
588.376	6.62
588.715	6.66
589.053	6.7
589.391	6.68
589.729	6.68
590.067	6.68
590.404	6.69
590.742	6.7
591.08	6.7
591.418	6.71
591.756	6.71
592.093	6.75
592.431	6.76
592.769	6.72
593.106	6.69
593.444	6.71
593.781	6.69
594.119	6.72
594.456	6.74
594.793	6.73
595.131	6.75
595.468	6.8
595.805	6.77
596.143	6.75
596.48	6.77
596.817	6.78
597.154	6.81
597.491	6.81
597.828	6.83
598.165	6.85
598.502	6.83
598.839	6.86
599.176	6.81
599.512	6.82
599.849	6.83
600.186	6.82
600.523	6.77
600.859	6.8
601.196	6.8
601.532	6.76
601.869	6.77
602.205	6.72
602.542	6.7
602.878	6.75
603.215	6.77
603.551	6.77
603.887	6.74
604.223	6.69
604.56	6.7
604.896	6.75
605.232	6.71
605.568	6.74
605.904	6.7
606.24	6.72
606.576	6.74
606.912	6.74
607.248	6.75
607.583	6.83
607.919	6.83
608.255	6.85
608.591	6.9
608.926	6.88
609.262	6.92
609.597	6.92
609.933	6.89
610.268	6.89
610.604	6.9
610.939	7
611.275	7
611.61	6.97
611.945	6.9
612.281	6.93
612.616	6.93
612.951	6.98
613.286	6.95
613.621	6.93
613.956	6.92
614.291	6.92
614.626	6.81
614.961	6.81
615.296	6.8
615.631	6.76
615.966	6.76
616.3	6.76
616.635	6.73
616.97	6.71
617.304	6.72
617.639	6.72
617.973	6.66
618.308	6.66
618.642	6.69
618.977	6.7
619.311	6.69
619.646	6.66
619.98	6.64
620.314	6.65
620.648	6.62
620.983	6.65
621.317	6.66
621.651	6.71
621.985	6.76
622.319	6.74
622.653	6.76
622.987	6.72
623.321	6.72
623.655	6.72
623.988	6.78
624.322	6.76
624.656	6.81
624.99	6.79
625.323	6.81
625.657	6.87
625.99	6.89
626.324	6.92
626.657	6.95
626.991	6.95
627.324	6.95
627.658	7
627.991	7.06
628.324	7.05
628.657	7.06
628.991	7.01
629.324	7.02
629.657	6.98
629.99	7.04
630.323	7.07
630.656	7.08
630.989	7.08
631.322	7.08
631.655	7.08
631.987	7.12
632.32	7.14
632.653	7.14
632.986	7.18
633.318	7.19
633.651	7.18
633.984	7.25
634.316	7.31
634.649	7.3
634.981	7.17
635.313	7.21
635.646	7.29
635.978	7.26
636.31	7.26
636.643	7.26
636.975	7.25
637.307	7.22
637.639	7.29
637.971	7.32
638.303	7.34
638.635	7.31
638.967	7.32
639.299	7.32
639.631	7.27
639.963	7.24
640.295	7.28
640.626	7.24
640.958	7.15
641.29	7.15
641.621	7.13
641.953	7.19
642.285	7.14
642.616	7.15
642.948	7.21
643.279	7.28
643.61	7.44
643.942	7.48
644.273	7.45
644.604	7.4
644.936	7.36
645.267	7.35
645.598	7.33
645.929	7.27
646.26	7.33
646.591	7.34
646.922	7.33
647.253	7.29
647.584	7.32
647.915	7.31
648.245	7.33
648.576	7.3
648.907	7.34
649.238	7.26
649.568	7.15
649.899	7.14
650.229	7.08
650.56	6.97
650.89	6.97
651.221	7.04
651.551	7.06
651.882	7.07
652.212	7.04
652.542	6.99
652.872	7.05
653.203	7.08
653.533	7.13
653.863	7.13
654.193	7.05
654.523	7.03
654.853	7.15
655.183	7.07
655.513	7.12
655.843	7.14
656.172	7.25
656.502	7.27
656.832	7.27
657.162	7.23
657.491	7.22
657.821	7.2
658.15	7.25
658.48	7.31
658.809	7.29
659.139	7.26
659.468	7.33
659.798	7.33
660.127	7.28
660.456	7.24
660.785	7.27
661.115	7.27
661.444	7.39
661.773	7.35
662.102	7.43
662.431	7.4
662.76	7.38
663.089	7.36
663.418	7.42
663.747	7.53
664.076	7.64
664.404	7.73
664.733	7.7
665.062	7.68
665.39	7.55
665.719	7.55
666.048	7.53
666.376	7.51
666.705	7.59
667.033	7.61
667.362	7.62
667.69	7.64
668.018	7.69
668.347	7.57
668.675	7.54
669.003	7.47
669.331	7.57
669.659	7.56
669.987	7.49
670.315	7.46
670.643	7.36
670.971	7.33
671.299	7.29
671.627	7.4
671.955	7.31
672.283	7.45
672.61	7.41
672.938	7.58
673.266	7.62
673.593	7.48
673.921	7.41
674.249	7.4
674.576	7.39
674.904	7.4
675.231	7.47
675.558	7.56
675.886	7.61
676.213	7.59
676.54	7.63
676.867	7.7
677.195	7.67
677.522	7.71
677.849	7.68
678.176	7.7
678.503	7.63
678.83	7.67
679.157	7.65
679.484	7.73
679.81	7.66
680.137	7.69
680.464	7.73
680.791	7.75
681.117	7.83
681.444	7.84
681.771	7.88
682.097	7.96
682.424	7.9
682.75	7.96
683.077	7.92
683.403	7.95
683.729	7.93
684.056	7.96
684.382	8.04
684.708	8.1
685.034	8.06
685.36	8
685.686	8.04
686.012	8.13
686.339	8.1
686.664	8.1
686.99	8.05
687.316	8.1
687.642	8.06
687.968	8.02
688.294	8.03
688.619	8.05
688.945	7.98
689.271	8.02
689.596	7.92
689.922	7.95
690.247	7.94
690.573	8.05
690.898	8.12
691.224	8.08
691.549	8.03
691.874	8.04
692.2	8.17
692.525	8.15
692.85	7.99
693.175	8.11
693.5	8.11
693.825	8.25
694.15	8.16
694.475	8.19
694.8	8.09
695.125	8
695.45	7.82
695.775	7.88
696.099	7.82
696.424	7.95
696.749	8.01
697.073	7.92
697.398	7.88
697.723	7.86
698.047	7.85
698.372	7.81
698.696	7.8
699.02	7.8
699.345	7.85
699.669	7.95
699.993	7.84
700.318	7.79
700.642	7.71
700.966	7.83
701.29	7.9
701.614	7.97
701.938	7.95
702.262	8.06
702.586	8.05
702.91	8.11
703.234	7.99
703.557	7.89
703.881	8.07
704.205	8.04
704.529	8.03
704.852	8
705.176	8.14
705.499	8.28
705.823	8.3
706.146	8.32
706.47	8.33
706.793	8.55
707.117	8.77
707.44	8.84
707.763	8.82
708.086	8.84
708.409	8.89
708.733	8.88
709.056	8.93
709.379	9.01
709.702	9.11
710.025	9.17
710.348	9.22
710.671	9.24
710.993	9.22
711.316	9.17
711.639	9.16
711.962	9.08
712.284	9.07
712.607	9.1
712.93	9.09
713.252	9.02
713.575	8.9
713.897	8.93
714.22	8.74
714.542	8.73
714.864	8.65
715.187	8.71
715.509	8.78
715.831	8.83
716.153	8.75
716.475	8.68
716.798	8.68
717.12	8.73
717.442	8.56
717.764	8.54
718.085	8.63
718.407	8.62
718.729	8.61
719.051	8.55
719.373	8.61
719.695	8.51
720.016	8.64
720.338	8.77
720.659	8.5
720.981	8.52
721.302	8.56
721.624	8.6
721.945	8.53
722.267	8.57
722.588	8.54
722.909	8.5
723.231	8.46
723.552	8.48
723.873	8.41
724.194	8.61
724.515	8.77
724.836	8.67
725.157	8.75
725.478	8.9
725.799	8.9
726.12	8.78
726.441	8.72
726.762	8.74
727.083	8.71
727.403	8.95
727.724	9.24
728.045	9.22
728.365	9.3
728.686	9.36
729.006	9.36
729.327	9.38
729.647	9.39
729.967	9.3
730.288	9.45
730.608	9.5
730.928	9.46
731.249	9.55
731.569	9.68
731.889	9.68
732.209	9.68
732.529	9.81
732.849	9.66
733.169	9.87
733.489	9.63
733.809	9.6
734.129	9.58
734.448	9.56
734.768	9.5
735.088	9.66
735.408	9.59
735.727	9.67
736.047	9.78
736.366	9.74
736.686	9.9
737.005	9.82
737.325	9.91
737.644	9.69
737.963	9.52
738.283	9.43
738.602	9.67
738.921	9.73
739.24	9.62
739.56	9.85
739.879	9.82
740.198	9.98
740.517	9.95
740.836	9.92
741.155	9.89
741.473	9.91
741.792	9.76
742.111	10
742.43	9.88
742.748	9.71
743.067	9.82
743.386	9.82
743.704	9.94
744.023	9.74
744.341	9.97
744.66	9.75
744.978	9.96
745.297	9.73
745.615	9.53
745.933	9.64
746.252	9.72
746.57	9.76
746.888	9.9
747.206	9.93
747.524	10
747.842	9.78
748.16	10.05
748.478	9.89
748.796	9.56
749.114	9.51
749.432	9.77
749.749	9.88
750.067	9.85
750.385	10.12
750.703	10.19
751.02	10.13
751.338	10.33
751.655	10.25
751.973	10.26
752.29	10.24
752.608	10.09
752.925	10.26
753.242	10.22
753.56	10.11
753.877	9.94
754.194	9.97
754.511	10.1
754.828	9.93
755.145	9.95
755.462	10.01
755.779	10.09
756.096	10.09
756.413	10.18
756.73	10.45
757.047	9.98
757.364	10.1
757.68	10.12
757.997	10.22
758.314	10.53
758.63	10.35
758.947	10.55
759.264	10.46
759.58	10.17
759.896	10.06
760.213	10.13
760.529	10.35
760.846	10.27
761.162	10.18
761.478	10.08
761.794	10.27
762.11	10.21
762.426	10.25
762.743	10.07
763.059	9.95
763.375	9.93
763.69	10.07
764.006	9.98
764.322	10.1
764.638	10.19
764.954	9.83
765.27	10.07
765.585	9.97
765.901	10.08
766.216	10.13
766.532	10.11
766.848	10.03
767.163	9.75
767.478	9.91
767.794	10.08
768.109	10.23
768.424	10.11
768.74	10.09
769.055	10.21
769.37	10.13
769.685	10.12
770	10.09
770.315	9.94
770.63	10.1
770.945	10.31
771.26	10.16
771.575	10.35
771.89	10.27
772.205	10.35
772.52	10.27
772.834	10.19
773.149	10.32
773.464	10.39
773.778	10.73
774.093	10.59
774.407	10.69
774.722	10.33
775.036	10.52
775.351	10.83
775.665	10.87
775.979	11.06
776.293	11.09
776.608	11.21
776.922	11.25
777.236	11.19
777.55	10.87
777.864	11.25
778.178	11.24
778.492	11.16
778.806	11.27
779.12	11.76
779.434	12
779.747	12.58
780.061	12.53
780.375	12.42
780.689	12.65
781.002	12.61
781.316	13.22
781.629	12.93
781.943	13.11
782.256	12.71
782.57	12.94
782.883	12.98
783.196	12.95
783.51	12.69
783.823	12.79
784.136	12.92
784.449	12.87
784.762	12.75
785.075	12.94
785.388	13.05
785.701	12.56
786.014	12.51
786.327	12.08
786.64	12.33
786.953	12.45
787.266	12.14
787.578	12.35
787.891	12.28
788.204	12.57
788.516	12.56
788.829	13.06
789.141	13.11
789.454	13.41
789.766	13.32
790.079	13.39
790.391	13.24
790.703	13.08
791.016	13.35
791.328	13.13
791.64	12.62
791.952	12.69
792.264	13.01
792.576	13.28
792.888	13.22
793.2	13.39
793.512	13.18
793.824	13.5
794.136	13.43
794.448	13.52
794.76	13.48
795.071	13.52
795.383	13.52
795.695	13.44
796.006	12.83
796.318	13.16
796.629	13.51
796.941	13.61
797.252	13.3
797.564	12.93
797.875	13.17
798.186	13.54
798.497	13.45
798.809	13.72
799.12	13.17
799.431	13.37
799.742	13.5
800.053	13.55
800.364	13.83
800.675	13.63
800.986	13.48
801.297	13.91
801.608	13.88
801.918	13.89
802.229	13.96
802.54	13.58
802.851	12.8
803.161	12.96
803.472	13.15
803.782	13.93
804.093	13.82
804.403	13.94
804.714	14.11
805.024	13.74
805.334	13.4
805.645	14.14
805.955	14.18
806.265	13.57
806.575	14.34
806.885	14.27
807.195	13.61
807.505	13.59
807.815	13.15
808.125	13.34
808.435	13.09
808.745	13.08
809.055	14.22
809.365	14.82
809.674	14.59
809.984	14.58
810.294	14.32
810.603	14.44
810.913	14.5
811.222	14.49
811.532	15.3
811.841	14.94
812.151	14.59
812.46	14.7
812.769	14.02
813.079	13.19
813.388	13.01
813.697	14.14
814.006	14.54
814.315	14.38
814.624	14.42
814.933	14.62
815.242	14.31
815.551	14.23
815.86	14.58
816.169	13.87
816.478	13.82
816.786	12.87
817.095	12.57
817.404	12.54
817.712	12.5
818.021	12.05
818.33	12.28
818.638	12.07
818.947	11.72
819.255	11.98
819.563	12.14
819.872	11.6
820.18	11.23
820.488	11.13
820.796	11.21
821.105	11.25
821.413	11.14
821.721	11.23
822.029	11.29
822.337	11.05
822.645	11.41
822.953	11.41
823.26	11.6
823.568	11.72
823.876	11.82
824.184	11.8
824.491	11.94
824.799	12.04
825.107	12.1
825.414	12.07
825.722	12.1
826.029	12.09
826.337	12.34
826.644	12.38
826.951	12.42
827.259	12.52
827.566	12.46
827.873	12.69
828.18	12.88
828.488	13.07
828.795	13.52
829.102	13.18
829.409	13.26
829.716	13.55
830.023	13.31
830.329	13.6
830.636	13.81
830.943	13.64
831.25	13.39
831.557	13.13
831.863	13.16
832.17	13.48
832.476	13.68
832.783	13.35
833.089	13.64
833.396	13.66
833.702	13.84
834.009	14.12
834.315	14.03
834.621	13.78
834.928	13.03
835.234	12.43
835.54	13
835.846	12.91
836.152	12.87
836.458	12.8
836.764	12.77
837.07	12.81
837.376	12.78
837.682	12.94
837.988	13.39
838.293	14.01
838.599	14.32
838.905	14.28
839.211	15.01
839.516	14.81
839.822	15.44
840.127	14.86
840.433	15.1
840.738	15.31
841.044	15.35
841.349	16.61
841.654	16.3
841.959	16.59
842.265	17.82
842.57	17.4
842.875	18.92
843.18	18.13
843.485	18.1
843.79	18.77
844.095	18.95
844.4	19.71
844.705	19.81
845.01	19.44
845.315	19.5
845.619	19.61
845.924	19.42
846.229	19.72
846.533	20.71
846.838	21.01
847.142	20.92
847.447	21.09
847.751	20.51
848.056	22.73
848.36	23.42
848.664	22.52
848.969	21.54
849.273	20.39
849.577	21.53
849.881	21.5
850.185	20.9
850.489	22.17
850.794	21.52
851.097	20.05
851.401	17.84
851.705	18.08
852.009	17.72
852.313	16.83
852.617	15.95
852.92	17.1
853.224	16.22
853.528	14.94
853.831	15.83
854.135	15.24
854.438	15.33
854.742	13.41
855.045	13.36
855.349	14.64
855.652	15.83
855.955	14.97
856.259	15.46
856.562	16.38
856.865	14.69
857.168	14.23
857.471	16.17
857.774	17.44
858.077	16.39
858.38	15.18
858.683	18.97
858.986	18.3
859.289	17.39
859.592	17.12
859.894	18.17
860.197	19.11
860.5	19.18
860.802	18.71
861.105	19.18
861.407	16.66
861.71	16.8
862.012	16.73
862.315	17.36
862.617	16.73
862.919	15.43
863.222	16.9
863.524	17.1
863.826	14.8
864.128	16.2
864.43	20.2
864.732	19.21
865.034	17.82
865.336	17.85
865.638	17.73
865.94	18.35
866.242	20.05
866.544	19.05
866.846	21.24
867.147	21.81
867.449	21.74
867.751	24.7
868.052	24.59
868.354	24.51
868.655	24.7
868.957	25.74
869.258	25.31
869.56	25.47
869.861	25.68
870.162	26.65
870.463	25.95
870.765	24.37
871.066	25.13
871.367	24.18
871.668	23.91
871.969	24.91
872.27	26.17
872.571	24.3
872.872	24.79
873.173	25.15
873.473	25.5
873.774	24.35
874.075	25.12
874.376	24.62
874.676	25.81
874.977	25.9
875.277	23.98
875.578	25.97
875.878	25.32
876.179	25.41
876.479	25.7
876.78	26.71
877.08	24.72
877.38	27.23
877.68	29.4
877.981	31.18
878.281	31.19
878.581	27.55
