Data from BU58129_Reflection_00012.txt Node
Date: Mon Nov 18 16:35:15 EST 2019
User: vgr7
Spectrometer: USB2G7710
Scans to average: 3
Trigger mode: 4
Integration Time (sec): 2.000000E-2
Electric dark correction enabled: true
Boxcar width: 10
XAxis mode: Wavelengths
Number of Pixels in Spectrum: 2048
>>>>>Begin Spectral Data<<<<<
177.721	-50.27
178.105	-164.96
178.488	-195.17
178.871	-761.11
179.254	897.1
179.636	-21.75
180.019	-607.6
180.402	115
180.785	91.71
181.168	-511.11
181.55	-116.12
181.933	105.36
182.316	160.44
182.698	200.09
183.081	125.83
183.463	236.12
183.846	373.03
184.228	616.22
184.611	6522.22
184.993	-209.59
185.376	-148.9
185.758	-217.93
186.14	-247.4
186.522	-181
186.904	-1083.01
187.287	1276.1
187.669	-295.51
188.051	653.11
188.433	365.99
188.815	473.74
189.197	618.15
189.579	1160.61
189.961	991.47
190.342	17.98
190.724	80.84
191.106	156.28
191.488	32.63
191.869	53
192.251	38.24
192.633	15.87
193.014	22.19
193.396	42.46
193.777	40.34
194.159	59.73
194.54	61.79
194.922	69.6
195.303	96.65
195.684	83.44
196.065	101.11
196.447	186.23
196.828	353.19
197.209	108.87
197.59	82.79
197.971	70.94
198.352	-515.82
198.733	283.52
199.114	-419.38
199.495	1.83
199.876	47.07
200.257	64.46
200.638	121.41
201.018	114.77
201.399	85.09
201.78	86.23
202.16	79.04
202.541	70.92
202.922	-192.52
203.302	527.23
203.683	280.47
204.063	597.84
204.444	937.4
204.824	679.91
205.204	13766.67
205.585	1580.87
205.965	1162.75
206.345	2147.62
206.725	1327.45
207.106	456.56
207.486	521.89
207.866	794.6
208.246	2076.53
208.626	936.4
209.006	9988.89
209.386	1633.33
209.766	599.31
210.145	815.62
210.525	-1865.99
210.905	-3684.31
211.285	-233.33
211.664	-49.68
212.044	-120.92
212.424	-202.83
212.803	-698.45
213.183	-71.08
213.562	-10.11
213.942	-17.58
214.321	10.57
214.701	-23.23
215.08	-28.89
215.459	-53.91
215.838	-57.59
216.218	-79.32
216.597	-69.3
216.976	-82.6
217.355	-58.85
217.734	-32.29
218.113	-15
218.492	-19.3
218.871	-44
219.25	-53.4
219.629	-96.42
220.008	-56.53
220.387	-43.34
220.766	-27
221.144	-27.26
221.523	1.16
221.902	-15.57
222.28	-26.02
222.659	-3.52
223.037	-1.96
223.416	-4.89
223.794	1.83
224.173	-1.62
224.551	0.21
224.929	-3
225.308	-12.4
225.686	-9.92
226.064	-9.85
226.442	-11.67
226.821	-3.69
227.199	2.75
227.577	4.88
227.955	1.35
228.333	1.54
228.711	1.48
229.089	1.85
229.467	-0.7
229.845	1.01
230.222	5.7
230.6	4.29
230.978	4.82
231.356	5.19
231.733	3.66
232.111	6.14
232.488	8.15
232.866	8.76
233.243	9.27
233.621	8.77
233.998	8.12
234.376	8.34
234.753	9.03
235.13	7.97
235.508	8.21
235.885	7.34
236.262	6.24
236.639	4.49
237.016	2.27
237.393	2.54
237.77	2.72
238.147	2.23
238.524	2.72
238.901	2.86
239.278	3.64
239.655	4.83
240.032	4.72
240.409	4.17
240.785	3.81
241.162	4.04
241.539	3.72
241.915	3.75
242.292	3.53
242.668	3.29
243.045	3.55
243.421	3.39
243.798	3.56
244.174	3.73
244.551	4.36
244.927	4.5
245.303	4.74
245.679	4.92
246.056	5.06
246.432	4.95
246.808	5.36
247.184	4.99
247.56	5
247.936	4.75
248.312	4.81
248.688	5.07
249.064	5.29
249.44	5.37
249.815	5.44
250.191	5.52
250.567	5.68
250.943	5.6
251.318	5.75
251.694	5.67
252.069	5.73
252.445	5.81
252.82	5.94
253.196	6.06
253.571	6.09
253.947	5.67
254.322	5.76
254.697	5.7
255.073	5.58
255.448	5.06
255.823	5.09
256.198	5.2
256.573	4.76
256.948	4.71
257.323	4.93
257.698	4.88
258.073	4.93
258.448	4.82
258.823	4.88
259.198	4.85
259.573	4.79
259.948	4.74
260.322	4.56
260.697	4.54
261.072	4.3
261.446	4.29
261.821	4.43
262.195	4.51
262.57	4.46
262.944	4.61
263.319	4.67
263.693	4.73
264.067	4.63
264.442	4.95
264.816	4.76
265.19	4.71
265.564	4.82
265.938	4.67
266.313	4.66
266.687	4.78
267.061	5.01
267.435	5.11
267.809	5.19
268.183	5.21
268.556	5.15
268.93	5.26
269.304	5.24
269.678	5.3
270.051	5.16
270.425	4.93
270.799	5.02
271.172	5.06
271.546	4.99
271.919	4.98
272.293	4.86
272.666	4.94
273.04	4.91
273.413	4.69
273.787	4.86
274.16	4.96
274.533	4.71
274.906	4.44
275.279	4.6
275.653	4.52
276.026	4.55
276.399	4.64
276.772	4.66
277.145	4.73
277.518	4.68
277.891	4.65
278.263	4.45
278.636	4.39
279.009	4.43
279.382	4.5
279.755	4.52
280.127	4.63
280.5	4.7
280.872	4.69
281.245	4.68
281.617	4.64
281.99	4.61
282.362	4.77
282.735	4.82
283.107	4.67
283.479	4.58
283.852	4.61
284.224	4.56
284.596	4.55
284.968	4.53
285.34	4.53
285.713	4.6
286.085	4.76
286.457	4.69
286.829	4.65
287.201	4.77
287.572	4.8
287.944	4.68
288.316	4.65
288.688	4.59
289.06	4.75
289.431	4.77
289.803	4.75
290.175	4.69
290.546	4.72
290.918	4.83
291.289	5.08
291.661	5.09
292.032	5.33
292.403	5.29
292.775	5.39
293.146	5.38
293.517	5.34
293.889	5.47
294.26	5.59
294.631	5.68
295.002	5.57
295.373	5.42
295.744	5.45
296.115	5.53
296.486	5.52
296.857	5.4
297.228	5.44
297.599	5.41
297.97	5.59
298.34	5.73
298.711	5.83
299.082	5.88
299.452	5.94
299.823	5.98
300.194	6.12
300.564	6.15
300.935	6.36
301.305	6.48
301.676	6.63
302.046	6.68
302.416	6.72
302.787	6.86
303.157	7.13
303.527	7.26
303.897	7.26
304.267	7.61
304.637	7.81
305.008	7.89
305.378	8.2
305.748	8.23
306.117	8.21
306.487	8.32
306.857	8.3
307.227	8.44
307.597	8.51
307.967	8.56
308.336	8.57
308.706	8.64
309.076	8.72
309.445	8.68
309.815	8.77
310.184	8.98
310.554	9.06
310.923	9.15
311.293	9.35
311.662	9.53
312.031	9.57
312.401	9.7
312.77	9.85
313.139	9.86
313.508	10
313.877	10.14
314.246	10.2
314.616	10.28
314.985	10.43
315.353	10.27
315.722	10.57
316.091	10.78
316.46	10.76
316.829	10.9
317.198	11.11
317.567	11.17
317.935	11.24
318.304	11.36
318.672	11.44
319.041	11.47
319.41	11.51
319.778	11.68
320.147	11.78
320.515	11.76
320.883	11.74
321.252	11.73
321.62	11.78
321.988	11.89
322.357	12.09
322.725	12.01
323.093	12.31
323.461	12.21
323.829	12.28
324.197	12.42
324.565	12.42
324.933	12.62
325.301	12.77
325.669	12.83
326.037	12.95
326.405	12.97
326.772	12.9
327.14	13.1
327.508	13.16
327.875	13.21
328.243	13.36
328.61	13.53
328.978	13.68
329.346	13.74
329.713	13.73
330.08	13.71
330.448	13.81
330.815	13.83
331.182	13.85
331.55	13.71
331.917	13.73
332.284	13.86
332.651	13.76
333.018	13.79
333.385	13.88
333.752	13.79
334.119	13.86
334.486	13.99
334.853	13.9
335.22	13.76
335.587	13.8
335.954	13.85
336.32	13.76
336.687	13.73
337.054	13.78
337.42	13.76
337.787	13.87
338.153	13.89
338.52	13.91
338.886	13.94
339.253	14.1
339.619	14.11
339.986	14.16
340.352	14.1
340.718	14.21
341.084	14.14
341.451	14.32
341.817	14.39
342.183	14.34
342.549	14.38
342.915	14.47
343.281	14.54
343.647	14.58
344.013	14.7
344.379	14.65
344.745	14.64
345.11	14.72
345.476	14.77
345.842	14.77
346.208	14.93
346.573	14.94
346.939	15.03
347.304	15.09
347.67	15.05
348.035	15.05
348.401	14.98
348.766	14.98
349.132	14.99
349.497	15.08
349.862	15.2
350.228	15.3
350.593	15.26
350.958	15.23
351.323	15.24
351.688	15.26
352.053	15.35
352.418	15.44
352.783	15.44
353.148	15.31
353.513	15.36
353.878	15.22
354.243	15.31
354.608	15.22
354.972	15.12
355.337	15.11
355.702	15.21
356.066	15.25
356.431	15.24
356.795	15.27
357.16	15.18
357.524	15.18
357.889	15.08
358.253	15.14
358.618	15.11
358.982	15.04
359.346	14.88
359.71	14.83
360.075	14.72
360.439	14.61
360.803	14.58
361.167	14.49
361.531	14.5
361.895	14.46
362.259	14.39
362.623	14.42
362.987	14.41
363.351	14.35
363.714	14.3
364.078	14.2
364.442	14.05
364.806	13.95
365.169	13.75
365.533	13.72
365.896	13.58
366.26	13.5
366.623	13.39
366.987	13.36
367.35	13.3
367.714	13.25
368.077	13.2
368.44	13.15
368.803	13.12
369.167	12.95
369.53	12.8
369.893	12.78
370.256	12.7
370.619	12.59
370.982	12.43
371.345	12.35
371.708	12.37
372.071	12.27
372.434	12.18
372.797	12.16
373.159	12.02
373.522	11.99
373.885	11.91
374.247	11.83
374.61	11.81
374.973	11.6
375.335	11.53
375.698	11.43
376.06	11.33
376.423	11.23
376.785	11.19
377.147	11.15
377.51	11.03
377.872	10.95
378.234	10.83
378.596	10.77
378.958	10.65
379.321	10.46
379.683	10.36
380.045	10.29
380.407	10.21
380.769	10.1
381.13	10
381.492	9.91
381.854	9.85
382.216	9.74
382.578	9.74
382.939	9.63
383.301	9.57
383.663	9.47
384.024	9.36
384.386	9.26
384.747	9.18
385.109	9.06
385.47	8.95
385.832	8.9
386.193	8.85
386.554	8.73
386.916	8.74
387.277	8.71
387.638	8.62
387.999	8.59
388.36	8.51
388.721	8.42
389.082	8.35
389.443	8.25
389.804	8.17
390.165	8.08
390.526	8
390.887	7.93
391.248	7.93
391.609	7.88
391.969	7.81
392.33	7.72
392.691	7.69
393.051	7.63
393.412	7.54
393.772	7.43
394.133	7.4
394.493	7.28
394.854	7.2
395.214	7.12
395.574	7.03
395.935	6.99
396.295	6.96
396.655	6.87
397.015	6.81
397.376	6.75
397.736	6.67
398.096	6.62
398.456	6.58
398.816	6.46
399.176	6.37
399.535	6.3
399.895	6.28
400.255	6.21
400.615	6.14
400.975	6.12
401.334	6.07
401.694	6.04
402.054	6
402.413	5.96
402.773	5.9
403.132	5.85
403.492	5.79
403.851	5.73
404.211	5.73
404.57	5.71
404.929	5.69
405.288	5.68
405.648	5.63
406.007	5.56
406.366	5.56
406.725	5.55
407.084	5.58
407.443	5.52
407.802	5.52
408.161	5.49
408.52	5.46
408.879	5.45
409.238	5.42
409.596	5.42
409.955	5.42
410.314	5.45
410.673	5.44
411.031	5.44
411.39	5.43
411.748	5.4
412.107	5.37
412.465	5.33
412.824	5.31
413.182	5.28
413.54	5.25
413.899	5.21
414.257	5.19
414.615	5.14
414.974	5.14
415.332	5.08
415.69	5.05
416.048	5
416.406	4.97
416.764	4.93
417.122	4.93
417.48	4.88
417.838	4.84
418.195	4.79
418.553	4.77
418.911	4.74
419.269	4.7
419.626	4.68
419.984	4.65
420.342	4.62
420.699	4.61
421.057	4.6
421.414	4.57
421.772	4.55
422.129	4.51
422.486	4.49
422.844	4.48
423.201	4.46
423.558	4.45
423.915	4.44
424.273	4.42
424.63	4.38
424.987	4.36
425.344	4.34
425.701	4.35
426.058	4.32
426.415	4.32
426.772	4.31
427.128	4.3
427.485	4.31
427.842	4.29
428.199	4.27
428.555	4.26
428.912	4.24
429.269	4.24
429.625	4.23
429.982	4.2
430.338	4.18
430.695	4.18
431.051	4.18
431.407	4.17
431.764	4.17
432.12	4.15
432.476	4.15
432.832	4.14
433.189	4.14
433.545	4.14
433.901	4.13
434.257	4.12
434.613	4.11
434.969	4.1
435.325	4.12
435.681	4.12
436.036	4.12
436.392	4.14
436.748	4.13
437.104	4.12
437.459	4.12
437.815	4.13
438.171	4.13
438.526	4.11
438.882	4.11
439.237	4.12
439.593	4.14
439.948	4.12
440.304	4.12
440.659	4.12
441.014	4.11
441.369	4.1
441.725	4.09
442.08	4.1
442.435	4.09
442.79	4.07
443.145	4.07
443.5	4.05
443.855	4.03
444.21	4.02
444.565	4.04
444.92	4.06
445.275	4.05
445.629	4.04
445.984	4.04
446.339	4.02
446.693	4.01
447.048	3.99
447.403	3.99
447.757	3.97
448.112	3.94
448.466	3.93
448.82	3.93
449.175	3.94
449.529	3.92
449.883	3.9
450.238	3.89
450.592	3.89
450.946	3.88
451.3	3.88
451.654	3.87
452.008	3.85
452.362	3.82
452.716	3.81
453.07	3.8
453.424	3.79
453.778	3.78
454.132	3.77
454.486	3.77
454.839	3.75
455.193	3.74
455.547	3.74
455.9	3.75
456.254	3.77
456.607	3.73
456.961	3.73
457.314	3.74
457.668	3.76
458.021	3.75
458.375	3.76
458.728	3.75
459.081	3.77
459.434	3.77
459.787	3.79
460.141	3.79
460.494	3.8
460.847	3.81
461.2	3.81
461.553	3.82
461.906	3.83
462.259	3.85
462.611	3.89
462.964	3.92
463.317	3.92
463.67	3.93
464.022	3.94
464.375	3.95
464.728	3.97
465.08	3.97
465.433	3.97
465.785	3.97
466.138	4
466.49	4
466.843	4
467.195	4.01
467.547	4.04
467.899	4.06
468.252	4.08
468.604	4.09
468.956	4.09
469.308	4.11
469.66	4.12
470.012	4.1
470.364	4.12
470.716	4.13
471.068	4.13
471.42	4.16
471.772	4.21
472.123	4.21
472.475	4.23
472.827	4.27
473.178	4.3
473.53	4.29
473.882	4.31
474.233	4.34
474.585	4.32
474.936	4.32
475.288	4.31
475.639	4.3
475.99	4.33
476.342	4.35
476.693	4.35
477.044	4.37
477.395	4.38
477.746	4.36
478.097	4.37
478.448	4.37
478.8	4.35
479.15	4.3
479.501	4.29
479.852	4.28
480.203	4.25
480.554	4.24
480.905	4.24
481.255	4.22
481.606	4.21
481.957	4.2
482.307	4.2
482.658	4.19
483.009	4.19
483.359	4.19
483.709	4.19
484.06	4.18
484.41	4.18
484.761	4.17
485.111	4.17
485.461	4.16
485.811	4.15
486.162	4.14
486.512	4.16
486.862	4.15
487.212	4.15
487.562	4.15
487.912	4.15
488.262	4.14
488.612	4.14
488.961	4.14
489.311	4.15
489.661	4.15
490.011	4.15
490.36	4.15
490.71	4.15
491.06	4.15
491.409	4.16
491.759	4.15
492.108	4.16
492.458	4.17
492.807	4.18
493.157	4.2
493.506	4.23
493.855	4.23
494.204	4.23
494.554	4.26
494.903	4.27
495.252	4.29
495.601	4.33
495.95	4.37
496.299	4.42
496.648	4.43
496.997	4.46
497.346	4.51
497.695	4.54
498.043	4.56
498.392	4.6
498.741	4.64
499.09	4.68
499.438	4.73
499.787	4.8
500.135	4.88
500.484	4.93
500.832	4.99
501.181	5.06
501.529	5.14
501.878	5.23
502.226	5.34
502.574	5.43
502.923	5.51
503.271	5.57
503.619	5.64
503.967	5.73
504.315	5.82
504.663	5.93
505.011	6.08
505.359	6.19
505.707	6.32
506.055	6.44
506.403	6.55
506.751	6.67
507.098	6.75
507.446	6.88
507.794	6.99
508.141	7.12
508.489	7.27
508.837	7.4
509.184	7.51
509.531	7.64
509.879	7.78
510.226	7.93
510.574	8.1
510.921	8.25
511.268	8.39
511.616	8.56
511.963	8.71
512.31	8.86
512.657	9.04
513.004	9.23
513.351	9.41
513.698	9.64
514.045	9.83
514.392	10.02
514.739	10.23
515.086	10.44
515.432	10.64
515.779	10.84
516.126	11.03
516.473	11.24
516.819	11.42
517.166	11.59
517.512	11.74
517.859	11.9
518.205	12.08
518.552	12.27
518.898	12.43
519.245	12.6
519.591	12.76
519.937	12.94
520.283	13.12
520.629	13.32
520.976	13.49
521.322	13.7
521.668	13.94
522.014	14.15
522.36	14.37
522.706	14.61
523.052	14.88
523.398	15.16
523.743	15.41
524.089	15.7
524.435	15.96
524.781	16.24
525.126	16.48
525.472	16.71
525.817	16.91
526.163	17.11
526.509	17.29
526.854	17.49
527.199	17.64
527.545	17.78
527.89	17.93
528.235	18.08
528.581	18.25
528.926	18.4
529.271	18.55
529.616	18.71
529.961	18.87
530.306	19.03
530.651	19.19
530.996	19.39
531.341	19.56
531.686	19.75
532.031	19.94
532.376	20.13
532.721	20.36
533.065	20.57
533.41	20.8
533.755	20.99
534.099	21.21
534.444	21.46
534.788	21.71
535.133	21.94
535.477	22.2
535.822	22.44
536.166	22.73
536.51	23.05
536.855	23.37
537.199	23.68
537.543	24
537.887	24.33
538.231	24.65
538.576	24.98
538.92	25.29
539.264	25.59
539.608	25.88
539.951	26.15
540.295	26.38
540.639	26.64
540.983	26.92
541.327	27.15
541.671	27.37
542.014	27.61
542.358	27.84
542.701	28.04
543.045	28.28
543.389	28.49
543.732	28.71
544.075	28.94
544.419	29.17
544.762	29.41
545.105	29.66
545.449	29.93
545.792	30.2
546.135	30.49
546.478	30.81
546.821	31.14
547.165	31.45
547.508	31.81
547.851	32.14
548.194	32.45
548.536	32.78
548.879	33.11
549.222	33.42
549.565	33.74
549.908	34.12
550.25	34.43
550.593	34.8
550.936	35.13
551.278	35.46
551.621	35.81
551.963	36.19
552.306	36.56
552.648	36.85
552.991	37.2
553.333	37.49
553.675	37.81
554.017	38.1
554.36	38.38
554.702	38.71
555.044	38.96
555.386	39.32
555.728	39.59
556.07	39.94
556.412	40.26
556.754	40.6
557.096	40.9
557.438	41.2
557.78	41.55
558.121	41.86
558.463	42.23
558.805	42.55
559.147	42.83
559.488	43.11
559.83	43.42
560.171	43.72
560.513	44.1
560.854	44.37
561.196	44.71
561.537	45
561.878	45.28
562.22	45.61
562.561	45.81
562.902	46.09
563.243	46.29
563.584	46.54
563.925	46.75
564.266	47
564.607	47.23
564.948	47.38
565.289	47.63
565.63	47.84
565.971	48.07
566.312	48.25
566.653	48.46
566.993	48.7
567.334	48.94
567.675	49.15
568.015	49.34
568.356	49.46
568.696	49.68
569.037	49.87
569.377	50.06
569.718	50.3
570.058	50.47
570.398	50.71
570.739	50.97
571.079	51.21
571.419	51.42
571.759	51.62
572.099	51.87
572.439	52
572.779	52.13
573.119	52.29
573.459	52.44
573.799	52.57
574.139	52.65
574.479	52.78
574.819	52.89
575.158	53.05
575.498	53.24
575.838	53.37
576.177	53.53
576.517	53.69
576.856	53.8
577.196	53.98
577.535	54.08
577.875	54.15
578.214	54.27
578.553	54.34
578.893	54.5
579.232	54.62
579.571	54.83
579.91	55.01
580.25	55.19
580.589	55.38
580.928	55.56
581.267	55.83
581.606	56.01
581.945	56.14
582.283	56.23
582.622	56.31
582.961	56.47
583.3	56.62
583.639	56.75
583.977	56.87
584.316	57.01
584.654	57.23
584.993	57.41
585.332	57.58
585.67	57.75
586.008	57.86
586.347	57.9
586.685	58
587.024	58.11
587.362	58.23
587.7	58.33
588.038	58.43
588.376	58.49
588.715	58.6
589.053	58.7
589.391	58.79
589.729	58.97
590.067	59.06
590.404	59.18
590.742	59.3
591.08	59.33
591.418	59.38
591.756	59.42
592.093	59.52
592.431	59.49
592.769	59.5
593.106	59.49
593.444	59.61
593.781	59.69
594.119	59.68
594.456	59.7
594.793	59.78
595.131	59.86
595.468	59.99
595.805	59.98
596.143	60.04
596.48	60.16
596.817	60.12
597.154	60.21
597.491	60.21
597.828	60.3
598.165	60.37
598.502	60.46
598.839	60.54
599.176	60.49
599.512	60.67
599.849	60.8
600.186	60.96
600.523	61.02
600.859	61.13
601.196	61.27
601.532	61.38
601.869	61.46
602.205	61.47
602.542	61.48
602.878	61.55
603.215	61.64
603.551	61.69
603.887	61.78
604.223	61.84
604.56	61.89
604.896	61.91
605.232	62.02
605.568	61.97
605.904	62.03
606.24	62.19
606.576	62.17
606.912	62.23
607.248	62.23
607.583	62.24
607.919	62.31
608.255	62.32
608.591	62.35
608.926	62.36
609.262	62.49
609.597	62.55
609.933	62.59
610.268	62.63
610.604	62.68
610.939	62.75
611.275	62.8
611.61	62.83
611.945	62.9
612.281	62.96
612.616	63.16
612.951	63.15
613.286	63.13
613.621	63.2
613.956	63.24
614.291	63.4
614.626	63.42
614.961	63.4
615.296	63.45
615.631	63.42
615.966	63.51
616.3	63.57
616.635	63.6
616.97	63.58
617.304	63.59
617.639	63.66
617.973	63.68
618.308	63.69
618.642	63.72
618.977	63.64
619.311	63.73
619.646	63.77
619.98	63.75
620.314	63.75
620.648	63.82
620.983	63.84
621.317	63.8
621.651	63.92
621.985	63.87
622.319	63.95
622.653	64.06
622.987	63.98
623.321	63.87
623.655	63.84
623.988	63.87
624.322	63.85
624.656	63.8
624.99	63.81
625.323	63.8
625.657	63.82
625.99	63.95
626.324	63.97
626.657	63.94
626.991	64.05
627.324	64.04
627.658	64.16
627.991	64.23
628.324	64.31
628.657	64.37
628.991	64.4
629.324	64.42
629.657	64.44
629.99	64.54
630.323	64.66
630.656	64.69
630.989	64.82
631.322	64.88
631.655	64.86
631.987	64.85
632.32	64.85
632.653	64.92
632.986	64.84
633.318	64.81
633.651	64.89
633.984	64.88
634.316	64.99
634.649	64.8
634.981	64.81
635.313	64.83
635.646	64.87
635.978	65.09
636.31	65.03
636.643	64.98
636.975	64.97
637.307	65.02
637.639	65.12
637.971	64.97
638.303	64.9
638.635	65
638.967	65.05
639.299	65.15
639.631	65.14
639.963	65.19
640.295	65.21
640.626	65.1
640.958	65.12
641.29	65.07
641.621	65.17
641.953	65.22
642.285	65.07
642.616	65.04
642.948	64.94
643.279	65
643.61	65.06
643.942	65.17
644.273	65.08
644.604	65.1
644.936	65.37
645.267	65.53
645.598	65.6
645.929	65.65
646.26	65.66
646.591	65.66
646.922	65.67
647.253	65.7
647.584	65.83
647.915	65.96
648.245	65.92
648.576	65.91
648.907	65.9
649.238	65.98
649.568	65.97
649.899	65.94
650.229	66.04
650.56	66.2
650.89	66.15
651.221	66.17
651.551	66.1
651.882	66
652.212	66.03
652.542	66
652.872	66.09
653.203	66.06
653.533	66.08
653.863	66.23
654.193	66.33
654.523	66.31
654.853	66.24
655.183	66.3
655.513	66.24
655.843	66.16
656.172	66.23
656.502	66.19
656.832	66.23
657.162	66.25
657.491	66.2
657.821	66.27
658.15	66.33
658.48	66.36
658.809	66.17
659.139	66.06
659.468	65.97
659.798	65.94
660.127	65.97
660.456	66
660.785	65.93
661.115	65.82
661.444	65.9
661.773	65.9
662.102	65.89
662.431	65.92
662.76	66.01
663.089	66.04
663.418	66.01
663.747	65.9
664.076	65.83
664.404	65.79
664.733	65.7
665.062	65.7
665.39	65.78
665.719	65.83
666.048	65.92
666.376	66.04
666.705	65.99
667.033	65.98
667.362	65.98
667.69	65.75
668.018	65.67
668.347	65.51
668.675	65.48
669.003	65.46
669.331	65.52
669.659	65.46
669.987	65.44
670.315	65.48
670.643	65.57
670.971	65.65
671.299	65.65
671.627	65.72
671.955	65.78
672.283	65.77
672.61	65.92
672.938	65.87
673.266	65.7
673.593	65.8
673.921	65.69
674.249	65.7
674.576	65.91
674.904	66.04
675.231	66.1
675.558	66.28
675.886	66.35
676.213	66.49
676.54	66.46
676.867	66.39
677.195	66.5
677.522	66.49
677.849	66.41
678.176	66.47
678.503	66.33
678.83	66.29
679.157	66.18
679.484	66.28
679.81	66.38
680.137	66.54
680.464	66.47
680.791	66.54
681.117	66.58
681.444	66.42
681.771	66.44
682.097	66.52
682.424	66.39
682.75	66.31
683.077	66.19
683.403	66.19
683.729	66.17
684.056	66.07
684.382	66.01
684.708	65.99
685.034	66
685.36	66.09
685.686	66.05
686.012	66.16
686.339	66.04
686.664	66
686.99	65.94
687.316	65.95
687.642	65.93
687.968	65.79
688.294	65.82
688.619	65.72
688.945	65.68
689.271	65.76
689.596	65.75
689.922	65.75
690.247	65.76
690.573	65.74
690.898	65.82
691.224	65.91
691.549	65.93
691.874	65.83
692.2	66
692.525	65.86
692.85	65.79
693.175	65.89
693.5	65.89
693.825	65.98
694.15	65.95
694.475	65.99
694.8	66.17
695.125	66.26
695.45	66.45
695.775	66.6
696.099	66.51
696.424	66.53
696.749	66.49
697.073	66.57
697.398	66.65
697.723	66.58
698.047	66.68
698.372	66.65
698.696	66.72
699.02	66.61
699.345	66.72
699.669	66.87
699.993	66.99
700.318	67.07
700.642	67.05
700.966	67.05
701.29	66.98
701.614	66.92
701.938	66.88
702.262	66.8
702.586	66.56
702.91	66.64
703.234	66.73
703.557	66.89
703.881	66.93
704.205	66.98
704.529	66.95
704.852	66.64
705.176	66.57
705.499	66.3
705.823	66.3
706.146	66.33
706.47	66.07
706.793	65.8
707.117	65.83
707.44	65.75
707.763	65.66
708.086	65.75
708.409	65.85
708.733	66.02
709.056	66.04
709.379	66.16
709.702	66.05
710.025	66.03
710.348	66.01
710.671	65.93
710.993	66
711.316	66.11
711.639	66.23
711.962	66.28
712.284	66.47
712.607	66.73
712.93	66.71
713.252	66.97
713.575	67.09
713.897	67.08
714.22	67.19
714.542	67.46
714.864	67.42
715.187	67.32
715.509	67.16
715.831	66.9
716.153	66.91
716.475	66.98
716.798	67.11
717.12	66.93
717.442	67.08
717.764	67.02
718.085	67.19
718.407	67.21
718.729	67.36
719.051	67.36
719.373	67.07
719.695	67.09
720.016	66.69
720.338	66.7
720.659	66.73
720.981	66.67
721.302	66.61
721.624	66.78
721.945	66.83
722.267	67.23
722.588	67.49
722.909	67.58
723.231	67.51
723.552	67.37
723.873	67.64
724.194	67.24
724.515	67.27
724.836	66.93
725.157	67.26
725.478	67.09
725.799	66.95
726.12	67.03
726.441	67.13
726.762	67.54
727.083	67.37
727.403	67.15
727.724	67.11
728.045	66.92
728.365	66.64
728.686	66.74
729.006	66.28
729.327	66.35
729.647	66.37
729.967	66.51
730.288	66.53
730.608	66.43
730.928	66.83
731.249	66.83
731.569	66.99
731.889	66.67
732.209	66.69
732.529	66.87
732.849	66.8
733.169	66.84
733.489	66.58
733.809	66.61
734.129	66.56
734.448	66.81
734.768	67.06
735.088	67.47
735.408	67.28
735.727	67.6
736.047	67.53
736.366	67.34
736.686	67.05
737.005	66.83
737.325	66.93
737.644	66.59
737.963	66.58
738.283	66.68
738.602	66.75
738.921	66.76
739.24	66.69
739.56	66.68
739.879	66.59
740.198	66.67
740.517	66.69
740.836	66.86
741.155	66.6
741.473	66.37
741.792	65.89
742.111	66.03
742.43	66.07
742.748	65.89
743.067	66.25
743.386	66.69
743.704	66.95
744.023	66.87
744.341	67.12
744.66	66.8
744.978	66.69
745.297	66.75
745.615	66.96
745.933	66.96
746.252	67.13
746.57	67.09
746.888	67.15
747.206	67.18
747.524	67.36
747.842	67.55
748.16	67.7
748.478	68.18
748.796	68.37
749.114	68.41
749.432	68.55
749.749	68.24
750.067	67.89
750.385	68.01
750.703	68.12
751.02	68.2
751.338	68.71
751.655	68.65
751.973	68.7
752.29	68.6
752.608	68.64
752.925	68.38
753.242	68.13
753.56	68.07
753.877	68.1
754.194	68.23
754.511	68.18
754.828	67.7
755.145	67.57
755.462	67.24
755.779	67.2
756.096	67.31
756.413	67.34
756.73	67.29
757.047	67.43
757.364	67.08
757.68	66.75
757.997	66.78
758.314	67.02
758.63	66.92
758.947	66.86
759.264	67.05
759.58	67.32
759.896	67.46
760.213	67.47
760.529	67.61
760.846	67.3
761.162	67.27
761.478	67.56
761.794	67.69
762.11	67.78
762.426	67.58
762.743	67.52
763.059	67.5
763.375	67.72
763.69	67.4
764.006	67.42
764.322	67.27
764.638	67.39
764.954	67.26
765.27	67.2
765.585	67.25
765.901	67.12
766.216	66.96
766.532	67.33
766.848	67.49
767.163	67.46
767.478	67.27
767.794	67.29
768.109	67.44
768.424	67.23
768.74	67.36
769.055	67.51
769.37	67.66
769.685	67.71
770	68.13
770.315	68.53
770.63	68.59
770.945	68.98
771.26	68.43
771.575	68.05
771.89	68.62
772.205	68.57
772.52	68.5
772.834	68.53
773.149	67.99
773.464	67.86
773.778	67.49
774.093	67.59
774.407	67.71
774.722	67.8
775.036	67.69
775.351	67.25
775.665	67.92
775.979	68.02
776.293	68.12
776.608	67.43
776.922	67.42
777.236	67.63
777.55	67.39
777.864	67.85
778.178	68.58
778.492	68.45
778.806	68.56
779.12	68.52
779.434	68.38
779.747	68.75
780.061	68.9
780.375	69.26
780.689	69.42
781.002	69.33
781.316	69.41
781.629	69.66
781.943	70.05
782.256	69.46
782.57	69.22
782.883	69.02
783.196	69.07
783.51	68.88
783.823	68.71
784.136	68.84
784.449	68.51
784.762	68.19
785.075	68.1
785.388	67.39
785.701	67.52
786.014	67.85
786.327	67.58
786.64	67.55
786.953	68.05
787.266	67.66
787.578	68.14
787.891	67.94
788.204	68.2
788.516	68.09
788.829	67.94
789.141	67.91
789.454	68.43
789.766	68.63
790.079	68.16
790.391	68.22
790.703	68.17
791.016	68.68
791.328	69.35
791.64	69.11
791.952	69.36
792.264	69.34
792.576	68.79
792.888	68.82
793.2	68.66
793.512	68.07
793.824	68.59
794.136	67.86
794.448	68.23
794.76	68.01
795.071	68.06
795.383	68.25
795.695	67.59
796.006	66.76
796.318	66.75
796.629	67.84
796.941	68.26
797.252	68.09
797.564	68.11
797.875	67.54
798.186	67.28
798.497	67.56
798.809	68.01
799.12	68.65
799.431	68.21
799.742	68.62
800.053	69.25
800.364	69.35
800.675	69.95
800.986	69.16
801.297	69.06
801.608	68.86
801.918	68.91
802.229	69.86
802.54	70.33
802.851	70.14
803.161	69.85
803.472	69.21
803.782	69.12
804.093	68.32
804.403	68.28
804.714	68.61
805.024	68.4
805.334	67.48
805.645	67.17
805.955	67.48
806.265	67.11
806.575	66.11
806.885	66.19
807.195	66.12
807.505	66.35
807.815	66.27
808.125	66.68
808.435	65.92
808.745	65.98
809.055	65.98
809.365	65.64
809.674	65.29
809.984	66.24
810.294	67.24
810.603	67.52
810.913	67.85
811.222	68.09
811.532	68.37
811.841	68.51
812.151	69.01
812.46	69.11
812.769	69.07
813.079	69.28
813.388	69.39
813.697	69.1
814.006	68.96
814.315	68.81
814.624	68.79
814.933	69.93
815.242	69.63
815.551	69.68
815.86	70.2
816.169	69.44
816.478	69.28
816.786	68.71
817.095	68.8
817.404	68.28
817.712	67.89
818.021	68.42
818.33	68.05
818.638	67.64
818.947	67.64
819.255	68.12
819.563	68.27
819.872	67.98
820.18	67.84
820.488	67.65
820.796	68
821.105	67.74
821.413	67.36
821.721	67.37
822.029	67.12
822.337	67.24
822.645	67.56
822.953	67.63
823.26	67.6
823.568	67.47
823.876	67.32
824.184	67.39
824.491	67.48
824.799	67.54
825.107	67.7
825.414	67.78
825.722	67.69
826.029	67.66
826.337	67.48
826.644	67.74
826.951	67.88
827.259	67.88
827.566	67.95
827.873	68.02
828.18	68.04
828.488	68.53
828.795	68.61
829.102	68.33
829.409	67.98
829.716	67.9
830.023	68.13
830.329	68.69
830.636	68.61
830.943	68.32
831.25	68.54
831.557	68.27
831.863	68.34
832.17	68.52
832.476	68.56
832.783	68.9
833.089	68.93
833.396	69.16
833.702	68.98
834.009	68.92
834.315	68.77
834.621	68.87
834.928	68.68
835.234	68.87
835.54	69.23
835.846	69.5
836.152	69.35
836.458	69.21
836.764	68.69
837.07	68.51
837.376	68.43
837.682	68.27
837.988	68.4
838.293	68.59
838.599	68.43
838.905	67.62
839.211	67.84
839.516	67.01
839.822	66.93
840.127	67.19
840.433	66.33
840.738	66.89
841.044	67.42
841.349	68.1
841.654	67.2
841.959	66.71
842.265	66.22
842.57	66.41
842.875	66.62
843.18	66.86
843.485	68.09
843.79	67.71
844.095	69.76
844.4	69.25
844.705	68.87
845.01	68.21
845.315	70.16
845.619	70.04
845.924	70.44
846.229	71.92
846.533	71.74
846.838	73.04
847.142	73.38
847.447	71.26
847.751	69.39
848.056	69.88
848.36	71.09
848.664	70.96
848.969	73.52
849.273	73.75
849.577	75.05
849.881	73.6
850.185	73.57
850.489	70.28
850.794	70.78
851.097	68.99
851.401	68.49
851.705	68.14
852.009	69.21
852.313	68.76
852.617	67.93
852.92	65.72
853.224	67.77
853.528	68.53
853.831	70.47
854.135	70.17
854.438	69
854.742	68.46
855.045	69.65
855.349	67.32
855.652	69.08
855.955	67.05
856.259	65.52
856.562	65.18
856.865	68.32
857.168	67.51
857.471	70.92
857.774	69.57
858.077	70.13
858.38	70.35
858.683	72.77
858.986	71.29
859.289	73.69
859.592	72.08
859.894	72.23
860.197	73.3
860.5	75.66
860.802	77.67
861.105	79.23
861.407	77.23
861.71	79.2
862.012	77.65
862.315	80.47
862.617	82.86
862.919	86.48
863.222	84.78
863.524	84.75
863.826	82.81
864.128	86.73
864.43	85.76
864.732	84.15
865.034	82.13
865.336	81.31
865.638	83.55
865.94	84.12
866.242	80.59
866.544	76.44
866.846	74.91
867.147	74.69
867.449	71.66
867.751	72.54
868.052	72.02
868.354	70.39
868.655	69.42
868.957	69.08
869.258	68.4
869.56	66.67
869.861	66.18
870.162	65.03
870.463	63.99
870.765	65.27
871.066	65.78
871.367	68.06
871.668	70.3
871.969	66.71
872.27	65.17
872.571	67.37
872.872	71.08
873.173	71.37
873.473	71.23
873.774	72.79
874.075	74.13
874.376	73.28
874.676	73.9
874.977	74.57
875.277	76.71
875.578	75.44
875.878	76.74
876.179	77.82
876.479	80.01
876.78	79.76
877.08	79.62
877.38	78.9
877.68	75.62
877.981	75.22
878.281	76.61
878.581	79.17
