Data from BU58141_Reflection_00013.txt Node
Date: Mon Nov 18 16:47:01 EST 2019
User: vgr7
Spectrometer: USB2G7710
Scans to average: 3
Trigger mode: 4
Integration Time (sec): 2.000000E-2
Electric dark correction enabled: true
Boxcar width: 10
XAxis mode: Wavelengths
Number of Pixels in Spectrum: 2048
>>>>>Begin Spectral Data<<<<<
177.721	70.66
178.105	62.7
178.488	86.19
178.871	113.66
179.254	175.13
179.636	-3275
180.019	551.51
180.402	166.67
180.785	11.64
181.168	-429.41
181.55	86.18
181.933	43.5
182.316	111.04
182.698	9.2
183.081	5.54
183.463	-0.29
183.846	32.67
184.228	37.34
184.611	55.75
184.993	32.87
185.376	19.41
185.758	4.13
186.14	9.96
186.522	40.8
186.904	139.88
187.287	329.86
187.669	-346.37
188.051	-603.97
188.433	-182.4
188.815	-208.25
189.197	679.4
189.579	-6740
189.961	-1076.8
190.342	-1218.47
190.724	-222.73
191.106	-158.38
191.488	-133.05
191.869	-82.86
192.251	-95.24
192.633	-74.65
193.014	-118.11
193.396	-155.34
193.777	-212.53
194.159	-287.78
194.54	-189.9
194.922	-180.6
195.303	-128.04
195.684	-116.57
196.065	-72.97
196.447	-64.99
196.828	-62.05
197.209	-46.59
197.59	-57.11
197.971	-53.95
198.352	-49.25
198.733	-58.98
199.114	-55.72
199.495	-49.45
199.876	-51.54
200.257	-47.97
200.638	-48.57
201.018	-38.22
201.399	-28.33
201.78	-12.99
202.16	-20.11
202.541	-31.71
202.922	-47.79
203.302	-50.12
203.683	-61.65
204.063	-83.19
204.444	-87.56
204.824	-75.19
205.204	-79.73
205.585	-98.59
205.965	-92.11
206.345	-109.61
206.725	-112.6
207.106	-159.52
207.486	-180.41
207.866	-181.77
208.246	-175.71
208.626	-185.12
209.006	-152.58
209.386	-208.35
209.766	-259.18
210.145	-179.69
210.525	-141.83
210.905	-106.98
211.285	-114.84
211.664	-95.2
212.044	-84.32
212.424	-73.15
212.803	-81.98
213.183	-69.46
213.562	-31.29
213.942	-29.41
214.321	2.54
214.701	13.33
215.08	16.59
215.459	11.84
215.838	5.55
216.218	22.44
216.597	26.95
216.976	26.75
217.355	28.93
217.734	18.15
218.113	22.66
218.492	26.66
218.871	11.38
219.25	7.6
219.629	2.67
220.008	-13.64
220.387	-14.36
220.766	-11.67
221.144	-23.81
221.523	-38.86
221.902	-43.55
222.28	-58.85
222.659	-45.09
223.037	-41.51
223.416	-52.86
223.794	-50.46
224.173	-56.19
224.551	-54.69
224.929	-41.63
225.308	-34.54
225.686	-21.52
226.064	-13.98
226.442	-15.23
226.821	-11.4
227.199	-7.87
227.577	-10.38
227.955	-3.21
228.333	-4.23
228.711	0.31
229.089	5.79
229.467	6.28
229.845	8.62
230.222	7.78
230.6	2.91
230.978	4.92
231.356	7.4
231.733	8.34
232.111	11.2
232.488	11.13
232.866	10.58
233.243	12.25
233.621	9.79
233.998	7.27
234.376	5.61
234.753	5.48
235.13	5.1
235.508	6.37
235.885	6.86
236.262	5.29
236.639	4.27
237.016	2.62
237.393	3.51
237.77	4.03
238.147	4.1
238.524	4.55
238.901	4.05
239.278	4.14
239.655	4.37
240.032	3.89
240.409	3.94
240.785	3.56
241.162	3.46
241.539	3.75
241.915	4.03
242.292	4.44
242.668	4.7
243.045	5.14
243.421	5.06
243.798	5.2
244.174	5.24
244.551	5
244.927	5.09
245.303	5
245.679	4.9
246.056	4.96
246.432	5.27
246.808	5.28
247.184	5.03
247.56	4.89
247.936	4.88
248.312	4.88
248.688	4.96
249.064	4.78
249.44	4.79
249.815	4.74
250.191	4.74
250.567	4.58
250.943	4.31
251.318	4.34
251.694	3.94
252.069	4.14
252.445	4.25
252.82	3.83
253.196	3.77
253.571	3.88
253.947	3.86
254.322	3.85
254.697	3.77
255.073	3.96
255.448	3.84
255.823	4
256.198	4.22
256.573	4.16
256.948	4.21
257.323	4.31
257.698	4.29
258.073	4.19
258.448	4.21
258.823	4.26
259.198	3.95
259.573	4.04
259.948	4
260.322	4.03
260.697	4.11
261.072	4.05
261.446	3.89
261.821	3.92
262.195	3.86
262.57	3.88
262.944	3.8
263.319	3.71
263.693	3.65
264.067	3.55
264.442	3.63
264.816	3.64
265.19	3.49
265.564	3.49
265.938	3.37
266.313	3.39
266.687	3.38
267.061	3.68
267.435	3.81
267.809	3.9
268.183	3.84
268.556	3.96
268.93	4.06
269.304	4.23
269.678	4.26
270.051	4.24
270.425	4.16
270.799	4.23
271.172	4.26
271.546	4.13
271.919	4.19
272.293	3.97
272.666	3.89
273.04	4.02
273.413	3.98
273.787	4.08
274.16	4.06
274.533	3.95
274.906	3.71
275.279	3.65
275.653	3.62
276.026	3.6
276.399	3.6
276.772	3.61
277.145	3.37
277.518	3.26
277.891	3.09
278.263	3.14
278.636	3.1
279.009	3.1
279.382	3.22
279.755	3.29
280.127	3.55
280.5	3.64
280.872	3.65
281.245	3.52
281.617	3.63
281.99	3.64
282.362	3.7
282.735	3.71
283.107	3.56
283.479	3.67
283.852	3.68
284.224	3.63
284.596	3.64
284.968	3.85
285.34	3.96
285.713	3.99
286.085	4.02
286.457	4.1
286.829	4.15
287.201	4.17
287.572	3.98
287.944	3.92
288.316	4.07
288.688	4.05
289.06	4.18
289.431	4.18
289.803	4.32
290.175	4.42
290.546	4.58
290.918	4.82
291.289	4.82
291.661	4.99
292.032	5.17
292.403	5.21
292.775	5.31
293.146	5.23
293.517	5.42
293.889	5.54
294.26	5.63
294.631	5.75
295.002	5.77
295.373	6
295.744	6.09
296.115	5.97
296.486	5.86
296.857	5.93
297.228	6.02
297.599	6.02
297.97	6.07
298.34	6.14
298.711	6.16
299.082	6.15
299.452	6.15
299.823	6.2
300.194	6.12
300.564	6.09
300.935	6.23
301.305	6.23
301.676	6.27
302.046	6.33
302.416	6.46
302.787	6.52
303.157	6.5
303.527	6.62
303.897	6.77
304.267	7.12
304.637	7.28
305.008	7.5
305.378	7.71
305.748	7.81
306.117	7.89
306.487	7.97
306.857	8.3
307.227	8.41
307.597	8.5
307.967	8.85
308.336	8.94
308.706	8.95
309.076	9.19
309.445	9.19
309.815	9.36
310.184	9.38
310.554	9.59
310.923	9.76
311.293	9.72
311.662	9.75
312.031	9.8
312.401	9.82
312.77	9.91
313.139	10
313.508	10.11
313.877	10.3
314.246	10.53
314.616	10.51
314.985	10.67
315.353	10.83
315.722	10.91
316.091	11.12
316.46	11.44
316.829	11.49
317.198	11.59
317.567	11.62
317.935	11.73
318.304	11.84
318.672	11.89
319.041	12.17
319.41	12.3
319.778	12.45
320.147	12.57
320.515	12.57
320.883	12.71
321.252	12.8
321.62	12.82
321.988	12.88
322.357	12.91
322.725	12.95
323.093	12.98
323.461	13
323.829	12.87
324.197	12.79
324.565	12.92
324.933	13.14
325.301	13.29
325.669	13.4
326.037	13.48
326.405	13.51
326.772	13.71
327.14	13.89
327.508	13.97
327.875	14.03
328.243	14.11
328.61	14.14
328.978	14.25
329.346	14.42
329.713	14.49
330.08	14.6
330.448	14.7
330.815	14.74
331.182	14.79
331.55	15.05
331.917	15.09
332.284	15.03
332.651	15.09
333.018	15.16
333.385	15.18
333.752	15.25
334.119	15.31
334.486	15.13
334.853	15.28
335.22	15.19
335.587	15.23
335.954	15.4
336.32	15.39
336.687	15.44
337.054	15.56
337.42	15.68
337.787	15.88
338.153	15.92
338.52	16.04
338.886	16.03
339.253	16.07
339.619	16.13
339.986	16.23
340.352	16.31
340.718	16.35
341.084	16.42
341.451	16.51
341.817	16.72
342.183	16.88
342.549	16.74
342.915	16.93
343.281	17.03
343.647	16.95
344.013	17.03
344.379	17.01
344.745	16.96
345.11	16.93
345.476	16.86
345.842	16.84
346.208	16.9
346.573	17.01
346.939	17.05
347.304	17.05
347.67	17.2
348.035	17.21
348.401	17.17
348.766	17.18
349.132	17.13
349.497	17.02
349.862	17.06
350.228	17.12
350.593	16.97
350.958	16.93
351.323	17.03
351.688	16.96
352.053	17.09
352.418	17.13
352.783	17.16
353.148	17.12
353.513	17.16
353.878	17.18
354.243	17.11
354.608	17.11
354.972	17.14
355.337	17.11
355.702	17.14
356.066	17.24
356.431	17.17
356.795	17.21
357.16	17.18
357.524	17.06
357.889	17.04
358.253	17.22
358.618	17.29
358.982	17.16
359.346	17.08
359.71	16.96
360.075	17.01
360.439	16.88
360.803	16.85
361.167	16.81
361.531	16.67
361.895	16.67
362.259	16.58
362.623	16.57
362.987	16.58
363.351	16.52
363.714	16.43
364.078	16.41
364.442	16.34
364.806	16.32
365.169	16.34
365.533	16.3
365.896	16.06
366.26	15.95
366.623	15.9
366.987	15.88
367.35	15.81
367.714	15.66
368.077	15.66
368.44	15.61
368.803	15.56
369.167	15.55
369.53	15.49
369.893	15.38
370.256	15.29
370.619	15.12
370.982	15
371.345	14.93
371.708	14.9
372.071	14.85
372.434	14.73
372.797	14.6
373.159	14.48
373.522	14.43
373.885	14.35
374.247	14.27
374.61	14.2
374.973	14.04
375.335	13.92
375.698	13.77
376.06	13.63
376.423	13.55
376.785	13.49
377.147	13.41
377.51	13.38
377.872	13.31
378.234	13.21
378.596	13.16
378.958	13.04
379.321	12.9
379.683	12.77
380.045	12.7
380.407	12.56
380.769	12.48
381.13	12.36
381.492	12.26
381.854	12.15
382.216	12.08
382.578	11.99
382.939	11.9
383.301	11.77
383.663	11.7
384.024	11.56
384.386	11.41
384.747	11.32
385.109	11.19
385.47	11.04
385.832	10.94
386.193	10.85
386.554	10.76
386.916	10.69
387.277	10.6
387.638	10.54
387.999	10.44
388.36	10.35
388.721	10.3
389.082	10.24
389.443	10.14
389.804	10.06
390.165	9.98
390.526	9.91
390.887	9.87
391.248	9.77
391.609	9.72
391.969	9.67
392.33	9.6
392.691	9.56
393.051	9.51
393.412	9.48
393.772	9.41
394.133	9.31
394.493	9.24
394.854	9.17
395.214	9.09
395.574	9.05
395.935	8.99
396.295	8.94
396.655	8.82
397.015	8.77
397.376	8.69
397.736	8.66
398.096	8.59
398.456	8.56
398.816	8.49
399.176	8.38
399.535	8.26
399.895	8.14
400.255	8.1
400.615	8.02
400.975	7.87
401.334	7.82
401.694	7.76
402.054	7.65
402.413	7.6
402.773	7.53
403.132	7.49
403.492	7.43
403.851	7.35
404.211	7.31
404.57	7.23
404.929	7.16
405.288	7.11
405.648	7.06
406.007	6.97
406.366	6.94
406.725	6.9
407.084	6.88
407.443	6.88
407.802	6.85
408.161	6.81
408.52	6.78
408.879	6.73
409.238	6.7
409.596	6.71
409.955	6.65
410.314	6.64
410.673	6.59
411.031	6.57
411.39	6.55
411.748	6.51
412.107	6.47
412.465	6.43
412.824	6.41
413.182	6.36
413.54	6.33
413.899	6.32
414.257	6.29
414.615	6.23
414.974	6.16
415.332	6.08
415.69	6.02
416.048	6
416.406	5.96
416.764	5.93
417.122	5.89
417.48	5.87
417.838	5.82
418.195	5.8
418.553	5.77
418.911	5.76
419.269	5.75
419.626	5.73
419.984	5.69
420.342	5.65
420.699	5.61
421.057	5.59
421.414	5.56
421.772	5.54
422.129	5.53
422.486	5.52
422.844	5.51
423.201	5.5
423.558	5.46
423.915	5.43
424.273	5.39
424.63	5.37
424.987	5.33
425.344	5.31
425.701	5.29
426.058	5.26
426.415	5.22
426.772	5.17
427.128	5.15
427.485	5.15
427.842	5.13
428.199	5.12
428.555	5.07
428.912	5.06
429.269	5.03
429.625	5
429.982	4.98
430.338	4.95
430.695	4.94
431.051	4.92
431.407	4.91
431.764	4.92
432.12	4.89
432.476	4.89
432.832	4.85
433.189	4.83
433.545	4.81
433.901	4.81
434.257	4.82
434.613	4.8
434.969	4.76
435.325	4.76
435.681	4.76
436.036	4.76
436.392	4.73
436.748	4.72
437.104	4.71
437.459	4.71
437.815	4.7
438.171	4.69
438.526	4.68
438.882	4.67
439.237	4.66
439.593	4.68
439.948	4.68
440.304	4.7
440.659	4.71
441.014	4.71
441.369	4.7
441.725	4.7
442.08	4.7
442.435	4.71
442.79	4.71
443.145	4.71
443.5	4.7
443.855	4.72
444.21	4.71
444.565	4.7
444.92	4.69
445.275	4.67
445.629	4.67
445.984	4.68
446.339	4.67
446.693	4.66
447.048	4.64
447.403	4.62
447.757	4.62
448.112	4.59
448.466	4.57
448.82	4.54
449.175	4.52
449.529	4.52
449.883	4.5
450.238	4.47
450.592	4.45
450.946	4.43
451.3	4.39
451.654	4.39
452.008	4.39
452.362	4.38
452.716	4.38
453.07	4.36
453.424	4.35
453.778	4.36
454.132	4.35
454.486	4.33
454.839	4.33
455.193	4.29
455.547	4.28
455.9	4.28
456.254	4.28
456.607	4.29
456.961	4.27
457.314	4.28
457.668	4.28
458.021	4.26
458.375	4.26
458.728	4.28
459.081	4.26
459.434	4.25
459.787	4.25
460.141	4.23
460.494	4.22
460.847	4.22
461.2	4.21
461.553	4.2
461.906	4.2
462.259	4.21
462.611	4.22
462.964	4.23
463.317	4.24
463.67	4.24
464.022	4.23
464.375	4.23
464.728	4.24
465.08	4.24
465.433	4.25
465.785	4.24
466.138	4.23
466.49	4.26
466.843	4.28
467.195	4.3
467.547	4.34
467.899	4.35
468.252	4.36
468.604	4.39
468.956	4.41
469.308	4.44
469.66	4.44
470.012	4.47
470.364	4.51
470.716	4.52
471.068	4.53
471.42	4.55
471.772	4.59
472.123	4.62
472.475	4.65
472.827	4.69
473.178	4.76
473.53	4.77
473.882	4.77
474.233	4.78
474.585	4.79
474.936	4.78
475.288	4.8
475.639	4.81
475.99	4.83
476.342	4.85
476.693	4.86
477.044	4.9
477.395	4.91
477.746	4.9
478.097	4.92
478.448	4.94
478.8	4.95
479.15	4.94
479.501	4.95
479.852	4.95
480.203	4.96
480.554	4.95
480.905	4.97
481.255	4.98
481.606	5
481.957	4.99
482.307	5.01
482.658	5.01
483.009	5
483.359	4.98
483.709	4.98
484.06	4.97
484.41	4.96
484.761	4.97
485.111	4.96
485.461	4.95
485.811	4.95
486.162	4.95
486.512	4.95
486.862	4.94
487.212	4.93
487.562	4.93
487.912	4.93
488.262	4.92
488.612	4.91
488.961	4.89
489.311	4.88
489.661	4.87
490.011	4.86
490.36	4.86
490.71	4.86
491.06	4.86
491.409	4.87
491.759	4.87
492.108	4.85
492.458	4.86
492.807	4.86
493.157	4.87
493.506	4.88
493.855	4.87
494.204	4.89
494.554	4.89
494.903	4.87
495.252	4.88
495.601	4.89
495.95	4.9
496.299	4.93
496.648	4.95
496.997	4.96
497.346	4.98
497.695	5.01
498.043	5.03
498.392	5.04
498.741	5.08
499.09	5.11
499.438	5.18
499.787	5.21
500.135	5.25
500.484	5.3
500.832	5.33
501.181	5.39
501.529	5.43
501.878	5.49
502.226	5.55
502.574	5.61
502.923	5.67
503.271	5.75
503.619	5.82
503.967	5.92
504.315	6.01
504.663	6.1
505.011	6.18
505.359	6.27
505.707	6.39
506.055	6.48
506.403	6.57
506.751	6.66
507.098	6.76
507.446	6.89
507.794	6.98
508.141	7.12
508.489	7.24
508.837	7.36
509.184	7.49
509.531	7.61
509.879	7.76
510.226	7.89
510.574	8.03
510.921	8.18
511.268	8.31
511.616	8.45
511.963	8.62
512.31	8.81
512.657	9.02
513.004	9.2
513.351	9.41
513.698	9.66
514.045	9.87
514.392	10.11
514.739	10.33
515.086	10.56
515.432	10.79
515.779	11.01
516.126	11.26
516.473	11.5
516.819	11.76
517.166	12
517.512	12.23
517.859	12.47
518.205	12.7
518.552	12.94
518.898	13.18
519.245	13.42
519.591	13.63
519.937	13.85
520.283	14.13
520.629	14.41
520.976	14.68
521.322	15
521.668	15.29
522.014	15.66
522.36	16.01
522.706	16.39
523.052	16.79
523.398	17.16
523.743	17.58
524.089	17.96
524.435	18.34
524.781	18.72
525.126	19.05
525.472	19.37
525.817	19.67
526.163	19.96
526.509	20.2
526.854	20.45
527.199	20.67
527.545	20.85
527.89	21.06
528.235	21.26
528.581	21.46
528.926	21.67
529.271	21.84
529.616	22.03
529.961	22.22
530.306	22.45
530.651	22.69
530.996	22.92
531.341	23.16
531.686	23.39
532.031	23.61
532.376	23.85
532.721	24.09
533.065	24.33
533.41	24.57
533.755	24.84
534.099	25.08
534.444	25.36
534.788	25.63
535.133	25.9
535.477	26.17
535.822	26.47
536.166	26.77
536.51	27.09
536.855	27.44
537.199	27.76
537.543	28.07
537.887	28.35
538.231	28.64
538.576	28.94
538.92	29.24
539.264	29.56
539.608	29.85
539.951	30.13
540.295	30.37
540.639	30.61
540.983	30.84
541.327	31.06
541.671	31.29
542.014	31.53
542.358	31.71
542.701	31.91
543.045	32.11
543.389	32.3
543.732	32.52
544.075	32.72
544.419	32.96
544.762	33.17
545.105	33.44
545.449	33.7
545.792	33.98
546.135	34.26
546.478	34.51
546.821	34.8
547.165	35.06
547.508	35.37
547.851	35.65
548.194	35.93
548.536	36.25
548.879	36.53
549.222	36.79
549.565	37.16
549.908	37.46
550.25	37.78
550.593	38.11
550.936	38.37
551.278	38.62
551.621	38.89
551.963	39.24
552.306	39.51
552.648	39.8
552.991	40.08
553.333	40.35
553.675	40.58
554.017	40.79
554.36	40.99
554.702	41.17
555.044	41.39
555.386	41.65
555.728	41.94
556.07	42.16
556.412	42.4
556.754	42.6
557.096	42.82
557.438	43.03
557.78	43.26
558.121	43.48
558.463	43.66
558.805	43.86
559.147	43.99
559.488	44.2
559.83	44.34
560.171	44.55
560.513	44.71
560.854	44.95
561.196	45.27
561.537	45.5
561.878	45.7
562.22	45.88
562.561	46.02
562.902	46.12
563.243	46.32
563.584	46.52
563.925	46.63
564.266	46.83
564.607	46.97
564.948	47.15
565.289	47.38
565.63	47.58
565.971	47.75
566.312	47.9
566.653	48.02
566.993	48.21
567.334	48.31
567.675	48.42
568.015	48.58
568.356	48.63
568.696	48.83
569.037	49
569.377	49.23
569.718	49.36
570.058	49.54
570.398	49.65
570.739	49.73
571.079	49.92
571.419	50.05
571.759	50.21
572.099	50.31
572.439	50.35
572.779	50.43
573.119	50.51
573.459	50.63
573.799	50.77
574.139	50.88
574.479	50.96
574.819	51.11
575.158	51.19
575.498	51.31
575.838	51.36
576.177	51.43
576.517	51.45
576.856	51.64
577.196	51.69
577.535	51.8
577.875	51.93
578.214	52
578.553	52.06
578.893	52.15
579.232	52.23
579.571	52.42
579.91	52.5
580.25	52.64
580.589	52.78
580.928	52.88
581.267	52.95
581.606	53.15
581.945	53.23
582.283	53.29
582.622	53.4
582.961	53.53
583.3	53.66
583.639	53.79
583.977	53.81
584.316	53.89
584.654	53.92
584.993	53.98
585.332	54.16
585.67	54.21
586.008	54.25
586.347	54.27
586.685	54.3
587.024	54.4
587.362	54.4
587.7	54.42
588.038	54.48
588.376	54.49
588.715	54.5
589.053	54.61
589.391	54.7
589.729	54.74
590.067	54.77
590.404	54.81
590.742	54.83
591.08	54.91
591.418	54.95
591.756	55.05
592.093	55.15
592.431	55.1
592.769	55.19
593.106	55.32
593.444	55.37
593.781	55.41
594.119	55.44
594.456	55.56
594.793	55.61
595.131	55.63
595.468	55.72
595.805	55.72
596.143	55.73
596.48	55.77
596.817	55.81
597.154	55.83
597.491	55.92
597.828	55.95
598.165	55.95
598.502	56.06
598.839	56.08
599.176	56.06
599.512	56.11
599.849	56.14
600.186	56.11
600.523	56.21
600.859	56.27
601.196	56.34
601.532	56.31
601.869	56.33
602.205	56.35
602.542	56.35
602.878	56.39
603.215	56.42
603.551	56.47
603.887	56.44
604.223	56.51
604.56	56.47
604.896	56.55
605.232	56.62
605.568	56.68
605.904	56.75
606.24	56.78
606.576	56.83
606.912	56.86
607.248	56.86
607.583	56.85
607.919	56.88
608.255	56.95
608.591	57.04
608.926	57.09
609.262	57.2
609.597	57.23
609.933	57.34
610.268	57.43
610.604	57.45
610.939	57.48
611.275	57.45
611.61	57.5
611.945	57.48
612.281	57.47
612.616	57.37
612.951	57.42
613.286	57.45
613.621	57.41
613.956	57.43
614.291	57.5
614.626	57.65
614.961	57.66
615.296	57.7
615.631	57.71
615.966	57.69
616.3	57.68
616.635	57.83
616.97	57.8
617.304	57.82
617.639	57.81
617.973	57.92
618.308	58
618.642	58.05
618.977	58.07
619.311	58.12
619.646	58.23
619.98	58.24
620.314	58.38
620.648	58.41
620.983	58.41
621.317	58.42
621.651	58.46
621.985	58.46
622.319	58.38
622.653	58.4
622.987	58.46
623.321	58.45
623.655	58.39
623.988	58.43
624.322	58.42
624.656	58.45
624.99	58.44
625.323	58.51
625.657	58.55
625.99	58.6
626.324	58.62
626.657	58.58
626.991	58.57
627.324	58.53
627.658	58.52
627.991	58.57
628.324	58.7
628.657	58.63
628.991	58.69
629.324	58.74
629.657	58.74
629.99	58.78
630.323	58.87
630.656	58.95
630.989	58.89
631.322	58.83
631.655	58.81
631.987	58.85
632.32	58.81
632.653	58.82
632.986	58.84
633.318	58.76
633.651	58.78
633.984	58.77
634.316	58.79
634.649	58.81
634.981	58.86
635.313	58.78
635.646	58.73
635.978	58.74
636.31	58.74
636.643	58.73
636.975	58.75
637.307	58.69
637.639	58.66
637.971	58.74
638.303	58.85
638.635	58.92
638.967	58.92
639.299	58.96
639.631	58.86
639.963	58.89
640.295	58.9
640.626	59.04
640.958	59.11
641.29	59.07
641.621	59.13
641.953	59.11
642.285	59.14
642.616	59.32
642.948	59.24
643.279	59.29
643.61	59.42
643.942	59.37
644.273	59.32
644.604	59.27
644.936	59.2
645.267	59.25
645.598	59.18
645.929	59.25
646.26	59.32
646.591	59.36
646.922	59.18
647.253	59.21
647.584	59.17
647.915	59.02
648.245	59.06
648.576	59.15
648.907	59.13
649.238	59.04
649.568	58.92
649.899	58.94
650.229	58.89
650.56	58.89
650.89	58.91
651.221	58.98
651.551	58.91
651.882	58.94
652.212	58.86
652.542	58.89
652.872	58.85
653.203	58.85
653.533	58.89
653.863	58.9
654.193	58.97
654.523	58.91
654.853	59.08
655.183	59.12
655.513	59.06
655.843	59.11
656.172	59.27
656.502	59.36
656.832	59.31
657.162	59.42
657.491	59.38
657.821	59.45
658.15	59.45
658.48	59.52
658.809	59.45
659.139	59.31
659.468	59.16
659.798	59.11
660.127	59.11
660.456	59.19
660.785	59.29
661.115	59.3
661.444	59.36
661.773	59.33
662.102	59.38
662.431	59.44
662.76	59.43
663.089	59.4
663.418	59.29
663.747	59.29
664.076	59.27
664.404	59.37
664.733	59.42
665.062	59.47
665.39	59.53
665.719	59.52
666.048	59.69
666.376	59.84
666.705	59.9
667.033	59.76
667.362	59.69
667.69	59.63
668.018	59.59
668.347	59.64
668.675	59.6
669.003	59.59
669.331	59.55
669.659	59.51
669.987	59.49
670.315	59.59
670.643	59.6
670.971	59.49
671.299	59.42
671.627	59.39
671.955	59.34
672.283	59.35
672.61	59.59
672.938	59.6
673.266	59.72
673.593	59.7
673.921	59.76
674.249	59.84
674.576	59.98
674.904	60.09
675.231	59.86
675.558	59.82
675.886	59.75
676.213	59.79
676.54	59.75
676.867	59.74
677.195	59.61
677.522	59.72
677.849	59.72
678.176	59.59
678.503	59.49
678.83	59.51
679.157	59.45
679.484	59.23
679.81	59.29
680.137	59.21
680.464	59.24
680.791	59.19
681.117	59.11
681.444	59.05
681.771	58.95
682.097	59.08
682.424	59.18
682.75	59.16
683.077	59.04
683.403	59.11
683.729	58.99
684.056	59.04
684.382	58.92
684.708	58.91
685.034	58.97
685.36	59.04
685.686	58.95
686.012	58.95
686.339	59.16
686.664	59.11
686.99	59.06
687.316	58.99
687.642	58.97
687.968	59
688.294	59
688.619	59.06
688.945	59.13
689.271	59.1
689.596	59.04
689.922	59.18
690.247	59.21
690.573	59.32
690.898	59.39
691.224	59.37
691.549	59.45
691.874	59.46
692.2	59.43
692.525	59.37
692.85	59.26
693.175	59.29
693.5	59.18
693.825	59.29
694.15	59.5
694.475	59.65
694.8	59.75
695.125	59.86
695.45	59.78
695.775	59.77
696.099	59.79
696.424	59.77
696.749	59.7
697.073	59.65
697.398	59.66
697.723	59.6
698.047	59.63
698.372	59.56
698.696	59.54
699.02	59.54
699.345	59.64
699.669	59.73
699.993	59.64
700.318	59.85
700.642	59.67
700.966	59.49
701.29	59.48
701.614	59.23
701.938	59.17
702.262	59.24
702.586	59.07
702.91	58.95
703.234	58.91
703.557	58.98
703.881	58.99
704.205	58.93
704.529	58.88
704.852	58.97
705.176	59.05
705.499	58.98
705.823	58.91
706.146	58.87
706.47	59
706.793	58.86
707.117	58.68
707.44	58.91
707.763	59.02
708.086	58.92
708.409	59.13
708.733	59.26
709.056	59.22
709.379	59.29
709.702	59.48
710.025	59.53
710.348	59.44
710.671	59.47
710.993	59.62
711.316	59.74
711.639	59.57
711.962	59.48
712.284	59.68
712.607	59.67
712.93	59.82
713.252	59.69
713.575	59.72
713.897	59.63
714.22	59.78
714.542	59.69
714.864	59.66
715.187	59.66
715.509	59.48
715.831	59.4
716.153	59.42
716.475	59.3
716.798	59.42
717.12	59.47
717.442	59.38
717.764	59.35
718.085	59.29
718.407	59.5
718.729	59.55
719.051	59.41
719.373	59.49
719.695	59.4
720.016	59.45
720.338	59.55
720.659	59.62
720.981	59.44
721.302	59.57
721.624	59.6
721.945	59.65
722.267	59.83
722.588	59.98
722.909	60.08
723.231	60.13
723.552	60.26
723.873	60.3
724.194	60.18
724.515	60.03
724.836	60.06
725.157	60.14
725.478	60.27
725.799	60.41
726.12	60.34
726.441	60.33
726.762	60.58
727.083	60.52
727.403	60.62
727.724	60.66
728.045	60.45
728.365	60.56
728.686	60.6
729.006	60.49
729.327	60.66
729.647	60.63
729.967	60.6
730.288	60.44
730.608	60.32
730.928	60.37
731.249	60.54
731.569	60.64
731.889	60.63
732.209	60.75
732.529	60.6
732.849	60.86
733.169	60.8
733.489	60.47
733.809	60.54
734.129	60.48
734.448	60.48
734.768	60.61
735.088	60.6
735.408	60.61
735.727	60.6
736.047	60.42
736.366	60.53
736.686	60.63
737.005	60.68
737.325	60.59
737.644	60.62
737.963	60.67
738.283	60.58
738.602	60.71
738.921	60.59
739.24	60.74
739.56	60.64
739.879	60.9
740.198	61.01
740.517	61.19
740.836	61.24
741.155	61.21
741.473	61.13
741.792	61.26
742.111	61.18
742.43	61.44
742.748	61.26
743.067	61.05
743.386	60.96
743.704	61.28
744.023	61.55
744.341	61.54
744.66	61.39
744.978	61.61
745.297	61.47
745.615	61.21
745.933	61.24
746.252	61.17
746.57	60.85
746.888	61.01
747.206	60.82
747.524	61.04
747.842	60.78
748.16	61.29
748.478	61.41
748.796	61.14
749.114	60.96
749.432	61.14
749.749	61.43
750.067	61.35
750.385	61.11
750.703	60.92
751.02	60.92
751.338	61.05
751.655	61.1
751.973	61.09
752.29	61.16
752.608	61.14
752.925	61.09
753.242	61.19
753.56	60.91
753.877	60.72
754.194	60.5
754.511	60.66
754.828	60.39
755.145	59.95
755.462	60.03
755.779	60.07
756.096	60.14
756.413	59.9
756.73	59.88
757.047	59.54
757.364	59.78
757.68	59.67
757.997	59.89
758.314	59.63
758.63	59.41
758.947	59.44
759.264	59.58
759.58	59.33
759.896	59.27
760.213	59.46
760.529	59.58
760.846	59.67
761.162	59.75
761.478	59.6
761.794	59.71
762.11	59.95
762.426	60.01
762.743	59.82
763.059	59.74
763.375	60.22
763.69	60.79
764.006	60.59
764.322	60.88
764.638	60.71
764.954	60.91
765.27	61.16
765.585	61.18
765.901	60.85
766.216	61.21
766.532	61.31
766.848	61.2
767.163	61.45
767.478	61.53
767.794	61.25
768.109	61.33
768.424	61.64
768.74	61.51
769.055	61.55
769.37	61.9
769.685	61.82
770	61.46
770.315	61.03
770.63	61.51
770.945	61.28
771.26	60.96
771.575	61.04
771.89	60.74
772.205	60.97
772.52	61.17
772.834	60.58
773.149	60.29
773.464	60.13
773.778	59.86
774.093	59.66
774.407	60.08
774.722	60.15
775.036	59.58
775.351	59.71
775.665	59.66
775.979	59.16
776.293	59.44
776.608	58.92
776.922	58.91
777.236	58.28
777.55	58.03
777.864	58.28
778.178	57.98
778.492	58.3
778.806	58.01
779.12	58.3
779.434	58.58
779.747	59.21
780.061	59.32
780.375	59.72
780.689	60.11
781.002	60.42
781.316	60.42
781.629	60.75
781.943	60.63
782.256	59.98
782.57	59.88
782.883	60.15
783.196	60.78
783.51	60.51
783.823	60.83
784.136	61.26
784.449	61.27
784.762	61.45
785.075	61.4
785.388	61.5
785.701	61.55
786.014	61.88
786.327	61.5
786.64	61.82
786.953	61.5
787.266	61.15
787.578	60.38
787.891	59.95
788.204	60.06
788.516	60.14
788.829	60.86
789.141	61.35
789.454	61.14
789.766	60.79
790.079	60.98
790.391	61.05
790.703	60.91
791.016	60.55
791.328	60.43
791.64	59.83
791.952	60.12
792.264	59.41
792.576	59.19
792.888	59.18
793.2	59.28
793.512	59.27
793.824	59.37
794.136	59.55
794.448	60.31
794.76	59.84
795.071	59.85
795.383	59.65
795.695	59.58
796.006	59.66
796.318	60.26
796.629	60.15
796.941	59.98
797.252	60.34
797.564	60.92
797.875	60.6
798.186	60.9
798.497	60.93
798.809	61.89
799.12	61.81
799.431	61.97
799.742	61.63
800.053	61.93
800.364	61.78
800.675	62.17
800.986	62.35
801.297	62.47
801.608	62.63
801.918	62.19
802.229	62.26
802.54	62.31
802.851	62.01
803.161	61.83
803.472	61.41
803.782	61.53
804.093	61.13
804.403	61
804.714	60.64
805.024	60.14
805.334	60.04
805.645	59.95
805.955	60.15
806.265	60.8
806.575	60.44
806.885	60.28
807.195	60.24
807.505	59.74
807.815	60.72
808.125	60.79
808.435	61.05
808.745	61.03
809.055	61.07
809.365	60.93
809.674	60.81
809.984	61.02
810.294	60.36
810.603	60.79
810.913	61.56
811.222	62.07
811.532	62.14
811.841	61.82
812.151	62.25
812.46	61.79
812.769	61.71
813.079	61.43
813.388	62.18
813.697	63.03
814.006	62.81
814.315	61.85
814.624	61.59
814.933	61.99
815.242	61.46
815.551	61.14
815.86	61.05
816.169	61.84
816.478	62.09
816.786	62.56
817.095	62.81
817.404	62.65
817.712	62.3
818.021	62.46
818.33	62.53
818.638	62.47
818.947	62.6
819.255	62.31
819.563	62.42
819.872	61.69
820.18	60.87
820.488	61.03
820.796	61.03
821.105	61.15
821.413	60.93
821.721	61.13
822.029	61.2
822.337	61.31
822.645	61.35
822.953	61.2
823.26	61.09
823.568	60.98
823.876	60.76
824.184	60.85
824.491	60.97
824.799	60.89
825.107	60.68
825.414	60.53
825.722	60.53
826.029	60.59
826.337	60.76
826.644	60.86
826.951	60.89
827.259	60.91
827.566	60.88
827.873	60.92
828.18	60.84
828.488	60.78
828.795	60.51
829.102	60.44
829.409	60.82
829.716	60.87
830.023	61.09
830.329	61.1
830.636	61.39
830.943	61.09
831.25	60.94
831.557	61.69
831.863	61.89
832.17	61.71
832.476	61.41
832.783	61.69
833.089	61.99
833.396	61.89
833.702	61.74
834.009	61.6
834.315	61.67
834.621	61.9
834.928	62.11
835.234	62.21
835.54	61.52
835.846	60.97
836.152	60.6
836.458	60.46
836.764	60.78
837.07	60.55
837.376	60.19
837.682	60.15
837.988	59.52
838.293	59.58
838.599	59.49
838.905	59.15
839.211	58.28
839.516	57.94
839.822	58.15
840.127	58.24
840.433	58.37
840.738	58.73
841.044	58.27
841.349	57.41
841.654	56.91
841.959	58.37
842.265	58.03
842.57	60.18
842.875	59.66
843.18	59.98
843.485	59.51
843.79	59.81
844.095	60.38
844.4	60.58
844.705	59.31
845.01	59.58
845.315	60.61
845.619	60.02
845.924	59.55
846.229	59.23
846.533	59.12
846.838	59.43
847.142	57.19
847.447	56.72
847.751	57.02
848.056	58.04
848.36	56.06
848.664	58.79
848.969	55.78
849.273	55.6
849.577	53.5
849.881	53.92
850.185	56.55
850.489	58.29
850.794	58.95
851.097	58.95
851.401	58.54
851.705	57.39
852.009	61.06
852.313	60.61
852.617	60.25
852.92	60.01
853.224	58.53
853.528	62.29
853.831	63.26
854.135	64.35
854.438	63.64
854.742	64
855.045	62.14
855.349	61.47
855.652	60.52
855.955	60.32
856.259	59.5
856.562	58.19
856.865	56.15
857.168	55.78
857.471	57.4
857.774	59.77
858.077	60.82
858.38	57.71
858.683	60.49
858.986	61.65
859.289	62.21
859.592	62.53
859.894	61.57
860.197	59.82
860.5	60.42
860.802	60.48
861.105	61.94
861.407	63.28
861.71	62.8
862.012	61.86
862.315	65.11
862.617	64.37
862.919	63.97
863.222	64.52
863.524	64.97
863.826	66.57
864.128	64.81
864.43	64.61
864.732	66.71
865.034	64.05
865.336	60.03
865.638	59.15
865.94	59.14
866.242	56.98
866.544	58.47
866.846	57.78
867.147	57.72
867.449	57.46
867.751	56.64
868.052	57.86
868.354	57.67
868.655	55.08
868.957	53.82
869.258	53.35
869.56	56.35
869.861	53.92
870.162	52.25
870.463	52.04
870.765	51.55
871.066	51.01
871.367	52.28
871.668	53.19
871.969	52.19
872.27	52.3
872.571	51.59
872.872	52.53
873.173	50.68
873.473	51.89
873.774	50.07
874.075	48.18
874.376	49.47
874.676	51.69
874.977	53.38
875.277	54.97
875.578	56.36
875.878	52.8
876.179	54.01
876.479	53.58
876.78	52.92
877.08	53.27
877.38	52.41
877.68	50.99
877.981	52.93
878.281	55.03
878.581	54.04
