Data from BU58138_Reflection_00013.txt Node
Date: Mon Nov 18 16:42:27 EST 2019
User: vgr7
Spectrometer: USB2G7710
Scans to average: 3
Trigger mode: 4
Integration Time (sec): 2.000000E-2
Electric dark correction enabled: true
Boxcar width: 10
XAxis mode: Wavelengths
Number of Pixels in Spectrum: 2048
>>>>>Begin Spectral Data<<<<<
177.721	-70233.33
178.105	687.3
178.488	475.19
178.871	3766.67
179.254	-238.2
179.636	17.66
180.019	-14.05
180.402	100
180.785	-9.58
181.168	-17.86
181.55	18.09
181.933	76.6
182.316	77.46
182.698	97.76
183.081	83.25
183.463	56.09
183.846	63.91
184.228	66.02
184.611	97.96
184.993	161.82
185.376	170.14
185.758	135.94
186.14	128.12
186.522	146.88
186.904	226.65
187.287	1282.65
187.669	-763.8
188.051	1114.65
188.433	260.28
188.815	7971.79
189.197	-994.28
189.579	-273.1
189.961	-184.96
190.342	-261.99
190.724	-123.38
191.106	-106.35
191.488	-92.67
191.869	-60.45
192.251	-80.42
192.633	-99.7
193.014	-130.49
193.396	-154.7
193.777	-144.91
194.159	-148.55
194.54	-133.83
194.922	-124.54
195.303	-181.85
195.684	-161.12
196.065	-94.88
196.447	-111.52
196.828	-112.12
197.209	-118.11
197.59	-134.33
197.971	-154.22
198.352	-129.97
198.733	-151.45
199.114	-112.46
199.495	-111.9
199.876	-136.35
200.257	-133.36
200.638	-111.57
201.018	-131.69
201.399	-113.44
201.78	-97.02
202.16	-102.64
202.541	-141.12
202.922	-212.21
203.302	-218.7
203.683	-192.56
204.063	-211.75
204.444	-140.16
204.824	-133.94
205.204	-140.66
205.585	-141.27
205.965	-96.45
206.345	-107.85
206.725	-122.5
207.106	-137.09
207.486	-143.45
207.866	-135.08
208.246	-138.6
208.626	-126.36
209.006	-102.08
209.386	-122.3
209.766	-93.09
210.145	-83.27
210.525	-60.05
210.905	-42.69
211.285	-36.66
211.664	-37.66
212.044	-38.32
212.424	-41.19
212.803	-33.88
213.183	-30.62
213.562	-25.86
213.942	-28.15
214.321	-27.23
214.701	-24.27
215.08	-28.04
215.459	-24.1
215.838	-30.29
216.218	-24.06
216.597	-19.65
216.976	-9.97
217.355	-10.18
217.734	-16.52
218.113	-16.81
218.492	-20.94
218.871	-35.65
219.25	-41.13
219.629	-34.02
220.008	-42.36
220.387	-40.36
220.766	-47.79
221.144	-93.56
221.523	-89.31
221.902	-133.39
222.28	-136.73
222.659	-120.79
223.037	-103.04
223.416	-91.73
223.794	-54.96
224.173	-39.51
224.551	-24.98
224.929	-30.08
225.308	-20.69
225.686	-14.73
226.064	-8.84
226.442	-4.43
226.821	-5.68
227.199	-2.17
227.577	-3.16
227.955	-1.13
228.333	-4.59
228.711	-4.4
229.089	0.78
229.467	-1.47
229.845	-4.72
230.222	-2.75
230.6	-1.56
230.978	-0.75
231.356	-0.29
231.733	-0.63
232.111	1.71
232.488	2.16
232.866	3.74
233.243	5.6
233.621	2.71
233.998	2.43
234.376	-0.34
234.753	0.29
235.13	0.97
235.508	0.74
235.885	1.29
236.262	1.6
236.639	1.92
237.016	1.81
237.393	3.47
237.77	5.18
238.147	5.01
238.524	4.98
238.901	5.61
239.278	6.37
239.655	6.22
240.032	5.58
240.409	4.6
240.785	3.53
241.162	3.26
241.539	3.48
241.915	3.4
242.292	3.58
242.668	3.32
243.045	3.58
243.421	3.34
243.798	3.27
244.174	3.33
244.551	3.61
244.927	3.53
245.303	3.26
245.679	3.32
246.056	3.29
246.432	3.48
246.808	3.31
247.184	2.84
247.56	2.61
247.936	2.57
248.312	2.79
248.688	3.05
249.064	2.71
249.44	2.72
249.815	2.79
250.191	2.91
250.567	3.16
250.943	2.91
251.318	3.27
251.694	3.22
252.069	3.27
252.445	3.01
252.82	3.01
253.196	3.01
253.571	3.24
253.947	2.98
254.322	3.05
254.697	2.86
255.073	2.93
255.448	3.04
255.823	3.09
256.198	3.04
256.573	2.82
256.948	3.28
257.323	3.31
257.698	3.24
258.073	3.2
258.448	3.03
258.823	3.15
259.198	2.95
259.573	3.01
259.948	2.9
260.322	2.85
260.697	2.78
261.072	2.81
261.446	2.68
261.821	2.8
262.195	2.74
262.57	2.7
262.944	2.86
263.319	2.95
263.693	2.96
264.067	3.07
264.442	3.23
264.816	2.98
265.19	2.95
265.564	2.94
265.938	2.89
266.313	3.01
266.687	2.84
267.061	3.01
267.435	2.79
267.809	2.87
268.183	2.82
268.556	2.78
268.93	2.67
269.304	2.67
269.678	2.52
270.051	2.4
270.425	2.54
270.799	2.51
271.172	2.42
271.546	2.29
271.919	2.2
272.293	2.27
272.666	2.3
273.04	2.43
273.413	2.4
273.787	2.4
274.16	2.18
274.533	2.26
274.906	2.27
275.279	2.4
275.653	2.25
276.026	2.37
276.399	2.44
276.772	2.59
277.145	2.45
277.518	2.69
277.891	2.61
278.263	2.46
278.636	2.57
279.009	2.58
279.382	2.84
279.755	2.78
280.127	2.76
280.5	2.94
280.872	3
281.245	2.94
281.617	3.08
281.99	3.29
282.362	3.41
282.735	3.26
283.107	3.2
283.479	3.33
283.852	3.26
284.224	3.24
284.596	3.2
284.968	3.31
285.34	3.27
285.713	3.5
286.085	3.59
286.457	3.55
286.829	3.57
287.201	3.53
287.572	3.55
287.944	3.39
288.316	3.35
288.688	3.2
289.06	3.28
289.431	3.2
289.803	3.24
290.175	3.22
290.546	3.31
290.918	3.25
291.289	3.31
291.661	3.39
292.032	3.44
292.403	3.54
292.775	3.52
293.146	3.39
293.517	3.24
293.889	3.26
294.26	3.22
294.631	3.29
295.002	3.21
295.373	3.24
295.744	3.31
296.115	3.18
296.486	3.12
296.857	3.16
297.228	3.16
297.599	3.07
297.97	3.07
298.34	2.99
298.711	3.06
299.082	2.9
299.452	2.89
299.823	2.96
300.194	2.91
300.564	2.87
300.935	3.03
301.305	3.05
301.676	3.12
302.046	3.14
302.416	3.16
302.787	3.23
303.157	3.16
303.527	3.16
303.897	3.37
304.267	3.58
304.637	3.64
305.008	3.66
305.378	3.76
305.748	3.86
306.117	3.99
306.487	4.02
306.857	4.23
307.227	4.25
307.597	4.21
307.967	4.15
308.336	4.26
308.706	4.32
309.076	4.31
309.445	4.19
309.815	4.09
310.184	4.06
310.554	4.11
310.923	4.26
311.293	4.3
311.662	4.19
312.031	4.09
312.401	4.12
312.77	4.18
313.139	4.19
313.508	4.13
313.877	4.11
314.246	4.15
314.616	4.08
314.985	4.03
315.353	4.01
315.722	4.16
316.091	4.17
316.46	3.98
316.829	3.97
317.198	4.18
317.567	4.2
317.935	4.25
318.304	4.26
318.672	4.06
319.041	4.24
319.41	4.32
319.778	4.48
320.147	4.55
320.515	4.53
320.883	4.44
321.252	4.48
321.62	4.44
321.988	4.47
322.357	4.62
322.725	4.74
323.093	4.86
323.461	4.84
323.829	4.79
324.197	4.94
324.565	4.97
324.933	4.89
325.301	5.04
325.669	5.09
326.037	5.21
326.405	5.3
326.772	5.25
327.14	5.49
327.508	5.45
327.875	5.27
328.243	5.22
328.61	5.37
328.978	5.39
329.346	5.55
329.713	5.64
330.08	5.7
330.448	5.67
330.815	5.47
331.182	5.45
331.55	5.48
331.917	5.49
332.284	5.69
332.651	5.75
333.018	5.7
333.385	5.76
333.752	5.66
334.119	5.74
334.486	5.65
334.853	5.37
335.22	5.44
335.587	5.62
335.954	5.77
336.32	5.72
336.687	5.82
337.054	5.73
337.42	5.63
337.787	5.51
338.153	5.58
338.52	5.83
338.886	5.89
339.253	5.9
339.619	5.91
339.986	5.89
340.352	5.94
340.718	5.96
341.084	5.92
341.451	5.96
341.817	6.01
342.183	5.99
342.549	6.16
342.915	6.22
343.281	6.21
343.647	6.22
344.013	6.32
344.379	6.23
344.745	6.26
345.11	6.21
345.476	6.22
345.842	6.13
346.208	6.08
346.573	6.05
346.939	6.12
347.304	6.11
347.67	5.95
348.035	5.89
348.401	5.9
348.766	5.89
349.132	5.92
349.497	5.76
349.862	5.89
350.228	5.83
350.593	5.67
350.958	5.61
351.323	5.59
351.688	5.66
352.053	5.67
352.418	5.75
352.783	5.92
353.148	5.93
353.513	6.05
353.878	6.06
354.243	6.04
354.608	6.03
354.972	6.05
355.337	6.13
355.702	6.19
356.066	6.23
356.431	6.15
356.795	6.11
357.16	6.19
357.524	6.06
357.889	5.97
358.253	6.09
358.618	6.1
358.982	6.07
359.346	5.98
359.71	6.02
360.075	5.92
360.439	5.84
360.803	5.85
361.167	5.78
361.531	5.71
361.895	5.7
362.259	5.62
362.623	5.61
362.987	5.61
363.351	5.61
363.714	5.59
364.078	5.61
364.442	5.52
364.806	5.49
365.169	5.52
365.533	5.58
365.896	5.5
366.26	5.43
366.623	5.36
366.987	5.31
367.35	5.18
367.714	5.19
368.077	5.13
368.44	5.1
368.803	5.05
369.167	4.98
369.53	4.88
369.893	4.91
370.256	4.88
370.619	4.82
370.982	4.75
371.345	4.65
371.708	4.61
372.071	4.61
372.434	4.56
372.797	4.53
373.159	4.46
373.522	4.43
373.885	4.41
374.247	4.43
374.61	4.41
374.973	4.44
375.335	4.4
375.698	4.45
376.06	4.39
376.423	4.42
376.785	4.47
377.147	4.5
377.51	4.41
377.872	4.38
378.234	4.33
378.596	4.31
378.958	4.28
379.321	4.25
379.683	4.25
380.045	4.22
380.407	4.15
380.769	4.12
381.13	4.07
381.492	4.05
381.854	3.98
382.216	3.94
382.578	3.89
382.939	3.82
383.301	3.74
383.663	3.69
384.024	3.64
384.386	3.61
384.747	3.59
385.109	3.63
385.47	3.57
385.832	3.58
386.193	3.57
386.554	3.57
386.916	3.57
387.277	3.54
387.638	3.55
387.999	3.53
388.36	3.52
388.721	3.53
389.082	3.5
389.443	3.49
389.804	3.48
390.165	3.48
390.526	3.5
390.887	3.47
391.248	3.47
391.609	3.47
391.969	3.44
392.33	3.38
392.691	3.32
393.051	3.33
393.412	3.32
393.772	3.28
394.133	3.27
394.493	3.24
394.854	3.23
395.214	3.2
395.574	3.23
395.935	3.23
396.295	3.23
396.655	3.2
397.015	3.2
397.376	3.16
397.736	3.11
398.096	3.1
398.456	3.09
398.816	3.11
399.176	3.06
399.535	3.04
399.895	3.06
400.255	3.05
400.615	3.04
400.975	3.03
401.334	3.01
401.694	3.01
402.054	2.96
402.413	2.92
402.773	2.87
403.132	2.85
403.492	2.85
403.851	2.81
404.211	2.8
404.57	2.79
404.929	2.79
405.288	2.81
405.648	2.76
406.007	2.76
406.366	2.74
406.725	2.76
407.084	2.78
407.443	2.79
407.802	2.82
408.161	2.81
408.52	2.79
408.879	2.79
409.238	2.77
409.596	2.8
409.955	2.84
410.314	2.85
410.673	2.83
411.031	2.81
411.39	2.84
411.748	2.86
412.107	2.85
412.465	2.85
412.824	2.86
413.182	2.88
413.54	2.88
413.899	2.89
414.257	2.87
414.615	2.87
414.974	2.84
415.332	2.81
415.69	2.81
416.048	2.81
416.406	2.8
416.764	2.79
417.122	2.81
417.48	2.78
417.838	2.8
418.195	2.81
418.553	2.81
418.911	2.77
419.269	2.76
419.626	2.76
419.984	2.76
420.342	2.76
420.699	2.75
421.057	2.74
421.414	2.73
421.772	2.73
422.129	2.72
422.486	2.73
422.844	2.72
423.201	2.71
423.558	2.71
423.915	2.71
424.273	2.72
424.63	2.7
424.987	2.7
425.344	2.68
425.701	2.69
426.058	2.69
426.415	2.69
426.772	2.69
427.128	2.68
427.485	2.67
427.842	2.66
428.199	2.67
428.555	2.67
428.912	2.67
429.269	2.66
429.625	2.64
429.982	2.63
430.338	2.64
430.695	2.64
431.051	2.61
431.407	2.6
431.764	2.58
432.12	2.58
432.476	2.58
432.832	2.57
433.189	2.56
433.545	2.57
433.901	2.59
434.257	2.6
434.613	2.62
434.969	2.61
435.325	2.62
435.681	2.62
436.036	2.6
436.392	2.61
436.748	2.6
437.104	2.61
437.459	2.62
437.815	2.6
438.171	2.61
438.526	2.63
438.882	2.64
439.237	2.64
439.593	2.65
439.948	2.65
440.304	2.66
440.659	2.67
441.014	2.68
441.369	2.66
441.725	2.66
442.08	2.65
442.435	2.65
442.79	2.65
443.145	2.65
443.5	2.66
443.855	2.66
444.21	2.67
444.565	2.67
444.92	2.68
445.275	2.68
445.629	2.68
445.984	2.69
446.339	2.69
446.693	2.68
447.048	2.66
447.403	2.64
447.757	2.63
448.112	2.61
448.466	2.61
448.82	2.61
449.175	2.61
449.529	2.6
449.883	2.59
450.238	2.57
450.592	2.58
450.946	2.57
451.3	2.56
451.654	2.56
452.008	2.55
452.362	2.53
452.716	2.55
453.07	2.53
453.424	2.51
453.778	2.53
454.132	2.55
454.486	2.55
454.839	2.56
455.193	2.57
455.547	2.56
455.9	2.57
456.254	2.59
456.607	2.59
456.961	2.58
457.314	2.6
457.668	2.61
458.021	2.59
458.375	2.61
458.728	2.63
459.081	2.63
459.434	2.63
459.787	2.65
460.141	2.65
460.494	2.66
460.847	2.67
461.2	2.66
461.553	2.66
461.906	2.67
462.259	2.68
462.611	2.69
462.964	2.69
463.317	2.68
463.67	2.68
464.022	2.67
464.375	2.67
464.728	2.67
465.08	2.67
465.433	2.7
465.785	2.69
466.138	2.68
466.49	2.67
466.843	2.68
467.195	2.68
467.547	2.69
467.899	2.67
468.252	2.66
468.604	2.67
468.956	2.67
469.308	2.67
469.66	2.65
470.012	2.67
470.364	2.68
470.716	2.68
471.068	2.69
471.42	2.71
471.772	2.73
472.123	2.72
472.475	2.76
472.827	2.75
473.178	2.73
473.53	2.74
473.882	2.76
474.233	2.75
474.585	2.73
474.936	2.71
475.288	2.73
475.639	2.72
475.99	2.73
476.342	2.74
476.693	2.73
477.044	2.74
477.395	2.73
477.746	2.74
478.097	2.72
478.448	2.71
478.8	2.71
479.15	2.7
479.501	2.7
479.852	2.67
480.203	2.65
480.554	2.65
480.905	2.65
481.255	2.64
481.606	2.67
481.957	2.68
482.307	2.68
482.658	2.66
483.009	2.67
483.359	2.66
483.709	2.66
484.06	2.66
484.41	2.66
484.761	2.65
485.111	2.65
485.461	2.66
485.811	2.65
486.162	2.65
486.512	2.66
486.862	2.67
487.212	2.68
487.562	2.69
487.912	2.69
488.262	2.69
488.612	2.69
488.961	2.68
489.311	2.68
489.661	2.68
490.011	2.7
490.36	2.69
490.71	2.69
491.06	2.7
491.409	2.7
491.759	2.7
492.108	2.71
492.458	2.71
492.807	2.7
493.157	2.72
493.506	2.73
493.855	2.72
494.204	2.7
494.554	2.69
494.903	2.69
495.252	2.71
495.601	2.71
495.95	2.71
496.299	2.71
496.648	2.72
496.997	2.71
497.346	2.72
497.695	2.74
498.043	2.74
498.392	2.73
498.741	2.75
499.09	2.75
499.438	2.77
499.787	2.8
500.135	2.82
500.484	2.82
500.832	2.83
501.181	2.84
501.529	2.86
501.878	2.87
502.226	2.91
502.574	2.92
502.923	2.92
503.271	2.93
503.619	2.96
503.967	2.97
504.315	2.98
504.663	3
505.011	3.03
505.359	3.07
505.707	3.13
506.055	3.15
506.403	3.2
506.751	3.22
507.098	3.24
507.446	3.28
507.794	3.32
508.141	3.34
508.489	3.38
508.837	3.43
509.184	3.46
509.531	3.48
509.879	3.52
510.226	3.6
510.574	3.65
510.921	3.69
511.268	3.74
511.616	3.81
511.963	3.86
512.31	3.89
512.657	3.95
513.004	4.02
513.351	4.09
513.698	4.16
514.045	4.21
514.392	4.27
514.739	4.34
515.086	4.41
515.432	4.48
515.779	4.55
516.126	4.64
516.473	4.71
516.819	4.78
517.166	4.85
517.512	4.89
517.859	4.95
518.205	5.03
518.552	5.1
518.898	5.16
519.245	5.21
519.591	5.29
519.937	5.35
520.283	5.4
520.629	5.48
520.976	5.56
521.322	5.66
521.668	5.76
522.014	5.84
522.36	5.94
522.706	6.05
523.052	6.14
523.398	6.23
523.743	6.34
524.089	6.47
524.435	6.57
524.781	6.69
525.126	6.8
525.472	6.9
525.817	6.97
526.163	7.06
526.509	7.16
526.854	7.23
527.199	7.3
527.545	7.38
527.89	7.45
528.235	7.5
528.581	7.57
528.926	7.64
529.271	7.74
529.616	7.8
529.961	7.88
530.306	7.98
530.651	8.06
530.996	8.18
531.341	8.28
531.686	8.39
532.031	8.49
532.376	8.61
532.721	8.7
533.065	8.82
533.41	8.94
533.755	9.05
534.099	9.17
534.444	9.29
534.788	9.43
535.133	9.56
535.477	9.7
535.822	9.83
536.166	9.98
536.51	10.13
536.855	10.31
537.199	10.48
537.543	10.64
537.887	10.85
538.231	11.02
538.576	11.18
538.92	11.37
539.264	11.54
539.608	11.7
539.951	11.86
540.295	12.02
540.639	12.18
540.983	12.33
541.327	12.5
541.671	12.66
542.014	12.79
542.358	12.95
542.701	13.12
543.045	13.28
543.389	13.42
543.732	13.59
544.075	13.77
544.419	13.95
544.762	14.14
545.105	14.31
545.449	14.49
545.792	14.68
546.135	14.88
546.478	15.1
546.821	15.35
547.165	15.62
547.508	15.9
547.851	16.13
548.194	16.37
548.536	16.6
548.879	16.86
549.222	17.13
549.565	17.41
549.908	17.65
550.25	17.93
550.593	18.21
550.936	18.48
551.278	18.71
551.621	19.02
551.963	19.34
552.306	19.62
552.648	19.91
552.991	20.21
553.333	20.46
553.675	20.73
554.017	20.97
554.36	21.21
554.702	21.42
555.044	21.72
555.386	21.98
555.728	22.29
556.07	22.57
556.412	22.83
556.754	23.07
557.096	23.35
557.438	23.69
557.78	24.02
558.121	24.31
558.463	24.61
558.805	24.88
559.147	25.1
559.488	25.37
559.83	25.61
560.171	25.87
560.513	26.17
560.854	26.43
561.196	26.68
561.537	26.99
561.878	27.27
562.22	27.54
562.561	27.84
562.902	28.09
563.243	28.36
563.584	28.63
563.925	28.91
564.266	29.19
564.607	29.38
564.948	29.61
565.289	29.89
565.63	30.15
565.971	30.33
566.312	30.61
566.653	30.9
566.993	31.21
567.334	31.49
567.675	31.75
568.015	32
568.356	32.24
568.696	32.47
569.037	32.68
569.377	32.92
569.718	33.16
570.058	33.38
570.398	33.61
570.739	33.81
571.079	34.03
571.419	34.21
571.759	34.4
572.099	34.61
572.439	34.79
572.779	34.94
573.119	35.18
573.459	35.39
573.799	35.55
574.139	35.68
574.479	35.82
574.819	35.94
575.158	36.12
575.498	36.32
575.838	36.53
576.177	36.72
576.517	36.87
576.856	37.07
577.196	37.28
577.535	37.43
577.875	37.71
578.214	37.93
578.553	38.15
578.893	38.38
579.232	38.57
579.571	38.77
579.91	39.04
580.25	39.24
580.589	39.4
580.928	39.68
581.267	39.92
581.606	40.2
581.945	40.45
582.283	40.69
582.622	40.89
582.961	41.1
583.3	41.33
583.639	41.53
583.977	41.66
584.316	41.79
584.654	42
584.993	42.09
585.332	42.24
585.67	42.42
586.008	42.69
586.347	42.78
586.685	42.91
587.024	43.05
587.362	43.11
587.7	43.21
588.038	43.27
588.376	43.39
588.715	43.45
589.053	43.6
589.391	43.68
589.729	43.78
590.067	43.84
590.404	43.92
590.742	44.06
591.08	44.19
591.418	44.34
591.756	44.37
592.093	44.43
592.431	44.52
592.769	44.63
593.106	44.64
593.444	44.82
593.781	44.92
594.119	45.01
594.456	45.19
594.793	45.32
595.131	45.39
595.468	45.47
595.805	45.57
596.143	45.6
596.48	45.67
596.817	45.81
597.154	45.9
597.491	46.04
597.828	46.11
598.165	46.23
598.502	46.29
598.839	46.44
599.176	46.6
599.512	46.69
599.849	46.76
600.186	46.85
600.523	46.88
600.859	46.97
601.196	47.07
601.532	47.12
601.869	47.23
602.205	47.33
602.542	47.42
602.878	47.47
603.215	47.58
603.551	47.74
603.887	47.76
604.223	47.85
604.56	47.93
604.896	48.01
605.232	48.06
605.568	48.21
605.904	48.28
606.24	48.33
606.576	48.37
606.912	48.46
607.248	48.58
607.583	48.71
607.919	48.8
608.255	48.87
608.591	48.96
608.926	49.04
609.262	49.1
609.597	49.21
609.933	49.31
610.268	49.41
610.604	49.44
610.939	49.54
611.275	49.53
611.61	49.51
611.945	49.57
612.281	49.62
612.616	49.58
612.951	49.62
613.286	49.73
613.621	49.78
613.956	49.85
614.291	49.91
614.626	50
614.961	50.04
615.296	50.14
615.631	50.23
615.966	50.2
616.3	50.28
616.635	50.28
616.97	50.37
617.304	50.34
617.639	50.36
617.973	50.42
618.308	50.51
618.642	50.6
618.977	50.69
619.311	50.79
619.646	50.84
619.98	50.87
620.314	50.89
620.648	51.01
620.983	51.07
621.317	51.08
621.651	51.05
621.985	51.08
622.319	51.08
622.653	51.08
622.987	51.2
623.321	51.19
623.655	51.23
623.988	51.22
624.322	51.27
624.656	51.36
624.99	51.42
625.323	51.42
625.657	51.45
625.99	51.48
626.324	51.42
626.657	51.43
626.991	51.44
627.324	51.52
627.658	51.5
627.991	51.56
628.324	51.58
628.657	51.65
628.991	51.67
629.324	51.67
629.657	51.8
629.99	51.78
630.323	51.79
630.656	51.85
630.989	51.87
631.322	51.93
631.655	51.93
631.987	51.93
632.32	51.97
632.653	52.06
632.986	52.13
633.318	52.21
633.651	52.25
633.984	52.31
634.316	52.19
634.649	52.28
634.981	52.29
635.313	52.37
635.646	52.41
635.978	52.56
636.31	52.65
636.643	52.62
636.975	52.68
637.307	52.75
637.639	52.75
637.971	52.79
638.303	52.76
638.635	52.85
638.967	52.91
639.299	52.95
639.631	52.9
639.963	52.76
640.295	52.85
640.626	53.02
640.958	53.04
641.29	53.22
641.621	53.23
641.953	53.24
642.285	53.19
642.616	53.25
642.948	53.18
643.279	53.27
643.61	53.35
643.942	53.42
644.273	53.45
644.604	53.49
644.936	53.56
645.267	53.64
645.598	53.62
645.929	53.59
646.26	53.65
646.591	53.72
646.922	53.84
647.253	53.78
647.584	53.71
647.915	53.76
648.245	53.78
648.576	53.79
648.907	53.81
649.238	53.96
649.568	53.94
649.899	53.93
650.229	53.82
650.56	53.69
650.89	53.68
651.221	53.7
651.551	53.77
651.882	53.77
652.212	53.84
652.542	53.88
652.872	53.93
653.203	53.91
653.533	54
653.863	53.98
654.193	54.07
654.523	54.07
654.853	54.12
655.183	54.24
655.513	54.29
655.843	54.33
656.172	54.21
656.502	54.21
656.832	54.3
657.162	54.35
657.491	54.41
657.821	54.41
658.15	54.5
658.48	54.47
658.809	54.44
659.139	54.47
659.468	54.52
659.798	54.47
660.127	54.47
660.456	54.38
660.785	54.37
661.115	54.26
661.444	54.24
661.773	54.23
662.102	54.1
662.431	54.04
662.76	53.96
663.089	54.01
663.418	54.07
663.747	53.96
664.076	53.98
664.404	54.08
664.733	54.17
665.062	54.31
665.39	54.34
665.719	54.41
666.048	54.32
666.376	54.28
666.705	54.36
667.033	54.26
667.362	54.33
667.69	54.45
668.018	54.43
668.347	54.5
668.675	54.51
669.003	54.55
669.331	54.73
669.659	54.67
669.987	54.79
670.315	54.72
670.643	54.86
670.971	54.85
671.299	54.86
671.627	54.84
671.955	54.87
672.283	54.91
672.61	55
672.938	55.03
673.266	55.13
673.593	55.16
673.921	55.31
674.249	55.32
674.576	55.38
674.904	55.54
675.231	55.52
675.558	55.45
675.886	55.45
676.213	55.38
676.54	55.48
676.867	55.38
677.195	55.37
677.522	55.39
677.849	55.4
678.176	55.37
678.503	55.45
678.83	55.35
679.157	55.32
679.484	55.17
679.81	55.25
680.137	55.13
680.464	55.1
680.791	55.11
681.117	55.25
681.444	55.16
681.771	55.13
682.097	55.24
682.424	55.37
682.75	55.39
683.077	55.42
683.403	55.51
683.729	55.51
684.056	55.58
684.382	55.55
684.708	55.52
685.034	55.43
685.36	55.37
685.686	55.37
686.012	55.38
686.339	55.52
686.664	55.51
686.99	55.65
687.316	55.63
687.642	55.82
687.968	55.75
688.294	55.84
688.619	55.84
688.945	55.64
689.271	55.72
689.596	55.69
689.922	55.69
690.247	55.63
690.573	55.73
690.898	55.78
691.224	55.86
691.549	56.07
691.874	56.22
692.2	56.26
692.525	56.24
692.85	56.34
693.175	56.25
693.5	56.26
693.825	56.15
694.15	56.15
694.475	56.12
694.8	56.16
695.125	56.05
695.45	56.18
695.775	56.33
696.099	56.29
696.424	56.38
696.749	56.48
697.073	56.51
697.398	56.6
697.723	56.45
698.047	56.38
698.372	56.23
698.696	56.16
699.02	56.05
699.345	55.95
699.669	55.99
699.993	56.11
700.318	56.15
700.642	56.25
700.966	56.33
701.29	56.32
701.614	56.31
701.938	56.37
702.262	56.39
702.586	56.35
702.91	56.4
703.234	56.38
703.557	56.33
703.881	56.3
704.205	56.25
704.529	56.31
704.852	56.3
705.176	56.29
705.499	56.45
705.823	56.64
706.146	56.74
706.47	56.69
706.793	56.7
707.117	56.59
707.44	56.5
707.763	56.4
708.086	56.26
708.409	56.23
708.733	56.22
709.056	56.27
709.379	56.45
709.702	56.49
710.025	56.47
710.348	56.27
710.671	56.26
710.993	56.14
711.316	56.24
711.639	56.35
711.962	56.4
712.284	56.25
712.607	56.16
712.93	56.02
713.252	55.95
713.575	56.05
713.897	56.02
714.22	55.94
714.542	55.93
714.864	55.93
715.187	55.93
715.509	55.96
715.831	55.97
716.153	55.99
716.475	55.93
716.798	55.83
717.12	56.14
717.442	56.45
717.764	56.48
718.085	56.57
718.407	56.63
718.729	56.91
719.051	57.14
719.373	57.22
719.695	57.45
720.016	57.55
720.338	57.46
720.659	57.54
720.981	57.71
721.302	57.83
721.624	57.91
721.945	58.07
722.267	58.05
722.588	58.12
722.909	58.16
723.231	58.15
723.552	58.33
723.873	58.15
724.194	57.56
724.515	57.5
724.836	57.47
725.157	57.45
725.478	57.07
725.799	57.02
726.12	56.94
726.441	56.82
726.762	56.97
727.083	56.87
727.403	56.87
727.724	57.13
728.045	57.12
728.365	57.3
728.686	57.35
729.006	57.47
729.327	57.24
729.647	57.13
729.967	57.2
730.288	57.41
730.608	57.44
730.928	57.73
731.249	57.76
731.569	57.73
731.889	57.78
732.209	57.88
732.529	57.8
732.849	57.83
733.169	57.82
733.489	57.71
733.809	57.63
734.129	57.78
734.448	57.57
734.768	57.51
735.088	57.2
735.408	57.16
735.727	57.14
736.047	57.36
736.366	57.24
736.686	57.13
737.005	56.67
737.325	56.58
737.644	56.6
737.963	56.86
738.283	56.8
738.602	56.76
738.921	56.83
739.24	57.05
739.56	57.27
739.879	57.55
740.198	57.45
740.517	57.62
740.836	57.45
741.155	57.69
741.473	57.85
741.792	58.24
742.111	58.19
742.43	58.17
742.748	58
743.067	58.08
743.386	58.03
743.704	58.22
744.023	58.2
744.341	58.34
744.66	58.16
744.978	58.44
745.297	58.49
745.615	58.56
745.933	58.51
746.252	58.48
746.57	58.28
746.888	58.59
747.206	58.6
747.524	58.71
747.842	58.46
748.16	58.37
748.478	58.15
748.796	57.97
749.114	57.88
749.432	57.9
749.749	58.07
750.067	57.92
750.385	58.11
750.703	58.3
751.02	57.97
751.338	57.97
751.655	57.6
751.973	57.51
752.29	57.55
752.608	57.72
752.925	57.38
753.242	57.34
753.56	57.1
753.877	56.95
754.194	57.04
754.511	57.07
754.828	56.96
755.145	56.57
755.462	56.76
755.779	56.72
756.096	56.7
756.413	56.71
756.73	56.98
757.047	56.71
757.364	56.85
757.68	56.95
757.997	56.89
758.314	56.97
758.63	57.07
758.947	57.12
759.264	56.73
759.58	57.22
759.896	57.39
760.213	57.56
760.529	57.82
760.846	57.72
761.162	57.79
761.478	57.91
761.794	58.45
762.11	58.52
762.426	58.5
762.743	58.42
763.059	58.25
763.375	58.56
763.69	58.94
764.006	58.89
764.322	58.88
764.638	58.74
764.954	58.95
765.27	59.04
765.585	58.83
765.901	59
766.216	58.87
766.532	58.93
766.848	58.95
767.163	59.2
767.478	59.39
767.794	59.14
768.109	59.07
768.424	58.8
768.74	58.64
769.055	58.66
769.37	58.99
769.685	59.31
770	58.79
770.315	58.69
770.63	58.59
770.945	58.73
771.26	58.68
771.575	58.59
771.89	58.01
772.205	58.03
772.52	57.84
772.834	57.72
773.149	57.6
773.464	57.33
773.778	56.7
774.093	56.15
774.407	56.27
774.722	56.61
775.036	56.71
775.351	56.85
775.665	57.14
775.979	56.95
776.293	57.2
776.608	57.53
776.922	57.04
777.236	57.22
777.55	57.22
777.864	57.68
778.178	57.34
778.492	58.06
778.806	57.71
779.12	58.02
779.434	57.67
779.747	57.26
780.061	57.17
780.375	57.54
780.689	57.56
781.002	57.5
781.316	57.71
781.629	57.84
781.943	58.23
782.256	58.47
782.57	58.44
782.883	57.73
783.196	57.56
783.51	57.67
783.823	57.49
784.136	57.43
784.449	57.28
784.762	57.32
785.075	56.63
785.388	56.94
785.701	56.62
786.014	56.81
786.327	56.79
786.64	56.85
786.953	56.45
787.266	56.31
787.578	56.34
787.891	55.82
788.204	56.23
788.516	55.88
788.829	55.21
789.141	55.68
789.454	55.75
789.766	55.74
790.079	55.61
790.391	55.64
790.703	55.75
791.016	55.67
791.328	56.48
791.64	56.57
791.952	56.39
792.264	56.58
792.576	56.47
792.888	57.08
793.2	57.68
793.512	58.05
793.824	58.99
794.136	59.54
794.448	59.54
794.76	58.77
795.071	58.61
795.383	58.6
795.695	58.01
796.006	58.01
796.318	57.93
796.629	58.95
796.941	59.08
797.252	58.87
797.564	58.66
797.875	58
798.186	57.94
798.497	58.67
798.809	58.61
799.12	58.84
799.431	58.47
799.742	58.09
800.053	58.29
800.364	57.8
800.675	57.02
800.986	56.58
801.297	57.02
801.608	57.06
801.918	57.51
802.229	57.62
802.54	57.88
802.851	58.26
803.161	57.89
803.472	58.15
803.782	58.09
804.093	58.41
804.403	58.7
804.714	59.36
805.024	58.72
805.334	59.36
805.645	59.07
805.955	59.41
806.265	59.24
806.575	58.69
806.885	58.4
807.195	59
807.505	59.75
807.815	59.13
808.125	59.04
808.435	58.57
808.745	58.82
809.055	58.73
809.365	57.99
809.674	57.92
809.984	56.91
810.294	56.88
810.603	57.21
810.913	56.43
811.222	56.6
811.532	57.07
811.841	55.92
812.151	56.69
812.46	56.97
812.769	57.06
813.079	57.5
813.388	57.45
813.697	57.02
814.006	56.87
814.315	57.41
814.624	57.11
814.933	57.25
815.242	56.93
815.551	56.76
815.86	58.11
816.169	57.26
816.478	58.08
816.786	58.81
817.095	58.59
817.404	59.8
817.712	58.61
818.021	58.99
818.33	59.45
818.638	58.88
818.947	58.72
819.255	58.34
819.563	58.44
819.872	58.49
820.18	58.54
820.488	58.74
820.796	58.69
821.105	58.83
821.413	58.76
821.721	58.63
822.029	58.88
822.337	58.61
822.645	58.95
822.953	58.75
823.26	58.82
823.568	58.59
823.876	58.31
824.184	58.5
824.491	58.34
824.799	58.38
825.107	58.39
825.414	58.28
825.722	58.4
826.029	58.31
826.337	58.35
826.644	58.39
826.951	58.46
827.259	58.52
827.566	58.55
827.873	58.7
828.18	58.84
828.488	58.64
828.795	58.52
829.102	58.19
829.409	58.27
829.716	58.06
830.023	58.6
830.329	58.57
830.636	58.71
830.943	58.42
831.25	58.29
831.557	58.54
831.863	58.6
832.17	58.64
832.476	58.92
832.783	59.31
833.089	59.97
833.396	59.25
833.702	59.23
834.009	58.65
834.315	58.73
834.621	58.94
834.928	59.29
835.234	59.28
835.54	59.25
835.846	59.3
836.152	59.04
836.458	58.85
836.764	58.65
837.07	58.65
837.376	58.82
837.682	58.85
837.988	58.79
838.293	58.36
838.599	58.56
838.905	57.4
839.211	56.87
839.516	56.07
839.822	56.61
840.127	56.56
840.433	57.13
840.738	56.56
841.044	55.51
841.349	55.43
841.654	55.92
841.959	55.35
842.265	54.83
842.57	55.67
842.875	54.9
843.18	56.28
843.485	55.69
843.79	56.44
844.095	56.71
844.4	57.61
844.705	59.51
845.01	58.21
845.315	60.76
845.619	60.71
845.924	59.88
846.229	60.01
846.533	59.59
846.838	59.11
847.142	58.4
847.447	59.88
847.751	59.3
848.056	59.93
848.36	61.68
848.664	63.75
848.969	61.96
849.273	63.3
849.577	62.01
849.881	61.67
850.185	62.2
850.489	60.01
850.794	57.01
851.097	56.58
851.401	57.2
851.705	55.98
852.009	57.12
852.313	58.15
852.617	57.44
852.92	58.38
853.224	59.5
853.528	61.69
853.831	58.93
854.135	56.64
854.438	54.15
854.742	53.7
855.045	53.26
855.349	54.4
855.652	53.3
855.955	54.54
856.259	52.76
856.562	52.03
856.865	53.15
857.168	53.53
857.471	52.81
857.774	51.82
858.077	51.42
858.38	50.48
858.683	50.09
858.986	49.93
859.289	49.39
859.592	49.48
859.894	49.26
860.197	50.93
860.5	52.48
860.802	55.01
861.105	55.7
861.407	54.35
861.71	53.39
862.012	52.95
862.315	53.5
862.617	56.25
862.919	56.27
863.222	55.71
863.524	56.54
863.826	56.18
864.128	55.54
864.43	56.99
864.732	57.17
865.034	58.74
865.336	59.13
865.638	58.78
865.94	60.13
866.242	60.1
866.544	60.68
866.846	58.45
867.147	55.24
867.449	54.82
867.751	55.06
868.052	54.64
868.354	53.71
868.655	52.64
868.957	52.27
869.258	52.14
869.56	55.22
869.861	56.43
870.162	56.72
870.463	57.42
870.765	55.24
871.066	56.66
871.367	55.05
871.668	54
871.969	55.84
872.27	53.52
872.571	50.57
872.872	51.66
873.173	55.73
873.473	59.66
873.774	58.67
874.075	58
874.376	59.78
874.676	61.47
874.977	60.32
875.277	62.97
875.578	63.43
875.878	60.76
876.179	58.78
876.479	58.88
876.78	61.26
877.08	62.46
877.38	61.02
877.68	60.66
877.981	62.58
878.281	60.04
878.581	61.85
