Data from BU58130_Reflection_00007.txt Node
Date: Mon Nov 18 16:37:25 EST 2019
User: vgr7
Spectrometer: USB2G7710
Scans to average: 3
Trigger mode: 4
Integration Time (sec): 2.000000E-2
Electric dark correction enabled: true
Boxcar width: 10
XAxis mode: Wavelengths
Number of Pixels in Spectrum: 2048
>>>>>Begin Spectral Data<<<<<
177.721	626.72
178.105	-95.12
178.488	-129.46
178.871	-89.32
179.254	32.64
179.636	-262.07
180.019	305.48
180.402	82.76
180.785	-8.54
181.168	-1.35
181.55	44.88
181.933	43.79
182.316	42.68
182.698	33.15
183.081	13.1
183.463	-1.95
183.846	-8.74
184.228	-31.93
184.611	-80.49
184.993	36.42
185.376	-77.49
185.758	-46.07
186.14	104.29
186.522	121.9
186.904	264.56
187.287	560.32
187.669	-201.2
188.051	-1321.05
188.433	-1093.55
188.815	-98.88
189.197	-94.5
189.579	-63.64
189.961	-73.67
190.342	-86.37
190.724	-86
191.106	-105.54
191.488	-159.52
191.869	-142.6
192.251	-121.67
192.633	-709.52
193.014	-3566.67
193.396	2507.41
193.777	3447.83
194.159	244.19
194.54	140.94
194.922	-176.07
195.303	-187.67
195.684	-169.46
196.065	-24.69
196.447	-9.98
196.828	-21.15
197.209	-8.48
197.59	9.09
197.971	12.15
198.352	10.84
198.733	7.28
199.114	-5.67
199.495	-10.59
199.876	-12.64
200.257	-19.07
200.638	-18.94
201.018	-39.06
201.399	-34.75
201.78	-16.61
202.16	-28.41
202.541	-66.54
202.922	-78.06
203.302	-79.05
203.683	-69.84
204.063	-98.7
204.444	-87.12
204.824	-81.59
205.204	-63.64
205.585	-64.49
205.965	-76.89
206.345	-89.06
206.725	-105.1
207.106	-87.43
207.486	-194.59
207.866	-334.08
208.246	-219.26
208.626	-175.17
209.006	-109.2
209.386	-156.47
209.766	-171.39
210.145	-184.8
210.525	-160.14
210.905	-196.64
211.285	-639.13
211.664	-483.82
212.044	-947.06
212.424	4864.71
212.803	528.57
213.183	1296.72
213.562	-406.49
213.942	-140.07
214.321	-119.58
214.701	-108.94
215.08	-128.76
215.459	-90.53
215.838	-68.62
216.218	-95.06
216.597	-75.98
216.976	-88.95
217.355	-89.61
217.734	-90.43
218.113	-80.4
218.492	-60.04
218.871	-60.93
219.25	-52.62
219.629	-53.25
220.008	-39.4
220.387	-34.58
220.766	-30.43
221.144	-49.58
221.523	-57.89
221.902	-97.2
222.28	-114.77
222.659	-97.38
223.037	-86.03
223.416	-85.69
223.794	-92.18
224.173	-74.36
224.551	-71.95
224.929	-58.94
225.308	-40.86
225.686	-32.99
226.064	-29.87
226.442	-29
226.821	-23.51
227.199	-24.85
227.577	-21.48
227.955	-22.95
228.333	-22.41
228.711	-23.17
229.089	-16.35
229.467	-17.66
229.845	-16.7
230.222	-11.27
230.6	-9.9
230.978	-5.89
231.356	0.22
231.733	2.75
232.111	3.71
232.488	5.14
232.866	6.13
233.243	7.3
233.621	7.79
233.998	9.04
234.376	7.18
234.753	5.43
235.13	5.91
235.508	7.08
235.885	7.66
236.262	6.35
236.639	5.44
237.016	3.92
237.393	4.86
237.77	6.71
238.147	6.64
238.524	7.04
238.901	6.49
239.278	5.26
239.655	4.31
240.032	4.4
240.409	4.39
240.785	4.33
241.162	4.51
241.539	3.68
241.915	3.74
242.292	3.94
242.668	4.15
243.045	4.45
243.421	3.9
243.798	3.52
244.174	3.92
244.551	4.27
244.927	4.04
245.303	4.33
245.679	4.09
246.056	4
246.432	3.67
246.808	3.57
247.184	3.45
247.56	3.71
247.936	3.57
248.312	3.41
248.688	3.51
249.064	3.15
249.44	3.42
249.815	3.27
250.191	3.27
250.567	3.31
250.943	3.08
251.318	3.38
251.694	3.55
252.069	3.17
252.445	3.01
252.82	3.06
253.196	2.62
253.571	2.75
253.947	2.58
254.322	3.12
254.697	2.79
255.073	2.97
255.448	2.71
255.823	2.65
256.198	2.68
256.573	2.41
256.948	2.77
257.323	2.66
257.698	2.49
258.073	2.51
258.448	2.53
258.823	2.61
259.198	2.35
259.573	2.23
259.948	2.35
260.322	2.43
260.697	2.28
261.072	2.36
261.446	2.28
261.821	2.29
262.195	2.15
262.57	2.24
262.944	2.15
263.319	2.21
263.693	2.21
264.067	2.31
264.442	2.35
264.816	2.19
265.19	2.11
265.564	2.19
265.938	2.04
266.313	2.05
266.687	2.12
267.061	2.41
267.435	2.66
267.809	2.68
268.183	2.68
268.556	2.9
268.93	2.91
269.304	2.93
269.678	3.02
270.051	3.15
270.425	3.19
270.799	3.12
271.172	3.14
271.546	3.09
271.919	2.92
272.293	2.96
272.666	3
273.04	3.11
273.413	3.21
273.787	3.26
274.16	3.15
274.533	3.03
274.906	2.87
275.279	2.93
275.653	2.93
276.026	2.84
276.399	2.88
276.772	2.82
277.145	2.81
277.518	2.75
277.891	2.75
278.263	2.64
278.636	2.73
279.009	2.65
279.382	2.82
279.755	2.87
280.127	3.14
280.5	3.06
280.872	3.05
281.245	3.01
281.617	3.11
281.99	3.34
282.362	3.37
282.735	3.22
283.107	3.23
283.479	3.26
283.852	3.34
284.224	3.28
284.596	3.25
284.968	3.28
285.34	3.4
285.713	3.3
286.085	3.35
286.457	3.47
286.829	3.52
287.201	3.46
287.572	3.54
287.944	3.4
288.316	3.39
288.688	3.41
289.06	3.31
289.431	3.27
289.803	3.24
290.175	3.39
290.546	3.65
290.918	3.6
291.289	3.61
291.661	3.63
292.032	3.65
292.403	3.69
292.775	3.67
293.146	3.69
293.517	3.7
293.889	3.82
294.26	3.77
294.631	3.82
295.002	3.77
295.373	3.77
295.744	3.78
296.115	3.9
296.486	3.85
296.857	3.98
297.228	4.03
297.599	4.04
297.97	4.02
298.34	3.98
298.711	4.03
299.082	4
299.452	4.08
299.823	4.24
300.194	4.26
300.564	4.24
300.935	4.28
301.305	4.17
301.676	4.13
302.046	4.17
302.416	4.25
302.787	4.35
303.157	4.29
303.527	4.25
303.897	4.41
304.267	4.67
304.637	4.72
305.008	4.9
305.378	5.08
305.748	5.1
306.117	5.26
306.487	5.41
306.857	5.6
307.227	5.65
307.597	5.59
307.967	5.74
308.336	5.9
308.706	5.88
309.076	6.04
309.445	6.06
309.815	6.09
310.184	6.07
310.554	6.18
310.923	6.22
311.293	6.26
311.662	6.21
312.031	6.1
312.401	6.13
312.77	6.19
313.139	6.29
313.508	6.31
313.877	6.18
314.246	6.07
314.616	6.01
314.985	6
315.353	6.03
315.722	6.04
316.091	6.04
316.46	6.04
316.829	6.22
317.198	6.29
317.567	6.3
317.935	6.34
318.304	6.48
318.672	6.68
319.041	6.91
319.41	6.89
319.778	6.92
320.147	6.92
320.515	6.88
320.883	6.63
321.252	6.74
321.62	6.76
321.988	6.91
322.357	6.83
322.725	6.91
323.093	7.05
323.461	7.08
323.829	7.09
324.197	7.19
324.565	7.17
324.933	7.17
325.301	7.18
325.669	7.39
326.037	7.3
326.405	7.35
326.772	7.34
327.14	7.49
327.508	7.51
327.875	7.5
328.243	7.54
328.61	7.61
328.978	7.65
329.346	7.81
329.713	7.77
330.08	7.96
330.448	7.86
330.815	7.74
331.182	7.83
331.55	7.88
331.917	7.91
332.284	8.05
332.651	8.12
333.018	8.26
333.385	8.15
333.752	8.22
334.119	8.31
334.486	8.2
334.853	8.21
335.22	8.29
335.587	8.45
335.954	8.45
336.32	8.58
336.687	8.63
337.054	8.67
337.42	8.76
337.787	8.77
338.153	9.05
338.52	9.18
338.886	9.07
339.253	9.08
339.619	9.18
339.986	9.19
340.352	9.24
340.718	9.25
341.084	9.25
341.451	9.38
341.817	9.36
342.183	9.38
342.549	9.43
342.915	9.57
343.281	9.63
343.647	9.64
344.013	9.62
344.379	9.48
344.745	9.44
345.11	9.38
345.476	9.39
345.842	9.27
346.208	9.23
346.573	9.28
346.939	9.34
347.304	9.19
347.67	9.19
348.035	9.16
348.401	9.2
348.766	9.23
349.132	9.13
349.497	9.08
349.862	9.22
350.228	9.17
350.593	9.02
350.958	8.92
351.323	8.93
351.688	8.83
352.053	8.95
352.418	8.97
352.783	9.02
353.148	8.97
353.513	8.9
353.878	8.91
354.243	8.98
354.608	8.93
354.972	9.01
355.337	8.91
355.702	8.95
356.066	9.02
356.431	9
356.795	9.04
357.16	8.98
357.524	8.91
357.889	8.89
358.253	8.92
358.618	8.95
358.982	8.89
359.346	8.8
359.71	8.73
360.075	8.73
360.439	8.72
360.803	8.67
361.167	8.61
361.531	8.59
361.895	8.46
362.259	8.38
362.623	8.34
362.987	8.3
363.351	8.24
363.714	8.15
364.078	8.09
364.442	7.98
364.806	7.94
365.169	7.82
365.533	7.73
365.896	7.68
366.26	7.59
366.623	7.52
366.987	7.57
367.35	7.54
367.714	7.39
368.077	7.25
368.44	7.22
368.803	7.19
369.167	7.12
369.53	7.11
369.893	7.17
370.256	7
370.619	7.01
370.982	6.97
371.345	6.86
371.708	6.83
372.071	6.75
372.434	6.73
372.797	6.69
373.159	6.65
373.522	6.55
373.885	6.44
374.247	6.42
374.61	6.37
374.973	6.31
375.335	6.28
375.698	6.27
376.06	6.24
376.423	6.21
376.785	6.19
377.147	6.12
377.51	6
377.872	6.03
378.234	5.86
378.596	5.78
378.958	5.71
379.321	5.67
379.683	5.64
380.045	5.54
380.407	5.53
380.769	5.49
381.13	5.42
381.492	5.43
381.854	5.34
382.216	5.29
382.578	5.23
382.939	5.18
383.301	5.14
383.663	5.08
384.024	5.04
384.386	4.99
384.747	5
385.109	4.96
385.47	4.91
385.832	4.95
386.193	4.95
386.554	4.96
386.916	4.91
387.277	4.89
387.638	4.9
387.999	4.86
388.36	4.8
388.721	4.81
389.082	4.76
389.443	4.76
389.804	4.71
390.165	4.7
390.526	4.7
390.887	4.64
391.248	4.6
391.609	4.61
391.969	4.58
392.33	4.49
392.691	4.49
393.051	4.45
393.412	4.43
393.772	4.36
394.133	4.31
394.493	4.25
394.854	4.17
395.214	4.11
395.574	4.06
395.935	4.04
396.295	4
396.655	3.97
397.015	3.95
397.376	3.94
397.736	3.88
398.096	3.83
398.456	3.79
398.816	3.77
399.176	3.66
399.535	3.63
399.895	3.61
400.255	3.59
400.615	3.57
400.975	3.53
401.334	3.5
401.694	3.49
402.054	3.5
402.413	3.53
402.773	3.5
403.132	3.52
403.492	3.54
403.851	3.48
404.211	3.48
404.57	3.45
404.929	3.44
405.288	3.39
405.648	3.38
406.007	3.41
406.366	3.41
406.725	3.45
407.084	3.44
407.443	3.44
407.802	3.41
408.161	3.39
408.52	3.39
408.879	3.39
409.238	3.38
409.596	3.34
409.955	3.3
410.314	3.3
410.673	3.28
411.031	3.24
411.39	3.24
411.748	3.21
412.107	3.22
412.465	3.18
412.824	3.21
413.182	3.22
413.54	3.15
413.899	3.15
414.257	3.15
414.615	3.12
414.974	3.11
415.332	3.06
415.69	3.06
416.048	3.04
416.406	3.02
416.764	2.99
417.122	2.99
417.48	2.98
417.838	2.98
418.195	2.96
418.553	2.94
418.911	2.94
419.269	2.91
419.626	2.9
419.984	2.89
420.342	2.88
420.699	2.85
421.057	2.85
421.414	2.82
421.772	2.79
422.129	2.79
422.486	2.77
422.844	2.78
423.201	2.75
423.558	2.73
423.915	2.73
424.273	2.74
424.63	2.71
424.987	2.7
425.344	2.68
425.701	2.66
426.058	2.66
426.415	2.64
426.772	2.65
427.128	2.62
427.485	2.63
427.842	2.61
428.199	2.6
428.555	2.59
428.912	2.59
429.269	2.61
429.625	2.6
429.982	2.6
430.338	2.6
430.695	2.61
431.051	2.61
431.407	2.6
431.764	2.57
432.12	2.59
432.476	2.58
432.832	2.59
433.189	2.59
433.545	2.59
433.901	2.61
434.257	2.59
434.613	2.61
434.969	2.59
435.325	2.61
435.681	2.62
436.036	2.63
436.392	2.62
436.748	2.59
437.104	2.57
437.459	2.57
437.815	2.57
438.171	2.58
438.526	2.59
438.882	2.59
439.237	2.61
439.593	2.61
439.948	2.61
440.304	2.59
440.659	2.58
441.014	2.59
441.369	2.56
441.725	2.55
442.08	2.55
442.435	2.53
442.79	2.53
443.145	2.52
443.5	2.54
443.855	2.53
444.21	2.54
444.565	2.55
444.92	2.56
445.275	2.55
445.629	2.54
445.984	2.55
446.339	2.54
446.693	2.52
447.048	2.5
447.403	2.5
447.757	2.5
448.112	2.52
448.466	2.51
448.82	2.52
449.175	2.54
449.529	2.54
449.883	2.55
450.238	2.55
450.592	2.54
450.946	2.49
451.3	2.51
451.654	2.48
452.008	2.49
452.362	2.48
452.716	2.47
453.07	2.45
453.424	2.42
453.778	2.42
454.132	2.43
454.486	2.42
454.839	2.43
455.193	2.43
455.547	2.4
455.9	2.43
456.254	2.42
456.607	2.41
456.961	2.41
457.314	2.4
457.668	2.4
458.021	2.4
458.375	2.42
458.728	2.41
459.081	2.44
459.434	2.4
459.787	2.41
460.141	2.44
460.494	2.44
460.847	2.46
461.2	2.45
461.553	2.46
461.906	2.48
462.259	2.48
462.611	2.49
462.964	2.49
463.317	2.47
463.67	2.47
464.022	2.47
464.375	2.46
464.728	2.47
465.08	2.47
465.433	2.48
465.785	2.49
466.138	2.51
466.49	2.49
466.843	2.52
467.195	2.51
467.547	2.5
467.899	2.51
468.252	2.51
468.604	2.53
468.956	2.52
469.308	2.5
469.66	2.51
470.012	2.52
470.364	2.54
470.716	2.55
471.068	2.56
471.42	2.56
471.772	2.6
472.123	2.59
472.475	2.6
472.827	2.6
473.178	2.61
473.53	2.61
473.882	2.63
474.233	2.64
474.585	2.63
474.936	2.65
475.288	2.65
475.639	2.64
475.99	2.64
476.342	2.64
476.693	2.65
477.044	2.66
477.395	2.65
477.746	2.67
478.097	2.66
478.448	2.67
478.8	2.66
479.15	2.64
479.501	2.64
479.852	2.64
480.203	2.64
480.554	2.63
480.905	2.63
481.255	2.62
481.606	2.63
481.957	2.63
482.307	2.62
482.658	2.63
483.009	2.62
483.359	2.63
483.709	2.63
484.06	2.63
484.41	2.63
484.761	2.63
485.111	2.61
485.461	2.61
485.811	2.61
486.162	2.61
486.512	2.62
486.862	2.63
487.212	2.62
487.562	2.63
487.912	2.63
488.262	2.62
488.612	2.62
488.961	2.61
489.311	2.61
489.661	2.61
490.011	2.6
490.36	2.61
490.71	2.6
491.06	2.6
491.409	2.6
491.759	2.59
492.108	2.6
492.458	2.6
492.807	2.6
493.157	2.6
493.506	2.61
493.855	2.61
494.204	2.6
494.554	2.6
494.903	2.61
495.252	2.61
495.601	2.64
495.95	2.65
496.299	2.68
496.648	2.7
496.997	2.71
497.346	2.74
497.695	2.75
498.043	2.76
498.392	2.79
498.741	2.81
499.09	2.81
499.438	2.83
499.787	2.85
500.135	2.88
500.484	2.89
500.832	2.91
501.181	2.93
501.529	2.95
501.878	2.96
502.226	2.99
502.574	3.03
502.923	3.04
503.271	3.08
503.619	3.08
503.967	3.1
504.315	3.13
504.663	3.16
505.011	3.19
505.359	3.23
505.707	3.24
506.055	3.28
506.403	3.34
506.751	3.39
507.098	3.44
507.446	3.48
507.794	3.5
508.141	3.53
508.489	3.57
508.837	3.6
509.184	3.66
509.531	3.71
509.879	3.74
510.226	3.79
510.574	3.81
510.921	3.86
511.268	3.92
511.616	3.96
511.963	4.01
512.31	4.06
512.657	4.11
513.004	4.2
513.351	4.26
513.698	4.32
514.045	4.37
514.392	4.42
514.739	4.48
515.086	4.57
515.432	4.65
515.779	4.71
516.126	4.79
516.473	4.85
516.819	4.9
517.166	4.94
517.512	4.99
517.859	5.05
518.205	5.11
518.552	5.15
518.898	5.2
519.245	5.25
519.591	5.3
519.937	5.33
520.283	5.37
520.629	5.42
520.976	5.44
521.322	5.49
521.668	5.54
522.014	5.61
522.36	5.67
522.706	5.73
523.052	5.81
523.398	5.86
523.743	5.94
524.089	6.02
524.435	6.12
524.781	6.21
525.126	6.3
525.472	6.38
525.817	6.44
526.163	6.51
526.509	6.57
526.854	6.63
527.199	6.7
527.545	6.75
527.89	6.8
528.235	6.87
528.581	6.94
528.926	7.01
529.271	7.06
529.616	7.12
529.961	7.18
530.306	7.25
530.651	7.32
530.996	7.39
531.341	7.46
531.686	7.52
532.031	7.6
532.376	7.68
532.721	7.77
533.065	7.87
533.41	7.96
533.755	8.07
534.099	8.17
534.444	8.26
534.788	8.38
535.133	8.47
535.477	8.59
535.822	8.69
536.166	8.82
536.51	8.95
536.855	9.1
537.199	9.26
537.543	9.44
537.887	9.6
538.231	9.78
538.576	9.96
538.92	10.14
539.264	10.3
539.608	10.46
539.951	10.6
540.295	10.74
540.639	10.89
540.983	11.02
541.327	11.16
541.671	11.31
542.014	11.46
542.358	11.61
542.701	11.78
543.045	11.92
543.389	12.09
543.732	12.25
544.075	12.44
544.419	12.6
544.762	12.78
545.105	12.98
545.449	13.17
545.792	13.41
546.135	13.61
546.478	13.84
546.821	14.09
547.165	14.37
547.508	14.64
547.851	14.91
548.194	15.17
548.536	15.45
548.879	15.74
549.222	16.01
549.565	16.31
549.908	16.59
550.25	16.93
550.593	17.25
550.936	17.56
551.278	17.85
551.621	18.18
551.963	18.51
552.306	18.87
552.648	19.19
552.991	19.51
553.333	19.82
553.675	20.15
554.017	20.43
554.36	20.73
554.702	21.1
555.044	21.42
555.386	21.77
555.728	22.11
556.07	22.47
556.412	22.84
556.754	23.2
557.096	23.52
557.438	23.87
557.78	24.2
558.121	24.55
558.463	24.93
558.805	25.3
559.147	25.64
559.488	25.94
559.83	26.3
560.171	26.55
560.513	26.93
560.854	27.3
561.196	27.65
561.537	27.94
561.878	28.28
562.22	28.54
562.561	28.84
562.902	29.2
563.243	29.55
563.584	29.87
563.925	30.21
564.266	30.54
564.607	30.85
564.948	31.14
565.289	31.41
565.63	31.7
565.971	31.99
566.312	32.26
566.653	32.54
566.993	32.82
567.334	33.17
567.675	33.45
568.015	33.73
568.356	33.98
568.696	34.3
569.037	34.53
569.377	34.86
569.718	35.19
570.058	35.47
570.398	35.68
570.739	35.92
571.079	36.2
571.419	36.47
571.759	36.72
572.099	36.99
572.439	37.29
572.779	37.53
573.119	37.81
573.459	38.05
573.799	38.34
574.139	38.61
574.479	38.86
574.819	39.14
575.158	39.34
575.498	39.66
575.838	39.91
576.177	40.17
576.517	40.46
576.856	40.69
577.196	40.88
577.535	41.11
577.875	41.4
578.214	41.68
578.553	41.93
578.893	42.15
579.232	42.42
579.571	42.62
579.91	42.84
580.25	42.99
580.589	43.22
580.928	43.39
581.267	43.57
581.606	43.77
581.945	43.92
582.283	44.17
582.622	44.29
582.961	44.45
583.3	44.66
583.639	44.85
583.977	45.06
584.316	45.25
584.654	45.47
584.993	45.68
585.332	45.77
585.67	45.9
586.008	46.08
586.347	46.16
586.685	46.33
587.024	46.53
587.362	46.7
587.7	46.86
588.038	47.01
588.376	47.18
588.715	47.28
589.053	47.48
589.391	47.62
589.729	47.73
590.067	47.91
590.404	48.03
590.742	48.05
591.08	48.07
591.418	48.22
591.756	48.38
592.093	48.46
592.431	48.61
592.769	48.77
593.106	48.94
593.444	49.07
593.781	49.23
594.119	49.34
594.456	49.52
594.793	49.72
595.131	49.8
595.468	49.84
595.805	49.97
596.143	50.05
596.48	50.13
596.817	50.3
597.154	50.37
597.491	50.44
597.828	50.56
598.165	50.73
598.502	50.83
598.839	50.93
599.176	51.02
599.512	51.18
599.849	51.26
600.186	51.28
600.523	51.41
600.859	51.56
601.196	51.71
601.532	51.76
601.869	51.74
602.205	51.79
602.542	51.88
602.878	51.94
603.215	51.99
603.551	52.01
603.887	52.04
604.223	52.06
604.56	52.13
604.896	52.25
605.232	52.29
605.568	52.35
605.904	52.39
606.24	52.46
606.576	52.44
606.912	52.61
607.248	52.75
607.583	52.83
607.919	52.82
608.255	52.81
608.591	52.87
608.926	52.95
609.262	53.14
609.597	53.23
609.933	53.31
610.268	53.37
610.604	53.47
610.939	53.52
611.275	53.55
611.61	53.56
611.945	53.61
612.281	53.7
612.616	53.75
612.951	53.79
613.286	53.87
613.621	53.97
613.956	53.86
614.291	53.87
614.626	53.88
614.961	53.94
615.296	53.96
615.631	53.98
615.966	53.99
616.3	53.98
616.635	53.96
616.97	54.01
617.304	53.97
617.639	54.06
617.973	54.04
618.308	54.19
618.642	54.31
618.977	54.29
619.311	54.24
619.646	54.31
619.98	54.41
620.314	54.35
620.648	54.41
620.983	54.47
621.317	54.51
621.651	54.52
621.985	54.59
622.319	54.7
622.653	54.82
622.987	54.96
623.321	54.97
623.655	55.08
623.988	55.12
624.322	55.21
624.656	55.24
624.99	55.34
625.323	55.32
625.657	55.35
625.99	55.44
626.324	55.53
626.657	55.56
626.991	55.56
627.324	55.58
627.658	55.64
627.991	55.69
628.324	55.71
628.657	55.78
628.991	55.74
629.324	55.76
629.657	55.71
629.99	55.68
630.323	55.68
630.656	55.73
630.989	55.81
631.322	55.78
631.655	55.75
631.987	55.76
632.32	55.73
632.653	55.75
632.986	55.79
633.318	55.84
633.651	55.88
633.984	55.91
634.316	56.02
634.649	56.02
634.981	55.97
635.313	55.97
635.646	56.03
635.978	56.13
636.31	56.09
636.643	56.16
636.975	56.13
637.307	56.27
637.639	56.23
637.971	56.18
638.303	56.31
638.635	56.26
638.967	56.29
639.299	56.34
639.631	56.27
639.963	56.18
640.295	56.17
640.626	56.06
640.958	56.16
641.29	56.21
641.621	56.13
641.953	56.29
642.285	56.34
642.616	56.34
642.948	56.27
643.279	56.3
643.61	56.31
643.942	56.25
644.273	56.24
644.604	56.26
644.936	56.33
645.267	56.22
645.598	56.4
645.929	56.41
646.26	56.4
646.591	56.5
646.922	56.62
647.253	56.68
647.584	56.8
647.915	56.67
648.245	56.65
648.576	56.82
648.907	56.7
649.238	56.68
649.568	56.72
649.899	56.81
650.229	56.86
650.56	56.92
650.89	57.07
651.221	56.88
651.551	56.97
651.882	56.96
652.212	57.15
652.542	57.15
652.872	57.19
653.203	57.23
653.533	57.22
653.863	57.27
654.193	57.28
654.523	57.25
654.853	57.35
655.183	57.33
655.513	57.31
655.843	57.44
656.172	57.51
656.502	57.55
656.832	57.48
657.162	57.49
657.491	57.49
657.821	57.53
658.15	57.66
658.48	57.59
658.809	57.53
659.139	57.44
659.468	57.47
659.798	57.49
660.127	57.58
660.456	57.59
660.785	57.47
661.115	57.46
661.444	57.5
661.773	57.51
662.102	57.59
662.431	57.64
662.76	57.65
663.089	57.68
663.418	57.65
663.747	57.68
664.076	57.75
664.404	57.66
664.733	57.55
665.062	57.63
665.39	57.77
665.719	57.83
666.048	57.78
666.376	57.67
666.705	57.7
667.033	57.65
667.362	57.72
667.69	57.85
668.018	57.8
668.347	57.81
668.675	57.85
669.003	57.76
669.331	57.84
669.659	57.85
669.987	57.8
670.315	57.85
670.643	57.98
670.971	57.99
671.299	58
671.627	58.1
671.955	58.07
672.283	58
672.61	57.83
672.938	57.87
673.266	57.93
673.593	57.91
673.921	57.84
674.249	57.86
674.576	57.9
674.904	57.91
675.231	57.84
675.558	57.89
675.886	57.98
676.213	57.85
676.54	57.84
676.867	57.92
677.195	57.93
677.522	57.76
677.849	57.71
678.176	57.77
678.503	57.66
678.83	57.57
679.157	57.54
679.484	57.68
679.81	57.66
680.137	57.68
680.464	57.7
680.791	57.75
681.117	57.66
681.444	57.58
681.771	57.77
682.097	57.85
682.424	57.81
682.75	57.76
683.077	57.72
683.403	57.72
683.729	57.57
684.056	57.52
684.382	57.73
684.708	57.8
685.034	57.71
685.36	57.72
685.686	57.72
686.012	57.7
686.339	57.75
686.664	57.77
686.99	57.76
687.316	57.67
687.642	57.81
687.968	58.02
688.294	58.07
688.619	58.01
688.945	57.92
689.271	57.82
689.596	57.61
689.922	57.77
690.247	57.57
690.573	57.72
690.898	57.61
691.224	57.34
691.549	57.26
691.874	57.24
692.2	57.39
692.525	57.41
692.85	57.44
693.175	57.36
693.5	57.38
693.825	57.38
694.15	57.38
694.475	57.2
694.8	57.12
695.125	56.98
695.45	56.94
695.775	57.07
696.099	57.12
696.424	57.24
696.749	57.09
697.073	57.28
697.398	57.37
697.723	57.5
698.047	57.7
698.372	57.63
698.696	57.66
699.02	57.67
699.345	57.71
699.669	57.75
699.993	57.81
700.318	57.84
700.642	57.78
700.966	57.88
701.29	57.91
701.614	57.88
701.938	58.05
702.262	58.1
702.586	58.01
702.91	58.07
703.234	58.33
703.557	58.3
703.881	58.29
704.205	58.26
704.529	58.19
704.852	58.02
705.176	58.03
705.499	58.11
705.823	58.11
706.146	58.16
706.47	58.04
706.793	58.05
707.117	58.1
707.44	58.29
707.763	58.25
708.086	58.18
708.409	58.12
708.733	58.15
709.056	58.06
709.379	58.08
709.702	58.09
710.025	57.87
710.348	57.93
710.671	57.84
710.993	57.65
711.316	57.79
711.639	57.96
711.962	57.96
712.284	57.96
712.607	57.92
712.93	58.04
713.252	58.19
713.575	58.11
713.897	57.97
714.22	58.1
714.542	58.23
714.864	58.34
715.187	58.42
715.509	58.29
715.831	58.34
716.153	58.22
716.475	58.27
716.798	58.16
717.12	58.32
717.442	58.36
717.764	58.57
718.085	58.33
718.407	58.25
718.729	58.3
719.051	58.35
719.373	58.38
719.695	58.15
720.016	57.98
720.338	58.1
720.659	58.39
720.981	57.96
721.302	57.9
721.624	57.97
721.945	57.89
722.267	57.79
722.588	57.72
722.909	57.93
723.231	57.82
723.552	57.91
723.873	57.61
724.194	57.54
724.515	57.14
724.836	57.08
725.157	57.21
725.478	57.04
725.799	56.98
726.12	56.72
726.441	56.75
726.762	56.53
727.083	56.41
727.403	56.33
727.724	56.7
728.045	56.72
728.365	56.63
728.686	56.59
729.006	56.76
729.327	56.79
729.647	56.79
729.967	56.83
730.288	57.08
730.608	57.17
730.928	57.25
731.249	57.37
731.569	57.61
731.889	57.62
732.209	57.97
732.529	58.18
732.849	58.48
733.169	58.55
733.489	58.89
733.809	59.03
734.129	58.98
734.448	58.72
734.768	58.76
735.088	58.78
735.408	58.92
735.727	58.87
736.047	58.82
736.366	58.98
736.686	58.94
737.005	58.65
737.325	58.64
737.644	58.57
737.963	58.69
738.283	58.68
738.602	58.63
738.921	58.35
739.24	58.09
739.56	57.86
739.879	57.93
740.198	57.95
740.517	57.75
740.836	58.07
741.155	58.14
741.473	58.16
741.792	57.95
742.111	57.94
742.43	57.94
742.748	57.86
743.067	57.65
743.386	57.65
743.704	57.9
744.023	58.17
744.341	58.3
744.66	58.47
744.978	58.46
745.297	58.44
745.615	58.68
745.933	58.62
746.252	58.77
746.57	58.66
746.888	58.49
747.206	58.81
747.524	58.44
747.842	58.46
748.16	58.32
748.478	58.47
748.796	58.16
749.114	58.36
749.432	58.38
749.749	58.58
750.067	58.4
750.385	58.18
750.703	58
751.02	57.88
751.338	57.8
751.655	57.82
751.973	57.89
752.29	57.67
752.608	57.69
752.925	58.12
753.242	58.07
753.56	58.07
753.877	57.95
754.194	57.88
754.511	57.9
754.828	57.81
755.145	57.61
755.462	57.94
755.779	57.77
756.096	58.17
756.413	58.05
756.73	58.35
757.047	58.51
757.364	58.2
757.68	58.55
757.997	58.42
758.314	58.49
758.63	58.09
758.947	58.33
759.264	58.18
759.58	57.72
759.896	57.91
760.213	57.96
760.529	57.94
760.846	57.7
761.162	57.86
761.478	58.02
761.794	58.17
762.11	57.94
762.426	57.88
762.743	57.73
763.059	57.6
763.375	57.45
763.69	57.41
764.006	57.81
764.322	57.6
764.638	57.61
764.954	57.46
765.27	57.64
765.585	57.69
765.901	57.85
766.216	57.9
766.532	57.8
766.848	57.87
767.163	57.72
767.478	57.9
767.794	57.63
768.109	57.38
768.424	57.44
768.74	57.7
769.055	57.61
769.37	57.56
769.685	57.22
770	57.4
770.315	57.21
770.63	56.98
770.945	57.1
771.26	57.22
771.575	57.25
771.89	57.37
772.205	57.16
772.52	57.21
772.834	56.96
773.149	56.75
773.464	56.63
773.778	56.46
774.093	56.49
774.407	56.78
774.722	56.73
775.036	57.06
775.351	57.2
775.665	57.72
775.979	57.68
776.293	58.22
776.608	58.18
776.922	58.37
777.236	58.41
777.55	58.2
777.864	58.32
778.178	58.31
778.492	58.54
778.806	58.6
779.12	58.35
779.434	58.92
779.747	59.21
780.061	59.47
780.375	59.71
780.689	59.83
781.002	59.58
781.316	60.21
781.629	60.2
781.943	60.02
782.256	59.27
782.57	58.95
782.883	59.26
783.196	59.3
783.51	59.01
783.823	59.35
784.136	59.7
784.449	59.72
784.762	60
785.075	59.61
785.388	59.3
785.701	59.51
786.014	59.18
786.327	59.21
786.64	59.94
786.953	60.36
787.266	60.1
787.578	60.16
787.891	59.57
788.204	59.06
788.516	59.12
788.829	59.58
789.141	59.9
789.454	59.74
789.766	59.71
790.079	59.96
790.391	59.94
790.703	59.97
791.016	59.8
791.328	59.7
791.64	59.89
791.952	60.26
792.264	60.44
792.576	60.37
792.888	59.73
793.2	59.17
793.512	58.68
793.824	59.46
794.136	59.66
794.448	59.85
794.76	60.27
795.071	60.13
795.383	59.85
795.695	59.92
796.006	59.95
796.318	60.37
796.629	60.75
796.941	60.38
797.252	59.96
797.564	59.96
797.875	59.96
798.186	59.34
798.497	59.28
798.809	59.01
799.12	59.06
799.431	59.8
799.742	59.24
800.053	59.81
800.364	59.33
800.675	59.21
800.986	59.45
801.297	59.19
801.608	59.21
801.918	59.49
802.229	59.64
802.54	58.8
802.851	58.24
803.161	57.97
803.472	58.03
803.782	58.8
804.093	58.78
804.403	59.13
804.714	58.64
805.024	58.84
805.334	59.12
805.645	59.24
805.955	58.83
806.265	59.1
806.575	58.69
806.885	59.32
807.195	59.09
807.505	59.16
807.815	59.32
808.125	58.39
808.435	58.39
808.745	58.34
809.055	59.39
809.365	59.43
809.674	59.35
809.984	59.38
810.294	58.73
810.603	58.9
810.913	58.51
811.222	59.01
811.532	59.38
811.841	59.81
812.151	60.43
812.46	61.05
812.769	61.75
813.079	61.42
813.388	60.24
813.697	60.64
814.006	59.96
814.315	59.66
814.624	60.2
814.933	60.62
815.242	60.77
815.551	60.77
815.86	60.71
816.169	60.97
816.478	60.74
816.786	60.66
817.095	61.06
817.404	60.93
817.712	61.12
818.021	60.58
818.33	59.96
818.638	59.35
818.947	59.02
819.255	58.1
819.563	58.56
819.872	58.81
820.18	58.27
820.488	58.72
820.796	58.51
821.105	58.66
821.413	58.45
821.721	58.4
822.029	58.28
822.337	58.22
822.645	58.19
822.953	58.18
823.26	58.09
823.568	57.98
823.876	57.91
824.184	57.89
824.491	57.91
824.799	57.92
825.107	58.02
825.414	58.01
825.722	58.35
826.029	58.42
826.337	58.5
826.644	58.76
826.951	58.57
827.259	58.69
827.566	58.75
827.873	58.84
828.18	58.84
828.488	59.02
828.795	59.05
829.102	58.96
829.409	59.21
829.716	59.15
830.023	58.89
830.329	59.17
830.636	59.59
830.943	59.59
831.25	59.71
831.557	59.37
831.863	59.44
832.17	58.96
832.476	59.08
832.783	58.86
833.089	58.72
833.396	58.61
833.702	58.7
834.009	58.68
834.315	58.77
834.621	58.56
834.928	58.43
835.234	58.79
835.54	58.63
835.846	58.24
836.152	58.77
836.458	59.2
836.764	58.81
837.07	58.28
837.376	58.16
837.682	57.92
837.988	58.06
838.293	58.16
838.599	58.23
838.905	57.29
839.211	57.29
839.516	57.52
839.822	57.74
840.127	57.8
840.433	57.14
840.738	56.88
841.044	57.27
841.349	56.74
841.654	56.38
841.959	57.32
842.265	58.01
842.57	57.65
842.875	59.25
843.18	60.08
843.485	60.65
843.79	61.66
844.095	62.82
844.4	63.68
844.705	62.39
845.01	63.33
845.315	64.53
845.619	64.74
845.924	64.21
846.229	63.98
846.533	64.63
846.838	64.14
847.142	65
847.447	65.45
847.751	65.93
848.056	65.76
848.36	65.42
848.664	65.1
848.969	65.58
849.273	61.1
849.577	61.06
849.881	60.56
850.185	59.19
850.489	59.7
850.794	59.04
851.097	61.24
851.401	60.68
851.705	59.69
852.009	59.85
852.313	59.61
852.617	60.79
852.92	61.21
853.224	61.9
853.528	60.83
853.831	60.07
854.135	60.03
854.438	58.85
854.742	56.42
855.045	56.3
855.349	56.38
855.652	58.74
855.955	56.15
856.259	56.91
856.562	57.32
856.865	54.79
857.168	53.8
857.471	53.39
857.774	54.34
858.077	54.18
858.38	52.71
858.683	55.2
858.986	54.58
859.289	54.82
859.592	56.4
859.894	57.6
860.197	56.3
860.5	57.4
860.802	58.65
861.105	59.48
861.407	58.99
861.71	58
862.012	59.02
862.315	61.38
862.617	60.27
862.919	59.52
863.222	59.41
863.524	60.67
863.826	60.54
864.128	58.71
864.43	59.65
864.732	63.23
865.034	59.47
865.336	59
865.638	55.01
865.94	53.05
866.242	51.07
866.544	53.56
866.846	54.74
867.147	54.37
867.449	54.62
867.751	55.37
868.052	57.35
868.354	55.85
868.655	55.61
868.957	56.48
869.258	55.76
869.56	56.62
869.861	55.51
870.162	55.87
870.463	56.3
870.765	56.68
871.066	56.02
871.367	56.18
871.668	57.02
871.969	58.19
872.27	60.97
872.571	63.43
872.872	63.12
873.173	61.47
873.473	61.41
873.774	61.89
874.075	62.62
874.376	58.95
874.676	58.91
874.977	59.31
875.277	59.94
875.578	60.89
875.878	60.76
876.179	61.31
876.479	61.13
876.78	60.34
877.08	59.52
877.38	56.78
877.68	59.45
877.981	59.87
878.281	62.66
878.581	60.16
