Data from BU58131_Reflection_00006.txt Node
Date: Mon Nov 18 16:32:15 EST 2019
User: vgr7
Spectrometer: USB2G7710
Scans to average: 3
Trigger mode: 4
Integration Time (sec): 2.000000E-2
Electric dark correction enabled: true
Boxcar width: 10
XAxis mode: Wavelengths
Number of Pixels in Spectrum: 2048
>>>>>Begin Spectral Data<<<<<
177.721	256.55
178.105	-64.18
178.488	-171.82
178.871	8.48
179.254	37.1
179.636	68.75
180.019	-259.12
180.402	138.1
180.785	-292.2
181.168	315.03
181.55	93.98
181.933	78.63
182.316	73.31
182.698	74.69
183.081	83.93
183.463	102.42
183.846	84.68
184.228	109.71
184.611	129.61
184.993	209.26
185.376	151.36
185.758	141.57
186.14	199.46
186.522	302.2
186.904	231.34
187.287	209.44
187.669	396.45
188.051	458.11
188.433	747.6
188.815	670.75
189.197	1949.79
189.579	-481.5
189.961	-231.35
190.342	-293.62
190.724	-284.06
191.106	-342.87
191.488	-216.57
191.869	-196.64
192.251	-185.53
192.633	-149.54
193.014	-241.45
193.396	-181.43
193.777	-131.82
194.159	-143.26
194.54	-156.17
194.922	-162.69
195.303	-168.7
195.684	-233.82
196.065	-117.32
196.447	-108.9
196.828	-113.71
197.209	-48.13
197.59	-44.96
197.971	-72.54
198.352	-27.57
198.733	-16.33
199.114	-1.03
199.495	43.1
199.876	38.28
200.257	14.63
200.638	20.16
201.018	14.25
201.399	4.14
201.78	10.26
202.16	-2.55
202.541	-40.93
202.922	-35.89
203.302	-57.53
203.683	-37.02
204.063	-46.77
204.444	-63.01
204.824	-111.91
205.204	-148.3
205.585	-257.87
205.965	-148.41
206.345	-238.97
206.725	-706.32
207.106	-1100.57
207.486	-5209.28
207.866	1087.15
208.246	24317.39
208.626	2656.49
209.006	-1743.08
209.386	1691.78
209.766	2062.46
210.145	-1526.04
210.525	-323.92
210.905	-306.79
211.285	-292.49
211.664	-311.01
212.044	-304.03
212.424	-238.03
212.803	-220.51
213.183	-207.17
213.562	-168.5
213.942	-182.03
214.321	-136.57
214.701	-118.34
215.08	-130.04
215.459	-111.76
215.838	-102.5
216.218	-101.96
216.597	-95.44
216.976	-95.52
217.355	-72.9
217.734	-82.82
218.113	-90.08
218.492	-105.29
218.871	-109.83
219.25	-105.63
219.629	-96.99
220.008	-78.66
220.387	-90.87
220.766	-56.2
221.144	-77.03
221.523	-79.39
221.902	-67.52
222.28	-77.89
222.659	-61.58
223.037	-48.61
223.416	-55.48
223.794	-54.2
224.173	-37.91
224.551	-27.97
224.929	-45.77
225.308	-33
225.686	-25.24
226.064	-20.15
226.442	-11.75
226.821	-8.32
227.199	-6.85
227.577	-9.64
227.955	-9.24
228.333	-6.58
228.711	-7.23
229.089	0.37
229.467	1.46
229.845	-1
230.222	0.11
230.6	-2.58
230.978	-3.41
231.356	-1.7
231.733	-0.12
232.111	0.04
232.488	1.4
232.866	5.55
233.243	6.12
233.621	2.65
233.998	4.28
234.376	1.92
234.753	1.68
235.13	0.78
235.508	1.26
235.885	-0.87
236.262	-1.23
236.639	-0.41
237.016	-0.55
237.393	0.53
237.77	1.92
238.147	2.5
238.524	3.38
238.901	3.98
239.278	4.36
239.655	4.59
240.032	4.23
240.409	3.46
240.785	3.45
241.162	3.52
241.539	4.57
241.915	4.51
242.292	4.02
242.668	4.06
243.045	4.25
243.421	4.49
243.798	4.55
244.174	4.78
244.551	4.42
244.927	3.99
245.303	4.03
245.679	4.06
246.056	3.85
246.432	3.86
246.808	3.57
247.184	3.23
247.56	3.3
247.936	3.22
248.312	3.29
248.688	3.18
249.064	3.04
249.44	3.03
249.815	3.01
250.191	3.24
250.567	3.26
250.943	3.33
251.318	3.31
251.694	3.27
252.069	3.03
252.445	3.14
252.82	3.37
253.196	3.11
253.571	2.8
253.947	2.83
254.322	2.94
254.697	3.05
255.073	3.28
255.448	2.86
255.823	2.85
256.198	2.97
256.573	3.11
256.948	3.5
257.323	3.62
257.698	3.55
258.073	3.46
258.448	3.48
258.823	3.37
259.198	3.31
259.573	3.33
259.948	3.43
260.322	3.43
260.697	3.33
261.072	3.27
261.446	3.31
261.821	3.2
262.195	3.04
262.57	3.06
262.944	2.98
263.319	3.15
263.693	3.07
264.067	3.22
264.442	3.24
264.816	2.98
265.19	2.79
265.564	2.9
265.938	2.84
266.313	2.83
266.687	3.02
267.061	3.11
267.435	3.13
267.809	2.96
268.183	3
268.556	3.08
268.93	3.25
269.304	3.27
269.678	3.53
270.051	3.5
270.425	3.62
270.799	3.69
271.172	3.65
271.546	3.78
271.919	3.6
272.293	3.52
272.666	3.79
273.04	3.82
273.413	3.63
273.787	3.88
274.16	3.75
274.533	3.79
274.906	3.8
275.279	3.79
275.653	3.77
276.026	3.83
276.399	3.72
276.772	3.71
277.145	3.61
277.518	3.43
277.891	3.68
278.263	3.55
278.636	3.53
279.009	3.49
279.382	3.61
279.755	3.59
280.127	3.75
280.5	3.55
280.872	3.61
281.245	3.62
281.617	3.54
281.99	3.71
282.362	3.62
282.735	3.49
283.107	3.56
283.479	3.7
283.852	3.67
284.224	3.9
284.596	3.88
284.968	3.96
285.34	4.07
285.713	3.99
286.085	4.09
286.457	4.09
286.829	4.14
287.201	3.98
287.572	3.96
287.944	3.9
288.316	3.92
288.688	3.81
289.06	3.85
289.431	3.9
289.803	3.94
290.175	3.96
290.546	4.08
290.918	4.2
291.289	4.21
291.661	4.14
292.032	4.14
292.403	4.27
292.775	4.33
293.146	4.3
293.517	4.34
293.889	4.31
294.26	4.37
294.631	4.35
295.002	4.4
295.373	4.5
295.744	4.54
296.115	4.45
296.486	4.44
296.857	4.61
297.228	4.67
297.599	4.56
297.97	4.57
298.34	4.56
298.711	4.59
299.082	4.67
299.452	4.78
299.823	4.74
300.194	4.65
300.564	4.56
300.935	4.61
301.305	4.48
301.676	4.54
302.046	4.59
302.416	4.69
302.787	4.77
303.157	4.77
303.527	4.66
303.897	4.83
304.267	5.09
304.637	5
305.008	5.1
305.378	5.14
305.748	5.15
306.117	5.13
306.487	5.07
306.857	4.98
307.227	4.97
307.597	4.93
307.967	5.03
308.336	5.11
308.706	5.14
309.076	5.16
309.445	5.13
309.815	5.16
310.184	5.09
310.554	5.09
310.923	4.98
311.293	5.17
311.662	5.23
312.031	5.06
312.401	5.1
312.77	5.18
313.139	5.29
313.508	5.34
313.877	5.3
314.246	5.27
314.616	5.22
314.985	5.15
315.353	5.06
315.722	5.08
316.091	4.9
316.46	4.86
316.829	5.05
317.198	5.18
317.567	5.05
317.935	5.2
318.304	5.3
318.672	5.26
319.041	5.21
319.41	4.91
319.778	5.06
320.147	4.92
320.515	4.67
320.883	4.56
321.252	4.64
321.62	4.79
321.988	4.82
322.357	4.93
322.725	4.99
323.093	5.26
323.461	5.13
323.829	5.41
324.197	5.35
324.565	5.31
324.933	5.3
325.301	5.3
325.669	5.28
326.037	5.31
326.405	5.46
326.772	5.37
327.14	5.54
327.508	5.47
327.875	5.44
328.243	5.48
328.61	5.5
328.978	5.42
329.346	5.52
329.713	5.34
330.08	5.36
330.448	5.23
330.815	5.22
331.182	5.32
331.55	5.22
331.917	5.29
332.284	5.39
332.651	5.29
333.018	5.31
333.385	5.2
333.752	5.06
334.119	5.12
334.486	5.14
334.853	5.14
335.22	5.18
335.587	5.23
335.954	5.17
336.32	5.23
336.687	5.19
337.054	4.95
337.42	5.15
337.787	5.04
338.153	5.15
338.52	5.08
338.886	5.04
339.253	5.01
339.619	4.97
339.986	4.88
340.352	4.89
340.718	4.94
341.084	4.95
341.451	4.99
341.817	5.01
342.183	5.01
342.549	5.1
342.915	5.11
343.281	5.16
343.647	5.24
344.013	5.28
344.379	5.27
344.745	5.36
345.11	5.32
345.476	5.28
345.842	5.22
346.208	5.26
346.573	5.33
346.939	5.4
347.304	5.33
347.67	5.27
348.035	5.22
348.401	5.13
348.766	5.17
349.132	5.12
349.497	5.03
349.862	5.06
350.228	4.95
350.593	4.92
350.958	4.9
351.323	4.92
351.688	4.86
352.053	4.94
352.418	5.02
352.783	5.07
353.148	5.1
353.513	5.07
353.878	5.02
354.243	4.98
354.608	5.01
354.972	5.13
355.337	5.15
355.702	5.27
356.066	5.47
356.431	5.45
356.795	5.48
357.16	5.47
357.524	5.41
357.889	5.41
358.253	5.39
358.618	5.45
358.982	5.39
359.346	5.34
359.71	5.34
360.075	5.3
360.439	5.32
360.803	5.36
361.167	5.36
361.531	5.34
361.895	5.27
362.259	5.21
362.623	5.15
362.987	5.14
363.351	5.09
363.714	5
364.078	5.03
364.442	5.05
364.806	5.05
365.169	5.08
365.533	5.12
365.896	5.18
366.26	5.07
366.623	5.04
366.987	5.02
367.35	4.94
367.714	4.94
368.077	4.87
368.44	4.86
368.803	4.82
369.167	4.81
369.53	4.81
369.893	4.88
370.256	4.94
370.619	4.98
370.982	4.91
371.345	4.88
371.708	4.8
372.071	4.73
372.434	4.72
372.797	4.74
373.159	4.72
373.522	4.68
373.885	4.75
374.247	4.77
374.61	4.83
374.973	4.83
375.335	4.78
375.698	4.79
376.06	4.79
376.423	4.82
376.785	4.87
377.147	4.96
377.51	4.85
377.872	4.85
378.234	4.79
378.596	4.84
378.958	4.81
379.321	4.88
379.683	4.89
380.045	4.9
380.407	4.88
380.769	4.85
381.13	4.82
381.492	4.78
381.854	4.8
382.216	4.77
382.578	4.77
382.939	4.73
383.301	4.71
383.663	4.66
384.024	4.74
384.386	4.69
384.747	4.65
385.109	4.68
385.47	4.62
385.832	4.61
386.193	4.6
386.554	4.56
386.916	4.55
387.277	4.54
387.638	4.53
387.999	4.5
388.36	4.52
388.721	4.54
389.082	4.55
389.443	4.54
389.804	4.52
390.165	4.52
390.526	4.54
390.887	4.53
391.248	4.59
391.609	4.56
391.969	4.55
392.33	4.49
392.691	4.49
393.051	4.51
393.412	4.49
393.772	4.46
394.133	4.51
394.493	4.47
394.854	4.46
395.214	4.45
395.574	4.46
395.935	4.45
396.295	4.44
396.655	4.38
397.015	4.31
397.376	4.3
397.736	4.28
398.096	4.27
398.456	4.26
398.816	4.23
399.176	4.17
399.535	4.15
399.895	4.16
400.255	4.17
400.615	4.14
400.975	4.15
401.334	4.16
401.694	4.11
402.054	4.14
402.413	4.14
402.773	4.13
403.132	4.11
403.492	4.09
403.851	4.06
404.211	4.08
404.57	4.1
404.929	4.11
405.288	4.13
405.648	4.09
406.007	4.08
406.366	4.03
406.725	4.07
407.084	4.07
407.443	4.08
407.802	4.07
408.161	4.06
408.52	4.03
408.879	4.01
409.238	4.03
409.596	3.97
409.955	3.96
410.314	3.96
410.673	3.94
411.031	3.89
411.39	3.9
411.748	3.89
412.107	3.91
412.465	3.9
412.824	3.88
413.182	3.87
413.54	3.87
413.899	3.86
414.257	3.84
414.615	3.85
414.974	3.84
415.332	3.81
415.69	3.8
416.048	3.78
416.406	3.79
416.764	3.77
417.122	3.8
417.48	3.79
417.838	3.78
418.195	3.78
418.553	3.8
418.911	3.78
419.269	3.78
419.626	3.77
419.984	3.75
420.342	3.74
420.699	3.74
421.057	3.75
421.414	3.75
421.772	3.74
422.129	3.72
422.486	3.72
422.844	3.72
423.201	3.73
423.558	3.73
423.915	3.71
424.273	3.69
424.63	3.67
424.987	3.65
425.344	3.64
425.701	3.63
426.058	3.62
426.415	3.62
426.772	3.61
427.128	3.58
427.485	3.58
427.842	3.57
428.199	3.56
428.555	3.54
428.912	3.52
429.269	3.52
429.625	3.53
429.982	3.5
430.338	3.5
430.695	3.5
431.051	3.5
431.407	3.52
431.764	3.53
432.12	3.53
432.476	3.54
432.832	3.53
433.189	3.53
433.545	3.54
433.901	3.53
434.257	3.52
434.613	3.53
434.969	3.53
435.325	3.53
435.681	3.54
436.036	3.53
436.392	3.53
436.748	3.53
437.104	3.51
437.459	3.51
437.815	3.5
438.171	3.48
438.526	3.49
438.882	3.48
439.237	3.48
439.593	3.48
439.948	3.47
440.304	3.45
440.659	3.47
441.014	3.46
441.369	3.44
441.725	3.43
442.08	3.43
442.435	3.41
442.79	3.4
443.145	3.4
443.5	3.4
443.855	3.4
444.21	3.39
444.565	3.4
444.92	3.4
445.275	3.39
445.629	3.39
445.984	3.39
446.339	3.39
446.693	3.38
447.048	3.37
447.403	3.37
447.757	3.38
448.112	3.36
448.466	3.35
448.82	3.36
449.175	3.39
449.529	3.37
449.883	3.36
450.238	3.37
450.592	3.36
450.946	3.36
451.3	3.36
451.654	3.36
452.008	3.37
452.362	3.36
452.716	3.36
453.07	3.36
453.424	3.34
453.778	3.33
454.132	3.32
454.486	3.3
454.839	3.3
455.193	3.29
455.547	3.3
455.9	3.31
456.254	3.32
456.607	3.3
456.961	3.32
457.314	3.31
457.668	3.32
458.021	3.3
458.375	3.3
458.728	3.31
459.081	3.31
459.434	3.28
459.787	3.29
460.141	3.28
460.494	3.3
460.847	3.29
461.2	3.29
461.553	3.31
461.906	3.32
462.259	3.33
462.611	3.33
462.964	3.33
463.317	3.32
463.67	3.31
464.022	3.31
464.375	3.3
464.728	3.32
465.08	3.32
465.433	3.31
465.785	3.3
466.138	3.3
466.49	3.3
466.843	3.3
467.195	3.3
467.547	3.31
467.899	3.3
468.252	3.31
468.604	3.32
468.956	3.31
469.308	3.33
469.66	3.32
470.012	3.34
470.364	3.34
470.716	3.33
471.068	3.34
471.42	3.34
471.772	3.37
472.123	3.37
472.475	3.39
472.827	3.4
473.178	3.42
473.53	3.43
473.882	3.43
474.233	3.44
474.585	3.42
474.936	3.41
475.288	3.41
475.639	3.44
475.99	3.43
476.342	3.45
476.693	3.43
477.044	3.46
477.395	3.45
477.746	3.44
478.097	3.46
478.448	3.46
478.8	3.47
479.15	3.45
479.501	3.44
479.852	3.44
480.203	3.44
480.554	3.44
480.905	3.47
481.255	3.49
481.606	3.5
481.957	3.52
482.307	3.52
482.658	3.52
483.009	3.52
483.359	3.51
483.709	3.51
484.06	3.52
484.41	3.51
484.761	3.52
485.111	3.53
485.461	3.54
485.811	3.54
486.162	3.54
486.512	3.55
486.862	3.56
487.212	3.56
487.562	3.56
487.912	3.56
488.262	3.55
488.612	3.54
488.961	3.53
489.311	3.53
489.661	3.53
490.011	3.53
490.36	3.53
490.71	3.54
491.06	3.54
491.409	3.54
491.759	3.54
492.108	3.53
492.458	3.53
492.807	3.53
493.157	3.53
493.506	3.54
493.855	3.53
494.204	3.53
494.554	3.54
494.903	3.55
495.252	3.57
495.601	3.59
495.95	3.6
496.299	3.61
496.648	3.6
496.997	3.61
497.346	3.61
497.695	3.62
498.043	3.64
498.392	3.65
498.741	3.68
499.09	3.7
499.438	3.71
499.787	3.7
500.135	3.73
500.484	3.71
500.832	3.72
501.181	3.75
501.529	3.74
501.878	3.76
502.226	3.79
502.574	3.79
502.923	3.8
503.271	3.82
503.619	3.86
503.967	3.91
504.315	3.93
504.663	3.97
505.011	3.99
505.359	3.99
505.707	4.01
506.055	4.01
506.403	4.04
506.751	4.06
507.098	4.09
507.446	4.11
507.794	4.11
508.141	4.15
508.489	4.15
508.837	4.2
509.184	4.21
509.531	4.22
509.879	4.23
510.226	4.28
510.574	4.3
510.921	4.32
511.268	4.33
511.616	4.34
511.963	4.35
512.31	4.37
512.657	4.4
513.004	4.43
513.351	4.47
513.698	4.49
514.045	4.5
514.392	4.5
514.739	4.53
515.086	4.59
515.432	4.59
515.779	4.61
516.126	4.63
516.473	4.67
516.819	4.69
517.166	4.72
517.512	4.72
517.859	4.75
518.205	4.77
518.552	4.79
518.898	4.82
519.245	4.83
519.591	4.85
519.937	4.86
520.283	4.86
520.629	4.89
520.976	4.9
521.322	4.94
521.668	4.98
522.014	5
522.36	5
522.706	5.03
523.052	5.06
523.398	5.09
523.743	5.12
524.089	5.14
524.435	5.15
524.781	5.18
525.126	5.2
525.472	5.23
525.817	5.25
526.163	5.27
526.509	5.29
526.854	5.3
527.199	5.32
527.545	5.33
527.89	5.33
528.235	5.34
528.581	5.35
528.926	5.36
529.271	5.37
529.616	5.38
529.961	5.4
530.306	5.43
530.651	5.44
530.996	5.45
531.341	5.46
531.686	5.47
532.031	5.49
532.376	5.49
532.721	5.49
533.065	5.5
533.41	5.5
533.755	5.51
534.099	5.55
534.444	5.56
534.788	5.58
535.133	5.6
535.477	5.62
535.822	5.62
536.166	5.64
536.51	5.65
536.855	5.67
537.199	5.7
537.543	5.69
537.887	5.7
538.231	5.72
538.576	5.75
538.92	5.77
539.264	5.79
539.608	5.81
539.951	5.82
540.295	5.84
540.639	5.87
540.983	5.88
541.327	5.89
541.671	5.9
542.014	5.91
542.358	5.92
542.701	5.96
543.045	5.96
543.389	6.01
543.732	6.03
544.075	6.05
544.419	6.05
544.762	6.08
545.105	6.11
545.449	6.12
545.792	6.11
546.135	6.13
546.478	6.14
546.821	6.14
547.165	6.18
547.508	6.19
547.851	6.21
548.194	6.21
548.536	6.22
548.879	6.23
549.222	6.24
549.565	6.28
549.908	6.27
550.25	6.29
550.593	6.26
550.936	6.28
551.278	6.28
551.621	6.3
551.963	6.33
552.306	6.32
552.648	6.33
552.991	6.37
553.333	6.4
553.675	6.4
554.017	6.45
554.36	6.42
554.702	6.44
555.044	6.44
555.386	6.45
555.728	6.48
556.07	6.51
556.412	6.48
556.754	6.47
557.096	6.49
557.438	6.51
557.78	6.54
558.121	6.55
558.463	6.56
558.805	6.59
559.147	6.57
559.488	6.59
559.83	6.59
560.171	6.61
560.513	6.63
560.854	6.62
561.196	6.64
561.537	6.69
561.878	6.72
562.22	6.72
562.561	6.76
562.902	6.78
563.243	6.8
563.584	6.87
563.925	6.87
564.266	6.88
564.607	6.89
564.948	6.89
565.289	6.91
565.63	6.91
565.971	6.9
566.312	6.93
566.653	6.95
566.993	6.96
567.334	6.95
567.675	6.97
568.015	6.98
568.356	6.97
568.696	6.96
569.037	6.94
569.377	6.95
569.718	6.95
570.058	6.96
570.398	6.94
570.739	6.93
571.079	6.96
571.419	6.94
571.759	6.93
572.099	6.93
572.439	6.9
572.779	6.91
573.119	6.93
573.459	6.93
573.799	6.95
574.139	6.92
574.479	6.93
574.819	6.91
575.158	6.92
575.498	6.92
575.838	6.9
576.177	6.89
576.517	6.91
576.856	6.91
577.196	6.89
577.535	6.9
577.875	6.89
578.214	6.86
578.553	6.88
578.893	6.88
579.232	6.9
579.571	6.96
579.91	6.97
580.25	6.98
580.589	6.98
580.928	6.97
581.267	6.99
581.606	6.95
581.945	6.95
582.283	6.95
582.622	6.94
582.961	6.95
583.3	6.98
583.639	6.96
583.977	6.97
584.316	6.95
584.654	6.94
584.993	6.97
585.332	6.99
585.67	6.98
586.008	6.99
586.347	6.95
586.685	6.87
587.024	6.88
587.362	6.87
587.7	6.84
588.038	6.84
588.376	6.82
588.715	6.86
589.053	6.86
589.391	6.87
589.729	6.91
590.067	6.92
590.404	6.9
590.742	6.93
591.08	6.91
591.418	6.93
591.756	6.93
592.093	6.92
592.431	6.94
592.769	6.96
593.106	7.01
593.444	7.03
593.781	7.08
594.119	7.11
594.456	7.09
594.793	7.12
595.131	7.12
595.468	7.19
595.805	7.2
596.143	7.18
596.48	7.17
596.817	7.16
597.154	7.18
597.491	7.2
597.828	7.17
598.165	7.17
598.502	7.19
598.839	7.19
599.176	7.18
599.512	7.19
599.849	7.18
600.186	7.17
600.523	7.21
600.859	7.24
601.196	7.23
601.532	7.22
601.869	7.19
602.205	7.21
602.542	7.19
602.878	7.21
603.215	7.22
603.551	7.24
603.887	7.26
604.223	7.25
604.56	7.26
604.896	7.28
605.232	7.28
605.568	7.28
605.904	7.27
606.24	7.29
606.576	7.25
606.912	7.24
607.248	7.23
607.583	7.18
607.919	7.16
608.255	7.12
608.591	7.14
608.926	7.16
609.262	7.16
609.597	7.16
609.933	7.17
610.268	7.23
610.604	7.25
610.939	7.22
611.275	7.21
611.61	7.2
611.945	7.19
612.281	7.18
612.616	7.19
612.951	7.25
613.286	7.24
613.621	7.28
613.956	7.29
614.291	7.26
614.626	7.27
614.961	7.28
615.296	7.29
615.631	7.27
615.966	7.29
616.3	7.27
616.635	7.28
616.97	7.3
617.304	7.24
617.639	7.21
617.973	7.19
618.308	7.21
618.642	7.23
618.977	7.24
619.311	7.3
619.646	7.29
619.98	7.25
620.314	7.26
620.648	7.23
620.983	7.23
621.317	7.24
621.651	7.29
621.985	7.29
622.319	7.31
622.653	7.31
622.987	7.31
623.321	7.28
623.655	7.24
623.988	7.23
624.322	7.22
624.656	7.18
624.99	7.22
625.323	7.18
625.657	7.17
625.99	7.19
626.324	7.14
626.657	7.15
626.991	7.18
627.324	7.15
627.658	7.2
627.991	7.19
628.324	7.23
628.657	7.2
628.991	7.24
629.324	7.22
629.657	7.26
629.99	7.22
630.323	7.26
630.656	7.31
630.989	7.35
631.322	7.35
631.655	7.38
631.987	7.44
632.32	7.46
632.653	7.39
632.986	7.37
633.318	7.32
633.651	7.3
633.984	7.3
634.316	7.3
634.649	7.27
634.981	7.28
635.313	7.31
635.646	7.28
635.978	7.25
636.31	7.3
636.643	7.28
636.975	7.36
637.307	7.36
637.639	7.3
637.971	7.23
638.303	7.24
638.635	7.24
638.967	7.2
639.299	7.25
639.631	7.34
639.963	7.35
640.295	7.43
640.626	7.46
640.958	7.51
641.29	7.57
641.621	7.55
641.953	7.53
642.285	7.45
642.616	7.49
642.948	7.41
643.279	7.34
643.61	7.32
643.942	7.32
644.273	7.35
644.604	7.4
644.936	7.47
645.267	7.47
645.598	7.47
645.929	7.49
646.26	7.4
646.591	7.32
646.922	7.3
647.253	7.3
647.584	7.26
647.915	7.18
648.245	7.12
648.576	7.18
648.907	7.21
649.238	7.24
649.568	7.23
649.899	7.25
650.229	7.29
650.56	7.33
650.89	7.32
651.221	7.26
651.551	7.22
651.882	7.16
652.212	7.21
652.542	7.22
652.872	7.18
653.203	7.18
653.533	7.27
653.863	7.29
654.193	7.34
654.523	7.32
654.853	7.33
655.183	7.31
655.513	7.25
655.843	7.23
656.172	7.25
656.502	7.32
656.832	7.3
657.162	7.27
657.491	7.23
657.821	7.2
658.15	7.23
658.48	7.27
658.809	7.3
659.139	7.25
659.468	7.17
659.798	7.21
660.127	7.3
660.456	7.34
660.785	7.36
661.115	7.35
661.444	7.39
661.773	7.38
662.102	7.41
662.431	7.47
662.76	7.47
663.089	7.46
663.418	7.37
663.747	7.36
664.076	7.37
664.404	7.35
664.733	7.41
665.062	7.35
665.39	7.34
665.719	7.33
666.048	7.38
666.376	7.49
666.705	7.46
667.033	7.41
667.362	7.38
667.69	7.39
668.018	7.39
668.347	7.44
668.675	7.43
669.003	7.42
669.331	7.42
669.659	7.5
669.987	7.44
670.315	7.47
670.643	7.52
670.971	7.59
671.299	7.67
671.627	7.68
671.955	7.76
672.283	7.81
672.61	7.77
672.938	7.77
673.266	7.82
673.593	7.85
673.921	7.88
674.249	7.85
674.576	7.86
674.904	7.8
675.231	7.74
675.558	7.74
675.886	7.76
676.213	7.82
676.54	7.84
676.867	7.91
677.195	7.94
677.522	8
677.849	7.99
678.176	7.9
678.503	7.77
678.83	7.77
679.157	7.78
679.484	7.7
679.81	7.72
680.137	7.58
680.464	7.55
680.791	7.54
681.117	7.49
681.444	7.48
681.771	7.56
682.097	7.5
682.424	7.62
682.75	7.68
683.077	7.58
683.403	7.49
683.729	7.55
684.056	7.58
684.382	7.52
684.708	7.48
685.034	7.58
685.36	7.68
685.686	7.65
686.012	7.59
686.339	7.75
686.664	7.73
686.99	7.81
687.316	7.82
687.642	7.87
687.968	7.9
688.294	7.89
688.619	7.91
688.945	7.88
689.271	7.74
689.596	7.71
689.922	7.76
690.247	7.69
690.573	7.59
690.898	7.58
691.224	7.66
691.549	7.62
691.874	7.62
692.2	7.66
692.525	7.76
692.85	7.79
693.175	7.78
693.5	7.68
693.825	7.72
694.15	7.81
694.475	7.67
694.8	7.73
695.125	7.76
695.45	7.64
695.775	7.75
696.099	7.81
696.424	7.77
696.749	7.75
697.073	7.88
697.398	7.9
697.723	7.92
698.047	7.82
698.372	7.82
698.696	7.81
699.02	7.85
699.345	7.76
699.669	7.88
699.993	7.78
700.318	7.82
700.642	7.77
700.966	7.76
701.29	7.85
701.614	7.86
701.938	7.91
702.262	8.01
702.586	8
702.91	7.9
703.234	7.88
703.557	7.94
703.881	7.91
704.205	7.85
704.529	7.88
704.852	7.89
705.176	8
705.499	8.02
705.823	7.82
706.146	7.87
706.47	7.68
706.793	7.76
707.117	7.74
707.44	7.87
707.763	7.7
708.086	7.62
708.409	7.55
708.733	7.4
709.056	7.41
709.379	7.56
709.702	7.57
710.025	7.47
710.348	7.45
710.671	7.31
710.993	7.44
711.316	7.46
711.639	7.48
711.962	7.52
712.284	7.54
712.607	7.67
712.93	7.51
713.252	7.59
713.575	7.67
713.897	7.63
714.22	7.59
714.542	7.73
714.864	7.82
715.187	7.79
715.509	7.83
715.831	7.89
716.153	7.82
716.475	7.88
716.798	8.1
717.12	8.05
717.442	8.18
717.764	8.09
718.085	7.93
718.407	8.05
718.729	7.98
719.051	7.97
719.373	8.08
719.695	8.24
720.016	8.13
720.338	7.96
720.659	7.98
720.981	8.01
721.302	7.97
721.624	8.05
721.945	8.13
722.267	8.19
722.588	8.07
722.909	8.11
723.231	8.11
723.552	8
723.873	8.02
724.194	7.92
724.515	8.07
724.836	8.03
725.157	7.97
725.478	7.97
725.799	8.04
726.12	7.96
726.441	7.9
726.762	7.97
727.083	8.21
727.403	8.21
727.724	8.26
728.045	8.34
728.365	8.32
728.686	8.31
729.006	8.21
729.327	8.15
729.647	8.16
729.967	8.22
730.288	8.26
730.608	8.12
730.928	8.28
731.249	8.17
731.569	8.34
731.889	8.19
732.209	8.15
732.529	8.12
732.849	8.15
733.169	8.24
733.489	8.12
733.809	7.96
734.129	8.09
734.448	8.11
734.768	8.04
735.088	8.04
735.408	8.11
735.727	8.25
736.047	8.26
736.366	8.22
736.686	8.08
737.005	8.08
737.325	8.25
737.644	8.5
737.963	8.53
738.283	8.48
738.602	8.84
738.921	8.77
739.24	8.77
739.56	8.57
739.879	8.61
740.198	8.76
740.517	8.73
740.836	8.79
741.155	8.8
741.473	8.64
741.792	8.66
742.111	8.84
742.43	8.74
742.748	8.63
743.067	8.55
743.386	8.64
743.704	8.68
744.023	8.71
744.341	8.4
744.66	8.48
744.978	8.35
745.297	8.02
745.615	8.01
745.933	7.97
746.252	8.34
746.57	8.16
746.888	8.27
747.206	8.35
747.524	8.26
747.842	8.21
748.16	8.62
748.478	8.35
748.796	8.1
749.114	8.47
749.432	8.59
749.749	8.63
750.067	8.57
750.385	8.55
750.703	8.34
751.02	8.37
751.338	8.49
751.655	8.71
751.973	8.88
752.29	9.14
752.608	9.24
752.925	8.85
753.242	8.93
753.56	8.7
753.877	8.7
754.194	8.46
754.511	8.56
754.828	8.24
755.145	8.29
755.462	8.07
755.779	7.77
756.096	7.85
756.413	8.04
756.73	8.09
757.047	8.09
757.364	8.11
757.68	8.22
757.997	8.08
758.314	8.01
758.63	7.84
758.947	7.54
759.264	7.29
759.58	7.48
759.896	7.66
760.213	7.63
760.529	7.75
760.846	7.93
761.162	7.74
761.478	7.89
761.794	8.11
762.11	8.24
762.426	8.26
762.743	8.37
763.059	8.25
763.375	8.41
763.69	8.45
764.006	8.67
764.322	8.75
764.638	8.74
764.954	8.76
765.27	8.97
765.585	9.11
765.901	9.18
766.216	8.98
766.532	8.74
766.848	8.82
767.163	8.72
767.478	8.77
767.794	8.9
768.109	8.71
768.424	8.55
768.74	8.8
769.055	8.93
769.37	8.8
769.685	8.88
770	9
770.315	8.9
770.63	8.94
770.945	8.78
771.26	8.81
771.575	8.68
771.89	8.55
772.205	8.54
772.52	8.72
772.834	9.2
773.149	9.53
773.464	9.68
773.778	9.59
774.093	9.7
774.407	9.85
774.722	10.26
775.036	10.07
775.351	10.03
775.665	9.65
775.979	9.54
776.293	9.16
776.608	8.59
776.922	8.44
777.236	8.14
777.55	7.85
777.864	7.66
778.178	8.14
778.492	8.12
778.806	8.05
779.12	8.17
779.434	7.78
779.747	7.89
780.061	7.97
780.375	8.12
780.689	8.1
781.002	7.87
781.316	7.69
781.629	8.22
781.943	8.05
782.256	8.16
782.57	8.08
782.883	8.28
783.196	8.69
783.51	8.72
783.823	9.02
784.136	9.43
784.449	9.48
784.762	8.7
785.075	8.97
785.388	8.84
785.701	8.53
786.014	8.86
786.327	8.73
786.64	8.6
786.953	9.28
787.266	8.94
787.578	9.12
787.891	9.49
788.204	9.34
788.516	9.2
788.829	9.52
789.141	10
789.454	10.23
789.766	10.34
790.079	10.44
790.391	10.23
790.703	10.18
791.016	10.41
791.328	10.84
791.64	10.5
791.952	11.07
792.264	10.84
792.576	10.57
792.888	10.65
793.2	10.54
793.512	9.85
793.824	9.47
794.136	9.34
794.448	8.85
794.76	8.84
795.071	8.9
795.383	8.43
795.695	7.97
796.006	7.65
796.318	7.15
796.629	7.47
796.941	7.36
797.252	7.49
797.564	7.27
797.875	6.94
798.186	6.61
798.497	6.33
798.809	6.64
799.12	7.08
799.431	6.95
799.742	7.38
800.053	7.82
800.364	8.74
800.675	8.53
800.986	8.51
801.297	7.73
801.608	7.79
801.918	8.12
802.229	7.92
802.54	7.9
802.851	8.44
803.161	8.23
803.472	8.6
803.782	8.13
804.093	8.11
804.403	8.6
804.714	9.13
805.024	8.55
805.334	8.9
805.645	8.59
805.955	9.15
806.265	9.08
806.575	8.15
806.885	7.96
807.195	8.07
807.505	8.72
807.815	9.07
808.125	8.99
808.435	8.91
808.745	9.5
809.055	9.79
809.365	8.9
809.674	9.05
809.984	8.78
810.294	9.17
810.603	9.46
810.913	9.33
811.222	9.36
811.532	10.55
811.841	10.41
812.151	11.17
812.46	10.72
812.769	10.31
813.079	11.09
813.388	11
813.697	11.35
814.006	10.66
814.315	11.36
814.624	11.57
814.933	12.39
815.242	12.06
815.551	12.27
815.86	13.15
816.169	12.48
816.478	12.53
816.786	12.28
817.095	12.06
817.404	12.09
817.712	11.78
818.021	11.39
818.33	11.26
818.638	10.53
818.947	10.69
819.255	11.06
819.563	10.96
819.872	10.68
820.18	10.73
820.488	10.67
820.796	10.73
821.105	10.17
821.413	9.87
821.721	9.86
822.029	9.92
822.337	9.98
822.645	10.06
822.953	10.17
823.26	10.38
823.568	10.55
823.876	10.64
824.184	10.53
824.491	10.49
824.799	10.42
825.107	10.46
825.414	10.43
825.722	10.35
826.029	10.48
826.337	10.64
826.644	10.72
826.951	10.81
827.259	10.86
827.566	11.18
827.873	11.38
828.18	11.57
828.488	11.48
828.795	11.47
829.102	11.88
829.409	12.01
829.716	11.41
830.023	11.09
830.329	10.68
830.636	11.24
830.943	11.23
831.25	11.31
831.557	11.42
831.863	11.16
832.17	10.87
832.476	10.87
832.783	11.11
833.089	10.93
833.396	10.81
833.702	10.68
834.009	10.9
834.315	10.79
834.621	10.92
834.928	11.09
835.234	11.32
835.54	11.13
835.846	10.64
836.152	11.16
836.458	11.3
836.764	11.79
837.07	11.79
837.376	11.83
837.682	11.5
837.988	11.31
838.293	11.32
838.599	11.61
838.905	10.99
839.211	10.02
839.516	9.41
839.822	9.51
840.127	9.28
840.433	9.44
840.738	9.18
841.044	8.6
841.349	8.43
841.654	7.98
841.959	7.46
842.265	8.3
842.57	8.72
842.875	8.72
843.18	7.92
843.485	8.01
843.79	7.81
844.095	8.28
844.4	9.77
844.705	10.41
845.01	11
845.315	11.81
845.619	11.1
845.924	12.09
846.229	11.93
846.533	11.51
846.838	10.37
847.142	10.54
847.447	9.87
847.751	9.47
848.056	7.84
848.36	8.43
848.664	7.92
848.969	6.29
849.273	5.92
849.577	6.52
849.881	5.16
850.185	5.94
850.489	8.47
850.794	6.26
851.097	5.73
851.401	5.1
851.705	5.38
852.009	7.62
852.313	6.52
852.617	6.24
852.92	7.82
853.224	7.59
853.528	7.6
853.831	9.64
854.135	10.93
854.438	9.22
854.742	7.69
855.045	6.98
855.349	8.92
855.652	9.8
855.955	11.09
856.259	10.96
856.562	10.74
856.865	7.84
857.168	5.9
857.471	5.29
857.774	6.76
858.077	5.07
858.38	6.27
858.683	7.95
858.986	8.37
859.289	7.43
859.592	8.45
859.894	9.31
860.197	9.22
860.5	7.05
860.802	8.78
861.105	8.88
861.407	8.84
861.71	7.75
862.012	6.99
862.315	5.2
862.617	4.42
862.919	5.3
863.222	5.22
863.524	8.3
863.826	9.47
864.128	7.24
864.43	7.84
864.732	7.96
865.034	9.68
865.336	8.78
865.638	8.93
865.94	9.61
866.242	6.65
866.544	6.39
866.846	8.05
867.147	10.69
867.449	12.57
867.751	12.98
868.052	14.74
868.354	14.17
868.655	15.83
868.957	15.62
869.258	15.5
869.56	17.06
869.861	16.16
870.162	18.84
870.463	19.83
870.765	18.92
871.066	15.62
871.367	13.3
871.668	16.19
871.969	13.48
872.27	12.26
872.571	14.32
872.872	15.73
873.173	15.63
873.473	14.32
873.774	13.21
874.075	12.79
874.376	10.83
874.676	13.15
874.977	11.93
875.277	13.82
875.578	14.21
875.878	14.22
876.179	13.75
876.479	11.07
876.78	11.64
877.08	13.39
877.38	15.83
877.68	14.92
877.981	12.54
878.281	16.76
878.581	18.2
