Data from BU58002_Reflection_00006.txt Node
Date: Tue Nov 19 10:57:42 EST 2019
User: vgr7
Spectrometer: USB2G7710
Scans to average: 3
Trigger mode: 4
Integration Time (sec): 2.000000E-2
Electric dark correction enabled: true
Boxcar width: 10
XAxis mode: Wavelengths
Number of Pixels in Spectrum: 2048
>>>>>Begin Spectral Data<<<<<
177.721	-53.62
178.105	8.09
178.488	10.68
178.871	97.73
179.254	38.46
179.636	56.87
180.019	-8.04
180.402	75
180.785	-250
181.168	-223.53
181.55	18.27
181.933	68.23
182.316	67.97
182.698	55.61
183.081	73.05
183.463	131.5
183.846	192.27
184.228	374.59
184.611	442.7
184.993	363.64
185.376	149.77
185.758	1306.9
186.14	-250
186.522	-196.61
186.904	470
187.287	468.42
187.669	-258.82
188.051	-123.5
188.433	562.26
188.815	-1096.43
189.197	-270.5
189.579	-160.25
189.961	-69.95
190.342	-37.87
190.724	-43.98
191.106	-43.32
191.488	-36.3
191.869	-8.15
192.251	1.59
192.633	-3.71
193.014	-3.32
193.396	-3.03
193.777	9.85
194.159	8.8
194.54	1.41
194.922	7.72
195.303	0.49
195.684	14.35
196.065	7.17
196.447	4.38
196.828	-2.47
197.209	2.41
197.59	1.5
197.971	10.54
198.352	1.27
198.733	3.68
199.114	-8.7
199.495	1.33
199.876	-23.75
200.257	-34.29
200.638	-14.93
201.018	-9.54
201.399	-6.98
201.78	-13.34
202.16	-16.48
202.541	-1.51
202.922	12.62
203.302	16.51
203.683	-1.02
204.063	0.42
204.444	1.94
204.824	6.78
205.204	18.63
205.585	30.65
205.965	31.72
206.345	39.15
206.725	41.68
207.106	47.02
207.486	38.77
207.866	43.13
208.246	41.9
208.626	14.14
209.006	-0.59
209.386	-3.01
209.766	11.01
210.145	21.95
210.525	8.46
210.905	2.44
211.285	-3.77
211.664	12.89
212.044	19.03
212.424	27.28
212.803	26.81
213.183	20.76
213.562	19.12
213.942	27.65
214.321	35.62
214.701	33.38
215.08	44.62
215.459	45.31
215.838	43.97
216.218	56.52
216.597	59.08
216.976	57.84
217.355	60.9
217.734	60.41
218.113	54.07
218.492	52.08
218.871	36.5
219.25	43.25
219.629	35.66
220.008	21.11
220.387	-3.05
220.766	2.93
221.144	3.26
221.523	-1.83
221.902	8.03
222.28	1.65
222.659	10.11
223.037	2.04
223.416	-9.06
223.794	-1.29
224.173	-8.73
224.551	-0.54
224.929	2.96
225.308	-0.46
225.686	-2.81
226.064	-3.31
226.442	0.91
226.821	0.12
227.199	-2.03
227.577	2.71
227.955	4.38
228.333	6.55
228.711	6.3
229.089	4.91
229.467	5.67
229.845	-0.28
230.222	0.08
230.6	-1.95
230.978	-1.91
231.356	-0.33
231.733	-1.97
232.111	-1.66
232.488	-2.51
232.866	-0.84
233.243	2.09
233.621	4.65
233.998	3.89
234.376	3.78
234.753	4.93
235.13	4.23
235.508	2
235.885	1.84
236.262	2.87
236.639	1.78
237.016	3.15
237.393	3.68
237.77	5.41
238.147	5.61
238.524	6.37
238.901	6.91
239.278	7.07
239.655	7.1
240.032	7.38
240.409	7.32
240.785	6.37
241.162	5.81
241.539	4.96
241.915	5.84
242.292	6.06
242.668	5.77
243.045	5.83
243.421	5.99
243.798	6.24
244.174	5.92
244.551	6.27
244.927	5.9
245.303	5.51
245.679	5.57
246.056	5.35
246.432	5.24
246.808	5.1
247.184	5.05
247.56	5.07
247.936	5.39
248.312	5.43
248.688	5.45
249.064	5.42
249.44	5.46
249.815	5.12
250.191	5
250.567	5.03
250.943	4.88
251.318	4.8
251.694	4.94
252.069	4.83
252.445	4.58
252.82	4.62
253.196	4.7
253.571	4.71
253.947	5
254.322	4.87
254.697	4.69
255.073	4.72
255.448	4.69
255.823	4.28
256.198	4.01
256.573	4.24
256.948	4.38
257.323	4.47
257.698	4.48
258.073	4.54
258.448	4.56
258.823	4.47
259.198	4.59
259.573	4.26
259.948	4.44
260.322	4.46
260.697	4.59
261.072	4.59
261.446	4.49
261.821	4.46
262.195	4.41
262.57	4.46
262.944	4.49
263.319	4.44
263.693	4.39
264.067	4.62
264.442	4.43
264.816	4.28
265.19	4.18
265.564	4.22
265.938	4.22
266.313	4.16
266.687	4.37
267.061	4.22
267.435	4.45
267.809	4.49
268.183	4.41
268.556	4.35
268.93	4.35
269.304	4.29
269.678	4.26
270.051	4.42
270.425	4.35
270.799	4.07
271.172	4.15
271.546	4.28
271.919	4.18
272.293	4.2
272.666	4.39
273.04	4.36
273.413	4.4
273.787	4.27
274.16	4.14
274.533	4.13
274.906	4.25
275.279	4.13
275.653	4.07
276.026	4.04
276.399	4
276.772	4.05
277.145	4.03
277.518	3.87
277.891	3.73
278.263	3.94
278.636	4.28
279.009	4.44
279.382	4.37
279.755	4.5
280.127	4.56
280.5	4.42
280.872	4.46
281.245	4.39
281.617	4.48
281.99	4.61
282.362	4.69
282.735	4.56
283.107	4.59
283.479	4.5
283.852	4.54
284.224	4.54
284.596	4.46
284.968	4.53
285.34	4.59
285.713	4.76
286.085	4.59
286.457	4.51
286.829	4.3
287.201	4.26
287.572	4.22
287.944	4.27
288.316	4.29
288.688	4.51
289.06	4.51
289.431	4.51
289.803	4.55
290.175	4.48
290.546	4.47
290.918	4.53
291.289	4.53
291.661	4.7
292.032	4.73
292.403	4.78
292.775	4.92
293.146	4.97
293.517	4.9
293.889	5.03
294.26	5.15
294.631	5.24
295.002	5.33
295.373	5.39
295.744	5.4
296.115	5.44
296.486	5.32
296.857	5.38
297.228	5.4
297.599	5.35
297.97	5.33
298.34	5.37
298.711	5.37
299.082	5.43
299.452	5.35
299.823	5.32
300.194	5.38
300.564	5.18
300.935	5.25
301.305	5.22
301.676	5.1
302.046	5
302.416	5.12
302.787	5.24
303.157	5.15
303.527	5.13
303.897	5.2
304.267	5.16
304.637	5.21
305.008	5.18
305.378	5.3
305.748	5.52
306.117	5.69
306.487	5.72
306.857	5.81
307.227	5.84
307.597	5.89
307.967	5.86
308.336	6.05
308.706	6.06
309.076	6.15
309.445	6.31
309.815	6.27
310.184	6.11
310.554	6.03
310.923	5.99
311.293	6.11
311.662	6.02
312.031	5.97
312.401	5.89
312.77	5.94
313.139	5.79
313.508	5.62
313.877	5.54
314.246	5.43
314.616	5.49
314.985	5.42
315.353	5.54
315.722	5.6
316.091	5.56
316.46	5.34
316.829	5.38
317.198	5.26
317.567	5.33
317.935	5.34
318.304	5.45
318.672	5.66
319.041	5.53
319.41	5.51
319.778	5.57
320.147	5.71
320.515	5.65
320.883	5.81
321.252	5.99
321.62	5.96
321.988	6.22
322.357	6.21
322.725	6.21
323.093	6.11
323.461	5.92
323.829	5.81
324.197	6.02
324.565	6
324.933	5.97
325.301	5.87
325.669	5.95
326.037	5.8
326.405	5.71
326.772	5.77
327.14	5.73
327.508	5.76
327.875	5.72
328.243	5.71
328.61	5.71
328.978	5.61
329.346	5.63
329.713	5.54
330.08	5.45
330.448	5.46
330.815	5.4
331.182	5.58
331.55	5.58
331.917	5.52
332.284	5.57
332.651	5.58
333.018	5.59
333.385	5.56
333.752	5.5
334.119	5.33
334.486	5.29
334.853	5.43
335.22	5.4
335.587	5.25
335.954	5.26
336.32	5.19
336.687	5.23
337.054	5.19
337.42	5.14
337.787	4.99
338.153	5.04
338.52	5.1
338.886	5.17
339.253	5.1
339.619	5.08
339.986	4.93
340.352	5.03
340.718	5.03
341.084	5.01
341.451	5.18
341.817	5.29
342.183	5.2
342.549	5.23
342.915	5.22
343.281	5.32
343.647	5.4
344.013	5.43
344.379	5.45
344.745	5.42
345.11	5.27
345.476	5.42
345.842	5.33
346.208	5.38
346.573	5.3
346.939	5.43
347.304	5.53
347.67	5.53
348.035	5.41
348.401	5.48
348.766	5.47
349.132	5.34
349.497	5.43
349.862	5.53
350.228	5.45
350.593	5.34
350.958	5.34
351.323	5.34
351.688	5.42
352.053	5.3
352.418	5.4
352.783	5.51
353.148	5.5
353.513	5.51
353.878	5.43
354.243	5.38
354.608	5.43
354.972	5.38
355.337	5.34
355.702	5.42
356.066	5.38
356.431	5.39
356.795	5.42
357.16	5.39
357.524	5.35
357.889	5.4
358.253	5.44
358.618	5.42
358.982	5.38
359.346	5.37
359.71	5.42
360.075	5.39
360.439	5.41
360.803	5.42
361.167	5.46
361.531	5.43
361.895	5.39
362.259	5.41
362.623	5.44
362.987	5.5
363.351	5.49
363.714	5.53
364.078	5.6
364.442	5.52
364.806	5.52
365.169	5.54
365.533	5.49
365.896	5.51
366.26	5.53
366.623	5.51
366.987	5.49
367.35	5.54
367.714	5.56
368.077	5.57
368.44	5.57
368.803	5.52
369.167	5.56
369.53	5.6
369.893	5.56
370.256	5.46
370.619	5.42
370.982	5.35
371.345	5.36
371.708	5.28
372.071	5.36
372.434	5.34
372.797	5.34
373.159	5.34
373.522	5.33
373.885	5.36
374.247	5.37
374.61	5.39
374.973	5.35
375.335	5.35
375.698	5.31
376.06	5.26
376.423	5.26
376.785	5.28
377.147	5.28
377.51	5.22
377.872	5.24
378.234	5.25
378.596	5.3
378.958	5.31
379.321	5.33
379.683	5.37
380.045	5.34
380.407	5.31
380.769	5.29
381.13	5.34
381.492	5.31
381.854	5.28
382.216	5.25
382.578	5.23
382.939	5.23
383.301	5.2
383.663	5.18
384.024	5.17
384.386	5.13
384.747	5.12
385.109	5.1
385.47	5.11
385.832	5.08
386.193	5.05
386.554	4.94
386.916	4.94
387.277	4.88
387.638	4.87
387.999	4.88
388.36	4.94
388.721	4.94
389.082	4.95
389.443	4.99
389.804	5
390.165	4.99
390.526	4.98
390.887	4.99
391.248	5.01
391.609	5.04
391.969	5.03
392.33	5.02
392.691	5.04
393.051	5.02
393.412	5.04
393.772	5.07
394.133	5.1
394.493	5.09
394.854	5.09
395.214	5.09
395.574	5.09
395.935	5.05
396.295	5.02
396.655	4.99
397.015	4.95
397.376	4.9
397.736	4.91
398.096	4.89
398.456	4.93
398.816	4.94
399.176	4.91
399.535	4.92
399.895	4.91
400.255	4.96
400.615	4.97
400.975	4.95
401.334	4.9
401.694	4.93
402.054	4.91
402.413	4.94
402.773	4.95
403.132	4.95
403.492	4.93
403.851	4.95
404.211	4.99
404.57	5
404.929	5
405.288	5.03
405.648	5.03
406.007	4.97
406.366	4.93
406.725	4.91
407.084	4.91
407.443	4.93
407.802	4.89
408.161	4.89
408.52	4.88
408.879	4.91
409.238	4.92
409.596	4.92
409.955	4.89
410.314	4.86
410.673	4.87
411.031	4.87
411.39	4.86
411.748	4.83
412.107	4.82
412.465	4.85
412.824	4.81
413.182	4.81
413.54	4.82
413.899	4.84
414.257	4.84
414.615	4.82
414.974	4.82
415.332	4.8
415.69	4.79
416.048	4.81
416.406	4.79
416.764	4.78
417.122	4.78
417.48	4.79
417.838	4.78
418.195	4.76
418.553	4.76
418.911	4.75
419.269	4.74
419.626	4.73
419.984	4.72
420.342	4.71
420.699	4.71
421.057	4.7
421.414	4.69
421.772	4.69
422.129	4.68
422.486	4.68
422.844	4.69
423.201	4.69
423.558	4.69
423.915	4.68
424.273	4.67
424.63	4.67
424.987	4.65
425.344	4.65
425.701	4.64
426.058	4.64
426.415	4.62
426.772	4.63
427.128	4.64
427.485	4.63
427.842	4.62
428.199	4.62
428.555	4.63
428.912	4.63
429.269	4.62
429.625	4.63
429.982	4.61
430.338	4.6
430.695	4.58
431.051	4.56
431.407	4.57
431.764	4.58
432.12	4.58
432.476	4.59
432.832	4.59
433.189	4.6
433.545	4.59
433.901	4.61
434.257	4.61
434.613	4.6
434.969	4.61
435.325	4.61
435.681	4.6
436.036	4.58
436.392	4.57
436.748	4.57
437.104	4.57
437.459	4.55
437.815	4.56
438.171	4.58
438.526	4.58
438.882	4.57
439.237	4.56
439.593	4.55
439.948	4.55
440.304	4.55
440.659	4.56
441.014	4.56
441.369	4.55
441.725	4.55
442.08	4.55
442.435	4.54
442.79	4.55
443.145	4.55
443.5	4.56
443.855	4.58
444.21	4.59
444.565	4.6
444.92	4.63
445.275	4.62
445.629	4.59
445.984	4.59
446.339	4.59
446.693	4.61
447.048	4.6
447.403	4.6
447.757	4.59
448.112	4.58
448.466	4.57
448.82	4.57
449.175	4.56
449.529	4.55
449.883	4.56
450.238	4.54
450.592	4.53
450.946	4.51
451.3	4.5
451.654	4.48
452.008	4.46
452.362	4.45
452.716	4.46
453.07	4.48
453.424	4.48
453.778	4.47
454.132	4.45
454.486	4.48
454.839	4.48
455.193	4.49
455.547	4.48
455.9	4.49
456.254	4.49
456.607	4.49
456.961	4.5
457.314	4.52
457.668	4.53
458.021	4.54
458.375	4.53
458.728	4.54
459.081	4.54
459.434	4.52
459.787	4.51
460.141	4.51
460.494	4.52
460.847	4.51
461.2	4.51
461.553	4.51
461.906	4.5
462.259	4.51
462.611	4.53
462.964	4.53
463.317	4.54
463.67	4.56
464.022	4.57
464.375	4.55
464.728	4.55
465.08	4.54
465.433	4.54
465.785	4.55
466.138	4.56
466.49	4.58
466.843	4.61
467.195	4.62
467.547	4.62
467.899	4.62
468.252	4.63
468.604	4.64
468.956	4.65
469.308	4.64
469.66	4.63
470.012	4.62
470.364	4.64
470.716	4.61
471.068	4.61
471.42	4.6
471.772	4.59
472.123	4.6
472.475	4.61
472.827	4.64
473.178	4.63
473.53	4.63
473.882	4.62
474.233	4.61
474.585	4.62
474.936	4.62
475.288	4.6
475.639	4.6
475.99	4.6
476.342	4.62
476.693	4.65
477.044	4.65
477.395	4.65
477.746	4.67
478.097	4.67
478.448	4.67
478.8	4.68
479.15	4.69
479.501	4.67
479.852	4.68
480.203	4.67
480.554	4.69
480.905	4.69
481.255	4.7
481.606	4.69
481.957	4.7
482.307	4.7
482.658	4.7
483.009	4.71
483.359	4.71
483.709	4.71
484.06	4.71
484.41	4.7
484.761	4.7
485.111	4.69
485.461	4.69
485.811	4.7
486.162	4.7
486.512	4.7
486.862	4.71
487.212	4.71
487.562	4.69
487.912	4.7
488.262	4.69
488.612	4.68
488.961	4.68
489.311	4.68
489.661	4.67
490.011	4.67
490.36	4.66
490.71	4.65
491.06	4.64
491.409	4.64
491.759	4.65
492.108	4.63
492.458	4.62
492.807	4.61
493.157	4.62
493.506	4.62
493.855	4.61
494.204	4.61
494.554	4.61
494.903	4.62
495.252	4.6
495.601	4.62
495.95	4.63
496.299	4.65
496.648	4.66
496.997	4.68
497.346	4.68
497.695	4.67
498.043	4.7
498.392	4.72
498.741	4.73
499.09	4.73
499.438	4.76
499.787	4.78
500.135	4.79
500.484	4.8
500.832	4.8
501.181	4.81
501.529	4.81
501.878	4.81
502.226	4.84
502.574	4.85
502.923	4.84
503.271	4.82
503.619	4.84
503.967	4.83
504.315	4.83
504.663	4.85
505.011	4.89
505.359	4.85
505.707	4.85
506.055	4.85
506.403	4.84
506.751	4.85
507.098	4.88
507.446	4.88
507.794	4.89
508.141	4.89
508.489	4.9
508.837	4.9
509.184	4.93
509.531	4.93
509.879	4.95
510.226	4.96
510.574	5
510.921	5
511.268	5.01
511.616	5.01
511.963	5.02
512.31	5.02
512.657	5.04
513.004	5.04
513.351	5.04
513.698	5.06
514.045	5.08
514.392	5.05
514.739	5.08
515.086	5.07
515.432	5.1
515.779	5.1
516.126	5.14
516.473	5.14
516.819	5.15
517.166	5.17
517.512	5.17
517.859	5.17
518.205	5.15
518.552	5.16
518.898	5.17
519.245	5.18
519.591	5.19
519.937	5.21
520.283	5.23
520.629	5.25
520.976	5.24
521.322	5.25
521.668	5.28
522.014	5.27
522.36	5.28
522.706	5.26
523.052	5.3
523.398	5.28
523.743	5.3
524.089	5.3
524.435	5.31
524.781	5.33
525.126	5.33
525.472	5.35
525.817	5.35
526.163	5.34
526.509	5.34
526.854	5.35
527.199	5.34
527.545	5.35
527.89	5.34
528.235	5.35
528.581	5.34
528.926	5.35
529.271	5.35
529.616	5.37
529.961	5.37
530.306	5.37
530.651	5.37
530.996	5.37
531.341	5.39
531.686	5.38
532.031	5.37
532.376	5.4
532.721	5.39
533.065	5.39
533.41	5.41
533.755	5.42
534.099	5.41
534.444	5.41
534.788	5.41
535.133	5.42
535.477	5.41
535.822	5.42
536.166	5.42
536.51	5.41
536.855	5.4
537.199	5.41
537.543	5.41
537.887	5.42
538.231	5.4
538.576	5.38
538.92	5.39
539.264	5.39
539.608	5.38
539.951	5.37
540.295	5.38
540.639	5.38
540.983	5.38
541.327	5.38
541.671	5.39
542.014	5.41
542.358	5.42
542.701	5.43
543.045	5.43
543.389	5.43
543.732	5.45
544.075	5.45
544.419	5.46
544.762	5.46
545.105	5.46
545.449	5.48
545.792	5.49
546.135	5.49
546.478	5.5
546.821	5.51
547.165	5.53
547.508	5.53
547.851	5.53
548.194	5.51
548.536	5.51
548.879	5.49
549.222	5.47
549.565	5.45
549.908	5.46
550.25	5.45
550.593	5.44
550.936	5.43
551.278	5.44
551.621	5.45
551.963	5.48
552.306	5.46
552.648	5.45
552.991	5.48
553.333	5.48
553.675	5.5
554.017	5.47
554.36	5.44
554.702	5.46
555.044	5.46
555.386	5.47
555.728	5.48
556.07	5.51
556.412	5.53
556.754	5.52
557.096	5.52
557.438	5.54
557.78	5.53
558.121	5.53
558.463	5.51
558.805	5.49
559.147	5.45
559.488	5.47
559.83	5.48
560.171	5.45
560.513	5.44
560.854	5.43
561.196	5.46
561.537	5.5
561.878	5.48
562.22	5.49
562.561	5.49
562.902	5.5
563.243	5.53
563.584	5.54
563.925	5.54
564.266	5.53
564.607	5.54
564.948	5.56
565.289	5.58
565.63	5.58
565.971	5.6
566.312	5.6
566.653	5.59
566.993	5.59
567.334	5.61
567.675	5.63
568.015	5.61
568.356	5.61
568.696	5.58
569.037	5.57
569.377	5.57
569.718	5.59
570.058	5.58
570.398	5.57
570.739	5.55
571.079	5.57
571.419	5.55
571.759	5.53
572.099	5.53
572.439	5.53
572.779	5.54
573.119	5.53
573.459	5.53
573.799	5.51
574.139	5.51
574.479	5.51
574.819	5.51
575.158	5.51
575.498	5.5
575.838	5.5
576.177	5.53
576.517	5.55
576.856	5.53
577.196	5.53
577.535	5.54
577.875	5.55
578.214	5.55
578.553	5.54
578.893	5.57
579.232	5.58
579.571	5.58
579.91	5.56
580.25	5.57
580.589	5.6
580.928	5.62
581.267	5.59
581.606	5.58
581.945	5.56
582.283	5.58
582.622	5.57
582.961	5.6
583.3	5.65
583.639	5.63
583.977	5.62
584.316	5.64
584.654	5.64
584.993	5.65
585.332	5.68
585.67	5.71
586.008	5.71
586.347	5.72
586.685	5.67
587.024	5.71
587.362	5.69
587.7	5.66
588.038	5.71
588.376	5.69
588.715	5.71
589.053	5.7
589.391	5.68
589.729	5.69
590.067	5.68
590.404	5.64
590.742	5.61
591.08	5.63
591.418	5.6
591.756	5.58
592.093	5.57
592.431	5.57
592.769	5.55
593.106	5.53
593.444	5.56
593.781	5.61
594.119	5.56
594.456	5.57
594.793	5.59
595.131	5.56
595.468	5.61
595.805	5.59
596.143	5.6
596.48	5.6
596.817	5.59
597.154	5.63
597.491	5.63
597.828	5.67
598.165	5.66
598.502	5.69
598.839	5.68
599.176	5.69
599.512	5.65
599.849	5.66
600.186	5.67
600.523	5.63
600.859	5.65
601.196	5.65
601.532	5.63
601.869	5.66
602.205	5.63
602.542	5.64
602.878	5.62
603.215	5.62
603.551	5.6
603.887	5.63
604.223	5.57
604.56	5.57
604.896	5.56
605.232	5.58
605.568	5.57
605.904	5.6
606.24	5.59
606.576	5.62
606.912	5.62
607.248	5.64
607.583	5.63
607.919	5.64
608.255	5.64
608.591	5.66
608.926	5.6
609.262	5.61
609.597	5.62
609.933	5.64
610.268	5.64
610.604	5.66
610.939	5.67
611.275	5.71
611.61	5.71
611.945	5.69
612.281	5.71
612.616	5.73
612.951	5.71
613.286	5.7
613.621	5.68
613.956	5.68
614.291	5.64
614.626	5.69
614.961	5.65
615.296	5.66
615.631	5.66
615.966	5.67
616.3	5.67
616.635	5.68
616.97	5.69
617.304	5.68
617.639	5.71
617.973	5.7
618.308	5.75
618.642	5.74
618.977	5.74
619.311	5.7
619.646	5.69
619.98	5.68
620.314	5.71
620.648	5.73
620.983	5.68
621.317	5.72
621.651	5.71
621.985	5.76
622.319	5.74
622.653	5.74
622.987	5.72
623.321	5.77
623.655	5.82
623.988	5.86
624.322	5.87
624.656	5.9
624.99	5.89
625.323	5.88
625.657	5.9
625.99	5.95
626.324	5.94
626.657	5.9
626.991	5.92
627.324	5.9
627.658	5.87
627.991	5.93
628.324	5.87
628.657	5.88
628.991	5.85
629.324	5.83
629.657	5.83
629.99	5.85
630.323	5.81
630.656	5.71
630.989	5.7
631.322	5.68
631.655	5.67
631.987	5.65
632.32	5.59
632.653	5.57
632.986	5.51
633.318	5.53
633.651	5.62
633.984	5.65
634.316	5.69
634.649	5.72
634.981	5.76
635.313	5.79
635.646	5.79
635.978	5.83
636.31	5.86
636.643	5.86
636.975	5.86
637.307	5.89
637.639	5.96
637.971	5.91
638.303	5.92
638.635	5.92
638.967	5.94
639.299	5.94
639.631	5.94
639.963	5.98
640.295	6.06
640.626	5.99
640.958	5.95
641.29	5.95
641.621	5.95
641.953	5.87
642.285	5.92
642.616	5.91
642.948	5.84
643.279	5.86
643.61	5.91
643.942	5.95
644.273	5.94
644.604	5.92
644.936	5.97
645.267	5.97
645.598	6.02
645.929	5.99
646.26	5.98
646.591	6.02
646.922	6.02
647.253	5.94
647.584	5.95
647.915	5.97
648.245	5.95
648.576	5.98
648.907	5.98
649.238	5.96
649.568	5.98
649.899	6
650.229	6.04
650.56	6.01
650.89	5.99
651.221	6.03
651.551	6.06
651.882	6.03
652.212	6.02
652.542	6.05
652.872	6.11
653.203	6.17
653.533	6.15
653.863	6.15
654.193	6.06
654.523	5.98
654.853	5.96
655.183	5.97
655.513	5.94
655.843	5.93
656.172	6.04
656.502	6.01
656.832	6
657.162	5.94
657.491	5.99
657.821	5.96
658.15	5.97
658.48	5.99
658.809	5.99
659.139	6.05
659.468	5.93
659.798	5.94
660.127	5.91
660.456	5.93
660.785	5.93
661.115	6.02
661.444	6.08
661.773	6.08
662.102	6.08
662.431	6.06
662.76	6.08
663.089	6.01
663.418	6.03
663.747	6.08
664.076	6.08
664.404	6.02
664.733	5.97
665.062	5.89
665.39	5.85
665.719	5.91
666.048	5.88
666.376	5.9
666.705	5.8
667.033	5.78
667.362	5.75
667.69	5.74
668.018	5.77
668.347	5.76
668.675	5.82
669.003	5.82
669.331	5.85
669.659	5.87
669.987	5.86
670.315	5.83
670.643	5.77
670.971	5.88
671.299	5.88
671.627	5.99
671.955	6.03
672.283	6.07
672.61	6.05
672.938	5.92
673.266	5.94
673.593	6
673.921	6.08
674.249	6.07
674.576	6.07
674.904	6.07
675.231	6.08
675.558	6.05
675.886	6.13
676.213	6.11
676.54	6.15
676.867	6.09
677.195	6.13
677.522	6.15
677.849	6.13
678.176	6.17
678.503	6.2
678.83	6.18
679.157	6.16
679.484	6.15
679.81	6.23
680.137	6.35
680.464	6.34
680.791	6.31
681.117	6.35
681.444	6.4
681.771	6.44
682.097	6.48
682.424	6.49
682.75	6.38
683.077	6.45
683.403	6.41
683.729	6.43
684.056	6.44
684.382	6.53
684.708	6.47
685.034	6.47
685.36	6.36
685.686	6.31
686.012	6.28
686.339	6.26
686.664	6.32
686.99	6.16
687.316	6.16
687.642	6.16
687.968	6.21
688.294	6.19
688.619	6.14
688.945	6.08
689.271	6.05
689.596	6.09
689.922	5.99
690.247	6.05
690.573	6.11
690.898	6.1
691.224	6.03
691.549	6.11
691.874	6.12
692.2	6.13
692.525	6.24
692.85	6.23
693.175	6.27
693.5	6.22
693.825	6.34
694.15	6.32
694.475	6.29
694.8	6.23
695.125	6.26
695.45	6.31
695.775	6.33
696.099	6.41
696.424	6.41
696.749	6.48
697.073	6.45
697.398	6.45
697.723	6.48
698.047	6.5
698.372	6.39
698.696	6.43
699.02	6.5
699.345	6.47
699.669	6.53
699.993	6.52
700.318	6.53
700.642	6.47
700.966	6.54
701.29	6.57
701.614	6.62
701.938	6.56
702.262	6.48
702.586	6.55
702.91	6.5
703.234	6.46
703.557	6.41
703.881	6.41
704.205	6.36
704.529	6.27
704.852	6.15
705.176	6.34
705.499	6.3
705.823	6.32
706.146	6.41
706.47	6.36
706.793	6.38
707.117	6.48
707.44	6.48
707.763	6.42
708.086	6.42
708.409	6.38
708.733	6.3
709.056	6.42
709.379	6.41
709.702	6.44
710.025	6.69
710.348	6.76
710.671	6.82
710.993	6.82
711.316	6.78
711.639	6.88
711.962	6.76
712.284	6.81
712.607	6.81
712.93	6.7
713.252	6.67
713.575	6.74
713.897	6.56
714.22	6.53
714.542	6.72
714.864	6.65
715.187	6.68
715.509	6.73
715.831	6.59
716.153	6.46
716.475	6.53
716.798	6.33
717.12	6.35
717.442	6.18
717.764	6.2
718.085	6.25
718.407	6.27
718.729	6.33
719.051	6.27
719.373	6.32
719.695	6.37
720.016	6.44
720.338	6.39
720.659	6.54
720.981	6.56
721.302	6.37
721.624	6.51
721.945	6.48
722.267	6.59
722.588	6.7
722.909	6.8
723.231	6.72
723.552	6.87
723.873	6.73
724.194	6.88
724.515	6.95
724.836	6.94
725.157	6.8
725.478	6.76
725.799	6.71
726.12	6.71
726.441	6.7
726.762	6.78
727.083	6.84
727.403	6.76
727.724	6.73
728.045	6.75
728.365	6.6
728.686	6.61
729.006	6.49
729.327	6.59
729.647	6.62
729.967	6.55
730.288	6.48
730.608	6.63
730.928	6.75
731.249	6.77
731.569	6.73
731.889	6.86
732.209	6.95
732.529	6.9
732.849	6.86
733.169	6.87
733.489	6.81
733.809	6.76
734.129	6.69
734.448	6.8
734.768	6.63
735.088	6.73
735.408	6.78
735.727	6.89
736.047	6.81
736.366	6.85
736.686	6.89
737.005	7.08
737.325	6.99
737.644	6.86
737.963	6.92
738.283	6.9
738.602	6.9
738.921	6.91
739.24	7
739.56	7.11
739.879	7.13
740.198	7.06
740.517	7.13
740.836	7.3
741.155	7.36
741.473	7.52
741.792	7.64
742.111	7.64
742.43	7.73
742.748	7.81
743.067	7.83
743.386	7.9
743.704	7.65
744.023	7.82
744.341	7.82
744.66	7.66
744.978	7.9
745.297	7.83
745.615	7.74
745.933	7.86
746.252	7.89
746.57	7.91
746.888	7.91
747.206	7.67
747.524	7.64
747.842	7.27
748.16	7.24
748.478	7.4
748.796	7.5
749.114	7.47
749.432	7.33
749.749	7.21
750.067	7.35
750.385	7.52
750.703	7.6
751.02	7.7
751.338	7.78
751.655	7.58
751.973	7.68
752.29	7.59
752.608	7.42
752.925	7.15
753.242	7.11
753.56	7.05
753.877	7.27
754.194	7.18
754.511	7.5
754.828	7.36
755.145	6.99
755.462	6.92
755.779	6.7
756.096	6.78
756.413	6.98
756.73	6.77
757.047	6.64
757.364	6.45
757.68	6.4
757.997	6.42
758.314	6.58
758.63	6.32
758.947	6.72
759.264	6.78
759.58	6.98
759.896	7.05
760.213	7.3
760.529	7.32
760.846	7.74
761.162	7.65
761.478	7.86
761.794	8.16
762.11	8.19
762.426	8.27
762.743	8.45
763.059	8.38
763.375	8.49
763.69	8.52
764.006	8.59
764.322	8.63
764.638	8.64
764.954	8.55
765.27	8.83
765.585	8.56
765.901	8.7
766.216	8.8
766.532	8.78
766.848	8.68
767.163	8.55
767.478	8.22
767.794	8.35
768.109	8.51
768.424	8.23
768.74	8.06
769.055	8.27
769.37	7.71
769.685	7.87
770	7.79
770.315	7.73
770.63	7.68
770.945	7.65
771.26	7.64
771.575	7.76
771.89	7.56
772.205	7.8
772.52	7.74
772.834	7.62
773.149	7.58
773.464	7.47
773.778	7.59
774.093	7.91
774.407	8.07
774.722	7.76
775.036	7.96
775.351	8.15
775.665	7.99
775.979	8.26
776.293	8.3
776.608	8.15
776.922	8.02
777.236	8.13
777.55	7.8
777.864	7.86
778.178	8.04
778.492	7.87
778.806	7.83
779.12	7.76
779.434	7.7
779.747	8.02
780.061	8.24
780.375	8.52
780.689	8.33
781.002	8.3
781.316	8.57
781.629	8.61
781.943	8.53
782.256	8.23
782.57	8.17
782.883	7.85
783.196	8
783.51	8.71
783.823	8.49
784.136	8.52
784.449	8.52
784.762	8.35
785.075	8.41
785.388	8.84
785.701	8.65
786.014	8.83
786.327	8.56
786.64	8.64
786.953	8.48
787.266	8.77
787.578	8.7
787.891	8.78
788.204	8.67
788.516	8.85
788.829	9.25
789.141	9.78
789.454	9.92
789.766	10.14
790.079	9.94
790.391	10.26
790.703	10.75
791.016	10.68
791.328	10.93
791.64	11.39
791.952	11.25
792.264	11.34
792.576	11.27
792.888	11.63
793.2	11.77
793.512	11.46
793.824	11.06
794.136	10.98
794.448	10.6
794.76	10.76
795.071	10.99
795.383	10.84
795.695	10.48
796.006	10.12
796.318	9.83
796.629	9.79
796.941	9.31
797.252	8.98
797.564	9.51
797.875	8.89
798.186	8.52
798.497	8.35
798.809	8.45
799.12	8.19
799.431	7.85
799.742	8.15
800.053	8.48
800.364	8.84
800.675	8.88
800.986	9.47
801.297	9.11
801.608	8.9
801.918	9.11
802.229	9.3
802.54	9.54
802.851	9.6
803.161	9.44
803.472	9.75
803.782	10.01
804.093	8.71
804.403	9.08
804.714	9.51
805.024	9.13
805.334	9.03
805.645	8.79
805.955	9.07
806.265	8.74
806.575	8.56
806.885	8.38
807.195	8.5
807.505	7.76
807.815	7.76
808.125	8.14
808.435	7.78
808.745	8.11
809.055	7.89
809.365	7.53
809.674	7.58
809.984	7.51
810.294	7.86
810.603	8.14
810.913	8.22
811.222	7.63
811.532	7.7
811.841	8.53
812.151	9.08
812.46	9.05
812.769	8.19
813.079	8.2
813.388	8.01
813.697	7.78
814.006	7.61
814.315	7.54
814.624	6.69
814.933	6.92
815.242	6.22
815.551	6.91
815.86	7.05
816.169	7.01
816.478	7.2
816.786	6.52
817.095	6.84
817.404	6.97
817.712	7.72
818.021	7.9
818.33	7.19
818.638	7.25
818.947	7.17
819.255	8.05
819.563	8.06
819.872	8.16
820.18	8.05
820.488	8.54
820.796	8.81
821.105	9.02
821.413	8.91
821.721	9.03
822.029	8.95
822.337	9.02
822.645	9.06
822.953	9.13
823.26	9.05
823.568	9.05
823.876	9.01
824.184	8.94
824.491	9.08
824.799	9.17
825.107	9.23
825.414	9.15
825.722	9.05
826.029	9.15
826.337	9.24
826.644	9.37
826.951	9.27
827.259	9.3
827.566	9.24
827.873	9.34
828.18	9.32
828.488	9.15
828.795	9.29
829.102	9.32
829.409	9.06
829.716	9.29
830.023	9.59
830.329	9.69
830.636	9.83
830.943	9.39
831.25	9.28
831.557	9.03
831.863	9.31
832.17	9.34
832.476	9.26
832.783	9.28
833.089	9.25
833.396	9.49
833.702	9.69
834.009	9.87
834.315	9.72
834.621	9.72
834.928	9.96
835.234	10.01
835.54	9.86
835.846	10.14
836.152	9.82
836.458	10.07
836.764	10.08
837.07	9.88
837.376	10.83
837.682	10.4
837.988	10.84
838.293	10.91
838.599	11.55
838.905	11.49
839.211	11.35
839.516	11.07
839.822	11.15
840.127	10.08
840.433	9.73
840.738	9.93
841.044	10.79
841.349	10.99
841.654	9.66
841.959	10.37
842.265	10.22
842.57	11.07
842.875	9.97
843.18	10.1
843.485	10.3
843.79	8.87
844.095	10.59
844.4	10.98
844.705	11.96
845.01	10.65
845.315	10.16
845.619	10.32
845.924	10.17
846.229	9.15
846.533	9.76
846.838	10.81
847.142	10.97
847.447	10.3
847.751	10.14
848.056	12.67
848.36	12.07
848.664	11.54
848.969	11.76
849.273	12.45
849.577	13.35
849.881	13.69
850.185	12.65
850.489	11.96
850.794	11.66
851.097	10.73
851.401	9.94
851.705	10.8
852.009	13.13
852.313	13.95
852.617	14.44
852.92	15.78
853.224	14.57
853.528	14.44
853.831	12.99
854.135	13.99
854.438	13.75
854.742	14.3
855.045	13.34
855.349	13.06
855.652	13.18
855.955	9.75
856.259	8.76
856.562	11.44
856.865	12.3
857.168	11.66
857.471	12.16
857.774	14.6
858.077	13.89
858.38	12.64
858.683	13.21
858.986	14.17
859.289	13.29
859.592	13.95
859.894	15.02
860.197	15.15
860.5	15.65
860.802	15.52
861.105	14.92
861.407	16.68
861.71	15.73
862.012	15.89
862.315	17.83
862.617	18.7
862.919	17.08
863.222	17.66
863.524	17.95
863.826	16.59
864.128	15.96
864.43	17.97
864.732	16.86
865.034	16.77
865.336	16.83
865.638	16.68
865.94	15.85
866.242	15.85
866.544	17.65
866.846	16.52
867.147	16.99
867.449	18.19
867.751	19.12
868.052	20.36
868.354	20.43
868.655	20.71
868.957	20.12
869.258	19.53
869.56	17.04
869.861	16.03
870.162	15.24
870.463	13.62
870.765	12.3
871.066	11.07
871.367	10.16
871.668	8.63
871.969	7.27
872.27	6.47
872.571	6.35
872.872	6.26
873.173	6.23
873.473	4.41
873.774	5.59
874.075	3.96
874.376	1.92
874.676	1.43
874.977	2.82
875.277	2.66
875.578	3.28
875.878	3.46
876.179	3.18
876.479	4.52
876.78	5.19
877.08	5.5
877.38	6.73
877.68	7.88
877.981	8.59
878.281	11.85
878.581	14.5
