Data from BU58138_Reflection_00010.txt Node
Date: Mon Nov 18 16:42:19 EST 2019
User: vgr7
Spectrometer: USB2G7710
Scans to average: 3
Trigger mode: 4
Integration Time (sec): 2.000000E-2
Electric dark correction enabled: true
Boxcar width: 10
XAxis mode: Wavelengths
Number of Pixels in Spectrum: 2048
>>>>>Begin Spectral Data<<<<<
177.721	7433.33
178.105	131.75
178.488	249.48
178.871	2245.83
179.254	-138.44
179.636	-32.8
180.019	-43.55
180.402	122.22
180.785	8.2
181.168	2.39
181.55	33.5
181.933	50.55
182.316	80.82
182.698	60.52
183.081	26.7
183.463	24.55
183.846	25.99
184.228	13.71
184.611	22.29
184.993	1.85
185.376	45.05
185.758	86.21
186.14	92.62
186.522	150.49
186.904	278.71
187.287	1506.39
187.669	-1154.48
188.051	1118.32
188.433	278.96
188.815	5843.59
189.197	-795.62
189.579	-169.01
189.961	-179.71
190.342	-194.17
190.724	-100.1
191.106	-84.57
191.488	-71.41
191.869	-55.29
192.251	-80.78
192.633	-73.2
193.014	-120.12
193.396	-128.92
193.777	-78.39
194.159	-89.4
194.54	-51.59
194.922	-21.17
195.303	-45.32
195.684	-43.1
196.065	-34.8
196.447	-33.24
196.828	-43.64
197.209	-38.47
197.59	-61.42
197.971	-68.19
198.352	-64.62
198.733	-83.93
199.114	-82.63
199.495	-74.71
199.876	-80.25
200.257	-74.57
200.638	-72.58
201.018	-53.77
201.399	-35.36
201.78	-35.89
202.16	-34.94
202.541	-60.02
202.922	-136.59
203.302	-125.88
203.683	-97.81
204.063	-110.05
204.444	-80.04
204.824	-73.21
205.204	-83.56
205.585	-97.1
205.965	-84.54
206.345	-89.52
206.725	-91.5
207.106	-75.72
207.486	-87.48
207.866	-87.07
208.246	-93.02
208.626	-83.25
209.006	-72.38
209.386	-91.75
209.766	-80.03
210.145	-48.99
210.525	-41.17
210.905	-27.5
211.285	-29.61
211.664	-29.34
212.044	-27.95
212.424	-26.65
212.803	-30.55
213.183	-29.96
213.562	-21.31
213.942	-19.84
214.321	-7.86
214.701	-7.37
215.08	-9.44
215.459	-10.96
215.838	-8.31
216.218	-1.09
216.597	-0.84
216.976	-5.48
217.355	-0.08
217.734	-9.04
218.113	-27.03
218.492	-23.2
218.871	-21.21
219.25	-7.74
219.629	-4.21
220.008	-10.04
220.387	-19.07
220.766	-25.26
221.144	-53.32
221.523	-56.1
221.902	-70.12
222.28	-130.17
222.659	-98.38
223.037	-89.25
223.416	-60.53
223.794	-83.7
224.173	-62.72
224.551	-40.88
224.929	-35.93
225.308	-29.61
225.686	-17.07
226.064	-17.26
226.442	-19.85
226.821	-22.38
227.199	-26.08
227.577	-27.09
227.955	-22.45
228.333	-21.95
228.711	-17.08
229.089	-9.88
229.467	-8.54
229.845	-5.56
230.222	-3.78
230.6	-3.99
230.978	-3.27
231.356	-1.63
231.733	0.38
232.111	-0.29
232.488	-1.38
232.866	-0.99
233.243	1.33
233.621	-0.42
233.998	0.65
234.376	1.68
234.753	4.5
235.13	5.89
235.508	6.73
235.885	6.11
236.262	5.61
236.639	4.66
237.016	3.89
237.393	3.69
237.77	2.97
238.147	3.09
238.524	2.3
238.901	2.83
239.278	2.85
239.655	4.31
240.032	5.17
240.409	4.77
240.785	4.76
241.162	3.7
241.539	3.99
241.915	4.63
242.292	4.18
242.668	4.05
243.045	3.9
243.421	3.78
243.798	3.68
244.174	3.7
244.551	4.01
244.927	4.05
245.303	4.31
245.679	4.39
246.056	4.42
246.432	4.41
246.808	4.15
247.184	4.14
247.56	3.72
247.936	3.53
248.312	3.73
248.688	3.64
249.064	3.88
249.44	3.81
249.815	3.84
250.191	3.98
250.567	3.93
250.943	4.03
251.318	4.25
251.694	4.1
252.069	4.28
252.445	4
252.82	3.96
253.196	3.84
253.571	3.77
253.947	3.78
254.322	4.09
254.697	4.27
255.073	3.85
255.448	3.95
255.823	3.98
256.198	3.86
256.573	4.02
256.948	4.13
257.323	4.35
257.698	4.07
258.073	4.01
258.448	3.89
258.823	3.89
259.198	3.62
259.573	3.9
259.948	3.84
260.322	3.92
260.697	3.93
261.072	3.82
261.446	3.88
261.821	3.82
262.195	3.87
262.57	3.7
262.944	3.76
263.319	3.7
263.693	3.68
264.067	3.85
264.442	3.97
264.816	3.76
265.19	3.57
265.564	3.6
265.938	3.56
266.313	3.52
266.687	3.5
267.061	3.81
267.435	3.81
267.809	3.78
268.183	3.78
268.556	3.74
268.93	3.82
269.304	3.85
269.678	4.13
270.051	4.09
270.425	4.18
270.799	4.37
271.172	4.45
271.546	4.4
271.919	4.22
272.293	3.98
272.666	4.2
273.04	4.17
273.413	4.22
273.787	4.3
274.16	4.3
274.533	4.28
274.906	4.05
275.279	3.9
275.653	3.95
276.026	3.92
276.399	3.85
276.772	3.87
277.145	3.73
277.518	3.43
277.891	3.49
278.263	3.42
278.636	3.23
279.009	3.18
279.382	3.46
279.755	3.58
280.127	3.69
280.5	3.61
280.872	3.78
281.245	3.71
281.617	3.75
281.99	3.91
282.362	3.87
282.735	3.83
283.107	3.89
283.479	3.94
283.852	3.9
284.224	3.97
284.596	3.95
284.968	3.99
285.34	4.1
285.713	4.02
286.085	4.01
286.457	4.1
286.829	4.2
287.201	4.04
287.572	3.96
287.944	3.96
288.316	3.91
288.688	3.87
289.06	3.86
289.431	3.89
289.803	3.92
290.175	3.97
290.546	4.07
290.918	4.1
291.289	4.1
291.661	4.25
292.032	4.33
292.403	4.38
292.775	4.41
293.146	4.31
293.517	4.3
293.889	4.43
294.26	4.44
294.631	4.32
295.002	4.32
295.373	4.3
295.744	4.36
296.115	4.38
296.486	4.27
296.857	4.22
297.228	4.06
297.599	3.97
297.97	3.96
298.34	4.06
298.711	3.98
299.082	4.04
299.452	3.94
299.823	3.95
300.194	3.93
300.564	3.95
300.935	4.08
301.305	4
301.676	4.02
302.046	4.02
302.416	4.15
302.787	4.14
303.157	4.17
303.527	4.15
303.897	4.12
304.267	4.32
304.637	4.56
305.008	4.78
305.378	4.88
305.748	4.94
306.117	4.83
306.487	4.91
306.857	4.87
307.227	4.9
307.597	4.88
307.967	4.9
308.336	5.01
308.706	5.07
309.076	5.33
309.445	5.28
309.815	5.19
310.184	5.18
310.554	5.23
310.923	5.25
311.293	5.22
311.662	5.43
312.031	5.37
312.401	5.27
312.77	5.24
313.139	5.34
313.508	5.4
313.877	5.44
314.246	5.5
314.616	5.61
314.985	5.75
315.353	5.92
315.722	5.93
316.091	5.87
316.46	5.77
316.829	5.66
317.198	5.63
317.567	5.73
317.935	5.72
318.304	5.8
318.672	5.81
319.041	5.98
319.41	5.93
319.778	5.83
320.147	5.9
320.515	5.88
320.883	5.77
321.252	5.85
321.62	5.86
321.988	5.81
322.357	5.6
322.725	5.55
323.093	5.5
323.461	5.47
323.829	5.46
324.197	5.54
324.565	5.56
324.933	5.56
325.301	5.64
325.669	5.61
326.037	5.64
326.405	5.82
326.772	5.82
327.14	5.72
327.508	5.86
327.875	5.86
328.243	5.92
328.61	5.92
328.978	5.94
329.346	6.03
329.713	6.08
330.08	6.32
330.448	6.36
330.815	6.25
331.182	6.23
331.55	6.3
331.917	6.31
332.284	6.44
332.651	6.61
333.018	6.7
333.385	6.78
333.752	6.87
334.119	6.77
334.486	6.71
334.853	6.66
335.22	6.7
335.587	6.82
335.954	6.87
336.32	6.79
336.687	6.7
337.054	6.73
337.42	6.73
337.787	6.65
338.153	6.66
338.52	6.73
338.886	6.84
339.253	6.81
339.619	6.73
339.986	6.6
340.352	6.55
340.718	6.5
341.084	6.53
341.451	6.41
341.817	6.49
342.183	6.46
342.549	6.53
342.915	6.56
343.281	6.44
343.647	6.36
344.013	6.54
344.379	6.47
344.745	6.51
345.11	6.61
345.476	6.59
345.842	6.55
346.208	6.47
346.573	6.5
346.939	6.51
347.304	6.59
347.67	6.57
348.035	6.63
348.401	6.7
348.766	6.72
349.132	6.78
349.497	6.73
349.862	6.83
350.228	6.85
350.593	6.79
350.958	6.91
351.323	6.98
351.688	6.91
352.053	7.07
352.418	7
352.783	6.99
353.148	6.96
353.513	6.95
353.878	6.97
354.243	6.9
354.608	6.83
354.972	6.78
355.337	6.88
355.702	6.81
356.066	6.83
356.431	6.74
356.795	6.75
357.16	6.73
357.524	6.63
357.889	6.59
358.253	6.64
358.618	6.58
358.982	6.55
359.346	6.52
359.71	6.41
360.075	6.36
360.439	6.35
360.803	6.37
361.167	6.32
361.531	6.3
361.895	6.31
362.259	6.34
362.623	6.32
362.987	6.3
363.351	6.28
363.714	6.22
364.078	6.16
364.442	6.09
364.806	6.04
365.169	6
365.533	6.05
365.896	5.97
366.26	5.96
366.623	5.91
366.987	5.91
367.35	5.95
367.714	5.94
368.077	5.81
368.44	5.74
368.803	5.75
369.167	5.7
369.53	5.68
369.893	5.69
370.256	5.71
370.619	5.62
370.982	5.59
371.345	5.49
371.708	5.5
372.071	5.47
372.434	5.41
372.797	5.42
373.159	5.38
373.522	5.4
373.885	5.34
374.247	5.3
374.61	5.27
374.973	5.12
375.335	5.11
375.698	5.08
376.06	5.03
376.423	5.01
376.785	5.07
377.147	5.05
377.51	4.96
377.872	4.91
378.234	4.94
378.596	4.94
378.958	4.91
379.321	4.9
379.683	4.87
380.045	4.88
380.407	4.85
380.769	4.76
381.13	4.7
381.492	4.66
381.854	4.65
382.216	4.62
382.578	4.62
382.939	4.56
383.301	4.55
383.663	4.56
384.024	4.52
384.386	4.45
384.747	4.44
385.109	4.49
385.47	4.43
385.832	4.38
386.193	4.33
386.554	4.34
386.916	4.3
387.277	4.28
387.638	4.25
387.999	4.21
388.36	4.21
388.721	4.21
389.082	4.19
389.443	4.17
389.804	4.16
390.165	4.15
390.526	4.11
390.887	4.13
391.248	4.1
391.609	4.07
391.969	4.09
392.33	4.05
392.691	3.99
393.051	3.97
393.412	3.97
393.772	3.93
394.133	3.91
394.493	3.89
394.854	3.91
395.214	3.87
395.574	3.84
395.935	3.82
396.295	3.78
396.655	3.75
397.015	3.72
397.376	3.7
397.736	3.69
398.096	3.72
398.456	3.69
398.816	3.7
399.176	3.72
399.535	3.66
399.895	3.62
400.255	3.62
400.615	3.62
400.975	3.62
401.334	3.62
401.694	3.63
402.054	3.62
402.413	3.57
402.773	3.57
403.132	3.59
403.492	3.58
403.851	3.58
404.211	3.59
404.57	3.58
404.929	3.56
405.288	3.54
405.648	3.51
406.007	3.51
406.366	3.48
406.725	3.47
407.084	3.47
407.443	3.47
407.802	3.46
408.161	3.45
408.52	3.43
408.879	3.38
409.238	3.37
409.596	3.36
409.955	3.38
410.314	3.39
410.673	3.36
411.031	3.37
411.39	3.37
411.748	3.36
412.107	3.35
412.465	3.34
412.824	3.33
413.182	3.35
413.54	3.34
413.899	3.38
414.257	3.36
414.615	3.37
414.974	3.39
415.332	3.38
415.69	3.35
416.048	3.32
416.406	3.34
416.764	3.32
417.122	3.33
417.48	3.31
417.838	3.31
418.195	3.33
418.553	3.32
418.911	3.31
419.269	3.31
419.626	3.29
419.984	3.28
420.342	3.29
420.699	3.27
421.057	3.27
421.414	3.24
421.772	3.25
422.129	3.23
422.486	3.21
422.844	3.21
423.201	3.21
423.558	3.24
423.915	3.24
424.273	3.25
424.63	3.25
424.987	3.26
425.344	3.27
425.701	3.25
426.058	3.24
426.415	3.23
426.772	3.23
427.128	3.25
427.485	3.26
427.842	3.25
428.199	3.25
428.555	3.25
428.912	3.24
429.269	3.23
429.625	3.22
429.982	3.23
430.338	3.22
430.695	3.24
431.051	3.2
431.407	3.17
431.764	3.16
432.12	3.14
432.476	3.13
432.832	3.09
433.189	3.11
433.545	3.11
433.901	3.11
434.257	3.12
434.613	3.12
434.969	3.12
435.325	3.13
435.681	3.11
436.036	3.12
436.392	3.13
436.748	3.12
437.104	3.13
437.459	3.14
437.815	3.15
438.171	3.15
438.526	3.17
438.882	3.19
439.237	3.18
439.593	3.18
439.948	3.17
440.304	3.18
440.659	3.17
441.014	3.17
441.369	3.16
441.725	3.14
442.08	3.14
442.435	3.12
442.79	3.11
443.145	3.11
443.5	3.11
443.855	3.09
444.21	3.1
444.565	3.1
444.92	3.09
445.275	3.08
445.629	3.07
445.984	3.05
446.339	3.04
446.693	3.04
447.048	3.04
447.403	3.04
447.757	3.03
448.112	3.03
448.466	3.03
448.82	3.05
449.175	3.05
449.529	3.05
449.883	3.06
450.238	3.07
450.592	3.08
450.946	3.06
451.3	3.09
451.654	3.08
452.008	3.08
452.362	3.09
452.716	3.11
453.07	3.11
453.424	3.12
453.778	3.1
454.132	3.11
454.486	3.1
454.839	3.1
455.193	3.12
455.547	3.12
455.9	3.12
456.254	3.12
456.607	3.11
456.961	3.1
457.314	3.1
457.668	3.1
458.021	3.08
458.375	3.09
458.728	3.08
459.081	3.09
459.434	3.08
459.787	3.07
460.141	3.06
460.494	3.06
460.847	3.07
461.2	3.06
461.553	3.06
461.906	3.08
462.259	3.1
462.611	3.1
462.964	3.11
463.317	3.11
463.67	3.11
464.022	3.13
464.375	3.14
464.728	3.16
465.08	3.17
465.433	3.17
465.785	3.16
466.138	3.15
466.49	3.15
466.843	3.17
467.195	3.18
467.547	3.16
467.899	3.17
468.252	3.16
468.604	3.19
468.956	3.19
469.308	3.2
469.66	3.16
470.012	3.16
470.364	3.17
470.716	3.16
471.068	3.15
471.42	3.15
471.772	3.17
472.123	3.16
472.475	3.16
472.827	3.16
473.178	3.19
473.53	3.19
473.882	3.21
474.233	3.22
474.585	3.22
474.936	3.23
475.288	3.24
475.639	3.26
475.99	3.25
476.342	3.26
476.693	3.25
477.044	3.27
477.395	3.28
477.746	3.25
478.097	3.25
478.448	3.25
478.8	3.25
479.15	3.21
479.501	3.2
479.852	3.2
480.203	3.19
480.554	3.2
480.905	3.2
481.255	3.19
481.606	3.19
481.957	3.2
482.307	3.19
482.658	3.19
483.009	3.19
483.359	3.19
483.709	3.2
484.06	3.21
484.41	3.21
484.761	3.21
485.111	3.22
485.461	3.22
485.811	3.22
486.162	3.21
486.512	3.22
486.862	3.22
487.212	3.22
487.562	3.23
487.912	3.21
488.262	3.21
488.612	3.22
488.961	3.22
489.311	3.21
489.661	3.21
490.011	3.22
490.36	3.21
490.71	3.21
491.06	3.2
491.409	3.19
491.759	3.19
492.108	3.18
492.458	3.19
492.807	3.18
493.157	3.18
493.506	3.18
493.855	3.18
494.204	3.18
494.554	3.19
494.903	3.19
495.252	3.19
495.601	3.21
495.95	3.21
496.299	3.22
496.648	3.22
496.997	3.23
497.346	3.24
497.695	3.25
498.043	3.25
498.392	3.27
498.741	3.29
499.09	3.3
499.438	3.34
499.787	3.34
500.135	3.39
500.484	3.4
500.832	3.45
501.181	3.45
501.529	3.46
501.878	3.51
502.226	3.54
502.574	3.55
502.923	3.55
503.271	3.58
503.619	3.6
503.967	3.65
504.315	3.68
504.663	3.73
505.011	3.77
505.359	3.81
505.707	3.86
506.055	3.87
506.403	3.9
506.751	3.93
507.098	3.96
507.446	4
507.794	4.04
508.141	4.05
508.489	4.13
508.837	4.18
509.184	4.22
509.531	4.28
509.879	4.37
510.226	4.45
510.574	4.49
510.921	4.55
511.268	4.57
511.616	4.65
511.963	4.71
512.31	4.77
512.657	4.83
513.004	4.9
513.351	5
513.698	5.09
514.045	5.17
514.392	5.26
514.739	5.35
515.086	5.47
515.432	5.56
515.779	5.64
516.126	5.74
516.473	5.83
516.819	5.93
517.166	6.01
517.512	6.1
517.859	6.19
518.205	6.26
518.552	6.36
518.898	6.41
519.245	6.5
519.591	6.59
519.937	6.68
520.283	6.76
520.629	6.87
520.976	6.97
521.322	7.08
521.668	7.19
522.014	7.29
522.36	7.4
522.706	7.53
523.052	7.65
523.398	7.81
523.743	7.95
524.089	8.09
524.435	8.22
524.781	8.35
525.126	8.48
525.472	8.59
525.817	8.71
526.163	8.83
526.509	8.95
526.854	9.05
527.199	9.14
527.545	9.23
527.89	9.3
528.235	9.39
528.581	9.48
528.926	9.59
529.271	9.7
529.616	9.8
529.961	9.9
530.306	10.01
530.651	10.1
530.996	10.19
531.341	10.3
531.686	10.42
532.031	10.54
532.376	10.67
532.721	10.8
533.065	10.93
533.41	11.08
533.755	11.21
534.099	11.34
534.444	11.5
534.788	11.66
535.133	11.79
535.477	11.94
535.822	12.08
536.166	12.21
536.51	12.37
536.855	12.52
537.199	12.72
537.543	12.91
537.887	13.12
538.231	13.34
538.576	13.55
538.92	13.75
539.264	13.91
539.608	14.1
539.951	14.29
540.295	14.45
540.639	14.61
540.983	14.76
541.327	14.94
541.671	15.09
542.014	15.24
542.358	15.41
542.701	15.57
543.045	15.76
543.389	15.94
543.732	16.09
544.075	16.31
544.419	16.47
544.762	16.66
545.105	16.86
545.449	17.07
545.792	17.28
546.135	17.49
546.478	17.76
546.821	17.99
547.165	18.23
547.508	18.49
547.851	18.73
548.194	18.97
548.536	19.24
548.879	19.51
549.222	19.78
549.565	20.07
549.908	20.34
550.25	20.58
550.593	20.85
550.936	21.14
551.278	21.35
551.621	21.68
551.963	21.99
552.306	22.28
552.648	22.52
552.991	22.79
553.333	23.05
553.675	23.31
554.017	23.58
554.36	23.85
554.702	24.09
555.044	24.36
555.386	24.64
555.728	24.91
556.07	25.16
556.412	25.42
556.754	25.67
557.096	25.94
557.438	26.25
557.78	26.59
558.121	26.9
558.463	27.21
558.805	27.52
559.147	27.76
559.488	28
559.83	28.29
560.171	28.56
560.513	28.88
560.854	29.12
561.196	29.35
561.537	29.61
561.878	29.89
562.22	30.15
562.561	30.36
562.902	30.6
563.243	30.84
563.584	31.11
563.925	31.39
564.266	31.62
564.607	31.86
564.948	32.08
565.289	32.26
565.63	32.48
565.971	32.66
566.312	32.91
566.653	33.16
566.993	33.35
567.334	33.57
567.675	33.77
568.015	34.03
568.356	34.31
568.696	34.51
569.037	34.77
569.377	35
569.718	35.25
570.058	35.47
570.398	35.68
570.739	35.89
571.079	36.1
571.419	36.32
571.759	36.56
572.099	36.77
572.439	36.99
572.779	37.16
573.119	37.34
573.459	37.55
573.799	37.77
574.139	37.98
574.479	38.15
574.819	38.28
575.158	38.46
575.498	38.64
575.838	38.88
576.177	38.97
576.517	39.15
576.856	39.34
577.196	39.52
577.535	39.72
577.875	39.92
578.214	40.12
578.553	40.35
578.893	40.5
579.232	40.65
579.571	40.86
579.91	41.15
580.25	41.37
580.589	41.49
580.928	41.69
581.267	41.86
581.606	42.11
581.945	42.4
582.283	42.62
582.622	42.8
582.961	43.02
583.3	43.27
583.639	43.51
583.977	43.64
584.316	43.81
584.654	44.06
584.993	44.18
585.332	44.37
585.67	44.53
586.008	44.73
586.347	44.95
586.685	45.16
587.024	45.22
587.362	45.32
587.7	45.51
588.038	45.65
588.376	45.79
588.715	45.99
589.053	46.08
589.391	46.2
589.729	46.32
590.067	46.35
590.404	46.46
590.742	46.54
591.08	46.73
591.418	46.91
591.756	47.01
592.093	47.12
592.431	47.25
592.769	47.33
593.106	47.42
593.444	47.51
593.781	47.54
594.119	47.67
594.456	47.77
594.793	47.84
595.131	47.92
595.468	48.06
595.805	48.03
596.143	48.15
596.48	48.18
596.817	48.26
597.154	48.37
597.491	48.49
597.828	48.61
598.165	48.67
598.502	48.7
598.839	48.78
599.176	48.86
599.512	48.9
599.849	49.08
600.186	49.15
600.523	49.21
600.859	49.34
601.196	49.38
601.532	49.48
601.869	49.61
602.205	49.71
602.542	49.72
602.878	49.81
603.215	49.85
603.551	49.94
603.887	49.99
604.223	50.07
604.56	50.19
604.896	50.28
605.232	50.45
605.568	50.53
605.904	50.62
606.24	50.73
606.576	50.79
606.912	50.83
607.248	50.88
607.583	50.98
607.919	50.99
608.255	51.12
608.591	51.21
608.926	51.25
609.262	51.29
609.597	51.45
609.933	51.56
610.268	51.66
610.604	51.83
610.939	51.92
611.275	51.94
611.61	52
611.945	52
612.281	51.95
612.616	52.01
612.951	52.11
613.286	52.1
613.621	52.14
613.956	52.21
614.291	52.36
614.626	52.41
614.961	52.56
615.296	52.66
615.631	52.77
615.966	52.83
616.3	52.98
616.635	52.96
616.97	53.05
617.304	53.05
617.639	53.06
617.973	53.08
618.308	53.11
618.642	53.1
618.977	53.2
619.311	53.19
619.646	53.25
619.98	53.22
620.314	53.31
620.648	53.46
620.983	53.57
621.317	53.6
621.651	53.69
621.985	53.76
622.319	53.8
622.653	53.85
622.987	53.96
623.321	53.83
623.655	53.86
623.988	53.91
624.322	53.92
624.656	53.96
624.99	54.1
625.323	54.13
625.657	54.2
625.99	54.23
626.324	54.24
626.657	54.28
626.991	54.35
627.324	54.45
627.658	54.48
627.991	54.44
628.324	54.43
628.657	54.43
628.991	54.45
629.324	54.48
629.657	54.48
629.99	54.49
630.323	54.65
630.656	54.73
630.989	54.73
631.322	54.74
631.655	54.84
631.987	54.83
632.32	54.91
632.653	54.88
632.986	54.95
633.318	55.04
633.651	55.04
633.984	55.05
634.316	55
634.649	54.99
634.981	55.04
635.313	55.16
635.646	55.26
635.978	55.25
636.31	55.36
636.643	55.38
636.975	55.31
637.307	55.33
637.639	55.27
637.971	55.35
638.303	55.42
638.635	55.29
638.967	55.31
639.299	55.31
639.631	55.31
639.963	55.29
640.295	55.39
640.626	55.5
640.958	55.53
641.29	55.6
641.621	55.73
641.953	55.68
642.285	55.61
642.616	55.54
642.948	55.6
643.279	55.66
643.61	55.72
643.942	55.87
644.273	55.94
644.604	56.17
644.936	56.23
645.267	56.35
645.598	56.42
645.929	56.45
646.26	56.52
646.591	56.65
646.922	56.62
647.253	56.65
647.584	56.58
647.915	56.71
648.245	56.72
648.576	56.63
648.907	56.71
649.238	56.83
649.568	56.94
649.899	56.88
650.229	56.83
650.56	56.88
650.89	56.85
651.221	56.79
651.551	56.69
651.882	56.69
652.212	56.65
652.542	56.77
652.872	56.81
653.203	56.84
653.533	56.88
653.863	56.98
654.193	57.04
654.523	57.14
654.853	57.08
655.183	57.14
655.513	57.07
655.843	57.16
656.172	57.03
656.502	57.06
656.832	57.16
657.162	57.12
657.491	57.08
657.821	57.12
658.15	57.13
658.48	57.2
658.809	57.21
659.139	57.37
659.468	57.28
659.798	57.22
660.127	57.17
660.456	57.17
660.785	57.13
661.115	57.13
661.444	57.09
661.773	57.08
662.102	57.07
662.431	57.15
662.76	57.03
663.089	57.14
663.418	57.11
663.747	57.13
664.076	57.11
664.404	57.1
664.733	57.05
665.062	57.12
665.39	57.12
665.719	57.07
666.048	56.86
666.376	56.84
666.705	56.98
667.033	57.11
667.362	57.19
667.69	57.07
668.018	57.03
668.347	57.07
668.675	57.16
669.003	57.26
669.331	57.37
669.659	57.42
669.987	57.41
670.315	57.43
670.643	57.42
670.971	57.45
671.299	57.57
671.627	57.67
671.955	57.69
672.283	57.71
672.61	57.72
672.938	57.91
673.266	58.06
673.593	58.08
673.921	58.05
674.249	57.88
674.576	58.09
674.904	58.12
675.231	58.08
675.558	57.97
675.886	57.95
676.213	57.91
676.54	57.97
676.867	58.02
677.195	58.09
677.522	58.14
677.849	58.28
678.176	58.23
678.503	58.24
678.83	58.34
679.157	58.32
679.484	58.3
679.81	58.32
680.137	58.33
680.464	58.26
680.791	58.25
681.117	58.37
681.444	58.38
681.771	58.45
682.097	58.48
682.424	58.53
682.75	58.63
683.077	58.82
683.403	58.85
683.729	58.98
684.056	58.88
684.382	59.09
684.708	59
685.034	59.15
685.36	59.33
685.686	59.23
686.012	59.35
686.339	59.51
686.664	59.48
686.99	59.55
687.316	59.64
687.642	59.81
687.968	59.78
688.294	59.74
688.619	59.64
688.945	59.62
689.271	59.82
689.596	59.64
689.922	59.69
690.247	59.59
690.573	59.54
690.898	59.61
691.224	59.37
691.549	59.44
691.874	59.48
692.2	59.39
692.525	59.42
692.85	59.39
693.175	59.4
693.5	59.39
693.825	59.21
694.15	59.18
694.475	59.14
694.8	59.3
695.125	59.28
695.45	59.38
695.775	59.41
696.099	59.31
696.424	59.4
696.749	59.25
697.073	59.35
697.398	59.42
697.723	59.37
698.047	59.38
698.372	59.38
698.696	59.14
699.02	58.89
699.345	58.91
699.669	58.87
699.993	58.81
700.318	58.8
700.642	58.92
700.966	58.91
701.29	58.76
701.614	58.65
701.938	58.68
702.262	58.81
702.586	58.79
702.91	58.87
703.234	58.9
703.557	58.89
703.881	58.95
704.205	58.84
704.529	58.97
704.852	58.93
705.176	58.92
705.499	59.22
705.823	59.59
706.146	59.46
706.47	59.51
706.793	59.67
707.117	59.79
707.44	59.77
707.763	59.65
708.086	59.86
708.409	59.89
708.733	59.79
709.056	59.74
709.379	59.75
709.702	59.78
710.025	59.85
710.348	59.83
710.671	59.74
710.993	59.87
711.316	59.84
711.639	59.96
711.962	60
712.284	59.75
712.607	59.73
712.93	59.76
713.252	59.85
713.575	59.73
713.897	59.74
714.22	59.69
714.542	59.83
714.864	59.79
715.187	59.87
715.509	60.13
715.831	60.07
716.153	60.06
716.475	59.89
716.798	59.78
717.12	60.13
717.442	60.26
717.764	60.08
718.085	60.12
718.407	60.02
718.729	59.91
719.051	60.21
719.373	60.2
719.695	60.21
720.016	60.06
720.338	60.04
720.659	60.15
720.981	60.12
721.302	60.07
721.624	60.13
721.945	59.99
722.267	59.94
722.588	59.85
722.909	60.19
723.231	60.11
723.552	60.26
723.873	59.83
724.194	59.61
724.515	59.62
724.836	59.66
725.157	59.76
725.478	59.88
725.799	59.76
726.12	59.9
726.441	59.91
726.762	60.11
727.083	59.97
727.403	59.83
727.724	60.11
728.045	60.08
728.365	60.03
728.686	60.14
729.006	60.18
729.327	60.16
729.647	60.08
729.967	60.16
730.288	60.07
730.608	59.98
730.928	60.11
731.249	60.14
731.569	60.07
731.889	60.2
732.209	60.04
732.529	60
732.849	59.79
733.169	59.74
733.489	59.63
733.809	59.83
734.129	59.73
734.448	59.74
734.768	59.79
735.088	59.68
735.408	59.77
735.727	59.73
736.047	59.92
736.366	59.67
736.686	59.5
737.005	59.53
737.325	59.58
737.644	59.66
737.963	59.78
738.283	59.69
738.602	59.71
738.921	59.77
739.24	59.94
739.56	60.1
739.879	60.19
740.198	60.09
740.517	60.25
740.836	60.24
741.155	60.16
741.473	60.25
741.792	60.52
742.111	60.19
742.43	60.12
742.748	59.98
743.067	60.05
743.386	60.4
743.704	60.76
744.023	60.86
744.341	60.85
744.66	60.69
744.978	61.08
745.297	61.02
745.615	61.35
745.933	61.34
746.252	61.55
746.57	61.76
746.888	62.03
747.206	61.93
747.524	61.77
747.842	62.06
748.16	62.14
748.478	61.94
748.796	62
749.114	62.03
749.432	62.12
749.749	62.19
750.067	61.65
750.385	61.35
750.703	61.28
751.02	61.06
751.338	60.8
751.655	60.56
751.973	60.22
752.29	60.29
752.608	59.99
752.925	59.68
753.242	59.59
753.56	59.31
753.877	59.21
754.194	59.4
754.511	59.17
754.828	59.13
755.145	59.13
755.462	59.06
755.779	58.84
756.096	58.74
756.413	58.76
756.73	59.32
757.047	59.48
757.364	59.74
757.68	59.87
757.997	60.16
758.314	59.89
758.63	60.16
758.947	59.8
759.264	60.4
759.58	60.59
759.896	60.72
760.213	60.97
760.529	61.06
760.846	61.28
761.162	61.18
761.478	61.15
761.794	61.38
762.11	61.57
762.426	61.93
762.743	62
763.059	61.81
763.375	61.84
763.69	61.65
764.006	61.66
764.322	61.7
764.638	61.68
764.954	61.95
765.27	61.81
765.585	61.94
765.901	61.68
766.216	61.46
766.532	61.28
766.848	61.13
767.163	61.22
767.478	61.09
767.794	60.85
768.109	60.93
768.424	60.81
768.74	60.68
769.055	60.41
769.37	60.37
769.685	60.9
770	60.88
770.315	61.14
770.63	60.96
770.945	60.87
771.26	60.83
771.575	61.04
771.89	61.26
772.205	61.44
772.52	61.28
772.834	61.49
773.149	61.26
773.464	61.65
773.778	61.57
774.093	61.47
774.407	61.66
774.722	61.39
775.036	61.33
775.351	61.42
775.665	61.57
775.979	61.78
776.293	61.34
776.608	60.88
776.922	60.36
777.236	60.31
777.55	60.33
777.864	60.49
778.178	60.1
778.492	60.25
778.806	59.89
779.12	60.34
779.434	60.37
779.747	60.74
780.061	60.45
780.375	60.69
780.689	61.18
781.002	61.49
781.316	61.6
781.629	61.57
781.943	62.14
782.256	62.22
782.57	62.38
782.883	62.13
783.196	62.57
783.51	62.65
783.823	62.93
784.136	63.27
784.449	63.26
784.762	63.64
785.075	63.46
785.388	63.38
785.701	62.82
786.014	62.51
786.327	62.43
786.64	62.71
786.953	62.51
787.266	61.52
787.578	61.02
787.891	61.13
788.204	61.33
788.516	60.93
788.829	61.02
789.141	60.75
789.454	61.3
789.766	61.4
790.079	61.14
790.391	60.89
790.703	60.61
791.016	60.47
791.328	60.16
791.64	60.17
791.952	60.5
792.264	60.56
792.576	60.84
792.888	61.03
793.2	60.93
793.512	60.37
793.824	61.25
794.136	62.14
794.448	62
794.76	62.06
795.071	62.28
795.383	61.84
795.695	61.83
796.006	61.51
796.318	61.59
796.629	62.21
796.941	61.73
797.252	61.81
797.564	62.21
797.875	62.03
798.186	62.2
798.497	62.46
798.809	62.42
799.12	62.41
799.431	62.53
799.742	62.34
800.053	63.04
800.364	63.1
800.675	62.17
800.986	62.34
801.297	62.22
801.608	61.7
801.918	62.06
802.229	61.81
802.54	62.13
802.851	62.29
803.161	61.88
803.472	63.16
803.782	63.28
804.093	62.99
804.403	63
804.714	63.47
805.024	62.8
805.334	63.04
805.645	62.96
805.955	63.02
806.265	63.24
806.575	62.59
806.885	62.27
807.195	62.6
807.505	63.19
807.815	62.86
808.125	63.13
808.435	63.22
808.745	63.54
809.055	63.68
809.365	63.13
809.674	63.51
809.984	62.39
810.294	61.93
810.603	62.25
810.913	61.99
811.222	61.03
811.532	61.93
811.841	61.99
812.151	62.48
812.46	62.61
812.769	62.5
813.079	63.37
813.388	63.02
813.697	63.43
814.006	62.44
814.315	63.13
814.624	63.08
814.933	62.87
815.242	62.56
815.551	62.09
815.86	63.12
816.169	63.52
816.478	64.1
816.786	64.36
817.095	64.1
817.404	64.96
817.712	64.72
818.021	63.83
818.33	63.05
818.638	62.5
818.947	62.13
819.255	62.11
819.563	62.09
819.872	62.2
820.18	62.12
820.488	62.07
820.796	62.13
821.105	62.11
821.413	61.91
821.721	61.86
822.029	62.06
822.337	61.65
822.645	61.75
822.953	61.63
823.26	61.7
823.568	61.47
823.876	61.57
824.184	61.51
824.491	61.48
824.799	61.77
825.107	61.91
825.414	61.79
825.722	61.83
826.029	61.75
826.337	61.79
826.644	61.84
826.951	61.9
827.259	61.58
827.566	61.53
827.873	61.68
828.18	61.91
828.488	61.83
828.795	62.08
829.102	61.91
829.409	61.94
829.716	61.66
830.023	62.06
830.329	61.64
830.636	62.02
830.943	61.96
831.25	61.58
831.557	61.36
831.863	61.75
832.17	61.48
832.476	61.23
832.783	61
833.089	60.62
833.396	60.37
833.702	60.62
834.009	60.63
834.315	60.11
834.621	60
834.928	59.88
835.234	59.87
835.54	59.51
835.846	59.72
836.152	59.92
836.458	59.97
836.764	59.48
837.07	59.58
837.376	59.74
837.682	60.01
837.988	59.05
838.293	58.54
838.599	58.56
838.905	58.81
839.211	58.89
839.516	58.91
839.822	60.13
840.127	60.19
840.433	60.35
840.738	61.25
841.044	61.09
841.349	61.46
841.654	60.93
841.959	61.18
842.265	60.98
842.57	61.79
842.875	61.8
843.18	62.68
843.485	61.89
843.79	62.6
844.095	62.79
844.4	65.04
844.705	65.33
845.01	65.77
845.315	65.83
845.619	66.35
845.924	66.66
846.229	65.68
846.533	65.49
846.838	65.6
847.142	65.48
847.447	64.85
847.751	63.82
848.056	65.93
848.36	67.31
848.664	68.62
848.969	68.85
849.273	67.4
849.577	65.85
849.881	65.9
850.185	65.57
850.489	64.42
850.794	63.58
851.097	64.39
851.401	62.91
851.705	62.29
852.009	63.05
852.313	62.19
852.617	60.13
852.92	60.75
853.224	59.13
853.528	59.24
853.831	58.55
854.135	59.2
854.438	56.87
854.742	54.7
855.045	54.29
855.349	54.02
855.652	54.51
855.955	56.64
856.259	57.97
856.562	57.03
856.865	57.29
857.168	57.65
857.471	57.32
857.774	58.03
858.077	57.91
858.38	55.97
858.683	57.16
858.986	57.89
859.289	57.31
859.592	57.29
859.894	56.68
860.197	57.44
860.5	54.98
860.802	55.69
861.105	59.11
861.407	56.81
861.71	56.22
862.012	56.14
862.315	54.94
862.617	56.22
862.919	57.2
863.222	56.62
863.524	55.76
863.826	55.6
864.128	55.69
864.43	56.96
864.732	57.14
865.034	55.54
865.336	54.73
865.638	54.34
865.94	55.07
866.242	53.19
866.544	52.42
866.846	54.03
867.147	51.43
867.449	48.63
867.751	50.64
868.052	49.49
868.354	48.99
868.655	52.02
868.957	50.86
869.258	48.29
869.56	49.69
869.861	48.9
870.162	49.89
870.463	50.12
870.765	48.37
871.066	48.9
871.367	50.89
871.668	51.17
871.969	52.54
872.27	52.41
872.571	57.8
872.872	59.53
873.173	61.11
873.473	62.56
873.774	63.34
874.075	61.07
874.376	60.89
874.676	63.74
874.977	60.05
875.277	58.67
875.578	65
875.878	63.29
876.179	64.79
876.479	64.08
876.78	63.92
877.08	66.16
877.38	66.07
877.68	64.21
877.981	66.36
878.281	65.08
878.581	67.66
