Data from BU58138_Reflection_00012.txt Node
Date: Mon Nov 18 16:42:24 EST 2019
User: vgr7
Spectrometer: USB2G7710
Scans to average: 3
Trigger mode: 4
Integration Time (sec): 2.000000E-2
Electric dark correction enabled: true
Boxcar width: 10
XAxis mode: Wavelengths
Number of Pixels in Spectrum: 2048
>>>>>Begin Spectral Data<<<<<
177.721	-18566.67
178.105	703.17
178.488	697.91
178.871	4558.33
179.254	-415.82
179.636	-78.62
180.019	-101.67
180.402	70.37
180.785	104.59
181.168	107.37
181.55	52.96
181.933	55.85
182.316	83.69
182.698	103.59
183.081	94.94
183.463	75.83
183.846	75.13
184.228	121.38
184.611	115.54
184.993	135.69
185.376	188.21
185.758	168.93
186.14	206.04
186.522	286.5
186.904	385.94
187.287	2492.69
187.669	-1713.62
188.051	1645.79
188.433	349.75
188.815	6305.13
189.197	-896.63
189.579	-372.51
189.961	-318.51
190.342	-268.67
190.724	-123.87
191.106	-75.71
191.488	-63.56
191.869	-73.49
192.251	-65.77
192.633	-66.48
193.014	-93.05
193.396	-89.6
193.777	-87.62
194.159	-85.3
194.54	-51.59
194.922	-55.19
195.303	-60.96
195.684	-67.17
196.065	-52.62
196.447	-51.8
196.828	-76.57
197.209	-70.42
197.59	-62.89
197.971	-101.38
198.352	-89.23
198.733	-109.59
199.114	-106.39
199.495	-91.98
199.876	-97
200.257	-100.98
200.638	-95.22
201.018	-103.81
201.399	-87.58
201.78	-67.84
202.16	-64.66
202.541	-95.82
202.922	-169.54
203.302	-221.9
203.683	-172.56
204.063	-194.73
204.444	-149.92
204.824	-118.54
205.204	-103.29
205.585	-91.54
205.965	-48.04
206.345	-53.89
206.725	-70.1
207.106	-53.01
207.486	-65.98
207.866	-53.76
208.246	-28.85
208.626	-25.03
209.006	-17.55
209.386	-31.55
209.766	-10.11
210.145	-15.6
210.525	-8.35
210.905	-3.14
211.285	5.52
211.664	7.54
212.044	15.69
212.424	19.83
212.803	18.08
213.183	7.21
213.562	-2.56
213.942	3.16
214.321	3.83
214.701	7.23
215.08	-2.1
215.459	-3.88
215.838	-4.77
216.218	-28.83
216.597	-20.75
216.976	-28.74
217.355	-20.59
217.734	-28.12
218.113	-22
218.492	-13.83
218.871	-16.33
219.25	-20.66
219.629	-15.13
220.008	-18.92
220.387	-36
220.766	-34.04
221.144	-55.87
221.523	-35.4
221.902	-76.5
222.28	-130.17
222.659	-78.35
223.037	-52.16
223.416	-43.71
223.794	-33.93
224.173	-3.22
224.551	-6.28
224.929	1.06
225.308	2.33
225.686	2.16
226.064	5.77
226.442	-1.58
226.821	4.51
227.199	4.5
227.577	0.6
227.955	-2
228.333	-0.14
228.711	1.68
229.089	3.77
229.467	0.74
229.845	-2.62
230.222	-1.31
230.6	-3.76
230.978	-3.95
231.356	-0.98
231.733	-2.35
232.111	-1.67
232.488	-1.77
232.866	-2.31
233.243	-1.99
233.621	-3.51
233.998	-3.03
234.376	-3.28
234.753	-4.33
235.13	-3.68
235.508	-3.56
235.885	-2.98
236.262	-3.91
236.639	-4.46
237.016	-2.54
237.393	0.16
237.77	2.31
238.147	3.59
238.524	3.31
238.901	3.67
239.278	4.07
239.655	5.58
240.032	5.83
240.409	5.34
240.785	5.24
241.162	5.15
241.539	5.41
241.915	5.38
242.292	5.39
242.668	5.3
243.045	5.53
243.421	5.58
243.798	5.41
244.174	5.76
244.551	5.64
244.927	5.05
245.303	4.94
245.679	4.79
246.056	4.64
246.432	4.66
246.808	4.59
247.184	4.44
247.56	4.03
247.936	3.78
248.312	3.89
248.688	3.81
249.064	3.68
249.44	3.77
249.815	3.71
250.191	3.66
250.567	3.54
250.943	3.26
251.318	3.33
251.694	3.31
252.069	3.03
252.445	3.16
252.82	3.32
253.196	3.04
253.571	3.01
253.947	3.2
254.322	3.63
254.697	3.46
255.073	3.46
255.448	3.33
255.823	3.45
256.198	3.54
256.573	3.86
256.948	3.94
257.323	3.98
257.698	3.82
258.073	3.93
258.448	3.91
258.823	3.84
259.198	3.77
259.573	3.97
259.948	3.98
260.322	3.92
260.697	3.79
261.072	3.73
261.446	3.63
261.821	3.39
262.195	3.45
262.57	3.45
262.944	3.49
263.319	3.55
263.693	3.52
264.067	3.49
264.442	3.56
264.816	3.39
265.19	3.23
265.564	3.22
265.938	3.1
266.313	2.99
266.687	3.2
267.061	3.23
267.435	3.06
267.809	3.08
268.183	2.98
268.556	3.05
268.93	3.12
269.304	3.29
269.678	3.59
270.051	3.41
270.425	3.42
270.799	3.23
271.172	3.21
271.546	3.11
271.919	3.08
272.293	2.86
272.666	3.13
273.04	3.26
273.413	3.47
273.787	3.5
274.16	3.48
274.533	3.36
274.906	3.4
275.279	3.39
275.653	3.36
276.026	3.45
276.399	3.39
276.772	3.53
277.145	3.39
277.518	3.35
277.891	3.33
278.263	3.31
278.636	3.46
279.009	3.5
279.382	3.72
279.755	3.8
280.127	3.93
280.5	3.73
280.872	3.61
281.245	3.35
281.617	3.46
281.99	3.54
282.362	3.7
282.735	3.56
283.107	3.46
283.479	3.39
283.852	3.46
284.224	3.55
284.596	3.49
284.968	3.63
285.34	3.53
285.713	3.49
286.085	3.56
286.457	3.46
286.829	3.39
287.201	3.39
287.572	3.31
287.944	3.23
288.316	3.22
288.688	3.36
289.06	3.44
289.431	3.42
289.803	3.46
290.175	3.44
290.546	3.53
290.918	3.58
291.289	3.74
291.661	3.81
292.032	3.83
292.403	3.71
292.775	3.63
293.146	3.47
293.517	3.55
293.889	3.59
294.26	3.74
294.631	3.79
295.002	3.8
295.373	3.79
295.744	3.83
296.115	3.9
296.486	3.7
296.857	3.66
297.228	3.61
297.599	3.6
297.97	3.53
298.34	3.58
298.711	3.75
299.082	3.68
299.452	3.58
299.823	3.63
300.194	3.82
300.564	3.81
300.935	4.05
301.305	4.06
301.676	4.1
302.046	4.08
302.416	4.21
302.787	4.21
303.157	4.24
303.527	4.32
303.897	4.33
304.267	4.57
304.637	4.6
305.008	4.64
305.378	4.82
305.748	4.91
306.117	4.81
306.487	4.75
306.857	4.84
307.227	4.81
307.597	4.78
307.967	4.86
308.336	5.05
308.706	5.13
309.076	5.22
309.445	5.23
309.815	5.15
310.184	5.11
310.554	5.19
310.923	5.18
311.293	5.12
311.662	5.21
312.031	5.26
312.401	5.41
312.77	5.64
313.139	5.6
313.508	5.56
313.877	5.75
314.246	5.82
314.616	5.82
314.985	5.95
315.353	6.02
315.722	5.96
316.091	5.92
316.46	5.76
316.829	5.8
317.198	5.82
317.567	5.89
317.935	5.98
318.304	6.03
318.672	6.16
319.041	6.25
319.41	6.33
319.778	6.38
320.147	6.35
320.515	6.3
320.883	6.39
321.252	6.64
321.62	6.63
321.988	6.58
322.357	6.78
322.725	6.63
323.093	6.72
323.461	6.72
323.829	6.85
324.197	6.94
324.565	6.93
324.933	6.92
325.301	6.99
325.669	7.01
326.037	6.92
326.405	6.96
326.772	7.07
327.14	7.11
327.508	7.06
327.875	7.1
328.243	7.12
328.61	7.21
328.978	7.16
329.346	7.18
329.713	7.25
330.08	7.31
330.448	7.5
330.815	7.34
331.182	7.29
331.55	7.27
331.917	7.33
332.284	7.43
332.651	7.47
333.018	7.51
333.385	7.47
333.752	7.64
334.119	7.73
334.486	7.76
334.853	7.59
335.22	7.52
335.587	7.59
335.954	7.48
336.32	7.41
336.687	7.38
337.054	7.33
337.42	7.3
337.787	7.34
338.153	7.35
338.52	7.58
338.886	7.63
339.253	7.59
339.619	7.67
339.986	7.6
340.352	7.56
340.718	7.54
341.084	7.6
341.451	7.57
341.817	7.58
342.183	7.48
342.549	7.63
342.915	7.66
343.281	7.59
343.647	7.69
344.013	7.77
344.379	7.85
344.745	7.88
345.11	7.97
345.476	7.84
345.842	7.78
346.208	7.67
346.573	7.65
346.939	7.64
347.304	7.63
347.67	7.58
348.035	7.59
348.401	7.68
348.766	7.75
349.132	7.84
349.497	7.79
349.862	7.93
350.228	7.84
350.593	7.9
350.958	7.93
351.323	7.88
351.688	7.79
352.053	7.83
352.418	7.84
352.783	7.87
353.148	7.86
353.513	7.81
353.878	7.87
354.243	7.98
354.608	8
354.972	7.9
355.337	7.9
355.702	7.95
356.066	7.9
356.431	7.82
356.795	7.75
357.16	7.7
357.524	7.59
357.889	7.6
358.253	7.62
358.618	7.64
358.982	7.55
359.346	7.51
359.71	7.42
360.075	7.42
360.439	7.32
360.803	7.36
361.167	7.37
361.531	7.27
361.895	7.16
362.259	7.13
362.623	7.13
362.987	7.07
363.351	7.08
363.714	7.13
364.078	7.05
364.442	6.96
364.806	6.96
365.169	6.96
365.533	6.94
365.896	6.93
366.26	6.87
366.623	6.91
366.987	6.87
367.35	6.88
367.714	6.79
368.077	6.71
368.44	6.65
368.803	6.64
369.167	6.64
369.53	6.6
369.893	6.52
370.256	6.53
370.619	6.56
370.982	6.43
371.345	6.27
371.708	6.25
372.071	6.15
372.434	6.08
372.797	5.98
373.159	5.97
373.522	5.83
373.885	5.83
374.247	5.77
374.61	5.75
374.973	5.66
375.335	5.59
375.698	5.57
376.06	5.45
376.423	5.38
376.785	5.37
377.147	5.4
377.51	5.32
377.872	5.29
378.234	5.23
378.596	5.27
378.958	5.21
379.321	5.22
379.683	5.25
380.045	5.23
380.407	5.19
380.769	5.08
381.13	5.08
381.492	4.98
381.854	5
382.216	4.97
382.578	4.92
382.939	4.86
383.301	4.83
383.663	4.8
384.024	4.74
384.386	4.73
384.747	4.71
385.109	4.71
385.47	4.58
385.832	4.56
386.193	4.52
386.554	4.52
386.916	4.49
387.277	4.52
387.638	4.47
387.999	4.46
388.36	4.45
388.721	4.39
389.082	4.33
389.443	4.26
389.804	4.21
390.165	4.17
390.526	4.19
390.887	4.19
391.248	4.17
391.609	4.13
391.969	4.05
392.33	3.98
392.691	3.94
393.051	3.99
393.412	3.94
393.772	3.88
394.133	3.88
394.493	3.83
394.854	3.76
395.214	3.75
395.574	3.74
395.935	3.72
396.295	3.75
396.655	3.77
397.015	3.76
397.376	3.72
397.736	3.7
398.096	3.68
398.456	3.65
398.816	3.67
399.176	3.68
399.535	3.64
399.895	3.63
400.255	3.62
400.615	3.57
400.975	3.55
401.334	3.54
401.694	3.5
402.054	3.48
402.413	3.48
402.773	3.4
403.132	3.37
403.492	3.38
403.851	3.34
404.211	3.33
404.57	3.31
404.929	3.35
405.288	3.37
405.648	3.34
406.007	3.34
406.366	3.31
406.725	3.29
407.084	3.34
407.443	3.33
407.802	3.35
408.161	3.35
408.52	3.35
408.879	3.31
409.238	3.32
409.596	3.31
409.955	3.28
410.314	3.34
410.673	3.34
411.031	3.31
411.39	3.3
411.748	3.27
412.107	3.27
412.465	3.24
412.824	3.23
413.182	3.21
413.54	3.19
413.899	3.18
414.257	3.17
414.615	3.15
414.974	3.15
415.332	3.13
415.69	3.09
416.048	3.08
416.406	3.1
416.764	3.09
417.122	3.1
417.48	3.09
417.838	3.06
418.195	3.04
418.553	3.05
418.911	3.04
419.269	3.04
419.626	3.04
419.984	3.02
420.342	3.03
420.699	3.03
421.057	3.04
421.414	3.02
421.772	3.02
422.129	3.01
422.486	3.01
422.844	3.01
423.201	3.01
423.558	3
423.915	3
424.273	2.99
424.63	2.98
424.987	2.98
425.344	2.97
425.701	2.98
426.058	2.96
426.415	2.95
426.772	2.94
427.128	2.95
427.485	2.95
427.842	2.92
428.199	2.93
428.555	2.91
428.912	2.91
429.269	2.89
429.625	2.9
429.982	2.88
430.338	2.86
430.695	2.88
431.051	2.89
431.407	2.89
431.764	2.88
432.12	2.87
432.476	2.88
432.832	2.88
433.189	2.89
433.545	2.88
433.901	2.88
434.257	2.88
434.613	2.87
434.969	2.87
435.325	2.86
435.681	2.87
436.036	2.86
436.392	2.87
436.748	2.89
437.104	2.86
437.459	2.88
437.815	2.88
438.171	2.89
438.526	2.88
438.882	2.87
439.237	2.88
439.593	2.88
439.948	2.87
440.304	2.86
440.659	2.86
441.014	2.87
441.369	2.86
441.725	2.84
442.08	2.85
442.435	2.85
442.79	2.86
443.145	2.85
443.5	2.83
443.855	2.82
444.21	2.83
444.565	2.85
444.92	2.83
445.275	2.83
445.629	2.81
445.984	2.82
446.339	2.82
446.693	2.82
447.048	2.81
447.403	2.82
447.757	2.82
448.112	2.8
448.466	2.78
448.82	2.79
449.175	2.81
449.529	2.79
449.883	2.78
450.238	2.77
450.592	2.78
450.946	2.78
451.3	2.79
451.654	2.78
452.008	2.77
452.362	2.78
452.716	2.78
453.07	2.78
453.424	2.78
453.778	2.76
454.132	2.77
454.486	2.76
454.839	2.75
455.193	2.75
455.547	2.77
455.9	2.79
456.254	2.8
456.607	2.78
456.961	2.79
457.314	2.8
457.668	2.79
458.021	2.77
458.375	2.78
458.728	2.77
459.081	2.76
459.434	2.75
459.787	2.76
460.141	2.75
460.494	2.75
460.847	2.77
461.2	2.77
461.553	2.78
461.906	2.8
462.259	2.8
462.611	2.82
462.964	2.84
463.317	2.83
463.67	2.81
464.022	2.81
464.375	2.82
464.728	2.82
465.08	2.82
465.433	2.84
465.785	2.84
466.138	2.86
466.49	2.85
466.843	2.85
467.195	2.86
467.547	2.88
467.899	2.89
468.252	2.86
468.604	2.86
468.956	2.84
469.308	2.83
469.66	2.82
470.012	2.8
470.364	2.79
470.716	2.81
471.068	2.82
471.42	2.85
471.772	2.87
472.123	2.87
472.475	2.89
472.827	2.9
473.178	2.94
473.53	2.92
473.882	2.93
474.233	2.94
474.585	2.91
474.936	2.91
475.288	2.91
475.639	2.93
475.99	2.94
476.342	2.95
476.693	2.96
477.044	2.97
477.395	2.99
477.746	2.96
478.097	2.95
478.448	2.95
478.8	2.94
479.15	2.9
479.501	2.9
479.852	2.88
480.203	2.88
480.554	2.87
480.905	2.88
481.255	2.89
481.606	2.89
481.957	2.9
482.307	2.91
482.658	2.91
483.009	2.91
483.359	2.92
483.709	2.93
484.06	2.93
484.41	2.94
484.761	2.93
485.111	2.93
485.461	2.94
485.811	2.94
486.162	2.94
486.512	2.95
486.862	2.95
487.212	2.96
487.562	2.96
487.912	2.96
488.262	2.96
488.612	2.96
488.961	2.95
489.311	2.95
489.661	2.95
490.011	2.94
490.36	2.93
490.71	2.92
491.06	2.91
491.409	2.9
491.759	2.89
492.108	2.9
492.458	2.91
492.807	2.9
493.157	2.91
493.506	2.93
493.855	2.93
494.204	2.94
494.554	2.95
494.903	2.95
495.252	2.95
495.601	2.96
495.95	2.96
496.299	2.98
496.648	2.98
496.997	2.98
497.346	3.01
497.695	3.05
498.043	3.07
498.392	3.09
498.741	3.11
499.09	3.13
499.438	3.16
499.787	3.18
500.135	3.21
500.484	3.21
500.832	3.22
501.181	3.24
501.529	3.26
501.878	3.29
502.226	3.33
502.574	3.37
502.923	3.4
503.271	3.42
503.619	3.49
503.967	3.54
504.315	3.57
504.663	3.61
505.011	3.65
505.359	3.68
505.707	3.71
506.055	3.74
506.403	3.8
506.751	3.84
507.098	3.9
507.446	3.94
507.794	3.99
508.141	4.05
508.489	4.11
508.837	4.17
509.184	4.24
509.531	4.29
509.879	4.35
510.226	4.42
510.574	4.49
510.921	4.55
511.268	4.6
511.616	4.7
511.963	4.78
512.31	4.85
512.657	4.95
513.004	5.05
513.351	5.16
513.698	5.26
514.045	5.35
514.392	5.42
514.739	5.53
515.086	5.67
515.432	5.79
515.779	5.9
516.126	6.01
516.473	6.12
516.819	6.25
517.166	6.36
517.512	6.47
517.859	6.58
518.205	6.68
518.552	6.78
518.898	6.88
519.245	6.97
519.591	7.08
519.937	7.16
520.283	7.28
520.629	7.42
520.976	7.56
521.322	7.7
521.668	7.86
522.014	8.01
522.36	8.14
522.706	8.3
523.052	8.47
523.398	8.65
523.743	8.82
524.089	8.99
524.435	9.15
524.781	9.3
525.126	9.47
525.472	9.62
525.817	9.73
526.163	9.87
526.509	10
526.854	10.12
527.199	10.25
527.545	10.34
527.89	10.42
528.235	10.5
528.581	10.62
528.926	10.74
529.271	10.86
529.616	10.98
529.961	11.08
530.306	11.2
530.651	11.32
530.996	11.45
531.341	11.58
531.686	11.71
532.031	11.84
532.376	11.98
532.721	12.11
533.065	12.26
533.41	12.4
533.755	12.54
534.099	12.69
534.444	12.84
534.788	13.01
535.133	13.18
535.477	13.36
535.822	13.5
536.166	13.66
536.51	13.84
536.855	14.04
537.199	14.26
537.543	14.46
537.887	14.64
538.231	14.85
538.576	15.06
538.92	15.29
539.264	15.48
539.608	15.68
539.951	15.88
540.295	16.07
540.639	16.29
540.983	16.46
541.327	16.63
541.671	16.78
542.014	16.94
542.358	17.1
542.701	17.29
543.045	17.47
543.389	17.64
543.732	17.82
544.075	18.02
544.419	18.19
544.762	18.38
545.105	18.58
545.449	18.78
545.792	18.98
546.135	19.21
546.478	19.46
546.821	19.68
547.165	19.94
547.508	20.2
547.851	20.38
548.194	20.61
548.536	20.87
548.879	21.17
549.222	21.44
549.565	21.74
549.908	21.97
550.25	22.27
550.593	22.56
550.936	22.8
551.278	23.04
551.621	23.31
551.963	23.59
552.306	23.89
552.648	24.15
552.991	24.41
553.333	24.61
553.675	24.83
554.017	25.08
554.36	25.29
554.702	25.56
555.044	25.81
555.386	26.11
555.728	26.38
556.07	26.61
556.412	26.85
556.754	27.07
557.096	27.33
557.438	27.58
557.78	27.86
558.121	28.06
558.463	28.32
558.805	28.54
559.147	28.81
559.488	29.03
559.83	29.29
560.171	29.54
560.513	29.82
560.854	30.11
561.196	30.34
561.537	30.6
561.878	30.77
562.22	31.04
562.561	31.15
562.902	31.35
563.243	31.54
563.584	31.82
563.925	32.05
564.266	32.28
564.607	32.44
564.948	32.62
565.289	32.82
565.63	33.04
565.971	33.27
566.312	33.47
566.653	33.67
566.993	33.81
567.334	34.05
567.675	34.23
568.015	34.38
568.356	34.59
568.696	34.76
569.037	35.01
569.377	35.22
569.718	35.47
570.058	35.66
570.398	35.85
570.739	35.98
571.079	36.15
571.419	36.25
571.759	36.42
572.099	36.59
572.439	36.79
572.779	36.88
573.119	37
573.459	37.2
573.799	37.39
574.139	37.58
574.479	37.65
574.819	37.77
575.158	37.95
575.498	38.11
575.838	38.31
576.177	38.39
576.517	38.53
576.856	38.68
577.196	38.84
577.535	39.01
577.875	39.28
578.214	39.42
578.553	39.66
578.893	39.84
579.232	39.99
579.571	40.14
579.91	40.42
580.25	40.6
580.589	40.66
580.928	40.79
581.267	40.88
581.606	41.09
581.945	41.27
582.283	41.38
582.622	41.51
582.961	41.65
583.3	41.83
583.639	41.94
583.977	42.04
584.316	42.2
584.654	42.3
584.993	42.3
585.332	42.44
585.67	42.5
586.008	42.7
586.347	42.83
586.685	42.95
587.024	43.05
587.362	43.19
587.7	43.29
588.038	43.38
588.376	43.57
588.715	43.73
589.053	43.84
589.391	43.98
589.729	44.03
590.067	44.05
590.404	44.21
590.742	44.29
591.08	44.4
591.418	44.5
591.756	44.59
592.093	44.66
592.431	44.78
592.769	44.92
593.106	44.97
593.444	45.08
593.781	45.19
594.119	45.2
594.456	45.28
594.793	45.38
595.131	45.46
595.468	45.5
595.805	45.48
596.143	45.56
596.48	45.61
596.817	45.72
597.154	45.83
597.491	45.85
597.828	45.89
598.165	45.91
598.502	45.88
598.839	45.9
599.176	45.97
599.512	46.04
599.849	46.04
600.186	46.06
600.523	46.09
600.859	46.12
601.196	46.21
601.532	46.16
601.869	46.26
602.205	46.3
602.542	46.32
602.878	46.44
603.215	46.49
603.551	46.51
603.887	46.54
604.223	46.54
604.56	46.67
604.896	46.78
605.232	46.94
605.568	47.04
605.904	47.11
606.24	47.23
606.576	47.24
606.912	47.32
607.248	47.37
607.583	47.5
607.919	47.58
608.255	47.68
608.591	47.84
608.926	47.81
609.262	47.92
609.597	48.01
609.933	48.02
610.268	48.08
610.604	48.2
610.939	48.26
611.275	48.36
611.61	48.36
611.945	48.41
612.281	48.42
612.616	48.45
612.951	48.52
613.286	48.49
613.621	48.52
613.956	48.58
614.291	48.64
614.626	48.61
614.961	48.64
615.296	48.66
615.631	48.71
615.966	48.8
616.3	48.82
616.635	48.82
616.97	48.96
617.304	49
617.639	49
617.973	49.03
618.308	49.06
618.642	49.03
618.977	49.04
619.311	48.98
619.646	49.01
619.98	48.98
620.314	48.95
620.648	49.05
620.983	49.14
621.317	49.2
621.651	49.27
621.985	49.33
622.319	49.32
622.653	49.39
622.987	49.47
623.321	49.51
623.655	49.6
623.988	49.54
624.322	49.51
624.656	49.52
624.99	49.6
625.323	49.58
625.657	49.73
625.99	49.76
626.324	49.76
626.657	49.79
626.991	49.9
627.324	50.12
627.658	50.15
627.991	50.18
628.324	50.19
628.657	50.24
628.991	50.17
629.324	50.19
629.657	50.23
629.99	50.14
630.323	50.12
630.656	50.18
630.989	50.27
631.322	50.27
631.655	50.32
631.987	50.28
632.32	50.29
632.653	50.26
632.986	50.33
633.318	50.39
633.651	50.37
633.984	50.31
634.316	50.13
634.649	50.19
634.981	50.13
635.313	50.15
635.646	50.17
635.978	50.3
636.31	50.33
636.643	50.23
636.975	50.35
637.307	50.5
637.639	50.42
637.971	50.28
638.303	50.31
638.635	50.33
638.967	50.34
639.299	50.45
639.631	50.44
639.963	50.41
640.295	50.46
640.626	50.63
640.958	50.75
641.29	50.8
641.621	50.82
641.953	50.83
642.285	50.89
642.616	50.75
642.948	50.77
643.279	50.82
643.61	50.92
643.942	50.89
644.273	50.77
644.604	50.82
644.936	50.99
645.267	51.06
645.598	51.09
645.929	51.09
646.26	51.13
646.591	51.19
646.922	51.07
647.253	51.18
647.584	51.15
647.915	51.13
648.245	51.11
648.576	51.01
648.907	51.13
649.238	51.21
649.568	51.37
649.899	51.35
650.229	51.33
650.56	51.29
650.89	51.39
651.221	51.49
651.551	51.5
651.882	51.39
652.212	51.38
652.542	51.38
652.872	51.44
653.203	51.36
653.533	51.34
653.863	51.42
654.193	51.36
654.523	51.26
654.853	51.38
655.183	51.53
655.513	51.63
655.843	51.62
656.172	51.58
656.502	51.56
656.832	51.54
657.162	51.5
657.491	51.53
657.821	51.53
658.15	51.61
658.48	51.6
658.809	51.65
659.139	51.73
659.468	51.73
659.798	51.73
660.127	51.79
660.456	51.79
660.785	51.87
661.115	51.88
661.444	51.98
661.773	51.9
662.102	51.84
662.431	51.79
662.76	51.73
663.089	51.66
663.418	51.68
663.747	51.69
664.076	51.77
664.404	51.73
664.733	51.72
665.062	51.6
665.39	51.69
665.719	51.79
666.048	51.75
666.376	51.75
666.705	51.84
667.033	51.8
667.362	51.82
667.69	51.74
668.018	51.72
668.347	51.7
668.675	51.69
669.003	51.84
669.331	51.92
669.659	51.94
669.987	51.99
670.315	51.91
670.643	52
670.971	51.91
671.299	52.14
671.627	52.22
671.955	52.3
672.283	52.29
672.61	52.16
672.938	52.18
673.266	52.2
673.593	52.36
673.921	52.39
674.249	52.36
674.576	52.47
674.904	52.49
675.231	52.59
675.558	52.61
675.886	52.55
676.213	52.57
676.54	52.62
676.867	52.62
677.195	52.7
677.522	52.6
677.849	52.73
678.176	52.63
678.503	52.7
678.83	52.68
679.157	52.71
679.484	52.82
679.81	52.87
680.137	52.79
680.464	52.55
680.791	52.57
681.117	52.6
681.444	52.58
681.771	52.64
682.097	52.6
682.424	52.47
682.75	52.52
683.077	52.39
683.403	52.41
683.729	52.31
684.056	52.19
684.382	52.37
684.708	52.34
685.034	52.14
685.36	52.12
685.686	52.05
686.012	52.01
686.339	52.16
686.664	52.08
686.99	52.27
687.316	52.31
687.642	52.42
687.968	52.43
688.294	52.6
688.619	52.54
688.945	52.4
689.271	52.56
689.596	52.42
689.922	52.47
690.247	52.31
690.573	52.51
690.898	52.68
691.224	52.57
691.549	52.61
691.874	52.82
692.2	52.64
692.525	52.62
692.85	52.68
693.175	52.49
693.5	52.54
693.825	52.35
694.15	52.43
694.475	52.21
694.8	52.31
695.125	52.24
695.45	52.35
695.775	52.55
696.099	52.69
696.424	52.78
696.749	52.87
697.073	52.89
697.398	52.96
697.723	52.87
698.047	52.82
698.372	52.7
698.696	52.6
699.02	52.68
699.345	52.68
699.669	52.61
699.993	52.77
700.318	52.74
700.642	52.82
700.966	52.66
701.29	52.85
701.614	52.7
701.938	52.6
702.262	52.65
702.586	52.47
702.91	52.4
703.234	52.37
703.557	52.33
703.881	52.43
704.205	52.27
704.529	52.38
704.852	52.47
705.176	52.54
705.499	52.72
705.823	52.86
706.146	52.87
706.47	52.91
706.793	52.68
707.117	52.73
707.44	52.66
707.763	52.82
708.086	52.72
708.409	52.83
708.733	52.8
709.056	52.64
709.379	53.02
709.702	52.95
710.025	53.01
710.348	52.92
710.671	52.85
710.993	52.78
711.316	52.78
711.639	52.85
711.962	53.08
712.284	52.95
712.607	52.92
712.93	52.92
713.252	53.11
713.575	53.3
713.897	53.28
714.22	53.08
714.542	52.99
714.864	52.99
715.187	53.15
715.509	53.21
715.831	53.42
716.153	53.21
716.475	53.16
716.798	53.12
717.12	53.31
717.442	53.58
717.764	53.85
718.085	53.73
718.407	53.6
718.729	53.52
719.051	53.62
719.373	53.66
719.695	53.54
720.016	53.3
720.338	53.19
720.659	53.3
720.981	53.55
721.302	53.71
721.624	53.89
721.945	53.66
722.267	53.76
722.588	53.44
722.909	53.69
723.231	53.8
723.552	53.82
723.873	53.72
724.194	53.53
724.515	53.35
724.836	53.38
725.157	53.3
725.478	53.12
725.799	52.96
726.12	52.85
726.441	53.06
726.762	53.11
727.083	53.16
727.403	53.11
727.724	53.14
728.045	53.23
728.365	53.05
728.686	53.11
729.006	53.2
729.327	53.21
729.647	52.93
729.967	52.93
730.288	52.98
730.608	52.87
730.928	52.92
731.249	52.85
731.569	53.11
731.889	53.39
732.209	53.44
732.529	53.58
732.849	53.32
733.169	53.34
733.489	53.46
733.809	53.4
734.129	53.46
734.448	53.53
734.768	53.51
735.088	53.69
735.408	53.7
735.727	53.7
736.047	54.09
736.366	54.03
736.686	54.12
737.005	54.12
737.325	54.32
737.644	54.3
737.963	54.46
738.283	54.19
738.602	54.24
738.921	54.34
739.24	54.47
739.56	54.89
739.879	54.9
740.198	55.09
740.517	55.18
740.836	55.29
741.155	55.35
741.473	55.28
741.792	55.24
742.111	55.15
742.43	55.29
742.748	55.07
743.067	55.26
743.386	55.15
743.704	55.02
744.023	55.05
744.341	54.94
744.66	54.83
744.978	54.88
745.297	54.67
745.615	54.76
745.933	54.56
746.252	54.51
746.57	54.77
746.888	54.68
747.206	54.51
747.524	54.06
747.842	54.17
748.16	54.22
748.478	54.26
748.796	54.44
749.114	54.39
749.432	54.17
749.749	53.92
750.067	53.68
750.385	53.64
750.703	53.49
751.02	53.43
751.338	53.48
751.655	53.45
751.973	53.43
752.29	53.54
752.608	53.56
752.925	53.09
753.242	52.68
753.56	52.57
753.877	52.57
754.194	52.79
754.511	52.65
754.828	52.53
755.145	52.06
755.462	52.19
755.779	51.89
756.096	52.2
756.413	52.58
756.73	52.83
757.047	53.07
757.364	53.05
757.68	53.26
757.997	53.24
758.314	53.26
758.63	53.27
758.947	53.05
759.264	52.96
759.58	53.69
759.896	53.86
760.213	53.85
760.529	54.06
760.846	54.07
761.162	54.1
761.478	54.36
761.794	54.81
762.11	54.46
762.426	54.4
762.743	54.43
763.059	54.15
763.375	54.12
763.69	54.02
764.006	54.19
764.322	54.03
764.638	54.08
764.954	54.11
765.27	54.11
765.585	54.13
765.901	54.32
766.216	54.06
766.532	54
766.848	54.02
767.163	53.87
767.478	53.84
767.794	53.54
768.109	53.17
768.424	52.93
768.74	53.06
769.055	53.15
769.37	53.27
769.685	53.41
770	53.37
770.315	53.76
770.63	53.74
770.945	53.87
771.26	53.83
771.575	53.9
771.89	53.58
772.205	53.71
772.52	53.6
772.834	53.43
773.149	53.52
773.464	53.12
773.778	53.32
774.093	53.18
774.407	53.66
774.722	53.97
775.036	54.21
775.351	53.9
775.665	54.33
775.979	53.85
776.293	53.9
776.608	53.86
776.922	53.26
777.236	53.23
777.55	53.49
777.864	53.73
778.178	53.89
778.492	54.23
778.806	54.07
779.12	54.32
779.434	54.3
779.747	53.84
780.061	53.7
780.375	53.6
780.689	53.72
781.002	53.46
781.316	53.56
781.629	53.83
781.943	54.8
782.256	54.07
782.57	54.53
782.883	54.22
783.196	54.28
783.51	54.22
783.823	53.88
784.136	53.61
784.449	53.48
784.762	53.4
785.075	53.23
785.388	53.23
785.701	53.07
786.014	52.93
786.327	53.01
786.64	53.86
786.953	53.59
787.266	53.46
787.578	53.3
787.891	52.7
788.204	52.48
788.516	51.64
788.829	52.01
789.141	51.76
789.454	51.93
789.766	52.17
790.079	52.19
790.391	52.02
790.703	52.12
791.016	51.84
791.328	52
791.64	52.43
791.952	52.75
792.264	52.69
792.576	52.4
792.888	52.44
793.2	52.3
793.512	52.39
793.824	52.46
794.136	53.02
794.448	53.66
794.76	53.08
795.071	53.53
795.383	52.81
795.695	52.69
796.006	52.49
796.318	52.41
796.629	52.6
796.941	52.57
797.252	52.41
797.564	52.5
797.875	52.54
798.186	52.47
798.497	52.2
798.809	52.53
799.12	52.87
799.431	53.09
799.742	51.96
800.053	52.41
800.364	52.52
800.675	52.06
800.986	51.85
801.297	52.11
801.608	52.04
801.918	52.54
802.229	52.56
802.54	52.54
802.851	52.47
803.161	52.47
803.472	53.35
803.782	53.49
804.093	53.15
804.403	52.43
804.714	52.46
805.024	52.21
805.334	52.17
805.645	52.01
805.955	52.28
806.265	53.36
806.575	52.72
806.885	52.61
807.195	52.9
807.505	52.76
807.815	52.05
808.125	51.87
808.435	51.69
808.745	51.27
809.055	52.07
809.365	51.74
809.674	51.72
809.984	50.63
810.294	50.17
810.603	50.18
810.913	50.38
811.222	50.11
811.532	50.57
811.841	50.5
812.151	51.64
812.46	51.64
812.769	51.82
813.079	52.01
813.388	52.72
813.697	52.43
814.006	52.38
814.315	53.34
814.624	53.67
814.933	54.52
815.242	54.73
815.551	54.11
815.86	54.4
816.169	54.22
816.478	55.22
816.786	55.96
817.095	56.18
817.404	56.82
817.712	56.18
818.021	56.51
818.33	55.82
818.638	55.38
818.947	55.25
819.255	55.25
819.563	55.22
819.872	54.72
820.18	54.75
820.488	55.13
820.796	55.02
821.105	55.04
821.413	54.66
821.721	54.74
822.029	54.7
822.337	54.85
822.645	54.97
822.953	55.03
823.26	55.02
823.568	55.06
823.876	55.02
824.184	55.02
824.491	54.71
824.799	54.67
825.107	54.66
825.414	54.72
825.722	54.54
826.029	54.53
826.337	54.53
826.644	54.44
826.951	54.3
827.259	54.3
827.566	54.37
827.873	54.51
828.18	54.26
828.488	54.52
828.795	54.46
829.102	54.4
829.409	54.06
829.716	54.13
830.023	54.11
830.329	53.7
830.636	54.06
830.943	53.9
831.25	54.09
831.557	54.07
831.863	53.64
832.17	53.42
832.476	53.96
832.783	54.26
833.089	54.45
833.396	54.12
833.702	54.11
834.009	53.73
834.315	53.81
834.621	54.19
834.928	54.29
835.234	54.34
835.54	54.2
835.846	54.65
836.152	54.58
836.458	54.52
836.764	54.93
837.07	54.71
837.376	54.48
837.682	54.92
837.988	54.69
838.293	54.7
838.599	55.22
838.905	54.46
839.211	54.1
839.516	54.11
839.822	55.01
840.127	55
840.433	54.79
840.738	54.73
841.044	54.38
841.349	53.96
841.654	54.11
841.959	52.79
842.265	52.52
842.57	52.55
842.875	51.94
843.18	51.92
843.485	52.13
843.79	53.51
844.095	52.75
844.4	53.14
844.705	52.55
845.01	52.58
845.315	53.48
845.619	53.82
845.924	53.86
846.229	52.09
846.533	52.11
846.838	50.99
847.142	50.77
847.447	50.78
847.751	49.77
848.056	48.71
848.36	51.21
848.664	50.81
848.969	49.16
849.273	49.82
849.577	49.34
849.881	50.3
850.185	50.72
850.489	49.36
850.794	48.78
851.097	51.99
851.401	52.26
851.705	50.92
852.009	51.31
852.313	50.85
852.617	51.11
852.92	52.19
853.224	55.32
853.528	56.14
853.831	56.83
854.135	57.82
854.438	57.9
854.742	57.64
855.045	59.23
855.349	60.88
855.652	61.05
855.955	61.41
856.259	60.07
856.562	59.99
856.865	62.56
857.168	61.99
857.471	60.4
857.774	58.57
858.077	59.36
858.38	57.4
858.683	57.34
858.986	57.89
859.289	57.67
859.592	55.47
859.894	54.32
860.197	54.71
860.5	53
860.802	51.22
861.105	51.52
861.407	49.17
861.71	47.45
862.012	46.49
862.315	47.75
862.617	47.55
862.919	47.73
863.222	48.37
863.524	48.86
863.826	50.84
864.128	50.03
864.43	51.21
864.732	52.16
865.034	51.62
865.336	52.07
865.638	53
865.94	53.32
866.242	52.6
866.544	51.42
866.846	51.63
867.147	52.62
867.449	51.61
867.751	53.43
868.052	54.02
868.354	55.43
868.655	55.33
868.957	55.77
869.258	53.45
869.56	54.01
869.861	54.37
870.162	51.12
870.463	55.46
870.765	53.55
871.066	54.69
871.367	55.88
871.668	55.46
871.969	53.41
872.27	53.91
872.571	53.53
872.872	53.76
873.173	54.12
873.473	53.73
873.774	55.71
874.075	53.3
874.376	53.55
874.676	53.36
874.977	52.17
875.277	52.4
875.578	57.19
875.878	54.74
876.179	54.55
876.479	56.27
876.78	54.17
877.08	54.47
877.38	53.58
877.68	53.54
877.981	53.06
878.281	54.87
878.581	55.4
