Data from BU58002_Reflection_00015.txt Node
Date: Tue Nov 19 10:58:04 EST 2019
User: vgr7
Spectrometer: USB2G7710
Scans to average: 3
Trigger mode: 4
Integration Time (sec): 2.000000E-2
Electric dark correction enabled: true
Boxcar width: 10
XAxis mode: Wavelengths
Number of Pixels in Spectrum: 2048
>>>>>Begin Spectral Data<<<<<
177.721	130.33
178.105	92.65
178.488	121.7
178.871	450
179.254	69.23
179.636	94.61
180.019	49.75
180.402	66.67
180.785	-675
181.168	-1561.76
181.55	-106.73
181.933	7.46
182.316	15.04
182.698	-9.81
183.081	-14.56
183.463	-61.42
183.846	-24.46
184.228	-51.64
184.611	-444.94
184.993	-600
185.376	-343.44
185.758	-2968.97
186.14	726.92
186.522	866.95
186.904	-2190
187.287	-2084.21
187.669	970.59
188.051	302.76
188.433	-928.3
188.815	1403.57
189.197	222.3
189.579	181.97
189.961	84.79
190.342	51.08
190.724	44.88
191.106	29.31
191.488	18.94
191.869	45.93
192.251	39.94
192.633	13.76
193.014	4.18
193.396	2.34
193.777	-2.32
194.159	-9.23
194.54	-8.15
194.922	-1.81
195.303	-0
195.684	-7.07
196.065	16.13
196.447	23.51
196.828	22.26
197.209	32.47
197.59	23.59
197.971	34.01
198.352	44.49
198.733	48.21
199.114	49.12
199.495	60.63
199.876	63.93
200.257	72.25
200.638	76.37
201.018	74.51
201.399	91.99
201.78	73.42
202.16	81.82
202.541	67.52
202.922	50.88
203.302	47
203.683	65.48
204.063	46.44
204.444	45.9
204.824	34.32
205.204	35.92
205.585	44.79
205.965	31.2
206.345	23.08
206.725	32.62
207.106	38.03
207.486	35.68
207.866	32.9
208.246	29.21
208.626	23.62
209.006	9.13
209.386	-2.2
209.766	5.29
210.145	-1.62
210.525	3.46
210.905	7.06
211.285	20.43
211.664	11.5
212.044	16.35
212.424	13.34
212.803	16.53
213.183	6.36
213.562	4.41
213.942	7.95
214.321	9.03
214.701	4.63
215.08	0.94
215.459	0.21
215.838	11.13
216.218	14.27
216.597	8.35
216.976	3.04
217.355	3.86
217.734	6.18
218.113	28.5
218.492	38.21
218.871	46.5
219.25	25.89
219.629	29.75
220.008	22.27
220.387	29.27
220.766	31.15
221.144	34.83
221.523	38.79
221.902	38.04
222.28	27.27
222.659	21.98
223.037	22.78
223.416	24.37
223.794	16.2
224.173	14.14
224.551	18.57
224.929	15.87
225.308	11.69
225.686	11.84
226.064	7.34
226.442	4.69
226.821	2.99
227.199	3.05
227.577	4
227.955	6.24
228.333	4.28
228.711	5.9
229.089	5.69
229.467	3.1
229.845	1.21
230.222	3.04
230.6	3.43
230.978	3.94
231.356	2.53
231.733	1.96
232.111	3.89
232.488	4.79
232.866	7.59
233.243	8.25
233.621	6.94
233.998	8.99
234.376	8.84
234.753	7.48
235.13	7.43
235.508	6.46
235.885	5.31
236.262	6.21
236.639	3.74
237.016	5.11
237.393	7.1
237.77	7.81
238.147	7.71
238.524	6.95
238.901	6.22
239.278	6.44
239.655	6.36
240.032	5.15
240.409	4.12
240.785	3.96
241.162	3.98
241.539	3.82
241.915	3.13
242.292	3.83
242.668	4.44
243.045	5.07
243.421	5.6
243.798	5.45
244.174	5.48
244.551	5.83
244.927	5.37
245.303	5.06
245.679	4.99
246.056	5.06
246.432	5.31
246.808	5.45
247.184	5.42
247.56	5.46
247.936	5.47
248.312	5.54
248.688	5.67
249.064	5.62
249.44	5.83
249.815	5.87
250.191	5.77
250.567	5.81
250.943	5.57
251.318	5.35
251.694	5.49
252.069	5.56
252.445	5.39
252.82	5.67
253.196	5.76
253.571	6.03
253.947	5.86
254.322	5.57
254.697	5.27
255.073	5.34
255.448	5.39
255.823	5.47
256.198	5.55
256.573	5.46
256.948	5.76
257.323	5.76
257.698	5.93
258.073	5.86
258.448	5.71
258.823	5.57
259.198	5.62
259.573	5.59
259.948	5.59
260.322	5.63
260.697	5.61
261.072	5.56
261.446	5.4
261.821	5.24
262.195	5.28
262.57	5.41
262.944	5.49
263.319	5.38
263.693	5.38
264.067	5.33
264.442	5.26
264.816	4.97
265.19	4.86
265.564	4.82
265.938	4.82
266.313	4.66
266.687	4.72
267.061	4.77
267.435	5.02
267.809	4.98
268.183	5.01
268.556	4.85
268.93	4.86
269.304	5.06
269.678	5.14
270.051	5.07
270.425	4.96
270.799	4.71
271.172	4.73
271.546	4.77
271.919	4.81
272.293	4.89
272.666	5
273.04	5
273.413	4.83
273.787	4.76
274.16	4.64
274.533	4.63
274.906	4.41
275.279	4.14
275.653	4.17
276.026	4.22
276.399	4.34
276.772	4.37
277.145	4.2
277.518	4.22
277.891	4.31
278.263	4.49
278.636	4.51
279.009	4.54
279.382	4.68
279.755	4.69
280.127	4.77
280.5	4.73
280.872	4.68
281.245	4.73
281.617	4.71
281.99	4.81
282.362	4.9
282.735	4.92
283.107	4.95
283.479	4.83
283.852	4.95
284.224	5.02
284.596	5.03
284.968	5.01
285.34	5.13
285.713	5.06
286.085	4.86
286.457	4.97
286.829	4.91
287.201	4.84
287.572	4.93
287.944	4.96
288.316	5.01
288.688	5.08
289.06	5.1
289.431	5.2
289.803	5.34
290.175	5.36
290.546	5.43
290.918	5.44
291.289	5.54
291.661	5.51
292.032	5.51
292.403	5.54
292.775	5.7
293.146	5.77
293.517	5.86
293.889	5.92
294.26	6.07
294.631	6.3
295.002	6.35
295.373	6.4
295.744	6.27
296.115	6.37
296.486	6.55
296.857	6.73
297.228	6.66
297.599	6.66
297.97	6.78
298.34	6.86
298.711	6.98
299.082	7.05
299.452	7
299.823	7.09
300.194	7.23
300.564	7.2
300.935	7.24
301.305	7.28
301.676	7.37
302.046	7.29
302.416	7.21
302.787	7.16
303.157	7.13
303.527	7.49
303.897	7.5
304.267	7.46
304.637	7.53
305.008	7.75
305.378	7.98
305.748	8.03
306.117	8.14
306.487	8.24
306.857	8.27
307.227	8.52
307.597	8.51
307.967	8.6
308.336	8.65
308.706	8.73
309.076	8.97
309.445	9.2
309.815	9.44
310.184	9.55
310.554	9.6
310.923	9.74
311.293	9.79
311.662	10.01
312.031	10.06
312.401	10.1
312.77	10.16
313.139	10.18
313.508	10.19
313.877	10.34
314.246	10.4
314.616	10.66
314.985	10.74
315.353	10.95
315.722	11.15
316.091	11.29
316.46	11.47
316.829	11.53
317.198	11.52
317.567	11.57
317.935	11.71
318.304	12.14
318.672	12.22
319.041	12.22
319.41	12.23
319.778	12.3
320.147	12.5
320.515	12.74
320.883	12.78
321.252	13.06
321.62	13.2
321.988	13.26
322.357	13.24
322.725	13.31
323.093	13.35
323.461	13.37
323.829	13.55
324.197	13.51
324.565	13.64
324.933	13.66
325.301	13.63
325.669	13.7
326.037	13.68
326.405	13.74
326.772	13.88
327.14	13.99
327.508	14.14
327.875	14.13
328.243	14.14
328.61	14.26
328.978	14.39
329.346	14.3
329.713	14.45
330.08	14.62
330.448	14.55
330.815	14.68
331.182	14.63
331.55	14.68
331.917	14.69
332.284	14.74
332.651	14.89
333.018	15
333.385	14.96
333.752	14.94
334.119	14.99
334.486	14.91
334.853	14.81
335.22	14.78
335.587	14.76
335.954	14.74
336.32	14.65
336.687	14.54
337.054	14.66
337.42	14.65
337.787	14.57
338.153	14.58
338.52	14.65
338.886	14.68
339.253	14.65
339.619	14.82
339.986	14.86
340.352	14.9
340.718	14.98
341.084	15.07
341.451	15.07
341.817	15.16
342.183	15.23
342.549	15.26
342.915	15.32
343.281	15.4
343.647	15.55
344.013	15.79
344.379	15.68
344.745	15.71
345.11	15.74
345.476	15.89
345.842	15.91
346.208	15.81
346.573	15.94
346.939	16.03
347.304	16.06
347.67	16.04
348.035	16.04
348.401	16.03
348.766	16
349.132	15.96
349.497	15.95
349.862	15.98
350.228	16.05
350.593	16.03
350.958	16.14
351.323	16.09
351.688	15.98
352.053	16.01
352.418	15.97
352.783	15.95
353.148	15.83
353.513	15.84
353.878	15.77
354.243	15.6
354.608	15.56
354.972	15.52
355.337	15.46
355.702	15.4
356.066	15.32
356.431	15.24
356.795	15.28
357.16	15.18
357.524	15.18
357.889	15.07
358.253	15.04
358.618	14.83
358.982	14.69
359.346	14.65
359.71	14.63
360.075	14.66
360.439	14.62
360.803	14.63
361.167	14.58
361.531	14.56
361.895	14.56
362.259	14.5
362.623	14.46
362.987	14.41
363.351	14.39
363.714	14.38
364.078	14.41
364.442	14.3
364.806	14.29
365.169	14.08
365.533	14
365.896	13.93
366.26	13.92
366.623	13.95
366.987	13.87
367.35	13.8
367.714	13.68
368.077	13.64
368.44	13.46
368.803	13.36
369.167	13.29
369.53	13.22
369.893	13.05
370.256	12.92
370.619	12.74
370.982	12.6
371.345	12.52
371.708	12.38
372.071	12.34
372.434	12.22
372.797	12.2
373.159	12.07
373.522	11.92
373.885	11.85
374.247	11.67
374.61	11.56
374.973	11.47
375.335	11.36
375.698	11.2
376.06	11.11
376.423	11.05
376.785	10.97
377.147	10.84
377.51	10.79
377.872	10.69
378.234	10.63
378.596	10.6
378.958	10.47
379.321	10.35
379.683	10.26
380.045	10.14
380.407	10.11
380.769	10.06
381.13	9.97
381.492	9.88
381.854	9.85
382.216	9.76
382.578	9.71
382.939	9.64
383.301	9.58
383.663	9.5
384.024	9.43
384.386	9.31
384.747	9.21
385.109	9.15
385.47	9.07
385.832	9.02
386.193	8.88
386.554	8.79
386.916	8.79
387.277	8.66
387.638	8.6
387.999	8.51
388.36	8.45
388.721	8.39
389.082	8.3
389.443	8.22
389.804	8.16
390.165	8.06
390.526	7.96
390.887	7.89
391.248	7.8
391.609	7.75
391.969	7.72
392.33	7.68
392.691	7.59
393.051	7.55
393.412	7.46
393.772	7.43
394.133	7.41
394.493	7.29
394.854	7.24
395.214	7.19
395.574	7.11
395.935	7.05
396.295	7
396.655	6.94
397.015	6.85
397.376	6.77
397.736	6.69
398.096	6.63
398.456	6.58
398.816	6.58
399.176	6.49
399.535	6.45
399.895	6.39
400.255	6.35
400.615	6.27
400.975	6.27
401.334	6.22
401.694	6.14
402.054	6.12
402.413	6.07
402.773	6.03
403.132	5.94
403.492	5.91
403.851	5.88
404.211	5.84
404.57	5.82
404.929	5.79
405.288	5.75
405.648	5.7
406.007	5.66
406.366	5.59
406.725	5.56
407.084	5.52
407.443	5.49
407.802	5.47
408.161	5.45
408.52	5.42
408.879	5.38
409.238	5.35
409.596	5.33
409.955	5.32
410.314	5.29
410.673	5.32
411.031	5.29
411.39	5.29
411.748	5.26
412.107	5.21
412.465	5.19
412.824	5.17
413.182	5.14
413.54	5.14
413.899	5.1
414.257	5.07
414.615	5.05
414.974	5.02
415.332	4.98
415.69	4.96
416.048	4.9
416.406	4.85
416.764	4.82
417.122	4.77
417.48	4.75
417.838	4.7
418.195	4.67
418.553	4.63
418.911	4.59
419.269	4.59
419.626	4.57
419.984	4.54
420.342	4.53
420.699	4.51
421.057	4.49
421.414	4.48
421.772	4.46
422.129	4.43
422.486	4.41
422.844	4.4
423.201	4.38
423.558	4.37
423.915	4.37
424.273	4.37
424.63	4.37
424.987	4.36
425.344	4.35
425.701	4.32
426.058	4.32
426.415	4.32
426.772	4.29
427.128	4.29
427.485	4.27
427.842	4.26
428.199	4.26
428.555	4.24
428.912	4.21
429.269	4.2
429.625	4.2
429.982	4.19
430.338	4.15
430.695	4.13
431.051	4.13
431.407	4.09
431.764	4.07
432.12	4.06
432.476	4.06
432.832	4.07
433.189	4.07
433.545	4.08
433.901	4.07
434.257	4.08
434.613	4.06
434.969	4.06
435.325	4.04
435.681	4.03
436.036	4.01
436.392	4.02
436.748	4.04
437.104	4.03
437.459	4.02
437.815	4.03
438.171	4.02
438.526	4.02
438.882	4.04
439.237	4.03
439.593	4.03
439.948	4.01
440.304	4
440.659	4.01
441.014	3.99
441.369	3.99
441.725	3.97
442.08	3.96
442.435	3.96
442.79	3.96
443.145	3.96
443.5	3.95
443.855	3.93
444.21	3.9
444.565	3.89
444.92	3.88
445.275	3.88
445.629	3.86
445.984	3.85
446.339	3.84
446.693	3.84
447.048	3.83
447.403	3.82
447.757	3.82
448.112	3.82
448.466	3.81
448.82	3.79
449.175	3.78
449.529	3.79
449.883	3.75
450.238	3.74
450.592	3.72
450.946	3.72
451.3	3.74
451.654	3.74
452.008	3.75
452.362	3.75
452.716	3.75
453.07	3.75
453.424	3.73
453.778	3.72
454.132	3.7
454.486	3.7
454.839	3.67
455.193	3.68
455.547	3.67
455.9	3.66
456.254	3.68
456.607	3.68
456.961	3.68
457.314	3.72
457.668	3.72
458.021	3.73
458.375	3.73
458.728	3.71
459.081	3.72
459.434	3.71
459.787	3.72
460.141	3.73
460.494	3.73
460.847	3.74
461.2	3.75
461.553	3.76
461.906	3.77
462.259	3.8
462.611	3.81
462.964	3.8
463.317	3.79
463.67	3.79
464.022	3.8
464.375	3.8
464.728	3.81
465.08	3.8
465.433	3.82
465.785	3.84
466.138	3.86
466.49	3.86
466.843	3.87
467.195	3.88
467.547	3.87
467.899	3.88
468.252	3.89
468.604	3.89
468.956	3.9
469.308	3.89
469.66	3.91
470.012	3.91
470.364	3.94
470.716	3.99
471.068	4
471.42	4.01
471.772	4.04
472.123	4.03
472.475	4.05
472.827	4.04
473.178	4.01
473.53	4.02
473.882	4.02
474.233	4.03
474.585	4.04
474.936	4.04
475.288	4.04
475.639	4.05
475.99	4.06
476.342	4.06
476.693	4.06
477.044	4.05
477.395	4.03
477.746	4.01
478.097	3.99
478.448	3.98
478.8	3.99
479.15	3.99
479.501	3.98
479.852	4
480.203	4
480.554	4.02
480.905	4.03
481.255	4.02
481.606	4.02
481.957	4.03
482.307	4.03
482.658	4.04
483.009	4.04
483.359	4.04
483.709	4.04
484.06	4.05
484.41	4.05
484.761	4.06
485.111	4.07
485.461	4.08
485.811	4.08
486.162	4.08
486.512	4.08
486.862	4.09
487.212	4.09
487.562	4.09
487.912	4.08
488.262	4.08
488.612	4.09
488.961	4.1
489.311	4.1
489.661	4.11
490.011	4.1
490.36	4.11
490.71	4.12
491.06	4.13
491.409	4.13
491.759	4.14
492.108	4.14
492.458	4.14
492.807	4.14
493.157	4.16
493.506	4.17
493.855	4.17
494.204	4.18
494.554	4.2
494.903	4.22
495.252	4.25
495.601	4.28
495.95	4.29
496.299	4.3
496.648	4.34
496.997	4.35
497.346	4.39
497.695	4.4
498.043	4.43
498.392	4.43
498.741	4.46
499.09	4.51
499.438	4.56
499.787	4.59
500.135	4.62
500.484	4.64
500.832	4.68
501.181	4.72
501.529	4.79
501.878	4.83
502.226	4.86
502.574	4.89
502.923	4.92
503.271	4.99
503.619	5.05
503.967	5.07
504.315	5.15
504.663	5.19
505.011	5.25
505.359	5.3
505.707	5.36
506.055	5.42
506.403	5.46
506.751	5.53
507.098	5.62
507.446	5.7
507.794	5.77
508.141	5.86
508.489	5.94
508.837	6.01
509.184	6.09
509.531	6.18
509.879	6.27
510.226	6.36
510.574	6.45
510.921	6.54
511.268	6.67
511.616	6.77
511.963	6.9
512.31	7.02
512.657	7.12
513.004	7.24
513.351	7.34
513.698	7.5
514.045	7.62
514.392	7.75
514.739	7.88
515.086	8.02
515.432	8.16
515.779	8.33
516.126	8.47
516.473	8.6
516.819	8.75
517.166	8.91
517.512	9.04
517.859	9.17
518.205	9.31
518.552	9.44
518.898	9.56
519.245	9.68
519.591	9.82
519.937	9.98
520.283	10.15
520.629	10.34
520.976	10.52
521.322	10.7
521.668	10.88
522.014	11.07
522.36	11.28
522.706	11.46
523.052	11.68
523.398	11.9
523.743	12.15
524.089	12.38
524.435	12.59
524.781	12.8
525.126	12.97
525.472	13.14
525.817	13.31
526.163	13.48
526.509	13.63
526.854	13.76
527.199	13.89
527.545	14.04
527.89	14.15
528.235	14.28
528.581	14.42
528.926	14.55
529.271	14.67
529.616	14.8
529.961	14.92
530.306	15.04
530.651	15.18
530.996	15.31
531.341	15.46
531.686	15.61
532.031	15.76
532.376	15.93
532.721	16.09
533.065	16.26
533.41	16.42
533.755	16.59
534.099	16.76
534.444	16.95
534.788	17.08
535.133	17.24
535.477	17.41
535.822	17.58
536.166	17.78
536.51	18.01
536.855	18.22
537.199	18.46
537.543	18.69
537.887	18.93
538.231	19.18
538.576	19.4
538.92	19.66
539.264	19.88
539.608	20.08
539.951	20.3
540.295	20.48
540.639	20.67
540.983	20.85
541.327	21.05
541.671	21.24
542.014	21.42
542.358	21.61
542.701	21.79
543.045	21.95
543.389	22.12
543.732	22.27
544.075	22.45
544.419	22.64
544.762	22.83
545.105	23.02
545.449	23.23
545.792	23.46
546.135	23.68
546.478	23.94
546.821	24.2
547.165	24.47
547.508	24.76
547.851	25.07
548.194	25.34
548.536	25.61
548.879	25.87
549.222	26.19
549.565	26.48
549.908	26.74
550.25	27.04
550.593	27.36
550.936	27.66
551.278	27.98
551.621	28.26
551.963	28.6
552.306	28.92
552.648	29.22
552.991	29.51
553.333	29.77
553.675	30.05
554.017	30.33
554.36	30.54
554.702	30.77
555.044	31.01
555.386	31.28
555.728	31.55
556.07	31.84
556.412	32.15
556.754	32.43
557.096	32.73
557.438	33
557.78	33.31
558.121	33.63
558.463	33.92
558.805	34.24
559.147	34.5
559.488	34.76
559.83	35.07
560.171	35.3
560.513	35.61
560.854	35.87
561.196	36.12
561.537	36.45
561.878	36.77
562.22	37.07
562.561	37.36
562.902	37.62
563.243	37.89
563.584	38.14
563.925	38.38
564.266	38.64
564.607	38.92
564.948	39.17
565.289	39.42
565.63	39.69
565.971	39.91
566.312	40.16
566.653	40.44
566.993	40.66
567.334	40.97
567.675	41.21
568.015	41.52
568.356	41.84
568.696	42.09
569.037	42.31
569.377	42.48
569.718	42.69
570.058	42.96
570.398	43.17
570.739	43.47
571.079	43.73
571.419	43.96
571.759	44.16
572.099	44.37
572.439	44.61
572.779	44.83
573.119	45.03
573.459	45.24
573.799	45.44
574.139	45.63
574.479	45.85
574.819	46.06
575.158	46.2
575.498	46.36
575.838	46.57
576.177	46.81
576.517	47.09
576.856	47.3
577.196	47.55
577.535	47.78
577.875	47.89
578.214	48.1
578.553	48.3
578.893	48.52
579.232	48.77
579.571	49.01
579.91	49.16
580.25	49.44
580.589	49.57
580.928	49.72
581.267	49.91
581.606	50.1
581.945	50.22
582.283	50.4
582.622	50.63
582.961	50.79
583.3	50.9
583.639	51.04
583.977	51.2
584.316	51.32
584.654	51.44
584.993	51.66
585.332	51.82
585.67	51.98
586.008	52.19
586.347	52.21
586.685	52.24
587.024	52.42
587.362	52.56
587.7	52.82
588.038	52.97
588.376	53.13
588.715	53.19
589.053	53.38
589.391	53.49
589.729	53.61
590.067	53.72
590.404	53.89
590.742	54.04
591.08	54.25
591.418	54.33
591.756	54.64
592.093	54.7
592.431	54.75
592.769	54.91
593.106	55.01
593.444	55.19
593.781	55.44
594.119	55.57
594.456	55.65
594.793	55.71
595.131	55.82
595.468	55.9
595.805	56.02
596.143	56.13
596.48	56.23
596.817	56.31
597.154	56.34
597.491	56.43
597.828	56.46
598.165	56.47
598.502	56.59
598.839	56.55
599.176	56.65
599.512	56.86
599.849	57.01
600.186	57.07
600.523	57.13
600.859	57.15
601.196	57.24
601.532	57.31
601.869	57.31
602.205	57.38
602.542	57.41
602.878	57.45
603.215	57.45
603.551	57.53
603.887	57.52
604.223	57.65
604.56	57.72
604.896	57.81
605.232	57.86
605.568	57.93
605.904	58.08
606.24	58.18
606.576	58.2
606.912	58.22
607.248	58.29
607.583	58.34
607.919	58.39
608.255	58.45
608.591	58.62
608.926	58.73
609.262	58.8
609.597	58.9
609.933	59.04
610.268	59.13
610.604	59.24
610.939	59.43
611.275	59.45
611.61	59.58
611.945	59.62
612.281	59.76
612.616	59.85
612.951	59.9
613.286	59.89
613.621	59.99
613.956	59.99
614.291	60.12
614.626	60.22
614.961	60.32
615.296	60.38
615.631	60.42
615.966	60.5
616.3	60.52
616.635	60.51
616.97	60.57
617.304	60.66
617.639	60.67
617.973	60.6
618.308	60.7
618.642	60.55
618.977	60.61
619.311	60.58
619.646	60.6
619.98	60.65
620.314	60.72
620.648	60.79
620.983	60.81
621.317	60.84
621.651	60.86
621.985	60.85
622.319	60.78
622.653	60.71
622.987	60.67
623.321	60.75
623.655	60.85
623.988	60.78
624.322	60.72
624.656	60.66
624.99	60.75
625.323	60.78
625.657	60.86
625.99	60.89
626.324	60.87
626.657	60.87
626.991	60.8
627.324	60.74
627.658	60.68
627.991	60.73
628.324	60.79
628.657	60.83
628.991	60.82
629.324	61.05
629.657	61.17
629.99	61.33
630.323	61.33
630.656	61.41
630.989	61.5
631.322	61.51
631.655	61.63
631.987	61.64
632.32	61.67
632.653	61.71
632.986	61.67
633.318	61.78
633.651	61.83
633.984	61.88
634.316	61.95
634.649	62.11
634.981	62.19
635.313	62.17
635.646	62.27
635.978	62.39
636.31	62.23
636.643	62.14
636.975	62.07
637.307	62.16
637.639	62.2
637.971	62.26
638.303	62.4
638.635	62.33
638.967	62.36
639.299	62.39
639.631	62.4
639.963	62.63
640.295	62.65
640.626	62.63
640.958	62.72
641.29	62.89
641.621	62.76
641.953	62.77
642.285	62.72
642.616	62.65
642.948	62.67
643.279	62.72
643.61	62.85
643.942	62.93
644.273	62.99
644.604	62.89
644.936	62.9
645.267	62.87
645.598	62.93
645.929	62.93
646.26	62.93
646.591	63.1
646.922	63.02
647.253	63.08
647.584	63.24
647.915	63.22
648.245	63.14
648.576	63.32
648.907	63.36
649.238	63.39
649.568	63.48
649.899	63.42
650.229	63.48
650.56	63.43
650.89	63.44
651.221	63.29
651.551	63.36
651.882	63.36
652.212	63.39
652.542	63.45
652.872	63.44
653.203	63.46
653.533	63.32
653.863	63.25
654.193	63.19
654.523	63.09
654.853	63.2
655.183	63.17
655.513	63
655.843	62.9
656.172	62.99
656.502	62.92
656.832	62.97
657.162	62.89
657.491	62.96
657.821	62.98
658.15	63.01
658.48	63.05
658.809	63
659.139	63
659.468	62.97
659.798	62.98
660.127	62.86
660.456	63.01
660.785	63.08
661.115	63.09
661.444	63.12
661.773	62.99
662.102	63.11
662.431	63.15
662.76	63.2
663.089	63.2
663.418	63.15
663.747	63.11
664.076	63.14
664.404	63.08
664.733	62.94
665.062	63.04
665.39	63.02
665.719	63.06
666.048	62.99
666.376	63.02
666.705	63.01
667.033	63.06
667.362	62.98
667.69	62.94
668.018	62.94
668.347	62.94
668.675	62.96
669.003	62.86
669.331	62.93
669.659	62.96
669.987	62.9
670.315	62.94
670.643	62.84
670.971	62.74
671.299	62.78
671.627	62.91
671.955	62.83
672.283	62.77
672.61	62.72
672.938	62.62
673.266	62.63
673.593	62.8
673.921	62.82
674.249	62.83
674.576	62.82
674.904	62.83
675.231	62.78
675.558	62.77
675.886	62.72
676.213	62.75
676.54	62.84
676.867	62.74
677.195	62.87
677.522	62.99
677.849	63.14
678.176	63.12
678.503	63.13
678.83	63.1
679.157	63.2
679.484	63.2
679.81	63.32
680.137	63.43
680.464	63.41
680.791	63.49
681.117	63.42
681.444	63.44
681.771	63.49
682.097	63.54
682.424	63.59
682.75	63.6
683.077	63.35
683.403	63.32
683.729	63.35
684.056	63.27
684.382	63.2
684.708	63.24
685.034	63.17
685.36	63.14
685.686	63.15
686.012	63.02
686.339	63.12
686.664	63.21
686.99	63.01
687.316	62.9
687.642	62.83
687.968	62.91
688.294	62.97
688.619	63
688.945	62.91
689.271	62.96
689.596	63.09
689.922	63.38
690.247	63.36
690.573	63.51
690.898	63.63
691.224	63.77
691.549	63.74
691.874	63.81
692.2	63.84
692.525	63.95
692.85	64.07
693.175	64.04
693.5	64.02
693.825	64.17
694.15	64.08
694.475	64.14
694.8	64
695.125	64.01
695.45	63.99
695.775	63.97
696.099	63.85
696.424	63.67
696.749	63.6
697.073	63.51
697.398	63.49
697.723	63.39
698.047	63.35
698.372	63.22
698.696	63.22
699.02	63.14
699.345	63.13
699.669	63.1
699.993	63.06
700.318	63.14
700.642	63.13
700.966	63.18
701.29	63.18
701.614	63.12
701.938	63.08
702.262	62.86
702.586	62.94
702.91	62.96
703.234	63.04
703.557	63.03
703.881	63.37
704.205	63.33
704.529	63.6
704.852	63.55
705.176	63.83
705.499	63.86
705.823	63.89
706.146	63.9
706.47	64.08
706.793	64.12
707.117	63.84
707.44	63.81
707.763	63.65
708.086	63.41
708.409	63.58
708.733	63.51
709.056	63.64
709.379	63.64
709.702	63.72
710.025	63.78
710.348	63.7
710.671	63.36
710.993	63.31
711.316	63.18
711.639	63.17
711.962	62.97
712.284	62.84
712.607	62.8
712.93	62.87
713.252	62.61
713.575	62.57
713.897	62.7
714.22	62.62
714.542	62.93
714.864	63.17
715.187	63.13
715.509	63.15
715.831	63.25
716.153	63.15
716.475	63.31
716.798	63.27
717.12	63.25
717.442	63.3
717.764	63.29
718.085	63.19
718.407	63.35
718.729	63.47
719.051	63.53
719.373	63.61
719.695	63.48
720.016	63.53
720.338	63.51
720.659	63.44
720.981	63.4
721.302	63.37
721.624	63.42
721.945	63.75
722.267	63.68
722.588	63.56
722.909	63.64
723.231	63.44
723.552	63.26
723.873	63.11
724.194	63.22
724.515	63.14
724.836	62.9
725.157	62.72
725.478	62.67
725.799	62.77
726.12	62.77
726.441	62.94
726.762	63.14
727.083	63.22
727.403	63.23
727.724	63.35
728.045	63.43
728.365	63.21
728.686	63.06
729.006	63.09
729.327	63.03
729.647	62.89
729.967	62.82
730.288	63.09
730.608	63.4
730.928	63.25
731.249	63.3
731.569	63.44
731.889	63.48
732.209	63.55
732.529	63.47
732.849	63.6
733.169	63.65
733.489	63.49
733.809	63.4
734.129	63.25
734.448	63.22
734.768	63.09
735.088	63.26
735.408	63.09
735.727	63.16
736.047	63.32
736.366	63.31
736.686	63.28
737.005	63.18
737.325	63.09
737.644	63.04
737.963	63.08
738.283	63.2
738.602	63
738.921	62.98
739.24	62.9
739.56	62.77
739.879	62.67
740.198	62.66
740.517	62.83
740.836	62.99
741.155	63.02
741.473	62.78
741.792	62.7
742.111	63.09
742.43	63.14
742.748	63.04
743.067	63.32
743.386	63.27
743.704	63.42
744.023	63.42
744.341	63.65
744.66	63.58
744.978	63.41
745.297	63.9
745.615	63.79
745.933	63.89
746.252	63.94
746.57	63.83
746.888	63.95
747.206	63.8
747.524	63.56
747.842	63.19
748.16	63.15
748.478	63.47
748.796	63.05
749.114	62.96
749.432	62.85
749.749	62.87
750.067	63.02
750.385	62.86
750.703	62.68
751.02	62.63
751.338	63.03
751.655	63.24
751.973	62.84
752.29	62.53
752.608	62.52
752.925	62.37
753.242	62.53
753.56	62.3
753.877	62.59
754.194	62.87
754.511	63.32
754.828	63.68
755.145	63.19
755.462	63.26
755.779	62.92
756.096	63.24
756.413	63.18
756.73	63.03
757.047	62.93
757.364	62.92
757.68	62.93
757.997	62.45
758.314	62.06
758.63	62.03
758.947	62.26
759.264	61.88
759.58	61.9
759.896	61.82
760.213	61.76
760.529	61.34
760.846	61.55
761.162	61.46
761.478	61.33
761.794	61.66
762.11	61.76
762.426	62.03
762.743	62.09
763.059	62.28
763.375	62.34
763.69	62.31
764.006	62.41
764.322	62.17
764.638	62.22
764.954	62.35
765.27	62.55
765.585	62.58
765.901	62.97
766.216	63.06
766.532	62.95
766.848	63.31
767.163	63.6
767.478	63.55
767.794	63.55
768.109	63.8
768.424	63.46
768.74	63.73
769.055	63.49
769.37	63.17
769.685	63.02
770	62.94
770.315	63.07
770.63	63.1
770.945	63.47
771.26	63.44
771.575	63.47
771.89	63.26
772.205	63.15
772.52	62.94
772.834	63.05
773.149	62.98
773.464	62.57
773.778	62.49
774.093	62.81
774.407	62.43
774.722	62.1
775.036	62.29
775.351	61.61
775.665	62.08
775.979	62.27
776.293	62.1
776.608	62.04
776.922	61.84
777.236	62.2
777.55	62.55
777.864	62.88
778.178	62.74
778.492	63.2
778.806	63.31
779.12	63.73
779.434	63.91
779.747	64.14
780.061	64.26
780.375	64.17
780.689	63.67
781.002	64.19
781.316	64.37
781.629	64.16
781.943	64.53
782.256	64.36
782.57	64.44
782.883	64.6
783.196	65.02
783.51	65.04
783.823	65.02
784.136	64.46
784.449	64.96
784.762	65.48
785.075	65.25
785.388	65.48
785.701	64.98
786.014	65.03
786.327	64.77
786.64	65.15
786.953	65.29
787.266	65.44
787.578	65.53
787.891	65.29
788.204	65.9
788.516	66.11
788.829	66.13
789.141	66.56
789.454	66.66
789.766	67
790.079	67.32
790.391	67.14
790.703	67.47
791.016	66.79
791.328	66.52
791.64	66.34
791.952	66.53
792.264	66.85
792.576	67.06
792.888	67.21
793.2	66.54
793.512	66.37
793.824	66.01
794.136	65.82
794.448	65.99
794.76	65.33
795.071	65.31
795.383	65.34
795.695	64.72
796.006	64.49
796.318	64.57
796.629	64.74
796.941	65.15
797.252	64.75
797.564	64.61
797.875	64.22
798.186	64.22
798.497	63.56
798.809	63.76
799.12	63.26
799.431	63.59
799.742	63.95
800.053	64.15
800.364	64.47
800.675	64.71
800.986	64.46
801.297	63.93
801.608	63.67
801.918	63.52
802.229	63.51
802.54	63.38
802.851	62.65
803.161	62.71
803.472	62.16
803.782	62.94
804.093	62.76
804.403	63.17
804.714	63.59
805.024	63.65
805.334	63.43
805.645	63.42
805.955	63.62
806.265	63.61
806.575	63.58
806.885	63
807.195	63.45
807.505	63.26
807.815	64.31
808.125	64.4
808.435	64.28
808.745	64.08
809.055	63.7
809.365	63.62
809.674	63.2
809.984	63.42
810.294	62.98
810.603	63.4
810.913	63.9
811.222	63.34
811.532	64.15
811.841	64.57
812.151	64.1
812.46	63.4
812.769	63.62
813.079	64.52
813.388	64.95
813.697	64.46
814.006	65.31
814.315	65.46
814.624	66.02
814.933	66.12
815.242	66.54
815.551	66.56
815.86	67.23
816.169	66.86
816.478	66.23
816.786	65.66
817.095	65.13
817.404	64.68
817.712	64.99
818.021	64.51
818.33	64.08
818.638	64.11
818.947	64
819.255	63.84
819.563	63.07
819.872	62.99
820.18	62.68
820.488	62.37
820.796	62.49
821.105	62.5
821.413	62.2
821.721	62.1
822.029	62.21
822.337	62.18
822.645	62.1
822.953	62.19
823.26	62.18
823.568	62.38
823.876	62.45
824.184	62.49
824.491	62.22
824.799	61.96
825.107	62.02
825.414	62.05
825.722	61.83
826.029	61.84
826.337	62
826.644	62.04
826.951	62.13
827.259	62.14
827.566	61.95
827.873	62.25
828.18	62.25
828.488	62.22
828.795	62.1
829.102	62.3
829.409	62.24
829.716	62.61
830.023	62.36
830.329	62.08
830.636	61.85
830.943	62.28
831.25	62.79
831.557	62.67
831.863	62.72
832.17	63.06
832.476	63.37
832.783	63.27
833.089	63.48
833.396	63.42
833.702	62.95
834.009	62.98
834.315	62.47
834.621	62.61
834.928	63.13
835.234	63.52
835.54	63.55
835.846	63.6
836.152	63.38
836.458	63.8
836.764	64.12
837.07	63.86
837.376	63.89
837.682	63.65
837.988	63.94
838.293	64.27
838.599	64.61
838.905	64.37
839.211	63.9
839.516	63.77
839.822	63.9
840.127	63.99
840.433	64.34
840.738	64.78
841.044	64.99
841.349	64.32
841.654	63.26
841.959	63.16
842.265	63.92
842.57	63.67
842.875	63.36
843.18	62.59
843.485	63.05
843.79	63.02
844.095	63.52
844.4	62.47
844.705	61.16
845.01	61.09
845.315	59.99
845.619	60.64
845.924	60.56
846.229	59.4
846.533	59.89
846.838	58.85
847.142	56.99
847.447	57.03
847.751	56.77
848.056	57.4
848.36	57.71
848.664	56.25
848.969	56.09
849.273	55.38
849.577	55.32
849.881	56.11
850.185	55.3
850.489	55.24
850.794	55.53
851.097	57.05
851.401	58
851.705	58.74
852.009	57.25
852.313	57.99
852.617	58.01
852.92	57.42
853.224	55.31
853.528	58.84
853.831	58.32
854.135	58.61
854.438	57.28
854.742	57.81
855.045	57.86
855.349	57.46
855.652	56.59
855.955	56.31
856.259	55.87
856.562	58.34
856.865	58.18
857.168	58.96
857.471	58.16
857.774	55.7
858.077	56.52
858.38	57.33
858.683	56.52
858.986	58.5
859.289	57.39
859.592	61.52
859.894	61.32
860.197	60.79
860.5	61.91
860.802	62.63
861.105	62.9
861.407	61.35
861.71	61.56
862.012	61.65
862.315	62.45
862.617	65.7
862.919	62.65
863.222	62.91
863.524	64
863.826	62.91
864.128	65.46
864.43	65.83
864.732	67.6
865.034	67.66
865.336	66.19
865.638	67.32
865.94	66.66
866.242	66.27
866.544	65.6
866.846	63.41
867.147	66.21
867.449	65.81
867.751	68.31
868.052	69.01
868.354	70.87
868.655	74.91
868.957	71.58
869.258	72.4
869.56	70.46
869.861	68.06
870.162	70.85
870.463	69.41
870.765	69.68
871.066	67.35
871.367	66.8
871.668	67.86
871.969	72.23
872.27	70.99
872.571	71.3
872.872	72
873.173	73.65
873.473	70.9
873.774	72.25
874.075	73.71
874.376	70.35
874.676	70.13
874.977	68.38
875.277	68.5
875.578	70.68
875.878	73.04
876.179	74.49
876.479	73.47
876.78	73.6
877.08	72.75
877.38	74.47
877.68	76.64
877.981	77.27
878.281	71.09
878.581	72.13
