Data from BU58119_Reflection_00011.txt Node
Date: Tue Nov 19 10:51:01 EST 2019
User: vgr7
Spectrometer: USB2G7710
Scans to average: 3
Trigger mode: 4
Integration Time (sec): 2.000000E-2
Electric dark correction enabled: true
Boxcar width: 10
XAxis mode: Wavelengths
Number of Pixels in Spectrum: 2048
>>>>>Begin Spectral Data<<<<<
177.721	71.25
178.105	85.44
178.488	74.06
178.871	18.18
179.254	700
179.636	61.21
180.019	-15.88
180.402	48.15
180.785	-390.91
181.168	-104.55
181.55	-16.61
181.933	11.16
182.316	100
182.698	47.7
183.081	-4.2
183.463	-39.94
183.846	-59.65
184.228	-223.74
184.611	-101.58
184.993	-43.66
185.376	-203.25
185.758	520.56
186.14	126.87
186.522	165.08
186.904	229.11
187.287	180.18
187.669	170.34
188.051	153.39
188.433	175.83
188.815	183.92
189.197	141.7
189.579	113.27
189.961	107.3
190.342	113.22
190.724	108.51
191.106	103.26
191.488	110.94
191.869	100
192.251	102.76
192.633	101.34
193.014	102.39
193.396	90.45
193.777	84.4
194.159	101.34
194.54	97.46
194.922	98.73
195.303	90.02
195.684	87.8
196.065	73.18
196.447	73.12
196.828	68.1
197.209	79.84
197.59	106.25
197.971	90.87
198.352	101.86
198.733	102.03
199.114	85.28
199.495	106.95
199.876	164.24
200.257	729.37
200.638	1463.64
201.018	-3577.42
201.399	396.93
201.78	456.88
202.16	377.61
202.541	1676.27
202.922	563.09
203.302	-7284.62
203.683	-3860
204.063	921.05
204.444	545.54
204.824	9700
205.204	112.73
205.585	73.04
205.965	91.17
206.345	71.48
206.725	59.49
207.106	76.46
207.486	67.25
207.866	66.2
208.246	55.93
208.626	51.11
209.006	54.52
209.386	59.61
209.766	59.77
210.145	43.29
210.525	32.15
210.905	37.32
211.285	32.81
211.664	26.08
212.044	40.23
212.424	42.43
212.803	37.26
213.183	35.68
213.562	35.09
213.942	30.56
214.321	23.35
214.701	20.45
215.08	6.7
215.459	11.79
215.838	3.63
216.218	6.02
216.597	4.69
216.976	-0.4
217.355	-1.94
217.734	-8.61
218.113	-0.6
218.492	0.32
218.871	-5.55
219.25	-5.72
219.629	1.99
220.008	-3.1
220.387	-3.04
220.766	7.33
221.144	13.16
221.523	17.54
221.902	18.36
222.28	35.93
222.659	48.09
223.037	63.14
223.416	63.1
223.794	75.36
224.173	55.61
224.551	68.07
224.929	61.88
225.308	63.55
225.686	68.08
226.064	62.17
226.442	68.65
226.821	68.57
227.199	62.27
227.577	56.29
227.955	49.79
228.333	52.42
228.711	52.11
229.089	49.9
229.467	44.29
229.845	37.69
230.222	37.92
230.6	31.57
230.978	29.94
231.356	27.3
231.733	23.83
232.111	24.16
232.488	22.5
232.866	23.72
233.243	21.77
233.621	19.67
233.998	21.08
234.376	20.14
234.753	19.04
235.13	18.55
235.508	17.76
235.885	17.88
236.262	13.66
236.639	9.91
237.016	9.25
237.393	10.77
237.77	12.48
238.147	10.56
238.524	11.64
238.901	10.64
239.278	9.94
239.655	9.55
240.032	9.04
240.409	9.05
240.785	7.95
241.162	7.79
241.539	7.12
241.915	7.35
242.292	7.26
242.668	7.7
243.045	7.66
243.421	7.44
243.798	7.23
244.174	7.45
244.551	7.7
244.927	7.32
245.303	6.9
245.679	6.74
246.056	6.88
246.432	6.62
246.808	6.99
247.184	7.23
247.56	7.04
247.936	7.17
248.312	6.96
248.688	6.95
249.064	6.84
249.44	6.83
249.815	6.85
250.191	6.92
250.567	6.88
250.943	6.88
251.318	6.86
251.694	6.86
252.069	6.79
252.445	6.89
252.82	7.63
253.196	7.66
253.571	7.73
253.947	7.68
254.322	7.52
254.697	7.3
255.073	7
255.448	7.09
255.823	6.83
256.198	6.59
256.573	6.5
256.948	6.35
257.323	6.41
257.698	6.07
258.073	5.92
258.448	5.94
258.823	5.83
259.198	5.68
259.573	5.85
259.948	5.91
260.322	5.89
260.697	5.55
261.072	5.54
261.446	5.33
261.821	5.24
262.195	5.4
262.57	5.37
262.944	5.44
263.319	5.25
263.693	5.25
264.067	5.28
264.442	5.32
264.816	5.22
265.19	5.2
265.564	5.11
265.938	5.06
266.313	4.84
266.687	5.09
267.061	5.04
267.435	5.08
267.809	5
268.183	4.88
268.556	4.98
268.93	5.03
269.304	5.13
269.678	5.2
270.051	5.23
270.425	5.19
270.799	5.02
271.172	5.17
271.546	5.32
271.919	5.18
272.293	5.23
272.666	5.16
273.04	5.17
273.413	5.17
273.787	5.25
274.16	5.16
274.533	5.16
274.906	5.23
275.279	4.95
275.653	5.14
276.026	5.11
276.399	5.14
276.772	5.04
277.145	5.07
277.518	4.95
277.891	4.92
278.263	4.92
278.636	5.22
279.009	5.23
279.382	4.98
279.755	5.29
280.127	5.2
280.5	5.49
280.872	5.53
281.245	5.72
281.617	5.71
281.99	5.62
282.362	5.39
282.735	5.45
283.107	5.57
283.479	5.35
283.852	5.51
284.224	5.42
284.596	5.56
284.968	5.67
285.34	5.64
285.713	5.58
286.085	5.58
286.457	5.39
286.829	5.34
287.201	5.38
287.572	5.3
287.944	5.37
288.316	5.3
288.688	5.4
289.06	5.48
289.431	5.49
289.803	5.77
290.175	5.88
290.546	5.9
290.918	5.96
291.289	6.08
291.661	6
292.032	6.07
292.403	5.98
292.775	5.86
293.146	6
293.517	6.15
293.889	6.11
294.26	6.37
294.631	6.51
295.002	6.62
295.373	6.62
295.744	6.75
296.115	6.85
296.486	6.89
296.857	6.89
297.228	6.83
297.599	6.69
297.97	6.75
298.34	6.78
298.711	6.69
299.082	6.82
299.452	6.93
299.823	6.94
300.194	7.16
300.564	7.2
300.935	7.27
301.305	7.38
301.676	7.55
302.046	7.41
302.416	7.55
302.787	7.5
303.157	7.74
303.527	7.92
303.897	7.92
304.267	7.93
304.637	8.01
305.008	8.26
305.378	8.53
305.748	8.55
306.117	8.72
306.487	9.02
306.857	9.05
307.227	9.01
307.597	9.17
307.967	9.3
308.336	9.49
308.706	9.7
309.076	9.78
309.445	9.99
309.815	10.05
310.184	9.98
310.554	10.21
310.923	10.15
311.293	10.09
311.662	10.19
312.031	10.29
312.401	10.41
312.77	10.5
313.139	10.49
313.508	10.47
313.877	10.58
314.246	10.7
314.616	10.73
314.985	10.99
315.353	11.14
315.722	11.12
316.091	11.35
316.46	11.47
316.829	11.54
317.198	11.61
317.567	11.92
317.935	12.18
318.304	12.33
318.672	12.36
319.041	12.45
319.41	12.64
319.778	12.69
320.147	12.64
320.515	12.55
320.883	12.59
321.252	12.89
321.62	12.97
321.988	13.14
322.357	13.27
322.725	13.3
323.093	13.26
323.461	13.29
323.829	13.2
324.197	13.08
324.565	13.11
324.933	13.09
325.301	12.96
325.669	13.1
326.037	13.17
326.405	13.3
326.772	13.44
327.14	13.39
327.508	13.47
327.875	13.5
328.243	13.7
328.61	13.89
328.978	14.04
329.346	13.98
329.713	13.89
330.08	14.13
330.448	14.15
330.815	14.34
331.182	14.45
331.55	14.55
331.917	14.46
332.284	14.59
332.651	14.69
333.018	14.85
333.385	14.78
333.752	14.88
334.119	15.04
334.486	14.94
334.853	14.9
335.22	14.79
335.587	14.79
335.954	14.75
336.32	14.86
336.687	14.74
337.054	14.91
337.42	14.99
337.787	14.74
338.153	14.79
338.52	14.9
338.886	14.99
339.253	15.1
339.619	15.2
339.986	15.13
340.352	15.04
340.718	15.1
341.084	15.12
341.451	14.96
341.817	14.83
342.183	14.89
342.549	14.93
342.915	15.08
343.281	15.08
343.647	15.17
344.013	15.18
344.379	15.11
344.745	15.17
345.11	15.03
345.476	15.21
345.842	15.13
346.208	14.98
346.573	14.96
346.939	14.84
347.304	14.87
347.67	14.82
348.035	14.95
348.401	14.84
348.766	14.77
349.132	14.9
349.497	14.97
349.862	14.87
350.228	15
350.593	14.97
350.958	15.01
351.323	14.92
351.688	14.87
352.053	14.96
352.418	14.91
352.783	15.03
353.148	14.96
353.513	15.02
353.878	15.08
354.243	14.9
354.608	14.89
354.972	14.94
355.337	14.94
355.702	14.78
356.066	14.85
356.431	14.83
356.795	14.78
357.16	14.76
357.524	14.73
357.889	14.66
358.253	14.59
358.618	14.59
358.982	14.54
359.346	14.53
359.71	14.5
360.075	14.45
360.439	14.39
360.803	14.35
361.167	14.27
361.531	14.19
361.895	14.17
362.259	14.08
362.623	13.92
362.987	13.8
363.351	13.84
363.714	13.8
364.078	13.69
364.442	13.59
364.806	13.5
365.169	13.48
365.533	13.37
365.896	13.33
366.26	13.15
366.623	13.1
366.987	13.04
367.35	13.01
367.714	12.9
368.077	12.8
368.44	12.73
368.803	12.67
369.167	12.54
369.53	12.49
369.893	12.36
370.256	12.35
370.619	12.34
370.982	12.13
371.345	12.11
371.708	12.1
372.071	11.95
372.434	11.84
372.797	11.77
373.159	11.62
373.522	11.55
373.885	11.48
374.247	11.27
374.61	11.1
374.973	10.91
375.335	10.77
375.698	10.59
376.06	10.37
376.423	10.26
376.785	10.18
377.147	10.08
377.51	10.06
377.872	9.92
378.234	9.84
378.596	9.82
378.958	9.57
379.321	9.42
379.683	9.38
380.045	9.28
380.407	9.17
380.769	9.09
381.13	8.9
381.492	8.82
381.854	8.82
382.216	8.76
382.578	8.67
382.939	8.6
383.301	8.52
383.663	8.51
384.024	8.43
384.386	8.34
384.747	8.24
385.109	8.22
385.47	8.14
385.832	8.02
386.193	7.94
386.554	7.86
386.916	7.81
387.277	7.72
387.638	7.69
387.999	7.59
388.36	7.54
388.721	7.54
389.082	7.52
389.443	7.45
389.804	7.41
390.165	7.36
390.526	7.27
390.887	7.22
391.248	7.18
391.609	7.15
391.969	7.11
392.33	7.09
392.691	6.97
393.051	6.95
393.412	6.95
393.772	6.9
394.133	6.83
394.493	6.77
394.854	6.72
395.214	6.61
395.574	6.59
395.935	6.51
396.295	6.44
396.655	6.34
397.015	6.28
397.376	6.19
397.736	6.12
398.096	6.09
398.456	6.07
398.816	6.02
399.176	5.93
399.535	5.91
399.895	5.84
400.255	5.75
400.615	5.66
400.975	5.57
401.334	5.48
401.694	5.5
402.054	5.44
402.413	5.37
402.773	5.35
403.132	5.3
403.492	5.33
403.851	5.33
404.211	5.32
404.57	5.28
404.929	5.22
405.288	5.2
405.648	5.19
406.007	5.14
406.366	5.13
406.725	5.09
407.084	5.04
407.443	4.98
407.802	5.01
408.161	5.02
408.52	5
408.879	5.02
409.238	5
409.596	5.02
409.955	5
410.314	5.03
410.673	5.01
411.031	4.98
411.39	4.93
411.748	4.93
412.107	4.93
412.465	4.92
412.824	4.91
413.182	4.86
413.54	4.85
413.899	4.79
414.257	4.78
414.615	4.77
414.974	4.79
415.332	4.76
415.69	4.72
416.048	4.68
416.406	4.61
416.764	4.57
417.122	4.55
417.48	4.53
417.838	4.48
418.195	4.47
418.553	4.45
418.911	4.42
419.269	4.4
419.626	4.36
419.984	4.33
420.342	4.31
420.699	4.3
421.057	4.28
421.414	4.27
421.772	4.25
422.129	4.23
422.486	4.19
422.844	4.17
423.201	4.16
423.558	4.15
423.915	4.16
424.273	4.14
424.63	4.12
424.987	4.11
425.344	4.11
425.701	4.09
426.058	4.06
426.415	4.04
426.772	4
427.128	4.01
427.485	4
427.842	3.98
428.199	3.96
428.555	3.94
428.912	3.92
429.269	3.9
429.625	3.87
429.982	3.87
430.338	3.87
430.695	3.88
431.051	3.86
431.407	3.86
431.764	3.86
432.12	3.86
432.476	3.86
432.832	3.84
433.189	3.82
433.545	3.82
433.901	3.81
434.257	3.82
434.613	3.79
434.969	3.78
435.325	3.79
435.681	3.8
436.036	3.82
436.392	3.85
436.748	3.85
437.104	3.87
437.459	3.85
437.815	3.86
438.171	3.84
438.526	3.87
438.882	3.86
439.237	3.87
439.593	3.87
439.948	3.86
440.304	3.84
440.659	3.84
441.014	3.86
441.369	3.88
441.725	3.87
442.08	3.87
442.435	3.88
442.79	3.87
443.145	3.87
443.5	3.85
443.855	3.81
444.21	3.81
444.565	3.79
444.92	3.79
445.275	3.78
445.629	3.78
445.984	3.74
446.339	3.74
446.693	3.72
447.048	3.71
447.403	3.7
447.757	3.7
448.112	3.69
448.466	3.67
448.82	3.67
449.175	3.67
449.529	3.66
449.883	3.66
450.238	3.66
450.592	3.63
450.946	3.62
451.3	3.63
451.654	3.62
452.008	3.62
452.362	3.63
452.716	3.61
453.07	3.59
453.424	3.61
453.778	3.59
454.132	3.56
454.486	3.55
454.839	3.56
455.193	3.55
455.547	3.55
455.9	3.56
456.254	3.53
456.607	3.53
456.961	3.52
457.314	3.5
457.668	3.5
458.021	3.5
458.375	3.48
458.728	3.49
459.081	3.5
459.434	3.49
459.787	3.5
460.141	3.51
460.494	3.5
460.847	3.49
461.2	3.5
461.553	3.51
461.906	3.51
462.259	3.52
462.611	3.52
462.964	3.52
463.317	3.52
463.67	3.53
464.022	3.54
464.375	3.57
464.728	3.56
465.08	3.59
465.433	3.59
465.785	3.62
466.138	3.64
466.49	3.65
466.843	3.67
467.195	3.69
467.547	3.68
467.899	3.73
468.252	3.74
468.604	3.75
468.956	3.76
469.308	3.77
469.66	3.8
470.012	3.8
470.364	3.83
470.716	3.85
471.068	3.9
471.42	3.91
471.772	3.93
472.123	3.98
472.475	3.98
472.827	4
473.178	4.01
473.53	4.02
473.882	4.05
474.233	4.06
474.585	4.05
474.936	4.09
475.288	4.1
475.639	4.13
475.99	4.13
476.342	4.16
476.693	4.16
477.044	4.15
477.395	4.17
477.746	4.14
478.097	4.12
478.448	4.09
478.8	4.06
479.15	4.04
479.501	4.01
479.852	3.99
480.203	3.99
480.554	3.97
480.905	3.94
481.255	3.93
481.606	3.92
481.957	3.91
482.307	3.9
482.658	3.89
483.009	3.88
483.359	3.88
483.709	3.87
484.06	3.86
484.41	3.85
484.761	3.85
485.111	3.85
485.461	3.85
485.811	3.85
486.162	3.84
486.512	3.83
486.862	3.83
487.212	3.83
487.562	3.81
487.912	3.8
488.262	3.81
488.612	3.79
488.961	3.78
489.311	3.78
489.661	3.77
490.011	3.77
490.36	3.77
490.71	3.77
491.06	3.77
491.409	3.77
491.759	3.77
492.108	3.77
492.458	3.78
492.807	3.78
493.157	3.79
493.506	3.81
493.855	3.82
494.204	3.83
494.554	3.84
494.903	3.86
495.252	3.88
495.601	3.92
495.95	3.96
496.299	4
496.648	4.04
496.997	4.08
497.346	4.12
497.695	4.15
498.043	4.19
498.392	4.24
498.741	4.28
499.09	4.35
499.438	4.42
499.787	4.45
500.135	4.51
500.484	4.57
500.832	4.63
501.181	4.7
501.529	4.81
501.878	4.92
502.226	5.01
502.574	5.09
502.923	5.17
503.271	5.24
503.619	5.31
503.967	5.38
504.315	5.46
504.663	5.53
505.011	5.63
505.359	5.74
505.707	5.85
506.055	5.97
506.403	6.1
506.751	6.17
507.098	6.3
507.446	6.4
507.794	6.52
508.141	6.64
508.489	6.78
508.837	6.88
509.184	7.01
509.531	7.13
509.879	7.27
510.226	7.41
510.574	7.57
510.921	7.7
511.268	7.86
511.616	8.02
511.963	8.18
512.31	8.32
512.657	8.46
513.004	8.62
513.351	8.8
513.698	8.96
514.045	9.17
514.392	9.35
514.739	9.56
515.086	9.75
515.432	9.95
515.779	10.14
516.126	10.33
516.473	10.51
516.819	10.67
517.166	10.87
517.512	11
517.859	11.15
518.205	11.31
518.552	11.47
518.898	11.63
519.245	11.79
519.591	11.98
519.937	12.15
520.283	12.34
520.629	12.51
520.976	12.66
521.322	12.86
521.668	13.05
522.014	13.25
522.36	13.47
522.706	13.7
523.052	13.91
523.398	14.15
523.743	14.4
524.089	14.69
524.435	14.93
524.781	15.18
525.126	15.4
525.472	15.62
525.817	15.79
526.163	15.94
526.509	16.11
526.854	16.25
527.199	16.41
527.545	16.54
527.89	16.71
528.235	16.88
528.581	17.02
528.926	17.19
529.271	17.35
529.616	17.49
529.961	17.65
530.306	17.85
530.651	18.01
530.996	18.21
531.341	18.39
531.686	18.6
532.031	18.83
532.376	19.04
532.721	19.25
533.065	19.5
533.41	19.77
533.755	20.03
534.099	20.3
534.444	20.57
534.788	20.84
535.133	21.07
535.477	21.34
535.822	21.62
536.166	21.93
536.51	22.26
536.855	22.63
537.199	22.96
537.543	23.29
537.887	23.66
538.231	24.02
538.576	24.4
538.92	24.75
539.264	25.1
539.608	25.44
539.951	25.72
540.295	26.02
540.639	26.32
540.983	26.58
541.327	26.86
541.671	27.13
542.014	27.42
542.358	27.69
542.701	27.97
543.045	28.26
543.389	28.51
543.732	28.8
544.075	29.05
544.419	29.34
544.762	29.63
545.105	29.94
545.449	30.26
545.792	30.58
546.135	30.92
546.478	31.27
546.821	31.58
547.165	32.01
547.508	32.37
547.851	32.73
548.194	33.1
548.536	33.49
548.879	33.83
549.222	34.19
549.565	34.56
549.908	34.95
550.25	35.3
550.593	35.68
550.936	36.04
551.278	36.41
551.621	36.78
551.963	37.19
552.306	37.58
552.648	37.92
552.991	38.23
553.333	38.57
553.675	38.89
554.017	39.26
554.36	39.56
554.702	39.94
555.044	40.3
555.386	40.6
555.728	40.96
556.07	41.28
556.412	41.64
556.754	42.04
557.096	42.38
557.438	42.72
557.78	43.01
558.121	43.35
558.463	43.68
558.805	43.99
559.147	44.24
559.488	44.57
559.83	44.93
560.171	45.12
560.513	45.34
560.854	45.65
561.196	45.88
561.537	46.15
561.878	46.46
562.22	46.71
562.561	47.01
562.902	47.18
563.243	47.44
563.584	47.69
563.925	47.82
564.266	48.02
564.607	48.29
564.948	48.55
565.289	48.8
565.63	49.1
565.971	49.29
566.312	49.53
566.653	49.66
566.993	49.84
567.334	50.14
567.675	50.36
568.015	50.51
568.356	50.81
568.696	51.12
569.037	51.25
569.377	51.42
569.718	51.63
570.058	51.85
570.398	52.08
570.739	52.21
571.079	52.46
571.419	52.63
571.759	52.77
572.099	53.01
572.439	53.16
572.779	53.24
573.119	53.44
573.459	53.63
573.799	53.79
574.139	53.92
574.479	54.08
574.819	54.3
575.158	54.52
575.498	54.62
575.838	54.67
576.177	54.85
576.517	55.01
576.856	55.1
577.196	55.26
577.535	55.32
577.875	55.49
578.214	55.64
578.553	55.75
578.893	55.91
579.232	55.95
579.571	56.09
579.91	56.25
580.25	56.35
580.589	56.44
580.928	56.61
581.267	56.82
581.606	56.94
581.945	57.05
582.283	57.07
582.622	57.27
582.961	57.43
583.3	57.45
583.639	57.64
583.977	57.75
584.316	57.87
584.654	58.12
584.993	58.27
585.332	58.37
585.67	58.57
586.008	58.68
586.347	58.83
586.685	58.9
587.024	58.93
587.362	59.1
587.7	59.14
588.038	59.23
588.376	59.22
588.715	59.25
589.053	59.28
589.391	59.4
589.729	59.36
590.067	59.39
590.404	59.52
590.742	59.48
591.08	59.67
591.418	59.84
591.756	59.93
592.093	60.05
592.431	60.1
592.769	60.18
593.106	60.19
593.444	60.24
593.781	60.33
594.119	60.46
594.456	60.53
594.793	60.68
595.131	60.67
595.468	60.78
595.805	60.88
596.143	61.02
596.48	61.09
596.817	61.21
597.154	61.32
597.491	61.45
597.828	61.59
598.165	61.64
598.502	61.67
598.839	61.74
599.176	61.71
599.512	61.77
599.849	61.89
600.186	62
600.523	62.01
600.859	62.04
601.196	62.14
601.532	62.13
601.869	62.24
602.205	62.4
602.542	62.51
602.878	62.55
603.215	62.55
603.551	62.52
603.887	62.56
604.223	62.65
604.56	62.69
604.896	62.73
605.232	62.77
605.568	62.79
605.904	62.79
606.24	62.9
606.576	62.89
606.912	62.96
607.248	63.04
607.583	63.21
607.919	63.3
608.255	63.3
608.591	63.42
608.926	63.35
609.262	63.38
609.597	63.35
609.933	63.39
610.268	63.4
610.604	63.52
610.939	63.54
611.275	63.56
611.61	63.53
611.945	63.54
612.281	63.55
612.616	63.57
612.951	63.56
613.286	63.55
613.621	63.57
613.956	63.56
614.291	63.48
614.626	63.51
614.961	63.5
615.296	63.59
615.631	63.49
615.966	63.58
616.3	63.67
616.635	63.72
616.97	63.8
617.304	63.87
617.639	63.81
617.973	63.86
618.308	63.88
618.642	63.87
618.977	63.93
619.311	64.07
619.646	64.1
619.98	64.16
620.314	64.21
620.648	64.27
620.983	64.27
621.317	64.44
621.651	64.47
621.985	64.53
622.319	64.52
622.653	64.67
622.987	64.66
623.321	64.66
623.655	64.67
623.988	64.75
624.322	64.69
624.656	64.78
624.99	64.71
625.323	64.7
625.657	64.79
625.99	64.74
626.324	64.62
626.657	64.65
626.991	64.61
627.324	64.63
627.658	64.76
627.991	64.8
628.324	64.83
628.657	64.72
628.991	64.75
629.324	64.8
629.657	64.72
629.99	64.84
630.323	64.82
630.656	64.88
630.989	64.82
631.322	65.01
631.655	65.03
631.987	65.18
632.32	65.25
632.653	65.35
632.986	65.37
633.318	65.45
633.651	65.43
633.984	65.5
634.316	65.6
634.649	65.49
634.981	65.44
635.313	65.33
635.646	65.5
635.978	65.41
636.31	65.45
636.643	65.47
636.975	65.44
637.307	65.44
637.639	65.44
637.971	65.45
638.303	65.3
638.635	65.39
638.967	65.41
639.299	65.22
639.631	65.11
639.963	65.24
640.295	65.3
640.626	65.37
640.958	65.48
641.29	65.46
641.621	65.5
641.953	65.6
642.285	65.65
642.616	65.69
642.948	65.78
643.279	65.75
643.61	65.9
643.942	65.78
644.273	65.74
644.604	65.73
644.936	65.8
645.267	65.77
645.598	65.72
645.929	65.55
646.26	65.67
646.591	65.82
646.922	65.82
647.253	65.72
647.584	65.78
647.915	65.71
648.245	65.75
648.576	65.91
648.907	65.96
649.238	66
649.568	66.05
649.899	65.97
650.229	65.98
650.56	65.89
650.89	66.02
651.221	65.99
651.551	66.1
651.882	66.08
652.212	66.21
652.542	66.23
652.872	66.39
653.203	66.52
653.533	66.44
653.863	66.37
654.193	66.5
654.523	66.38
654.853	66.36
655.183	66.24
655.513	66.08
655.843	66.08
656.172	66.18
656.502	66.15
656.832	66.35
657.162	66.33
657.491	66.5
657.821	66.48
658.15	66.55
658.48	66.53
658.809	66.61
659.139	66.55
659.468	66.69
659.798	66.66
660.127	66.68
660.456	66.76
660.785	66.94
661.115	67.02
661.444	67.12
661.773	67.18
662.102	67.22
662.431	67.43
662.76	67.44
663.089	67.34
663.418	67.25
663.747	67.17
664.076	67.22
664.404	67.19
664.733	67.26
665.062	67.38
665.39	67.38
665.719	67.28
666.048	67.36
666.376	67.09
666.705	67.18
667.033	67.17
667.362	67.23
667.69	67.11
668.018	66.98
668.347	66.99
668.675	66.89
669.003	66.99
669.331	66.99
669.659	67.04
669.987	67.11
670.315	67.1
670.643	66.99
670.971	66.99
671.299	67.01
671.627	66.99
671.955	67.02
672.283	66.99
672.61	67
672.938	67.18
673.266	67.36
673.593	67.29
673.921	67.26
674.249	67.14
674.576	67.21
674.904	67.25
675.231	67.35
675.558	67.42
675.886	67.41
676.213	67.44
676.54	67.39
676.867	67.3
677.195	67.28
677.522	67.47
677.849	67.57
678.176	67.42
678.503	67.51
678.83	67.3
679.157	67.35
679.484	67.35
679.81	67.22
680.137	67.22
680.464	67.3
680.791	67.25
681.117	67.25
681.444	67.23
681.771	67.23
682.097	67.14
682.424	67.3
682.75	67.44
683.077	67.35
683.403	67.36
683.729	67.32
684.056	67.48
684.382	67.38
684.708	67.26
685.034	67.55
685.36	67.46
685.686	67.61
686.012	67.65
686.339	67.65
686.664	67.58
686.99	67.46
687.316	67.62
687.642	67.79
687.968	67.81
688.294	67.89
688.619	67.99
688.945	67.99
689.271	67.91
689.596	67.69
689.922	67.66
690.247	67.64
690.573	67.78
690.898	67.74
691.224	67.85
691.549	68.02
691.874	67.81
692.2	67.85
692.525	67.79
692.85	67.68
693.175	67.8
693.5	67.73
693.825	67.95
694.15	67.63
694.475	67.51
694.8	67.5
695.125	67.56
695.45	67.42
695.775	67.5
696.099	67.36
696.424	67.51
696.749	67.71
697.073	67.65
697.398	67.91
697.723	67.91
698.047	67.85
698.372	67.76
698.696	67.8
699.02	67.71
699.345	67.86
699.669	67.98
699.993	67.9
700.318	67.9
700.642	67.96
700.966	68.1
701.29	68.15
701.614	68.19
701.938	68.05
702.262	68.1
702.586	68.11
702.91	68.33
703.234	68.09
703.557	67.92
703.881	67.93
704.205	67.78
704.529	67.62
704.852	67.47
705.176	67.61
705.499	67.66
705.823	67.58
706.146	67.38
706.47	67.22
706.793	67.3
707.117	67.63
707.44	67.61
707.763	67.52
708.086	67.24
708.409	67.16
708.733	67.18
709.056	67.08
709.379	66.89
709.702	66.83
710.025	67.12
710.348	67.19
710.671	67.41
710.993	67.31
711.316	67.72
711.639	67.89
711.962	67.8
712.284	67.68
712.607	67.6
712.93	67.76
713.252	67.75
713.575	67.89
713.897	67.75
714.22	67.69
714.542	67.84
714.864	68.11
715.187	68.17
715.509	68.25
715.831	68.47
716.153	68.42
716.475	68.46
716.798	68.39
717.12	68.26
717.442	68.09
717.764	68.07
718.085	67.73
718.407	67.66
718.729	67.72
719.051	67.83
719.373	68.17
719.695	68.03
720.016	68.31
720.338	68.18
720.659	68.22
720.981	68.27
721.302	68.29
721.624	68.23
721.945	68.1
722.267	68.02
722.588	68
722.909	68.01
723.231	68.23
723.552	68.4
723.873	68.74
724.194	68.83
724.515	68.91
724.836	69.15
725.157	69.3
725.478	69.17
725.799	69.07
726.12	68.88
726.441	68.98
726.762	68.8
727.083	68.89
727.403	68.76
727.724	68.53
728.045	68.51
728.365	68.47
728.686	68.76
729.006	68.73
729.327	68.72
729.647	68.93
729.967	68.63
730.288	68.46
730.608	68.44
730.928	68.39
731.249	68.29
731.569	68.49
731.889	68.52
732.209	68.46
732.529	68.62
732.849	69
733.169	68.79
733.489	68.83
733.809	68.98
734.129	69.17
734.448	69.2
734.768	69.08
735.088	69.25
735.408	69.34
735.727	69.53
736.047	69.24
736.366	69.28
736.686	69.45
737.005	69.55
737.325	69.45
737.644	69.53
737.963	69.5
738.283	69.15
738.602	69.11
738.921	69.23
739.24	69.1
739.56	68.96
739.879	69.07
740.198	68.95
740.517	68.58
740.836	68.31
741.155	68.32
741.473	68.22
741.792	68.04
742.111	67.76
742.43	67.66
742.748	67.81
743.067	67.88
743.386	67.87
743.704	67.84
744.023	67.63
744.341	67.62
744.66	67.51
744.978	67.44
745.297	67.66
745.615	67.61
745.933	67.66
746.252	67.59
746.57	67.84
746.888	67.52
747.206	67.57
747.524	67.96
747.842	67.93
748.16	68.2
748.478	68.44
748.796	68.27
749.114	67.98
749.432	67.83
749.749	67.75
750.067	67.95
750.385	67.84
750.703	68.14
751.02	68.04
751.338	68.02
751.655	68.49
751.973	68.34
752.29	68.44
752.608	68.64
752.925	68.91
753.242	68.75
753.56	69.05
753.877	69.15
754.194	69.27
754.511	69.2
754.828	69.13
755.145	69.24
755.462	69.24
755.779	69.35
756.096	69.57
756.413	69.41
756.73	69.22
757.047	69.15
757.364	69.2
757.68	69.31
757.997	69.35
758.314	68.75
758.63	68.92
758.947	69.03
759.264	68.42
759.58	68.29
759.896	68.6
760.213	68.79
760.529	68.62
760.846	68.45
761.162	68.77
761.478	68.92
761.794	68.65
762.11	69.11
762.426	69
762.743	68.99
763.059	69.19
763.375	69.13
763.69	69.46
764.006	69.19
764.322	69.16
764.638	69.66
764.954	69.76
765.27	69.7
765.585	69.67
765.901	69.98
766.216	69.82
766.532	69.89
766.848	69.82
767.163	69.93
767.478	69.83
767.794	69.7
768.109	69.51
768.424	69.52
768.74	69.39
769.055	69.53
769.37	69.39
769.685	69.06
770	68.74
770.315	68.13
770.63	68.6
770.945	68.29
771.26	67.7
771.575	67.66
771.89	67.47
772.205	67.36
772.52	67.4
772.834	67.46
773.149	67.24
773.464	67.51
773.778	67.27
774.093	67.41
774.407	67.59
774.722	68.01
775.036	68.18
775.351	68
775.665	67.97
775.979	68
776.293	68.64
776.608	69.12
776.922	69.18
777.236	68.4
777.55	69.1
777.864	69.23
778.178	69.14
778.492	68.74
778.806	68.67
779.12	68.57
779.434	68.64
779.747	68.52
780.061	68.61
780.375	69.26
780.689	69.5
781.002	69.59
781.316	68.98
781.629	69.32
781.943	69.22
782.256	69.14
782.57	69.52
782.883	69.06
783.196	69.2
783.51	69.61
783.823	70.03
784.136	69.35
784.449	69.17
784.762	69.79
785.075	69.72
785.388	69.67
785.701	69.59
786.014	69.58
786.327	69.64
786.64	69.44
786.953	69.05
787.266	68.97
787.578	69.1
787.891	69.12
788.204	68.97
788.516	69.29
788.829	69.68
789.141	70.29
789.454	70.65
789.766	70.6
790.079	70.35
790.391	70.57
790.703	71.56
791.016	71.71
791.328	71.02
791.64	71.75
791.952	72.23
792.264	72.49
792.576	73.04
792.888	72.88
793.2	73
793.512	73.17
793.824	73.1
794.136	72.92
794.448	73.42
794.76	73.38
795.071	73.45
795.383	73.36
795.695	72.74
796.006	72.1
796.318	72.36
796.629	72.55
796.941	72.65
797.252	72.6
797.564	72.76
797.875	73.2
798.186	73.04
798.497	72.7
798.809	72.68
799.12	71.69
799.431	71.27
799.742	70.95
800.053	70.57
800.364	71.2
800.675	70.84
800.986	70.6
801.297	70.19
801.608	69.4
801.918	69.52
802.229	69.63
802.54	69.31
802.851	69.16
803.161	69.37
803.472	69.53
803.782	69.84
804.093	69.48
804.403	69.33
804.714	69.57
805.024	69.32
805.334	69.5
805.645	70.78
805.955	70.99
806.265	71.67
806.575	72.22
806.885	71.25
807.195	71.29
807.505	71.84
807.815	72.16
808.125	72.8
808.435	72.61
808.745	71.92
809.055	72.53
809.365	72.5
809.674	72.15
809.984	71.34
810.294	70.63
810.603	70.66
810.913	70.54
811.222	69.84
811.532	70.79
811.841	71.46
812.151	70.42
812.46	70.88
812.769	70.3
813.079	70.02
813.388	70.46
813.697	70.74
814.006	70.54
814.315	71.02
814.624	71.08
814.933	71.53
815.242	72.49
815.551	72.55
815.86	72.8
816.169	73.35
816.478	73.93
816.786	73.4
817.095	73.83
817.404	73.59
817.712	73.74
818.021	73.04
818.33	72.58
818.638	72.1
818.947	71.95
819.255	71.66
819.563	71.11
819.872	69.86
820.18	69.68
820.488	69.71
820.796	69.48
821.105	69.71
821.413	69.56
821.721	69.29
822.029	69.42
822.337	69.04
822.645	68.87
822.953	68.8
823.26	68.81
823.568	68.54
823.876	68.77
824.184	68.97
824.491	68.97
824.799	68.97
825.107	68.82
825.414	68.62
825.722	68.68
826.029	68.82
826.337	69.42
826.644	69.42
826.951	69.32
827.259	69.55
827.566	69.17
827.873	69.4
828.18	69.58
828.488	69.52
828.795	70.05
829.102	70.23
829.409	70.54
829.716	70.66
830.023	71.13
830.329	71.28
830.636	70.97
830.943	71.34
831.25	71.25
831.557	72.32
831.863	72.53
832.17	72.37
832.476	71.94
832.783	71.77
833.089	72.48
833.396	72.32
833.702	71.91
834.009	71.73
834.315	71.56
834.621	71.64
834.928	71.92
835.234	71.52
835.54	71.01
835.846	71.03
836.152	71.42
836.458	71.28
836.764	71.19
837.07	70.65
837.376	70.68
837.682	70.39
837.988	70.45
838.293	70.28
838.599	70.5
838.905	71.17
839.211	70.55
839.516	69.4
839.822	70.1
840.127	70.45
840.433	71.81
840.738	71.33
841.044	71.27
841.349	70.23
841.654	70.36
841.959	71.6
842.265	70.97
842.57	70.15
842.875	70.45
843.18	70.25
843.485	72.03
843.79	71.82
844.095	72.82
844.4	72.96
844.705	76.4
845.01	75.15
845.315	74.85
845.619	75
845.924	75.6
846.229	75.83
846.533	76.11
846.838	75.94
847.142	76.89
847.447	77.03
847.751	79.15
848.056	79.51
848.36	79.14
848.664	78.06
848.969	78.95
849.273	79.73
849.577	77.26
849.881	75.75
850.185	74.57
850.489	74.21
850.794	72.33
851.097	69.78
851.401	72.39
851.705	73.5
852.009	74
852.313	73.83
852.617	73.77
852.92	75.34
853.224	76.41
853.528	77.09
853.831	78.13
854.135	77.45
854.438	78.66
854.742	79.28
855.045	80.79
855.349	81.57
855.652	81.62
855.955	82.76
856.259	84.76
856.562	83.64
856.865	84.24
857.168	83.12
857.471	83.88
857.774	80.91
858.077	79.64
858.38	79.75
858.683	80.84
858.986	80.15
859.289	77.5
859.592	74.91
859.894	73.35
860.197	74.41
860.5	73.83
860.802	71.29
861.105	69.98
861.407	69.39
861.71	69.19
862.012	69.41
862.315	68.95
862.617	68.29
862.919	69.76
863.222	70.26
863.524	71.65
863.826	69.02
864.128	72.24
864.43	73.65
864.732	75.69
865.034	74.75
865.336	76.21
865.638	77.34
865.94	82.33
866.242	85.24
866.544	84.02
866.846	85.66
867.147	90.03
867.449	91.89
867.751	94.06
868.052	93.07
868.354	91.32
868.655	93.57
868.957	95.77
869.258	97.43
869.56	95.24
869.861	94.04
870.162	94.82
870.463	94.67
870.765	97.28
871.066	92.09
871.367	95.56
871.668	95.6
871.969	94.86
872.27	92.49
872.571	91.93
872.872	94.45
873.173	95.15
873.473	92.64
873.774	94.48
874.075	91
874.376	92.08
874.676	93.79
874.977	92.23
875.277	91.07
875.578	90.61
875.878	90.77
876.179	92.18
876.479	94.01
876.78	92.98
877.08	90.41
877.38	97.41
877.68	94.97
877.981	92.55
878.281	93.79
878.581	90.63
