Data from BU58131_Reflection_00002.txt Node
Date: Mon Nov 18 16:32:02 EST 2019
User: vgr7
Spectrometer: USB2G7710
Scans to average: 3
Trigger mode: 4
Integration Time (sec): 2.000000E-2
Electric dark correction enabled: true
Boxcar width: 10
XAxis mode: Wavelengths
Number of Pixels in Spectrum: 2048
>>>>>Begin Spectral Data<<<<<
177.721	-401.6
178.105	-49.25
178.488	147.38
178.871	-49.55
179.254	16.56
179.636	-471.43
180.019	-137.57
180.402	128.57
180.785	196.51
181.168	71.5
181.55	-53.91
181.933	20.49
182.316	29.3
182.698	41.35
183.081	73.46
183.463	65.58
183.846	44.78
184.228	49.77
184.611	70.39
184.993	155.88
185.376	114.43
185.758	106.07
186.14	114.89
186.522	166.88
186.904	133.6
187.287	117.38
187.669	160.28
188.051	280.42
188.433	509.58
188.815	607.15
189.197	1417.6
189.579	-497.69
189.961	-257.53
190.342	-314.44
190.724	-267.29
191.106	-308.51
191.488	-184.19
191.869	-173
192.251	-219.88
192.633	-190.44
193.014	-279.08
193.396	-205.79
193.777	-151.88
194.159	-159.96
194.54	-184.35
194.922	-187.33
195.303	-179.01
195.684	-248.3
196.065	-120.81
196.447	-128.09
196.828	-146.07
197.209	-157.09
197.59	-154.87
197.971	-150.34
198.352	-108.53
198.733	-111.53
199.114	-101.06
199.495	-118.93
199.876	-77.26
200.257	-71.69
200.638	-62.08
201.018	-62.03
201.399	-78.11
201.78	-93.26
202.16	-154.08
202.541	-180.61
202.922	-183.13
203.302	-213.77
203.683	-179.32
204.063	-220.43
204.444	-249.14
204.824	-270.66
205.204	-220.12
205.585	-348.02
205.965	-229.11
206.345	-316.74
206.725	-811.58
207.106	-1295.42
207.486	-4920.62
207.866	1014.35
208.246	17882.61
208.626	1535.15
209.006	-1103.08
209.386	1006.85
209.766	1147.78
210.145	-866.76
210.525	-152.35
210.905	-146.64
211.285	-130.03
211.664	-98
212.044	-121.9
212.424	-74.97
212.803	-85.07
213.183	-97.44
213.562	-71.59
213.942	-84.16
214.321	-67.49
214.701	-62.29
215.08	-65.51
215.459	-76.72
215.838	-56.23
216.218	-87.82
216.597	-84.67
216.976	-98.01
217.355	-77.92
217.734	-79.07
218.113	-61.05
218.492	-80.9
218.871	-85
219.25	-88.35
219.629	-94.48
220.008	-101.15
220.387	-116.8
220.766	-87.98
221.144	-78.92
221.523	-74.29
221.902	-69.31
222.28	-92.22
222.659	-84.77
223.037	-68.73
223.416	-57.19
223.794	-62.49
224.173	-50.67
224.551	-46.01
224.929	-34.72
225.308	-29.85
225.686	-24.73
226.064	-18.97
226.442	-13.36
226.821	-4.98
227.199	-4.96
227.577	-5.65
227.955	-3.17
228.333	-3.56
228.711	-3.63
229.089	-1.12
229.467	-5.13
229.845	-3.02
230.222	-1.17
230.6	-2.1
230.978	-3.76
231.356	-1.78
231.733	-0.2
232.111	1.73
232.488	1.54
232.866	0.21
233.243	1.69
233.621	1.99
233.998	2.11
234.376	1.31
234.753	0.7
235.13	1.61
235.508	2.09
235.885	1.33
236.262	1.69
236.639	0.63
237.016	0.29
237.393	3.16
237.77	3.22
238.147	4.24
238.524	3.94
238.901	4.94
239.278	5.15
239.655	5.17
240.032	4.63
240.409	4.82
240.785	5.51
241.162	5.23
241.539	4.98
241.915	4.29
242.292	4.14
242.668	4.18
243.045	4.23
243.421	3.89
243.798	3.78
244.174	3.82
244.551	3.85
244.927	3.79
245.303	3.84
245.679	3.72
246.056	3.43
246.432	3.66
246.808	3.47
247.184	3.03
247.56	3.02
247.936	2.81
248.312	2.72
248.688	2.64
249.064	2.71
249.44	2.76
249.815	2.8
250.191	2.91
250.567	2.97
250.943	2.79
251.318	3.01
251.694	3.19
252.069	2.87
252.445	3.06
252.82	3.21
253.196	3.05
253.571	3.3
253.947	3.28
254.322	3.48
254.697	3.5
255.073	3.63
255.448	3.43
255.823	3.7
256.198	3.79
256.573	3.68
256.948	3.77
257.323	3.86
257.698	3.99
258.073	3.89
258.448	3.77
258.823	3.8
259.198	3.69
259.573	3.67
259.948	3.88
260.322	3.94
260.697	3.84
261.072	3.82
261.446	3.73
261.821	3.71
262.195	3.74
262.57	3.66
262.944	3.6
263.319	3.63
263.693	3.68
264.067	3.93
264.442	4.04
264.816	3.9
265.19	3.84
265.564	3.73
265.938	3.63
266.313	3.5
266.687	3.49
267.061	3.47
267.435	3.45
267.809	3.45
268.183	3.36
268.556	3.31
268.93	3.42
269.304	3.38
269.678	3.47
270.051	3.26
270.425	3.24
270.799	3.31
271.172	3.35
271.546	3.26
271.919	3.01
272.293	2.99
272.666	2.96
273.04	2.97
273.413	3.01
273.787	3.21
274.16	3.28
274.533	3.17
274.906	3.27
275.279	3.2
275.653	3.2
276.026	3.2
276.399	3.17
276.772	3.14
277.145	3.04
277.518	3.18
277.891	3.23
278.263	3.28
278.636	3.15
279.009	3.07
279.382	3.09
279.755	3.1
280.127	3.21
280.5	3.41
280.872	3.54
281.245	3.44
281.617	3.52
281.99	3.68
282.362	3.81
282.735	3.74
283.107	3.71
283.479	3.67
283.852	3.64
284.224	3.61
284.596	3.47
284.968	3.71
285.34	3.82
285.713	3.75
286.085	3.86
286.457	4.1
286.829	4.11
287.201	4.1
287.572	4.06
287.944	4.09
288.316	3.98
288.688	3.86
289.06	3.9
289.431	3.81
289.803	3.73
290.175	3.7
290.546	3.88
290.918	4.01
291.289	4.01
291.661	4.04
292.032	4.17
292.403	4.25
292.775	4.12
293.146	3.94
293.517	3.97
293.889	4.02
294.26	3.91
294.631	3.96
295.002	3.86
295.373	3.91
295.744	3.86
296.115	3.95
296.486	3.95
296.857	3.97
297.228	4.01
297.599	3.98
297.97	3.97
298.34	3.87
298.711	3.86
299.082	3.89
299.452	3.89
299.823	3.98
300.194	4.03
300.564	4.01
300.935	4.05
301.305	4.1
301.676	4.11
302.046	4.17
302.416	4.26
302.787	4.3
303.157	4.3
303.527	4.14
303.897	4.18
304.267	4.29
304.637	4.28
305.008	4.22
305.378	4.42
305.748	4.51
306.117	4.46
306.487	4.43
306.857	4.47
307.227	4.55
307.597	4.5
307.967	4.51
308.336	4.42
308.706	4.42
309.076	4.42
309.445	4.32
309.815	4.26
310.184	4.32
310.554	4.43
310.923	4.48
311.293	4.63
311.662	4.61
312.031	4.58
312.401	4.61
312.77	4.73
313.139	4.67
313.508	4.64
313.877	4.74
314.246	4.77
314.616	4.72
314.985	4.65
315.353	4.65
315.722	4.63
316.091	4.76
316.46	4.7
316.829	4.75
317.198	4.79
317.567	4.78
317.935	4.65
318.304	4.52
318.672	4.61
319.041	4.63
319.41	4.66
319.778	4.67
320.147	4.61
320.515	4.51
320.883	4.44
321.252	4.43
321.62	4.27
321.988	4.18
322.357	4.24
322.725	4.18
323.093	4.19
323.461	4.08
323.829	4.06
324.197	4.17
324.565	4.12
324.933	4.13
325.301	4.19
325.669	4.26
326.037	4.41
326.405	4.31
326.772	4.28
327.14	4.27
327.508	4.24
327.875	4.29
328.243	4.3
328.61	4.37
328.978	4.39
329.346	4.62
329.713	4.68
330.08	4.67
330.448	4.67
330.815	4.65
331.182	4.73
331.55	4.82
331.917	4.67
332.284	4.74
332.651	4.69
333.018	4.65
333.385	4.52
333.752	4.56
334.119	4.58
334.486	4.49
334.853	4.39
335.22	4.35
335.587	4.41
335.954	4.39
336.32	4.37
336.687	4.41
337.054	4.15
337.42	4.17
337.787	4.13
338.153	4.12
338.52	4.22
338.886	4.14
339.253	3.98
339.619	3.93
339.986	3.77
340.352	3.87
340.718	3.92
341.084	3.91
341.451	3.8
341.817	3.78
342.183	3.91
342.549	3.91
342.915	4.01
343.281	3.91
343.647	3.87
344.013	3.84
344.379	3.71
344.745	3.79
345.11	3.79
345.476	3.8
345.842	3.8
346.208	3.69
346.573	3.74
346.939	3.93
347.304	3.93
347.67	4
348.035	3.87
348.401	3.87
348.766	3.89
349.132	3.95
349.497	3.91
349.862	3.88
350.228	3.93
350.593	3.88
350.958	3.91
351.323	4.01
351.688	4.03
352.053	4.16
352.418	4.17
352.783	4.19
353.148	4.16
353.513	4.2
353.878	4.16
354.243	4.22
354.608	4.21
354.972	4.33
355.337	4.42
355.702	4.52
356.066	4.55
356.431	4.52
356.795	4.46
357.16	4.44
357.524	4.4
357.889	4.39
358.253	4.4
358.618	4.4
358.982	4.29
359.346	4.23
359.71	4.22
360.075	4.22
360.439	4.22
360.803	4.23
361.167	4.18
361.531	4.19
361.895	4.13
362.259	4.08
362.623	4.03
362.987	4.01
363.351	4.02
363.714	3.99
364.078	3.99
364.442	4.01
364.806	4.11
365.169	4.12
365.533	4.08
365.896	4.08
366.26	4.08
366.623	4.07
366.987	4.06
367.35	4.03
367.714	4.1
368.077	4.07
368.44	4.07
368.803	4.1
369.167	4.12
369.53	4.04
369.893	4.04
370.256	4
370.619	4
370.982	3.91
371.345	3.86
371.708	3.91
372.071	3.92
372.434	3.88
372.797	3.9
373.159	3.89
373.522	3.95
373.885	3.98
374.247	4.03
374.61	4.11
374.973	4.06
375.335	3.95
375.698	3.99
376.06	3.96
376.423	4
376.785	4.05
377.147	4.11
377.51	4.08
377.872	4.18
378.234	4.15
378.596	4.15
378.958	4.16
379.321	4.16
379.683	4.1
380.045	4.07
380.407	4.04
380.769	4.07
381.13	3.98
381.492	3.91
381.854	3.87
382.216	3.83
382.578	3.84
382.939	3.88
383.301	3.84
383.663	3.8
384.024	3.73
384.386	3.67
384.747	3.71
385.109	3.7
385.47	3.65
385.832	3.62
386.193	3.65
386.554	3.65
386.916	3.66
387.277	3.72
387.638	3.72
387.999	3.69
388.36	3.71
388.721	3.75
389.082	3.78
389.443	3.79
389.804	3.76
390.165	3.77
390.526	3.81
390.887	3.83
391.248	3.86
391.609	3.89
391.969	3.9
392.33	3.84
392.691	3.87
393.051	3.85
393.412	3.9
393.772	3.87
394.133	3.92
394.493	3.91
394.854	3.88
395.214	3.85
395.574	3.87
395.935	3.84
396.295	3.81
396.655	3.82
397.015	3.81
397.376	3.84
397.736	3.85
398.096	3.84
398.456	3.84
398.816	3.85
399.176	3.81
399.535	3.84
399.895	3.87
400.255	3.87
400.615	3.94
400.975	3.92
401.334	3.91
401.694	3.88
402.054	3.85
402.413	3.88
402.773	3.9
403.132	3.9
403.492	3.91
403.851	3.91
404.211	3.9
404.57	3.9
404.929	3.88
405.288	3.88
405.648	3.87
406.007	3.88
406.366	3.87
406.725	3.94
407.084	3.91
407.443	3.91
407.802	3.92
408.161	3.87
408.52	3.83
408.879	3.83
409.238	3.81
409.596	3.84
409.955	3.81
410.314	3.83
410.673	3.83
411.031	3.84
411.39	3.82
411.748	3.83
412.107	3.85
412.465	3.86
412.824	3.83
413.182	3.8
413.54	3.78
413.899	3.78
414.257	3.77
414.615	3.78
414.974	3.77
415.332	3.71
415.69	3.69
416.048	3.71
416.406	3.73
416.764	3.72
417.122	3.72
417.48	3.72
417.838	3.72
418.195	3.72
418.553	3.72
418.911	3.74
419.269	3.74
419.626	3.74
419.984	3.73
420.342	3.75
420.699	3.77
421.057	3.77
421.414	3.76
421.772	3.76
422.129	3.76
422.486	3.77
422.844	3.79
423.201	3.79
423.558	3.79
423.915	3.8
424.273	3.81
424.63	3.81
424.987	3.82
425.344	3.81
425.701	3.81
426.058	3.82
426.415	3.81
426.772	3.79
427.128	3.79
427.485	3.78
427.842	3.77
428.199	3.75
428.555	3.75
428.912	3.76
429.269	3.77
429.625	3.77
429.982	3.75
430.338	3.76
430.695	3.77
431.051	3.75
431.407	3.71
431.764	3.7
432.12	3.71
432.476	3.7
432.832	3.7
433.189	3.69
433.545	3.68
433.901	3.68
434.257	3.69
434.613	3.68
434.969	3.7
435.325	3.72
435.681	3.72
436.036	3.7
436.392	3.69
436.748	3.66
437.104	3.65
437.459	3.67
437.815	3.65
438.171	3.66
438.526	3.67
438.882	3.67
439.237	3.67
439.593	3.67
439.948	3.67
440.304	3.65
440.659	3.65
441.014	3.66
441.369	3.64
441.725	3.64
442.08	3.64
442.435	3.62
442.79	3.6
443.145	3.6
443.5	3.61
443.855	3.6
444.21	3.61
444.565	3.62
444.92	3.61
445.275	3.6
445.629	3.6
445.984	3.6
446.339	3.61
446.693	3.6
447.048	3.58
447.403	3.59
447.757	3.6
448.112	3.59
448.466	3.56
448.82	3.57
449.175	3.58
449.529	3.57
449.883	3.56
450.238	3.56
450.592	3.57
450.946	3.54
451.3	3.53
451.654	3.52
452.008	3.51
452.362	3.49
452.716	3.5
453.07	3.49
453.424	3.49
453.778	3.47
454.132	3.47
454.486	3.48
454.839	3.47
455.193	3.46
455.547	3.46
455.9	3.46
456.254	3.47
456.607	3.46
456.961	3.47
457.314	3.49
457.668	3.5
458.021	3.47
458.375	3.5
458.728	3.5
459.081	3.51
459.434	3.49
459.787	3.51
460.141	3.51
460.494	3.51
460.847	3.51
461.2	3.51
461.553	3.52
461.906	3.52
462.259	3.54
462.611	3.55
462.964	3.55
463.317	3.56
463.67	3.57
464.022	3.58
464.375	3.57
464.728	3.58
465.08	3.59
465.433	3.61
465.785	3.6
466.138	3.62
466.49	3.63
466.843	3.64
467.195	3.65
467.547	3.66
467.899	3.65
468.252	3.67
468.604	3.69
468.956	3.66
469.308	3.64
469.66	3.64
470.012	3.63
470.364	3.67
470.716	3.67
471.068	3.65
471.42	3.64
471.772	3.66
472.123	3.68
472.475	3.66
472.827	3.64
473.178	3.64
473.53	3.63
473.882	3.65
474.233	3.65
474.585	3.62
474.936	3.61
475.288	3.62
475.639	3.6
475.99	3.6
476.342	3.61
476.693	3.64
477.044	3.64
477.395	3.65
477.746	3.63
478.097	3.61
478.448	3.61
478.8	3.62
479.15	3.61
479.501	3.63
479.852	3.64
480.203	3.66
480.554	3.68
480.905	3.68
481.255	3.69
481.606	3.71
481.957	3.72
482.307	3.73
482.658	3.73
483.009	3.75
483.359	3.75
483.709	3.76
484.06	3.76
484.41	3.75
484.761	3.76
485.111	3.76
485.461	3.78
485.811	3.78
486.162	3.78
486.512	3.79
486.862	3.78
487.212	3.79
487.562	3.79
487.912	3.78
488.262	3.78
488.612	3.78
488.961	3.77
489.311	3.77
489.661	3.77
490.011	3.77
490.36	3.76
490.71	3.76
491.06	3.76
491.409	3.77
491.759	3.77
492.108	3.75
492.458	3.76
492.807	3.75
493.157	3.76
493.506	3.78
493.855	3.77
494.204	3.77
494.554	3.77
494.903	3.75
495.252	3.76
495.601	3.79
495.95	3.8
496.299	3.8
496.648	3.78
496.997	3.79
497.346	3.78
497.695	3.8
498.043	3.79
498.392	3.79
498.741	3.79
499.09	3.78
499.438	3.8
499.787	3.82
500.135	3.84
500.484	3.83
500.832	3.83
501.181	3.83
501.529	3.83
501.878	3.83
502.226	3.87
502.574	3.86
502.923	3.85
503.271	3.85
503.619	3.88
503.967	3.89
504.315	3.89
504.663	3.91
505.011	3.91
505.359	3.91
505.707	3.94
506.055	3.92
506.403	3.94
506.751	3.97
507.098	3.97
507.446	3.97
507.794	3.97
508.141	3.97
508.489	3.98
508.837	3.99
509.184	4.01
509.531	4
509.879	4.02
510.226	4.03
510.574	4.03
510.921	4.05
511.268	4.05
511.616	4.08
511.963	4.1
512.31	4.11
512.657	4.12
513.004	4.13
513.351	4.17
513.698	4.18
514.045	4.17
514.392	4.15
514.739	4.18
515.086	4.19
515.432	4.2
515.779	4.2
516.126	4.25
516.473	4.27
516.819	4.28
517.166	4.27
517.512	4.29
517.859	4.29
518.205	4.27
518.552	4.29
518.898	4.28
519.245	4.27
519.591	4.27
519.937	4.29
520.283	4.28
520.629	4.27
520.976	4.29
521.322	4.3
521.668	4.32
522.014	4.33
522.36	4.32
522.706	4.32
523.052	4.33
523.398	4.33
523.743	4.32
524.089	4.33
524.435	4.33
524.781	4.33
525.126	4.33
525.472	4.35
525.817	4.35
526.163	4.38
526.509	4.38
526.854	4.38
527.199	4.38
527.545	4.39
527.89	4.4
528.235	4.39
528.581	4.39
528.926	4.39
529.271	4.39
529.616	4.4
529.961	4.41
530.306	4.42
530.651	4.42
530.996	4.42
531.341	4.42
531.686	4.44
532.031	4.44
532.376	4.46
532.721	4.46
533.065	4.47
533.41	4.48
533.755	4.49
534.099	4.5
534.444	4.5
534.788	4.5
535.133	4.51
535.477	4.52
535.822	4.52
536.166	4.52
536.51	4.51
536.855	4.51
537.199	4.52
537.543	4.53
537.887	4.53
538.231	4.54
538.576	4.56
538.92	4.54
539.264	4.55
539.608	4.54
539.951	4.54
540.295	4.54
540.639	4.55
540.983	4.53
541.327	4.55
541.671	4.56
542.014	4.56
542.358	4.55
542.701	4.55
543.045	4.55
543.389	4.57
543.732	4.59
544.075	4.6
544.419	4.6
544.762	4.59
545.105	4.6
545.449	4.6
545.792	4.59
546.135	4.62
546.478	4.62
546.821	4.62
547.165	4.62
547.508	4.61
547.851	4.59
548.194	4.6
548.536	4.58
548.879	4.57
549.222	4.58
549.565	4.57
549.908	4.58
550.25	4.61
550.593	4.61
550.936	4.61
551.278	4.58
551.621	4.6
551.963	4.6
552.306	4.57
552.648	4.59
552.991	4.6
553.333	4.58
553.675	4.59
554.017	4.59
554.36	4.6
554.702	4.6
555.044	4.6
555.386	4.61
555.728	4.6
556.07	4.62
556.412	4.63
556.754	4.63
557.096	4.61
557.438	4.6
557.78	4.62
558.121	4.63
558.463	4.63
558.805	4.64
559.147	4.65
559.488	4.66
559.83	4.64
560.171	4.62
560.513	4.62
560.854	4.61
561.196	4.63
561.537	4.61
561.878	4.62
562.22	4.65
562.561	4.65
562.902	4.64
563.243	4.63
563.584	4.63
563.925	4.62
564.266	4.62
564.607	4.61
564.948	4.62
565.289	4.61
565.63	4.64
565.971	4.61
566.312	4.6
566.653	4.6
566.993	4.63
567.334	4.65
567.675	4.67
568.015	4.68
568.356	4.66
568.696	4.68
569.037	4.66
569.377	4.68
569.718	4.7
570.058	4.72
570.398	4.7
570.739	4.71
571.079	4.72
571.419	4.72
571.759	4.75
572.099	4.75
572.439	4.74
572.779	4.74
573.119	4.76
573.459	4.77
573.799	4.81
574.139	4.8
574.479	4.76
574.819	4.73
575.158	4.73
575.498	4.75
575.838	4.77
576.177	4.77
576.517	4.75
576.856	4.71
577.196	4.71
577.535	4.71
577.875	4.7
578.214	4.71
578.553	4.74
578.893	4.71
579.232	4.68
579.571	4.72
579.91	4.68
580.25	4.67
580.589	4.67
580.928	4.64
581.267	4.65
581.606	4.65
581.945	4.65
582.283	4.64
582.622	4.63
582.961	4.58
583.3	4.61
583.639	4.67
583.977	4.7
584.316	4.7
584.654	4.73
584.993	4.72
585.332	4.74
585.67	4.74
586.008	4.77
586.347	4.8
586.685	4.78
587.024	4.79
587.362	4.83
587.7	4.8
588.038	4.82
588.376	4.8
588.715	4.85
589.053	4.91
589.391	4.88
589.729	4.89
590.067	4.9
590.404	4.9
590.742	4.87
591.08	4.85
591.418	4.86
591.756	4.87
592.093	4.92
592.431	4.87
592.769	4.84
593.106	4.81
593.444	4.76
593.781	4.76
594.119	4.78
594.456	4.75
594.793	4.76
595.131	4.7
595.468	4.71
595.805	4.69
596.143	4.68
596.48	4.75
596.817	4.73
597.154	4.72
597.491	4.67
597.828	4.69
598.165	4.67
598.502	4.65
598.839	4.64
599.176	4.62
599.512	4.62
599.849	4.62
600.186	4.64
600.523	4.64
600.859	4.64
601.196	4.63
601.532	4.65
601.869	4.63
602.205	4.66
602.542	4.68
602.878	4.7
603.215	4.68
603.551	4.64
603.887	4.68
604.223	4.66
604.56	4.7
604.896	4.74
605.232	4.76
605.568	4.79
605.904	4.78
606.24	4.81
606.576	4.81
606.912	4.83
607.248	4.81
607.583	4.83
607.919	4.85
608.255	4.84
608.591	4.86
608.926	4.86
609.262	4.88
609.597	4.9
609.933	4.92
610.268	4.91
610.604	4.94
610.939	4.93
611.275	4.97
611.61	4.97
611.945	4.95
612.281	4.94
612.616	4.9
612.951	4.89
613.286	4.87
613.621	4.9
613.956	4.88
614.291	4.89
614.626	4.86
614.961	4.84
615.296	4.77
615.631	4.74
615.966	4.74
616.3	4.76
616.635	4.73
616.97	4.69
617.304	4.68
617.639	4.63
617.973	4.59
618.308	4.57
618.642	4.57
618.977	4.51
619.311	4.5
619.646	4.52
619.98	4.52
620.314	4.56
620.648	4.61
620.983	4.65
621.317	4.68
621.651	4.74
621.985	4.8
622.319	4.92
622.653	4.92
622.987	4.94
623.321	4.9
623.655	4.88
623.988	4.91
624.322	4.94
624.656	5.02
624.99	5.02
625.323	5.03
625.657	5
625.99	5
626.324	5.04
626.657	5.04
626.991	5.01
627.324	5
627.658	4.95
627.991	4.96
628.324	4.95
628.657	4.92
628.991	4.87
629.324	4.82
629.657	4.84
629.99	4.8
630.323	4.81
630.656	4.85
630.989	4.84
631.322	4.85
631.655	4.81
631.987	4.87
632.32	4.94
632.653	4.96
632.986	5.02
633.318	5
633.651	5
633.984	5.03
634.316	5.02
634.649	5.02
634.981	4.95
635.313	4.99
635.646	5
635.978	5.01
636.31	5.02
636.643	4.98
636.975	4.97
637.307	4.96
637.639	4.94
637.971	4.93
638.303	4.87
638.635	4.81
638.967	4.8
639.299	4.78
639.631	4.81
639.963	4.73
640.295	4.74
640.626	4.8
640.958	4.89
641.29	4.87
641.621	4.87
641.953	4.91
642.285	4.9
642.616	4.89
642.948	4.89
643.279	4.9
643.61	4.94
643.942	5.04
644.273	5.05
644.604	5.03
644.936	5.01
645.267	5.07
645.598	5.12
645.929	5.09
646.26	5.08
646.591	5.06
646.922	5.04
647.253	5.07
647.584	5.03
647.915	4.95
648.245	4.94
648.576	4.93
648.907	4.96
649.238	4.95
649.568	4.95
649.899	4.99
650.229	4.93
650.56	4.94
650.89	4.88
651.221	4.84
651.551	4.86
651.882	4.87
652.212	4.84
652.542	4.84
652.872	4.87
653.203	4.85
653.533	4.86
653.863	4.87
654.193	4.86
654.523	4.9
654.853	4.88
655.183	4.91
655.513	4.93
655.843	4.87
656.172	4.83
656.502	4.84
656.832	4.85
657.162	4.92
657.491	4.95
657.821	4.98
658.15	5.01
658.48	5
658.809	4.98
659.139	4.97
659.468	4.97
659.798	4.93
660.127	4.98
660.456	4.99
660.785	5.03
661.115	5.05
661.444	5.01
661.773	5.06
662.102	5.08
662.431	5.1
662.76	5.09
663.089	5.12
663.418	5.11
663.747	5.04
664.076	5
664.404	4.88
664.733	4.9
665.062	4.96
665.39	4.99
665.719	5
666.048	5.03
666.376	5.05
666.705	5
667.033	4.94
667.362	4.93
667.69	4.86
668.018	4.78
668.347	4.77
668.675	4.79
669.003	4.77
669.331	4.81
669.659	4.84
669.987	4.85
670.315	4.94
670.643	4.99
670.971	5.01
671.299	5.09
671.627	5.06
671.955	4.91
672.283	4.89
672.61	4.91
672.938	4.89
673.266	4.96
673.593	5.1
673.921	5.05
674.249	5.07
674.576	5.03
674.904	5.07
675.231	5.06
675.558	5
675.886	4.99
676.213	4.92
676.54	4.96
676.867	4.98
677.195	4.91
677.522	4.94
677.849	4.95
678.176	4.99
678.503	4.94
678.83	5.08
679.157	5.05
679.484	5.06
679.81	5.11
680.137	4.97
680.464	4.95
680.791	4.99
681.117	4.98
681.444	5.06
681.771	5.1
682.097	5.09
682.424	5.07
682.75	5.09
683.077	5.08
683.403	5.05
683.729	5.07
684.056	5.04
684.382	5
684.708	5.01
685.034	4.93
685.36	5.01
685.686	4.95
686.012	4.93
686.339	4.96
686.664	4.88
686.99	5
687.316	4.91
687.642	4.91
687.968	4.91
688.294	5.02
688.619	4.98
688.945	4.92
689.271	4.91
689.596	4.87
689.922	4.97
690.247	4.96
690.573	4.89
690.898	5.01
691.224	5.07
691.549	5.09
691.874	5.06
692.2	5.05
692.525	5.05
692.85	5.2
693.175	5.19
693.5	5.17
693.825	5.15
694.15	5.14
694.475	5.16
694.8	5.18
695.125	5.12
695.45	5.07
695.775	5.19
696.099	5.21
696.424	5.25
696.749	5.15
697.073	5.17
697.398	5.25
697.723	5.2
698.047	5.18
698.372	5.19
698.696	5.22
699.02	5.18
699.345	5.19
699.669	5.15
699.993	5.09
700.318	5.13
700.642	5.07
700.966	5.05
701.29	5.07
701.614	5.05
701.938	5.04
702.262	5.18
702.586	5.23
702.91	5.27
703.234	5.3
703.557	5.38
703.881	5.33
704.205	5.28
704.529	5.19
704.852	5.21
705.176	5.3
705.499	5.3
705.823	5.29
706.146	5.21
706.47	5.27
706.793	5.3
707.117	5.34
707.44	5.59
707.763	5.7
708.086	5.7
708.409	5.68
708.733	5.6
709.056	5.55
709.379	5.65
709.702	5.79
710.025	5.61
710.348	5.54
710.671	5.5
710.993	5.38
711.316	5.51
711.639	5.54
711.962	5.35
712.284	5.33
712.607	5.44
712.93	5.49
713.252	5.43
713.575	5.41
713.897	5.39
714.22	5.31
714.542	5.26
714.864	5.08
715.187	5.07
715.509	5.14
715.831	5.16
716.153	5
716.475	4.73
716.798	4.86
717.12	4.73
717.442	4.76
717.764	4.91
718.085	4.84
718.407	4.74
718.729	5.02
719.051	5.07
719.373	5.02
719.695	5.05
720.016	5.02
720.338	5.14
720.659	5.21
720.981	5.15
721.302	5.19
721.624	5.34
721.945	5.24
722.267	5.22
722.588	5.16
722.909	5.21
723.231	5.35
723.552	5.35
723.873	5.57
724.194	5.61
724.515	5.68
724.836	5.74
725.157	5.75
725.478	5.51
725.799	5.54
726.12	5.53
726.441	5.56
726.762	5.59
727.083	5.5
727.403	5.49
727.724	5.5
728.045	5.65
728.365	5.49
728.686	5.64
729.006	5.69
729.327	5.65
729.647	5.71
729.967	5.71
730.288	5.75
730.608	5.71
730.928	5.8
731.249	5.73
731.569	5.82
731.889	5.89
732.209	5.83
732.529	5.8
732.849	5.8
733.169	5.8
733.489	5.87
733.809	5.88
734.129	5.76
734.448	5.74
734.768	5.52
735.088	5.89
735.408	5.89
735.727	5.82
736.047	5.9
736.366	5.79
736.686	5.79
737.005	5.68
737.325	5.66
737.644	5.65
737.963	5.73
738.283	5.5
738.602	5.36
738.921	5.41
739.24	5.36
739.56	5.19
739.879	5.19
740.198	5.13
740.517	5.2
740.836	5.4
741.155	5.43
741.473	5.6
741.792	5.35
742.111	5.34
742.43	5.35
742.748	5.34
743.067	5.43
743.386	5.42
743.704	5.5
744.023	5.4
744.341	5.33
744.66	5.31
744.978	5.34
745.297	5.44
745.615	5.71
745.933	5.91
746.252	6.24
746.57	6.24
746.888	6
747.206	5.71
747.524	5.5
747.842	5.5
748.16	5.54
748.478	5.5
748.796	5.66
749.114	6.1
749.432	6.06
749.749	5.99
750.067	5.86
750.385	5.93
750.703	5.97
751.02	5.91
751.338	5.79
751.655	5.7
751.973	5.48
752.29	5.29
752.608	5.14
752.925	4.93
753.242	4.89
753.56	5.04
753.877	5.18
754.194	5.17
754.511	5.32
754.828	4.81
755.145	4.74
755.462	4.61
755.779	4.05
756.096	4.01
756.413	4.03
756.73	4.34
757.047	4.25
757.364	4.45
757.68	4.49
757.997	4.36
758.314	4.21
758.63	4.38
758.947	4.29
759.264	4.07
759.58	4.2
759.896	4.47
760.213	4.58
760.529	4.63
760.846	4.74
761.162	4.8
761.478	5.12
761.794	5.13
762.11	5.04
762.426	5.14
762.743	5.22
763.059	5.27
763.375	5.19
763.69	5.22
764.006	5.16
764.322	5.26
764.638	5.26
764.954	5.58
765.27	5.55
765.585	5.52
765.901	5.81
766.216	5.74
766.532	5.63
766.848	5.57
767.163	5.61
767.478	5.65
767.794	5.38
768.109	5.26
768.424	5.43
768.74	5.49
769.055	5.69
769.37	5.68
769.685	5.42
770	5.6
770.315	5.6
770.63	5.23
770.945	5.15
771.26	5.52
771.575	5.55
771.89	5.68
772.205	5.85
772.52	5.84
772.834	5.44
773.149	5.52
773.464	5.27
773.778	5.5
774.093	5.31
774.407	5.51
774.722	5.79
775.036	5.56
775.351	5.8
775.665	5.47
775.979	5.33
776.293	5.13
776.608	4.77
776.922	4.55
777.236	5.19
777.55	4.86
777.864	4.43
778.178	4.24
778.492	4.32
778.806	3.83
779.12	4.15
779.434	4.8
779.747	4.62
780.061	4.78
780.375	4.57
780.689	4.61
781.002	4.54
781.316	4.72
781.629	4.93
781.943	4.36
782.256	4.31
782.57	4.46
782.883	4.87
783.196	4.77
783.51	4.9
783.823	4.8
784.136	5.01
784.449	5.3
784.762	5.23
785.075	4.82
785.388	5.19
785.701	4.66
786.014	4.24
786.327	4.2
786.64	4.41
786.953	4.37
787.266	4.43
787.578	4.42
787.891	4.51
788.204	4.65
788.516	5.3
788.829	5.24
789.141	5.4
789.454	5.47
789.766	5.74
790.079	5.92
790.391	6.04
790.703	6.4
791.016	6.39
791.328	6.66
791.64	7.18
791.952	7.29
792.264	7.09
792.576	7.15
792.888	7.09
793.2	7.49
793.512	7.63
793.824	7.64
794.136	7.66
794.448	7.5
794.76	7.48
795.071	7.42
795.383	7.52
795.695	7.54
796.006	7.47
796.318	7.35
796.629	6.84
796.941	6.32
797.252	6.4
797.564	6.39
797.875	6.47
798.186	5.68
798.497	5.69
798.809	5.78
799.12	5.81
799.431	5.8
799.742	5.54
800.053	5.72
800.364	5.85
800.675	5.77
800.986	5.31
801.297	4.64
801.608	4.32
801.918	4.4
802.229	4.05
802.54	4.12
802.851	4.24
803.161	4.64
803.472	4.89
803.782	4.22
804.093	4.44
804.403	4.08
804.714	4.95
805.024	5.05
805.334	5.71
805.645	6.03
805.955	6.38
806.265	6.21
806.575	5.65
806.885	5.79
807.195	5.6
807.505	6.33
807.815	6.52
808.125	6.38
808.435	6.53
808.745	6.53
809.055	6.27
809.365	6.2
809.674	6.23
809.984	6.77
810.294	7.34
810.603	7.13
810.913	7.32
811.222	6.7
811.532	6.77
811.841	6.46
812.151	6.98
812.46	6.22
812.769	6.53
813.079	7.19
813.388	6.94
813.697	7.58
814.006	7.28
814.315	7.66
814.624	8.29
814.933	8.29
815.242	8.38
815.551	8.83
815.86	8.78
816.169	8.92
816.478	8.17
816.786	8.19
817.095	7.83
817.404	7.95
817.712	8.09
818.021	8.08
818.33	7.87
818.638	7.29
818.947	7.89
819.255	7.86
819.563	7.59
819.872	7.75
820.18	7.74
820.488	7.63
820.796	7.56
821.105	7.43
821.413	7.6
821.721	7.56
822.029	7.49
822.337	7.46
822.645	7.55
822.953	7.72
823.26	7.71
823.568	7.69
823.876	7.64
824.184	7.64
824.491	7.65
824.799	7.75
825.107	7.77
825.414	7.71
825.722	7.67
826.029	7.78
826.337	7.77
826.644	7.75
826.951	7.69
827.259	7.62
827.566	7.48
827.873	7.3
828.18	7.3
828.488	7.17
828.795	7.22
829.102	6.94
829.409	6.8
829.716	6.71
830.023	6.64
830.329	6.56
830.636	6.85
830.943	6.97
831.25	6.72
831.557	6.82
831.863	6.97
832.17	6.92
832.476	6.57
832.783	6.92
833.089	7.07
833.396	7.06
833.702	7.35
834.009	7.38
834.315	7.64
834.621	7.94
834.928	8.41
835.234	8.96
835.54	9.13
835.846	9.29
836.152	9.4
836.458	9.28
836.764	9.2
837.07	8.58
837.376	7.63
837.682	7.95
837.988	7.54
838.293	7.24
838.599	7.16
838.905	7.2
839.211	5.82
839.516	5.5
839.822	6.69
840.127	5.87
840.433	6.32
840.738	5.81
841.044	5.24
841.349	4.89
841.654	3.26
841.959	3.02
842.265	2.73
842.57	2.81
842.875	3.69
843.18	4.26
843.485	4.79
843.79	6.37
844.095	5.15
844.4	5.05
844.705	4.58
845.01	4.42
845.315	4.77
845.619	4.64
845.924	4.52
846.229	2.07
846.533	5.04
846.838	4.95
847.142	4.61
847.447	3.92
847.751	3.88
848.056	3.52
848.36	3.98
848.664	2.95
848.969	2.84
849.273	1.55
849.577	1.17
849.881	1.08
850.185	1.45
850.489	2.47
850.794	3.31
851.097	3.62
851.401	3.83
851.705	2.92
852.009	5.35
852.313	4.57
852.617	4.63
852.92	2.67
853.224	2.31
853.528	2.61
853.831	4.24
854.135	3.29
854.438	3.57
854.742	3.92
855.045	4.33
855.349	4.93
855.652	4
855.955	4.83
856.259	5.43
856.562	3.14
856.865	2.92
857.168	3.05
857.471	3.64
857.774	1.74
858.077	3.01
858.38	3.78
858.683	3.57
858.986	6.05
859.289	6.74
859.592	7.35
859.894	6.38
860.197	4.43
860.5	7.77
860.802	8.71
861.105	7.84
861.407	7.98
861.71	7.1
862.012	9.54
862.315	7.36
862.617	5.57
862.919	6.84
863.222	7.7
863.524	7.24
863.826	7.24
864.128	8.92
864.43	9.5
864.732	8.08
865.034	7.65
865.336	5.3
865.638	4.42
865.94	2.65
866.242	2.9
866.544	4.42
866.846	0.87
867.147	-0.44
867.449	-0.03
867.751	-0.89
868.052	0.57
868.354	1.21
868.655	4.02
868.957	6.42
869.258	7.08
869.56	9.16
869.861	8.49
870.162	8.49
870.463	10.33
870.765	8.34
871.066	8.07
871.367	8.8
871.668	8.23
871.969	8.78
872.27	10.51
872.571	11.43
872.872	10.27
873.173	10.62
873.473	12.16
873.774	14.06
874.075	14.82
874.376	9.83
874.676	9.85
874.977	4.84
875.277	4.29
875.578	3.63
875.878	0.78
876.179	1.89
876.479	1.89
876.78	-0.39
877.08	0.39
877.38	0.08
877.68	0.4
877.981	1.04
878.281	-0.66
878.581	-0.48
