Data from BU58137_Reflection_00002.txt Node
Date: Mon Nov 18 16:39:32 EST 2019
User: vgr7
Spectrometer: USB2G7710
Scans to average: 3
Trigger mode: 4
Integration Time (sec): 2.000000E-2
Electric dark correction enabled: true
Boxcar width: 10
XAxis mode: Wavelengths
Number of Pixels in Spectrum: 2048
>>>>>Begin Spectral Data<<<<<
177.721	-42.78
178.105	45.39
178.488	36.09
178.871	93.9
179.254	135.99
179.636	59.18
180.019	-33.51
180.402	95.45
180.785	-188.81
181.168	69.33
181.55	-103.21
181.933	101.84
182.316	112.23
182.698	132.14
183.081	64.77
183.463	19.05
183.846	-9.05
184.228	-53.15
184.611	-38.21
184.993	-137.65
185.376	-99.46
185.758	-111.62
186.14	6.06
186.522	-47.17
186.904	-247.31
187.287	-26.88
187.669	208.11
188.051	-73.36
188.433	169.48
188.815	63.03
189.197	62.7
189.579	90.42
189.961	11.79
190.342	35.48
190.724	104.35
191.106	17.97
191.488	-2.91
191.869	-94.89
192.251	-83.02
192.633	-92.15
193.014	-100.35
193.396	-119.81
193.777	-106.97
194.159	-96.19
194.54	-115.02
194.922	-90.07
195.303	-81.55
195.684	-85.05
196.065	-53.32
196.447	-61.81
196.828	-61.94
197.209	-47.43
197.59	-65.66
197.971	-48.53
198.352	-63.01
198.733	-77.2
199.114	-61.78
199.495	-65.76
199.876	-37.34
200.257	-19.85
200.638	-20.62
201.018	-16.13
201.399	-14.96
201.78	-0.6
202.16	-4.55
202.541	-12.62
202.922	-34.95
203.302	-34.35
203.683	-17.01
204.063	-29.93
204.444	-52.18
204.824	-49.48
205.204	-84.9
205.585	-54.38
205.965	-58.74
206.345	-65.16
206.725	-57.06
207.106	-85.49
207.486	-106.31
207.866	-94.33
208.246	-92.11
208.626	-73.62
209.006	-72.11
209.386	-97.43
209.766	-117.53
210.145	-89.77
210.525	-89.34
210.905	-61.98
211.285	-57.03
211.664	-70.19
212.044	-57.1
212.424	-43.62
212.803	-50.69
213.183	-42.06
213.562	-42.54
213.942	-39.08
214.321	-34.27
214.701	-44.02
215.08	-38.68
215.459	-33.11
215.838	-28.97
216.218	-28.78
216.597	-22.89
216.976	-15.08
217.355	-7.5
217.734	0.3
218.113	-7.94
218.492	26.51
218.871	3.82
219.25	7.06
219.629	-1.13
220.008	-14.49
220.387	0.84
220.766	17.09
221.144	3.74
221.523	-10.38
221.902	-8.99
222.28	-7.97
222.659	-1.31
223.037	10.18
223.416	2.98
223.794	-2.22
224.173	-2.62
224.551	-3.6
224.929	-7.59
225.308	-11.36
225.686	-11.1
226.064	-5.26
226.442	-9.08
226.821	-3.25
227.199	-7
227.577	-8.19
227.955	-8.36
228.333	-8.57
228.711	-5.83
229.089	-2.5
229.467	-1.14
229.845	-3.01
230.222	-2.4
230.6	-2.33
230.978	-4.87
231.356	-0.89
231.733	-2.05
232.111	-2.42
232.488	-2.7
232.866	-3.42
233.243	-2.5
233.621	-2.72
233.998	-1.91
234.376	0.09
234.753	0.4
235.13	0.95
235.508	2.88
235.885	2.39
236.262	0.85
236.639	1.22
237.016	1.39
237.393	1.49
237.77	3.02
238.147	2.93
238.524	2.54
238.901	3.97
239.278	3.84
239.655	4.4
240.032	4.84
240.409	4.07
240.785	4.57
241.162	4.83
241.539	5.55
241.915	5.18
242.292	4.51
242.668	4.14
243.045	4.43
243.421	3.95
243.798	4.1
244.174	4.36
244.551	3.99
244.927	3.72
245.303	3.91
245.679	3.77
246.056	3.8
246.432	4
246.808	3.97
247.184	3.74
247.56	3.48
247.936	3.24
248.312	3.31
248.688	3.37
249.064	3.31
249.44	2.87
249.815	2.99
250.191	3.23
250.567	3.28
250.943	3.05
251.318	3.19
251.694	3.05
252.069	2.96
252.445	3.07
252.82	3.06
253.196	3.03
253.571	2.97
253.947	3.15
254.322	3.28
254.697	2.83
255.073	2.76
255.448	3.04
255.823	3.28
256.198	3.53
256.573	3.88
256.948	4.09
257.323	4.34
257.698	4.37
258.073	4.41
258.448	4.3
258.823	4.29
259.198	4.07
259.573	4.06
259.948	4.07
260.322	4.15
260.697	4.25
261.072	4.16
261.446	4.3
261.821	4.14
262.195	4.09
262.57	4.11
262.944	4.22
263.319	4.16
263.693	4.17
264.067	4.19
264.442	3.84
264.816	3.76
265.19	3.74
265.564	3.61
265.938	3.52
266.313	3.5
266.687	3.57
267.061	3.8
267.435	3.86
267.809	3.78
268.183	3.77
268.556	3.7
268.93	3.64
269.304	3.49
269.678	3.53
270.051	3.38
270.425	3.45
270.799	3.49
271.172	3.36
271.546	3.33
271.919	3.13
272.293	3.22
272.666	3.42
273.04	3.47
273.413	3.45
273.787	3.33
274.16	3.46
274.533	3.51
274.906	3.28
275.279	3.33
275.653	3.37
276.026	3.19
276.399	3.22
276.772	3.24
277.145	3.22
277.518	3.1
277.891	3.31
278.263	3.24
278.636	3.09
279.009	3.28
279.382	3.4
279.755	3.46
280.127	3.64
280.5	3.68
280.872	3.62
281.245	3.62
281.617	3.81
281.99	3.75
282.362	3.72
282.735	3.65
283.107	3.53
283.479	3.58
283.852	3.73
284.224	3.69
284.596	3.7
284.968	3.83
285.34	3.94
285.713	3.78
286.085	3.84
286.457	4.01
286.829	4.01
287.201	3.92
287.572	3.99
287.944	3.81
288.316	3.7
288.688	3.73
289.06	3.7
289.431	3.67
289.803	3.71
290.175	3.78
290.546	4.04
290.918	4.14
291.289	4.12
291.661	4.08
292.032	4.16
292.403	4.16
292.775	4.12
293.146	4.12
293.517	4.29
293.889	4.41
294.26	4.37
294.631	4.44
295.002	4.39
295.373	4.33
295.744	4.34
296.115	4.31
296.486	4.29
296.857	4.41
297.228	4.35
297.599	4.42
297.97	4.4
298.34	4.38
298.711	4.52
299.082	4.48
299.452	4.47
299.823	4.5
300.194	4.58
300.564	4.56
300.935	4.65
301.305	4.53
301.676	4.5
302.046	4.43
302.416	4.4
302.787	4.47
303.157	4.51
303.527	4.6
303.897	4.58
304.267	4.65
304.637	4.68
305.008	4.73
305.378	4.66
305.748	4.6
306.117	4.59
306.487	4.54
306.857	4.64
307.227	4.71
307.597	4.52
307.967	4.43
308.336	4.34
308.706	4.41
309.076	4.44
309.445	4.36
309.815	4.48
310.184	4.47
310.554	4.47
310.923	4.5
311.293	4.47
311.662	4.41
312.031	4.27
312.401	4.2
312.77	4.26
313.139	4.32
313.508	4.31
313.877	4.27
314.246	4.24
314.616	4.28
314.985	4.21
315.353	4.36
315.722	4.5
316.091	4.52
316.46	4.29
316.829	4.39
317.198	4.46
317.567	4.51
317.935	4.5
318.304	4.55
318.672	4.43
319.041	4.47
319.41	4.51
319.778	4.63
320.147	4.79
320.515	4.73
320.883	4.44
321.252	4.65
321.62	4.63
321.988	4.61
322.357	4.51
322.725	4.62
323.093	4.56
323.461	4.4
323.829	4.46
324.197	4.49
324.565	4.44
324.933	4.42
325.301	4.36
325.669	4.39
326.037	4.36
326.405	4.41
326.772	4.52
327.14	4.67
327.508	4.64
327.875	4.39
328.243	4.52
328.61	4.59
328.978	4.43
329.346	4.49
329.713	4.33
330.08	4.32
330.448	4.14
330.815	4.05
331.182	4.16
331.55	4.18
331.917	4.17
332.284	4.27
332.651	4.23
333.018	4.13
333.385	4.1
333.752	4.21
334.119	4.25
334.486	4.17
334.853	4.09
335.22	3.99
335.587	4.06
335.954	3.87
336.32	4.08
336.687	4.19
337.054	4.2
337.42	4.28
337.787	4.26
338.153	4.42
338.52	4.51
338.886	4.41
339.253	4.34
339.619	4.47
339.986	4.4
340.352	4.55
340.718	4.59
341.084	4.58
341.451	4.54
341.817	4.54
342.183	4.38
342.549	4.29
342.915	4.38
343.281	4.49
343.647	4.5
344.013	4.53
344.379	4.42
344.745	4.38
345.11	4.33
345.476	4.38
345.842	4.31
346.208	4.3
346.573	4.39
346.939	4.48
347.304	4.29
347.67	4.15
348.035	4.08
348.401	4.02
348.766	3.97
349.132	3.93
349.497	3.93
349.862	4.08
350.228	4.2
350.593	4.15
350.958	4.08
351.323	4.15
351.688	3.93
352.053	3.96
352.418	4.09
352.783	4.2
353.148	4.15
353.513	4.3
353.878	4.37
354.243	4.39
354.608	4.31
354.972	4.41
355.337	4.52
355.702	4.53
356.066	4.7
356.431	4.75
356.795	4.78
357.16	4.79
357.524	4.65
357.889	4.56
358.253	4.6
358.618	4.54
358.982	4.54
359.346	4.55
359.71	4.6
360.075	4.46
360.439	4.48
360.803	4.44
361.167	4.28
361.531	4.2
361.895	4.22
362.259	4.26
362.623	4.27
362.987	4.24
363.351	4.25
363.714	4.18
364.078	4.19
364.442	4.16
364.806	4.14
365.169	4.19
365.533	4.2
365.896	4.18
366.26	4.21
366.623	4.22
366.987	4.28
367.35	4.25
367.714	4.37
368.077	4.29
368.44	4.35
368.803	4.45
369.167	4.48
369.53	4.4
369.893	4.4
370.256	4.41
370.619	4.47
370.982	4.39
371.345	4.34
371.708	4.36
372.071	4.34
372.434	4.33
372.797	4.34
373.159	4.36
373.522	4.41
373.885	4.44
374.247	4.42
374.61	4.4
374.973	4.35
375.335	4.32
375.698	4.34
376.06	4.29
376.423	4.26
376.785	4.28
377.147	4.29
377.51	4.27
377.872	4.28
378.234	4.23
378.596	4.28
378.958	4.28
379.321	4.27
379.683	4.32
380.045	4.33
380.407	4.31
380.769	4.34
381.13	4.28
381.492	4.28
381.854	4.31
382.216	4.32
382.578	4.35
382.939	4.32
383.301	4.31
383.663	4.29
384.024	4.27
384.386	4.26
384.747	4.28
385.109	4.33
385.47	4.3
385.832	4.34
386.193	4.36
386.554	4.35
386.916	4.32
387.277	4.31
387.638	4.34
387.999	4.35
388.36	4.34
388.721	4.39
389.082	4.38
389.443	4.34
389.804	4.33
390.165	4.32
390.526	4.34
390.887	4.35
391.248	4.41
391.609	4.45
391.969	4.45
392.33	4.41
392.691	4.36
393.051	4.37
393.412	4.34
393.772	4.3
394.133	4.33
394.493	4.35
394.854	4.33
395.214	4.3
395.574	4.31
395.935	4.29
396.295	4.3
396.655	4.29
397.015	4.32
397.376	4.35
397.736	4.34
398.096	4.37
398.456	4.37
398.816	4.37
399.176	4.34
399.535	4.33
399.895	4.34
400.255	4.39
400.615	4.39
400.975	4.38
401.334	4.39
401.694	4.36
402.054	4.34
402.413	4.32
402.773	4.31
403.132	4.3
403.492	4.33
403.851	4.31
404.211	4.31
404.57	4.28
404.929	4.26
405.288	4.28
405.648	4.27
406.007	4.28
406.366	4.27
406.725	4.31
407.084	4.32
407.443	4.33
407.802	4.34
408.161	4.35
408.52	4.36
408.879	4.38
409.238	4.42
409.596	4.41
409.955	4.45
410.314	4.44
410.673	4.44
411.031	4.43
411.39	4.44
411.748	4.45
412.107	4.47
412.465	4.47
412.824	4.46
413.182	4.42
413.54	4.42
413.899	4.42
414.257	4.41
414.615	4.41
414.974	4.43
415.332	4.41
415.69	4.4
416.048	4.38
416.406	4.37
416.764	4.35
417.122	4.33
417.48	4.32
417.838	4.35
418.195	4.35
418.553	4.33
418.911	4.32
419.269	4.33
419.626	4.32
419.984	4.3
420.342	4.33
420.699	4.35
421.057	4.35
421.414	4.34
421.772	4.33
422.129	4.34
422.486	4.32
422.844	4.33
423.201	4.33
423.558	4.35
423.915	4.36
424.273	4.37
424.63	4.39
424.987	4.4
425.344	4.39
425.701	4.41
426.058	4.4
426.415	4.42
426.772	4.42
427.128	4.43
427.485	4.45
427.842	4.45
428.199	4.42
428.555	4.43
428.912	4.44
429.269	4.46
429.625	4.44
429.982	4.45
430.338	4.44
430.695	4.42
431.051	4.39
431.407	4.38
431.764	4.38
432.12	4.37
432.476	4.36
432.832	4.36
433.189	4.36
433.545	4.38
433.901	4.37
434.257	4.37
434.613	4.38
434.969	4.39
435.325	4.36
435.681	4.39
436.036	4.38
436.392	4.38
436.748	4.37
437.104	4.37
437.459	4.37
437.815	4.38
438.171	4.4
438.526	4.43
438.882	4.41
439.237	4.4
439.593	4.4
439.948	4.41
440.304	4.41
440.659	4.41
441.014	4.4
441.369	4.4
441.725	4.41
442.08	4.4
442.435	4.38
442.79	4.39
443.145	4.38
443.5	4.4
443.855	4.4
444.21	4.41
444.565	4.41
444.92	4.43
445.275	4.4
445.629	4.4
445.984	4.39
446.339	4.4
446.693	4.4
447.048	4.4
447.403	4.39
447.757	4.39
448.112	4.37
448.466	4.36
448.82	4.35
449.175	4.34
449.529	4.35
449.883	4.35
450.238	4.35
450.592	4.35
450.946	4.31
451.3	4.29
451.654	4.29
452.008	4.29
452.362	4.25
452.716	4.25
453.07	4.26
453.424	4.26
453.778	4.24
454.132	4.24
454.486	4.24
454.839	4.27
455.193	4.28
455.547	4.29
455.9	4.32
456.254	4.34
456.607	4.33
456.961	4.33
457.314	4.34
457.668	4.33
458.021	4.31
458.375	4.33
458.728	4.35
459.081	4.35
459.434	4.36
459.787	4.38
460.141	4.39
460.494	4.4
460.847	4.43
461.2	4.44
461.553	4.44
461.906	4.46
462.259	4.43
462.611	4.45
462.964	4.44
463.317	4.43
463.67	4.42
464.022	4.42
464.375	4.41
464.728	4.41
465.08	4.41
465.433	4.43
465.785	4.42
466.138	4.42
466.49	4.42
466.843	4.4
467.195	4.4
467.547	4.42
467.899	4.4
468.252	4.4
468.604	4.4
468.956	4.4
469.308	4.4
469.66	4.4
470.012	4.38
470.364	4.4
470.716	4.42
471.068	4.43
471.42	4.43
471.772	4.45
472.123	4.47
472.475	4.49
472.827	4.5
473.178	4.51
473.53	4.52
473.882	4.53
474.233	4.54
474.585	4.54
474.936	4.52
475.288	4.52
475.639	4.5
475.99	4.49
476.342	4.49
476.693	4.47
477.044	4.49
477.395	4.52
477.746	4.52
478.097	4.51
478.448	4.52
478.8	4.53
479.15	4.49
479.501	4.47
479.852	4.45
480.203	4.47
480.554	4.47
480.905	4.47
481.255	4.48
481.606	4.5
481.957	4.51
482.307	4.53
482.658	4.54
483.009	4.56
483.359	4.57
483.709	4.59
484.06	4.59
484.41	4.6
484.761	4.59
485.111	4.59
485.461	4.59
485.811	4.59
486.162	4.59
486.512	4.61
486.862	4.62
487.212	4.63
487.562	4.63
487.912	4.64
488.262	4.64
488.612	4.64
488.961	4.63
489.311	4.64
489.661	4.62
490.011	4.62
490.36	4.62
490.71	4.62
491.06	4.61
491.409	4.6
491.759	4.58
492.108	4.59
492.458	4.58
492.807	4.57
493.157	4.58
493.506	4.59
493.855	4.57
494.204	4.57
494.554	4.57
494.903	4.57
495.252	4.56
495.601	4.56
495.95	4.58
496.299	4.58
496.648	4.57
496.997	4.57
497.346	4.59
497.695	4.57
498.043	4.54
498.392	4.56
498.741	4.58
499.09	4.59
499.438	4.58
499.787	4.6
500.135	4.62
500.484	4.62
500.832	4.63
501.181	4.67
501.529	4.68
501.878	4.7
502.226	4.71
502.574	4.72
502.923	4.71
503.271	4.68
503.619	4.68
503.967	4.68
504.315	4.7
504.663	4.7
505.011	4.71
505.359	4.74
505.707	4.74
506.055	4.73
506.403	4.72
506.751	4.72
507.098	4.72
507.446	4.71
507.794	4.71
508.141	4.72
508.489	4.69
508.837	4.68
509.184	4.67
509.531	4.69
509.879	4.72
510.226	4.75
510.574	4.75
510.921	4.76
511.268	4.76
511.616	4.76
511.963	4.75
512.31	4.78
512.657	4.81
513.004	4.81
513.351	4.81
513.698	4.83
514.045	4.82
514.392	4.84
514.739	4.84
515.086	4.85
515.432	4.86
515.779	4.88
516.126	4.9
516.473	4.91
516.819	4.93
517.166	4.9
517.512	4.89
517.859	4.91
518.205	4.9
518.552	4.91
518.898	4.91
519.245	4.96
519.591	4.95
519.937	4.94
520.283	4.94
520.629	4.95
520.976	4.96
521.322	4.98
521.668	4.97
522.014	4.99
522.36	4.98
522.706	4.97
523.052	4.97
523.398	4.97
523.743	4.96
524.089	4.96
524.435	4.95
524.781	4.95
525.126	4.96
525.472	4.97
525.817	4.96
526.163	4.95
526.509	4.93
526.854	4.92
527.199	4.93
527.545	4.92
527.89	4.92
528.235	4.92
528.581	4.93
528.926	4.94
529.271	4.92
529.616	4.92
529.961	4.92
530.306	4.92
530.651	4.92
530.996	4.92
531.341	4.91
531.686	4.91
532.031	4.92
532.376	4.92
532.721	4.92
533.065	4.93
533.41	4.94
533.755	4.94
534.099	4.95
534.444	4.94
534.788	4.95
535.133	4.95
535.477	4.95
535.822	4.93
536.166	4.92
536.51	4.93
536.855	4.93
537.199	4.94
537.543	4.96
537.887	4.97
538.231	4.97
538.576	4.98
538.92	4.99
539.264	4.98
539.608	4.99
539.951	4.98
540.295	4.97
540.639	4.99
540.983	4.99
541.327	4.99
541.671	4.98
542.014	4.98
542.358	4.97
542.701	4.98
543.045	5
543.389	5.01
543.732	5.04
544.075	5.05
544.419	5.05
544.762	5.04
545.105	5.04
545.449	5.04
545.792	5.03
546.135	5.03
546.478	5.06
546.821	5.04
547.165	5.04
547.508	5.04
547.851	5.03
548.194	5.01
548.536	5.02
548.879	5.02
549.222	5.02
549.565	5.04
549.908	5.03
550.25	5.03
550.593	5.01
550.936	5
551.278	4.99
551.621	4.97
551.963	4.98
552.306	4.98
552.648	5
552.991	5.02
553.333	5.02
553.675	4.98
554.017	5.01
554.36	5.01
554.702	5.03
555.044	5.04
555.386	5.07
555.728	5.05
556.07	5.08
556.412	5.08
556.754	5.09
557.096	5.08
557.438	5.06
557.78	5.12
558.121	5.09
558.463	5.09
558.805	5.14
559.147	5.11
559.488	5.08
559.83	5.07
560.171	5.05
560.513	5.07
560.854	5.09
561.196	5.08
561.537	5.08
561.878	5.07
562.22	5.07
562.561	5.06
562.902	5.1
563.243	5.07
563.584	5.08
563.925	5.08
564.266	5.09
564.607	5.11
564.948	5.07
565.289	5.09
565.63	5.07
565.971	5.05
566.312	5.05
566.653	5.09
566.993	5.11
567.334	5.13
567.675	5.11
568.015	5.1
568.356	5.09
568.696	5.09
569.037	5.08
569.377	5.07
569.718	5.1
570.058	5.1
570.398	5.11
570.739	5.14
571.079	5.15
571.419	5.18
571.759	5.17
572.099	5.16
572.439	5.17
572.779	5.17
573.119	5.19
573.459	5.21
573.799	5.22
574.139	5.19
574.479	5.17
574.819	5.19
575.158	5.18
575.498	5.2
575.838	5.21
576.177	5.19
576.517	5.18
576.856	5.18
577.196	5.16
577.535	5.17
577.875	5.13
578.214	5.08
578.553	5.05
578.893	5.06
579.232	5.05
579.571	5.02
579.91	5.03
580.25	5.02
580.589	4.98
580.928	4.94
581.267	4.96
581.606	5
581.945	4.99
582.283	5.03
582.622	5.01
582.961	5.01
583.3	5.05
583.639	5.1
583.977	5.11
584.316	5.08
584.654	5.07
584.993	5.11
585.332	5.14
585.67	5.14
586.008	5.14
586.347	5.15
586.685	5.19
587.024	5.18
587.362	5.19
587.7	5.25
588.038	5.27
588.376	5.27
588.715	5.26
589.053	5.31
589.391	5.3
589.729	5.32
590.067	5.31
590.404	5.34
590.742	5.32
591.08	5.31
591.418	5.36
591.756	5.4
592.093	5.43
592.431	5.43
592.769	5.43
593.106	5.45
593.444	5.43
593.781	5.39
594.119	5.39
594.456	5.39
594.793	5.35
595.131	5.39
595.468	5.41
595.805	5.4
596.143	5.33
596.48	5.33
596.817	5.3
597.154	5.29
597.491	5.28
597.828	5.26
598.165	5.27
598.502	5.26
598.839	5.21
599.176	5.2
599.512	5.21
599.849	5.24
600.186	5.2
600.523	5.22
600.859	5.27
601.196	5.28
601.532	5.3
601.869	5.3
602.205	5.29
602.542	5.25
602.878	5.24
603.215	5.26
603.551	5.29
603.887	5.28
604.223	5.3
604.56	5.29
604.896	5.3
605.232	5.29
605.568	5.29
605.904	5.34
606.24	5.34
606.576	5.34
606.912	5.33
607.248	5.36
607.583	5.41
607.919	5.37
608.255	5.38
608.591	5.39
608.926	5.39
609.262	5.42
609.597	5.45
609.933	5.5
610.268	5.53
610.604	5.51
610.939	5.51
611.275	5.51
611.61	5.51
611.945	5.54
612.281	5.52
612.616	5.54
612.951	5.5
613.286	5.46
613.621	5.47
613.956	5.46
614.291	5.41
614.626	5.4
614.961	5.38
615.296	5.38
615.631	5.37
615.966	5.34
616.3	5.3
616.635	5.27
616.97	5.26
617.304	5.17
617.639	5.2
617.973	5.22
618.308	5.26
618.642	5.3
618.977	5.28
619.311	5.32
619.646	5.33
619.98	5.33
620.314	5.38
620.648	5.35
620.983	5.34
621.317	5.45
621.651	5.44
621.985	5.47
622.319	5.38
622.653	5.39
622.987	5.46
623.321	5.49
623.655	5.51
623.988	5.53
624.322	5.62
624.656	5.64
624.99	5.68
625.323	5.67
625.657	5.67
625.99	5.68
626.324	5.67
626.657	5.68
626.991	5.68
627.324	5.64
627.658	5.67
627.991	5.72
628.324	5.67
628.657	5.65
628.991	5.69
629.324	5.76
629.657	5.76
629.99	5.76
630.323	5.72
630.656	5.77
630.989	5.77
631.322	5.73
631.655	5.68
631.987	5.66
632.32	5.63
632.653	5.64
632.986	5.67
633.318	5.69
633.651	5.67
633.984	5.69
634.316	5.73
634.649	5.73
634.981	5.68
635.313	5.66
635.646	5.69
635.978	5.68
636.31	5.69
636.643	5.69
636.975	5.66
637.307	5.62
637.639	5.55
637.971	5.54
638.303	5.53
638.635	5.53
638.967	5.53
639.299	5.54
639.631	5.58
639.963	5.53
640.295	5.5
640.626	5.48
640.958	5.5
641.29	5.45
641.621	5.4
641.953	5.45
642.285	5.48
642.616	5.49
642.948	5.48
643.279	5.54
643.61	5.51
643.942	5.53
644.273	5.6
644.604	5.62
644.936	5.59
645.267	5.69
645.598	5.72
645.929	5.76
646.26	5.72
646.591	5.71
646.922	5.69
647.253	5.7
647.584	5.77
647.915	5.72
648.245	5.73
648.576	5.82
648.907	5.81
649.238	5.8
649.568	5.79
649.899	5.79
650.229	5.7
650.56	5.71
650.89	5.66
651.221	5.68
651.551	5.66
651.882	5.66
652.212	5.59
652.542	5.58
652.872	5.51
653.203	5.58
653.533	5.54
653.863	5.56
654.193	5.58
654.523	5.51
654.853	5.57
655.183	5.58
655.513	5.52
655.843	5.47
656.172	5.48
656.502	5.52
656.832	5.52
657.162	5.6
657.491	5.58
657.821	5.63
658.15	5.6
658.48	5.61
658.809	5.59
659.139	5.61
659.468	5.63
659.798	5.66
660.127	5.66
660.456	5.61
660.785	5.63
661.115	5.59
661.444	5.67
661.773	5.63
662.102	5.65
662.431	5.69
662.76	5.73
663.089	5.75
663.418	5.69
663.747	5.69
664.076	5.68
664.404	5.73
664.733	5.77
665.062	5.77
665.39	5.8
665.719	5.91
666.048	5.91
666.376	5.94
666.705	5.93
667.033	5.94
667.362	5.91
667.69	5.88
668.018	5.95
668.347	5.89
668.675	5.89
669.003	5.9
669.331	5.89
669.659	5.81
669.987	5.76
670.315	5.79
670.643	5.84
670.971	5.81
671.299	5.8
671.627	5.83
671.955	5.82
672.283	5.78
672.61	5.71
672.938	5.75
673.266	5.77
673.593	5.86
673.921	5.86
674.249	5.94
674.576	5.99
674.904	5.97
675.231	5.92
675.558	5.96
675.886	5.92
676.213	5.86
676.54	5.92
676.867	5.96
677.195	5.89
677.522	5.91
677.849	5.89
678.176	5.96
678.503	5.9
678.83	5.87
679.157	5.88
679.484	5.9
679.81	5.87
680.137	5.8
680.464	5.69
680.791	5.66
681.117	5.67
681.444	5.62
681.771	5.59
682.097	5.62
682.424	5.65
682.75	5.64
683.077	5.72
683.403	5.75
683.729	5.79
684.056	5.91
684.382	5.91
684.708	5.93
685.034	5.79
685.36	5.81
685.686	5.92
686.012	5.9
686.339	5.94
686.664	5.89
686.99	5.95
687.316	6.04
687.642	6.1
687.968	6.11
688.294	6.27
688.619	6.27
688.945	6.26
689.271	6.25
689.596	6.24
689.922	6.17
690.247	6.23
690.573	6.26
690.898	6.23
691.224	6.17
691.549	6.25
691.874	6.32
692.2	6.29
692.525	6.31
692.85	6.38
693.175	6.32
693.5	6.24
693.825	6.29
694.15	6.29
694.475	6.24
694.8	6.17
695.125	6.06
695.45	6.13
695.775	6.17
696.099	6.17
696.424	6.17
696.749	6.17
697.073	6.12
697.398	6.09
697.723	6.16
698.047	6.19
698.372	6.12
698.696	6.15
699.02	6.15
699.345	6.13
699.669	6.23
699.993	6.16
700.318	6.24
700.642	6.23
700.966	6.16
701.29	6.18
701.614	6.21
701.938	6.27
702.262	6.43
702.586	6.48
702.91	6.5
703.234	6.51
703.557	6.57
703.881	6.6
704.205	6.67
704.529	6.49
704.852	6.55
705.176	6.56
705.499	6.57
705.823	6.58
706.146	6.53
706.47	6.5
706.793	6.53
707.117	6.57
707.44	6.53
707.763	6.54
708.086	6.54
708.409	6.58
708.733	6.63
709.056	6.43
709.379	6.6
709.702	6.6
710.025	6.64
710.348	6.67
710.671	6.61
710.993	6.56
711.316	6.62
711.639	6.68
711.962	6.76
712.284	6.84
712.607	6.84
712.93	6.9
713.252	6.77
713.575	6.96
713.897	6.96
714.22	7.02
714.542	7.04
714.864	7
715.187	7.04
715.509	7.04
715.831	6.99
716.153	6.86
716.475	7
716.798	7
717.12	6.95
717.442	7
717.764	6.91
718.085	7.08
718.407	6.94
718.729	6.85
719.051	6.87
719.373	6.88
719.695	6.87
720.016	7.1
720.338	7.11
720.659	7.12
720.981	6.99
721.302	7.11
721.624	7.29
721.945	7.25
722.267	7.19
722.588	7.14
722.909	7.12
723.231	6.9
723.552	6.94
723.873	7.04
724.194	6.99
724.515	7.31
724.836	7.19
725.157	7.28
725.478	7.14
725.799	7.02
726.12	7.1
726.441	7.08
726.762	7.08
727.083	6.84
727.403	7.05
727.724	7.29
728.045	7.22
728.365	7.09
728.686	7.16
729.006	7.1
729.327	7.11
729.647	7.12
729.967	7.21
730.288	7.26
730.608	7.15
730.928	7.13
731.249	6.89
731.569	7.01
731.889	7.05
732.209	7.28
732.529	7.28
732.849	7.28
733.169	7.19
733.489	7.1
733.809	7.2
734.129	6.99
734.448	6.8
734.768	6.76
735.088	6.96
735.408	6.95
735.727	7.17
736.047	7.3
736.366	7.2
736.686	7.32
737.005	7.35
737.325	7.4
737.644	7.39
737.963	7.59
738.283	7.41
738.602	7.38
738.921	7.35
739.24	7.4
739.56	7.47
739.879	7.61
740.198	7.47
740.517	7.53
740.836	7.61
741.155	7.69
741.473	7.97
741.792	7.81
742.111	7.79
742.43	7.54
742.748	7.24
743.067	7.3
743.386	7.07
743.704	7.06
744.023	7.05
744.341	7.23
744.66	7.3
744.978	7.42
745.297	7.41
745.615	7.51
745.933	7.5
746.252	7.55
746.57	7.61
746.888	7.64
747.206	7.61
747.524	7.58
747.842	7.45
748.16	7.27
748.478	7.26
748.796	7.38
749.114	7.77
749.432	7.89
749.749	7.88
750.067	7.8
750.385	7.72
750.703	7.65
751.02	7.56
751.338	7.52
751.655	7.63
751.973	7.58
752.29	7.42
752.608	7.64
752.925	7.61
753.242	7.46
753.56	7.4
753.877	7.18
754.194	7.27
754.511	7.56
754.828	7.44
755.145	7.27
755.462	7.18
755.779	6.85
756.096	6.99
756.413	7.15
756.73	7.3
757.047	7.48
757.364	7.69
757.68	7.54
757.997	7.55
758.314	7.27
758.63	7.33
758.947	7.43
759.264	7.03
759.58	6.87
759.896	7.17
760.213	7.29
760.529	7.44
760.846	7.65
761.162	7.57
761.478	7.61
761.794	7.65
762.11	7.57
762.426	7.58
762.743	7.77
763.059	7.92
763.375	8.03
763.69	8.01
764.006	8.16
764.322	8.27
764.638	8.24
764.954	8.36
765.27	8.35
765.585	8.24
765.901	8.48
766.216	8.53
766.532	8.3
766.848	8.36
767.163	8.21
767.478	7.98
767.794	7.71
768.109	7.81
768.424	7.84
768.74	7.98
769.055	8.18
769.37	8.14
769.685	7.76
770	7.59
770.315	7.27
770.63	7.15
770.945	7.07
771.26	7.11
771.575	7.02
771.89	6.89
772.205	6.82
772.52	6.73
772.834	6.43
773.149	6.87
773.464	6.65
773.778	7.13
774.093	6.84
774.407	7.27
774.722	7
775.036	7.38
775.351	7.25
775.665	6.97
775.979	6.64
776.293	6.57
776.608	6.61
776.922	7
777.236	7.19
777.55	7.45
777.864	7.36
778.178	7.61
778.492	7.76
778.806	7.86
779.12	7.86
779.434	8.35
779.747	8.25
780.061	8.39
780.375	8.16
780.689	8.64
781.002	8.53
781.316	8.98
781.629	9
781.943	9.19
782.256	9.32
782.57	9.66
782.883	10.14
783.196	9.87
783.51	9.62
783.823	8.94
784.136	8.79
784.449	9.11
784.762	9.12
785.075	9.24
785.388	9.31
785.701	9.26
786.014	9.32
786.327	8.8
786.64	9.12
786.953	9.31
787.266	8.82
787.578	8.64
787.891	8.82
788.204	8.64
788.516	8.65
788.829	8.63
789.141	8.71
789.454	8.86
789.766	9.07
790.079	9.21
790.391	9.47
790.703	9.72
791.016	9.75
791.328	10.02
791.64	9.7
791.952	10.08
792.264	10.04
792.576	9.69
792.888	10.24
793.2	10.22
793.512	10.25
793.824	10.62
794.136	10.87
794.448	10.44
794.76	9.92
795.071	9.86
795.383	9.88
795.695	9.45
796.006	8.87
796.318	9.44
796.629	9.66
796.941	9.67
797.252	9.75
797.564	9.7
797.875	8.78
798.186	9.05
798.497	8.91
798.809	8.64
799.12	8.85
799.431	8.52
799.742	8.38
800.053	8.84
800.364	8.64
800.675	8.28
800.986	8.53
801.297	8.68
801.608	8.16
801.918	8.21
802.229	8.25
802.54	8.34
802.851	7.82
803.161	7.84
803.472	7.77
803.782	7.48
804.093	6.92
804.403	7.33
804.714	7.36
805.024	6.59
805.334	6.91
805.645	7.03
805.955	7.35
806.265	7.33
806.575	6.48
806.885	6.95
807.195	7.15
807.505	7.14
807.815	7.51
808.125	8.07
808.435	7.68
808.745	7.76
809.055	8.09
809.365	8.52
809.674	8.28
809.984	8.36
810.294	8.34
810.603	8.79
810.913	9.47
811.222	9.91
811.532	11.07
811.841	11.67
812.151	12.11
812.46	11.67
812.769	10.95
813.079	11.35
813.388	11.02
813.697	11.73
814.006	11.71
814.315	11.79
814.624	11.74
814.933	11.74
815.242	12.02
815.551	12.03
815.86	11.69
816.169	11.21
816.478	11.18
816.786	10.76
817.095	10.84
817.404	10.89
817.712	10.2
818.021	10.04
818.33	9.65
818.638	9.32
818.947	9.64
819.255	9.96
819.563	9.75
819.872	9.89
820.18	9.65
820.488	9.41
820.796	9.43
821.105	9.25
821.413	9.26
821.721	9.2
822.029	9.07
822.337	9.07
822.645	9.25
822.953	9.22
823.26	9.41
823.568	9.31
823.876	9.16
824.184	9.07
824.491	9.02
824.799	9.03
825.107	9.18
825.414	9.22
825.722	9.41
826.029	9.61
826.337	9.67
826.644	9.71
826.951	9.65
827.259	9.59
827.566	9.65
827.873	9.9
828.18	9.93
828.488	10.17
828.795	10.29
829.102	10.34
829.409	10.75
829.716	10.63
830.023	10.73
830.329	10.66
830.636	11.41
830.943	11.47
831.25	11.47
831.557	11.39
831.863	11.48
832.17	11.1
832.476	10.9
832.783	10.86
833.089	10.58
833.396	10.99
833.702	11.51
834.009	11.6
834.315	11.46
834.621	11.62
834.928	11.21
835.234	11.21
835.54	10.75
835.846	10
836.152	10.03
836.458	9.93
836.764	10.04
837.07	9.48
837.376	9.02
837.682	9.1
837.988	9.05
838.293	8.67
838.599	8.92
838.905	8.98
839.211	8.59
839.516	9.16
839.822	9.05
840.127	8.44
840.433	8.38
840.738	8.4
841.044	7.94
841.349	8.44
841.654	7.82
841.959	8.13
842.265	8.84
842.57	9.28
842.875	9.22
843.18	9.24
843.485	8.83
843.79	9.94
844.095	9.34
844.4	9.62
844.705	9.73
845.01	8.85
845.315	8.48
845.619	8.01
845.924	8.21
846.229	9.31
846.533	8.52
846.838	9.48
847.142	8.73
847.447	8.6
847.751	8.74
848.056	7.48
848.36	8.31
848.664	9.98
848.969	9.93
849.273	10.11
849.577	9.86
849.881	11.65
850.185	12.12
850.489	11.55
850.794	8.93
851.097	8.77
851.401	10.22
851.705	9.56
852.009	11.45
852.313	10.54
852.617	7.77
852.92	9.83
853.224	8.71
853.528	9.74
853.831	9.57
854.135	9.65
854.438	10.01
854.742	9.66
855.045	8.26
855.349	7.49
855.652	6.46
855.955	6.99
856.259	4.47
856.562	4.46
856.865	7.68
857.168	8.98
857.471	10
857.774	10.08
858.077	11.8
858.38	11.4
858.683	12.07
858.986	14.68
859.289	13.77
859.592	13.63
859.894	13.81
860.197	14.44
860.5	14.2
860.802	17.83
861.105	18.5
861.407	18.21
861.71	17.05
862.012	17.86
862.315	17.67
862.617	18.14
862.919	17.52
863.222	17.91
863.524	18.01
863.826	18.01
864.128	18.04
864.43	17.16
864.732	17.18
865.034	15.38
865.336	12.01
865.638	11.85
865.94	10.56
866.242	7.25
866.544	6.21
866.846	6.34
867.147	5.43
867.449	4.88
867.751	4.28
868.052	5.74
868.354	5.47
868.655	6.39
868.957	8.16
869.258	9.12
869.56	8.32
869.861	6.52
870.162	6
870.463	3.62
870.765	3.87
871.066	1.64
871.367	3.35
871.668	6.52
871.969	6.85
872.27	7.25
872.571	9.91
872.872	12.75
873.173	9.72
873.473	8.9
873.774	7.92
874.075	8.84
874.376	6.86
874.676	7.27
874.977	5.29
875.277	4.61
875.578	4.17
875.878	2.33
876.179	4.1
876.479	3.53
876.78	4.84
877.08	4.37
877.38	6.08
877.68	4.81
877.981	4.1
878.281	3.03
878.581	5.4
