Data from BU58119_Reflection_00009.txt Node
Date: Tue Nov 19 10:50:57 EST 2019
User: vgr7
Spectrometer: USB2G7710
Scans to average: 3
Trigger mode: 4
Integration Time (sec): 2.000000E-2
Electric dark correction enabled: true
Boxcar width: 10
XAxis mode: Wavelengths
Number of Pixels in Spectrum: 2048
>>>>>Begin Spectral Data<<<<<
177.721	-115.65
178.105	-103.88
178.488	-172.33
178.871	-268.18
179.254	280
179.636	177.59
180.019	-151.07
180.402	-18.52
180.785	1490.91
181.168	246.1
181.55	62.9
181.933	21.41
182.316	26.01
182.698	-87.8
183.081	-72.76
183.463	16.91
183.846	-3.1
184.228	-83.45
184.611	-166.8
184.993	-242.25
185.376	-360.29
185.758	562.62
186.14	185.07
186.522	135.79
186.904	187.34
187.287	136.75
187.669	106.21
188.051	54.95
188.433	40.85
188.815	62.54
189.197	39.9
189.579	11.88
189.961	4.14
190.342	4.66
190.724	-43.79
191.106	-39.33
191.488	-19.59
191.869	-17.81
192.251	-32.98
192.633	-33.44
193.014	-40.27
193.396	-39.08
193.777	-23.1
194.159	-13.63
194.54	-12.36
194.922	-14.61
195.303	-20.37
195.684	-22.68
196.065	-18.69
196.447	-6.77
196.828	-3.67
197.209	-1.71
197.59	9.31
197.971	0.49
198.352	-21.82
198.733	-16.48
199.114	-37.7
199.495	-92.93
199.876	-140.9
200.257	-246.15
200.638	-503.9
201.018	729.03
201.399	-171.33
201.78	-139.78
202.16	-137.31
202.541	-840.68
202.922	-393.29
203.302	6446.15
203.683	3280
204.063	-831.58
204.444	-805.94
204.824	-18200
205.204	-131.26
205.585	-102.18
205.965	-69.28
206.345	-17.98
206.725	1.76
207.106	22.5
207.486	14.39
207.866	-7.48
208.246	-14.93
208.626	-25.99
209.006	-31.45
209.386	-12.64
209.766	-19.83
210.145	-30.15
210.525	-32.37
210.905	-28.5
211.285	-21.05
211.664	-8.96
212.044	-19.01
212.424	-22.21
212.803	-23.24
213.183	-24.32
213.562	-22.75
213.942	-30.9
214.321	-33.15
214.701	-42.69
215.08	-39.95
215.459	-24.82
215.838	-16.13
216.218	-5.99
216.597	-5.22
216.976	-6.45
217.355	-14.8
217.734	-19.56
218.113	-7.65
218.492	-0.98
218.871	6.22
219.25	9.83
219.629	-0.54
220.008	3.54
220.387	7.16
220.766	16.82
221.144	14.8
221.523	5.86
221.902	4.26
222.28	-9.03
222.659	2.67
223.037	5.88
223.416	5.01
223.794	-5.34
224.173	-13.14
224.551	-3.76
224.929	-10.16
225.308	-8.93
225.686	-12.11
226.064	-16.9
226.442	-11.18
226.821	-18.39
227.199	-17.99
227.577	-19.2
227.955	-11.96
228.333	-13.37
228.711	-10.11
229.089	-11.57
229.467	-12.06
229.845	-8.46
230.222	-8.08
230.6	-8.1
230.978	-5.77
231.356	-6.92
231.733	-6.05
232.111	-5.33
232.488	-7.98
232.866	-4.75
233.243	-5.27
233.621	-1.45
233.998	-2.71
234.376	-6.04
234.753	-5.96
235.13	-2.9
235.508	-0.85
235.885	-2.39
236.262	-0.18
236.639	-2.58
237.016	-0.63
237.393	3.08
237.77	3.86
238.147	5.13
238.524	4.81
238.901	3.66
239.278	4.5
239.655	5.57
240.032	5.47
240.409	6.3
240.785	5.03
241.162	4.35
241.539	3.69
241.915	4.63
242.292	5.36
242.668	5.87
243.045	6.03
243.421	5.98
243.798	5.81
244.174	5.63
244.551	5.65
244.927	5.62
245.303	5.42
245.679	5.03
246.056	5.09
246.432	4.89
246.808	4.92
247.184	5.03
247.56	4.64
247.936	4.68
248.312	4.39
248.688	4.86
249.064	5.08
249.44	5.24
249.815	4.9
250.191	4.4
250.567	4.3
250.943	3.9
251.318	3.95
251.694	3.82
252.069	3.74
252.445	3.71
252.82	3.6
253.196	3.41
253.571	3.92
253.947	3.67
254.322	3.74
254.697	3.7
255.073	3.54
255.448	3.86
255.823	3.73
256.198	3.83
256.573	3.77
256.948	3.95
257.323	4.01
257.698	4.2
258.073	4.26
258.448	4.35
258.823	4.4
259.198	4.12
259.573	4.11
259.948	4.04
260.322	4.12
260.697	4.22
261.072	4.16
261.446	3.91
261.821	3.94
262.195	3.94
262.57	3.98
262.944	3.86
263.319	3.83
263.693	4.02
264.067	4.13
264.442	4.1
264.816	4.17
265.19	4.21
265.564	4.13
265.938	4.27
266.313	4.03
266.687	4.01
267.061	4.38
267.435	4.64
267.809	4.76
268.183	4.6
268.556	4.53
268.93	4.64
269.304	4.56
269.678	4.66
270.051	4.78
270.425	4.76
270.799	4.72
271.172	4.68
271.546	4.56
271.919	4.4
272.293	4.28
272.666	4.21
273.04	4.09
273.413	4.11
273.787	4.15
274.16	4.26
274.533	4.37
274.906	4.21
275.279	4.04
275.653	3.91
276.026	3.97
276.399	3.94
276.772	3.97
277.145	4.21
277.518	3.75
277.891	3.63
278.263	3.85
278.636	3.87
279.009	3.93
279.382	3.77
279.755	4.01
280.127	4.09
280.5	4.09
280.872	4.06
281.245	4.11
281.617	4.11
281.99	4.07
282.362	3.91
282.735	3.86
283.107	3.88
283.479	3.97
283.852	4.25
284.224	4.3
284.596	4.14
284.968	4.06
285.34	4.26
285.713	4.3
286.085	4.09
286.457	4.14
286.829	4.17
287.201	4.41
287.572	4.48
287.944	4.5
288.316	4.56
288.688	4.78
289.06	4.77
289.431	4.81
289.803	4.85
290.175	4.82
290.546	4.9
290.918	4.87
291.289	4.86
291.661	4.7
292.032	4.8
292.403	4.91
292.775	4.97
293.146	5.09
293.517	5.17
293.889	5.33
294.26	5.4
294.631	5.51
295.002	5.45
295.373	5.44
295.744	5.5
296.115	5.5
296.486	5.42
296.857	5.41
297.228	5.33
297.599	5.31
297.97	5.53
298.34	5.55
298.711	5.62
299.082	5.64
299.452	5.6
299.823	5.45
300.194	5.57
300.564	5.6
300.935	5.65
301.305	5.74
301.676	5.7
302.046	5.75
302.416	5.73
302.787	5.77
303.157	5.69
303.527	5.75
303.897	5.68
304.267	5.68
304.637	5.81
305.008	6.11
305.378	6.32
305.748	6.41
306.117	6.58
306.487	6.79
306.857	6.88
307.227	7.12
307.597	7.3
307.967	7.37
308.336	7.62
308.706	7.65
309.076	7.69
309.445	8.02
309.815	8.15
310.184	8.18
310.554	8.22
310.923	8.39
311.293	8.47
311.662	8.76
312.031	8.84
312.401	8.89
312.77	8.9
313.139	8.95
313.508	8.88
313.877	8.97
314.246	8.99
314.616	9.21
314.985	9.23
315.353	9.32
315.722	9.55
316.091	9.48
316.46	9.58
316.829	9.8
317.198	9.73
317.567	9.71
317.935	9.93
318.304	10.05
318.672	10.09
319.041	10.21
319.41	10.32
319.778	10.36
320.147	10.41
320.515	10.39
320.883	10.49
321.252	10.66
321.62	10.67
321.988	10.74
322.357	10.76
322.725	10.86
323.093	10.98
323.461	11.01
323.829	11.09
324.197	11.16
324.565	11.12
324.933	11.22
325.301	11.21
325.669	11.32
326.037	11.43
326.405	11.43
326.772	11.46
327.14	11.37
327.508	11.56
327.875	11.6
328.243	11.67
328.61	11.64
328.978	11.61
329.346	11.6
329.713	11.74
330.08	12
330.448	12.11
330.815	12.21
331.182	12.11
331.55	12.16
331.917	12.31
332.284	12.46
332.651	12.4
333.018	12.49
333.385	12.54
333.752	12.47
334.119	12.58
334.486	12.6
334.853	12.65
335.22	12.65
335.587	12.69
335.954	12.79
336.32	12.92
336.687	13.11
337.054	13.12
337.42	13.01
337.787	12.85
338.153	12.86
338.52	12.9
338.886	13.04
339.253	13.13
339.619	13.18
339.986	13.07
340.352	13.23
340.718	13.36
341.084	13.28
341.451	13.34
341.817	13.45
342.183	13.53
342.549	13.63
342.915	13.61
343.281	13.67
343.647	13.75
344.013	13.73
344.379	13.58
344.745	13.71
345.11	13.82
345.476	13.85
345.842	13.88
346.208	13.87
346.573	13.79
346.939	13.71
347.304	13.77
347.67	13.91
348.035	13.85
348.401	13.93
348.766	13.92
349.132	14
349.497	13.98
349.862	14.03
350.228	13.98
350.593	13.92
350.958	13.9
351.323	13.7
351.688	13.81
352.053	13.89
352.418	13.9
352.783	13.88
353.148	13.92
353.513	13.88
353.878	13.82
354.243	13.84
354.608	13.86
354.972	13.69
355.337	13.55
355.702	13.51
356.066	13.44
356.431	13.41
356.795	13.36
357.16	13.27
357.524	13.18
357.889	13.16
358.253	13.18
358.618	13.12
358.982	13.21
359.346	13.08
359.71	13.01
360.075	12.94
360.439	12.89
360.803	12.8
361.167	12.66
361.531	12.6
361.895	12.56
362.259	12.59
362.623	12.6
362.987	12.55
363.351	12.51
363.714	12.43
364.078	12.35
364.442	12.29
364.806	12.27
365.169	12.25
365.533	12.17
365.896	12.14
366.26	12
366.623	11.92
366.987	11.94
367.35	11.91
367.714	11.84
368.077	11.82
368.44	11.82
368.803	11.75
369.167	11.76
369.53	11.68
369.893	11.53
370.256	11.41
370.619	11.37
370.982	11.26
371.345	11.25
371.708	11.23
372.071	11.16
372.434	10.95
372.797	10.84
373.159	10.71
373.522	10.5
373.885	10.52
374.247	10.46
374.61	10.33
374.973	10.18
375.335	10.1
375.698	9.94
376.06	9.82
376.423	9.79
376.785	9.68
377.147	9.51
377.51	9.4
377.872	9.41
378.234	9.27
378.596	9.24
378.958	9.15
379.321	9.01
379.683	9.01
380.045	8.99
380.407	8.83
380.769	8.74
381.13	8.76
381.492	8.67
381.854	8.51
382.216	8.41
382.578	8.4
382.939	8.35
383.301	8.32
383.663	8.28
384.024	8.23
384.386	8.1
384.747	8.09
385.109	8.04
385.47	7.93
385.832	7.93
386.193	7.85
386.554	7.74
386.916	7.71
387.277	7.59
387.638	7.51
387.999	7.53
388.36	7.49
388.721	7.43
389.082	7.41
389.443	7.39
389.804	7.34
390.165	7.23
390.526	7.15
390.887	7.09
391.248	7
391.609	6.98
391.969	6.96
392.33	6.9
392.691	6.88
393.051	6.79
393.412	6.71
393.772	6.67
394.133	6.58
394.493	6.51
394.854	6.5
395.214	6.48
395.574	6.43
395.935	6.39
396.295	6.35
396.655	6.29
397.015	6.21
397.376	6.19
397.736	6.13
398.096	6.08
398.456	6.02
398.816	5.95
399.176	5.86
399.535	5.77
399.895	5.73
400.255	5.68
400.615	5.66
400.975	5.62
401.334	5.55
401.694	5.55
402.054	5.5
402.413	5.42
402.773	5.38
403.132	5.35
403.492	5.34
403.851	5.25
404.211	5.2
404.57	5.2
404.929	5.11
405.288	5.12
405.648	5.11
406.007	5.12
406.366	5.1
406.725	5.08
407.084	5.12
407.443	5.12
407.802	5.09
408.161	5.03
408.52	5.02
408.879	4.99
409.238	4.96
409.596	4.99
409.955	4.98
410.314	4.97
410.673	4.92
411.031	4.85
411.39	4.88
411.748	4.86
412.107	4.81
412.465	4.81
412.824	4.77
413.182	4.72
413.54	4.68
413.899	4.66
414.257	4.65
414.615	4.58
414.974	4.57
415.332	4.56
415.69	4.56
416.048	4.54
416.406	4.51
416.764	4.48
417.122	4.44
417.48	4.45
417.838	4.41
418.195	4.38
418.553	4.38
418.911	4.35
419.269	4.33
419.626	4.34
419.984	4.34
420.342	4.33
420.699	4.32
421.057	4.28
421.414	4.26
421.772	4.25
422.129	4.24
422.486	4.23
422.844	4.18
423.201	4.17
423.558	4.14
423.915	4.14
424.273	4.14
424.63	4.11
424.987	4.08
425.344	4.07
425.701	4.06
426.058	4.04
426.415	4.01
426.772	4
427.128	3.97
427.485	3.95
427.842	3.92
428.199	3.92
428.555	3.9
428.912	3.88
429.269	3.86
429.625	3.86
429.982	3.86
430.338	3.9
430.695	3.87
431.051	3.89
431.407	3.88
431.764	3.86
432.12	3.87
432.476	3.9
432.832	3.89
433.189	3.87
433.545	3.89
433.901	3.9
434.257	3.89
434.613	3.87
434.969	3.87
435.325	3.89
435.681	3.88
436.036	3.9
436.392	3.9
436.748	3.91
437.104	3.91
437.459	3.91
437.815	3.9
438.171	3.9
438.526	3.91
438.882	3.91
439.237	3.92
439.593	3.95
439.948	3.92
440.304	3.94
440.659	3.97
441.014	3.96
441.369	3.97
441.725	3.97
442.08	3.96
442.435	3.97
442.79	3.95
443.145	3.93
443.5	3.93
443.855	3.92
444.21	3.9
444.565	3.89
444.92	3.88
445.275	3.85
445.629	3.86
445.984	3.82
446.339	3.83
446.693	3.81
447.048	3.77
447.403	3.75
447.757	3.72
448.112	3.69
448.466	3.7
448.82	3.69
449.175	3.67
449.529	3.68
449.883	3.64
450.238	3.63
450.592	3.63
450.946	3.62
451.3	3.61
451.654	3.61
452.008	3.6
452.362	3.56
452.716	3.56
453.07	3.55
453.424	3.55
453.778	3.51
454.132	3.5
454.486	3.51
454.839	3.54
455.193	3.56
455.547	3.57
455.9	3.55
456.254	3.55
456.607	3.57
456.961	3.57
457.314	3.59
457.668	3.59
458.021	3.61
458.375	3.61
458.728	3.6
459.081	3.62
459.434	3.63
459.787	3.65
460.141	3.67
460.494	3.66
460.847	3.69
461.2	3.7
461.553	3.71
461.906	3.72
462.259	3.72
462.611	3.73
462.964	3.73
463.317	3.73
463.67	3.73
464.022	3.73
464.375	3.75
464.728	3.75
465.08	3.78
465.433	3.78
465.785	3.79
466.138	3.81
466.49	3.81
466.843	3.84
467.195	3.85
467.547	3.85
467.899	3.88
468.252	3.88
468.604	3.9
468.956	3.92
469.308	3.91
469.66	3.93
470.012	3.96
470.364	3.95
470.716	3.98
471.068	3.99
471.42	4.02
471.772	4.03
472.123	4.06
472.475	4.06
472.827	4.08
473.178	4.12
473.53	4.14
473.882	4.15
474.233	4.13
474.585	4.13
474.936	4.14
475.288	4.14
475.639	4.17
475.99	4.16
476.342	4.17
476.693	4.18
477.044	4.15
477.395	4.15
477.746	4.17
478.097	4.16
478.448	4.16
478.8	4.14
479.15	4.12
479.501	4.09
479.852	4.07
480.203	4.05
480.554	4.04
480.905	4.02
481.255	4.01
481.606	4.01
481.957	4.01
482.307	3.99
482.658	3.99
483.009	3.97
483.359	3.98
483.709	3.97
484.06	3.97
484.41	3.98
484.761	3.98
485.111	3.98
485.461	3.97
485.811	3.97
486.162	3.97
486.512	3.97
486.862	3.98
487.212	3.99
487.562	3.98
487.912	3.99
488.262	3.99
488.612	3.99
488.961	3.99
489.311	3.99
489.661	3.99
490.011	3.99
490.36	3.99
490.71	3.99
491.06	3.99
491.409	3.99
491.759	4
492.108	3.99
492.458	3.99
492.807	3.99
493.157	3.99
493.506	4.01
493.855	4.02
494.204	4.02
494.554	4.05
494.903	4.08
495.252	4.1
495.601	4.14
495.95	4.16
496.299	4.19
496.648	4.23
496.997	4.28
497.346	4.34
497.695	4.38
498.043	4.42
498.392	4.46
498.741	4.52
499.09	4.56
499.438	4.63
499.787	4.68
500.135	4.75
500.484	4.8
500.832	4.86
501.181	4.93
501.529	5
501.878	5.05
502.226	5.1
502.574	5.15
502.923	5.22
503.271	5.28
503.619	5.38
503.967	5.47
504.315	5.55
504.663	5.63
505.011	5.72
505.359	5.81
505.707	5.91
506.055	6.01
506.403	6.13
506.751	6.21
507.098	6.33
507.446	6.41
507.794	6.53
508.141	6.64
508.489	6.74
508.837	6.82
509.184	6.94
509.531	7.08
509.879	7.19
510.226	7.3
510.574	7.43
510.921	7.53
511.268	7.66
511.616	7.82
511.963	7.92
512.31	8.06
512.657	8.22
513.004	8.36
513.351	8.51
513.698	8.67
514.045	8.85
514.392	9.01
514.739	9.22
515.086	9.43
515.432	9.6
515.779	9.79
516.126	10.02
516.473	10.19
516.819	10.37
517.166	10.54
517.512	10.68
517.859	10.84
518.205	11
518.552	11.15
518.898	11.28
519.245	11.44
519.591	11.62
519.937	11.79
520.283	11.94
520.629	12.09
520.976	12.25
521.322	12.43
521.668	12.65
522.014	12.87
522.36	13.07
522.706	13.3
523.052	13.52
523.398	13.74
523.743	14.03
524.089	14.26
524.435	14.49
524.781	14.75
525.126	14.97
525.472	15.17
525.817	15.34
526.163	15.5
526.509	15.68
526.854	15.84
527.199	15.99
527.545	16.12
527.89	16.27
528.235	16.42
528.581	16.58
528.926	16.71
529.271	16.86
529.616	16.99
529.961	17.16
530.306	17.3
530.651	17.45
530.996	17.61
531.341	17.81
531.686	18
532.031	18.18
532.376	18.39
532.721	18.6
533.065	18.82
533.41	19.04
533.755	19.27
534.099	19.47
534.444	19.7
534.788	19.96
535.133	20.21
535.477	20.45
535.822	20.68
536.166	20.94
536.51	21.22
536.855	21.53
537.199	21.77
537.543	22.1
537.887	22.41
538.231	22.71
538.576	23.01
538.92	23.3
539.264	23.61
539.608	23.87
539.951	24.12
540.295	24.38
540.639	24.64
540.983	24.84
541.327	25.08
541.671	25.32
542.014	25.55
542.358	25.78
542.701	26.01
543.045	26.27
543.389	26.5
543.732	26.73
544.075	26.98
544.419	27.27
544.762	27.5
545.105	27.81
545.449	28.07
545.792	28.33
546.135	28.65
546.478	28.94
546.821	29.26
547.165	29.59
547.508	29.91
547.851	30.21
548.194	30.58
548.536	30.92
548.879	31.22
549.222	31.54
549.565	31.86
549.908	32.16
550.25	32.43
550.593	32.69
550.936	32.98
551.278	33.26
551.621	33.55
551.963	33.93
552.306	34.21
552.648	34.5
552.991	34.78
553.333	35.08
553.675	35.33
554.017	35.54
554.36	35.85
554.702	36.15
555.044	36.44
555.386	36.65
555.728	36.91
556.07	37.17
556.412	37.43
556.754	37.68
557.096	38
557.438	38.29
557.78	38.63
558.121	38.94
558.463	39.19
558.805	39.49
559.147	39.64
559.488	39.87
559.83	40.12
560.171	40.36
560.513	40.58
560.854	40.86
561.196	41.12
561.537	41.31
561.878	41.54
562.22	41.75
562.561	42.03
562.902	42.19
563.243	42.44
563.584	42.64
563.925	42.83
564.266	42.95
564.607	43.2
564.948	43.36
565.289	43.56
565.63	43.79
565.971	43.93
566.312	44.16
566.653	44.31
566.993	44.47
567.334	44.69
567.675	44.82
568.015	44.96
568.356	45.13
568.696	45.31
569.037	45.47
569.377	45.65
569.718	45.83
570.058	45.95
570.398	46.02
570.739	46.18
571.079	46.35
571.419	46.52
571.759	46.63
572.099	46.83
572.439	46.96
572.779	47.06
573.119	47.19
573.459	47.33
573.799	47.47
574.139	47.59
574.479	47.69
574.819	47.87
575.158	48
575.498	48.13
575.838	48.21
576.177	48.29
576.517	48.37
576.856	48.49
577.196	48.69
577.535	48.86
577.875	49
578.214	49.15
578.553	49.19
578.893	49.29
579.232	49.34
579.571	49.46
579.91	49.55
580.25	49.66
580.589	49.7
580.928	49.8
581.267	49.91
581.606	50.1
581.945	50.21
582.283	50.23
582.622	50.37
582.961	50.49
583.3	50.6
583.639	50.65
583.977	50.73
584.316	50.83
584.654	50.93
584.993	50.99
585.332	51.04
585.67	51.28
586.008	51.36
586.347	51.43
586.685	51.48
587.024	51.58
587.362	51.67
587.7	51.78
588.038	51.86
588.376	51.96
588.715	51.96
589.053	52.08
589.391	52.25
589.729	52.24
590.067	52.29
590.404	52.38
590.742	52.51
591.08	52.53
591.418	52.59
591.756	52.65
592.093	52.72
592.431	52.78
592.769	52.75
593.106	52.87
593.444	52.93
593.781	52.94
594.119	52.98
594.456	53.07
594.793	53.15
595.131	53.2
595.468	53.24
595.805	53.3
596.143	53.31
596.48	53.37
596.817	53.42
597.154	53.55
597.491	53.62
597.828	53.67
598.165	53.79
598.502	53.83
598.839	54
599.176	54.03
599.512	54.14
599.849	54.37
600.186	54.37
600.523	54.37
600.859	54.45
601.196	54.57
601.532	54.56
601.869	54.68
602.205	54.72
602.542	54.76
602.878	54.81
603.215	54.84
603.551	54.82
603.887	54.84
604.223	54.81
604.56	54.87
604.896	54.92
605.232	54.93
605.568	55.01
605.904	55.03
606.24	55.14
606.576	55.16
606.912	55.13
607.248	55.26
607.583	55.33
607.919	55.37
608.255	55.39
608.591	55.49
608.926	55.46
609.262	55.56
609.597	55.6
609.933	55.61
610.268	55.59
610.604	55.65
610.939	55.7
611.275	55.75
611.61	55.81
611.945	55.84
612.281	55.87
612.616	55.9
612.951	55.87
613.286	55.81
613.621	55.82
613.956	55.8
614.291	55.79
614.626	55.88
614.961	55.84
615.296	55.88
615.631	55.84
615.966	55.85
616.3	55.86
616.635	55.92
616.97	55.97
617.304	56.04
617.639	56.05
617.973	56.18
618.308	56.17
618.642	56.11
618.977	56.11
619.311	56.17
619.646	56.15
619.98	56.19
620.314	56.29
620.648	56.27
620.983	56.26
621.317	56.28
621.651	56.29
621.985	56.43
622.319	56.45
622.653	56.57
622.987	56.67
623.321	56.72
623.655	56.73
623.988	56.78
624.322	56.69
624.656	56.69
624.99	56.68
625.323	56.69
625.657	56.64
625.99	56.68
626.324	56.57
626.657	56.54
626.991	56.48
627.324	56.51
627.658	56.55
627.991	56.66
628.324	56.68
628.657	56.61
628.991	56.63
629.324	56.62
629.657	56.51
629.99	56.43
630.323	56.41
630.656	56.46
630.989	56.38
631.322	56.54
631.655	56.5
631.987	56.61
632.32	56.67
632.653	56.81
632.986	56.81
633.318	56.95
633.651	57.02
633.984	57.14
634.316	57.09
634.649	57.07
634.981	57.03
635.313	57
635.646	57.03
635.978	56.97
636.31	56.98
636.643	57.02
636.975	57
637.307	57.01
637.639	57.05
637.971	57.08
638.303	57.06
638.635	57.2
638.967	57.11
639.299	57
639.631	56.86
639.963	56.81
640.295	56.91
640.626	56.97
640.958	56.92
641.29	56.99
641.621	56.93
641.953	56.83
642.285	56.9
642.616	57.05
642.948	57.18
643.279	57.21
643.61	57.32
643.942	57.39
644.273	57.34
644.604	57.32
644.936	57.34
645.267	57.24
645.598	57.26
645.929	57.15
646.26	57.29
646.591	57.44
646.922	57.49
647.253	57.38
647.584	57.37
647.915	57.47
648.245	57.44
648.576	57.51
648.907	57.63
649.238	57.45
649.568	57.41
649.899	57.37
650.229	57.28
650.56	57.16
650.89	57.16
651.221	57.17
651.551	57.16
651.882	57.2
652.212	57.17
652.542	57.24
652.872	57.32
653.203	57.38
653.533	57.42
653.863	57.44
654.193	57.35
654.523	57.3
654.853	57.25
655.183	57.36
655.513	57.52
655.843	57.52
656.172	57.72
656.502	57.88
656.832	57.95
657.162	57.98
657.491	58.16
657.821	58.24
658.15	58.39
658.48	58.43
658.809	58.53
659.139	58.72
659.468	58.66
659.798	58.7
660.127	58.81
660.456	58.83
660.785	58.89
661.115	59.13
661.444	59.25
661.773	59.24
662.102	59.12
662.431	59.08
662.76	59.11
663.089	59.14
663.418	58.99
663.747	58.93
664.076	59.02
664.404	59.02
664.733	58.95
665.062	58.87
665.39	58.76
665.719	58.74
666.048	58.71
666.376	58.7
666.705	58.74
667.033	58.51
667.362	58.46
667.69	58.52
668.018	58.41
668.347	58.27
668.675	58.18
669.003	58.34
669.331	58.43
669.659	58.51
669.987	58.48
670.315	58.58
670.643	58.6
670.971	58.64
671.299	58.73
671.627	58.8
671.955	58.9
672.283	58.91
672.61	58.91
672.938	58.92
673.266	59.07
673.593	59.02
673.921	59.12
674.249	59.24
674.576	59.19
674.904	59.12
675.231	59.22
675.558	59.38
675.886	59.31
676.213	59.31
676.54	59.32
676.867	59.28
677.195	59.25
677.522	59.29
677.849	59.3
678.176	59.18
678.503	59.17
678.83	59
679.157	59.12
679.484	59.06
679.81	59
680.137	58.99
680.464	59.12
680.791	59.04
681.117	58.87
681.444	58.89
681.771	58.95
682.097	58.93
682.424	59.04
682.75	59.15
683.077	59.19
683.403	59.15
683.729	59.23
684.056	59.27
684.382	59.33
684.708	59.32
685.034	59.44
685.36	59.26
685.686	59.28
686.012	59.32
686.339	59.37
686.664	59.47
686.99	59.25
687.316	59.27
687.642	59.45
687.968	59.49
688.294	59.44
688.619	59.52
688.945	59.62
689.271	59.65
689.596	59.46
689.922	59.47
690.247	59.49
690.573	59.36
690.898	59.23
691.224	59.08
691.549	59.14
691.874	58.99
692.2	59.29
692.525	59.39
692.85	59.39
693.175	59.39
693.5	59.27
693.825	59.47
694.15	59.25
694.475	59.44
694.8	59.55
695.125	59.91
695.45	59.77
695.775	59.71
696.099	59.53
696.424	59.75
696.749	59.92
697.073	59.96
697.398	60.18
697.723	60.35
698.047	60.54
698.372	60.56
698.696	60.7
699.02	60.65
699.345	60.65
699.669	60.66
699.993	60.71
700.318	60.7
700.642	60.81
700.966	61.01
701.29	60.78
701.614	60.81
701.938	60.43
702.262	60.52
702.586	60.51
702.91	60.7
703.234	60.62
703.557	60.23
703.881	60.29
704.205	60.27
704.529	60.03
704.852	59.81
705.176	59.67
705.499	59.48
705.823	59.23
706.146	59.35
706.47	59.26
706.793	59.46
707.117	59.59
707.44	59.41
707.763	59.17
708.086	59.22
708.409	59.12
708.733	59.16
709.056	59.05
709.379	59.06
709.702	58.97
710.025	58.85
710.348	59.02
710.671	59.05
710.993	59.14
711.316	59.35
711.639	59.35
711.962	59.32
712.284	59.39
712.607	59.43
712.93	59.47
713.252	59.38
713.575	59.37
713.897	59.43
714.22	59.47
714.542	59.74
714.864	59.73
715.187	59.79
715.509	59.92
715.831	60.08
716.153	60.14
716.475	60.2
716.798	60.37
717.12	60.22
717.442	60.04
717.764	59.74
718.085	59.56
718.407	59.57
718.729	59.8
719.051	59.69
719.373	59.73
719.695	59.5
720.016	59.75
720.338	59.48
720.659	59.32
720.981	59.28
721.302	59.23
721.624	59.31
721.945	59.36
722.267	59.21
722.588	59.08
722.909	58.87
723.231	58.7
723.552	58.78
723.873	59.14
724.194	59.21
724.515	59.32
724.836	59.47
725.157	59.68
725.478	59.47
725.799	59.71
726.12	60
726.441	60.05
726.762	59.95
727.083	60.07
727.403	59.96
727.724	60.04
728.045	59.99
728.365	59.92
728.686	59.99
729.006	60.19
729.327	60.58
729.647	60.81
729.967	60.76
730.288	60.43
730.608	60.45
730.928	60.53
731.249	60.58
731.569	60.67
731.889	60.86
732.209	60.79
732.529	60.82
732.849	60.69
733.169	60.75
733.489	60.82
733.809	60.75
734.129	60.68
734.448	60.77
734.768	60.67
735.088	60.84
735.408	60.77
735.727	60.79
736.047	60.51
736.366	60.45
736.686	60.67
737.005	61.12
737.325	60.97
737.644	60.84
737.963	60.81
738.283	60.6
738.602	60.24
738.921	60.36
739.24	60.1
739.56	60.04
739.879	60.18
740.198	60.22
740.517	60.04
740.836	60.32
741.155	59.91
741.473	59.96
741.792	59.79
742.111	59.84
742.43	59.64
742.748	59.57
743.067	59.64
743.386	59.69
743.704	59.39
744.023	59.46
744.341	59.5
744.66	59.25
744.978	59.58
745.297	59.85
745.615	59.85
745.933	59.73
746.252	59.72
746.57	59.82
746.888	59.61
747.206	59.77
747.524	59.55
747.842	59.77
748.16	60.06
748.478	60.08
748.796	60.23
749.114	60.36
749.432	60.23
749.749	60.32
750.067	60.31
750.385	60.29
750.703	60.12
751.02	60.24
751.338	60.52
751.655	60.16
751.973	60.28
752.29	60.39
752.608	60.8
752.925	60.87
753.242	60.91
753.56	60.48
753.877	60.72
754.194	61.29
754.511	61.36
754.828	61.19
755.145	61.04
755.462	60.63
755.779	60.83
756.096	61.2
756.413	61.31
756.73	61.23
757.047	60.99
757.364	61.06
757.68	61.13
757.997	61.04
758.314	61.27
758.63	61.1
758.947	61.2
759.264	60.84
759.58	60.97
759.896	60.55
760.213	60.95
760.529	60.87
760.846	60.69
761.162	61.06
761.478	61.12
761.794	61.25
762.11	61.5
762.426	61.2
762.743	61.05
763.059	61.1
763.375	60.83
763.69	61.03
764.006	60.87
764.322	60.77
764.638	61.06
764.954	60.77
765.27	60.61
765.585	60.65
765.901	61.01
766.216	61.01
766.532	61.16
766.848	61.11
767.163	60.86
767.478	60.82
767.794	60.26
768.109	59.84
768.424	59.8
768.74	59.8
769.055	60.13
769.37	59.71
769.685	59.22
770	59.3
770.315	59.29
770.63	59.87
770.945	59.4
771.26	59.27
771.575	59.26
771.89	59.3
772.205	59.23
772.52	59.08
772.834	58.94
773.149	58.81
773.464	58.94
773.778	59.35
774.093	59.27
774.407	59.8
774.722	60.34
775.036	60.47
775.351	60.46
775.665	60.35
775.979	60.46
776.293	60.57
776.608	60.91
776.922	60.82
777.236	60.24
777.55	61.05
777.864	60.48
778.178	60.71
778.492	61.02
778.806	60.98
779.12	60.73
779.434	60.77
779.747	61.26
780.061	61.31
780.375	61.74
780.689	61.76
781.002	61.48
781.316	61.36
781.629	61.52
781.943	61.13
782.256	60.61
782.57	61.87
782.883	62.2
783.196	61.79
783.51	61.86
783.823	62.04
784.136	61.52
784.449	62.07
784.762	62.54
785.075	62.07
785.388	62.21
785.701	62.57
786.014	62.46
786.327	62.43
786.64	62.64
786.953	62.27
787.266	62.94
787.578	63.11
787.891	63.11
788.204	62.82
788.516	63.17
788.829	63.68
789.141	63.59
789.454	63.9
789.766	64.67
790.079	64.48
790.391	64.62
790.703	64.46
791.016	64.13
791.328	63.86
791.64	64.05
791.952	63.94
792.264	63.8
792.576	64.23
792.888	63.73
793.2	63.31
793.512	63.5
793.824	62.94
794.136	62.85
794.448	62.95
794.76	63.12
795.071	63.31
795.383	62.94
795.695	62.05
796.006	60.77
796.318	59.79
796.629	60.04
796.941	60.15
797.252	60.68
797.564	60.73
797.875	60.85
798.186	61.17
798.497	61.18
798.809	60.94
799.12	60.57
799.431	61.11
799.742	61.71
800.053	61.45
800.364	62.02
800.675	61.89
800.986	61.69
801.297	61.76
801.608	61.13
801.918	61.47
802.229	61.68
802.54	61.67
802.851	62.52
803.161	62.75
803.472	62.24
803.782	62.79
804.093	62.98
804.403	62.84
804.714	62.3
805.024	61.95
805.334	62.08
805.645	62.92
805.955	62.75
806.265	61.97
806.575	61.86
806.885	61.22
807.195	61.08
807.505	61.29
807.815	61.58
808.125	62.14
808.435	62.05
808.745	62.45
809.055	63.4
809.365	63.17
809.674	62.6
809.984	62.93
810.294	61.87
810.603	61.92
810.913	62.38
811.222	62.17
811.532	63.34
811.841	63.96
812.151	62.81
812.46	62.84
812.769	62.69
813.079	62.78
813.388	62.53
813.697	62.37
814.006	63.02
814.315	62.37
814.624	62.02
814.933	61.53
815.242	61.45
815.551	61.79
815.86	61.9
816.169	62.36
816.478	62
816.786	62.29
817.095	62.46
817.404	61.43
817.712	61.18
818.021	60.64
818.33	59.87
818.638	60.16
818.947	59.9
819.255	60.1
819.563	60.74
819.872	60.52
820.18	61.17
820.488	60.99
820.796	60.64
821.105	60.76
821.413	60.78
821.721	60.53
822.029	60.54
822.337	60.33
822.645	60.08
822.953	60.4
823.26	60.48
823.568	60.28
823.876	60.35
824.184	60.56
824.491	60.18
824.799	60.36
825.107	60.29
825.414	60.16
825.722	60.09
826.029	59.95
826.337	60.16
826.644	59.96
826.951	60.03
827.259	60.13
827.566	59.99
827.873	60.07
828.18	60.3
828.488	60.13
828.795	60.64
829.102	60.98
829.409	60.51
829.716	60.43
830.023	60.62
830.329	61.11
830.636	60.83
830.943	61.59
831.25	61.33
831.557	61.69
831.863	61.89
832.17	62.17
832.476	62.16
832.783	61.92
833.089	62.42
833.396	61.81
833.702	62.24
834.009	62.33
834.315	62.43
834.621	62.42
834.928	62.93
835.234	62.19
835.54	61.54
835.846	61.64
836.152	61.94
836.458	62.1
836.764	61.27
837.07	60.97
837.376	61.2
837.682	61.82
837.988	61.92
838.293	62.25
838.599	62.52
838.905	62.08
839.211	62.17
839.516	61.57
839.822	61.8
840.127	61.47
840.433	60.96
840.738	60.71
841.044	60.35
841.349	59.75
841.654	59.87
841.959	60.91
842.265	61.42
842.57	60.24
842.875	60.29
843.18	60.68
843.485	61.23
843.79	59.88
844.095	58.42
844.4	58.72
844.705	58.49
845.01	58.18
845.315	56.92
845.619	56.5
845.924	55.63
846.229	56.05
846.533	56.62
846.838	57.83
847.142	57.78
847.447	58.02
847.751	58.21
848.056	59.6
848.36	58.69
848.664	57.37
848.969	57.3
849.273	59.36
849.577	58.1
849.881	60.97
850.185	61.13
850.489	61.87
850.794	59.7
851.097	58.7
851.401	59.07
851.705	61.41
852.009	61.79
852.313	62.03
852.617	62.16
852.92	63.81
853.224	64.61
853.528	65.83
853.831	66.99
854.135	66.47
854.438	65.39
854.742	66.31
855.045	66.74
855.349	66.89
855.652	66.02
855.955	68.12
856.259	67.73
856.562	70.57
856.865	68.59
857.168	68.63
857.471	71.64
857.774	70.65
858.077	70.28
858.38	72
858.683	70.95
858.986	70.03
859.289	67.92
859.592	68.69
859.894	66.34
860.197	64.84
860.5	65.07
860.802	64.06
861.105	62.72
861.407	62.68
861.71	63.41
862.012	62.51
862.315	62.04
862.617	62.6
862.919	60.49
863.222	61.91
863.524	61.76
863.826	60.03
864.128	63.6
864.43	64.4
864.732	63.53
865.034	66.58
865.336	66.98
865.638	68.3
865.94	69.25
866.242	71.09
866.544	72.15
866.846	71.44
867.147	73.61
867.449	76.29
867.751	77.87
868.052	78.08
868.354	78.56
868.655	78.11
868.957	75.99
869.258	77.25
869.56	75.82
869.861	74.07
870.162	74.23
870.463	70.07
870.765	70.91
871.066	69.21
871.367	66.1
871.668	66.9
871.969	65.09
872.27	63.03
872.571	62.32
872.872	64.63
873.173	63.73
873.473	60.11
873.774	63.49
874.075	62.37
874.376	61.01
874.676	62.35
874.977	61.26
875.277	60.19
875.578	62.55
875.878	63.62
876.179	66.64
876.479	67.05
876.78	67.95
877.08	66.27
877.38	67.97
877.68	70.96
877.981	69.97
878.281	71.15
878.581	70.64
