Data from BU58137_Reflection_00015.txt Node
Date: Mon Nov 18 16:40:06 EST 2019
User: vgr7
Spectrometer: USB2G7710
Scans to average: 3
Trigger mode: 4
Integration Time (sec): 2.000000E-2
Electric dark correction enabled: true
Boxcar width: 10
XAxis mode: Wavelengths
Number of Pixels in Spectrum: 2048
>>>>>Begin Spectral Data<<<<<
177.721	-100.85
178.105	-70.65
178.488	-16.82
178.871	-67.68
179.254	87.15
179.636	-12.24
180.019	-147
180.402	150
180.785	-11.91
181.168	195.09
181.55	-354.55
181.933	139.63
182.316	226.64
182.698	316.32
183.081	287.56
183.463	207.6
183.846	238.5
184.228	187.19
184.611	148.5
184.993	293.59
185.376	193.38
185.758	244.56
186.14	234.73
186.522	266.89
186.904	1327.54
187.287	462.27
187.669	-784.17
188.051	381.18
188.433	-468.24
188.815	-356.56
189.197	-254.38
189.579	-195.81
189.961	-224.93
190.342	-225.2
190.724	-318.93
191.106	-371.65
191.488	-160.66
191.869	-184.77
192.251	-129.76
192.633	-118.87
193.014	-145.2
193.396	-134.11
193.777	-145.84
194.159	-138.9
194.54	-131.84
194.922	-115.08
195.303	-92
195.684	-96.38
196.065	-42.07
196.447	-53.94
196.828	-60.21
197.209	-41.91
197.59	-52.38
197.971	-31.37
198.352	-22.52
198.733	0.08
199.114	-4.87
199.495	-20.73
199.876	-12.21
200.257	-12.54
200.638	-10.37
201.018	-3.51
201.399	3.42
201.78	15.38
202.16	27.37
202.541	19.89
202.922	19.09
203.302	27.84
203.683	12.38
204.063	-0.84
204.444	8.29
204.824	26.61
205.204	30.89
205.585	40.01
205.965	33.6
206.345	13.09
206.725	-8.26
207.106	0.3
207.486	-6.21
207.866	-9.96
208.246	1.53
208.626	2.27
209.006	13.95
209.386	-3
209.766	-7.9
210.145	-14.73
210.525	-23
210.905	-21.4
211.285	-22.03
211.664	-15.17
212.044	-22.07
212.424	-19.57
212.803	-28.87
213.183	-36.06
213.562	-38.76
213.942	-25.58
214.321	-18.39
214.701	-18.77
215.08	-26
215.459	-21.2
215.838	-28.71
216.218	-30.01
216.597	-22.62
216.976	-29.53
217.355	-29.28
217.734	-35.78
218.113	-26.45
218.492	3.32
218.871	7.29
219.25	23.28
219.629	-0.68
220.008	11.96
220.387	22.16
220.766	36.25
221.144	6.33
221.523	10.66
221.902	5.94
222.28	-7.62
222.659	-2.84
223.037	-0.72
223.416	-14.16
223.794	-6.65
224.173	-5.41
224.551	-4.51
224.929	-7.41
225.308	-1.77
225.686	-3.78
226.064	-4.52
226.442	-4.72
226.821	-1.8
227.199	-3.93
227.577	-6.56
227.955	-10.54
228.333	-12.49
228.711	-9.12
229.089	-1.5
229.467	-5.1
229.845	-7.12
230.222	-5.13
230.6	-5.38
230.978	-5.82
231.356	-1.09
231.733	-2.23
232.111	-1.57
232.488	-0.86
232.866	-1.64
233.243	-1.14
233.621	-1.2
233.998	-1.34
234.376	-1.87
234.753	-1.75
235.13	0.1
235.508	1.4
235.885	1.94
236.262	1.33
236.639	-0.21
237.016	-1.29
237.393	0.76
237.77	0.78
238.147	2.33
238.524	2.84
238.901	3.13
239.278	2.68
239.655	4.13
240.032	3.9
240.409	3.12
240.785	4.46
241.162	4.28
241.539	4.23
241.915	4.39
242.292	3.63
242.668	3.63
243.045	3.03
243.421	2.58
243.798	2.72
244.174	3.21
244.551	3.42
244.927	3.33
245.303	3.43
245.679	3.83
246.056	3.29
246.432	3.18
246.808	3.26
247.184	2.89
247.56	2.47
247.936	2.45
248.312	2.6
248.688	2.37
249.064	2.11
249.44	2.2
249.815	2.26
250.191	2.52
250.567	2.5
250.943	2.44
251.318	2.75
251.694	2.82
252.069	2.71
252.445	2.79
252.82	2.8
253.196	2.7
253.571	2.26
253.947	2.6
254.322	2.63
254.697	2.69
255.073	2.79
255.448	2.74
255.823	2.66
256.198	2.92
256.573	2.78
256.948	3.11
257.323	3.4
257.698	3.23
258.073	3.26
258.448	3.17
258.823	3.2
259.198	3.15
259.573	3.17
259.948	3.03
260.322	2.98
260.697	2.89
261.072	2.87
261.446	2.88
261.821	2.7
262.195	2.68
262.57	2.61
262.944	2.61
263.319	2.69
263.693	2.76
264.067	2.6
264.442	2.79
264.816	2.57
265.19	2.32
265.564	2.19
265.938	2.05
266.313	1.97
266.687	1.98
267.061	1.96
267.435	1.89
267.809	1.88
268.183	1.82
268.556	1.85
268.93	1.92
269.304	2.05
269.678	2.17
270.051	2.14
270.425	2.24
270.799	2.33
271.172	2.31
271.546	2.32
271.919	2.18
272.293	1.99
272.666	2.25
273.04	2.32
273.413	2.44
273.787	2.48
274.16	2.48
274.533	2.41
274.906	2.3
275.279	2.34
275.653	2.46
276.026	2.47
276.399	2.58
276.772	2.53
277.145	2.5
277.518	2.52
277.891	2.76
278.263	2.64
278.636	2.57
279.009	2.73
279.382	2.85
279.755	3.06
280.127	3.27
280.5	3.21
280.872	3.35
281.245	3.26
281.617	3.3
281.99	3.43
282.362	3.45
282.735	3.42
283.107	3.17
283.479	3.05
283.852	3.06
284.224	2.99
284.596	2.92
284.968	2.99
285.34	3.02
285.713	2.96
286.085	3
286.457	3.17
286.829	3.12
287.201	2.95
287.572	2.86
287.944	2.74
288.316	2.74
288.688	2.54
289.06	2.58
289.431	2.52
289.803	2.49
290.175	2.55
290.546	2.68
290.918	2.97
291.289	3.04
291.661	3.02
292.032	3.14
292.403	3.23
292.775	3.2
293.146	3.26
293.517	3.29
293.889	3.46
294.26	3.28
294.631	3.26
295.002	3.38
295.373	3.47
295.744	3.42
296.115	3.39
296.486	3.4
296.857	3.46
297.228	3.54
297.599	3.53
297.97	3.53
298.34	3.65
298.711	3.53
299.082	3.49
299.452	3.61
299.823	3.61
300.194	3.63
300.564	3.63
300.935	3.69
301.305	3.62
301.676	3.53
302.046	3.81
302.416	3.98
302.787	4
303.157	4
303.527	4.01
303.897	4.14
304.267	4.43
304.637	4.38
305.008	4.38
305.378	4.62
305.748	4.79
306.117	4.78
306.487	4.94
306.857	5.1
307.227	5.08
307.597	5.2
307.967	5.3
308.336	5.41
308.706	5.46
309.076	5.54
309.445	5.67
309.815	5.53
310.184	5.52
310.554	5.63
310.923	5.77
311.293	5.78
311.662	5.79
312.031	5.69
312.401	5.73
312.77	5.99
313.139	6.02
313.508	6.02
313.877	6.05
314.246	6.04
314.616	6.06
314.985	6.22
315.353	6.24
315.722	6.32
316.091	6.33
316.46	6.26
316.829	6.52
317.198	6.53
317.567	6.7
317.935	6.82
318.304	6.89
318.672	6.77
319.041	6.98
319.41	6.93
319.778	6.98
320.147	7.35
320.515	7.22
320.883	7.16
321.252	7.37
321.62	7.45
321.988	7.53
322.357	7.76
322.725	7.69
323.093	7.73
323.461	7.82
323.829	7.89
324.197	8.05
324.565	8.01
324.933	8.1
325.301	8.12
325.669	8.17
326.037	8.17
326.405	8.27
326.772	8.33
327.14	8.57
327.508	8.64
327.875	8.45
328.243	8.53
328.61	8.53
328.978	8.53
329.346	8.53
329.713	8.63
330.08	8.56
330.448	8.5
330.815	8.58
331.182	8.58
331.55	8.65
331.917	8.61
332.284	8.67
332.651	8.7
333.018	8.86
333.385	8.99
333.752	9.01
334.119	9.1
334.486	9.15
334.853	9.22
335.22	9.28
335.587	9.5
335.954	9.52
336.32	9.71
336.687	9.62
337.054	9.73
337.42	9.76
337.787	9.88
338.153	10.02
338.52	10.13
338.886	10.09
339.253	10.1
339.619	10.22
339.986	10.16
340.352	10.21
340.718	10.1
341.084	9.96
341.451	10.13
341.817	10.19
342.183	10.22
342.549	10.13
342.915	10.14
343.281	10.06
343.647	10.04
344.013	9.92
344.379	9.96
344.745	9.95
345.11	9.91
345.476	9.91
345.842	9.92
346.208	9.89
346.573	9.94
346.939	9.99
347.304	9.98
347.67	10.01
348.035	10
348.401	10
348.766	10.01
349.132	9.91
349.497	9.85
349.862	9.87
350.228	9.82
350.593	9.78
350.958	9.77
351.323	9.77
351.688	9.87
352.053	9.82
352.418	9.87
352.783	9.86
353.148	9.78
353.513	9.79
353.878	9.66
354.243	9.66
354.608	9.62
354.972	9.64
355.337	9.65
355.702	9.71
356.066	9.7
356.431	9.7
356.795	9.67
357.16	9.59
357.524	9.54
357.889	9.5
358.253	9.45
358.618	9.46
358.982	9.37
359.346	9.26
359.71	9.31
360.075	9.23
360.439	9.24
360.803	9.24
361.167	9.17
361.531	9.15
361.895	9.1
362.259	9.08
362.623	9.03
362.987	8.92
363.351	8.86
363.714	8.82
364.078	8.74
364.442	8.67
364.806	8.62
365.169	8.56
365.533	8.55
365.896	8.55
366.26	8.4
366.623	8.41
366.987	8.39
367.35	8.29
367.714	8.24
368.077	8.13
368.44	8.1
368.803	8.04
369.167	7.96
369.53	7.89
369.893	7.85
370.256	7.77
370.619	7.69
370.982	7.53
371.345	7.46
371.708	7.44
372.071	7.42
372.434	7.39
372.797	7.32
373.159	7.23
373.522	7.17
373.885	7.17
374.247	7.11
374.61	6.95
374.973	6.83
375.335	6.68
375.698	6.6
376.06	6.51
376.423	6.42
376.785	6.39
377.147	6.34
377.51	6.24
377.872	6.19
378.234	6.11
378.596	6.05
378.958	6.02
379.321	5.98
379.683	5.93
380.045	5.84
380.407	5.74
380.769	5.69
381.13	5.63
381.492	5.52
381.854	5.51
382.216	5.53
382.578	5.57
382.939	5.5
383.301	5.46
383.663	5.36
384.024	5.36
384.386	5.35
384.747	5.31
385.109	5.31
385.47	5.19
385.832	5.22
386.193	5.27
386.554	5.22
386.916	5.17
387.277	5.12
387.638	5.13
387.999	5.09
388.36	5.05
388.721	4.99
389.082	5.01
389.443	4.92
389.804	4.9
390.165	4.79
390.526	4.84
390.887	4.78
391.248	4.8
391.609	4.69
391.969	4.63
392.33	4.57
392.691	4.49
393.051	4.5
393.412	4.44
393.772	4.33
394.133	4.3
394.493	4.24
394.854	4.18
395.214	4.1
395.574	4.1
395.935	4.05
396.295	4.02
396.655	3.95
397.015	3.92
397.376	3.87
397.736	3.85
398.096	3.77
398.456	3.74
398.816	3.72
399.176	3.74
399.535	3.71
399.895	3.69
400.255	3.69
400.615	3.67
400.975	3.69
401.334	3.67
401.694	3.65
402.054	3.61
402.413	3.61
402.773	3.57
403.132	3.54
403.492	3.57
403.851	3.55
404.211	3.56
404.57	3.55
404.929	3.55
405.288	3.54
405.648	3.53
406.007	3.53
406.366	3.49
406.725	3.48
407.084	3.47
407.443	3.44
407.802	3.43
408.161	3.41
408.52	3.35
408.879	3.33
409.238	3.32
409.596	3.33
409.955	3.31
410.314	3.34
410.673	3.32
411.031	3.27
411.39	3.27
411.748	3.25
412.107	3.23
412.465	3.19
412.824	3.17
413.182	3.13
413.54	3.13
413.899	3.13
414.257	3.11
414.615	3.13
414.974	3.14
415.332	3.12
415.69	3.09
416.048	3.07
416.406	3.04
416.764	3.01
417.122	3.01
417.48	2.98
417.838	2.96
418.195	2.95
418.553	2.93
418.911	2.92
419.269	2.9
419.626	2.89
419.984	2.89
420.342	2.89
420.699	2.88
421.057	2.87
421.414	2.85
421.772	2.83
422.129	2.82
422.486	2.81
422.844	2.8
423.201	2.78
423.558	2.78
423.915	2.79
424.273	2.8
424.63	2.76
424.987	2.77
425.344	2.76
425.701	2.75
426.058	2.76
426.415	2.74
426.772	2.74
427.128	2.74
427.485	2.72
427.842	2.71
428.199	2.72
428.555	2.71
428.912	2.71
429.269	2.72
429.625	2.7
429.982	2.7
430.338	2.7
430.695	2.7
431.051	2.7
431.407	2.7
431.764	2.68
432.12	2.68
432.476	2.69
432.832	2.67
433.189	2.69
433.545	2.69
433.901	2.69
434.257	2.69
434.613	2.69
434.969	2.7
435.325	2.71
435.681	2.71
436.036	2.69
436.392	2.7
436.748	2.69
437.104	2.67
437.459	2.67
437.815	2.67
438.171	2.69
438.526	2.69
438.882	2.67
439.237	2.67
439.593	2.69
439.948	2.7
440.304	2.7
440.659	2.7
441.014	2.68
441.369	2.68
441.725	2.65
442.08	2.65
442.435	2.65
442.79	2.63
443.145	2.61
443.5	2.63
443.855	2.6
444.21	2.59
444.565	2.59
444.92	2.58
445.275	2.56
445.629	2.55
445.984	2.56
446.339	2.56
446.693	2.54
447.048	2.52
447.403	2.51
447.757	2.51
448.112	2.5
448.466	2.5
448.82	2.49
449.175	2.52
449.529	2.51
449.883	2.49
450.238	2.48
450.592	2.5
450.946	2.47
451.3	2.48
451.654	2.48
452.008	2.49
452.362	2.49
452.716	2.5
453.07	2.48
453.424	2.47
453.778	2.48
454.132	2.5
454.486	2.52
454.839	2.51
455.193	2.5
455.547	2.49
455.9	2.49
456.254	2.5
456.607	2.48
456.961	2.49
457.314	2.49
457.668	2.49
458.021	2.48
458.375	2.5
458.728	2.5
459.081	2.51
459.434	2.51
459.787	2.52
460.141	2.51
460.494	2.53
460.847	2.52
461.2	2.52
461.553	2.53
461.906	2.53
462.259	2.54
462.611	2.55
462.964	2.56
463.317	2.57
463.67	2.6
464.022	2.59
464.375	2.59
464.728	2.62
465.08	2.63
465.433	2.64
465.785	2.64
466.138	2.64
466.49	2.64
466.843	2.66
467.195	2.65
467.547	2.66
467.899	2.68
468.252	2.68
468.604	2.7
468.956	2.67
469.308	2.66
469.66	2.65
470.012	2.68
470.364	2.68
470.716	2.68
471.068	2.66
471.42	2.67
471.772	2.7
472.123	2.7
472.475	2.7
472.827	2.73
473.178	2.74
473.53	2.74
473.882	2.75
474.233	2.74
474.585	2.72
474.936	2.72
475.288	2.71
475.639	2.73
475.99	2.72
476.342	2.72
476.693	2.71
477.044	2.74
477.395	2.72
477.746	2.71
478.097	2.72
478.448	2.7
478.8	2.69
479.15	2.65
479.501	2.64
479.852	2.64
480.203	2.63
480.554	2.63
480.905	2.63
481.255	2.62
481.606	2.63
481.957	2.65
482.307	2.65
482.658	2.66
483.009	2.65
483.359	2.65
483.709	2.66
484.06	2.66
484.41	2.66
484.761	2.67
485.111	2.67
485.461	2.67
485.811	2.68
486.162	2.68
486.512	2.7
486.862	2.71
487.212	2.71
487.562	2.72
487.912	2.72
488.262	2.73
488.612	2.73
488.961	2.74
489.311	2.74
489.661	2.76
490.011	2.75
490.36	2.75
490.71	2.75
491.06	2.76
491.409	2.76
491.759	2.76
492.108	2.76
492.458	2.77
492.807	2.76
493.157	2.77
493.506	2.78
493.855	2.79
494.204	2.78
494.554	2.79
494.903	2.81
495.252	2.81
495.601	2.81
495.95	2.83
496.299	2.83
496.648	2.85
496.997	2.86
497.346	2.89
497.695	2.92
498.043	2.96
498.392	2.97
498.741	2.99
499.09	3.02
499.438	3.04
499.787	3.07
500.135	3.13
500.484	3.16
500.832	3.16
501.181	3.19
501.529	3.22
501.878	3.25
502.226	3.26
502.574	3.31
502.923	3.36
503.271	3.38
503.619	3.43
503.967	3.46
504.315	3.49
504.663	3.52
505.011	3.56
505.359	3.6
505.707	3.66
506.055	3.71
506.403	3.76
506.751	3.82
507.098	3.86
507.446	3.92
507.794	3.96
508.141	4.03
508.489	4.07
508.837	4.13
509.184	4.19
509.531	4.26
509.879	4.31
510.226	4.39
510.574	4.44
510.921	4.5
511.268	4.56
511.616	4.63
511.963	4.69
512.31	4.76
512.657	4.82
513.004	4.86
513.351	4.95
513.698	5.05
514.045	5.12
514.392	5.2
514.739	5.26
515.086	5.37
515.432	5.44
515.779	5.54
516.126	5.63
516.473	5.73
516.819	5.81
517.166	5.88
517.512	5.95
517.859	6.03
518.205	6.1
518.552	6.18
518.898	6.24
519.245	6.32
519.591	6.4
519.937	6.46
520.283	6.55
520.629	6.65
520.976	6.72
521.322	6.83
521.668	6.92
522.014	7.03
522.36	7.11
522.706	7.24
523.052	7.38
523.398	7.54
523.743	7.69
524.089	7.84
524.435	7.98
524.781	8.11
525.126	8.26
525.472	8.4
525.817	8.52
526.163	8.62
526.509	8.73
526.854	8.85
527.199	8.95
527.545	9.06
527.89	9.15
528.235	9.26
528.581	9.37
528.926	9.49
529.271	9.61
529.616	9.73
529.961	9.85
530.306	9.96
530.651	10.08
530.996	10.21
531.341	10.35
531.686	10.5
532.031	10.66
532.376	10.81
532.721	10.97
533.065	11.15
533.41	11.33
533.755	11.53
534.099	11.71
534.444	11.91
534.788	12.08
535.133	12.27
535.477	12.45
535.822	12.64
536.166	12.85
536.51	13.07
536.855	13.32
537.199	13.57
537.543	13.83
537.887	14.1
538.231	14.37
538.576	14.65
538.92	14.95
539.264	15.22
539.608	15.47
539.951	15.7
540.295	15.94
540.639	16.17
540.983	16.39
541.327	16.62
541.671	16.82
542.014	17.04
542.358	17.26
542.701	17.49
543.045	17.71
543.389	17.95
543.732	18.18
544.075	18.43
544.419	18.67
544.762	18.89
545.105	19.16
545.449	19.43
545.792	19.69
546.135	19.97
546.478	20.27
546.821	20.6
547.165	20.94
547.508	21.25
547.851	21.56
548.194	21.88
548.536	22.2
548.879	22.57
549.222	22.94
549.565	23.3
549.908	23.69
550.25	24.09
550.593	24.42
550.936	24.77
551.278	25.12
551.621	25.51
551.963	25.93
552.306	26.25
552.648	26.55
552.991	26.91
553.333	27.26
553.675	27.55
554.017	27.86
554.36	28.17
554.702	28.48
555.044	28.83
555.386	29.18
555.728	29.51
556.07	29.86
556.412	30.15
556.754	30.45
557.096	30.77
557.438	31.04
557.78	31.4
558.121	31.8
558.463	32.13
558.805	32.44
559.147	32.75
559.488	33
559.83	33.26
560.171	33.52
560.513	33.81
560.854	34.08
561.196	34.4
561.537	34.68
561.878	34.99
562.22	35.26
562.561	35.58
562.902	35.85
563.243	36.1
563.584	36.41
563.925	36.71
564.266	36.96
564.607	37.18
564.948	37.49
565.289	37.68
565.63	37.93
565.971	38.18
566.312	38.41
566.653	38.72
566.993	39.04
567.334	39.31
567.675	39.53
568.015	39.74
568.356	39.95
568.696	40.22
569.037	40.45
569.377	40.68
569.718	40.86
570.058	41.04
570.398	41.22
570.739	41.43
571.079	41.61
571.419	41.84
571.759	42.06
572.099	42.21
572.439	42.43
572.779	42.58
573.119	42.74
573.459	42.92
573.799	43.06
574.139	43.18
574.479	43.39
574.819	43.61
575.158	43.82
575.498	44.01
575.838	44.17
576.177	44.37
576.517	44.52
576.856	44.74
577.196	44.95
577.535	45.17
577.875	45.34
578.214	45.49
578.553	45.68
578.893	45.83
579.232	45.97
579.571	46.08
579.91	46.28
580.25	46.41
580.589	46.54
580.928	46.73
581.267	46.87
581.606	46.98
581.945	46.95
582.283	47.08
582.622	47.25
582.961	47.38
583.3	47.43
583.639	47.65
583.977	47.75
584.316	47.89
584.654	48.02
584.993	48.19
585.332	48.46
585.67	48.45
586.008	48.67
586.347	48.8
586.685	48.96
587.024	49.04
587.362	49.22
587.7	49.34
588.038	49.48
588.376	49.68
588.715	49.71
589.053	49.93
589.391	50.08
589.729	50.17
590.067	50.25
590.404	50.37
590.742	50.38
591.08	50.47
591.418	50.6
591.756	50.71
592.093	50.76
592.431	50.76
592.769	50.9
593.106	50.97
593.444	51
593.781	51.04
594.119	51.16
594.456	51.18
594.793	51.27
595.131	51.34
595.468	51.43
595.805	51.6
596.143	51.66
596.48	51.67
596.817	51.71
597.154	51.83
597.491	51.94
597.828	52.07
598.165	52.15
598.502	52.22
598.839	52.26
599.176	52.32
599.512	52.4
599.849	52.49
600.186	52.53
600.523	52.7
600.859	52.79
601.196	52.9
601.532	52.99
601.869	53.05
602.205	53.11
602.542	53.14
602.878	53.12
603.215	53.21
603.551	53.41
603.887	53.46
604.223	53.43
604.56	53.46
604.896	53.5
605.232	53.57
605.568	53.56
605.904	53.65
606.24	53.7
606.576	53.79
606.912	53.89
607.248	53.91
607.583	53.9
607.919	53.97
608.255	53.99
608.591	54.09
608.926	54.16
609.262	54.25
609.597	54.25
609.933	54.34
610.268	54.33
610.604	54.31
610.939	54.39
611.275	54.53
611.61	54.55
611.945	54.55
612.281	54.5
612.616	54.62
612.951	54.65
613.286	54.7
613.621	54.7
613.956	54.67
614.291	54.76
614.626	54.82
614.961	54.84
615.296	54.85
615.631	54.88
615.966	54.85
616.3	54.86
616.635	54.99
616.97	55
617.304	55.06
617.639	55.11
617.973	55.07
618.308	55.05
618.642	55.15
618.977	55.19
619.311	55.31
619.646	55.35
619.98	55.24
620.314	55.26
620.648	55.31
620.983	55.38
621.317	55.46
621.651	55.44
621.985	55.6
622.319	55.6
622.653	55.63
622.987	55.75
623.321	55.83
623.655	55.75
623.988	55.78
624.322	55.78
624.656	55.75
624.99	55.75
625.323	55.67
625.657	55.65
625.99	55.71
626.324	55.73
626.657	55.76
626.991	55.91
627.324	55.96
627.658	55.97
627.991	56.01
628.324	55.97
628.657	56.02
628.991	55.94
629.324	56.03
629.657	56.04
629.99	56.03
630.323	56.05
630.656	56.07
630.989	56.14
631.322	56.19
631.655	56.26
631.987	56.29
632.32	56.4
632.653	56.43
632.986	56.52
633.318	56.43
633.651	56.35
633.984	56.41
634.316	56.36
634.649	56.39
634.981	56.37
635.313	56.44
635.646	56.5
635.978	56.62
636.31	56.59
636.643	56.68
636.975	56.72
637.307	56.72
637.639	56.89
637.971	56.9
638.303	56.93
638.635	56.88
638.967	56.9
639.299	56.94
639.631	56.95
639.963	56.8
640.295	56.93
640.626	56.86
640.958	56.84
641.29	56.95
641.621	56.98
641.953	57.05
642.285	57.06
642.616	57.16
642.948	57.14
643.279	57.12
643.61	57.02
643.942	57.09
644.273	57.13
644.604	57.04
644.936	57.09
645.267	57.07
645.598	57.16
645.929	57.25
646.26	57.31
646.591	57.31
646.922	57.37
647.253	57.38
647.584	57.55
647.915	57.49
648.245	57.52
648.576	57.41
648.907	57.4
649.238	57.39
649.568	57.34
649.899	57.29
650.229	57.38
650.56	57.45
650.89	57.4
651.221	57.37
651.551	57.44
651.882	57.47
652.212	57.54
652.542	57.41
652.872	57.4
653.203	57.38
653.533	57.4
653.863	57.46
654.193	57.42
654.523	57.47
654.853	57.52
655.183	57.55
655.513	57.63
655.843	57.69
656.172	57.71
656.502	57.7
656.832	57.68
657.162	57.61
657.491	57.65
657.821	57.66
658.15	57.69
658.48	57.6
658.809	57.55
659.139	57.51
659.468	57.48
659.798	57.61
660.127	57.64
660.456	57.69
660.785	57.64
661.115	57.73
661.444	57.7
661.773	57.71
662.102	57.62
662.431	57.65
662.76	57.63
663.089	57.67
663.418	57.7
663.747	57.78
664.076	57.97
664.404	57.77
664.733	57.82
665.062	57.8
665.39	57.83
665.719	57.92
666.048	57.94
666.376	58.07
666.705	57.94
667.033	57.99
667.362	57.95
667.69	58.05
668.018	57.93
668.347	57.9
668.675	57.96
669.003	58.03
669.331	58.05
669.659	58.08
669.987	58.04
670.315	58.05
670.643	58.15
670.971	58.17
671.299	58.22
671.627	58.29
671.955	58.42
672.283	58.46
672.61	58.32
672.938	58.35
673.266	58.38
673.593	58.4
673.921	58.37
674.249	58.31
674.576	58.33
674.904	58.35
675.231	58.34
675.558	58.17
675.886	58.1
676.213	58.03
676.54	57.87
676.867	57.88
677.195	57.74
677.522	57.72
677.849	57.72
678.176	57.86
678.503	57.88
678.83	57.74
679.157	57.76
679.484	57.77
679.81	57.82
680.137	57.84
680.464	57.81
680.791	57.74
681.117	57.91
681.444	57.78
681.771	57.94
682.097	57.93
682.424	57.98
682.75	57.99
683.077	58.12
683.403	58.14
683.729	58.13
684.056	58.19
684.382	58.08
684.708	57.89
685.034	57.82
685.36	57.71
685.686	57.73
686.012	57.78
686.339	57.88
686.664	57.73
686.99	57.64
687.316	57.54
687.642	57.6
687.968	57.49
688.294	57.69
688.619	57.42
688.945	57.43
689.271	57.53
689.596	57.61
689.922	57.64
690.247	57.68
690.573	57.66
690.898	57.77
691.224	57.79
691.549	57.83
691.874	57.88
692.2	57.75
692.525	57.71
692.85	57.46
693.175	57.39
693.5	57.53
693.825	57.66
694.15	57.77
694.475	57.76
694.8	57.75
695.125	57.71
695.45	57.88
695.775	57.99
696.099	58.02
696.424	58.02
696.749	57.88
697.073	57.86
697.398	57.9
697.723	58.01
698.047	58.07
698.372	58.06
698.696	58.06
699.02	58.2
699.345	58.24
699.669	58.4
699.993	58.49
700.318	58.38
700.642	58.42
700.966	58.35
701.29	58.28
701.614	58.29
701.938	58.32
702.262	58.26
702.586	58.18
702.91	58.17
703.234	58.18
703.557	58.27
703.881	58.35
704.205	58.4
704.529	58.17
704.852	58.1
705.176	58.09
705.499	58.12
705.823	58.05
706.146	58.05
706.47	58.14
706.793	58.21
707.117	58.54
707.44	58.37
707.763	58.34
708.086	58.34
708.409	58.34
708.733	58.09
709.056	58.17
709.379	58.21
709.702	58.05
710.025	57.88
710.348	57.97
710.671	57.91
710.993	57.98
711.316	58.14
711.639	58.13
711.962	58.13
712.284	58.04
712.607	58.1
712.93	58.2
713.252	58.16
713.575	58.05
713.897	58.01
714.22	58.15
714.542	58.36
714.864	58.48
715.187	58.6
715.509	58.75
715.831	58.93
716.153	58.89
716.475	59.02
716.798	59.1
717.12	58.93
717.442	58.84
717.764	58.91
718.085	58.72
718.407	58.81
718.729	58.91
719.051	58.74
719.373	58.61
719.695	58.43
720.016	58.51
720.338	58.4
720.659	58.4
720.981	58.26
721.302	58.24
721.624	58.19
721.945	58.11
722.267	58.22
722.588	57.96
722.909	58.08
723.231	58.2
723.552	58.19
723.873	58.24
724.194	58.15
724.515	57.79
724.836	58
725.157	57.81
725.478	57.89
725.799	58.17
726.12	58.2
726.441	58.33
726.762	58.11
727.083	58.33
727.403	57.98
727.724	58
728.045	57.88
728.365	57.84
728.686	57.9
729.006	57.85
729.327	57.88
729.647	58.01
729.967	57.93
730.288	58.02
730.608	57.96
730.928	58.19
731.249	58.47
731.569	58.26
731.889	58.33
732.209	58.15
732.529	58.08
732.849	58.24
733.169	58.32
733.489	58.33
733.809	58.16
734.129	58.41
734.448	58.33
734.768	58.41
735.088	58.44
735.408	58.39
735.727	58.18
736.047	58.23
736.366	58.12
736.686	58.18
737.005	58.33
737.325	58.33
737.644	58.41
737.963	58.15
738.283	58.23
738.602	58.44
738.921	58.56
739.24	58.73
739.56	58.59
739.879	58.55
740.198	58.59
740.517	58.58
740.836	58.23
741.155	58.37
741.473	58.37
741.792	58.54
742.111	58.39
742.43	58.66
742.748	58.56
743.067	58.63
743.386	58.48
743.704	58.11
744.023	58.12
744.341	57.73
744.66	57.93
744.978	57.83
745.297	57.6
745.615	57.34
745.933	57.16
746.252	57.22
746.57	56.97
746.888	56.99
747.206	57.2
747.524	57.67
747.842	57.94
748.16	57.84
748.478	57.66
748.796	57.79
749.114	57.49
749.432	57.34
749.749	57.08
750.067	56.89
750.385	57.33
750.703	57.4
751.02	57.8
751.338	57.75
751.655	57.85
751.973	57.92
752.29	58.2
752.608	58.37
752.925	58.21
753.242	58.41
753.56	58.15
753.877	57.79
754.194	57.77
754.511	57.32
754.828	57.1
755.145	56.99
755.462	57.24
755.779	57.69
756.096	57.96
756.413	58.06
756.73	58.23
757.047	58.02
757.364	58
757.68	58.1
757.997	58.13
758.314	58.12
758.63	57.9
758.947	57.84
759.264	57.78
759.58	57.54
759.896	57.42
760.213	57.62
760.529	57.7
760.846	57.62
761.162	57.56
761.478	57.93
761.794	58.09
762.11	57.8
762.426	57.55
762.743	57.84
763.059	57.93
763.375	57.98
763.69	58.08
764.006	58.08
764.322	58.05
764.638	58.25
764.954	58.38
765.27	58.59
765.585	58.7
765.901	58.8
766.216	59.01
766.532	58.98
766.848	59.2
767.163	59.29
767.478	59.46
767.794	59.86
768.109	59.92
768.424	59.89
768.74	60.09
769.055	60.2
769.37	59.69
769.685	59.52
770	59.5
770.315	59.29
770.63	59.34
770.945	59.02
771.26	58.89
771.575	58.62
771.89	58.45
772.205	58.29
772.52	58.11
772.834	58.19
773.149	58.55
773.464	58.29
773.778	58.61
774.093	58.34
774.407	58.05
774.722	57.7
775.036	57.72
775.351	57.45
775.665	57.59
775.979	57.41
776.293	57.53
776.608	57.53
776.922	57.71
777.236	57.68
777.55	58.09
777.864	57.81
778.178	58.46
778.492	58.76
778.806	58.88
779.12	58.96
779.434	59.08
779.747	59.22
780.061	59.62
780.375	59.5
780.689	59.81
781.002	60.22
781.316	60.74
781.629	60.92
781.943	61.26
782.256	60.85
782.57	61.52
782.883	61.72
783.196	61.84
783.51	61.64
783.823	61.52
784.136	61.4
784.449	61.69
784.762	61.35
785.075	61.39
785.388	61.38
785.701	60.74
786.014	60.5
786.327	60.05
786.64	59.7
786.953	59.67
787.266	59.34
787.578	58.96
787.891	58.8
788.204	58.63
788.516	58.46
788.829	58.75
789.141	58.85
789.454	58.44
789.766	58.78
790.079	58.54
790.391	59.18
790.703	59.31
791.016	59.16
791.328	59.71
791.64	59.62
791.952	59.66
792.264	60.01
792.576	60.18
792.888	59.91
793.2	59.71
793.512	59.99
793.824	60.2
794.136	60.6
794.448	59.73
794.76	59.66
795.071	59.79
795.383	59.77
795.695	59.73
796.006	59.76
796.318	59.29
796.629	59.92
796.941	58.86
797.252	58.82
797.564	59.2
797.875	58.4
798.186	58.05
798.497	58.07
798.809	58.36
799.12	58.51
799.431	59.01
799.742	59.36
800.053	59.04
800.364	58.8
800.675	58.1
800.986	58.87
801.297	58.96
801.608	59.26
801.918	59.01
802.229	58.83
802.54	59.49
802.851	59.36
803.161	59.27
803.472	59.79
803.782	59.8
804.093	59.25
804.403	60.13
804.714	60.21
805.024	59.7
805.334	59.38
805.645	59.79
805.955	59.32
806.265	59.3
806.575	59.28
806.885	59.36
807.195	59.93
807.505	60.24
807.815	60.01
808.125	59.92
808.435	59.98
808.745	60.1
809.055	59.97
809.365	60.28
809.674	60
809.984	59.98
810.294	60.31
810.603	60.51
810.913	60.01
811.222	60.83
811.532	61.68
811.841	62.16
812.151	61.02
812.46	61.04
812.769	60.56
813.079	59.88
813.388	60.51
813.697	59.97
814.006	59
814.315	59
814.624	58.62
814.933	58.96
815.242	58.86
815.551	58.61
815.86	58.09
816.169	58.38
816.478	58.16
816.786	57.66
817.095	56.6
817.404	55.9
817.712	55.18
818.021	55.53
818.33	55.38
818.638	55.88
818.947	55.93
819.255	56.26
819.563	56.74
819.872	56.6
820.18	57.11
820.488	57.23
820.796	57.15
821.105	57.25
821.413	57.57
821.721	57.71
822.029	58.09
822.337	58.12
822.645	58.06
822.953	58.18
823.26	58.16
823.568	58.32
823.876	58.48
824.184	58.54
824.491	58.15
824.799	58.07
825.107	58.13
825.414	58.39
825.722	58.38
826.029	58.49
826.337	58.44
826.644	58.43
826.951	58.54
827.259	58.63
827.566	58.52
827.873	58.35
828.18	58.12
828.488	57.68
828.795	57.78
829.102	57.6
829.409	57.58
829.716	57.74
830.023	57.73
830.329	57.73
830.636	57.64
830.943	58.15
831.25	58.25
831.557	58.18
831.863	57.96
832.17	57.82
832.476	57.3
832.783	57.15
833.089	56.99
833.396	56.78
833.702	56.66
834.009	56.88
834.315	56.6
834.621	56.74
834.928	56.91
835.234	56.87
835.54	57.04
835.846	57.11
836.152	56.95
836.458	56.95
836.764	56.47
837.07	56.16
837.376	55.78
837.682	55.95
837.988	55.99
838.293	55.95
838.599	55.87
838.905	55.54
839.211	55.56
839.516	55.83
839.822	56.02
840.127	56.39
840.433	56.28
840.738	55.94
841.044	56.05
841.349	56.68
841.654	56.88
841.959	57.78
842.265	58.05
842.57	58.1
842.875	57.75
843.18	59.54
843.485	60.7
843.79	60.83
844.095	60.68
844.4	60.67
844.705	61.5
845.01	63.37
845.315	64.36
845.619	62.58
845.924	61.68
846.229	63.21
846.533	62.95
846.838	63.03
847.142	64.4
847.447	63.7
847.751	60.87
848.056	60.4
848.36	60.8
848.664	59.85
848.969	58.14
849.273	58.23
849.577	55.58
849.881	55.9
850.185	56.74
850.489	56.61
850.794	55.31
851.097	55.79
851.401	57.36
851.705	57.89
852.009	64
852.313	64.45
852.617	61.38
852.92	62.05
853.224	61.79
853.528	60.81
853.831	62.48
854.135	64.03
854.438	63.51
854.742	60.06
855.045	60.55
855.349	63.55
855.652	62.35
855.955	63.02
856.259	61
856.562	62
856.865	62.88
857.168	64.2
857.471	63.16
857.774	59.14
858.077	57.82
858.38	56.06
858.683	55.3
858.986	56.6
859.289	57.45
859.592	54.39
859.894	56.91
860.197	56.02
860.5	57.28
860.802	58.37
861.105	57.2
861.407	56.89
861.71	55.38
862.012	56.15
862.315	54.92
862.617	58.07
862.919	55.94
863.222	54.59
863.524	54.32
863.826	51.92
864.128	51.99
864.43	53.04
864.732	51.78
865.034	51.25
865.336	50.52
865.638	50.95
865.94	53.88
866.242	52.12
866.544	51.37
866.846	50.23
867.147	48.12
867.449	50.02
867.751	48.51
868.052	47.76
868.354	48.59
868.655	52.49
868.957	49.59
869.258	49.91
869.56	49.29
869.861	48.7
870.162	51.75
870.463	53.3
870.765	53.2
871.066	52.51
871.367	53.96
871.668	54.38
871.969	52.13
872.27	51.73
872.571	51.58
872.872	53.3
873.173	52.45
873.473	55.06
873.774	57.22
874.075	58.14
874.376	58.08
874.676	60.57
874.977	55.33
875.277	57.14
875.578	59.88
875.878	61.56
876.179	62.41
876.479	60.58
876.78	58.89
877.08	59.1
877.38	59.28
877.68	59.16
877.981	59.57
878.281	61.24
878.581	62.61
