Data from BU58140_Reflection_00014.txt Node
Date: Tue Nov 19 10:53:50 EST 2019
User: vgr7
Spectrometer: USB2G7710
Scans to average: 3
Trigger mode: 4
Integration Time (sec): 2.000000E-2
Electric dark correction enabled: true
Boxcar width: 10
XAxis mode: Wavelengths
Number of Pixels in Spectrum: 2048
>>>>>Begin Spectral Data<<<<<
177.721	642.79
178.105	-291.03
178.488	-93.74
178.871	-380.95
179.254	-138.89
179.636	199.29
180.019	-239.74
180.402	433.33
180.785	-47.92
181.168	11.46
181.55	-222.92
181.933	138.19
182.316	41.24
182.698	43.42
183.081	33.74
183.463	29.04
183.846	90.44
184.228	169.01
184.611	785.9
184.993	-158.33
185.376	-61.65
185.758	-46.86
186.14	-85.42
186.522	-110.09
186.904	-57.05
187.287	-79.26
187.669	-65.35
188.051	-88.02
188.433	-90.77
188.815	-81.05
189.197	-97
189.579	-112.09
189.961	-105.31
190.342	-98.65
190.724	-101.2
191.106	-97.06
191.488	-98.63
191.869	-77.72
192.251	-40.97
192.633	-40.36
193.014	-38.98
193.396	-41.64
193.777	-27.4
194.159	-34.65
194.54	-21.89
194.922	-36.77
195.303	-30.05
195.684	-26.97
196.065	-17.36
196.447	-17.37
196.828	-13.66
197.209	-16.9
197.59	-9.94
197.971	-3.82
198.352	-1.41
198.733	5.88
199.114	11.31
199.495	13.96
199.876	11.75
200.257	-1.29
200.638	12.23
201.018	2.01
201.399	4.93
201.78	8.81
202.16	5.38
202.541	1.04
202.922	8.32
203.302	1.58
203.683	4.25
204.063	7.09
204.444	13.89
204.824	10.59
205.204	20.51
205.585	15.93
205.965	16
206.345	12.65
206.725	17.19
207.106	4.74
207.486	2.15
207.866	3.86
208.246	10.7
208.626	-3.69
209.006	-12.37
209.386	-12.28
209.766	-24.86
210.145	-20.96
210.525	-16.26
210.905	-13.83
211.285	-16.77
211.664	-16.53
212.044	-14.96
212.424	-18.46
212.803	-32.41
213.183	-33.19
213.562	-39.66
213.942	-37.42
214.321	-42.29
214.701	-62.81
215.08	-48.64
215.459	-41.55
215.838	-60.08
216.218	-80.4
216.597	-65.07
216.976	-56.33
217.355	-55.22
217.734	-49.6
218.113	-35.16
218.492	-39.76
218.871	-46.63
219.25	-48.09
219.629	-52.78
220.008	-51.14
220.387	-57.43
220.766	-32.56
221.144	-27.37
221.523	-17.72
221.902	-23.21
222.28	-26.4
222.659	-11.8
223.037	-17.01
223.416	-15.62
223.794	-3.72
224.173	-4.14
224.551	-3.52
224.929	-14.35
225.308	-19.44
225.686	-16.32
226.064	-25.45
226.442	-23.5
226.821	-18.73
227.199	-19.32
227.577	-13.16
227.955	-13.37
228.333	-8.78
228.711	-9.92
229.089	-8.56
229.467	-8.42
229.845	-6.44
230.222	-1.02
230.6	-4.74
230.978	-3.77
231.356	-4.9
231.733	-5.24
232.111	-2.19
232.488	-3.47
232.866	0.32
233.243	0.71
233.621	0.3
233.998	2.3
234.376	2.74
234.753	2.22
235.13	3.88
235.508	3.08
235.885	4.06
236.262	3.09
236.639	2.48
237.016	0.81
237.393	1.75
237.77	3.09
238.147	3.1
238.524	3.92
238.901	3.47
239.278	3.62
239.655	3.47
240.032	2.63
240.409	3.3
240.785	2.84
241.162	3.49
241.539	2.97
241.915	3.07
242.292	3.08
242.668	3.51
243.045	3.36
243.421	3.27
243.798	3.08
244.174	3.11
244.551	3.49
244.927	3.6
245.303	3.41
245.679	3.32
246.056	3.13
246.432	3.11
246.808	3.3
247.184	3.38
247.56	3.45
247.936	3.56
248.312	3.42
248.688	3.49
249.064	3.34
249.44	3.43
249.815	3.34
250.191	3.47
250.567	3.33
250.943	3.61
251.318	3.46
251.694	3.36
252.069	3.29
252.445	2.96
252.82	3.03
253.196	2.8
253.571	2.81
253.947	3.08
254.322	3.42
254.697	3.62
255.073	3.75
255.448	3.91
255.823	4.04
256.198	4.03
256.573	4.4
256.948	4.42
257.323	4.65
257.698	4.65
258.073	4.35
258.448	4.31
258.823	4.07
259.198	4.38
259.573	4.32
259.948	4.29
260.322	4.29
260.697	4.43
261.072	4.48
261.446	4.4
261.821	4.34
262.195	4.05
262.57	3.95
262.944	3.8
263.319	3.83
263.693	3.81
264.067	3.92
264.442	3.75
264.816	3.7
265.19	3.41
265.564	3.38
265.938	3.46
266.313	3.33
266.687	3.35
267.061	3.21
267.435	3.34
267.809	3.37
268.183	3.48
268.556	3.26
268.93	3.57
269.304	3.49
269.678	3.58
270.051	3.71
270.425	3.74
270.799	3.73
271.172	3.55
271.546	3.59
271.919	3.5
272.293	3.47
272.666	3.61
273.04	3.83
273.413	3.79
273.787	3.87
274.16	3.99
274.533	4.07
274.906	4.07
275.279	3.9
275.653	3.98
276.026	3.95
276.399	3.94
276.772	3.92
277.145	4.15
277.518	3.87
277.891	3.8
278.263	3.68
278.636	3.74
279.009	3.74
279.382	3.69
279.755	3.71
280.127	3.87
280.5	3.72
280.872	3.62
281.245	3.67
281.617	3.53
281.99	3.41
282.362	3.31
282.735	3.21
283.107	3.36
283.479	3.4
283.852	3.44
284.224	3.51
284.596	3.38
284.968	3.18
285.34	3.27
285.713	3.35
286.085	3.4
286.457	3.46
286.829	3.55
287.201	3.62
287.572	3.74
287.944	3.65
288.316	3.72
288.688	3.84
289.06	3.9
289.431	3.98
289.803	4.13
290.175	4.33
290.546	4.45
290.918	4.43
291.289	4.36
291.661	4.36
292.032	4.38
292.403	4.43
292.775	4.59
293.146	4.64
293.517	4.65
293.889	4.72
294.26	4.65
294.631	4.61
295.002	4.61
295.373	4.63
295.744	4.81
296.115	4.86
296.486	4.74
296.857	4.68
297.228	4.59
297.599	4.45
297.97	4.41
298.34	4.4
298.711	4.4
299.082	4.4
299.452	4.48
299.823	4.58
300.194	4.71
300.564	4.65
300.935	4.71
301.305	4.79
301.676	4.85
302.046	4.9
302.416	5.05
302.787	5.01
303.157	4.99
303.527	4.89
303.897	4.86
304.267	5
304.637	5.07
305.008	5.38
305.378	5.48
305.748	5.46
306.117	5.5
306.487	5.58
306.857	5.81
307.227	5.79
307.597	5.72
307.967	5.65
308.336	5.74
308.706	5.8
309.076	5.92
309.445	5.97
309.815	6.09
310.184	6.1
310.554	6.12
310.923	6.05
311.293	6.12
311.662	6.24
312.031	6.22
312.401	6.36
312.77	6.28
313.139	6.42
313.508	6.57
313.877	6.57
314.246	6.64
314.616	6.61
314.985	6.67
315.353	6.87
315.722	7.07
316.091	7.03
316.46	7.18
316.829	7.19
317.198	7.23
317.567	7.37
317.935	7.48
318.304	7.77
318.672	8.08
319.041	8.26
319.41	8.33
319.778	8.52
320.147	8.53
320.515	8.72
320.883	8.75
321.252	8.81
321.62	8.92
321.988	8.96
322.357	8.96
322.725	9.02
323.093	8.89
323.461	8.88
323.829	9.14
324.197	9.09
324.565	9.25
324.933	9.2
325.301	9.18
325.669	9.25
326.037	9.29
326.405	9.2
326.772	9.12
327.14	9.01
327.508	8.91
327.875	9.04
328.243	9.01
328.61	9.1
328.978	9.09
329.346	9.27
329.713	9.39
330.08	9.34
330.448	9.35
330.815	9.53
331.182	9.47
331.55	9.39
331.917	9.4
332.284	9.24
332.651	9.4
333.018	9.3
333.385	9.17
333.752	9.06
334.119	9.08
334.486	9.05
334.853	9.05
335.22	9.15
335.587	9.08
335.954	8.94
336.32	9.01
336.687	9.05
337.054	8.93
337.42	8.96
337.787	8.97
338.153	9.09
338.52	9.13
338.886	9.09
339.253	9.16
339.619	9.12
339.986	9.09
340.352	8.98
340.718	9.11
341.084	9.31
341.451	9.51
341.817	9.49
342.183	9.53
342.549	9.71
342.915	9.79
343.281	9.86
343.647	10.03
344.013	10.01
344.379	9.92
344.745	9.9
345.11	9.82
345.476	9.89
345.842	9.79
346.208	9.8
346.573	9.87
346.939	9.88
347.304	9.97
347.67	10.01
348.035	10.03
348.401	9.99
348.766	9.91
349.132	9.78
349.497	9.87
349.862	9.95
350.228	9.94
350.593	9.87
350.958	9.87
351.323	9.83
351.688	9.77
352.053	9.85
352.418	9.87
352.783	9.88
353.148	9.97
353.513	10.03
353.878	9.89
354.243	9.86
354.608	9.8
354.972	9.76
355.337	9.8
355.702	9.85
356.066	9.79
356.431	9.79
356.795	9.81
357.16	9.79
357.524	9.67
357.889	9.6
358.253	9.51
358.618	9.43
358.982	9.41
359.346	9.41
359.71	9.35
360.075	9.35
360.439	9.32
360.803	9.25
361.167	9.17
361.531	9.14
361.895	9.09
362.259	9.05
362.623	8.99
362.987	8.91
363.351	8.85
363.714	8.84
364.078	8.79
364.442	8.68
364.806	8.59
365.169	8.59
365.533	8.58
365.896	8.6
366.26	8.56
366.623	8.51
366.987	8.43
367.35	8.41
367.714	8.25
368.077	8.16
368.44	8.14
368.803	8.08
369.167	8.03
369.53	8
369.893	7.97
370.256	7.92
370.619	7.77
370.982	7.65
371.345	7.59
371.708	7.56
372.071	7.43
372.434	7.37
372.797	7.32
373.159	7.17
373.522	7.05
373.885	6.96
374.247	6.86
374.61	6.82
374.973	6.76
375.335	6.79
375.698	6.77
376.06	6.7
376.423	6.61
376.785	6.56
377.147	6.54
377.51	6.47
377.872	6.42
378.234	6.43
378.596	6.43
378.958	6.37
379.321	6.24
379.683	6.27
380.045	6.2
380.407	6.12
380.769	6.09
381.13	6.07
381.492	6.02
381.854	5.99
382.216	5.92
382.578	5.91
382.939	5.84
383.301	5.76
383.663	5.7
384.024	5.67
384.386	5.64
384.747	5.56
385.109	5.5
385.47	5.45
385.832	5.37
386.193	5.31
386.554	5.22
386.916	5.22
387.277	5.12
387.638	5.11
387.999	5.03
388.36	5.02
388.721	4.98
389.082	4.96
389.443	4.92
389.804	4.91
390.165	4.83
390.526	4.81
390.887	4.79
391.248	4.72
391.609	4.71
391.969	4.64
392.33	4.61
392.691	4.56
393.051	4.52
393.412	4.54
393.772	4.54
394.133	4.52
394.493	4.47
394.854	4.53
395.214	4.5
395.574	4.51
395.935	4.44
396.295	4.43
396.655	4.41
397.015	4.41
397.376	4.38
397.736	4.34
398.096	4.33
398.456	4.31
398.816	4.31
399.176	4.26
399.535	4.25
399.895	4.25
400.255	4.27
400.615	4.28
400.975	4.22
401.334	4.16
401.694	4.17
402.054	4.16
402.413	4.11
402.773	4.09
403.132	4.09
403.492	4.05
403.851	4.01
404.211	3.97
404.57	3.95
404.929	3.93
405.288	3.95
405.648	3.91
406.007	3.88
406.366	3.86
406.725	3.87
407.084	3.86
407.443	3.85
407.802	3.79
408.161	3.78
408.52	3.77
408.879	3.76
409.238	3.77
409.596	3.75
409.955	3.72
410.314	3.71
410.673	3.67
411.031	3.69
411.39	3.69
411.748	3.7
412.107	3.67
412.465	3.65
412.824	3.63
413.182	3.59
413.54	3.61
413.899	3.63
414.257	3.63
414.615	3.61
414.974	3.58
415.332	3.6
415.69	3.56
416.048	3.59
416.406	3.57
416.764	3.54
417.122	3.55
417.48	3.56
417.838	3.53
418.195	3.53
418.553	3.52
418.911	3.5
419.269	3.49
419.626	3.48
419.984	3.47
420.342	3.45
420.699	3.45
421.057	3.42
421.414	3.4
421.772	3.39
422.129	3.37
422.486	3.36
422.844	3.34
423.201	3.34
423.558	3.3
423.915	3.3
424.273	3.28
424.63	3.26
424.987	3.24
425.344	3.23
425.701	3.23
426.058	3.21
426.415	3.2
426.772	3.18
427.128	3.16
427.485	3.15
427.842	3.14
428.199	3.14
428.555	3.11
428.912	3.1
429.269	3.08
429.625	3.09
429.982	3.09
430.338	3.09
430.695	3.09
431.051	3.08
431.407	3.06
431.764	3.07
432.12	3.06
432.476	3.09
432.832	3.1
433.189	3.1
433.545	3.11
433.901	3.11
434.257	3.09
434.613	3.09
434.969	3.1
435.325	3.1
435.681	3.1
436.036	3.12
436.392	3.11
436.748	3.11
437.104	3.1
437.459	3.12
437.815	3.13
438.171	3.14
438.526	3.14
438.882	3.16
439.237	3.14
439.593	3.15
439.948	3.13
440.304	3.12
440.659	3.12
441.014	3.1
441.369	3.1
441.725	3.12
442.08	3.11
442.435	3.12
442.79	3.12
443.145	3.12
443.5	3.1
443.855	3.11
444.21	3.11
444.565	3.13
444.92	3.11
445.275	3.08
445.629	3.07
445.984	3.06
446.339	3.05
446.693	3.06
447.048	3.04
447.403	3.04
447.757	3.02
448.112	3.02
448.466	3.02
448.82	3.01
449.175	3.01
449.529	3.01
449.883	2.98
450.238	2.98
450.592	2.95
450.946	2.95
451.3	2.94
451.654	2.91
452.008	2.88
452.362	2.89
452.716	2.89
453.07	2.9
453.424	2.91
453.778	2.9
454.132	2.88
454.486	2.89
454.839	2.9
455.193	2.91
455.547	2.9
455.9	2.91
456.254	2.91
456.607	2.91
456.961	2.91
457.314	2.91
457.668	2.9
458.021	2.91
458.375	2.9
458.728	2.92
459.081	2.94
459.434	2.95
459.787	2.94
460.141	2.95
460.494	2.94
460.847	2.95
461.2	2.96
461.553	2.97
461.906	2.97
462.259	2.97
462.611	2.98
462.964	2.99
463.317	2.99
463.67	3.01
464.022	3.01
464.375	3.01
464.728	3.01
465.08	3.05
465.433	3.06
465.785	3.1
466.138	3.12
466.49	3.11
466.843	3.12
467.195	3.13
467.547	3.12
467.899	3.13
468.252	3.13
468.604	3.13
468.956	3.15
469.308	3.16
469.66	3.17
470.012	3.19
470.364	3.21
470.716	3.21
471.068	3.21
471.42	3.22
471.772	3.24
472.123	3.27
472.475	3.25
472.827	3.27
473.178	3.24
473.53	3.24
473.882	3.24
474.233	3.24
474.585	3.25
474.936	3.26
475.288	3.28
475.639	3.29
475.99	3.28
476.342	3.28
476.693	3.29
477.044	3.3
477.395	3.29
477.746	3.28
478.097	3.27
478.448	3.23
478.8	3.21
479.15	3.21
479.501	3.19
479.852	3.19
480.203	3.18
480.554	3.19
480.905	3.19
481.255	3.2
481.606	3.2
481.957	3.2
482.307	3.2
482.658	3.18
483.009	3.17
483.359	3.16
483.709	3.16
484.06	3.16
484.41	3.15
484.761	3.16
485.111	3.16
485.461	3.16
485.811	3.17
486.162	3.18
486.512	3.19
486.862	3.18
487.212	3.19
487.562	3.19
487.912	3.18
488.262	3.18
488.612	3.17
488.961	3.16
489.311	3.15
489.661	3.16
490.011	3.16
490.36	3.16
490.71	3.18
491.06	3.17
491.409	3.18
491.759	3.16
492.108	3.16
492.458	3.15
492.807	3.16
493.157	3.16
493.506	3.16
493.855	3.16
494.204	3.17
494.554	3.17
494.903	3.19
495.252	3.21
495.601	3.23
495.95	3.24
496.299	3.26
496.648	3.28
496.997	3.29
497.346	3.32
497.695	3.34
498.043	3.37
498.392	3.41
498.741	3.42
499.09	3.45
499.438	3.48
499.787	3.53
500.135	3.55
500.484	3.58
500.832	3.63
501.181	3.67
501.529	3.74
501.878	3.77
502.226	3.8
502.574	3.84
502.923	3.89
503.271	3.91
503.619	3.97
503.967	4.01
504.315	4.08
504.663	4.12
505.011	4.17
505.359	4.22
505.707	4.29
506.055	4.37
506.403	4.46
506.751	4.51
507.098	4.58
507.446	4.61
507.794	4.68
508.141	4.73
508.489	4.81
508.837	4.85
509.184	4.92
509.531	4.98
509.879	5.06
510.226	5.14
510.574	5.25
510.921	5.33
511.268	5.44
511.616	5.54
511.963	5.64
512.31	5.75
512.657	5.85
513.004	5.94
513.351	6.05
513.698	6.19
514.045	6.33
514.392	6.46
514.739	6.61
515.086	6.76
515.432	6.89
515.779	7
516.126	7.14
516.473	7.31
516.819	7.45
517.166	7.6
517.512	7.73
517.859	7.84
518.205	7.95
518.552	8.06
518.898	8.17
519.245	8.3
519.591	8.43
519.937	8.56
520.283	8.71
520.629	8.86
520.976	9.01
521.322	9.16
521.668	9.34
522.014	9.51
522.36	9.69
522.706	9.9
523.052	10.11
523.398	10.33
523.743	10.53
524.089	10.76
524.435	10.98
524.781	11.19
525.126	11.39
525.472	11.57
525.817	11.74
526.163	11.9
526.509	12.04
526.854	12.17
527.199	12.3
527.545	12.44
527.89	12.58
528.235	12.7
528.581	12.85
528.926	12.98
529.271	13.13
529.616	13.28
529.961	13.41
530.306	13.55
530.651	13.71
530.996	13.87
531.341	14.05
531.686	14.21
532.031	14.37
532.376	14.54
532.721	14.74
533.065	14.93
533.41	15.13
533.755	15.35
534.099	15.56
534.444	15.79
534.788	15.99
535.133	16.21
535.477	16.43
535.822	16.65
536.166	16.88
536.51	17.14
536.855	17.39
537.199	17.69
537.543	18
537.887	18.3
538.231	18.61
538.576	18.88
538.92	19.18
539.264	19.5
539.608	19.79
539.951	20.04
540.295	20.3
540.639	20.55
540.983	20.78
541.327	21
541.671	21.23
542.014	21.47
542.358	21.69
542.701	21.92
543.045	22.13
543.389	22.37
543.732	22.6
544.075	22.86
544.419	23.08
544.762	23.32
545.105	23.58
545.449	23.84
545.792	24.14
546.135	24.41
546.478	24.68
546.821	25
547.165	25.33
547.508	25.63
547.851	25.97
548.194	26.3
548.536	26.6
548.879	26.92
549.222	27.23
549.565	27.55
549.908	27.88
550.25	28.23
550.593	28.56
550.936	28.89
551.278	29.18
551.621	29.55
551.963	29.89
552.306	30.16
552.648	30.46
552.991	30.76
553.333	31.05
553.675	31.36
554.017	31.65
554.36	31.88
554.702	32.15
555.044	32.43
555.386	32.73
555.728	33.06
556.07	33.33
556.412	33.66
556.754	33.94
557.096	34.2
557.438	34.45
557.78	34.79
558.121	35.06
558.463	35.39
558.805	35.67
559.147	35.97
559.488	36.27
559.83	36.54
560.171	36.75
560.513	37.06
560.854	37.28
561.196	37.56
561.537	37.83
561.878	38.14
562.22	38.39
562.561	38.62
562.902	38.88
563.243	39.16
563.584	39.34
563.925	39.59
564.266	39.87
564.607	40.09
564.948	40.26
565.289	40.48
565.63	40.63
565.971	40.86
566.312	41.04
566.653	41.19
566.993	41.39
567.334	41.63
567.675	41.79
568.015	42.03
568.356	42.22
568.696	42.42
569.037	42.59
569.377	42.72
569.718	42.88
570.058	43.09
570.398	43.24
570.739	43.46
571.079	43.66
571.419	43.82
571.759	43.97
572.099	44.16
572.439	44.43
572.779	44.57
573.119	44.74
573.459	44.94
573.799	45.11
574.139	45.25
574.479	45.38
574.819	45.55
575.158	45.72
575.498	45.83
575.838	46.01
576.177	46.12
576.517	46.32
576.856	46.53
577.196	46.69
577.535	46.84
577.875	47.02
578.214	47.18
578.553	47.31
578.893	47.52
579.232	47.61
579.571	47.62
579.91	47.87
580.25	48.01
580.589	48.11
580.928	48.32
581.267	48.53
581.606	48.69
581.945	48.88
582.283	49.01
582.622	49.16
582.961	49.28
583.3	49.46
583.639	49.55
583.977	49.66
584.316	49.75
584.654	49.92
584.993	50.01
585.332	50.15
585.67	50.22
586.008	50.35
586.347	50.49
586.685	50.63
587.024	50.72
587.362	50.8
587.7	50.9
588.038	51.02
588.376	51.15
588.715	51.24
589.053	51.41
589.391	51.43
589.729	51.61
590.067	51.78
590.404	51.85
590.742	52.03
591.08	52.13
591.418	52.22
591.756	52.3
592.093	52.4
592.431	52.44
592.769	52.59
593.106	52.65
593.444	52.86
593.781	52.98
594.119	53.06
594.456	53.18
594.793	53.21
595.131	53.26
595.468	53.29
595.805	53.39
596.143	53.38
596.48	53.47
596.817	53.46
597.154	53.48
597.491	53.61
597.828	53.65
598.165	53.72
598.502	53.81
598.839	53.87
599.176	53.93
599.512	54.06
599.849	54.13
600.186	54.24
600.523	54.22
600.859	54.28
601.196	54.34
601.532	54.37
601.869	54.51
602.205	54.57
602.542	54.58
602.878	54.66
603.215	54.62
603.551	54.69
603.887	54.74
604.223	54.8
604.56	54.78
604.896	54.82
605.232	54.85
605.568	54.9
605.904	55.02
606.24	55.07
606.576	55.09
606.912	55.14
607.248	55.21
607.583	55.31
607.919	55.31
608.255	55.4
608.591	55.56
608.926	55.59
609.262	55.64
609.597	55.76
609.933	55.74
610.268	55.91
610.604	55.96
610.939	56.11
611.275	56.11
611.61	56.27
611.945	56.3
612.281	56.4
612.616	56.42
612.951	56.4
613.286	56.43
613.621	56.39
613.956	56.46
614.291	56.4
614.626	56.33
614.961	56.44
615.296	56.46
615.631	56.35
615.966	56.38
616.3	56.51
616.635	56.56
616.97	56.68
617.304	56.7
617.639	56.68
617.973	56.78
618.308	56.81
618.642	56.71
618.977	56.77
619.311	56.81
619.646	57
619.98	57.05
620.314	57.12
620.648	57.25
620.983	57.26
621.317	57.3
621.651	57.48
621.985	57.47
622.319	57.46
622.653	57.42
622.987	57.5
623.321	57.5
623.655	57.48
623.988	57.58
624.322	57.56
624.656	57.6
624.99	57.47
625.323	57.49
625.657	57.53
625.99	57.58
626.324	57.6
626.657	57.53
626.991	57.57
627.324	57.58
627.658	57.52
627.991	57.51
628.324	57.55
628.657	57.55
628.991	57.62
629.324	57.66
629.657	57.75
629.99	57.75
630.323	57.72
630.656	57.81
630.989	57.81
631.322	57.92
631.655	57.97
631.987	58.07
632.32	58.21
632.653	58.25
632.986	58.36
633.318	58.4
633.651	58.42
633.984	58.33
634.316	58.35
634.649	58.5
634.981	58.54
635.313	58.55
635.646	58.55
635.978	58.6
636.31	58.61
636.643	58.64
636.975	58.68
637.307	58.75
637.639	58.73
637.971	58.79
638.303	58.71
638.635	58.69
638.967	58.73
639.299	58.64
639.631	58.64
639.963	58.58
640.295	58.61
640.626	58.67
640.958	58.85
641.29	59.01
641.621	58.95
641.953	59.01
642.285	59.14
642.616	59.2
642.948	59.08
643.279	59.13
643.61	59.16
643.942	59.19
644.273	59.16
644.604	59.2
644.936	59.17
645.267	59.26
645.598	59.34
645.929	59.34
646.26	59.41
646.591	59.57
646.922	59.58
647.253	59.45
647.584	59.51
647.915	59.49
648.245	59.4
648.576	59.41
648.907	59.4
649.238	59.41
649.568	59.48
649.899	59.56
650.229	59.65
650.56	59.66
650.89	59.62
651.221	59.54
651.551	59.55
651.882	59.52
652.212	59.48
652.542	59.53
652.872	59.46
653.203	59.49
653.533	59.47
653.863	59.53
654.193	59.71
654.523	59.64
654.853	59.54
655.183	59.46
655.513	59.5
655.843	59.49
656.172	59.49
656.502	59.4
656.832	59.33
657.162	59.31
657.491	59.47
657.821	59.6
658.15	59.76
658.48	59.85
658.809	59.88
659.139	60.03
659.468	60.01
659.798	60.07
660.127	60.02
660.456	60.04
660.785	60
661.115	59.97
661.444	60.01
661.773	60.05
662.102	60.19
662.431	60.28
662.76	60.4
663.089	60.39
663.418	60.48
663.747	60.58
664.076	60.56
664.404	60.47
664.733	60.39
665.062	60.23
665.39	60.14
665.719	60.08
666.048	60.03
666.376	59.99
666.705	59.97
667.033	59.9
667.362	59.85
667.69	59.72
668.018	59.69
668.347	59.7
668.675	59.74
669.003	59.72
669.331	59.58
669.659	59.47
669.987	59.46
670.315	59.41
670.643	59.43
670.971	59.44
671.299	59.49
671.627	59.57
671.955	59.65
672.283	59.65
672.61	59.59
672.938	59.45
673.266	59.25
673.593	59.23
673.921	59.46
674.249	59.4
674.576	59.56
674.904	59.57
675.231	59.67
675.558	59.73
675.886	59.77
676.213	59.78
676.54	59.82
676.867	59.8
677.195	59.87
677.522	59.88
677.849	59.89
678.176	59.88
678.503	59.87
678.83	59.8
679.157	59.8
679.484	60.06
679.81	60.11
680.137	60.41
680.464	60.47
680.791	60.28
681.117	60.22
681.444	60.21
681.771	60.19
682.097	60.01
682.424	60.01
682.75	59.99
683.077	60.01
683.403	59.95
683.729	60.05
684.056	59.89
684.382	59.91
684.708	59.95
685.034	59.88
685.36	59.8
685.686	59.91
686.012	59.93
686.339	59.79
686.664	59.71
686.99	59.55
687.316	59.61
687.642	59.68
687.968	59.92
688.294	60.03
688.619	60.2
688.945	60.33
689.271	60.3
689.596	60.37
689.922	60.4
690.247	60.69
690.573	60.67
690.898	60.72
691.224	60.63
691.549	60.59
691.874	60.63
692.2	60.57
692.525	60.51
692.85	60.45
693.175	60.29
693.5	60.33
693.825	60.37
694.15	60.15
694.475	60.32
694.8	60.21
695.125	60.11
695.45	59.86
695.775	59.88
696.099	59.94
696.424	59.94
696.749	60.09
697.073	60.03
697.398	60.04
697.723	60.03
698.047	60.1
698.372	60.16
698.696	60.13
699.02	60.29
699.345	60.34
699.669	60.44
699.993	60.57
700.318	60.59
700.642	60.63
700.966	60.71
701.29	60.6
701.614	60.58
701.938	60.66
702.262	60.72
702.586	60.76
702.91	60.68
703.234	60.66
703.557	60.47
703.881	60.43
704.205	60.53
704.529	60.69
704.852	60.71
705.176	60.67
705.499	60.73
705.823	60.72
706.146	60.78
706.47	60.59
706.793	60.74
707.117	60.89
707.44	60.93
707.763	60.91
708.086	60.84
708.409	60.75
708.733	60.57
709.056	60.65
709.379	60.52
709.702	60.62
710.025	60.7
710.348	60.84
710.671	60.86
710.993	60.68
711.316	60.53
711.639	60.6
711.962	60.68
712.284	60.77
712.607	60.63
712.93	60.66
713.252	60.7
713.575	60.56
713.897	60.54
714.22	60.49
714.542	60.57
714.864	60.6
715.187	60.7
715.509	60.74
715.831	60.74
716.153	60.84
716.475	60.79
716.798	60.75
717.12	60.78
717.442	60.78
717.764	60.74
718.085	60.79
718.407	60.7
718.729	60.71
719.051	60.52
719.373	60.6
719.695	60.64
720.016	60.7
720.338	60.62
720.659	60.53
720.981	60.39
721.302	60.29
721.624	60.26
721.945	60.25
722.267	60.44
722.588	60.57
722.909	60.6
723.231	60.46
723.552	60.48
723.873	60.21
724.194	60.16
724.515	60.13
724.836	60.19
725.157	60.28
725.478	60.14
725.799	60.14
726.12	60.1
726.441	59.94
726.762	60.12
727.083	60.18
727.403	60.22
727.724	60.34
728.045	60.44
728.365	60.63
728.686	60.85
729.006	60.78
729.327	60.66
729.647	60.4
729.967	60.55
730.288	60.4
730.608	60.39
730.928	60.45
731.249	60.58
731.569	60.47
731.889	60.37
732.209	60.34
732.529	60.25
732.849	60.26
733.169	60.1
733.489	59.99
733.809	59.85
734.129	59.84
734.448	59.9
734.768	59.77
735.088	59.63
735.408	59.46
735.727	59.35
736.047	59.29
736.366	59.33
736.686	59.3
737.005	59.48
737.325	59.73
737.644	59.72
737.963	59.87
738.283	60.06
738.602	60.24
738.921	60.29
739.24	60.55
739.56	60.68
739.879	60.91
740.198	60.91
740.517	60.92
740.836	61.21
741.155	61.29
741.473	61.47
741.792	61.5
742.111	61.41
742.43	61.64
742.748	61.62
743.067	61.67
743.386	61.84
743.704	61.63
744.023	61.35
744.341	61.1
744.66	60.95
744.978	60.64
745.297	60.47
745.615	60.53
745.933	60.57
746.252	60.58
746.57	60.52
746.888	60.75
747.206	61.04
747.524	60.45
747.842	60.18
748.16	59.85
748.478	60.02
748.796	60.04
749.114	59.81
749.432	59.86
749.749	59.77
750.067	59.69
750.385	59.95
750.703	60.01
751.02	60.25
751.338	60.17
751.655	60.51
751.973	60.34
752.29	59.97
752.608	59.72
752.925	59.6
753.242	59.55
753.56	59.23
753.877	59.09
754.194	59.83
754.511	60.06
754.828	60.53
755.145	60.31
755.462	60.29
755.779	60.19
756.096	60.39
756.413	60.39
756.73	60.35
757.047	60
757.364	60.03
757.68	59.97
757.997	60.22
758.314	60.63
758.63	60.98
758.947	61.29
759.264	61.43
759.58	61.41
759.896	61.6
760.213	61.59
760.529	61.45
760.846	61.06
761.162	60.95
761.478	60.79
761.794	60.88
762.11	61.29
762.426	61.15
762.743	61.23
763.059	61.54
763.375	61.62
763.69	61.87
764.006	62.18
764.322	62.41
764.638	62.27
764.954	61.87
765.27	61.83
765.585	61.87
765.901	61.91
766.216	62.22
766.532	62.18
766.848	62.27
767.163	62.58
767.478	62.63
767.794	62.8
768.109	62.94
768.424	62.92
768.74	62.61
769.055	62.85
769.37	62.55
769.685	62.93
770	62.82
770.315	62.93
770.63	62.91
770.945	62.84
771.26	63
771.575	63.04
771.89	62.8
772.205	62.74
772.52	62.66
772.834	62.64
773.149	63.07
773.464	62.77
773.778	62.5
774.093	62.33
774.407	62.49
774.722	62.39
775.036	62.74
775.351	63.21
775.665	63.64
775.979	63.82
776.293	63.74
776.608	63.72
776.922	63.12
777.236	62.84
777.55	62.55
777.864	62.18
778.178	62.1
778.492	62.56
778.806	62.81
779.12	62.76
779.434	62.26
779.747	61.89
780.061	62.42
780.375	62.52
780.689	62.73
781.002	62.15
781.316	62.44
781.629	62.12
781.943	61.16
782.256	60.45
782.57	60.83
782.883	60.08
783.196	59.84
783.51	60.18
783.823	59.92
784.136	59.95
784.449	60.34
784.762	60.57
785.075	60.19
785.388	60.03
785.701	60.06
786.014	59.94
786.327	59.74
786.64	59.39
786.953	59.1
787.266	59.1
787.578	59.21
787.891	58.77
788.204	59.36
788.516	59.69
788.829	60.14
789.141	60.12
789.454	59.81
789.766	60.62
790.079	60.63
790.391	60.87
790.703	61.29
791.016	61.12
791.328	61.14
791.64	61.46
791.952	61.55
792.264	61.55
792.576	61.56
792.888	61.97
793.2	62.05
793.512	62.46
793.824	62.62
794.136	62.71
794.448	62.24
794.76	61.18
795.071	61.43
795.383	61
795.695	60.48
796.006	60.87
796.318	60.46
796.629	60.16
796.941	60.11
797.252	59.65
797.564	60.2
797.875	60.12
798.186	59.82
798.497	59.47
798.809	59.17
799.12	59.53
799.431	59.13
799.742	59.08
800.053	59.25
800.364	59.06
800.675	58.95
800.986	59.38
801.297	59.71
801.608	59.12
801.918	59.49
802.229	59.6
802.54	59.8
802.851	59.29
803.161	59.35
803.472	59.12
803.782	58.81
804.093	58.24
804.403	58.42
804.714	59.08
805.024	59.16
805.334	59.77
805.645	59.43
805.955	59.54
806.265	59.55
806.575	58.71
806.885	58.78
807.195	58.96
807.505	59.49
807.815	59.68
808.125	60.26
808.435	60.52
808.745	60.26
809.055	59.65
809.365	59.66
809.674	60.1
809.984	59.95
810.294	60.59
810.603	60.83
810.913	60.79
811.222	60.03
811.532	59.65
811.841	58.91
812.151	58.99
812.46	59.38
812.769	59.38
813.079	60.24
813.388	60.13
813.697	60.19
814.006	60.38
814.315	60.55
814.624	60.62
814.933	60.6
815.242	60.26
815.551	61.02
815.86	60.96
816.169	59.84
816.478	60.64
816.786	59.8
817.095	59.08
817.404	59.24
817.712	59.23
818.021	59.43
818.33	59.46
818.638	59.29
818.947	58.67
819.255	58.67
819.563	59.21
819.872	59.15
820.18	59.32
820.488	59.13
820.796	59.54
821.105	59.7
821.413	59.83
821.721	60.12
822.029	60.22
822.337	60.51
822.645	60.7
822.953	60.5
823.26	60.55
823.568	60.83
823.876	60.78
824.184	60.83
824.491	60.94
824.799	61.15
825.107	61.29
825.414	61.46
825.722	61.52
826.029	61.53
826.337	61.85
826.644	62.01
826.951	62.27
827.259	62.25
827.566	62.19
827.873	61.94
828.18	62.16
828.488	61.96
828.795	61.75
829.102	62.06
829.409	62.3
829.716	62.38
830.023	62.03
830.329	62.02
830.636	62.15
830.943	62.47
831.25	62.32
831.557	61.81
831.863	61.78
832.17	61.78
832.476	61.41
832.783	61
833.089	60.71
833.396	60.6
833.702	60.13
834.009	60.11
834.315	60.31
834.621	60.26
834.928	60.68
835.234	60.61
835.54	60.21
835.846	59.84
836.152	59.79
836.458	60.02
836.764	60.2
837.07	59.74
837.376	59.03
837.682	59.09
837.988	59.92
838.293	59.97
838.599	60.86
838.905	60.53
839.211	60.76
839.516	60.76
839.822	60.44
840.127	60.2
840.433	60.58
840.738	60.85
841.044	60.06
841.349	59.88
841.654	60.23
841.959	60.15
842.265	61.13
842.57	61.65
842.875	61.54
843.18	62.1
843.485	62.14
843.79	63.58
844.095	63.03
844.4	62.28
844.705	61.8
845.01	60.36
845.315	59.64
845.619	60.09
845.924	60.57
846.229	59.89
846.533	60.75
846.838	59.57
847.142	59.61
847.447	60.44
847.751	60.87
848.056	61.57
848.36	62.27
848.664	62.28
848.969	62.07
849.273	59.97
849.577	59.37
849.881	58.7
850.185	57.2
850.489	58.58
850.794	57.19
851.097	58.84
851.401	56.87
851.705	59.86
852.009	58.18
852.313	57.71
852.617	58.94
852.92	58.36
853.224	59.46
853.528	58.5
853.831	59.09
854.135	58.23
854.438	57.52
854.742	56.15
855.045	55.06
855.349	55.84
855.652	57.4
855.955	55.94
856.259	59.59
856.562	58.13
856.865	56.86
857.168	58.82
857.471	57.59
857.774	58.83
858.077	55.99
858.38	57.35
858.683	57.61
858.986	57.26
859.289	59.16
859.592	58.71
859.894	60.06
860.197	58.99
860.5	60.28
860.802	60.56
861.105	62.19
861.407	61.9
861.71	60.59
862.012	63.01
862.315	64.57
862.617	63.12
862.919	64.91
863.222	66.6
863.524	66.22
863.826	66.45
864.128	66.09
864.43	66.35
864.732	65.48
865.034	65.72
865.336	66.8
865.638	67.06
865.94	69.93
866.242	72.01
866.544	70.14
866.846	71.56
867.147	71.29
867.449	68.05
867.751	70.97
868.052	69.57
868.354	66.9
868.655	66.9
868.957	65.45
869.258	65.5
869.56	62.97
869.861	63.43
870.162	62.44
870.463	64.46
870.765	67.71
871.066	67.98
871.367	65.5
871.668	65.41
871.969	64.94
872.27	61.66
872.571	62.26
872.872	63.72
873.173	60.73
873.473	61.53
873.774	64.28
874.075	62.97
874.376	63.71
874.676	62.85
874.977	61.71
875.277	62.2
875.578	64.74
875.878	66.61
876.179	66.56
876.479	67.77
876.78	67.36
877.08	65.29
877.38	64.28
877.68	67.22
877.981	66.48
878.281	64.25
878.581	65.61
