Data from BU58119_Reflection_00012.txt Node
Date: Tue Nov 19 10:51:03 EST 2019
User: vgr7
Spectrometer: USB2G7710
Scans to average: 3
Trigger mode: 4
Integration Time (sec): 2.000000E-2
Electric dark correction enabled: true
Boxcar width: 10
XAxis mode: Wavelengths
Number of Pixels in Spectrum: 2048
>>>>>Begin Spectral Data<<<<<
177.721	-310.54
178.105	-157.28
178.488	-238.62
178.871	-490.91
179.254	-720
179.636	457.76
180.019	200.86
180.402	92.59
180.785	-490.91
181.168	93.51
181.55	175.97
181.933	148.97
182.316	223.32
182.698	96.04
183.081	106.4
183.463	232.65
183.846	101.11
184.228	146.76
184.611	184.98
184.993	50.7
185.376	-17.33
185.758	-213.08
186.14	-98.51
186.522	-70.28
186.904	-75.95
187.287	-101.56
187.669	-8.28
188.051	-57.4
188.433	-70.37
188.815	-122.28
189.197	-84.38
189.579	-42.45
189.961	-40.9
190.342	-36.25
190.724	-44.92
191.106	-40.41
191.488	-31.58
191.869	-20.01
192.251	-31.14
192.633	-16.9
193.014	-24.35
193.396	-30.32
193.777	-18.27
194.159	-18.56
194.54	-24.63
194.922	-35.71
195.303	-49.9
195.684	-66.97
196.065	-70.54
196.447	-77.95
196.828	-56.84
197.209	-79.9
197.59	-81.72
197.971	-57.33
198.352	-78.86
198.733	-68.47
199.114	-97.97
199.495	-161.3
199.876	-395.72
200.257	-1141.26
200.638	-2361.04
201.018	5825.81
201.399	-587.71
201.78	-715.99
202.16	-573.13
202.541	-3264.41
202.922	-1131.54
203.302	11676.92
203.683	6360
204.063	-1389.47
204.444	-1211.88
204.824	-24600
205.204	-172.28
205.585	-197.18
205.965	-183.12
206.345	-123.42
206.725	-102.9
207.106	-41.6
207.486	-46.15
207.866	-25.96
208.246	-25.25
208.626	-40.62
209.006	-43.77
209.386	-66.49
209.766	-73.47
210.145	-52.93
210.525	-35.92
210.905	-41.87
211.285	-32.42
211.664	-26.88
212.044	-29.15
212.424	-24.72
212.803	-31.01
213.183	-29.76
213.562	-20.8
213.942	-22.15
214.321	-31.84
214.701	-34.41
215.08	-52.13
215.459	-35.11
215.838	-43.75
216.218	-43.23
216.597	-31.33
216.976	-37.74
217.355	-27.82
217.734	-27.82
218.113	-30.84
218.492	-36.23
218.871	-24.36
219.25	-28.96
219.629	-32.54
220.008	-32.87
220.387	-30.05
220.766	-21.88
221.144	-21.11
221.523	-32.16
221.902	-27.91
222.28	-29.57
222.659	-13.45
223.037	-12.11
223.416	-16.4
223.794	-3.7
224.173	-20.35
224.551	-10.85
224.929	-10.78
225.308	-13.73
225.686	-6.54
226.064	-14.38
226.442	-8.75
226.821	-6.98
227.199	-8.83
227.577	-6.18
227.955	-3.59
228.333	-7.87
228.711	-8.55
229.089	-6.77
229.467	-1.2
229.845	-2.1
230.222	0.38
230.6	-4.21
230.978	-4.97
231.356	-4.19
231.733	-5.64
232.111	-2.62
232.488	-3.75
232.866	1.43
233.243	-0.65
233.621	-2.1
233.998	2.15
234.376	2.72
234.753	-1.36
235.13	0.65
235.508	-0.58
235.885	1.55
236.262	-0.5
236.639	0.4
237.016	-0.74
237.393	-0.28
237.77	1.01
238.147	1.78
238.524	2.47
238.901	2.62
239.278	1.54
239.655	1.39
240.032	2.24
240.409	1.64
240.785	0.62
241.162	1.87
241.539	1.49
241.915	1.22
242.292	0.66
242.668	1.96
243.045	1.89
243.421	2.41
243.798	1.96
244.174	2.24
244.551	2.28
244.927	2.55
245.303	2.22
245.679	2
246.056	2.05
246.432	2.1
246.808	2.26
247.184	2.65
247.56	2.67
247.936	2.74
248.312	3.07
248.688	3.29
249.064	3
249.44	3.09
249.815	2.89
250.191	3.14
250.567	2.93
250.943	3.04
251.318	2.69
251.694	2.8
252.069	2.89
252.445	2.98
252.82	2.88
253.196	2.91
253.571	2.84
253.947	2.53
254.322	2.28
254.697	2.03
255.073	1.94
255.448	2.11
255.823	1.97
256.198	1.94
256.573	1.84
256.948	2.17
257.323	2.35
257.698	2.54
258.073	2.49
258.448	2.55
258.823	2.42
259.198	2.51
259.573	2.41
259.948	2.7
260.322	2.57
260.697	2.51
261.072	2.58
261.446	2.7
261.821	2.87
262.195	2.98
262.57	2.89
262.944	3.04
263.319	2.9
263.693	2.7
264.067	2.71
264.442	2.64
264.816	2.56
265.19	2.31
265.564	2.07
265.938	1.96
266.313	1.83
266.687	1.8
267.061	1.88
267.435	1.86
267.809	1.53
268.183	1.63
268.556	1.58
268.93	1.65
269.304	1.74
269.678	1.65
270.051	1.68
270.425	2.08
270.799	1.74
271.172	1.82
271.546	2.03
271.919	2.05
272.293	2.25
272.666	2.28
273.04	2.39
273.413	2.44
273.787	2.45
274.16	2.42
274.533	2.66
274.906	2.55
275.279	2.59
275.653	2.46
276.026	2.53
276.399	2.72
276.772	2.56
277.145	2.5
277.518	2.39
277.891	2.47
278.263	2.35
278.636	2.63
279.009	2.65
279.382	2.58
279.755	2.57
280.127	2.5
280.5	2.49
280.872	2.64
281.245	2.67
281.617	2.68
281.99	2.62
282.362	2.43
282.735	2.51
283.107	2.56
283.479	2.75
283.852	2.7
284.224	2.7
284.596	2.83
284.968	2.95
285.34	2.96
285.713	3.04
286.085	2.9
286.457	2.88
286.829	2.89
287.201	2.98
287.572	3.04
287.944	3.12
288.316	3.16
288.688	3.19
289.06	3.3
289.431	3.54
289.803	3.72
290.175	3.91
290.546	4.03
290.918	3.94
291.289	3.93
291.661	4
292.032	4.01
292.403	4.01
292.775	3.91
293.146	4.1
293.517	3.98
293.889	3.99
294.26	3.93
294.631	3.84
295.002	3.87
295.373	3.81
295.744	3.91
296.115	3.79
296.486	3.77
296.857	3.86
297.228	3.67
297.599	3.67
297.97	3.71
298.34	3.61
298.711	3.68
299.082	3.88
299.452	3.86
299.823	3.96
300.194	3.99
300.564	4.13
300.935	4.05
301.305	4.07
301.676	4.13
302.046	4.48
302.416	4.71
302.787	4.59
303.157	4.7
303.527	4.68
303.897	4.98
304.267	5.17
304.637	5.02
305.008	5.37
305.378	5.56
305.748	5.52
306.117	5.64
306.487	5.9
306.857	5.9
307.227	6.08
307.597	6.04
307.967	6.14
308.336	6.19
308.706	6.26
309.076	6.56
309.445	6.82
309.815	6.59
310.184	6.72
310.554	6.98
310.923	6.94
311.293	7
311.662	7.07
312.031	6.96
312.401	7.22
312.77	7.18
313.139	7.13
313.508	7.21
313.877	7.36
314.246	7.41
314.616	7.58
314.985	7.65
315.353	7.67
315.722	7.84
316.091	7.89
316.46	8
316.829	7.95
317.198	8
317.567	8.25
317.935	8.24
318.304	8.29
318.672	8.5
319.041	8.58
319.41	8.56
319.778	8.68
320.147	8.75
320.515	8.78
320.883	8.74
321.252	8.92
321.62	9.04
321.988	8.98
322.357	9.01
322.725	8.95
323.093	9.01
323.461	9.11
323.829	9.15
324.197	9.22
324.565	9.26
324.933	9.29
325.301	9.19
325.669	9.29
326.037	9.19
326.405	9.42
326.772	9.4
327.14	9.33
327.508	9.34
327.875	9.23
328.243	9.4
328.61	9.69
328.978	9.48
329.346	9.44
329.713	9.46
330.08	9.51
330.448	9.57
330.815	9.74
331.182	9.71
331.55	9.81
331.917	9.9
332.284	9.91
332.651	10
333.018	10.05
333.385	10.06
333.752	10.18
334.119	10.04
334.486	9.99
334.853	10.16
335.22	10.18
335.587	10.13
335.954	10
336.32	9.87
336.687	10.01
337.054	10.08
337.42	10.2
337.787	10.05
338.153	10.26
338.52	10.29
338.886	10.25
339.253	10.27
339.619	10.29
339.986	10.27
340.352	10.19
340.718	10.29
341.084	10.14
341.451	10.2
341.817	10.2
342.183	10.35
342.549	10.48
342.915	10.52
343.281	10.59
343.647	10.72
344.013	10.85
344.379	10.73
344.745	10.81
345.11	10.86
345.476	10.96
345.842	10.86
346.208	10.74
346.573	10.81
346.939	10.8
347.304	10.72
347.67	10.68
348.035	10.61
348.401	10.59
348.766	10.63
349.132	10.71
349.497	10.65
349.862	10.6
350.228	10.47
350.593	10.4
350.958	10.55
351.323	10.47
351.688	10.44
352.053	10.57
352.418	10.6
352.783	10.56
353.148	10.6
353.513	10.62
353.878	10.68
354.243	10.65
354.608	10.55
354.972	10.58
355.337	10.58
355.702	10.6
356.066	10.58
356.431	10.57
356.795	10.46
357.16	10.51
357.524	10.4
357.889	10.43
358.253	10.45
358.618	10.37
358.982	10.34
359.346	10.3
359.71	10.2
360.075	10.01
360.439	10.03
360.803	10.01
361.167	9.97
361.531	9.98
361.895	9.9
362.259	9.91
362.623	9.82
362.987	9.78
363.351	9.7
363.714	9.66
364.078	9.64
364.442	9.51
364.806	9.38
365.169	9.42
365.533	9.27
365.896	9.23
366.26	9.11
366.623	9.01
366.987	8.97
367.35	8.94
367.714	8.99
368.077	8.87
368.44	8.7
368.803	8.62
369.167	8.46
369.53	8.35
369.893	8.28
370.256	8.23
370.619	8.09
370.982	8.06
371.345	7.96
371.708	7.95
372.071	7.91
372.434	7.85
372.797	7.77
373.159	7.69
373.522	7.6
373.885	7.53
374.247	7.39
374.61	7.25
374.973	7.15
375.335	7.07
375.698	7.04
376.06	6.97
376.423	6.87
376.785	6.85
377.147	6.81
377.51	6.73
377.872	6.67
378.234	6.65
378.596	6.58
378.958	6.55
379.321	6.4
379.683	6.32
380.045	6.33
380.407	6.25
380.769	6.16
381.13	6.04
381.492	5.98
381.854	5.95
382.216	5.93
382.578	5.9
382.939	5.79
383.301	5.7
383.663	5.69
384.024	5.64
384.386	5.59
384.747	5.49
385.109	5.43
385.47	5.4
385.832	5.36
386.193	5.32
386.554	5.23
386.916	5.16
387.277	5.15
387.638	5.12
387.999	5.08
388.36	5.09
388.721	5.11
389.082	5.12
389.443	5.08
389.804	5.02
390.165	5
390.526	5
390.887	4.89
391.248	4.79
391.609	4.77
391.969	4.68
392.33	4.71
392.691	4.66
393.051	4.6
393.412	4.57
393.772	4.55
394.133	4.51
394.493	4.48
394.854	4.45
395.214	4.36
395.574	4.29
395.935	4.26
396.295	4.22
396.655	4.16
397.015	4.15
397.376	4.13
397.736	4.03
398.096	3.98
398.456	3.97
398.816	3.96
399.176	3.92
399.535	3.9
399.895	3.84
400.255	3.83
400.615	3.83
400.975	3.78
401.334	3.72
401.694	3.69
402.054	3.69
402.413	3.65
402.773	3.64
403.132	3.6
403.492	3.54
403.851	3.49
404.211	3.47
404.57	3.45
404.929	3.39
405.288	3.41
405.648	3.39
406.007	3.39
406.366	3.39
406.725	3.41
407.084	3.4
407.443	3.39
407.802	3.36
408.161	3.3
408.52	3.31
408.879	3.31
409.238	3.33
409.596	3.31
409.955	3.29
410.314	3.29
410.673	3.32
411.031	3.32
411.39	3.36
411.748	3.35
412.107	3.31
412.465	3.29
412.824	3.26
413.182	3.27
413.54	3.27
413.899	3.22
414.257	3.18
414.615	3.17
414.974	3.16
415.332	3.16
415.69	3.14
416.048	3.14
416.406	3.12
416.764	3.11
417.122	3.1
417.48	3.11
417.838	3.08
418.195	3.06
418.553	3.06
418.911	3.03
419.269	3.01
419.626	3.02
419.984	3.02
420.342	3.03
420.699	2.98
421.057	2.97
421.414	2.97
421.772	2.95
422.129	2.94
422.486	2.93
422.844	2.92
423.201	2.92
423.558	2.9
423.915	2.9
424.273	2.88
424.63	2.88
424.987	2.86
425.344	2.85
425.701	2.84
426.058	2.84
426.415	2.84
426.772	2.85
427.128	2.85
427.485	2.84
427.842	2.83
428.199	2.86
428.555	2.84
428.912	2.85
429.269	2.83
429.625	2.83
429.982	2.83
430.338	2.84
430.695	2.83
431.051	2.83
431.407	2.83
431.764	2.83
432.12	2.85
432.476	2.84
432.832	2.86
433.189	2.86
433.545	2.83
433.901	2.81
434.257	2.79
434.613	2.77
434.969	2.77
435.325	2.76
435.681	2.74
436.036	2.75
436.392	2.74
436.748	2.74
437.104	2.72
437.459	2.72
437.815	2.71
438.171	2.72
438.526	2.69
438.882	2.69
439.237	2.69
439.593	2.68
439.948	2.68
440.304	2.68
440.659	2.68
441.014	2.69
441.369	2.67
441.725	2.68
442.08	2.67
442.435	2.68
442.79	2.68
443.145	2.69
443.5	2.68
443.855	2.67
444.21	2.68
444.565	2.7
444.92	2.68
445.275	2.68
445.629	2.67
445.984	2.69
446.339	2.7
446.693	2.69
447.048	2.68
447.403	2.69
447.757	2.68
448.112	2.68
448.466	2.68
448.82	2.69
449.175	2.69
449.529	2.7
449.883	2.68
450.238	2.68
450.592	2.66
450.946	2.65
451.3	2.67
451.654	2.65
452.008	2.65
452.362	2.67
452.716	2.68
453.07	2.68
453.424	2.68
453.778	2.66
454.132	2.68
454.486	2.67
454.839	2.65
455.193	2.66
455.547	2.65
455.9	2.63
456.254	2.63
456.607	2.61
456.961	2.59
457.314	2.59
457.668	2.59
458.021	2.58
458.375	2.59
458.728	2.58
459.081	2.58
459.434	2.56
459.787	2.56
460.141	2.56
460.494	2.58
460.847	2.55
461.2	2.57
461.553	2.57
461.906	2.58
462.259	2.57
462.611	2.55
462.964	2.56
463.317	2.57
463.67	2.59
464.022	2.6
464.375	2.6
464.728	2.62
465.08	2.61
465.433	2.61
465.785	2.62
466.138	2.63
466.49	2.64
466.843	2.67
467.195	2.69
467.547	2.66
467.899	2.67
468.252	2.71
468.604	2.7
468.956	2.7
469.308	2.72
469.66	2.75
470.012	2.76
470.364	2.78
470.716	2.78
471.068	2.78
471.42	2.79
471.772	2.8
472.123	2.81
472.475	2.85
472.827	2.87
473.178	2.86
473.53	2.87
473.882	2.89
474.233	2.87
474.585	2.88
474.936	2.89
475.288	2.89
475.639	2.87
475.99	2.86
476.342	2.86
476.693	2.84
477.044	2.81
477.395	2.82
477.746	2.8
478.097	2.8
478.448	2.77
478.8	2.77
479.15	2.75
479.501	2.75
479.852	2.74
480.203	2.75
480.554	2.75
480.905	2.75
481.255	2.74
481.606	2.74
481.957	2.74
482.307	2.75
482.658	2.76
483.009	2.75
483.359	2.76
483.709	2.76
484.06	2.76
484.41	2.77
484.761	2.77
485.111	2.78
485.461	2.78
485.811	2.79
486.162	2.78
486.512	2.79
486.862	2.79
487.212	2.79
487.562	2.77
487.912	2.79
488.262	2.78
488.612	2.79
488.961	2.79
489.311	2.78
489.661	2.77
490.011	2.76
490.36	2.76
490.71	2.76
491.06	2.77
491.409	2.76
491.759	2.75
492.108	2.75
492.458	2.75
492.807	2.76
493.157	2.77
493.506	2.78
493.855	2.8
494.204	2.81
494.554	2.82
494.903	2.84
495.252	2.83
495.601	2.86
495.95	2.86
496.299	2.87
496.648	2.9
496.997	2.94
497.346	2.97
497.695	3.01
498.043	3.03
498.392	3.04
498.741	3.08
499.09	3.13
499.438	3.15
499.787	3.19
500.135	3.2
500.484	3.23
500.832	3.28
501.181	3.32
501.529	3.37
501.878	3.43
502.226	3.48
502.574	3.52
502.923	3.56
503.271	3.64
503.619	3.73
503.967	3.77
504.315	3.83
504.663	3.87
505.011	3.93
505.359	3.99
505.707	4.05
506.055	4.13
506.403	4.2
506.751	4.28
507.098	4.38
507.446	4.47
507.794	4.54
508.141	4.62
508.489	4.72
508.837	4.77
509.184	4.84
509.531	4.95
509.879	5.04
510.226	5.12
510.574	5.18
510.921	5.26
511.268	5.37
511.616	5.49
511.963	5.61
512.31	5.74
512.657	5.87
513.004	6.02
513.351	6.15
513.698	6.27
514.045	6.44
514.392	6.58
514.739	6.75
515.086	6.92
515.432	7.06
515.779	7.2
516.126	7.38
516.473	7.5
516.819	7.63
517.166	7.8
517.512	7.95
517.859	8.13
518.205	8.27
518.552	8.39
518.898	8.5
519.245	8.66
519.591	8.78
519.937	8.92
520.283	9.06
520.629	9.19
520.976	9.34
521.322	9.47
521.668	9.63
522.014	9.8
522.36	9.95
522.706	10.17
523.052	10.36
523.398	10.53
523.743	10.78
524.089	11.01
524.435	11.18
524.781	11.39
525.126	11.56
525.472	11.72
525.817	11.89
526.163	12.03
526.509	12.14
526.854	12.28
527.199	12.4
527.545	12.52
527.89	12.64
528.235	12.77
528.581	12.92
528.926	13.05
529.271	13.19
529.616	13.33
529.961	13.47
530.306	13.63
530.651	13.77
530.996	13.92
531.341	14.09
531.686	14.28
532.031	14.45
532.376	14.65
532.721	14.83
533.065	15.04
533.41	15.26
533.755	15.48
534.099	15.68
534.444	15.9
534.788	16.12
535.133	16.35
535.477	16.58
535.822	16.82
536.166	17.09
536.51	17.37
536.855	17.67
537.199	17.95
537.543	18.26
537.887	18.61
538.231	18.94
538.576	19.25
538.92	19.55
539.264	19.86
539.608	20.11
539.951	20.38
540.295	20.65
540.639	20.93
540.983	21.21
541.327	21.49
541.671	21.75
542.014	22.03
542.358	22.28
542.701	22.56
543.045	22.81
543.389	23.07
543.732	23.33
544.075	23.62
544.419	23.93
544.762	24.2
545.105	24.51
545.449	24.81
545.792	25.16
546.135	25.51
546.478	25.9
546.821	26.3
547.165	26.73
547.508	27.11
547.851	27.46
548.194	27.84
548.536	28.27
548.879	28.63
549.222	29.06
549.565	29.49
549.908	29.85
550.25	30.21
550.593	30.66
550.936	31.04
551.278	31.44
551.621	31.8
551.963	32.22
552.306	32.61
552.648	33.07
552.991	33.43
553.333	33.85
553.675	34.14
554.017	34.5
554.36	34.87
554.702	35.26
555.044	35.66
555.386	36.02
555.728	36.29
556.07	36.62
556.412	36.95
556.754	37.28
557.096	37.65
557.438	38.04
557.78	38.32
558.121	38.68
558.463	39.02
558.805	39.34
559.147	39.62
559.488	39.89
559.83	40.18
560.171	40.49
560.513	40.74
560.854	41.14
561.196	41.44
561.537	41.7
561.878	41.96
562.22	42.22
562.561	42.45
562.902	42.74
563.243	43.04
563.584	43.25
563.925	43.46
564.266	43.69
564.607	43.94
564.948	44.16
565.289	44.41
565.63	44.64
565.971	44.95
566.312	45.18
566.653	45.45
566.993	45.62
567.334	45.84
567.675	45.99
568.015	46.11
568.356	46.29
568.696	46.47
569.037	46.65
569.377	46.81
569.718	47.01
570.058	47.15
570.398	47.36
570.739	47.54
571.079	47.77
571.419	47.99
571.759	48.17
572.099	48.43
572.439	48.57
572.779	48.75
573.119	48.87
573.459	49.01
573.799	49.13
574.139	49.27
574.479	49.43
574.819	49.69
575.158	49.94
575.498	50.13
575.838	50.26
576.177	50.48
576.517	50.76
576.856	51.05
577.196	51.34
577.535	51.61
577.875	51.92
578.214	52.2
578.553	52.37
578.893	52.64
579.232	52.82
579.571	53.12
579.91	53.27
580.25	53.48
580.589	53.77
580.928	54
581.267	54.26
581.606	54.56
581.945	54.81
582.283	54.99
582.622	55.23
582.961	55.52
583.3	55.71
583.639	55.85
583.977	55.98
584.316	56.14
584.654	56.22
584.993	56.25
585.332	56.37
585.67	56.56
586.008	56.65
586.347	56.58
586.685	56.59
587.024	56.74
587.362	56.85
587.7	56.92
588.038	56.99
588.376	57.05
588.715	56.99
589.053	56.97
589.391	57.04
589.729	57.09
590.067	57.12
590.404	57.16
590.742	57.21
591.08	57.34
591.418	57.3
591.756	57.36
592.093	57.39
592.431	57.39
592.769	57.44
593.106	57.49
593.444	57.64
593.781	57.62
594.119	57.7
594.456	57.71
594.793	57.74
595.131	57.79
595.468	57.87
595.805	57.97
596.143	58.04
596.48	58.1
596.817	58.13
597.154	58.25
597.491	58.34
597.828	58.41
598.165	58.39
598.502	58.57
598.839	58.69
599.176	58.8
599.512	58.81
599.849	58.91
600.186	58.91
600.523	58.91
600.859	59.04
601.196	59.06
601.532	59.1
601.869	59.19
602.205	59.29
602.542	59.34
602.878	59.37
603.215	59.46
603.551	59.46
603.887	59.45
604.223	59.47
604.56	59.48
604.896	59.48
605.232	59.56
605.568	59.58
605.904	59.61
606.24	59.7
606.576	59.83
606.912	59.79
607.248	59.93
607.583	60.03
607.919	60.09
608.255	60.17
608.591	60.35
608.926	60.36
609.262	60.4
609.597	60.4
609.933	60.53
610.268	60.58
610.604	60.72
610.939	60.86
611.275	60.93
611.61	61.03
611.945	61.11
612.281	61.2
612.616	61.26
612.951	61.31
613.286	61.36
613.621	61.43
613.956	61.62
614.291	61.66
614.626	61.96
614.961	62.13
615.296	62.22
615.631	62.21
615.966	62.42
616.3	62.66
616.635	62.85
616.97	62.86
617.304	62.97
617.639	63.01
617.973	63.09
618.308	63.13
618.642	63.17
618.977	63.32
619.311	63.43
619.646	63.54
619.98	63.63
620.314	63.7
620.648	63.65
620.983	63.69
621.317	63.81
621.651	63.66
621.985	63.61
622.319	63.48
622.653	63.42
622.987	63.26
623.321	63.08
623.655	63.02
623.988	62.92
624.322	62.69
624.656	62.71
624.99	62.62
625.323	62.51
625.657	62.48
625.99	62.4
626.324	62.21
626.657	62.16
626.991	62.1
627.324	62.1
627.658	62.16
627.991	62.13
628.324	62.13
628.657	62.17
628.991	62.31
629.324	62.48
629.657	62.58
629.99	62.67
630.323	62.75
630.656	62.77
630.989	62.84
631.322	63.09
631.655	63.08
631.987	63.23
632.32	63.44
632.653	63.58
632.986	63.76
633.318	63.9
633.651	63.97
633.984	64.04
634.316	64.09
634.649	64.04
634.981	64.16
635.313	64.25
635.646	64.26
635.978	64.24
636.31	64.28
636.643	64.29
636.975	64.41
637.307	64.5
637.639	64.69
637.971	64.81
638.303	64.89
638.635	64.99
638.967	65.01
639.299	64.95
639.631	64.98
639.963	64.93
640.295	65.1
640.626	65.17
640.958	65.22
641.29	65.24
641.621	65.51
641.953	65.44
642.285	65.46
642.616	65.59
642.948	65.68
643.279	65.71
643.61	65.83
643.942	65.7
644.273	65.75
644.604	65.67
644.936	65.71
645.267	65.48
645.598	65.53
645.929	65.51
646.26	65.67
646.591	65.78
646.922	65.79
647.253	65.69
647.584	65.59
647.915	65.49
648.245	65.58
648.576	65.47
648.907	65.56
649.238	65.47
649.568	65.47
649.899	65.37
650.229	65.46
650.56	65.38
650.89	65.51
651.221	65.4
651.551	65.32
651.882	65.34
652.212	65.43
652.542	65.49
652.872	65.52
653.203	65.33
653.533	65.13
653.863	65.03
654.193	64.88
654.523	64.74
654.853	64.82
655.183	64.56
655.513	64.38
655.843	64.2
656.172	64.06
656.502	63.93
656.832	63.91
657.162	63.75
657.491	63.81
657.821	63.77
658.15	63.86
658.48	63.94
658.809	63.93
659.139	64.08
659.468	64.05
659.798	64.08
660.127	64.26
660.456	64.36
660.785	64.49
661.115	64.78
661.444	65.07
661.773	65.11
662.102	65.21
662.431	65.57
662.76	65.8
663.089	65.98
663.418	66.15
663.747	66.21
664.076	66.38
664.404	66.38
664.733	66.4
665.062	66.48
665.39	66.47
665.719	66.53
666.048	66.4
666.376	66.28
666.705	66.13
667.033	66.05
667.362	65.98
667.69	65.95
668.018	65.71
668.347	65.63
668.675	65.6
669.003	65.73
669.331	65.6
669.659	65.54
669.987	65.52
670.315	65.49
670.643	65.45
670.971	65.41
671.299	65.49
671.627	65.47
671.955	65.45
672.283	65.41
672.61	65.39
672.938	65.53
673.266	65.72
673.593	65.86
673.921	65.76
674.249	65.79
674.576	65.72
674.904	65.82
675.231	65.7
675.558	65.76
675.886	65.6
676.213	65.67
676.54	65.54
676.867	65.41
677.195	65.32
677.522	65.35
677.849	65.22
678.176	65.13
678.503	65.15
678.83	65.02
679.157	64.94
679.484	64.7
679.81	64.47
680.137	64.34
680.464	64.26
680.791	64.32
681.117	64.32
681.444	64.42
681.771	64.35
682.097	64.38
682.424	64.27
682.75	64.28
683.077	64.12
683.403	64.12
683.729	64.03
684.056	63.82
684.382	63.72
684.708	63.75
685.034	63.72
685.36	63.64
685.686	63.58
686.012	63.54
686.339	63.58
686.664	63.65
686.99	63.42
687.316	63.39
687.642	63.33
687.968	63.26
688.294	63.07
688.619	63.09
688.945	63.05
689.271	63.25
689.596	63.18
689.922	63.26
690.247	63.29
690.573	63.5
690.898	63.8
691.224	64.13
691.549	64.2
691.874	64.14
692.2	64.26
692.525	64.36
692.85	64.45
693.175	64.57
693.5	64.37
693.825	64.65
694.15	64.61
694.475	64.54
694.8	64.55
695.125	64.64
695.45	64.31
695.775	64.05
696.099	63.78
696.424	63.81
696.749	63.75
697.073	63.69
697.398	63.51
697.723	63.44
698.047	63.15
698.372	63.2
698.696	63.15
699.02	62.99
699.345	63.02
699.669	62.98
699.993	62.92
700.318	63.15
700.642	63.26
700.966	63.44
701.29	63.52
701.614	63.51
701.938	63.55
702.262	63.83
702.586	64.16
702.91	64.56
703.234	64.58
703.557	64.66
703.881	64.85
704.205	65.27
704.529	65.12
704.852	65.2
705.176	65.1
705.499	65.11
705.823	65.16
706.146	65.19
706.47	65.24
706.793	65.41
707.117	65.43
707.44	65.15
707.763	64.9
708.086	64.9
708.409	65.01
708.733	64.85
709.056	64.92
709.379	64.77
709.702	64.51
710.025	64.47
710.348	64.48
710.671	64.42
710.993	64.19
711.316	64.53
711.639	64.42
711.962	64.46
712.284	64.49
712.607	64.55
712.93	64.43
713.252	64.33
713.575	64.31
713.897	64.25
714.22	64.37
714.542	64.51
714.864	64.47
715.187	64.16
715.509	64.16
715.831	64.23
716.153	64.31
716.475	64.35
716.798	64.51
717.12	64.19
717.442	63.98
717.764	64.08
718.085	64
718.407	64.09
718.729	64.03
719.051	64.04
719.373	64.11
719.695	64.28
720.016	64.62
720.338	64.55
720.659	64.66
720.981	64.4
721.302	64.46
721.624	64.62
721.945	64.81
722.267	64.93
722.588	64.74
722.909	64.62
723.231	64.61
723.552	64.68
723.873	65.08
724.194	65.26
724.515	65.09
724.836	64.89
725.157	64.91
725.478	64.94
725.799	65.06
726.12	64.96
726.441	65.02
726.762	64.59
727.083	64.42
727.403	64.03
727.724	64.23
728.045	64.03
728.365	63.7
728.686	63.77
729.006	63.58
729.327	63.53
729.647	63.49
729.967	63.34
730.288	63.17
730.608	63.21
730.928	63.36
731.249	63.34
731.569	63.52
731.889	63.47
732.209	63.36
732.529	63.24
732.849	63.36
733.169	62.98
733.489	63.37
733.809	63.6
734.129	63.76
734.448	63.88
734.768	63.79
735.088	63.83
735.408	63.87
735.727	64.06
736.047	64.2
736.366	64.16
736.686	64.07
737.005	64.27
737.325	64.4
737.644	64.24
737.963	64.43
738.283	64.42
738.602	64.45
738.921	64.4
739.24	64.4
739.56	64.3
739.879	64.46
740.198	64.2
740.517	63.91
740.836	63.93
741.155	63.57
741.473	63.82
741.792	63.97
742.111	63.86
742.43	63.77
742.748	63.57
743.067	63.93
743.386	64.09
743.704	64.1
744.023	63.94
744.341	64.24
744.66	63.92
744.978	63.71
745.297	63.71
745.615	63.78
745.933	63.92
746.252	63.92
746.57	63.92
746.888	63.95
747.206	63.98
747.524	63.95
747.842	64.05
748.16	63.75
748.478	63.82
748.796	63.6
749.114	63.54
749.432	63.58
749.749	63.39
750.067	63.46
750.385	63.04
750.703	62.73
751.02	62.44
751.338	62.4
751.655	62.8
751.973	62.83
752.29	63.03
752.608	63.26
752.925	63.18
753.242	63.58
753.56	63.39
753.877	63.36
754.194	63.89
754.511	63.72
754.828	64.04
755.145	63.82
755.462	63.78
755.779	63.45
756.096	63.34
756.413	63.3
756.73	63.17
757.047	63.28
757.364	63.18
757.68	62.58
757.997	62.64
758.314	62.15
758.63	61.94
758.947	61.71
759.264	60.88
759.58	60.5
759.896	59.8
760.213	59.4
760.529	59.14
760.846	58.58
761.162	58.69
761.478	58.42
761.794	58.43
762.11	58.77
762.426	58.73
762.743	58.63
763.059	58.71
763.375	58.66
763.69	58.57
764.006	58.58
764.322	58.85
764.638	59.09
764.954	59.1
765.27	58.98
765.585	59.18
765.901	59.52
766.216	59.64
766.532	59.82
766.848	60.14
767.163	60.49
767.478	60.7
767.794	60.77
768.109	60.82
768.424	60.78
768.74	60.61
769.055	61.09
769.37	60.75
769.685	60.56
770	60.8
770.315	61.1
770.63	61.32
770.945	61.26
771.26	60.98
771.575	61.06
771.89	61
772.205	61.02
772.52	61.26
772.834	61.39
773.149	61.51
773.464	61.48
773.778	61.41
774.093	61.44
774.407	61.6
774.722	61.55
775.036	61.96
775.351	61.99
775.665	62.03
775.979	62.84
776.293	63.01
776.608	62.74
776.922	62.35
777.236	62.3
777.55	62.49
777.864	62.83
778.178	62.67
778.492	63.21
778.806	62.95
779.12	62.38
779.434	62.65
779.747	62.38
780.061	62.62
780.375	63.18
780.689	63.29
781.002	63.21
781.316	63.14
781.629	63.39
781.943	62.97
782.256	62.7
782.57	63.15
782.883	63.14
783.196	63.65
783.51	63.69
783.823	63.77
784.136	64.17
784.449	63.87
784.762	63.79
785.075	64.12
785.388	64.34
785.701	64.46
786.014	64.06
786.327	64.7
786.64	64.44
786.953	63.86
787.266	63.57
787.578	63.37
787.891	63.25
788.204	62.46
788.516	62.98
788.829	62.84
789.141	62.75
789.454	62.89
789.766	62.66
790.079	62.63
790.391	62.59
790.703	62.59
791.016	62.21
791.328	62.6
791.64	62.13
791.952	61.79
792.264	61.63
792.576	62.39
792.888	62.09
793.2	62.07
793.512	62.07
793.824	62.09
794.136	62.09
794.448	62.23
794.76	62.49
795.071	62.03
795.383	62.31
795.695	61.97
796.006	61.49
796.318	61.01
796.629	60.98
796.941	60.68
797.252	60.83
797.564	61.49
797.875	61.39
798.186	61
798.497	60.87
798.809	61.33
799.12	60.25
799.431	60.17
799.742	60.57
800.053	60.31
800.364	60.68
800.675	59.97
800.986	60.04
801.297	59.75
801.608	59.9
801.918	59.88
802.229	59.53
802.54	59.1
802.851	58.84
803.161	59.6
803.472	60.21
803.782	60.3
804.093	60.21
804.403	59.44
804.714	59.52
805.024	59.57
805.334	59.25
805.645	60.29
805.955	59.74
806.265	59.05
806.575	59.2
806.885	58.82
807.195	58.94
807.505	59.23
807.815	59.53
808.125	59.78
808.435	60.19
808.745	60.57
809.055	61.55
809.365	61.83
809.674	61.5
809.984	60.21
810.294	59.14
810.603	58.84
810.913	59.55
811.222	59.19
811.532	59.94
811.841	60.82
812.151	59.93
812.46	60.51
812.769	61.33
813.079	61.02
813.388	61.56
813.697	61.65
814.006	61.49
814.315	61.1
814.624	60.61
814.933	59.99
815.242	59.84
815.551	59.63
815.86	59.63
816.169	60.09
816.478	60.88
816.786	60.65
817.095	60.08
817.404	59.87
817.712	59.62
818.021	58.44
818.33	58.5
818.638	58.32
818.947	58.41
819.255	58.31
819.563	58.62
819.872	57.86
820.18	57.77
820.488	57.61
820.796	57.29
821.105	57.24
821.413	57.36
821.721	57.28
822.029	57.08
822.337	56.96
822.645	56.63
822.953	56.69
823.26	56.71
823.568	56.77
823.876	56.75
824.184	56.87
824.491	56.71
824.799	56.54
825.107	56.44
825.414	56.13
825.722	55.88
826.029	55.77
826.337	56.03
826.644	56.06
826.951	55.95
827.259	56.01
827.566	55.69
827.873	55.45
828.18	55.37
828.488	55.22
828.795	55.2
829.102	55.25
829.409	55.15
829.716	54.94
830.023	55.09
830.329	55.13
830.636	54.92
830.943	55.7
831.25	55.69
831.557	55.93
831.863	55.91
832.17	55.96
832.476	56.12
832.783	55.78
833.089	55.85
833.396	56.04
833.702	56.36
834.009	56.6
834.315	56.36
834.621	56.37
834.928	56.71
835.234	56.62
835.54	56.14
835.846	55.88
836.152	56.24
836.458	55.39
836.764	55.22
837.07	55.01
837.376	54.63
837.682	54.7
837.988	54.44
838.293	55
838.599	55.52
838.905	54.52
839.211	53.6
839.516	53.91
839.822	54.14
840.127	53.58
840.433	53.92
840.738	53.99
841.044	54.35
841.349	54.48
841.654	54.38
841.959	55.49
842.265	55.84
842.57	55.76
842.875	56.99
843.18	56.94
843.485	57.98
843.79	57.71
844.095	56.41
844.4	57.87
844.705	58.42
845.01	56.93
845.315	57.57
845.619	58.64
845.924	57.73
846.229	56.36
846.533	56.95
846.838	58.32
847.142	58.28
847.447	55.59
847.751	56.5
848.056	55.23
848.36	54.27
848.664	53.07
848.969	51.89
849.273	51.21
849.577	52.21
849.881	50.76
850.185	50.54
850.489	50.24
850.794	48.88
851.097	46.3
851.401	47.05
851.705	46.97
852.009	46.77
852.313	45.84
852.617	48.51
852.92	49.64
853.224	48.75
853.528	45.83
853.831	47.19
854.135	44.98
854.438	46.91
854.742	46.46
855.045	46.38
855.349	46.9
855.652	47.09
855.955	45.35
856.259	44.95
856.562	45.14
856.865	45.86
857.168	44.1
857.471	45.75
857.774	45.54
858.077	47.1
858.38	46.04
858.683	47.37
858.986	45.83
859.289	43.9
859.592	45.44
859.894	48.05
860.197	49.4
860.5	49.24
860.802	47.49
861.105	46.68
861.407	46.34
861.71	45.65
862.012	44.59
862.315	44.07
862.617	45.32
862.919	43.39
863.222	44.7
863.524	45.52
863.826	43.17
864.128	44.67
864.43	43.22
864.732	43.81
865.034	45.11
865.336	46.16
865.638	47.56
865.94	47.88
866.242	47.71
866.544	48.5
866.846	50.72
867.147	54.97
867.449	56.96
867.751	57.18
868.052	58.85
868.354	62.03
868.655	61.38
868.957	61.15
869.258	62.68
869.56	62.63
869.861	59.76
870.162	60.01
870.463	57.54
870.765	59.86
871.066	59.71
871.367	58.29
871.668	57.21
871.969	55.86
872.27	51.37
872.571	51.8
872.872	49.01
873.173	49.98
873.473	49.39
873.774	50.53
874.075	52.45
874.376	52.68
874.676	52.49
874.977	56.83
875.277	57.05
875.578	59.92
875.878	59.2
876.179	63.04
876.479	66.45
876.78	68.24
877.08	65.87
877.38	67.47
877.68	67.69
877.981	67.26
878.281	69.52
878.581	73.71
