Data from BU58138_Reflection_00008.txt Node
Date: Mon Nov 18 16:42:15 EST 2019
User: vgr7
Spectrometer: USB2G7710
Scans to average: 3
Trigger mode: 4
Integration Time (sec): 2.000000E-2
Electric dark correction enabled: true
Boxcar width: 10
XAxis mode: Wavelengths
Number of Pixels in Spectrum: 2048
>>>>>Begin Spectral Data<<<<<
177.721	-15566.67
178.105	465.08
178.488	280.87
178.871	995.83
179.254	14.84
179.636	46.88
180.019	-50.15
180.402	74.07
180.785	27.14
181.168	-25.23
181.55	-46.8
181.933	28.04
182.316	59.23
182.698	86.09
183.081	46.6
183.463	50.19
183.846	63.3
184.228	60.67
184.611	65.24
184.993	103.19
185.376	120.97
185.758	84.74
186.14	91.24
186.522	84.03
186.904	113.21
187.287	396.8
187.669	-197.49
188.051	535.9
188.433	116.72
188.815	1920.51
189.197	-522.9
189.579	-256.73
189.961	-201.79
190.342	-197.04
190.724	-59.98
191.106	-36.95
191.488	-29.21
191.869	-10.71
192.251	-2.54
192.633	-4.89
193.014	-29.45
193.396	-30.62
193.777	-19.57
194.159	-30.94
194.54	-20.87
194.922	-14.2
195.303	-30.66
195.684	-24.04
196.065	2.9
196.447	16.01
196.828	0.02
197.209	24.72
197.59	28.55
197.971	33.89
198.352	54.33
198.733	72.81
199.114	36.92
199.495	36.89
199.876	42.37
200.257	30.33
200.638	45.91
201.018	51.79
201.399	55.28
201.78	58.04
202.16	62.02
202.541	48.2
202.922	72.54
203.302	45.59
203.683	18.84
204.063	-19.14
204.444	-22.44
204.824	-6.07
205.204	-28.85
205.585	-23.88
205.965	-25.98
206.345	-32.97
206.725	-61.04
207.106	-35.98
207.486	-35.37
207.866	-52.93
208.246	-54.06
208.626	-52.79
209.006	-43.09
209.386	-54.96
209.766	-48.08
210.145	-35.52
210.525	-33.23
210.905	-23.44
211.285	-10.84
211.664	-6.67
212.044	-10.57
212.424	-3.41
212.803	-11.01
213.183	-3.47
213.562	-6.08
213.942	-1.83
214.321	-1.23
214.701	5.21
215.08	2.38
215.459	-7.86
215.838	-3.44
216.218	-0.63
216.597	2.48
216.976	2.44
217.355	8.78
217.734	9.55
218.113	8.66
218.492	11.68
218.871	8.68
219.25	16.18
219.629	14.22
220.008	30.67
220.387	24.81
220.766	33.57
221.144	21.64
221.523	9.87
221.902	-11.11
222.28	-17.47
222.659	-11.11
223.037	-30.77
223.416	-13.21
223.794	-9.93
224.173	-7.96
224.551	-7.85
224.929	-7
225.308	-10.05
225.686	-12.26
226.064	-9.9
226.442	-10.72
226.821	-6.98
227.199	-10.11
227.577	-11.11
227.955	-8.21
228.333	-7.48
228.711	-1.9
229.089	3.61
229.467	1.44
229.845	3.94
230.222	4.76
230.6	4.27
230.978	4.97
231.356	7.2
231.733	8.47
232.111	10.07
232.488	10.43
232.866	10.21
233.243	11.93
233.621	13.67
233.998	13.7
234.376	13.55
234.753	11.38
235.13	13.24
235.508	14.4
235.885	13.62
236.262	12.32
236.639	9.71
237.016	8.41
237.393	10.69
237.77	10.36
238.147	10.05
238.524	9.78
238.901	9.41
239.278	8.83
239.655	8.29
240.032	7.81
240.409	7.69
240.785	7.75
241.162	7.23
241.539	6.64
241.915	6.89
242.292	6.39
242.668	6.87
243.045	6.03
243.421	5.82
243.798	5.7
244.174	5.68
244.551	5.77
244.927	5.34
245.303	5.13
245.679	4.9
246.056	4.75
246.432	4.58
246.808	4.37
247.184	4.03
247.56	3.68
247.936	3.59
248.312	3.28
248.688	3.3
249.064	3.02
249.44	3.11
249.815	2.95
250.191	3.3
250.567	3.19
250.943	3.43
251.318	3.48
251.694	3.32
252.069	3.31
252.445	3.37
252.82	3.46
253.196	3.26
253.571	3.25
253.947	3.45
254.322	3.85
254.697	4
255.073	3.95
255.448	4.21
255.823	4.28
256.198	4.23
256.573	3.91
256.948	4.18
257.323	4.28
257.698	4.22
258.073	3.94
258.448	4.06
258.823	4.04
259.198	3.77
259.573	3.72
259.948	3.6
260.322	3.48
260.697	3.54
261.072	3.56
261.446	3.64
261.821	3.5
262.195	3.53
262.57	3.43
262.944	3.47
263.319	3.54
263.693	3.36
264.067	3.51
264.442	3.71
264.816	3.59
265.19	3.34
265.564	3.47
265.938	3.5
266.313	3.37
266.687	3.29
267.061	3.44
267.435	3.56
267.809	3.59
268.183	3.69
268.556	3.54
268.93	3.46
269.304	3.43
269.678	3.48
270.051	3.2
270.425	3.33
270.799	3.35
271.172	3.34
271.546	3.42
271.919	3.24
272.293	3.04
272.666	3.08
273.04	3.08
273.413	2.99
273.787	2.99
274.16	2.85
274.533	2.89
274.906	2.81
275.279	2.75
275.653	2.62
276.026	2.61
276.399	2.7
276.772	2.85
277.145	2.69
277.518	2.62
277.891	2.71
278.263	2.7
278.636	2.7
279.009	2.65
279.382	2.85
279.755	3.07
280.127	3.37
280.5	3.31
280.872	3.44
281.245	3.18
281.617	3.32
281.99	3.42
282.362	3.43
282.735	3.39
283.107	3.37
283.479	3.51
283.852	3.44
284.224	3.38
284.596	3.37
284.968	3.47
285.34	3.64
285.713	3.6
286.085	3.59
286.457	3.73
286.829	3.68
287.201	3.6
287.572	3.48
287.944	3.31
288.316	3.36
288.688	3.27
289.06	3.45
289.431	3.39
289.803	3.35
290.175	3.41
290.546	3.61
290.918	3.6
291.289	3.58
291.661	3.68
292.032	3.85
292.403	3.85
292.775	3.78
293.146	3.61
293.517	3.58
293.889	3.68
294.26	3.58
294.631	3.65
295.002	3.71
295.373	3.77
295.744	3.86
296.115	3.79
296.486	3.78
296.857	3.82
297.228	3.86
297.599	3.88
297.97	3.87
298.34	3.82
298.711	3.94
299.082	4.02
299.452	3.97
299.823	3.96
300.194	3.99
300.564	4.13
300.935	4.28
301.305	4.35
301.676	4.37
302.046	4.39
302.416	4.38
302.787	4.41
303.157	4.38
303.527	4.37
303.897	4.43
304.267	4.58
304.637	4.56
305.008	4.47
305.378	4.58
305.748	4.57
306.117	4.55
306.487	4.55
306.857	4.54
307.227	4.5
307.597	4.47
307.967	4.43
308.336	4.43
308.706	4.44
309.076	4.47
309.445	4.4
309.815	4.35
310.184	4.35
310.554	4.42
310.923	4.53
311.293	4.52
311.662	4.53
312.031	4.6
312.401	4.66
312.77	4.94
313.139	5.08
313.508	5.19
313.877	5.16
314.246	5.16
314.616	5.11
314.985	5.24
315.353	5.31
315.722	5.5
316.091	5.58
316.46	5.54
316.829	5.58
317.198	5.72
317.567	5.91
317.935	5.94
318.304	6
318.672	6.06
319.041	6.28
319.41	6.38
319.778	6.36
320.147	6.39
320.515	6.23
320.883	6.02
321.252	5.98
321.62	6.12
321.988	6.19
322.357	6.24
322.725	6.34
323.093	6.44
323.461	6.44
323.829	6.52
324.197	6.58
324.565	6.58
324.933	6.52
325.301	6.49
325.669	6.55
326.037	6.49
326.405	6.62
326.772	6.61
327.14	6.65
327.508	6.5
327.875	6.36
328.243	6.55
328.61	6.58
328.978	6.65
329.346	6.83
329.713	6.68
330.08	6.75
330.448	6.63
330.815	6.47
331.182	6.32
331.55	6.27
331.917	6.24
332.284	6.27
332.651	6.33
333.018	6.52
333.385	6.67
333.752	6.72
334.119	6.77
334.486	6.79
334.853	6.75
335.22	6.85
335.587	7.08
335.954	7
336.32	7.06
336.687	7.12
337.054	7.08
337.42	7.36
337.787	7.49
338.153	7.51
338.52	7.75
338.886	7.79
339.253	7.6
339.619	7.65
339.986	7.76
340.352	7.78
340.718	7.62
341.084	7.55
341.451	7.64
341.817	7.53
342.183	7.53
342.549	7.72
342.915	7.75
343.281	7.72
343.647	7.59
344.013	7.58
344.379	7.49
344.745	7.44
345.11	7.36
345.476	7.21
345.842	7.32
346.208	7.24
346.573	7.33
346.939	7.58
347.304	7.66
347.67	7.57
348.035	7.52
348.401	7.56
348.766	7.58
349.132	7.44
349.497	7.4
349.862	7.45
350.228	7.35
350.593	7.29
350.958	7.24
351.323	7.22
351.688	7.22
352.053	7.28
352.418	7.34
352.783	7.3
353.148	7.24
353.513	7.21
353.878	7.15
354.243	7.16
354.608	7.09
354.972	7.02
355.337	7.08
355.702	7.13
356.066	7.15
356.431	7.09
356.795	7.22
357.16	7.18
357.524	7.03
357.889	6.97
358.253	6.99
358.618	7.03
358.982	7.08
359.346	7.04
359.71	6.93
360.075	6.9
360.439	6.88
360.803	6.94
361.167	6.94
361.531	6.95
361.895	6.94
362.259	6.86
362.623	6.79
362.987	6.71
363.351	6.69
363.714	6.68
364.078	6.65
364.442	6.52
364.806	6.46
365.169	6.45
365.533	6.43
365.896	6.33
366.26	6.24
366.623	6.17
366.987	6.13
367.35	6.16
367.714	6.09
368.077	6.08
368.44	6.05
368.803	5.93
369.167	5.85
369.53	5.78
369.893	5.76
370.256	5.81
370.619	5.87
370.982	5.8
371.345	5.67
371.708	5.66
372.071	5.56
372.434	5.56
372.797	5.57
373.159	5.51
373.522	5.59
373.885	5.56
374.247	5.54
374.61	5.57
374.973	5.53
375.335	5.48
375.698	5.39
376.06	5.36
376.423	5.35
376.785	5.34
377.147	5.31
377.51	5.28
377.872	5.26
378.234	5.19
378.596	5.15
378.958	5.16
379.321	5.16
379.683	5.16
380.045	5.13
380.407	5.08
380.769	5.05
381.13	4.94
381.492	4.92
381.854	4.92
382.216	4.85
382.578	4.78
382.939	4.74
383.301	4.73
383.663	4.72
384.024	4.71
384.386	4.69
384.747	4.62
385.109	4.6
385.47	4.54
385.832	4.49
386.193	4.45
386.554	4.38
386.916	4.29
387.277	4.26
387.638	4.26
387.999	4.24
388.36	4.24
388.721	4.2
389.082	4.18
389.443	4.15
389.804	4.13
390.165	4.14
390.526	4.13
390.887	4.12
391.248	4.1
391.609	4.08
391.969	4.05
392.33	4.06
392.691	4.02
393.051	3.97
393.412	3.99
393.772	3.98
394.133	4
394.493	4
394.854	3.98
395.214	3.94
395.574	3.94
395.935	3.91
396.295	3.91
396.655	3.89
397.015	3.87
397.376	3.84
397.736	3.8
398.096	3.81
398.456	3.79
398.816	3.69
399.176	3.67
399.535	3.64
399.895	3.58
400.255	3.57
400.615	3.6
400.975	3.52
401.334	3.49
401.694	3.44
402.054	3.41
402.413	3.44
402.773	3.41
403.132	3.36
403.492	3.33
403.851	3.33
404.211	3.29
404.57	3.27
404.929	3.25
405.288	3.23
405.648	3.18
406.007	3.16
406.366	3.13
406.725	3.14
407.084	3.16
407.443	3.18
407.802	3.2
408.161	3.16
408.52	3.17
408.879	3.19
409.238	3.17
409.596	3.18
409.955	3.15
410.314	3.2
410.673	3.19
411.031	3.22
411.39	3.2
411.748	3.2
412.107	3.21
412.465	3.18
412.824	3.18
413.182	3.16
413.54	3.18
413.899	3.24
414.257	3.21
414.615	3.17
414.974	3.16
415.332	3.15
415.69	3.13
416.048	3.11
416.406	3.08
416.764	3.09
417.122	3.09
417.48	3.07
417.838	3.02
418.195	3.02
418.553	3
418.911	2.99
419.269	3
419.626	2.97
419.984	2.97
420.342	2.98
420.699	2.98
421.057	2.98
421.414	2.95
421.772	2.94
422.129	2.94
422.486	2.93
422.844	2.91
423.201	2.92
423.558	2.92
423.915	2.93
424.273	2.92
424.63	2.91
424.987	2.91
425.344	2.91
425.701	2.91
426.058	2.91
426.415	2.91
426.772	2.89
427.128	2.89
427.485	2.89
427.842	2.87
428.199	2.85
428.555	2.83
428.912	2.84
429.269	2.83
429.625	2.82
429.982	2.81
430.338	2.84
430.695	2.83
431.051	2.8
431.407	2.79
431.764	2.79
432.12	2.77
432.476	2.76
432.832	2.75
433.189	2.74
433.545	2.75
433.901	2.75
434.257	2.75
434.613	2.77
434.969	2.78
435.325	2.79
435.681	2.8
436.036	2.79
436.392	2.77
436.748	2.79
437.104	2.79
437.459	2.8
437.815	2.79
438.171	2.79
438.526	2.81
438.882	2.81
439.237	2.82
439.593	2.84
439.948	2.84
440.304	2.85
440.659	2.84
441.014	2.84
441.369	2.84
441.725	2.84
442.08	2.82
442.435	2.82
442.79	2.81
443.145	2.8
443.5	2.79
443.855	2.81
444.21	2.79
444.565	2.79
444.92	2.8
445.275	2.78
445.629	2.78
445.984	2.77
446.339	2.75
446.693	2.74
447.048	2.72
447.403	2.72
447.757	2.73
448.112	2.73
448.466	2.71
448.82	2.7
449.175	2.71
449.529	2.7
449.883	2.7
450.238	2.7
450.592	2.71
450.946	2.71
451.3	2.69
451.654	2.68
452.008	2.68
452.362	2.65
452.716	2.66
453.07	2.69
453.424	2.68
453.778	2.68
454.132	2.69
454.486	2.7
454.839	2.69
455.193	2.65
455.547	2.64
455.9	2.67
456.254	2.68
456.607	2.67
456.961	2.68
457.314	2.69
457.668	2.69
458.021	2.68
458.375	2.69
458.728	2.7
459.081	2.71
459.434	2.7
459.787	2.71
460.141	2.7
460.494	2.68
460.847	2.68
461.2	2.7
461.553	2.69
461.906	2.69
462.259	2.69
462.611	2.72
462.964	2.72
463.317	2.71
463.67	2.72
464.022	2.73
464.375	2.72
464.728	2.71
465.08	2.7
465.433	2.72
465.785	2.72
466.138	2.72
466.49	2.73
466.843	2.74
467.195	2.74
467.547	2.75
467.899	2.74
468.252	2.74
468.604	2.76
468.956	2.77
469.308	2.76
469.66	2.77
470.012	2.78
470.364	2.79
470.716	2.8
471.068	2.8
471.42	2.83
471.772	2.84
472.123	2.85
472.475	2.87
472.827	2.89
473.178	2.9
473.53	2.91
473.882	2.91
474.233	2.91
474.585	2.93
474.936	2.92
475.288	2.96
475.639	2.97
475.99	2.95
476.342	2.94
476.693	2.96
477.044	2.97
477.395	2.96
477.746	2.94
478.097	2.93
478.448	2.91
478.8	2.89
479.15	2.85
479.501	2.86
479.852	2.85
480.203	2.82
480.554	2.82
480.905	2.8
481.255	2.81
481.606	2.81
481.957	2.81
482.307	2.82
482.658	2.81
483.009	2.8
483.359	2.79
483.709	2.8
484.06	2.79
484.41	2.79
484.761	2.79
485.111	2.79
485.461	2.79
485.811	2.79
486.162	2.79
486.512	2.81
486.862	2.82
487.212	2.82
487.562	2.82
487.912	2.83
488.262	2.83
488.612	2.83
488.961	2.82
489.311	2.82
489.661	2.82
490.011	2.83
490.36	2.83
490.71	2.84
491.06	2.85
491.409	2.85
491.759	2.84
492.108	2.85
492.458	2.85
492.807	2.85
493.157	2.86
493.506	2.88
493.855	2.86
494.204	2.86
494.554	2.87
494.903	2.88
495.252	2.89
495.601	2.89
495.95	2.9
496.299	2.92
496.648	2.93
496.997	2.95
497.346	2.96
497.695	2.98
498.043	3
498.392	3
498.741	3.04
499.09	3.04
499.438	3.08
499.787	3.11
500.135	3.16
500.484	3.18
500.832	3.19
501.181	3.24
501.529	3.25
501.878	3.26
502.226	3.31
502.574	3.32
502.923	3.36
503.271	3.39
503.619	3.43
503.967	3.45
504.315	3.48
504.663	3.53
505.011	3.55
505.359	3.61
505.707	3.65
506.055	3.69
506.403	3.76
506.751	3.78
507.098	3.82
507.446	3.88
507.794	3.9
508.141	3.97
508.489	4.01
508.837	4.08
509.184	4.13
509.531	4.17
509.879	4.24
510.226	4.32
510.574	4.39
510.921	4.46
511.268	4.52
511.616	4.59
511.963	4.64
512.31	4.7
512.657	4.78
513.004	4.87
513.351	4.95
513.698	5.03
514.045	5.13
514.392	5.23
514.739	5.3
515.086	5.41
515.432	5.5
515.779	5.59
516.126	5.67
516.473	5.79
516.819	5.9
517.166	6
517.512	6.06
517.859	6.15
518.205	6.23
518.552	6.34
518.898	6.43
519.245	6.53
519.591	6.65
519.937	6.73
520.283	6.84
520.629	6.96
520.976	7.07
521.322	7.18
521.668	7.3
522.014	7.43
522.36	7.57
522.706	7.71
523.052	7.87
523.398	8.06
523.743	8.21
524.089	8.34
524.435	8.47
524.781	8.65
525.126	8.79
525.472	8.92
525.817	9.03
526.163	9.15
526.509	9.26
526.854	9.36
527.199	9.47
527.545	9.55
527.89	9.64
528.235	9.74
528.581	9.84
528.926	9.94
529.271	10.05
529.616	10.15
529.961	10.26
530.306	10.36
530.651	10.45
530.996	10.56
531.341	10.7
531.686	10.83
532.031	10.96
532.376	11.09
532.721	11.23
533.065	11.39
533.41	11.54
533.755	11.7
534.099	11.85
534.444	11.97
534.788	12.14
535.133	12.29
535.477	12.45
535.822	12.6
536.166	12.77
536.51	12.95
536.855	13.15
537.199	13.36
537.543	13.59
537.887	13.81
538.231	14.04
538.576	14.23
538.92	14.44
539.264	14.6
539.608	14.8
539.951	14.99
540.295	15.15
540.639	15.32
540.983	15.49
541.327	15.66
541.671	15.86
542.014	16.03
542.358	16.19
542.701	16.39
543.045	16.57
543.389	16.73
543.732	16.9
544.075	17.06
544.419	17.22
544.762	17.37
545.105	17.56
545.449	17.73
545.792	17.94
546.135	18.18
546.478	18.46
546.821	18.71
547.165	18.94
547.508	19.2
547.851	19.42
548.194	19.65
548.536	19.9
548.879	20.12
549.222	20.35
549.565	20.64
549.908	20.85
550.25	21.11
550.593	21.38
550.936	21.64
551.278	21.91
551.621	22.19
551.963	22.48
552.306	22.72
552.648	22.99
552.991	23.31
553.333	23.54
553.675	23.76
554.017	23.95
554.36	24.19
554.702	24.41
555.044	24.65
555.386	24.88
555.728	25.14
556.07	25.38
556.412	25.65
556.754	25.85
557.096	26.06
557.438	26.31
557.78	26.62
558.121	26.87
558.463	27.08
558.805	27.35
559.147	27.53
559.488	27.82
559.83	28.05
560.171	28.18
560.513	28.4
560.854	28.62
561.196	28.84
561.537	29.08
561.878	29.32
562.22	29.52
562.561	29.74
562.902	29.93
563.243	30.14
563.584	30.33
563.925	30.51
564.266	30.69
564.607	30.85
564.948	30.96
565.289	31.14
565.63	31.32
565.971	31.46
566.312	31.72
566.653	31.89
566.993	32.05
567.334	32.25
567.675	32.43
568.015	32.61
568.356	32.82
568.696	32.99
569.037	33.11
569.377	33.28
569.718	33.39
570.058	33.55
570.398	33.68
570.739	33.87
571.079	34.11
571.419	34.26
571.759	34.4
572.099	34.58
572.439	34.75
572.779	34.9
573.119	35.08
573.459	35.23
573.799	35.37
574.139	35.5
574.479	35.61
574.819	35.74
575.158	35.89
575.498	36
575.838	36.11
576.177	36.24
576.517	36.36
576.856	36.54
577.196	36.68
577.535	36.82
577.875	36.97
578.214	37.04
578.553	37.2
578.893	37.33
579.232	37.45
579.571	37.58
579.91	37.82
580.25	37.89
580.589	38
580.928	38.09
581.267	38.21
581.606	38.4
581.945	38.54
582.283	38.65
582.622	38.82
582.961	39.01
583.3	39.19
583.639	39.35
583.977	39.47
584.316	39.61
584.654	39.76
584.993	39.81
585.332	39.91
585.67	40.02
586.008	40.2
586.347	40.3
586.685	40.4
587.024	40.38
587.362	40.52
587.7	40.6
588.038	40.71
588.376	40.84
588.715	40.89
589.053	40.96
589.391	40.99
589.729	41.09
590.067	41.1
590.404	41.11
590.742	41.16
591.08	41.21
591.418	41.31
591.756	41.36
592.093	41.41
592.431	41.48
592.769	41.6
593.106	41.68
593.444	41.77
593.781	41.83
594.119	41.87
594.456	41.94
594.793	42.02
595.131	42.06
595.468	42.11
595.805	42.18
596.143	42.2
596.48	42.25
596.817	42.33
597.154	42.41
597.491	42.55
597.828	42.63
598.165	42.72
598.502	42.73
598.839	42.77
599.176	42.78
599.512	42.82
599.849	42.86
600.186	42.87
600.523	42.95
600.859	43
601.196	43.07
601.532	43.11
601.869	43.17
602.205	43.23
602.542	43.28
602.878	43.37
603.215	43.46
603.551	43.6
603.887	43.56
604.223	43.62
604.56	43.68
604.896	43.74
605.232	43.77
605.568	43.85
605.904	43.89
606.24	44.02
606.576	44.1
606.912	44.16
607.248	44.22
607.583	44.29
607.919	44.32
608.255	44.38
608.591	44.47
608.926	44.47
609.262	44.52
609.597	44.57
609.933	44.56
610.268	44.63
610.604	44.67
610.939	44.84
611.275	44.79
611.61	44.84
611.945	44.89
612.281	44.91
612.616	44.87
612.951	45
613.286	44.99
613.621	45.03
613.956	45.03
614.291	45.05
614.626	45.03
614.961	45.1
615.296	45.18
615.631	45.23
615.966	45.31
616.3	45.31
616.635	45.32
616.97	45.42
617.304	45.38
617.639	45.3
617.973	45.21
618.308	45.29
618.642	45.24
618.977	45.24
619.311	45.32
619.646	45.39
619.98	45.34
620.314	45.44
620.648	45.46
620.983	45.52
621.317	45.59
621.651	45.63
621.985	45.7
622.319	45.76
622.653	45.76
622.987	45.84
623.321	45.91
623.655	46
623.988	46.06
624.322	46.14
624.656	46.21
624.99	46.25
625.323	46.25
625.657	46.25
625.99	46.34
626.324	46.34
626.657	46.39
626.991	46.46
627.324	46.49
627.658	46.51
627.991	46.56
628.324	46.52
628.657	46.54
628.991	46.5
629.324	46.51
629.657	46.54
629.99	46.48
630.323	46.51
630.656	46.46
630.989	46.49
631.322	46.48
631.655	46.46
631.987	46.58
632.32	46.64
632.653	46.7
632.986	46.69
633.318	46.7
633.651	46.65
633.984	46.64
634.316	46.6
634.649	46.62
634.981	46.62
635.313	46.64
635.646	46.67
635.978	46.79
636.31	46.81
636.643	46.79
636.975	46.94
637.307	46.95
637.639	46.99
637.971	46.96
638.303	47.07
638.635	47.11
638.967	47.1
639.299	47.18
639.631	47.09
639.963	47.09
640.295	47.17
640.626	47.34
640.958	47.38
641.29	47.5
641.621	47.56
641.953	47.6
642.285	47.69
642.616	47.74
642.948	47.64
643.279	47.57
643.61	47.61
643.942	47.5
644.273	47.54
644.604	47.64
644.936	47.57
645.267	47.41
645.598	47.28
645.929	47.26
646.26	47.24
646.591	47.36
646.922	47.33
647.253	47.31
647.584	47.28
647.915	47.33
648.245	47.2
648.576	47.13
648.907	47.14
649.238	47.15
649.568	47.15
649.899	47.16
650.229	47.17
650.56	47.12
650.89	47.17
651.221	47.24
651.551	47.14
651.882	47.15
652.212	47.25
652.542	47.42
652.872	47.41
653.203	47.37
653.533	47.35
653.863	47.38
654.193	47.5
654.523	47.56
654.853	47.5
655.183	47.64
655.513	47.66
655.843	47.7
656.172	47.63
656.502	47.72
656.832	47.81
657.162	47.88
657.491	47.95
657.821	47.88
658.15	47.89
658.48	47.89
658.809	47.9
659.139	47.92
659.468	47.89
659.798	47.78
660.127	47.81
660.456	47.84
660.785	47.92
661.115	47.89
661.444	47.83
661.773	47.77
662.102	47.75
662.431	47.81
662.76	47.76
663.089	47.8
663.418	47.69
663.747	47.56
664.076	47.57
664.404	47.53
664.733	47.54
665.062	47.61
665.39	47.65
665.719	47.64
666.048	47.57
666.376	47.64
666.705	47.78
667.033	47.78
667.362	47.77
667.69	47.65
668.018	47.53
668.347	47.54
668.675	47.65
669.003	47.68
669.331	47.65
669.659	47.67
669.987	47.65
670.315	47.57
670.643	47.55
670.971	47.49
671.299	47.57
671.627	47.75
671.955	47.66
672.283	47.7
672.61	47.74
672.938	47.81
673.266	47.71
673.593	47.72
673.921	47.64
674.249	47.54
674.576	47.61
674.904	47.7
675.231	47.8
675.558	47.77
675.886	47.85
676.213	47.93
676.54	47.89
676.867	47.89
677.195	48
677.522	48.05
677.849	48.07
678.176	47.97
678.503	47.9
678.83	47.95
679.157	47.89
679.484	47.9
679.81	47.94
680.137	48.01
680.464	48.03
680.791	48.14
681.117	48.24
681.444	48.38
681.771	48.41
682.097	48.28
682.424	48.25
682.75	48.2
683.077	48.22
683.403	48.31
683.729	48.41
684.056	48.47
684.382	48.61
684.708	48.59
685.034	48.71
685.36	48.67
685.686	48.57
686.012	48.63
686.339	48.7
686.664	48.61
686.99	48.66
687.316	48.74
687.642	48.74
687.968	48.78
688.294	48.58
688.619	48.58
688.945	48.63
689.271	48.78
689.596	48.66
689.922	48.7
690.247	48.7
690.573	48.68
690.898	48.64
691.224	48.54
691.549	48.69
691.874	48.74
692.2	48.83
692.525	48.8
692.85	48.83
693.175	48.88
693.5	48.92
693.825	48.7
694.15	48.45
694.475	48.5
694.8	48.47
695.125	48.66
695.45	48.57
695.775	48.74
696.099	48.69
696.424	48.93
696.749	49.01
697.073	49
697.398	49.11
697.723	49.06
698.047	48.98
698.372	48.94
698.696	48.86
699.02	48.68
699.345	48.64
699.669	48.66
699.993	48.61
700.318	48.55
700.642	48.68
700.966	48.8
701.29	48.72
701.614	48.78
701.938	48.66
702.262	48.79
702.586	48.57
702.91	48.56
703.234	48.42
703.557	48.18
703.881	48.26
704.205	48.05
704.529	48.22
704.852	48.3
705.176	48.16
705.499	48.43
705.823	48.85
706.146	48.8
706.47	48.74
706.793	48.86
707.117	48.93
707.44	49.04
707.763	48.98
708.086	48.97
708.409	48.87
708.733	48.76
709.056	48.64
709.379	48.66
709.702	48.7
710.025	48.72
710.348	48.61
710.671	48.38
710.993	48.51
711.316	48.33
711.639	48.52
711.962	48.62
712.284	48.25
712.607	48.09
712.93	48.07
713.252	48.17
713.575	48.01
713.897	47.93
714.22	47.83
714.542	47.91
714.864	47.98
715.187	48.17
715.509	48.37
715.831	48.56
716.153	48.68
716.475	48.55
716.798	48.62
717.12	48.87
717.442	48.97
717.764	49.02
718.085	49.1
718.407	49.07
718.729	49.12
719.051	49.39
719.373	49.25
719.695	49.45
720.016	49.49
720.338	49.57
720.659	49.91
720.981	50.06
721.302	49.9
721.624	49.94
721.945	49.83
722.267	49.84
722.588	49.81
722.909	49.79
723.231	49.85
723.552	49.76
723.873	49.68
724.194	49.62
724.515	49.51
724.836	49.48
725.157	49.56
725.478	49.41
725.799	49.22
726.12	49.29
726.441	49.23
726.762	49.14
727.083	49.2
727.403	49.15
727.724	49.12
728.045	49.41
728.365	49.34
728.686	49.43
729.006	49.54
729.327	49.22
729.647	49.18
729.967	49.17
730.288	49.27
730.608	49.21
730.928	49.33
731.249	49.22
731.569	49.25
731.889	49.14
732.209	49.28
732.529	49.36
732.849	49.31
733.169	49.32
733.489	49.49
733.809	49.4
734.129	49.32
734.448	49.34
734.768	49.23
735.088	49.02
735.408	48.91
735.727	48.59
736.047	48.9
736.366	48.8
736.686	48.79
737.005	48.59
737.325	48.61
737.644	48.36
737.963	48.51
738.283	48.62
738.602	48.72
738.921	48.59
739.24	48.57
739.56	48.71
739.879	48.91
740.198	48.76
740.517	48.78
740.836	48.7
741.155	48.68
741.473	48.67
741.792	49.01
742.111	48.95
742.43	49.31
742.748	49.18
743.067	49.44
743.386	49.69
743.704	49.9
744.023	49.83
744.341	50
744.66	49.74
744.978	49.75
745.297	49.55
745.615	49.76
745.933	49.91
746.252	50.2
746.57	49.99
746.888	50.04
747.206	50.12
747.524	50.08
747.842	50.21
748.16	50.28
748.478	50.16
748.796	50.05
749.114	50.09
749.432	50.13
749.749	50.14
750.067	49.78
750.385	49.69
750.703	49.96
751.02	49.76
751.338	50
751.655	49.92
751.973	49.84
752.29	49.83
752.608	49.62
752.925	49.32
753.242	49.48
753.56	49.68
753.877	49.58
754.194	49.67
754.511	49.82
754.828	49.62
755.145	49.74
755.462	49.99
755.779	49.54
756.096	49.4
756.413	49.42
756.73	49.73
757.047	49.77
757.364	49.63
757.68	49.87
757.997	50.09
758.314	50.09
758.63	50.1
758.947	49.95
759.264	49.99
759.58	50.19
759.896	50.06
760.213	49.65
760.529	49.65
760.846	49.63
761.162	49.32
761.478	49.46
761.794	49.5
762.11	49.57
762.426	49.65
762.743	49.75
763.059	49.61
763.375	49.75
763.69	49.73
764.006	49.9
764.322	50.07
764.638	49.9
764.954	50.16
765.27	50.14
765.585	50.14
765.901	50.2
766.216	50.02
766.532	49.9
766.848	50.03
767.163	50.12
767.478	50.1
767.794	50.24
768.109	50.23
768.424	50.25
768.74	49.95
769.055	50.05
769.37	49.97
769.685	49.98
770	49.92
770.315	50.26
770.63	49.99
770.945	49.8
771.26	49.52
771.575	48.82
771.89	48.89
772.205	49.34
772.52	49.33
772.834	49.11
773.149	49.44
773.464	49.48
773.778	49.32
774.093	49.17
774.407	48.99
774.722	49
775.036	48.93
775.351	49.28
775.665	49.73
775.979	49.72
776.293	49.8
776.608	49.73
776.922	49.04
777.236	49.64
777.55	49.5
777.864	49.9
778.178	50.23
778.492	50.62
778.806	49.92
779.12	49.98
779.434	50.48
779.747	50.41
780.061	50.49
780.375	50.8
780.689	50.96
781.002	51.33
781.316	51.61
781.629	52.06
781.943	52.06
782.256	51.89
782.57	52.18
782.883	51.9
783.196	51.54
783.51	51.82
783.823	51.1
784.136	51.44
784.449	51.83
784.762	51.9
785.075	52.05
785.388	52.65
785.701	52.67
786.014	52.87
786.327	52.76
786.64	53.13
786.953	52.86
787.266	52.59
787.578	52.4
787.891	51.84
788.204	51.61
788.516	51.23
788.829	50.9
789.141	50.8
789.454	51.14
789.766	51.53
790.079	51.48
790.391	51.63
790.703	51.34
791.016	50.83
791.328	51.13
791.64	50.83
791.952	50.58
792.264	50.68
792.576	49.91
792.888	49.82
793.2	49.65
793.512	49.57
793.824	49.66
794.136	49.75
794.448	50.12
794.76	49.93
795.071	50.15
795.383	50.29
795.695	50.12
796.006	49.79
796.318	49.35
796.629	50.06
796.941	49.85
797.252	49.94
797.564	50.37
797.875	49.88
798.186	49.47
798.497	49.51
798.809	49.19
799.12	49.06
799.431	49.29
799.742	49.2
800.053	49.84
800.364	49.76
800.675	49.42
800.986	49.06
801.297	49.38
801.608	49.63
801.918	49.57
802.229	49.72
802.54	50.07
802.851	50.56
803.161	49.78
803.472	50.07
803.782	49.73
804.093	49.77
804.403	49.66
804.714	50.43
805.024	50.26
805.334	50.49
805.645	51.11
805.955	51.03
806.265	50.79
806.575	49.71
806.885	50.13
807.195	50.35
807.505	50.84
807.815	50.28
808.125	50.14
808.435	50.15
808.745	50.37
809.055	50.6
809.365	50.17
809.674	50.54
809.984	50.29
810.294	50.36
810.603	50.37
810.913	50.56
811.222	49.87
811.532	50.16
811.841	49.93
812.151	50.36
812.46	50.84
812.769	50.39
813.079	50.95
813.388	50.97
813.697	50.45
814.006	50.17
814.315	49.95
814.624	49.69
814.933	49.56
815.242	49.4
815.551	49.08
815.86	49.13
816.169	48.78
816.478	49.15
816.786	49.69
817.095	49.18
817.404	49.14
817.712	49.5
818.021	49.26
818.33	48.76
818.638	48.23
818.947	48.14
819.255	48.42
819.563	48.86
819.872	48.72
820.18	49.02
820.488	48.91
820.796	49
821.105	48.78
821.413	48.82
821.721	48.77
822.029	48.87
822.337	48.85
822.645	49.12
822.953	49.14
823.26	49.12
823.568	48.99
823.876	49.11
824.184	49.26
824.491	49.41
824.799	49.78
825.107	49.81
825.414	49.69
825.722	49.63
826.029	49.52
826.337	49.53
826.644	49.48
826.951	49.68
827.259	49.89
827.566	50.22
827.873	50.35
828.18	50.45
828.488	50.52
828.795	50.57
829.102	50.34
829.409	50.03
829.716	50.17
830.023	50.64
830.329	50.29
830.636	49.96
830.943	49.59
831.25	49.17
831.557	49.27
831.863	49.31
832.17	49.55
832.476	49.38
832.783	49.57
833.089	49.66
833.396	49.37
833.702	49.38
834.009	48.85
834.315	49.16
834.621	49.32
834.928	49.6
835.234	49.46
835.54	49.4
835.846	49.67
836.152	49.44
836.458	49.49
836.764	49.69
837.07	49.73
837.376	49.65
837.682	49.64
837.988	49.33
838.293	49.35
838.599	49.31
838.905	48.92
839.211	49.23
839.516	49.51
839.822	49.16
840.127	48.61
840.433	48.88
840.738	48.31
841.044	47.72
841.349	47.88
841.654	48.45
841.959	48.29
842.265	49.24
842.57	49.48
842.875	48.78
843.18	49.63
843.485	50.13
843.79	49.65
844.095	49.23
844.4	50.19
844.705	50.78
845.01	51.59
845.315	53.97
845.619	53.21
845.924	51.99
846.229	53.43
846.533	53.23
846.838	53.39
847.142	52.1
847.447	51.5
847.751	51.04
848.056	51.3
848.36	51.72
848.664	50.88
848.969	51.94
849.273	52.34
849.577	52.5
849.881	51.95
850.185	54.51
850.489	55.62
850.794	54.17
851.097	55.66
851.401	56.27
851.705	55.06
852.009	56.52
852.313	58.38
852.617	58.51
852.92	58.78
853.224	59.39
853.528	60.54
853.831	61.92
854.135	59.11
854.438	59.02
854.742	60.66
855.045	60.02
855.349	57.98
855.652	56.54
855.955	56.37
856.259	55.44
856.562	54.69
856.865	55.93
857.168	56.84
857.471	55.23
857.774	51.88
858.077	52.57
858.38	52.5
858.683	51.39
858.986	50.34
859.289	50.89
859.592	51.73
859.894	51.86
860.197	53.17
860.5	53.81
860.802	51.84
861.105	51.43
861.407	50.5
861.71	51.3
862.012	51.58
862.315	50.42
862.617	52.54
862.919	52.85
863.222	52.4
863.524	51.56
863.826	51.12
864.128	50.12
864.43	49.45
864.732	49.11
865.034	47.98
865.336	48.55
865.638	47.15
865.94	47.04
866.242	48.38
866.544	46.71
866.846	46.15
867.147	48.55
867.449	49.32
867.751	51.93
868.052	51.36
868.354	51.43
868.655	54.07
868.957	52.92
869.258	50.87
869.56	50.38
869.861	51.03
870.162	52.67
870.463	57.28
870.765	57.79
871.066	57.37
871.367	60.54
871.668	59.44
871.969	61.34
872.27	61.98
872.571	60.05
872.872	61.99
873.173	64.84
873.473	66.3
873.774	64.35
874.075	63.18
874.376	63.99
874.676	65.69
874.977	62.71
875.277	58.34
875.578	61.21
875.878	60.73
876.179	61.12
876.479	59.66
876.78	58.41
877.08	57.74
877.38	57.17
877.68	55.5
877.981	56.8
878.281	56.76
878.581	54.78
