Data from BU58131_Reflection_00015.txt Node
Date: Mon Nov 18 16:32:41 EST 2019
User: vgr7
Spectrometer: USB2G7710
Scans to average: 3
Trigger mode: 4
Integration Time (sec): 2.000000E-2
Electric dark correction enabled: true
Boxcar width: 10
XAxis mode: Wavelengths
Number of Pixels in Spectrum: 2048
>>>>>Begin Spectral Data<<<<<
177.721	371.57
178.105	70.15
178.488	-126.93
178.871	209.38
179.254	52.5
179.636	-91.96
180.019	437.02
180.402	142.86
180.785	-144.35
181.168	198.45
181.55	-9.2
181.933	53.42
182.316	35.35
182.698	26.47
183.081	16.64
183.463	-11
183.846	-2.96
184.228	-9.33
184.611	-28.93
184.993	-0.92
185.376	-11.37
185.758	-63.01
186.14	-64.98
186.522	-28.25
186.904	22.42
187.287	-7.56
187.669	-69.28
188.051	-145.69
188.433	-198.3
188.815	-225.91
189.197	-676.82
189.579	115.03
189.961	93.46
190.342	69.42
190.724	35.89
191.106	38.01
191.488	23.73
191.869	22.79
192.251	20.57
192.633	20.04
193.014	47.43
193.396	1.26
193.777	-17.88
194.159	-31.69
194.54	-5.18
194.922	73.88
195.303	66.48
195.684	74.66
196.065	19.11
196.447	45.49
196.828	57.64
197.209	68.03
197.59	53.7
197.971	45.54
198.352	70
198.733	84.24
199.114	86.42
199.495	138.69
199.876	113.07
200.257	125.07
200.638	114.69
201.018	115.77
201.399	118.45
201.78	138.9
202.16	173.25
202.541	161
202.922	113.04
203.302	123.74
203.683	104.58
204.063	134.45
204.444	146.83
204.824	219.77
205.204	189.78
205.585	305.15
205.965	193.95
206.345	217.5
206.725	481.05
207.106	412.32
207.486	605.15
207.866	7.92
208.246	-1508.7
208.626	-54.81
209.006	324.62
209.386	-428.77
209.766	-517.75
210.145	701.11
210.525	187.04
210.905	200.58
211.285	198.98
211.664	186.49
212.044	173.2
212.424	150.68
212.803	88.84
213.183	83.58
213.562	64.49
213.942	69
214.321	65.46
214.701	52.87
215.08	51.88
215.459	64.66
215.838	69.07
216.218	80.7
216.597	106.02
216.976	96.58
217.355	71.64
217.734	53.77
218.113	35.89
218.492	44.2
218.871	28.73
219.25	42.48
219.629	37.01
220.008	31.21
220.387	39.39
220.766	42.14
221.144	36.42
221.523	43.14
221.902	42.52
222.28	48.04
222.659	44.29
223.037	59.51
223.416	41.03
223.794	28.24
224.173	16.8
224.551	12.91
224.929	14.27
225.308	14.24
225.686	17.81
226.064	19.7
226.442	19.32
226.821	21.14
227.199	13.72
227.577	13.87
227.955	11.88
228.333	7.19
228.711	8.41
229.089	11.8
229.467	7.26
229.845	9.56
230.222	9.6
230.6	10.86
230.978	11.48
231.356	14.51
231.733	17.72
232.111	16.38
232.488	16.46
232.866	15.89
233.243	15.83
233.621	14.92
233.998	17.08
234.376	13.29
234.753	12.62
235.13	11.65
235.508	13.24
235.885	13.54
236.262	11.66
236.639	10.54
237.016	9.05
237.393	10.16
237.77	9.46
238.147	8.71
238.524	8.17
238.901	7.03
239.278	7.07
239.655	6.85
240.032	6.92
240.409	6.35
240.785	6.08
241.162	6.17
241.539	6.24
241.915	5.78
242.292	5.87
242.668	6.04
243.045	5.86
243.421	5.75
243.798	5.54
244.174	5.73
244.551	5.76
244.927	5.77
245.303	5.87
245.679	5.56
246.056	5.47
246.432	5.35
246.808	5.49
247.184	5.01
247.56	4.86
247.936	4.78
248.312	4.7
248.688	4.64
249.064	4.56
249.44	4.3
249.815	4.37
250.191	4.54
250.567	4.29
250.943	4.38
251.318	4.52
251.694	4.45
252.069	4.53
252.445	4.41
252.82	4.44
253.196	4.14
253.571	4.77
253.947	4.55
254.322	4.82
254.697	4.94
255.073	5.03
255.448	4.87
255.823	4.7
256.198	4.51
256.573	4.29
256.948	4.14
257.323	4.29
257.698	4.2
258.073	4.06
258.448	4.09
258.823	3.99
259.198	3.69
259.573	3.86
259.948	3.73
260.322	3.72
260.697	3.66
261.072	3.75
261.446	3.5
261.821	3.62
262.195	3.41
262.57	3.41
262.944	3.3
263.319	3.32
263.693	3.3
264.067	3.41
264.442	3.59
264.816	3.71
265.19	3.83
265.564	3.71
265.938	3.74
266.313	3.77
266.687	3.88
267.061	4.1
267.435	4.07
267.809	4.05
268.183	4.23
268.556	4.28
268.93	4.14
269.304	4.06
269.678	4.11
270.051	4.06
270.425	3.87
270.799	4.11
271.172	3.99
271.546	3.97
271.919	3.86
272.293	3.8
272.666	3.74
273.04	3.63
273.413	3.63
273.787	3.68
274.16	3.65
274.533	3.59
274.906	3.51
275.279	3.36
275.653	3.35
276.026	3.28
276.399	3.23
276.772	3.34
277.145	3.4
277.518	3.34
277.891	3.53
278.263	3.55
278.636	3.4
279.009	3.37
279.382	3.42
279.755	3.53
280.127	3.63
280.5	3.62
280.872	3.66
281.245	3.71
281.617	3.68
281.99	3.73
282.362	3.81
282.735	3.56
283.107	3.71
283.479	3.75
283.852	3.75
284.224	3.72
284.596	3.76
284.968	3.72
285.34	3.87
285.713	3.85
286.085	3.89
286.457	4.02
286.829	4.12
287.201	4.17
287.572	4.09
287.944	3.98
288.316	4.05
288.688	4
289.06	4.07
289.431	4.04
289.803	4.18
290.175	4.14
290.546	4.52
290.918	4.55
291.289	4.58
291.661	4.63
292.032	4.68
292.403	4.8
292.775	4.91
293.146	4.72
293.517	4.8
293.889	4.74
294.26	4.62
294.631	4.66
295.002	4.65
295.373	4.75
295.744	4.82
296.115	4.78
296.486	4.81
296.857	4.75
297.228	4.87
297.599	4.76
297.97	4.83
298.34	4.73
298.711	4.67
299.082	4.82
299.452	4.89
299.823	4.91
300.194	4.85
300.564	4.79
300.935	4.91
301.305	4.88
301.676	5.04
302.046	5.18
302.416	5.2
302.787	5.39
303.157	5.46
303.527	5.65
303.897	5.68
304.267	5.79
304.637	6.06
305.008	6.21
305.378	6.44
305.748	6.55
306.117	6.61
306.487	6.76
306.857	6.71
307.227	6.7
307.597	6.81
307.967	6.94
308.336	7.12
308.706	7.15
309.076	7.2
309.445	7.35
309.815	7.33
310.184	7.35
310.554	7.28
310.923	7.27
311.293	7.17
311.662	7.24
312.031	7.27
312.401	7.11
312.77	6.99
313.139	6.93
313.508	7.02
313.877	7.11
314.246	7.16
314.616	7.27
314.985	7.37
315.353	7.46
315.722	7.45
316.091	7.4
316.46	7.47
316.829	7.58
317.198	7.6
317.567	7.8
317.935	7.95
318.304	8.05
318.672	8.17
319.041	8.35
319.41	8.5
319.778	8.55
320.147	8.8
320.515	8.93
320.883	9.02
321.252	9.06
321.62	9.22
321.988	9.31
322.357	9.26
322.725	9.28
323.093	9.28
323.461	9.36
323.829	9.43
324.197	9.48
324.565	9.52
324.933	9.53
325.301	9.53
325.669	9.67
326.037	9.75
326.405	9.75
326.772	9.82
327.14	9.88
327.508	10
327.875	10.06
328.243	10.19
328.61	10.26
328.978	10.47
329.346	10.53
329.713	10.51
330.08	10.7
330.448	10.66
330.815	10.79
331.182	10.93
331.55	11.07
331.917	11.16
332.284	11.36
332.651	11.45
333.018	11.43
333.385	11.34
333.752	11.43
334.119	11.61
334.486	11.54
334.853	11.52
335.22	11.55
335.587	11.57
335.954	11.6
336.32	11.69
336.687	11.54
337.054	11.53
337.42	11.74
337.787	11.74
338.153	11.88
338.52	11.96
338.886	11.91
339.253	11.89
339.619	11.91
339.986	11.79
340.352	11.8
340.718	11.87
341.084	11.93
341.451	11.92
341.817	11.86
342.183	12.04
342.549	12.15
342.915	12.15
343.281	12.08
343.647	12.02
344.013	12.09
344.379	12.01
344.745	11.97
345.11	11.85
345.476	11.89
345.842	11.95
346.208	11.83
346.573	11.9
346.939	11.96
347.304	11.9
347.67	11.91
348.035	11.84
348.401	11.9
348.766	11.95
349.132	11.9
349.497	11.83
349.862	11.87
350.228	11.91
350.593	11.83
350.958	11.84
351.323	11.87
351.688	11.81
352.053	11.96
352.418	12.02
352.783	12.08
353.148	11.94
353.513	11.9
353.878	11.88
354.243	11.86
354.608	11.8
354.972	11.88
355.337	11.91
355.702	12.04
356.066	12.06
356.431	12.02
356.795	12.11
357.16	12.17
357.524	11.99
357.889	11.89
358.253	11.93
358.618	11.97
358.982	11.88
359.346	11.82
359.71	11.75
360.075	11.64
360.439	11.49
360.803	11.51
361.167	11.45
361.531	11.5
361.895	11.39
362.259	11.4
362.623	11.34
362.987	11.26
363.351	11.13
363.714	11.03
364.078	11
364.442	10.86
364.806	10.77
365.169	10.74
365.533	10.73
365.896	10.66
366.26	10.64
366.623	10.62
366.987	10.52
367.35	10.42
367.714	10.38
368.077	10.35
368.44	10.3
368.803	10.26
369.167	10.19
369.53	10.08
369.893	10.01
370.256	9.99
370.619	9.92
370.982	9.85
371.345	9.73
371.708	9.6
372.071	9.52
372.434	9.51
372.797	9.49
373.159	9.38
373.522	9.32
373.885	9.24
374.247	9.2
374.61	9.14
374.973	9.03
375.335	8.98
375.698	8.93
376.06	8.86
376.423	8.71
376.785	8.57
377.147	8.58
377.51	8.49
377.872	8.39
378.234	8.3
378.596	8.26
378.958	8.19
379.321	8.15
379.683	8.1
380.045	8.03
380.407	7.95
380.769	7.84
381.13	7.74
381.492	7.62
381.854	7.54
382.216	7.49
382.578	7.48
382.939	7.37
383.301	7.27
383.663	7.15
384.024	7.11
384.386	7.13
384.747	7.07
385.109	7.05
385.47	6.99
385.832	6.92
386.193	6.88
386.554	6.85
386.916	6.79
387.277	6.79
387.638	6.71
387.999	6.61
388.36	6.58
388.721	6.53
389.082	6.44
389.443	6.36
389.804	6.29
390.165	6.21
390.526	6.18
390.887	6.16
391.248	6.18
391.609	6.14
391.969	6.07
392.33	6.01
392.691	5.92
393.051	5.84
393.412	5.85
393.772	5.77
394.133	5.74
394.493	5.69
394.854	5.61
395.214	5.56
395.574	5.54
395.935	5.48
396.295	5.47
396.655	5.46
397.015	5.45
397.376	5.41
397.736	5.35
398.096	5.29
398.456	5.28
398.816	5.17
399.176	5.1
399.535	5
399.895	4.94
400.255	4.9
400.615	4.86
400.975	4.77
401.334	4.72
401.694	4.63
402.054	4.58
402.413	4.54
402.773	4.5
403.132	4.45
403.492	4.43
403.851	4.35
404.211	4.32
404.57	4.25
404.929	4.22
405.288	4.21
405.648	4.21
406.007	4.17
406.366	4.2
406.725	4.19
407.084	4.19
407.443	4.21
407.802	4.19
408.161	4.19
408.52	4.16
408.879	4.17
409.238	4.18
409.596	4.18
409.955	4.16
410.314	4.13
410.673	4.12
411.031	4.14
411.39	4.14
411.748	4.12
412.107	4.11
412.465	4.1
412.824	4.06
413.182	4.01
413.54	3.97
413.899	3.94
414.257	3.93
414.615	3.91
414.974	3.86
415.332	3.84
415.69	3.81
416.048	3.82
416.406	3.79
416.764	3.73
417.122	3.71
417.48	3.67
417.838	3.66
418.195	3.64
418.553	3.58
418.911	3.55
419.269	3.54
419.626	3.52
419.984	3.51
420.342	3.51
420.699	3.51
421.057	3.5
421.414	3.47
421.772	3.45
422.129	3.44
422.486	3.43
422.844	3.45
423.201	3.42
423.558	3.37
423.915	3.35
424.273	3.35
424.63	3.33
424.987	3.33
425.344	3.31
425.701	3.3
426.058	3.31
426.415	3.3
426.772	3.27
427.128	3.27
427.485	3.27
427.842	3.24
428.199	3.23
428.555	3.22
428.912	3.22
429.269	3.21
429.625	3.19
429.982	3.17
430.338	3.13
430.695	3.15
431.051	3.16
431.407	3.17
431.764	3.16
432.12	3.14
432.476	3.16
432.832	3.16
433.189	3.14
433.545	3.13
433.901	3.14
434.257	3.13
434.613	3.15
434.969	3.14
435.325	3.14
435.681	3.14
436.036	3.14
436.392	3.14
436.748	3.13
437.104	3.13
437.459	3.13
437.815	3.12
438.171	3.11
438.526	3.11
438.882	3.11
439.237	3.13
439.593	3.13
439.948	3.11
440.304	3.12
440.659	3.12
441.014	3.13
441.369	3.1
441.725	3.09
442.08	3.07
442.435	3.07
442.79	3.07
443.145	3.06
443.5	3.03
443.855	3.01
444.21	3.01
444.565	3.02
444.92	3.02
445.275	3.01
445.629	3.01
445.984	3
446.339	2.99
446.693	2.96
447.048	2.96
447.403	2.95
447.757	2.95
448.112	2.93
448.466	2.92
448.82	2.91
449.175	2.91
449.529	2.9
449.883	2.89
450.238	2.87
450.592	2.87
450.946	2.86
451.3	2.85
451.654	2.86
452.008	2.85
452.362	2.82
452.716	2.82
453.07	2.8
453.424	2.81
453.778	2.79
454.132	2.8
454.486	2.79
454.839	2.8
455.193	2.79
455.547	2.79
455.9	2.8
456.254	2.82
456.607	2.81
456.961	2.81
457.314	2.79
457.668	2.79
458.021	2.78
458.375	2.8
458.728	2.82
459.081	2.82
459.434	2.81
459.787	2.83
460.141	2.84
460.494	2.83
460.847	2.84
461.2	2.85
461.553	2.85
461.906	2.87
462.259	2.86
462.611	2.88
462.964	2.9
463.317	2.89
463.67	2.89
464.022	2.9
464.375	2.9
464.728	2.94
465.08	2.95
465.433	2.96
465.785	2.95
466.138	2.96
466.49	2.97
466.843	2.97
467.195	2.98
467.547	2.98
467.899	3
468.252	2.99
468.604	2.99
468.956	3.01
469.308	3
469.66	3
470.012	2.99
470.364	2.98
470.716	2.99
471.068	3.02
471.42	3.04
471.772	3.07
472.123	3.07
472.475	3.06
472.827	3.08
473.178	3.1
473.53	3.1
473.882	3.08
474.233	3.1
474.585	3.09
474.936	3.09
475.288	3.1
475.639	3.12
475.99	3.14
476.342	3.14
476.693	3.15
477.044	3.17
477.395	3.17
477.746	3.17
478.097	3.17
478.448	3.15
478.8	3.14
479.15	3.11
479.501	3.09
479.852	3.1
480.203	3.09
480.554	3.1
480.905	3.11
481.255	3.11
481.606	3.11
481.957	3.1
482.307	3.09
482.658	3.09
483.009	3.08
483.359	3.06
483.709	3.06
484.06	3.05
484.41	3.05
484.761	3.05
485.111	3.05
485.461	3.05
485.811	3.05
486.162	3.06
486.512	3.07
486.862	3.08
487.212	3.07
487.562	3.07
487.912	3.05
488.262	3.05
488.612	3.05
488.961	3.04
489.311	3.06
489.661	3.07
490.011	3.07
490.36	3.08
490.71	3.1
491.06	3.11
491.409	3.12
491.759	3.12
492.108	3.12
492.458	3.12
492.807	3.12
493.157	3.13
493.506	3.14
493.855	3.13
494.204	3.14
494.554	3.16
494.903	3.17
495.252	3.21
495.601	3.21
495.95	3.25
496.299	3.28
496.648	3.28
496.997	3.27
497.346	3.32
497.695	3.34
498.043	3.37
498.392	3.38
498.741	3.39
499.09	3.41
499.438	3.45
499.787	3.48
500.135	3.52
500.484	3.55
500.832	3.59
501.181	3.64
501.529	3.66
501.878	3.71
502.226	3.77
502.574	3.79
502.923	3.83
503.271	3.88
503.619	3.92
503.967	3.97
504.315	4.03
504.663	4.09
505.011	4.14
505.359	4.17
505.707	4.25
506.055	4.31
506.403	4.38
506.751	4.42
507.098	4.47
507.446	4.56
507.794	4.62
508.141	4.67
508.489	4.74
508.837	4.82
509.184	4.88
509.531	4.95
509.879	5.03
510.226	5.12
510.574	5.21
510.921	5.29
511.268	5.35
511.616	5.42
511.963	5.48
512.31	5.57
512.657	5.68
513.004	5.76
513.351	5.87
513.698	5.97
514.045	6.09
514.392	6.2
514.739	6.32
515.086	6.45
515.432	6.56
515.779	6.65
516.126	6.76
516.473	6.87
516.819	6.99
517.166	7.06
517.512	7.15
517.859	7.22
518.205	7.31
518.552	7.42
518.898	7.53
519.245	7.63
519.591	7.73
519.937	7.8
520.283	7.91
520.629	8.03
520.976	8.17
521.322	8.3
521.668	8.45
522.014	8.58
522.36	8.71
522.706	8.84
523.052	9.04
523.398	9.2
523.743	9.39
524.089	9.57
524.435	9.76
524.781	9.94
525.126	10.1
525.472	10.25
525.817	10.39
526.163	10.52
526.509	10.63
526.854	10.74
527.199	10.87
527.545	10.98
527.89	11.06
528.235	11.17
528.581	11.27
528.926	11.37
529.271	11.49
529.616	11.6
529.961	11.73
530.306	11.82
530.651	11.95
530.996	12.05
531.341	12.17
531.686	12.31
532.031	12.44
532.376	12.6
532.721	12.73
533.065	12.87
533.41	13.04
533.755	13.21
534.099	13.39
534.444	13.54
534.788	13.7
535.133	13.88
535.477	14.04
535.822	14.23
536.166	14.42
536.51	14.62
536.855	14.84
537.199	15.1
537.543	15.33
537.887	15.54
538.231	15.83
538.576	16.08
538.92	16.32
539.264	16.52
539.608	16.74
539.951	16.95
540.295	17.17
540.639	17.36
540.983	17.55
541.327	17.74
541.671	17.92
542.014	18.12
542.358	18.31
542.701	18.51
543.045	18.69
543.389	18.88
543.732	19.09
544.075	19.28
544.419	19.45
544.762	19.71
545.105	19.98
545.449	20.17
545.792	20.4
546.135	20.65
546.478	20.93
546.821	21.18
547.165	21.45
547.508	21.77
547.851	22.07
548.194	22.35
548.536	22.66
548.879	22.99
549.222	23.31
549.565	23.63
549.908	23.96
550.25	24.27
550.593	24.64
550.936	24.92
551.278	25.27
551.621	25.62
551.963	25.95
552.306	26.21
552.648	26.55
552.991	26.82
553.333	27.14
553.675	27.48
554.017	27.78
554.36	28.15
554.702	28.4
555.044	28.66
555.386	28.98
555.728	29.29
556.07	29.58
556.412	29.89
556.754	30.18
557.096	30.43
557.438	30.76
557.78	31.04
558.121	31.37
558.463	31.61
558.805	31.91
559.147	32.18
559.488	32.48
559.83	32.81
560.171	33.15
560.513	33.43
560.854	33.69
561.196	34.03
561.537	34.29
561.878	34.6
562.22	34.91
562.561	35.22
562.902	35.51
563.243	35.73
563.584	36
563.925	36.26
564.266	36.51
564.607	36.74
564.948	36.97
565.289	37.23
565.63	37.52
565.971	37.8
566.312	38.04
566.653	38.29
566.993	38.55
567.334	38.81
567.675	39.08
568.015	39.38
568.356	39.61
568.696	39.85
569.037	40.07
569.377	40.31
569.718	40.54
570.058	40.76
570.398	41
570.739	41.21
571.079	41.42
571.419	41.63
571.759	41.89
572.099	42.07
572.439	42.3
572.779	42.48
573.119	42.61
573.459	42.84
573.799	43.07
574.139	43.22
574.479	43.4
574.819	43.56
575.158	43.68
575.498	43.85
575.838	43.98
576.177	44.15
576.517	44.28
576.856	44.4
577.196	44.54
577.535	44.74
577.875	44.93
578.214	45.09
578.553	45.34
578.893	45.47
579.232	45.69
579.571	45.76
579.91	45.86
580.25	46.06
580.589	46.23
580.928	46.35
581.267	46.48
581.606	46.62
581.945	46.71
582.283	46.83
582.622	46.93
582.961	47.11
583.3	47.22
583.639	47.4
583.977	47.62
584.316	47.8
584.654	47.92
584.993	48.02
585.332	48.2
585.67	48.3
586.008	48.32
586.347	48.41
586.685	48.53
587.024	48.72
587.362	48.78
587.7	48.8
588.038	48.89
588.376	48.97
588.715	49
589.053	49.16
589.391	49.35
589.729	49.48
590.067	49.53
590.404	49.64
590.742	49.81
591.08	49.84
591.418	49.82
591.756	49.92
592.093	50
592.431	50.09
592.769	50.16
593.106	50.29
593.444	50.32
593.781	50.42
594.119	50.51
594.456	50.54
594.793	50.64
595.131	50.74
595.468	50.75
595.805	50.85
596.143	50.92
596.48	50.92
596.817	50.91
597.154	50.92
597.491	50.91
597.828	50.92
598.165	50.95
598.502	51.09
598.839	51.17
599.176	51.28
599.512	51.35
599.849	51.42
600.186	51.53
600.523	51.65
600.859	51.82
601.196	51.94
601.532	52.07
601.869	52.1
602.205	52.11
602.542	52.18
602.878	52.23
603.215	52.23
603.551	52.27
603.887	52.4
604.223	52.49
604.56	52.65
604.896	52.71
605.232	52.74
605.568	52.8
605.904	52.89
606.24	52.91
606.576	52.93
606.912	52.98
607.248	53.01
607.583	53.09
607.919	53.08
608.255	53.07
608.591	53.15
608.926	53.16
609.262	53.22
609.597	53.34
609.933	53.42
610.268	53.54
610.604	53.6
610.939	53.6
611.275	53.65
611.61	53.6
611.945	53.61
612.281	53.62
612.616	53.63
612.951	53.58
613.286	53.59
613.621	53.59
613.956	53.56
614.291	53.56
614.626	53.58
614.961	53.62
615.296	53.59
615.631	53.62
615.966	53.6
616.3	53.57
616.635	53.54
616.97	53.57
617.304	53.55
617.639	53.54
617.973	53.56
618.308	53.56
618.642	53.6
618.977	53.59
619.311	53.68
619.646	53.67
619.98	53.65
620.314	53.71
620.648	53.77
620.983	53.89
621.317	53.97
621.651	54.01
621.985	53.99
622.319	54.06
622.653	54.08
622.987	54.29
623.321	54.39
623.655	54.36
623.988	54.43
624.322	54.42
624.656	54.5
624.99	54.58
625.323	54.68
625.657	54.83
625.99	54.86
626.324	54.88
626.657	55
626.991	55.13
627.324	55.08
627.658	55.24
627.991	55.27
628.324	55.24
628.657	55.25
628.991	55.29
629.324	55.38
629.657	55.38
629.99	55.41
630.323	55.47
630.656	55.64
630.989	55.69
631.322	55.82
631.655	55.79
631.987	55.84
632.32	55.9
632.653	55.85
632.986	55.97
633.318	56.05
633.651	56.1
633.984	56.06
634.316	56.05
634.649	55.93
634.981	55.92
635.313	55.95
635.646	56.03
635.978	56.02
636.31	56.02
636.643	56.03
636.975	55.99
637.307	55.98
637.639	55.93
637.971	55.9
638.303	55.86
638.635	55.88
638.967	55.85
639.299	55.85
639.631	55.9
639.963	55.8
640.295	55.8
640.626	55.73
640.958	55.82
641.29	55.97
641.621	56
641.953	55.94
642.285	56.01
642.616	56.07
642.948	56.16
643.279	56.06
643.61	56.17
643.942	56.16
644.273	56.11
644.604	56.05
644.936	55.97
645.267	55.9
645.598	55.99
645.929	56.09
646.26	56.1
646.591	55.94
646.922	55.98
647.253	55.97
647.584	56.03
647.915	55.99
648.245	55.82
648.576	55.76
648.907	55.93
649.238	55.97
649.568	55.92
649.899	55.92
650.229	55.92
650.56	55.79
650.89	55.83
651.221	55.99
651.551	56
651.882	56.06
652.212	56.15
652.542	56.13
652.872	56
653.203	56.05
653.533	56.19
653.863	56.12
654.193	56.16
654.523	56.16
654.853	56.14
655.183	56.32
655.513	56.41
655.843	56.39
656.172	56.46
656.502	56.38
656.832	56.42
657.162	56.47
657.491	56.65
657.821	56.7
658.15	56.65
658.48	56.67
658.809	56.68
659.139	56.71
659.468	56.67
659.798	56.8
660.127	56.75
660.456	56.77
660.785	56.85
661.115	56.91
661.444	56.9
661.773	56.89
662.102	56.92
662.431	56.96
662.76	56.89
663.089	56.85
663.418	56.86
663.747	56.81
664.076	56.98
664.404	56.79
664.733	56.72
665.062	56.68
665.39	56.67
665.719	56.64
666.048	56.59
666.376	56.62
666.705	56.47
667.033	56.45
667.362	56.4
667.69	56.36
668.018	56.27
668.347	56.28
668.675	56.26
669.003	56.18
669.331	56.14
669.659	56.34
669.987	56.32
670.315	56.4
670.643	56.38
670.971	56.22
671.299	56.39
671.627	56.48
671.955	56.55
672.283	56.59
672.61	56.67
672.938	56.62
673.266	56.74
673.593	56.98
673.921	56.96
674.249	57.03
674.576	57.07
674.904	57.1
675.231	57.01
675.558	57.1
675.886	57.08
676.213	57.13
676.54	57.01
676.867	57.07
677.195	57.1
677.522	57.01
677.849	57.13
678.176	57.01
678.503	57.01
678.83	57.07
679.157	57.06
679.484	57.07
679.81	57.14
680.137	56.98
680.464	56.76
680.791	56.7
681.117	56.54
681.444	56.54
681.771	56.47
682.097	56.52
682.424	56.6
682.75	56.6
683.077	56.55
683.403	56.51
683.729	56.6
684.056	56.52
684.382	56.54
684.708	56.55
685.034	56.57
685.36	56.5
685.686	56.52
686.012	56.6
686.339	56.5
686.664	56.57
686.99	56.79
687.316	56.97
687.642	57.03
687.968	57.17
688.294	57.3
688.619	57.35
688.945	57.36
689.271	57.21
689.596	57.33
689.922	57.41
690.247	57.48
690.573	57.34
690.898	57.47
691.224	57.71
691.549	57.69
691.874	57.77
692.2	57.71
692.525	57.51
692.85	57.59
693.175	57.68
693.5	57.55
693.825	57.42
694.15	57.34
694.475	57.39
694.8	57.47
695.125	57.37
695.45	57.46
695.775	57.55
696.099	57.65
696.424	57.68
696.749	57.65
697.073	57.7
697.398	57.68
697.723	57.7
698.047	57.59
698.372	57.64
698.696	57.61
699.02	57.62
699.345	57.7
699.669	57.64
699.993	57.6
700.318	57.66
700.642	57.77
700.966	57.86
701.29	57.97
701.614	57.96
701.938	58.04
702.262	58.04
702.586	57.97
702.91	57.95
703.234	57.84
703.557	57.81
703.881	57.76
704.205	57.91
704.529	57.81
704.852	57.8
705.176	57.55
705.499	57.54
705.823	57.53
706.146	57.61
706.47	57.58
706.793	57.61
707.117	57.69
707.44	57.69
707.763	57.62
708.086	57.56
708.409	57.35
708.733	57.28
709.056	57.28
709.379	57.29
709.702	57.22
710.025	57.24
710.348	57.3
710.671	57.07
710.993	57.02
711.316	57.06
711.639	57.08
711.962	57.2
712.284	57.19
712.607	57.35
712.93	57.33
713.252	57.29
713.575	57.33
713.897	57.31
714.22	57.05
714.542	57.03
714.864	57.07
715.187	57.22
715.509	57.15
715.831	57.22
716.153	57.13
716.475	57.19
716.798	57.34
717.12	57.32
717.442	57.42
717.764	57.37
718.085	57.35
718.407	57.39
718.729	57.53
719.051	57.72
719.373	57.78
719.695	57.62
720.016	57.78
720.338	57.76
720.659	57.86
720.981	58.08
721.302	58.08
721.624	57.95
721.945	58.1
722.267	58.21
722.588	57.98
722.909	58.27
723.231	58.45
723.552	58.22
723.873	58.38
724.194	58.57
724.515	58.58
724.836	58.63
725.157	58.73
725.478	58.59
725.799	58.61
726.12	58.65
726.441	58.73
726.762	58.81
727.083	58.95
727.403	58.73
727.724	58.56
728.045	58.67
728.365	58.97
728.686	58.9
729.006	59.08
729.327	59.04
729.647	58.83
729.967	58.55
730.288	58.72
730.608	58.46
730.928	58.42
731.249	58.22
731.569	58.32
731.889	58.11
732.209	58.05
732.529	57.91
732.849	57.6
733.169	57.59
733.489	57.39
733.809	57.35
734.129	57.18
734.448	57.31
734.768	57.23
735.088	57.29
735.408	57.35
735.727	57.07
736.047	57.27
736.366	57.61
736.686	57.65
737.005	57.52
737.325	57.63
737.644	57.77
737.963	58.05
738.283	58.01
738.602	58.28
738.921	58.63
739.24	58.84
739.56	59.05
739.879	59.28
740.198	59.45
740.517	59.43
740.836	59.61
741.155	59.49
741.473	59.66
741.792	59.46
742.111	59.17
742.43	59.11
742.748	59.32
743.067	59.26
743.386	59.27
743.704	59.1
744.023	59.12
744.341	59.21
744.66	59.14
744.978	58.85
745.297	58.86
745.615	58.57
745.933	58.16
746.252	58.17
746.57	58.12
746.888	57.88
747.206	57.68
747.524	57.68
747.842	57.94
748.16	58.01
748.478	57.72
748.796	58.04
749.114	58.46
749.432	58.03
749.749	57.72
750.067	57.65
750.385	57.53
750.703	57.43
751.02	57.31
751.338	57.43
751.655	57.7
751.973	57.67
752.29	57.65
752.608	58.01
752.925	58.11
753.242	57.78
753.56	57.9
753.877	57.97
754.194	58.37
754.511	58.4
754.828	58.23
755.145	58.24
755.462	58.14
755.779	57.69
756.096	57.74
756.413	58.04
756.73	58.03
757.047	58.33
757.364	58.65
757.68	58.57
757.997	58.33
758.314	58.28
758.63	58.42
758.947	58.55
759.264	58.41
759.58	58.43
759.896	58.77
760.213	58.43
760.529	58.8
760.846	58.34
761.162	58.15
761.478	58.54
761.794	58.68
762.11	58.58
762.426	58.74
762.743	58.7
763.059	58.67
763.375	58.7
763.69	58.63
764.006	58.63
764.322	58.8
764.638	59.04
764.954	58.86
765.27	58.81
765.585	58.86
765.901	59.07
766.216	58.8
766.532	58.78
766.848	59.28
767.163	59.27
767.478	59.42
767.794	59.46
768.109	59.29
768.424	59.33
768.74	59.51
769.055	59.57
769.37	59.9
769.685	60.08
770	60.64
770.315	60.95
770.63	60.8
770.945	60.58
771.26	60.16
771.575	60.51
771.89	60.56
772.205	60.41
772.52	59.82
772.834	60.19
773.149	59.83
773.464	59.27
773.778	58.97
774.093	59.44
774.407	59.73
774.722	59.48
775.036	59.56
775.351	59.55
775.665	59.61
775.979	59.12
776.293	58.81
776.608	58.27
776.922	58.05
777.236	58.42
777.55	58.28
777.864	58.81
778.178	58.95
778.492	59.58
778.806	59.33
779.12	59.74
779.434	59.99
779.747	60.11
780.061	60.39
780.375	60.16
780.689	59.8
781.002	59.29
781.316	59.2
781.629	58.72
781.943	58.87
782.256	58.95
782.57	59.14
782.883	59.59
783.196	59.7
783.51	60.13
783.823	60.18
784.136	60.34
784.449	60.08
784.762	60.32
785.075	59.13
785.388	59.24
785.701	59.19
786.014	58.74
786.327	59.01
786.64	59.02
786.953	59.83
787.266	59.78
787.578	60.12
787.891	60.32
788.204	60.64
788.516	60.4
788.829	60.66
789.141	61.15
789.454	60.74
789.766	61.29
790.079	61.17
790.391	60.71
790.703	60.55
791.016	60.51
791.328	59.74
791.64	59.99
791.952	59.94
792.264	59.89
792.576	60.17
792.888	60.18
793.2	60.46
793.512	60.18
793.824	60.15
794.136	60.18
794.448	60.51
794.76	60.93
795.071	61.11
795.383	61.01
795.695	60.42
796.006	60.1
796.318	58.78
796.629	58.84
796.941	58.98
797.252	59.41
797.564	59.72
797.875	59.74
798.186	59.72
798.497	59.87
798.809	60.02
799.12	59.98
799.431	59.5
799.742	59.38
800.053	59.54
800.364	59.14
800.675	58.86
800.986	58.75
801.297	58.65
801.608	58.84
801.918	58.6
802.229	58.6
802.54	59.04
802.851	60.19
803.161	59.99
803.472	59.8
803.782	59.4
804.093	59.86
804.403	60.16
804.714	60.4
805.024	60.84
805.334	61.02
805.645	61.35
805.955	61.99
806.265	62.25
806.575	61.97
806.885	62.32
807.195	62.43
807.505	62.64
807.815	62.54
808.125	62.59
808.435	62.99
808.745	63.48
809.055	63.34
809.365	62.94
809.674	63.59
809.984	63.91
810.294	64.13
810.603	63.85
810.913	63.99
811.222	64.26
811.532	63.87
811.841	63.86
812.151	63.51
812.46	62.59
812.769	62.89
813.079	62.11
813.388	62.42
813.697	62.85
814.006	62.29
814.315	62.33
814.624	61.86
814.933	61.39
815.242	61.7
815.551	62.1
815.86	62.04
816.169	60.91
816.478	60.75
816.786	60.76
817.095	59.66
817.404	60.4
817.712	59.78
818.021	59.64
818.33	58.94
818.638	58.42
818.947	58.89
819.255	58.6
819.563	58.91
819.872	58.28
820.18	58.12
820.488	57.91
820.796	57.89
821.105	57.72
821.413	57.82
821.721	57.87
822.029	57.99
822.337	58.1
822.645	58.18
822.953	58.22
823.26	58.33
823.568	58.36
823.876	58.24
824.184	58.22
824.491	58.26
824.799	58.4
825.107	58.6
825.414	58.58
825.722	58.54
826.029	58.53
826.337	58.84
826.644	58.98
826.951	59.07
827.259	59.07
827.566	59.3
827.873	59.06
828.18	59.06
828.488	58.84
828.795	59.02
829.102	59.06
829.409	59.04
829.716	59.32
830.023	59.79
830.329	59.85
830.636	60.19
830.943	60.5
831.25	59.98
831.557	59.84
831.863	59.79
832.17	60.04
832.476	60.48
832.783	60.45
833.089	60.44
833.396	60.32
833.702	60.48
834.009	60.39
834.315	61.05
834.621	60.74
834.928	60.95
835.234	60.51
835.54	61.19
835.846	61.48
836.152	61.15
836.458	60.93
836.764	60.68
837.07	60.87
837.376	60.4
837.682	61.18
837.988	61.09
838.293	61.25
838.599	61.1
838.905	60.72
839.211	60.36
839.516	60.42
839.822	61.42
840.127	61.27
840.433	61.66
840.738	61.18
841.044	61.37
841.349	60.88
841.654	60.38
841.959	58.98
842.265	59.09
842.57	59.09
842.875	59.29
843.18	58.75
843.485	58.71
843.79	58.93
844.095	59.28
844.4	60.28
844.705	61.01
845.01	62.27
845.315	63.8
845.619	64.57
845.924	64.85
846.229	64.11
846.533	65.08
846.838	65.08
847.142	65.94
847.447	66.82
847.751	67.58
848.056	69.67
848.36	68.45
848.664	67.31
848.969	66.84
849.273	66.34
849.577	67.59
849.881	66.17
850.185	66
850.489	65.55
850.794	64.63
851.097	64.47
851.401	64.36
851.705	63.68
852.009	64.29
852.313	62.62
852.617	63.35
852.92	65.84
853.224	65.39
853.528	66.58
853.831	66.76
854.135	68.83
854.438	68.98
854.742	71.85
855.045	72.6
855.349	73.09
855.652	72.66
855.955	73.2
856.259	73.29
856.562	74.41
856.865	76.16
857.168	77.19
857.471	75.85
857.774	76.22
858.077	76.04
858.38	77.25
858.683	78.04
858.986	77.94
859.289	74.14
859.592	74.25
859.894	73.62
860.197	70.94
860.5	70.4
860.802	69.61
861.105	70.55
861.407	70.16
861.71	68.03
862.012	71.03
862.315	70.18
862.617	70.24
862.919	69.39
863.222	67.64
863.524	69.06
863.826	70.17
864.128	68.78
864.43	66.82
864.732	68.51
865.034	71.81
865.336	71.76
865.638	72.62
865.94	72.46
866.242	72.59
866.544	74.61
866.846	73.97
867.147	76.8
867.449	75.21
867.751	76.29
868.052	81.32
868.354	78.12
868.655	80.48
868.957	80.4
869.258	79.08
869.56	78.56
869.861	74.45
870.162	75.44
870.463	76.61
870.765	73.32
871.066	70.37
871.367	69.11
871.668	70.62
871.969	71.42
872.27	72.61
872.571	71.86
872.872	71.7
873.173	70.88
873.473	72.08
873.774	72.18
874.075	74.08
874.376	72.31
874.676	73.37
874.977	70.14
875.277	70.55
875.578	71.88
875.878	73.32
876.179	76.03
876.479	74.55
876.78	72.89
877.08	78.63
877.38	77.62
877.68	77.43
877.981	75.95
878.281	74.77
878.581	74.39
