Data from BU58137_Reflection_00010.txt Node
Date: Mon Nov 18 16:39:50 EST 2019
User: vgr7
Spectrometer: USB2G7710
Scans to average: 3
Trigger mode: 4
Integration Time (sec): 2.000000E-2
Electric dark correction enabled: true
Boxcar width: 10
XAxis mode: Wavelengths
Number of Pixels in Spectrum: 2048
>>>>>Begin Spectral Data<<<<<
177.721	23.28
178.105	171.67
178.488	128.29
178.871	292.07
179.254	223.39
179.636	237.76
180.019	75.97
180.402	63.64
180.785	-29.96
181.168	-231.29
181.55	100
181.933	83.41
182.316	47.6
182.698	114.83
183.081	149.74
183.463	117.77
183.846	73.83
184.228	36.32
184.611	-3.65
184.993	-12.15
185.376	-8.79
185.758	-7.3
186.14	77.75
186.522	92.12
186.904	64.07
187.287	59.93
187.669	470.66
188.051	-166.38
188.433	397.77
188.815	355.08
189.197	323.82
189.579	416.17
189.961	310.62
190.342	262.16
190.724	446.03
191.106	548.73
191.488	343.74
191.869	514.38
192.251	340.95
192.633	297.84
193.014	288.7
193.396	244.9
193.777	239.32
194.159	193.87
194.54	210.79
194.922	199.27
195.303	164.5
195.684	179.59
196.065	142.69
196.447	144.13
196.828	141.47
197.209	109.27
197.59	113.04
197.971	104.23
198.352	113.93
198.733	92.45
199.114	98.55
199.495	112.04
199.876	92.23
200.257	121.05
200.638	101.43
201.018	87.61
201.399	81.85
201.78	81.41
202.16	66.83
202.541	58.54
202.922	67.38
203.302	42.14
203.683	20.73
204.063	-5.22
204.444	3.88
204.824	-16.16
205.204	-26.32
205.585	-39.85
205.965	-10.81
206.345	-21.17
206.725	-14.5
207.106	-21.23
207.486	-38.45
207.866	-53.52
208.246	-52.94
208.626	-59.62
209.006	-23
209.386	-6.13
209.766	-7.61
210.145	3.84
210.525	25.79
210.905	4.68
211.285	17.32
211.664	31.83
212.044	29.12
212.424	20.06
212.803	14.59
213.183	17.55
213.562	22.36
213.942	5.68
214.321	10.75
214.701	6.48
215.08	-8.67
215.459	0.9
215.838	30.36
216.218	15.95
216.597	27.56
216.976	23.1
217.355	1.56
217.734	17.38
218.113	41.64
218.492	29.36
218.871	46.46
219.25	39.5
219.629	13.32
220.008	9.99
220.387	19.68
220.766	24.91
221.144	33.36
221.523	4.79
221.902	20.86
222.28	24.92
222.659	35.92
223.037	55.35
223.416	46.22
223.794	46.81
224.173	46.66
224.551	21.75
224.929	9.58
225.308	7.81
225.686	2.82
226.064	-0.62
226.442	-8.37
226.821	-1.73
227.199	0.01
227.577	-1.01
227.955	-0.37
228.333	-1.95
228.711	0.64
229.089	2.98
229.467	4.19
229.845	2.74
230.222	3.54
230.6	1.11
230.978	-0.36
231.356	2.23
231.733	0.18
232.111	1.54
232.488	2.2
232.866	3.44
233.243	5.19
233.621	5.9
233.998	6.08
234.376	7.01
234.753	6.63
235.13	6.12
235.508	7.63
235.885	8.67
236.262	10.63
236.639	10.46
237.016	9.03
237.393	8.97
237.77	10.15
238.147	10.34
238.524	9.95
238.901	10.42
239.278	9.1
239.655	9.94
240.032	9.58
240.409	9.13
240.785	8.67
241.162	8.33
241.539	7.78
241.915	7.64
242.292	7.57
242.668	7.58
243.045	7.57
243.421	7.38
243.798	7.04
244.174	6.46
244.551	6.34
244.927	6.23
245.303	6.16
245.679	5.86
246.056	5.47
246.432	5.32
246.808	5.03
247.184	5.06
247.56	4.78
247.936	4.73
248.312	4.79
248.688	4.81
249.064	4.7
249.44	4.92
249.815	4.92
250.191	4.98
250.567	4.96
250.943	4.64
251.318	4.5
251.694	4.64
252.069	4.75
252.445	4.8
252.82	4.88
253.196	5.11
253.571	5.35
253.947	5.71
254.322	5.88
254.697	5.91
255.073	5.73
255.448	5.55
255.823	5.47
256.198	5.45
256.573	5.63
256.948	5.62
257.323	5.43
257.698	5.12
258.073	4.85
258.448	4.74
258.823	4.86
259.198	4.79
259.573	4.79
259.948	4.74
260.322	4.74
260.697	4.66
261.072	4.43
261.446	4.3
261.821	4.07
262.195	4.09
262.57	4.03
262.944	3.98
263.319	3.9
263.693	3.74
264.067	3.86
264.442	3.83
264.816	3.8
265.19	3.78
265.564	3.93
265.938	4.03
266.313	3.97
266.687	4.02
267.061	4.05
267.435	3.81
267.809	3.82
268.183	3.81
268.556	3.74
268.93	3.99
269.304	3.98
269.678	4.14
270.051	4.27
270.425	4.37
270.799	4.29
271.172	4.58
271.546	4.66
271.919	4.33
272.293	4.12
272.666	4.18
273.04	4.27
273.413	4.35
273.787	4.43
274.16	4.5
274.533	4.46
274.906	4.32
275.279	4.26
275.653	4.29
276.026	4.22
276.399	4.19
276.772	4.1
277.145	4.15
277.518	4.18
277.891	4.23
278.263	4.09
278.636	4.28
279.009	4.03
279.382	4.17
279.755	4.41
280.127	4.63
280.5	4.69
280.872	4.61
281.245	4.28
281.617	4.37
281.99	4.39
282.362	4.5
282.735	4.54
283.107	4.77
283.479	4.84
283.852	4.82
284.224	4.91
284.596	4.88
284.968	4.84
285.34	4.89
285.713	4.68
286.085	4.69
286.457	4.77
286.829	4.83
287.201	4.86
287.572	4.9
287.944	4.82
288.316	4.73
288.688	4.93
289.06	5.13
289.431	5.17
289.803	5.17
290.175	5.11
290.546	5.25
290.918	5.35
291.289	5.32
291.661	5.48
292.032	5.52
292.403	5.68
292.775	5.81
293.146	5.74
293.517	5.73
293.889	5.81
294.26	5.77
294.631	5.75
295.002	5.79
295.373	5.76
295.744	5.9
296.115	5.99
296.486	5.86
296.857	5.95
297.228	6
297.599	6.05
297.97	6.19
298.34	6.32
298.711	6.4
299.082	6.54
299.452	6.58
299.823	6.69
300.194	6.71
300.564	6.75
300.935	7.02
301.305	7.22
301.676	7.37
302.046	7.39
302.416	7.66
302.787	7.72
303.157	7.85
303.527	7.92
303.897	7.93
304.267	8.18
304.637	8.23
305.008	8.26
305.378	8.42
305.748	8.43
306.117	8.27
306.487	8.38
306.857	8.4
307.227	8.51
307.597	8.65
307.967	8.71
308.336	8.73
308.706	8.74
309.076	9.06
309.445	9.17
309.815	9.4
310.184	9.39
310.554	9.59
310.923	9.65
311.293	9.75
311.662	9.96
312.031	10.06
312.401	10.2
312.77	10.44
313.139	10.63
313.508	10.78
313.877	11.14
314.246	11.14
314.616	11.36
314.985	11.4
315.353	11.39
315.722	11.76
316.091	12.03
316.46	12.07
316.829	11.95
317.198	12.07
317.567	12.2
317.935	12.47
318.304	12.43
318.672	12.72
319.041	12.91
319.41	13.01
319.778	13.07
320.147	13.15
320.515	13.02
320.883	12.96
321.252	13.1
321.62	13.25
321.988	13.41
322.357	13.4
322.725	13.71
323.093	14.01
323.461	14.09
323.829	14.22
324.197	14.32
324.565	14.56
324.933	14.6
325.301	14.76
325.669	14.85
326.037	15
326.405	15.03
326.772	14.97
327.14	15.05
327.508	15.17
327.875	15.25
328.243	15.5
328.61	15.56
328.978	15.57
329.346	15.65
329.713	15.71
330.08	15.85
330.448	15.73
330.815	15.76
331.182	15.61
331.55	15.69
331.917	15.71
332.284	15.75
332.651	15.96
333.018	16.03
333.385	15.98
333.752	15.99
334.119	16.12
334.486	16.2
334.853	16.25
335.22	16.28
335.587	16.51
335.954	16.42
336.32	16.51
336.687	16.65
337.054	16.59
337.42	16.67
337.787	16.77
338.153	16.94
338.52	16.98
338.886	16.95
339.253	17.01
339.619	17.21
339.986	17.27
340.352	17.27
340.718	17.27
341.084	17.36
341.451	17.59
341.817	17.69
342.183	17.76
342.549	17.84
342.915	17.95
343.281	17.85
343.647	18.02
344.013	18.07
344.379	18.09
344.745	18.27
345.11	18.24
345.476	18.15
345.842	18.15
346.208	18.17
346.573	18.27
346.939	18.24
347.304	18.24
347.67	18.24
348.035	18.18
348.401	18.12
348.766	18.1
349.132	18.07
349.497	17.95
349.862	18.01
350.228	17.97
350.593	17.89
350.958	17.9
351.323	17.9
351.688	18
352.053	18.03
352.418	18.04
352.783	18.07
353.148	18.13
353.513	18.08
353.878	18.09
354.243	18.17
354.608	18.05
354.972	17.94
355.337	17.9
355.702	18.01
356.066	18.12
356.431	18.1
356.795	18.05
357.16	18
357.524	17.84
357.889	17.75
358.253	17.68
358.618	17.71
358.982	17.66
359.346	17.54
359.71	17.39
360.075	17.27
360.439	17.25
360.803	17.15
361.167	17.09
361.531	16.99
361.895	16.83
362.259	16.84
362.623	16.78
362.987	16.73
363.351	16.59
363.714	16.49
364.078	16.43
364.442	16.37
364.806	16.35
365.169	16.31
365.533	16.24
365.896	16.19
366.26	16.1
366.623	15.93
366.987	15.85
367.35	15.85
367.714	15.82
368.077	15.62
368.44	15.54
368.803	15.53
369.167	15.37
369.53	15.28
369.893	15.24
370.256	15.18
370.619	15.1
370.982	15.05
371.345	14.92
371.708	14.82
372.071	14.63
372.434	14.5
372.797	14.38
373.159	14.3
373.522	14.22
373.885	14.11
374.247	14.06
374.61	13.99
374.973	13.83
375.335	13.59
375.698	13.48
376.06	13.32
376.423	13.16
376.785	13.12
377.147	13.04
377.51	12.85
377.872	12.71
378.234	12.57
378.596	12.46
378.958	12.35
379.321	12.2
379.683	12.13
380.045	12.01
380.407	11.97
380.769	11.86
381.13	11.66
381.492	11.49
381.854	11.32
382.216	11.21
382.578	11.09
382.939	11.02
383.301	10.95
383.663	10.86
384.024	10.76
384.386	10.68
384.747	10.62
385.109	10.52
385.47	10.42
385.832	10.33
386.193	10.21
386.554	10.09
386.916	10.02
387.277	9.94
387.638	9.87
387.999	9.73
388.36	9.66
388.721	9.64
389.082	9.56
389.443	9.46
389.804	9.37
390.165	9.3
390.526	9.24
390.887	9.12
391.248	9.07
391.609	9.01
391.969	8.94
392.33	8.82
392.691	8.76
393.051	8.68
393.412	8.6
393.772	8.52
394.133	8.45
394.493	8.37
394.854	8.26
395.214	8.15
395.574	8.08
395.935	8.02
396.295	7.93
396.655	7.85
397.015	7.79
397.376	7.68
397.736	7.59
398.096	7.49
398.456	7.45
398.816	7.36
399.176	7.25
399.535	7.16
399.895	7.08
400.255	7
400.615	6.95
400.975	6.89
401.334	6.82
401.694	6.77
402.054	6.72
402.413	6.7
402.773	6.65
403.132	6.56
403.492	6.48
403.851	6.42
404.211	6.36
404.57	6.32
404.929	6.3
405.288	6.26
405.648	6.21
406.007	6.15
406.366	6.15
406.725	6.15
407.084	6.15
407.443	6.12
407.802	6.12
408.161	6.09
408.52	6.04
408.879	5.99
409.238	5.98
409.596	5.93
409.955	5.91
410.314	5.88
410.673	5.88
411.031	5.87
411.39	5.85
411.748	5.84
412.107	5.84
412.465	5.81
412.824	5.8
413.182	5.76
413.54	5.74
413.899	5.69
414.257	5.66
414.615	5.57
414.974	5.56
415.332	5.49
415.69	5.43
416.048	5.41
416.406	5.39
416.764	5.32
417.122	5.3
417.48	5.24
417.838	5.23
418.195	5.18
418.553	5.14
418.911	5.12
419.269	5.09
419.626	5.05
419.984	5.02
420.342	4.98
420.699	4.96
421.057	4.95
421.414	4.9
421.772	4.87
422.129	4.85
422.486	4.8
422.844	4.79
423.201	4.78
423.558	4.76
423.915	4.73
424.273	4.72
424.63	4.7
424.987	4.67
425.344	4.63
425.701	4.61
426.058	4.59
426.415	4.55
426.772	4.5
427.128	4.5
427.485	4.47
427.842	4.45
428.199	4.42
428.555	4.4
428.912	4.42
429.269	4.4
429.625	4.38
429.982	4.37
430.338	4.36
430.695	4.34
431.051	4.31
431.407	4.33
431.764	4.3
432.12	4.3
432.476	4.31
432.832	4.33
433.189	4.32
433.545	4.32
433.901	4.33
434.257	4.33
434.613	4.33
434.969	4.35
435.325	4.32
435.681	4.32
436.036	4.31
436.392	4.31
436.748	4.29
437.104	4.28
437.459	4.27
437.815	4.27
438.171	4.28
438.526	4.29
438.882	4.27
439.237	4.27
439.593	4.25
439.948	4.24
440.304	4.23
440.659	4.24
441.014	4.24
441.369	4.23
441.725	4.22
442.08	4.21
442.435	4.18
442.79	4.19
443.145	4.18
443.5	4.18
443.855	4.14
444.21	4.13
444.565	4.13
444.92	4.13
445.275	4.13
445.629	4.1
445.984	4.09
446.339	4.07
446.693	4.05
447.048	4.04
447.403	4.02
447.757	4.02
448.112	4
448.466	3.97
448.82	3.96
449.175	3.97
449.529	3.95
449.883	3.93
450.238	3.92
450.592	3.91
450.946	3.86
451.3	3.85
451.654	3.85
452.008	3.85
452.362	3.81
452.716	3.8
453.07	3.79
453.424	3.79
453.778	3.79
454.132	3.8
454.486	3.8
454.839	3.81
455.193	3.77
455.547	3.77
455.9	3.79
456.254	3.8
456.607	3.8
456.961	3.8
457.314	3.81
457.668	3.81
458.021	3.81
458.375	3.82
458.728	3.83
459.081	3.83
459.434	3.82
459.787	3.85
460.141	3.87
460.494	3.88
460.847	3.88
461.2	3.89
461.553	3.9
461.906	3.91
462.259	3.92
462.611	3.95
462.964	3.96
463.317	3.98
463.67	3.98
464.022	3.98
464.375	3.99
464.728	4
465.08	4.02
465.433	4.04
465.785	4.07
466.138	4.09
466.49	4.11
466.843	4.14
467.195	4.16
467.547	4.15
467.899	4.15
468.252	4.16
468.604	4.17
468.956	4.18
469.308	4.18
469.66	4.21
470.012	4.25
470.364	4.27
470.716	4.25
471.068	4.26
471.42	4.27
471.772	4.31
472.123	4.33
472.475	4.35
472.827	4.36
473.178	4.37
473.53	4.35
473.882	4.34
474.233	4.34
474.585	4.32
474.936	4.34
475.288	4.36
475.639	4.36
475.99	4.37
476.342	4.38
476.693	4.37
477.044	4.35
477.395	4.33
477.746	4.3
478.097	4.31
478.448	4.31
478.8	4.29
479.15	4.26
479.501	4.23
479.852	4.23
480.203	4.21
480.554	4.22
480.905	4.23
481.255	4.23
481.606	4.22
481.957	4.23
482.307	4.22
482.658	4.21
483.009	4.21
483.359	4.21
483.709	4.2
484.06	4.2
484.41	4.2
484.761	4.2
485.111	4.21
485.461	4.22
485.811	4.22
486.162	4.23
486.512	4.24
486.862	4.24
487.212	4.25
487.562	4.25
487.912	4.25
488.262	4.25
488.612	4.26
488.961	4.26
489.311	4.25
489.661	4.26
490.011	4.25
490.36	4.27
490.71	4.27
491.06	4.28
491.409	4.3
491.759	4.31
492.108	4.32
492.458	4.33
492.807	4.33
493.157	4.36
493.506	4.39
493.855	4.38
494.204	4.42
494.554	4.44
494.903	4.47
495.252	4.52
495.601	4.54
495.95	4.57
496.299	4.62
496.648	4.67
496.997	4.74
497.346	4.81
497.695	4.85
498.043	4.9
498.392	4.94
498.741	5.01
499.09	5.05
499.438	5.13
499.787	5.19
500.135	5.27
500.484	5.33
500.832	5.41
501.181	5.51
501.529	5.58
501.878	5.66
502.226	5.75
502.574	5.83
502.923	5.95
503.271	6.02
503.619	6.11
503.967	6.22
504.315	6.31
504.663	6.41
505.011	6.51
505.359	6.62
505.707	6.73
506.055	6.83
506.403	6.93
506.751	7.03
507.098	7.12
507.446	7.22
507.794	7.31
508.141	7.39
508.489	7.48
508.837	7.6
509.184	7.72
509.531	7.82
509.879	7.95
510.226	8.06
510.574	8.2
510.921	8.32
511.268	8.43
511.616	8.58
511.963	8.72
512.31	8.85
512.657	9
513.004	9.17
513.351	9.36
513.698	9.53
514.045	9.68
514.392	9.85
514.739	10.02
515.086	10.23
515.432	10.4
515.779	10.59
516.126	10.74
516.473	10.91
516.819	11.07
517.166	11.21
517.512	11.35
517.859	11.48
518.205	11.62
518.552	11.78
518.898	11.91
519.245	12.05
519.591	12.21
519.937	12.33
520.283	12.48
520.629	12.61
520.976	12.77
521.322	12.97
521.668	13.15
522.014	13.35
522.36	13.53
522.706	13.76
523.052	14
523.398	14.28
523.743	14.54
524.089	14.81
524.435	15.08
524.781	15.33
525.126	15.61
525.472	15.84
525.817	16.05
526.163	16.24
526.509	16.41
526.854	16.58
527.199	16.77
527.545	16.9
527.89	17.09
528.235	17.27
528.581	17.46
528.926	17.65
529.271	17.84
529.616	18.03
529.961	18.22
530.306	18.41
530.651	18.6
530.996	18.79
531.341	19.02
531.686	19.23
532.031	19.46
532.376	19.68
532.721	19.93
533.065	20.18
533.41	20.45
533.755	20.74
534.099	21.02
534.444	21.3
534.788	21.62
535.133	21.87
535.477	22.13
535.822	22.39
536.166	22.67
536.51	22.98
536.855	23.31
537.199	23.65
537.543	24.02
537.887	24.37
538.231	24.74
538.576	25.11
538.92	25.47
539.264	25.82
539.608	26.15
539.951	26.41
540.295	26.72
540.639	27
540.983	27.28
541.327	27.58
541.671	27.83
542.014	28.09
542.358	28.36
542.701	28.65
543.045	28.94
543.389	29.23
543.732	29.52
544.075	29.83
544.419	30.11
544.762	30.37
545.105	30.66
545.449	31
545.792	31.3
546.135	31.64
546.478	32
546.821	32.41
547.165	32.82
547.508	33.18
547.851	33.54
548.194	33.89
548.536	34.22
548.879	34.6
549.222	35
549.565	35.38
549.908	35.72
550.25	36.12
550.593	36.5
550.936	36.77
551.278	37.12
551.621	37.53
551.963	37.9
552.306	38.25
552.648	38.6
552.991	38.95
553.333	39.26
553.675	39.56
554.017	39.76
554.36	40.06
554.702	40.37
555.044	40.67
555.386	40.93
555.728	41.24
556.07	41.6
556.412	41.82
556.754	42.1
557.096	42.39
557.438	42.65
557.78	42.94
558.121	43.34
558.463	43.58
558.805	43.78
559.147	44.06
559.488	44.35
559.83	44.54
560.171	44.79
560.513	45.08
560.854	45.3
561.196	45.57
561.537	45.87
561.878	46.14
562.22	46.38
562.561	46.67
562.902	46.89
563.243	47.06
563.584	47.33
563.925	47.5
564.266	47.72
564.607	47.9
564.948	48.11
565.289	48.27
565.63	48.47
565.971	48.71
566.312	48.88
566.653	49.03
566.993	49.19
567.334	49.35
567.675	49.48
568.015	49.64
568.356	49.78
568.696	49.88
569.037	50.02
569.377	50.25
569.718	50.34
570.058	50.52
570.398	50.63
570.739	50.82
571.079	50.97
571.419	51.12
571.759	51.23
572.099	51.3
572.439	51.42
572.779	51.55
573.119	51.61
573.459	51.73
573.799	51.87
574.139	52.06
574.479	52.18
574.819	52.33
575.158	52.44
575.498	52.58
575.838	52.68
576.177	52.8
576.517	52.87
576.856	53.07
577.196	53.1
577.535	53.23
577.875	53.28
578.214	53.43
578.553	53.54
578.893	53.67
579.232	53.78
579.571	53.94
579.91	54.01
580.25	54.07
580.589	54.21
580.928	54.36
581.267	54.42
581.606	54.56
581.945	54.59
582.283	54.69
582.622	54.76
582.961	54.88
583.3	54.91
583.639	55.05
583.977	55.1
584.316	55.13
584.654	55.26
584.993	55.33
585.332	55.44
585.67	55.53
586.008	55.62
586.347	55.67
586.685	55.75
587.024	55.74
587.362	55.87
587.7	55.98
588.038	56.02
588.376	56.16
588.715	56.22
589.053	56.35
589.391	56.38
589.729	56.47
590.067	56.53
590.404	56.62
590.742	56.62
591.08	56.66
591.418	56.86
591.756	56.88
592.093	57.04
592.431	57.09
592.769	57.15
593.106	57.24
593.444	57.29
593.781	57.26
594.119	57.4
594.456	57.42
594.793	57.34
595.131	57.37
595.468	57.4
595.805	57.43
596.143	57.39
596.48	57.42
596.817	57.4
597.154	57.55
597.491	57.57
597.828	57.64
598.165	57.7
598.502	57.73
598.839	57.82
599.176	57.78
599.512	57.79
599.849	57.8
600.186	57.81
600.523	57.9
600.859	58.01
601.196	58.11
601.532	58.23
601.869	58.3
602.205	58.34
602.542	58.35
602.878	58.38
603.215	58.45
603.551	58.58
603.887	58.65
604.223	58.54
604.56	58.6
604.896	58.61
605.232	58.67
605.568	58.62
605.904	58.65
606.24	58.69
606.576	58.79
606.912	58.88
607.248	58.96
607.583	59.04
607.919	58.97
608.255	58.93
608.591	58.97
608.926	58.95
609.262	58.98
609.597	58.97
609.933	59.06
610.268	59.09
610.604	59.07
610.939	59.15
611.275	59.2
611.61	59.19
611.945	59.19
612.281	59.15
612.616	59.29
612.951	59.33
613.286	59.32
613.621	59.26
613.956	59.22
614.291	59.31
614.626	59.28
614.961	59.43
615.296	59.43
615.631	59.4
615.966	59.43
616.3	59.49
616.635	59.58
616.97	59.49
617.304	59.57
617.639	59.56
617.973	59.57
618.308	59.66
618.642	59.66
618.977	59.71
619.311	59.71
619.646	59.74
619.98	59.64
620.314	59.65
620.648	59.75
620.983	59.81
621.317	59.67
621.651	59.75
621.985	59.67
622.319	59.74
622.653	59.76
622.987	59.87
623.321	59.86
623.655	59.84
623.988	59.92
624.322	59.85
624.656	59.88
624.99	59.9
625.323	59.85
625.657	59.83
625.99	59.83
626.324	59.89
626.657	59.8
626.991	59.91
627.324	59.98
627.658	59.98
627.991	59.97
628.324	59.97
628.657	59.94
628.991	60.05
629.324	60.12
629.657	60.12
629.99	60.09
630.323	60.18
630.656	60.18
630.989	60.19
631.322	60.23
631.655	60.2
631.987	60.19
632.32	60.24
632.653	60.32
632.986	60.34
633.318	60.36
633.651	60.42
633.984	60.41
634.316	60.34
634.649	60.28
634.981	60.25
635.313	60.31
635.646	60.31
635.978	60.36
636.31	60.3
636.643	60.31
636.975	60.44
637.307	60.37
637.639	60.39
637.971	60.39
638.303	60.38
638.635	60.38
638.967	60.3
639.299	60.35
639.631	60.37
639.963	60.3
640.295	60.3
640.626	60.26
640.958	60.21
641.29	60.23
641.621	60.29
641.953	60.39
642.285	60.35
642.616	60.49
642.948	60.4
643.279	60.38
643.61	60.41
643.942	60.4
644.273	60.41
644.604	60.45
644.936	60.38
645.267	60.28
645.598	60.48
645.929	60.63
646.26	60.55
646.591	60.48
646.922	60.44
647.253	60.44
647.584	60.45
647.915	60.45
648.245	60.54
648.576	60.49
648.907	60.43
649.238	60.49
649.568	60.5
649.899	60.49
650.229	60.64
650.56	60.72
650.89	60.57
651.221	60.58
651.551	60.65
651.882	60.71
652.212	60.88
652.542	60.58
652.872	60.56
653.203	60.58
653.533	60.73
653.863	60.91
654.193	60.88
654.523	61.01
654.853	61.04
655.183	60.98
655.513	61.13
655.843	61.12
656.172	61.09
656.502	61
656.832	60.89
657.162	60.83
657.491	60.74
657.821	60.77
658.15	60.8
658.48	60.71
658.809	60.76
659.139	60.67
659.468	60.82
659.798	60.78
660.127	60.77
660.456	60.76
660.785	60.7
661.115	60.66
661.444	60.64
661.773	60.71
662.102	60.77
662.431	60.63
662.76	60.64
663.089	60.67
663.418	60.55
663.747	60.73
664.076	60.64
664.404	60.59
664.733	60.64
665.062	60.61
665.39	60.65
665.719	60.64
666.048	60.73
666.376	60.75
666.705	60.76
667.033	60.85
667.362	60.69
667.69	60.83
668.018	60.92
668.347	60.88
668.675	60.78
669.003	60.75
669.331	60.73
669.659	60.69
669.987	60.67
670.315	60.89
670.643	60.93
670.971	61.11
671.299	61.22
671.627	61.27
671.955	61.31
672.283	61.32
672.61	61.24
672.938	61.28
673.266	61.34
673.593	61.29
673.921	61.27
674.249	61.34
674.576	61.22
674.904	61.18
675.231	61.13
675.558	61.04
675.886	61.04
676.213	61.04
676.54	61.07
676.867	61
677.195	60.91
677.522	60.94
677.849	60.99
678.176	60.92
678.503	60.99
678.83	60.9
679.157	60.73
679.484	60.76
679.81	60.79
680.137	60.6
680.464	60.6
680.791	60.65
681.117	60.67
681.444	60.66
681.771	60.65
682.097	60.56
682.424	60.71
682.75	60.68
683.077	60.74
683.403	60.69
683.729	60.81
684.056	60.8
684.382	60.63
684.708	60.52
685.034	60.46
685.36	60.37
685.686	60.41
686.012	60.56
686.339	60.65
686.664	60.58
686.99	60.72
687.316	60.73
687.642	60.61
687.968	60.49
688.294	60.65
688.619	60.53
688.945	60.76
689.271	60.79
689.596	60.9
689.922	60.86
690.247	60.91
690.573	60.84
690.898	60.93
691.224	60.97
691.549	60.97
691.874	61.13
692.2	61.13
692.525	61.07
692.85	61.11
693.175	61.19
693.5	61.22
693.825	61.29
694.15	61.27
694.475	61.39
694.8	61.48
695.125	61.47
695.45	61.69
695.775	61.54
696.099	61.45
696.424	61.4
696.749	61.47
697.073	61.52
697.398	61.59
697.723	61.6
698.047	61.68
698.372	61.64
698.696	61.72
699.02	61.67
699.345	61.78
699.669	61.66
699.993	61.53
700.318	61.38
700.642	61.34
700.966	61.51
701.29	61.43
701.614	61.45
701.938	61.34
702.262	61.39
702.586	61.59
702.91	61.77
703.234	61.67
703.557	61.6
703.881	61.61
704.205	61.41
704.529	61.25
704.852	61.17
705.176	61.29
705.499	61.07
705.823	61.06
706.146	60.78
706.47	61.13
706.793	61.22
707.117	61.69
707.44	61.55
707.763	61.35
708.086	61.47
708.409	61.61
708.733	61.63
709.056	61.62
709.379	61.62
709.702	61.46
710.025	61.52
710.348	61.68
710.671	61.65
710.993	61.77
711.316	61.73
711.639	61.78
711.962	61.62
712.284	61.72
712.607	61.83
712.93	62.16
713.252	62.14
713.575	62.15
713.897	61.97
714.22	62.06
714.542	62.23
714.864	62.02
715.187	61.99
715.509	62.01
715.831	61.88
716.153	61.75
716.475	61.89
716.798	61.87
717.12	61.78
717.442	61.51
717.764	61.58
718.085	61.71
718.407	61.53
718.729	61.67
719.051	61.69
719.373	61.82
719.695	61.84
720.016	61.76
720.338	61.56
720.659	61.52
720.981	61.51
721.302	61.31
721.624	61.48
721.945	61.55
722.267	61.63
722.588	61.7
722.909	61.5
723.231	61.44
723.552	61.37
723.873	61.41
724.194	61.63
724.515	61.51
724.836	61.55
725.157	61.74
725.478	61.74
725.799	61.9
726.12	61.57
726.441	61.27
726.762	61.17
727.083	61.47
727.403	61.65
727.724	61.77
728.045	61.89
728.365	61.81
728.686	61.54
729.006	61.74
729.327	61.58
729.647	61.89
729.967	61.86
730.288	62.17
730.608	62.02
730.928	62.16
731.249	62.27
731.569	62.48
731.889	62.53
732.209	62.48
732.529	62.24
732.849	62.31
733.169	62.64
733.489	62.52
733.809	62.37
734.129	62.26
734.448	62.25
734.768	62.21
735.088	62.36
735.408	62.37
735.727	62.28
736.047	62.31
736.366	62.08
736.686	62.04
737.005	62.06
737.325	62.14
737.644	62.05
737.963	61.95
738.283	61.61
738.602	61.5
738.921	61.48
739.24	61.69
739.56	61.75
739.879	61.81
740.198	61.84
740.517	61.79
740.836	61.65
741.155	61.77
741.473	61.86
741.792	62.03
742.111	62.06
742.43	61.94
742.748	61.9
743.067	62
743.386	62.16
743.704	61.91
744.023	61.75
744.341	61.73
744.66	61.75
744.978	61.44
745.297	61.44
745.615	61.12
745.933	60.84
746.252	60.92
746.57	60.28
746.888	60.32
747.206	60.38
747.524	60.29
747.842	60.06
748.16	59.95
748.478	59.32
748.796	59.42
749.114	59.45
749.432	59.65
749.749	59.53
750.067	59.01
750.385	58.96
750.703	59.37
751.02	59.39
751.338	59.28
751.655	59.78
751.973	59.96
752.29	60.35
752.608	60.44
752.925	60.4
753.242	60.81
753.56	61.08
753.877	60.93
754.194	60.92
754.511	61.02
754.828	60.89
755.145	61.21
755.462	61.33
755.779	61.18
756.096	61.4
756.413	61.64
756.73	62.3
757.047	62.52
757.364	62.11
757.68	62.18
757.997	62.23
758.314	62.11
758.63	61.8
758.947	61.67
759.264	61.7
759.58	61.64
759.896	61.65
760.213	61.42
760.529	61.51
760.846	61.51
761.162	61.56
761.478	61.72
761.794	62.02
762.11	61.76
762.426	61.92
762.743	61.99
763.059	61.86
763.375	61.82
763.69	61.78
764.006	61.92
764.322	61.83
764.638	61.84
764.954	61.91
765.27	62.01
765.585	61.94
765.901	61.98
766.216	62.03
766.532	61.88
766.848	62.16
767.163	62.26
767.478	62.31
767.794	62.22
768.109	62.54
768.424	62.15
768.74	62.16
769.055	62.1
769.37	61.78
769.685	61.6
770	61.67
770.315	61.65
770.63	61.87
770.945	62.22
771.26	62.22
771.575	62.22
771.89	62.52
772.205	62.87
772.52	62.95
772.834	63.1
773.149	63.3
773.464	63.14
773.778	63.22
774.093	63.51
774.407	63.38
774.722	63.09
775.036	63.62
775.351	63.91
775.665	64.15
775.979	64.03
776.293	64.67
776.608	64.24
776.922	64.41
777.236	64.16
777.55	63.69
777.864	63.74
778.178	63.61
778.492	63.05
778.806	63.13
779.12	63.04
779.434	62.84
779.747	63.08
780.061	62.86
780.375	62.84
780.689	62.64
781.002	62.87
781.316	63.42
781.629	63.19
781.943	63.27
782.256	62.61
782.57	62.8
782.883	62.61
783.196	62.73
783.51	62.42
783.823	62.88
784.136	63.1
784.449	63.21
784.762	63.52
785.075	64.15
785.388	63.78
785.701	63.17
786.014	63.59
786.327	63.43
786.64	63.44
786.953	63.48
787.266	63.86
787.578	63.73
787.891	63.43
788.204	63.25
788.516	63.21
788.829	63.61
789.141	63.75
789.454	63.76
789.766	63.61
790.079	63.11
790.391	63.01
790.703	63.6
791.016	63.7
791.328	63.69
791.64	63.47
791.952	63.78
792.264	64.04
792.576	63.62
792.888	63.04
793.2	62.76
793.512	63.19
793.824	62.8
794.136	63.22
794.448	62.48
794.76	62.3
795.071	62.08
795.383	61.87
795.695	61.96
796.006	61.62
796.318	61.92
796.629	62.47
796.941	61.96
797.252	61.83
797.564	62.13
797.875	61.44
798.186	61.54
798.497	61.48
798.809	62.07
799.12	62.35
799.431	62.95
799.742	64.12
800.053	63.84
800.364	63.77
800.675	63.02
800.986	63.05
801.297	63.29
801.608	63.69
801.918	64.19
802.229	64.27
802.54	64.67
802.851	64.28
803.161	64.38
803.472	64.51
803.782	64.24
804.093	63.5
804.403	63.94
804.714	63.49
805.024	63.35
805.334	62.79
805.645	62.57
805.955	61.97
806.265	61.55
806.575	60.9
806.885	61.15
807.195	61.58
807.505	62.24
807.815	62.07
808.125	61.49
808.435	61
808.745	60.46
809.055	60.33
809.365	60.76
809.674	59.96
809.984	59.73
810.294	59.52
810.603	59.45
810.913	59.86
811.222	60.46
811.532	61.03
811.841	61.67
812.151	61.98
812.46	62.4
812.769	61.88
813.079	61.78
813.388	61.55
813.697	61.25
814.006	60.45
814.315	60.75
814.624	60.95
814.933	60.81
815.242	60.82
815.551	60.98
815.86	60.49
816.169	60.94
816.478	61.83
816.786	62.07
817.095	62.92
817.404	62.22
817.712	62.67
818.021	62.78
818.33	63.28
818.638	63.17
818.947	62.93
819.255	62.75
819.563	62.63
819.872	63.12
820.18	63.76
820.488	63.42
820.796	63.71
821.105	63.86
821.413	63.97
821.721	63.96
822.029	63.78
822.337	63.76
822.645	63.83
822.953	63.7
823.26	63.58
823.568	63.35
823.876	63.42
824.184	63.19
824.491	62.96
824.799	62.71
825.107	62.77
825.414	62.78
825.722	62.61
826.029	63.07
826.337	63
826.644	62.75
826.951	63.01
827.259	62.77
827.566	62.6
827.873	62.5
828.18	62.5
828.488	62.58
828.795	62.68
829.102	62.5
829.409	62.23
829.716	62.13
830.023	62.15
830.329	62.47
830.636	62.55
830.943	62.73
831.25	62.6
831.557	62.63
831.863	62.75
832.17	63.42
832.476	62.53
832.783	62.38
833.089	62.54
833.396	62.25
833.702	62.56
834.009	62.71
834.315	62.08
834.621	61.79
834.928	61.45
835.234	61.28
835.54	61.68
835.846	61.72
836.152	61.56
836.458	61.59
836.764	60.76
837.07	60.66
837.376	59.93
837.682	59.76
837.988	59.04
838.293	58.82
838.599	58.65
838.905	58.52
839.211	58.22
839.516	58.28
839.822	58.72
840.127	57.85
840.433	57.42
840.738	58.46
841.044	59.06
841.349	59.39
841.654	59.19
841.959	58.61
842.265	59.5
842.57	60.63
842.875	60.51
843.18	61.18
843.485	60.9
843.79	61.61
844.095	62.56
844.4	64.26
844.705	65.22
845.01	65.29
845.315	66
845.619	64.8
845.924	64.51
846.229	65.2
846.533	65.47
846.838	66.11
847.142	65.55
847.447	67.11
847.751	66.01
848.056	65.81
848.36	66.03
848.664	65.57
848.969	63.82
849.273	63.05
849.577	63.96
849.881	64.8
850.185	67.54
850.489	68.05
850.794	65.85
851.097	66.39
851.401	66.23
851.705	66.6
852.009	69.94
852.313	68.72
852.617	66.13
852.92	66.94
853.224	67.39
853.528	69.21
853.831	69.04
854.135	70.83
854.438	71.95
854.742	73.22
855.045	73.78
855.349	74.53
855.652	76.63
855.955	76.25
856.259	74.7
856.562	74.88
856.865	75.84
857.168	77.5
857.471	77.23
857.774	76.7
858.077	76.36
858.38	73.62
858.683	73.53
858.986	74.27
859.289	73.73
859.592	73.66
859.894	73.51
860.197	69.03
860.5	69.27
860.802	68.35
861.105	68.63
861.407	66.49
861.71	66.6
862.012	65.04
862.315	63.3
862.617	64.63
862.919	60.9
863.222	60.55
863.524	60.77
863.826	60.93
864.128	60.25
864.43	57.22
864.732	58.97
865.034	59.28
865.336	61.52
865.638	62.22
865.94	60.09
866.242	57.24
866.544	58.15
866.846	57.85
867.147	58.49
867.449	56.63
867.751	57.72
868.052	58.97
868.354	61.07
868.655	62.99
868.957	62.31
869.258	64.19
869.56	63.83
869.861	64.54
870.162	65.71
870.463	69.24
870.765	71.44
871.066	70.47
871.367	70.36
871.668	70.77
871.969	69.9
872.27	68.91
872.571	71.25
872.872	73.19
873.173	71.73
873.473	72.28
873.774	74.55
874.075	75.36
874.376	71.27
874.676	70.05
874.977	67.46
875.277	68.03
875.578	68.42
875.878	67.86
876.179	66.13
876.479	63.36
876.78	60.67
877.08	61.08
877.38	60.9
877.68	60.99
877.981	56.81
878.281	56.26
878.581	59.97
