Data from BU58127_Reflection_00012.txt Node
Date: Mon Nov 18 16:44:24 EST 2019
User: vgr7
Spectrometer: USB2G7710
Scans to average: 3
Trigger mode: 4
Integration Time (sec): 2.000000E-2
Electric dark correction enabled: true
Boxcar width: 10
XAxis mode: Wavelengths
Number of Pixels in Spectrum: 2048
>>>>>Begin Spectral Data<<<<<
177.721	-59.42
178.105	29.58
178.488	97.46
178.871	52.9
179.254	77.44
179.636	-504.17
180.019	-111.2
180.402	125
180.785	-1.45
181.168	-288.89
181.55	528.57
181.933	80.82
182.316	80.53
182.698	123.89
183.081	109.84
183.463	41.18
183.846	52.38
184.228	57.06
184.611	-100
184.993	-1021.21
185.376	-262.64
185.758	1869.23
186.14	-102.61
186.522	-38.05
186.904	-76.78
187.287	-116.73
187.669	1704.65
188.051	-564.6
188.433	-5788.89
188.815	325.81
189.197	604.59
189.579	218.99
189.961	147.62
190.342	206.21
190.724	205.59
191.106	150.61
191.488	163.39
191.869	146.1
192.251	142.36
192.633	58.48
193.014	65.78
193.396	74.74
193.777	105.59
194.159	151.43
194.54	103.9
194.922	69.25
195.303	52.78
195.684	31.95
196.065	7.12
196.447	30.95
196.828	9.09
197.209	21.41
197.59	5.01
197.971	18.52
198.352	18.38
198.733	22.37
199.114	40.64
199.495	41.44
199.876	36.86
200.257	35.61
200.638	40.57
201.018	33.13
201.399	33.46
201.78	32.05
202.16	14.34
202.541	21.25
202.922	14.02
203.302	14.66
203.683	20.02
204.063	22.1
204.444	21.72
204.824	27.95
205.204	29
205.585	41.11
205.965	21.41
206.345	14.72
206.725	12.72
207.106	-3.8
207.486	-12.25
207.866	-18.71
208.246	-4.55
208.626	-4.68
209.006	13.65
209.386	22.42
209.766	25.14
210.145	52.6
210.525	37.62
210.905	45.3
211.285	52.16
211.664	52.44
212.044	54.05
212.424	70.07
212.803	59.94
213.183	49.18
213.562	46.44
213.942	49.96
214.321	40.21
214.701	36.2
215.08	27.47
215.459	36.83
215.838	44.72
216.218	56.75
216.597	47.82
216.976	29.56
217.355	26.83
217.734	28.61
218.113	12.91
218.492	12.3
218.871	6.93
219.25	5.66
219.629	4.74
220.008	-7.16
220.387	-13.45
220.766	-9.91
221.144	-20.26
221.523	-19.13
221.902	-27.23
222.28	-23.46
222.659	-15.88
223.037	-2.11
223.416	-8.18
223.794	-12.53
224.173	-13.94
224.551	-4.25
224.929	-0.39
225.308	0.76
225.686	2.45
226.064	1.69
226.442	-0.17
226.821	4.53
227.199	3.28
227.577	8.26
227.955	12.41
228.333	13.32
228.711	12.71
229.089	18.85
229.467	15.92
229.845	16.5
230.222	17.84
230.6	17.84
230.978	18.32
231.356	19.73
231.733	21.4
232.111	22.45
232.488	21.77
232.866	20.42
233.243	20.03
233.621	19.66
233.998	21.36
234.376	21.49
234.753	18.73
235.13	19.88
235.508	18.5
235.885	17.08
236.262	15.41
236.639	15.63
237.016	13.73
237.393	14.41
237.77	12.89
238.147	11.3
238.524	11.08
238.901	9.9
239.278	8.53
239.655	9.07
240.032	8.15
240.409	7.38
240.785	6.95
241.162	6.98
241.539	6.31
241.915	5.44
242.292	5.42
242.668	5.73
243.045	5.09
243.421	4.98
243.798	4.92
244.174	5.18
244.551	5
244.927	5
245.303	5.03
245.679	5.15
246.056	5.21
246.432	5
246.808	5.08
247.184	4.88
247.56	4.44
247.936	4.39
248.312	4.36
248.688	4.51
249.064	4.37
249.44	4.67
249.815	4.87
250.191	4.85
250.567	5.01
250.943	5.22
251.318	5.29
251.694	5.42
252.069	5.3
252.445	5.62
252.82	5.51
253.196	5.51
253.571	5.47
253.947	5.24
254.322	5.27
254.697	4.88
255.073	4.99
255.448	4.97
255.823	5.11
256.198	5.15
256.573	4.87
256.948	4.76
257.323	4.67
257.698	4.74
258.073	4.72
258.448	4.64
258.823	4.56
259.198	4.33
259.573	4.38
259.948	4.36
260.322	4.29
260.697	4.23
261.072	3.96
261.446	4.06
261.821	4.13
262.195	4.32
262.57	4.32
262.944	4.32
263.319	4.47
263.693	4.49
264.067	4.41
264.442	4.74
264.816	4.77
265.19	4.69
265.564	4.75
265.938	4.67
266.313	4.59
266.687	4.62
267.061	4.88
267.435	4.78
267.809	4.69
268.183	4.51
268.556	4.6
268.93	4.8
269.304	4.72
269.678	4.77
270.051	4.42
270.425	4.53
270.799	4.54
271.172	4.35
271.546	4.3
271.919	4.24
272.293	4.12
272.666	4.14
273.04	4.22
273.413	4.15
273.787	4.19
274.16	4.25
274.533	4.33
274.906	4.28
275.279	4.19
275.653	4.28
276.026	4.32
276.399	4.3
276.772	4.32
277.145	4.23
277.518	4.12
277.891	4.27
278.263	4.18
278.636	4.12
279.009	4.19
279.382	4.31
279.755	4.29
280.127	4.22
280.5	4.3
280.872	4.23
281.245	4.15
281.617	4.2
281.99	4.33
282.362	4.36
282.735	4.27
283.107	4.3
283.479	4.27
283.852	4.35
284.224	4.36
284.596	4.3
284.968	4.36
285.34	4.37
285.713	4.39
286.085	4.5
286.457	4.45
286.829	4.52
287.201	4.44
287.572	4.47
287.944	4.5
288.316	4.4
288.688	4.42
289.06	4.43
289.431	4.5
289.803	4.48
290.175	4.48
290.546	4.68
290.918	4.71
291.289	4.77
291.661	4.76
292.032	4.76
292.403	4.78
292.775	4.9
293.146	4.96
293.517	4.95
293.889	4.91
294.26	5
294.631	5.07
295.002	5.11
295.373	5.14
295.744	5.09
296.115	5.19
296.486	5.13
296.857	5.26
297.228	5.2
297.599	5.15
297.97	5.19
298.34	5.08
298.711	5.28
299.082	5.29
299.452	5.38
299.823	5.47
300.194	5.56
300.564	5.63
300.935	5.69
301.305	5.8
301.676	5.97
302.046	6.06
302.416	6.1
302.787	6.17
303.157	6.23
303.527	6.4
303.897	6.42
304.267	6.56
304.637	6.67
305.008	6.85
305.378	7.03
305.748	7.08
306.117	7.2
306.487	7.26
306.857	7.4
307.227	7.54
307.597	7.58
307.967	7.83
308.336	7.88
308.706	7.9
309.076	7.93
309.445	7.93
309.815	8
310.184	7.96
310.554	7.95
310.923	8.18
311.293	8.3
311.662	8.36
312.031	8.51
312.401	8.58
312.77	8.73
313.139	8.79
313.508	8.99
313.877	9.11
314.246	9.11
314.616	9.22
314.985	9.21
315.353	9.39
315.722	9.39
316.091	9.39
316.46	9.47
316.829	9.63
317.198	9.71
317.567	9.76
317.935	9.86
318.304	10.09
318.672	10.01
319.041	10.15
319.41	10.29
319.778	10.19
320.147	10.25
320.515	10.2
320.883	10.25
321.252	10.21
321.62	10.38
321.988	10.48
322.357	10.41
322.725	10.54
323.093	10.49
323.461	10.55
323.829	10.73
324.197	10.88
324.565	10.81
324.933	10.94
325.301	11.12
325.669	11.2
326.037	11.19
326.405	11.35
326.772	11.3
327.14	11.42
327.508	11.57
327.875	11.5
328.243	11.5
328.61	11.59
328.978	11.63
329.346	11.66
329.713	11.63
330.08	11.85
330.448	11.7
330.815	11.83
331.182	11.73
331.55	11.74
331.917	11.85
332.284	11.99
332.651	11.97
333.018	12
333.385	12
333.752	12
334.119	11.97
334.486	12
334.853	11.95
335.22	11.91
335.587	11.99
335.954	12.17
336.32	12.09
336.687	12.29
337.054	12.25
337.42	12.35
337.787	12.35
338.153	12.41
338.52	12.48
338.886	12.63
339.253	12.71
339.619	12.77
339.986	12.75
340.352	12.89
340.718	12.9
341.084	13.03
341.451	13.2
341.817	13.29
342.183	13.2
342.549	13.25
342.915	13.32
343.281	13.39
343.647	13.3
344.013	13.42
344.379	13.24
344.745	13.32
345.11	13.35
345.476	13.32
345.842	13.42
346.208	13.41
346.573	13.43
346.939	13.43
347.304	13.27
347.67	13.33
348.035	13.23
348.401	13.31
348.766	13.26
349.132	13.19
349.497	13.14
349.862	13.22
350.228	13.28
350.593	13.33
350.958	13.3
351.323	13.37
351.688	13.28
352.053	13.34
352.418	13.33
352.783	13.23
353.148	13.18
353.513	13.18
353.878	13.14
354.243	13.19
354.608	13.13
354.972	13.18
355.337	13.24
355.702	13.23
356.066	13.18
356.431	13.17
356.795	13.18
357.16	13.16
357.524	13.07
357.889	12.96
358.253	12.92
358.618	12.91
358.982	12.76
359.346	12.77
359.71	12.68
360.075	12.64
360.439	12.65
360.803	12.64
361.167	12.62
361.531	12.55
361.895	12.41
362.259	12.33
362.623	12.31
362.987	12.2
363.351	12.15
363.714	12.09
364.078	12.01
364.442	11.93
364.806	11.84
365.169	11.86
365.533	11.8
365.896	11.68
366.26	11.58
366.623	11.54
366.987	11.52
367.35	11.54
367.714	11.43
368.077	11.35
368.44	11.27
368.803	11.17
369.167	11.13
369.53	11.11
369.893	10.98
370.256	10.88
370.619	10.88
370.982	10.83
371.345	10.8
371.708	10.73
372.071	10.67
372.434	10.64
372.797	10.57
373.159	10.47
373.522	10.47
373.885	10.39
374.247	10.36
374.61	10.24
374.973	10.1
375.335	10.05
375.698	9.93
376.06	9.84
376.423	9.71
376.785	9.64
377.147	9.61
377.51	9.6
377.872	9.53
378.234	9.43
378.596	9.3
378.958	9.2
379.321	9.14
379.683	9.06
380.045	8.93
380.407	8.85
380.769	8.84
381.13	8.71
381.492	8.65
381.854	8.54
382.216	8.42
382.578	8.33
382.939	8.21
383.301	8.16
383.663	8.07
384.024	8.04
384.386	8
384.747	7.88
385.109	7.84
385.47	7.73
385.832	7.64
386.193	7.63
386.554	7.49
386.916	7.4
387.277	7.31
387.638	7.29
387.999	7.19
388.36	7.13
388.721	7.04
389.082	6.99
389.443	6.93
389.804	6.88
390.165	6.81
390.526	6.74
390.887	6.72
391.248	6.69
391.609	6.68
391.969	6.56
392.33	6.51
392.691	6.42
393.051	6.35
393.412	6.3
393.772	6.21
394.133	6.2
394.493	6.2
394.854	6.11
395.214	6.04
395.574	6.03
395.935	5.95
396.295	5.96
396.655	5.91
397.015	5.87
397.376	5.84
397.736	5.74
398.096	5.71
398.456	5.64
398.816	5.59
399.176	5.5
399.535	5.49
399.895	5.41
400.255	5.38
400.615	5.35
400.975	5.28
401.334	5.24
401.694	5.17
402.054	5.14
402.413	5.12
402.773	5.05
403.132	4.99
403.492	4.95
403.851	4.92
404.211	4.85
404.57	4.8
404.929	4.79
405.288	4.82
405.648	4.78
406.007	4.74
406.366	4.69
406.725	4.68
407.084	4.64
407.443	4.62
407.802	4.6
408.161	4.58
408.52	4.55
408.879	4.55
409.238	4.54
409.596	4.48
409.955	4.47
410.314	4.5
410.673	4.47
411.031	4.43
411.39	4.4
411.748	4.42
412.107	4.41
412.465	4.34
412.824	4.32
413.182	4.28
413.54	4.3
413.899	4.3
414.257	4.27
414.615	4.26
414.974	4.23
415.332	4.22
415.69	4.19
416.048	4.19
416.406	4.15
416.764	4.12
417.122	4.09
417.48	4.07
417.838	4.04
418.195	4.03
418.553	4.02
418.911	3.99
419.269	3.96
419.626	3.93
419.984	3.9
420.342	3.88
420.699	3.85
421.057	3.82
421.414	3.8
421.772	3.77
422.129	3.77
422.486	3.74
422.844	3.73
423.201	3.7
423.558	3.69
423.915	3.67
424.273	3.67
424.63	3.66
424.987	3.64
425.344	3.61
425.701	3.59
426.058	3.58
426.415	3.54
426.772	3.53
427.128	3.51
427.485	3.53
427.842	3.53
428.199	3.54
428.555	3.54
428.912	3.54
429.269	3.54
429.625	3.51
429.982	3.52
430.338	3.53
430.695	3.54
431.051	3.52
431.407	3.51
431.764	3.49
432.12	3.47
432.476	3.46
432.832	3.46
433.189	3.48
433.545	3.46
433.901	3.47
434.257	3.45
434.613	3.46
434.969	3.44
435.325	3.44
435.681	3.43
436.036	3.42
436.392	3.41
436.748	3.38
437.104	3.39
437.459	3.38
437.815	3.37
438.171	3.35
438.526	3.36
438.882	3.36
439.237	3.36
439.593	3.38
439.948	3.38
440.304	3.39
440.659	3.37
441.014	3.37
441.369	3.36
441.725	3.37
442.08	3.37
442.435	3.36
442.79	3.37
443.145	3.38
443.5	3.38
443.855	3.35
444.21	3.36
444.565	3.37
444.92	3.37
445.275	3.34
445.629	3.34
445.984	3.33
446.339	3.31
446.693	3.29
447.048	3.28
447.403	3.26
447.757	3.26
448.112	3.24
448.466	3.23
448.82	3.22
449.175	3.21
449.529	3.2
449.883	3.17
450.238	3.15
450.592	3.13
450.946	3.11
451.3	3.1
451.654	3.09
452.008	3.08
452.362	3.05
452.716	3.05
453.07	3.06
453.424	3.07
453.778	3.07
454.132	3.08
454.486	3.08
454.839	3.09
455.193	3.07
455.547	3.07
455.9	3.08
456.254	3.1
456.607	3.11
456.961	3.1
457.314	3.12
457.668	3.14
458.021	3.13
458.375	3.14
458.728	3.15
459.081	3.16
459.434	3.16
459.787	3.19
460.141	3.19
460.494	3.19
460.847	3.19
461.2	3.21
461.553	3.22
461.906	3.23
462.259	3.26
462.611	3.27
462.964	3.29
463.317	3.3
463.67	3.3
464.022	3.28
464.375	3.26
464.728	3.27
465.08	3.26
465.433	3.26
465.785	3.27
466.138	3.29
466.49	3.3
466.843	3.29
467.195	3.28
467.547	3.3
467.899	3.31
468.252	3.32
468.604	3.31
468.956	3.29
469.308	3.28
469.66	3.27
470.012	3.29
470.364	3.29
470.716	3.32
471.068	3.3
471.42	3.35
471.772	3.39
472.123	3.41
472.475	3.43
472.827	3.46
473.178	3.45
473.53	3.46
473.882	3.43
474.233	3.45
474.585	3.43
474.936	3.43
475.288	3.4
475.639	3.4
475.99	3.41
476.342	3.44
476.693	3.45
477.044	3.46
477.395	3.45
477.746	3.45
478.097	3.42
478.448	3.45
478.8	3.43
479.15	3.41
479.501	3.4
479.852	3.4
480.203	3.41
480.554	3.42
480.905	3.41
481.255	3.42
481.606	3.41
481.957	3.43
482.307	3.42
482.658	3.42
483.009	3.42
483.359	3.41
483.709	3.41
484.06	3.41
484.41	3.4
484.761	3.4
485.111	3.4
485.461	3.4
485.811	3.39
486.162	3.39
486.512	3.4
486.862	3.4
487.212	3.39
487.562	3.39
487.912	3.38
488.262	3.39
488.612	3.39
488.961	3.39
489.311	3.39
489.661	3.4
490.011	3.39
490.36	3.4
490.71	3.4
491.06	3.41
491.409	3.42
491.759	3.42
492.108	3.42
492.458	3.43
492.807	3.43
493.157	3.44
493.506	3.47
493.855	3.47
494.204	3.49
494.554	3.5
494.903	3.51
495.252	3.52
495.601	3.54
495.95	3.57
496.299	3.58
496.648	3.59
496.997	3.6
497.346	3.65
497.695	3.68
498.043	3.71
498.392	3.71
498.741	3.75
499.09	3.77
499.438	3.81
499.787	3.85
500.135	3.9
500.484	3.94
500.832	3.98
501.181	4.02
501.529	4.05
501.878	4.1
502.226	4.16
502.574	4.21
502.923	4.25
503.271	4.28
503.619	4.36
503.967	4.43
504.315	4.51
504.663	4.56
505.011	4.63
505.359	4.7
505.707	4.76
506.055	4.83
506.403	4.92
506.751	4.98
507.098	5.07
507.446	5.13
507.794	5.22
508.141	5.28
508.489	5.37
508.837	5.47
509.184	5.55
509.531	5.61
509.879	5.71
510.226	5.81
510.574	5.9
510.921	5.99
511.268	6.07
511.616	6.17
511.963	6.26
512.31	6.35
512.657	6.44
513.004	6.58
513.351	6.68
513.698	6.78
514.045	6.93
514.392	7.02
514.739	7.14
515.086	7.28
515.432	7.4
515.779	7.51
516.126	7.63
516.473	7.76
516.819	7.91
517.166	8.03
517.512	8.12
517.859	8.25
518.205	8.38
518.552	8.47
518.898	8.57
519.245	8.67
519.591	8.8
519.937	8.91
520.283	9.01
520.629	9.14
520.976	9.27
521.322	9.38
521.668	9.53
522.014	9.67
522.36	9.82
522.706	9.99
523.052	10.14
523.398	10.31
523.743	10.48
524.089	10.64
524.435	10.79
524.781	10.97
525.126	11.1
525.472	11.24
525.817	11.39
526.163	11.51
526.509	11.63
526.854	11.74
527.199	11.84
527.545	11.93
527.89	12.02
528.235	12.11
528.581	12.2
528.926	12.29
529.271	12.38
529.616	12.45
529.961	12.54
530.306	12.66
530.651	12.76
530.996	12.89
531.341	12.99
531.686	13.11
532.031	13.22
532.376	13.34
532.721	13.46
533.065	13.58
533.41	13.71
533.755	13.83
534.099	13.94
534.444	14.08
534.788	14.23
535.133	14.38
535.477	14.52
535.822	14.67
536.166	14.86
536.51	15.05
536.855	15.27
537.199	15.44
537.543	15.62
537.887	15.82
538.231	15.99
538.576	16.22
538.92	16.41
539.264	16.59
539.608	16.76
539.951	16.93
540.295	17.12
540.639	17.31
540.983	17.48
541.327	17.67
541.671	17.83
542.014	17.99
542.358	18.15
542.701	18.34
543.045	18.52
543.389	18.66
543.732	18.83
544.075	18.97
544.419	19.15
544.762	19.34
545.105	19.56
545.449	19.77
545.792	19.98
546.135	20.22
546.478	20.48
546.821	20.79
547.165	21.05
547.508	21.3
547.851	21.55
548.194	21.81
548.536	22.07
548.879	22.38
549.222	22.67
549.565	22.96
549.908	23.24
550.25	23.54
550.593	23.84
550.936	24.15
551.278	24.51
551.621	24.83
551.963	25.12
552.306	25.37
552.648	25.64
552.991	25.96
553.333	26.2
553.675	26.45
554.017	26.69
554.36	26.98
554.702	27.26
555.044	27.52
555.386	27.79
555.728	28.06
556.07	28.3
556.412	28.58
556.754	28.83
557.096	29.13
557.438	29.44
557.78	29.73
558.121	29.98
558.463	30.26
558.805	30.53
559.147	30.83
559.488	31.14
559.83	31.46
560.171	31.7
560.513	32
560.854	32.29
561.196	32.58
561.537	32.86
561.878	33.14
562.22	33.47
562.561	33.78
562.902	34.02
563.243	34.28
563.584	34.57
563.925	34.89
564.266	35.18
564.607	35.43
564.948	35.76
565.289	36.02
565.63	36.28
565.971	36.59
566.312	36.87
566.653	37.12
566.993	37.35
567.334	37.62
567.675	37.89
568.015	38.18
568.356	38.39
568.696	38.63
569.037	38.86
569.377	39.12
569.718	39.38
570.058	39.67
570.398	39.96
570.739	40.21
571.079	40.47
571.419	40.69
571.759	40.93
572.099	41.09
572.439	41.35
572.779	41.56
573.119	41.74
573.459	41.92
573.799	42.14
574.139	42.39
574.479	42.6
574.819	42.76
575.158	42.93
575.498	43.18
575.838	43.4
576.177	43.61
576.517	43.77
576.856	43.95
577.196	44.15
577.535	44.39
577.875	44.55
578.214	44.71
578.553	44.95
578.893	45.13
579.232	45.39
579.571	45.57
579.91	45.78
580.25	46.06
580.589	46.33
580.928	46.52
581.267	46.67
581.606	46.76
581.945	46.97
582.283	47.16
582.622	47.36
582.961	47.59
583.3	47.79
583.639	48.01
583.977	48.16
584.316	48.33
584.654	48.44
584.993	48.68
585.332	48.87
585.67	48.97
586.008	49.13
586.347	49.19
586.685	49.34
587.024	49.53
587.362	49.57
587.7	49.68
588.038	49.92
588.376	50.06
588.715	50.38
589.053	50.6
589.391	50.8
589.729	51
590.067	51.07
590.404	51.19
590.742	51.34
591.08	51.58
591.418	51.73
591.756	51.89
592.093	52.02
592.431	52.15
592.769	52.31
593.106	52.45
593.444	52.58
593.781	52.74
594.119	52.81
594.456	52.96
594.793	53.05
595.131	53.11
595.468	53.21
595.805	53.28
596.143	53.38
596.48	53.49
596.817	53.54
597.154	53.61
597.491	53.72
597.828	53.81
598.165	53.85
598.502	53.94
598.839	54.02
599.176	54.1
599.512	54.28
599.849	54.32
600.186	54.52
600.523	54.62
600.859	54.76
601.196	54.9
601.532	55.08
601.869	55.18
602.205	55.23
602.542	55.32
602.878	55.37
603.215	55.41
603.551	55.36
603.887	55.45
604.223	55.56
604.56	55.67
604.896	55.68
605.232	55.71
605.568	55.77
605.904	55.8
606.24	55.89
606.576	55.84
606.912	55.96
607.248	55.92
607.583	55.96
607.919	56.04
608.255	56
608.591	55.99
608.926	56.04
609.262	56.14
609.597	56.22
609.933	56.3
610.268	56.33
610.604	56.44
610.939	56.49
611.275	56.52
611.61	56.52
611.945	56.64
612.281	56.72
612.616	56.76
612.951	56.88
613.286	56.94
613.621	56.97
613.956	56.93
614.291	56.96
614.626	57.09
614.961	57.06
615.296	57.2
615.631	57.22
615.966	57.25
616.3	57.24
616.635	57.35
616.97	57.27
617.304	57.32
617.639	57.33
617.973	57.31
618.308	57.31
618.642	57.42
618.977	57.45
619.311	57.49
619.646	57.5
619.98	57.44
620.314	57.39
620.648	57.45
620.983	57.57
621.317	57.74
621.651	57.73
621.985	57.79
622.319	57.85
622.653	57.94
622.987	58.11
623.321	58.22
623.655	58.13
623.988	58.24
624.322	58.35
624.656	58.33
624.99	58.33
625.323	58.35
625.657	58.34
625.99	58.34
626.324	58.37
626.657	58.45
626.991	58.57
627.324	58.6
627.658	58.71
627.991	58.71
628.324	58.76
628.657	58.75
628.991	58.83
629.324	58.9
629.657	59.02
629.99	58.89
630.323	58.86
630.656	58.97
630.989	59.05
631.322	58.97
631.655	59
631.987	59
632.32	59.13
632.653	59.14
632.986	59.16
633.318	59.16
633.651	59.18
633.984	59.04
634.316	59.02
634.649	58.98
634.981	58.96
635.313	58.8
635.646	58.92
635.978	58.87
636.31	58.8
636.643	58.76
636.975	58.89
637.307	58.86
637.639	58.81
637.971	58.81
638.303	58.83
638.635	58.9
638.967	58.96
639.299	59
639.631	59.07
639.963	59.05
640.295	59.11
640.626	59.18
640.958	59.37
641.29	59.4
641.621	59.4
641.953	59.46
642.285	59.57
642.616	59.53
642.948	59.56
643.279	59.5
643.61	59.57
643.942	59.55
644.273	59.52
644.604	59.44
644.936	59.4
645.267	59.54
645.598	59.51
645.929	59.55
646.26	59.5
646.591	59.49
646.922	59.48
647.253	59.37
647.584	59.35
647.915	59.3
648.245	59.39
648.576	59.47
648.907	59.51
649.238	59.59
649.568	59.72
649.899	59.62
650.229	59.78
650.56	59.72
650.89	59.8
651.221	59.91
651.551	59.98
651.882	60.02
652.212	59.97
652.542	60.12
652.872	60.11
653.203	60.16
653.533	60.24
653.863	60.28
654.193	60.43
654.523	60.31
654.853	60.37
655.183	60.38
655.513	60.22
655.843	60.18
656.172	60.19
656.502	60.05
656.832	60.31
657.162	60.31
657.491	60.32
657.821	60.24
658.15	60.24
658.48	60.23
658.809	60.23
659.139	60.23
659.468	60.12
659.798	60.07
660.127	60.03
660.456	60.04
660.785	60.03
661.115	60.02
661.444	60.1
661.773	60.11
662.102	60.1
662.431	60.29
662.76	60.31
663.089	60.21
663.418	60.24
663.747	60.09
664.076	60.01
664.404	59.9
664.733	59.89
665.062	59.73
665.39	59.89
665.719	59.82
666.048	59.83
666.376	59.9
666.705	60.07
667.033	60.18
667.362	60.1
667.69	60.06
668.018	60.02
668.347	60.01
668.675	59.95
669.003	60.07
669.331	60.07
669.659	60.06
669.987	60.09
670.315	60.14
670.643	60.08
670.971	60.11
671.299	60.15
671.627	60.2
671.955	60.49
672.283	60.4
672.61	60.53
672.938	60.59
673.266	60.7
673.593	60.73
673.921	60.54
674.249	60.54
674.576	60.69
674.904	60.69
675.231	60.73
675.558	60.74
675.886	60.67
676.213	60.72
676.54	60.75
676.867	60.81
677.195	60.76
677.522	60.93
677.849	60.85
678.176	60.98
678.503	60.81
678.83	60.71
679.157	60.83
679.484	60.7
679.81	60.67
680.137	60.52
680.464	60.39
680.791	60.56
681.117	60.61
681.444	60.53
681.771	60.57
682.097	60.54
682.424	60.59
682.75	60.49
683.077	60.4
683.403	60.4
683.729	60.45
684.056	60.51
684.382	60.49
684.708	60.49
685.034	60.31
685.36	60.44
685.686	60.4
686.012	60.3
686.339	60.39
686.664	60.34
686.99	60.33
687.316	60.46
687.642	60.4
687.968	60.38
688.294	60.49
688.619	60.38
688.945	60.42
689.271	60.38
689.596	60.52
689.922	60.57
690.247	60.56
690.573	60.43
690.898	60.17
691.224	60.26
691.549	60.36
691.874	60.45
692.2	60.5
692.525	60.39
692.85	60.35
693.175	60.36
693.5	60.34
693.825	60.41
694.15	60.4
694.475	60.24
694.8	60.24
695.125	60.29
695.45	60.34
695.775	60.35
696.099	60.42
696.424	60.49
696.749	60.48
697.073	60.62
697.398	60.68
697.723	60.92
698.047	60.6
698.372	60.63
698.696	60.62
699.02	60.71
699.345	60.81
699.669	60.9
699.993	60.98
700.318	61.12
700.642	61.13
700.966	61.07
701.29	61.13
701.614	61.19
701.938	61.23
702.262	61.19
702.586	61.23
702.91	61.15
703.234	61.13
703.557	61.29
703.881	61.14
704.205	61.3
704.529	61.22
704.852	61.53
705.176	61.54
705.499	61.65
705.823	61.61
706.146	61.48
706.47	61.56
706.793	61.41
707.117	61.37
707.44	61.38
707.763	61.42
708.086	61.54
708.409	61.41
708.733	61.29
709.056	61.41
709.379	61.33
709.702	61.54
710.025	61.5
710.348	61.36
710.671	61.54
710.993	61.44
711.316	61.34
711.639	61.32
711.962	61.31
712.284	61.31
712.607	61.28
712.93	61.59
713.252	61.51
713.575	61.39
713.897	61.36
714.22	61.47
714.542	61.51
714.864	61.42
715.187	61.65
715.509	61.77
715.831	62.09
716.153	62.19
716.475	62.03
716.798	62.15
717.12	62.14
717.442	62.05
717.764	61.9
718.085	62.14
718.407	62.16
718.729	62.04
719.051	62.04
719.373	62.09
719.695	62.08
720.016	62.19
720.338	62.41
720.659	62.27
720.981	62.19
721.302	62.09
721.624	62.01
721.945	62.03
722.267	61.73
722.588	61.31
722.909	61.25
723.231	61.28
723.552	61.09
723.873	61.19
724.194	61.24
724.515	61.19
724.836	60.99
725.157	61.15
725.478	61.51
725.799	61.34
726.12	61.24
726.441	61.06
726.762	60.88
727.083	60.8
727.403	60.68
727.724	60.51
728.045	60.33
728.365	60.33
728.686	60.18
729.006	60.28
729.327	60.41
729.647	60.53
729.967	60.52
730.288	60.48
730.608	60.45
730.928	60.35
731.249	60.42
731.569	60.41
731.889	60.22
732.209	60.16
732.529	60.34
732.849	60.34
733.169	60.28
733.489	60.11
733.809	59.95
734.129	59.99
734.448	60.28
734.768	60.68
735.088	61.03
735.408	60.96
735.727	60.97
736.047	60.85
736.366	60.72
736.686	60.85
737.005	61.09
737.325	61.17
737.644	61.22
737.963	61.23
738.283	61.51
738.602	61.8
738.921	61.68
739.24	61.42
739.56	61.48
739.879	61.64
740.198	61.76
740.517	61.99
740.836	62.02
741.155	61.7
741.473	61.71
741.792	61.39
742.111	61.63
742.43	61.73
742.748	61.79
743.067	61.58
743.386	61.73
743.704	61.6
744.023	61.3
744.341	60.99
744.66	60.92
744.978	60.84
745.297	60.55
745.615	60.67
745.933	60.86
746.252	60.77
746.57	61.03
746.888	61.28
747.206	61.39
747.524	61.66
747.842	61.75
748.16	61.61
748.478	61.52
748.796	61.53
749.114	61.62
749.432	61.58
749.749	61.71
750.067	61.31
750.385	61.09
750.703	61.18
751.02	61.37
751.338	61.48
751.655	61.36
751.973	61.43
752.29	61.11
752.608	60.99
752.925	61.34
753.242	61.12
753.56	60.85
753.877	60.62
754.194	60.59
754.511	60.93
754.828	60.82
755.145	61.08
755.462	60.98
755.779	60.89
756.096	61.03
756.413	61.35
756.73	61.38
757.047	61.81
757.364	61.92
757.68	62.04
757.997	62.02
758.314	62.43
758.63	62.47
758.947	62.55
759.264	62.66
759.58	62.25
759.896	61.89
760.213	62.02
760.529	61.98
760.846	62.04
761.162	61.69
761.478	61.69
761.794	61.51
762.11	61.54
762.426	61.5
762.743	61.38
763.059	61.21
763.375	61.43
763.69	61.22
764.006	61.22
764.322	61.35
764.638	61.51
764.954	61.18
765.27	61.16
765.585	61.3
765.901	61.46
766.216	61.42
766.532	61.73
766.848	61.59
767.163	61.49
767.478	61.55
767.794	61.89
768.109	62.18
768.424	62.43
768.74	62.46
769.055	62.78
769.37	62.75
769.685	62.91
770	62.74
770.315	63.28
770.63	63.18
770.945	62.94
771.26	62.81
771.575	62.93
771.89	62.75
772.205	62.62
772.52	62.24
772.834	62.6
773.149	62.36
773.464	62.31
773.778	62.88
774.093	62.68
774.407	62.51
774.722	62
775.036	61.66
775.351	61.3
775.665	61.11
775.979	61.13
776.293	61.21
776.608	61.01
776.922	60.52
777.236	60.89
777.55	60.9
777.864	61.17
778.178	61.55
778.492	62.18
778.806	62.17
779.12	62.55
779.434	62.25
779.747	62.33
780.061	62.44
780.375	62.11
780.689	62.03
781.002	62.15
781.316	62.48
781.629	63.13
781.943	62.99
782.256	62.99
782.57	63.12
782.883	62.9
783.196	63.26
783.51	62.85
783.823	62.36
784.136	62.72
784.449	62.26
784.762	62
785.075	61.74
785.388	61.65
785.701	61.6
786.014	61.42
786.327	61.33
786.64	61.46
786.953	61.38
787.266	60.99
787.578	60.96
787.891	60.72
788.204	60.34
788.516	60.71
788.829	60.45
789.141	60.13
789.454	60.11
789.766	60.22
790.079	60.76
790.391	60.74
790.703	60.82
791.016	61.15
791.328	60.78
791.64	60.73
791.952	61.28
792.264	61.05
792.576	61.29
792.888	61.2
793.2	62.26
793.512	62.15
793.824	62.3
794.136	61.72
794.448	61.92
794.76	61.9
795.071	61.55
795.383	61.51
795.695	62.23
796.006	62.03
796.318	61.37
796.629	60.96
796.941	61.31
797.252	60.92
797.564	61.47
797.875	61.33
798.186	60.72
798.497	59.92
798.809	60.44
799.12	60.53
799.431	60.99
799.742	60.69
800.053	61.14
800.364	61.59
800.675	61.72
800.986	61.32
801.297	60.89
801.608	61.57
801.918	61.78
802.229	61.64
802.54	61.95
802.851	62.61
803.161	62.41
803.472	62.22
803.782	62.58
804.093	62.44
804.403	63.31
804.714	63.64
805.024	64.21
805.334	63.78
805.645	63.79
805.955	63.74
806.265	62.63
806.575	62.77
806.885	62.43
807.195	62.72
807.505	63.34
807.815	64.5
808.125	63.87
808.435	64.25
808.745	63.91
809.055	64.6
809.365	64.45
809.674	64.99
809.984	65.8
810.294	65.55
810.603	64.49
810.913	63.98
811.222	64.57
811.532	64.76
811.841	65.14
812.151	64.97
812.46	65.37
812.769	65.86
813.079	66.26
813.388	66.85
813.697	66.62
814.006	66.75
814.315	65.91
814.624	65.54
814.933	65.47
815.242	65.64
815.551	65.09
815.86	64.92
816.169	65.07
816.478	64.46
816.786	65.01
817.095	65.71
817.404	66.37
817.712	65.16
818.021	65.22
818.33	64.92
818.638	64.67
818.947	64.28
819.255	64.01
819.563	62.99
819.872	62.69
820.18	62.61
820.488	62.65
820.796	62.45
821.105	62.52
821.413	62.35
821.721	62.41
822.029	62.34
822.337	62.37
822.645	62.55
822.953	62.55
823.26	62.03
823.568	61.89
823.876	61.84
824.184	61.96
824.491	61.88
824.799	62.02
825.107	62.06
825.414	61.93
825.722	61.76
826.029	61.95
826.337	62.17
826.644	62.26
826.951	61.99
827.259	62.17
827.566	62.24
827.873	62.25
828.18	62.44
828.488	62.39
828.795	62.45
829.102	62.24
829.409	62.37
829.716	63.17
830.023	63.48
830.329	63.17
830.636	63.12
830.943	62.92
831.25	62.52
831.557	62.31
831.863	62.93
832.17	63.33
832.476	63.34
832.783	62.87
833.089	62.81
833.396	63.16
833.702	63.23
834.009	63.24
834.315	63.35
834.621	62.53
834.928	62.79
835.234	62.44
835.54	62.36
835.846	62.04
836.152	61.52
836.458	61.25
836.764	61.43
837.07	61.68
837.376	62.21
837.682	62.16
837.988	61.95
838.293	61.69
838.599	61.61
838.905	61.17
839.211	61.33
839.516	61.84
839.822	62.1
840.127	62.21
840.433	62.95
840.738	62.73
841.044	63.08
841.349	62.37
841.654	63.33
841.959	63.73
842.265	64.34
842.57	66.39
842.875	66.29
843.18	66.35
843.485	65.77
843.79	64.99
844.095	65.07
844.4	66.39
844.705	65.72
845.01	66.4
845.315	67.86
845.619	67.29
845.924	66.07
846.229	65.54
846.533	65.3
846.838	64.25
847.142	65.1
847.447	65.95
847.751	65.69
848.056	64.95
848.36	63.89
848.664	63.34
848.969	61.54
849.273	62.62
849.577	64.51
849.881	65.49
850.185	66.28
850.489	67.11
850.794	66.06
851.097	66.14
851.401	64.4
851.705	65.59
852.009	66.69
852.313	65.73
852.617	66.33
852.92	67.83
853.224	67.45
853.528	67.59
853.831	66.22
854.135	66.46
854.438	68.73
854.742	69.85
855.045	68.87
855.349	68.98
855.652	68.07
855.955	67.17
856.259	64.93
856.562	64.52
856.865	63.73
857.168	65.46
857.471	66.16
857.774	68.9
858.077	66.73
858.38	65.9
858.683	66.51
858.986	65.69
859.289	63.97
859.592	64.63
859.894	65.61
860.197	66.76
860.5	68.18
860.802	67.16
861.105	66.33
861.407	68.54
861.71	67.41
862.012	69.62
862.315	70.1
862.617	71.69
862.919	71.26
863.222	73.68
863.524	74.22
863.826	74.29
864.128	74.48
864.43	75.47
864.732	76.77
865.034	77.56
865.336	80.4
865.638	80.26
865.94	80.44
866.242	79.65
866.544	78.43
866.846	78.18
867.147	77.29
867.449	78.14
867.751	77.01
868.052	79.76
868.354	78.04
868.655	80.58
868.957	82.68
869.258	82.36
869.56	81.21
869.861	77.73
870.162	77.89
870.463	77.71
870.765	77.97
871.066	76.53
871.367	76.93
871.668	75.15
871.969	77.22
872.27	78.32
872.571	75.76
872.872	74.77
873.173	73.45
873.473	73.22
873.774	72.72
874.075	73.41
874.376	73.26
874.676	73.02
874.977	67.59
875.277	66.67
875.578	65.11
875.878	64.19
876.179	65.97
876.479	65.43
876.78	63.31
877.08	62.08
877.38	62.58
877.68	62.67
877.981	60.99
878.281	58.6
878.581	56.87
