Data from BU58002_Reflection_00001.txt Node
Date: Tue Nov 19 10:57:33 EST 2019
User: vgr7
Spectrometer: USB2G7710
Scans to average: 3
Trigger mode: 4
Integration Time (sec): 2.000000E-2
Electric dark correction enabled: true
Boxcar width: 10
XAxis mode: Wavelengths
Number of Pixels in Spectrum: 2048
>>>>>Begin Spectral Data<<<<<
177.721	141.1
178.105	94.49
178.488	79.97
178.871	256.82
179.254	88.46
179.636	31.27
180.019	69.85
180.402	91.67
180.785	-106.25
181.168	-76.47
181.55	85.58
181.933	37.85
182.316	28.97
182.698	-12.15
183.081	-37.47
183.463	-47.64
183.846	-28.76
184.228	-109.02
184.611	-321.35
184.993	-322.73
185.376	-164.71
185.758	-831.03
186.14	250
186.522	227.12
186.904	-530
187.287	-413.16
187.669	170.59
188.051	44.7
188.433	-41.51
188.815	-382.14
189.197	-83.45
189.579	7.79
189.961	-12.7
190.342	-27.7
190.724	-36.67
191.106	-44.6
191.488	-37.73
191.869	-51.69
192.251	-45.44
192.633	-27.73
193.014	-25.27
193.396	-6.93
193.777	15.38
194.159	4.56
194.54	0.4
194.922	2.21
195.303	14.29
195.684	13.28
196.065	13.57
196.447	10.45
196.828	25.8
197.209	25.07
197.59	12.54
197.971	14.97
198.352	26.3
198.733	30.3
199.114	23.68
199.495	16.03
199.876	28.41
200.257	0.4
200.638	-9.56
201.018	-26.9
201.399	-39.02
201.78	-36.91
202.16	-41.48
202.541	-56.61
202.922	-65.98
203.302	-78.71
203.683	-85.79
204.063	-61.92
204.444	-62.3
204.824	-70.34
205.204	-66.95
205.585	-65.64
205.965	-76.47
206.345	-70.49
206.725	-56.29
207.106	-41.91
207.486	-34.8
207.866	-22.75
208.246	-4.34
208.626	-19.54
209.006	-6.51
209.386	-13.6
209.766	-28.19
210.145	-24.03
210.525	-9.62
210.905	2.86
211.285	15.09
211.664	23.69
212.044	22.87
212.424	10.7
212.803	17.35
213.183	14.83
213.562	27.21
213.942	32.31
214.321	18.12
214.701	13.74
215.08	12.25
215.459	15.84
215.838	17.7
216.218	1.56
216.597	7.94
216.976	-6.24
217.355	-4.88
217.734	7.27
218.113	23.28
218.492	9.21
218.871	11.5
219.25	5.72
219.629	-23.97
220.008	-14.85
220.387	-7.93
220.766	-13.43
221.144	-8.45
221.523	-21.85
221.902	-27.78
222.28	-11.57
222.659	-5.83
223.037	-2.43
223.416	-4.06
223.794	-4.88
224.173	-1.49
224.551	-5.32
224.929	-4.96
225.308	-2.97
225.686	-8.94
226.064	-13.96
226.442	-8.34
226.821	-7.97
227.199	-8.23
227.577	-8.4
227.955	-7
228.333	-3.58
228.711	-4.03
229.089	-2.62
229.467	-4.73
229.845	-4.4
230.222	-3.89
230.6	-5.6
230.978	-7.53
231.356	-7.27
231.733	-7.91
232.111	-5.69
232.488	-3.67
232.866	-2.75
233.243	-2.9
233.621	-1.36
233.998	-1.79
234.376	-2.6
234.753	-4.74
235.13	-4.95
235.508	-2.63
235.885	-3.65
236.262	-3.87
236.639	-4.5
237.016	-4.27
237.393	-3.36
237.77	-1.99
238.147	-0.64
238.524	0.56
238.901	0.74
239.278	0.09
239.655	1.02
240.032	1.37
240.409	2.09
240.785	2.13
241.162	2.57
241.539	2.73
241.915	2.9
242.292	2.92
242.668	3.56
243.045	3.6
243.421	3.49
243.798	3.71
244.174	3.93
244.551	4.45
244.927	4.36
245.303	4.57
245.679	4.3
246.056	3.95
246.432	3.69
246.808	3.86
247.184	4.11
247.56	3.72
247.936	3.54
248.312	3.52
248.688	3.29
249.064	3.12
249.44	3.14
249.815	3.24
250.191	3.36
250.567	3.17
250.943	3.3
251.318	3.37
251.694	3.32
252.069	3.06
252.445	2.77
252.82	2.8
253.196	2.53
253.571	2.9
253.947	2.85
254.322	3.17
254.697	2.92
255.073	2.64
255.448	3.06
255.823	2.83
256.198	3.03
256.573	3.32
256.948	3.46
257.323	3.37
257.698	3.45
258.073	3.32
258.448	3.56
258.823	3.42
259.198	3.18
259.573	2.87
259.948	2.89
260.322	2.79
260.697	2.85
261.072	2.78
261.446	2.49
261.821	2.49
262.195	2.55
262.57	2.73
262.944	2.86
263.319	2.81
263.693	2.87
264.067	2.65
264.442	2.62
264.816	2.39
265.19	2.41
265.564	2.23
265.938	2.21
266.313	1.97
266.687	1.95
267.061	2
267.435	2.34
267.809	2.42
268.183	2.65
268.556	2.62
268.93	2.92
269.304	3.04
269.678	3.2
270.051	2.94
270.425	3.05
270.799	2.83
271.172	2.87
271.546	2.96
271.919	3.1
272.293	3.15
272.666	3.38
273.04	3.55
273.413	3.59
273.787	3.74
274.16	3.8
274.533	3.82
274.906	4.02
275.279	4.05
275.653	4.11
276.026	4.03
276.399	3.84
276.772	3.71
277.145	3.88
277.518	3.78
277.891	3.94
278.263	3.9
278.636	4.2
279.009	4.22
279.382	4.25
279.755	4.23
280.127	4.27
280.5	4.14
280.872	4.15
281.245	4.2
281.617	4.09
281.99	4.01
282.362	3.97
282.735	3.87
283.107	3.82
283.479	3.82
283.852	3.78
284.224	3.85
284.596	3.69
284.968	3.55
285.34	3.59
285.713	3.57
286.085	3.49
286.457	3.39
286.829	3.23
287.201	3.25
287.572	3.22
287.944	3.29
288.316	3.29
288.688	3.16
289.06	3.11
289.431	3.09
289.803	3.14
290.175	3.19
290.546	3.23
290.918	3.16
291.289	3.04
291.661	3.1
292.032	3.17
292.403	3.33
292.775	3.46
293.146	3.54
293.517	3.51
293.889	3.55
294.26	3.65
294.631	3.75
295.002	3.82
295.373	3.73
295.744	3.63
296.115	3.72
296.486	3.69
296.857	3.67
297.228	3.64
297.599	3.62
297.97	3.69
298.34	3.75
298.711	3.84
299.082	3.9
299.452	4
299.823	4.02
300.194	4.03
300.564	3.82
300.935	3.78
301.305	3.75
301.676	3.69
302.046	3.66
302.416	3.57
302.787	3.51
303.157	3.56
303.527	3.49
303.897	3.49
304.267	3.47
304.637	3.49
305.008	3.51
305.378	3.66
305.748	3.58
306.117	3.52
306.487	3.5
306.857	3.48
307.227	3.42
307.597	3.38
307.967	3.3
308.336	3.52
308.706	3.61
309.076	3.76
309.445	3.77
309.815	3.76
310.184	3.85
310.554	3.8
310.923	3.8
311.293	3.86
311.662	3.82
312.031	3.91
312.401	3.9
312.77	3.94
313.139	3.78
313.508	3.66
313.877	3.58
314.246	3.55
314.616	3.63
314.985	3.63
315.353	3.66
315.722	3.67
316.091	3.6
316.46	3.36
316.829	3.22
317.198	3.29
317.567	3.36
317.935	3.28
318.304	3.37
318.672	3.41
319.041	3.5
319.41	3.42
319.778	3.35
320.147	3.32
320.515	3.3
320.883	3.26
321.252	3.62
321.62	3.69
321.988	3.65
322.357	3.59
322.725	3.5
323.093	3.42
323.461	3.54
323.829	3.53
324.197	3.7
324.565	3.82
324.933	3.83
325.301	3.77
325.669	3.78
326.037	3.77
326.405	3.82
326.772	3.8
327.14	3.81
327.508	3.93
327.875	3.96
328.243	4
328.61	4.21
328.978	4.03
329.346	4
329.713	4.2
330.08	4.26
330.448	4.27
330.815	4.23
331.182	4.15
331.55	4.13
331.917	4.03
332.284	3.86
332.651	3.83
333.018	3.88
333.385	3.96
333.752	3.79
334.119	3.71
334.486	3.62
334.853	3.6
335.22	3.53
335.587	3.59
335.954	3.57
336.32	3.38
336.687	3.42
337.054	3.5
337.42	3.34
337.787	3.23
338.153	3.32
338.52	3.45
338.886	3.51
339.253	3.52
339.619	3.64
339.986	3.63
340.352	3.61
340.718	3.57
341.084	3.57
341.451	3.64
341.817	3.68
342.183	3.73
342.549	3.82
342.915	3.76
343.281	3.6
343.647	3.64
344.013	3.68
344.379	3.65
344.745	3.66
345.11	3.69
345.476	3.77
345.842	3.64
346.208	3.59
346.573	3.58
346.939	3.57
347.304	3.52
347.67	3.58
348.035	3.58
348.401	3.55
348.766	3.52
349.132	3.46
349.497	3.47
349.862	3.43
350.228	3.42
350.593	3.42
350.958	3.59
351.323	3.46
351.688	3.47
352.053	3.48
352.418	3.4
352.783	3.49
353.148	3.4
353.513	3.45
353.878	3.44
354.243	3.36
354.608	3.35
354.972	3.38
355.337	3.49
355.702	3.44
356.066	3.49
356.431	3.5
356.795	3.59
357.16	3.54
357.524	3.55
357.889	3.54
358.253	3.57
358.618	3.53
358.982	3.62
359.346	3.68
359.71	3.67
360.075	3.6
360.439	3.58
360.803	3.63
361.167	3.59
361.531	3.66
361.895	3.75
362.259	3.82
362.623	3.86
362.987	3.79
363.351	3.81
363.714	3.75
364.078	3.73
364.442	3.71
364.806	3.71
365.169	3.72
365.533	3.74
365.896	3.79
366.26	3.77
366.623	3.73
366.987	3.68
367.35	3.69
367.714	3.78
368.077	3.74
368.44	3.75
368.803	3.81
369.167	3.74
369.53	3.68
369.893	3.67
370.256	3.58
370.619	3.58
370.982	3.5
371.345	3.55
371.708	3.58
372.071	3.57
372.434	3.57
372.797	3.62
373.159	3.6
373.522	3.56
373.885	3.59
374.247	3.62
374.61	3.64
374.973	3.63
375.335	3.61
375.698	3.65
376.06	3.62
376.423	3.57
376.785	3.59
377.147	3.61
377.51	3.55
377.872	3.6
378.234	3.62
378.596	3.66
378.958	3.66
379.321	3.62
379.683	3.64
380.045	3.61
380.407	3.54
380.769	3.56
381.13	3.52
381.492	3.49
381.854	3.46
382.216	3.49
382.578	3.49
382.939	3.52
383.301	3.47
383.663	3.51
384.024	3.52
384.386	3.51
384.747	3.49
385.109	3.53
385.47	3.51
385.832	3.47
386.193	3.48
386.554	3.46
386.916	3.47
387.277	3.45
387.638	3.47
387.999	3.51
388.36	3.48
388.721	3.54
389.082	3.59
389.443	3.59
389.804	3.57
390.165	3.58
390.526	3.58
390.887	3.59
391.248	3.56
391.609	3.55
391.969	3.58
392.33	3.59
392.691	3.58
393.051	3.54
393.412	3.53
393.772	3.54
394.133	3.55
394.493	3.53
394.854	3.53
395.214	3.55
395.574	3.53
395.935	3.51
396.295	3.48
396.655	3.43
397.015	3.41
397.376	3.42
397.736	3.44
398.096	3.44
398.456	3.43
398.816	3.46
399.176	3.44
399.535	3.41
399.895	3.41
400.255	3.42
400.615	3.44
400.975	3.5
401.334	3.51
401.694	3.53
402.054	3.54
402.413	3.52
402.773	3.51
403.132	3.52
403.492	3.53
403.851	3.52
404.211	3.54
404.57	3.59
404.929	3.59
405.288	3.56
405.648	3.55
406.007	3.54
406.366	3.51
406.725	3.55
407.084	3.56
407.443	3.57
407.802	3.57
408.161	3.57
408.52	3.56
408.879	3.55
409.238	3.55
409.596	3.57
409.955	3.54
410.314	3.54
410.673	3.53
411.031	3.49
411.39	3.5
411.748	3.5
412.107	3.46
412.465	3.44
412.824	3.43
413.182	3.42
413.54	3.46
413.899	3.47
414.257	3.47
414.615	3.45
414.974	3.44
415.332	3.42
415.69	3.41
416.048	3.42
416.406	3.39
416.764	3.39
417.122	3.37
417.48	3.39
417.838	3.4
418.195	3.42
418.553	3.41
418.911	3.43
419.269	3.44
419.626	3.45
419.984	3.46
420.342	3.47
420.699	3.47
421.057	3.45
421.414	3.45
421.772	3.44
422.129	3.44
422.486	3.43
422.844	3.43
423.201	3.43
423.558	3.42
423.915	3.44
424.273	3.44
424.63	3.44
424.987	3.44
425.344	3.43
425.701	3.42
426.058	3.44
426.415	3.42
426.772	3.4
427.128	3.4
427.485	3.37
427.842	3.36
428.199	3.35
428.555	3.37
428.912	3.39
429.269	3.36
429.625	3.37
429.982	3.37
430.338	3.37
430.695	3.37
431.051	3.37
431.407	3.37
431.764	3.35
432.12	3.37
432.476	3.37
432.832	3.35
433.189	3.36
433.545	3.36
433.901	3.36
434.257	3.37
434.613	3.36
434.969	3.37
435.325	3.38
435.681	3.36
436.036	3.34
436.392	3.31
436.748	3.34
437.104	3.33
437.459	3.33
437.815	3.34
438.171	3.36
438.526	3.36
438.882	3.35
439.237	3.36
439.593	3.34
439.948	3.34
440.304	3.35
440.659	3.37
441.014	3.37
441.369	3.38
441.725	3.37
442.08	3.37
442.435	3.39
442.79	3.38
443.145	3.39
443.5	3.4
443.855	3.39
444.21	3.37
444.565	3.36
444.92	3.36
445.275	3.35
445.629	3.34
445.984	3.34
446.339	3.34
446.693	3.33
447.048	3.33
447.403	3.32
447.757	3.31
448.112	3.3
448.466	3.3
448.82	3.3
449.175	3.3
449.529	3.29
449.883	3.26
450.238	3.27
450.592	3.26
450.946	3.26
451.3	3.29
451.654	3.3
452.008	3.29
452.362	3.3
452.716	3.29
453.07	3.29
453.424	3.3
453.778	3.29
454.132	3.28
454.486	3.29
454.839	3.3
455.193	3.32
455.547	3.3
455.9	3.3
456.254	3.27
456.607	3.28
456.961	3.31
457.314	3.31
457.668	3.3
458.021	3.29
458.375	3.29
458.728	3.26
459.081	3.26
459.434	3.26
459.787	3.26
460.141	3.27
460.494	3.28
460.847	3.26
461.2	3.28
461.553	3.3
461.906	3.3
462.259	3.29
462.611	3.27
462.964	3.28
463.317	3.26
463.67	3.29
464.022	3.31
464.375	3.29
464.728	3.29
465.08	3.3
465.433	3.32
465.785	3.33
466.138	3.34
466.49	3.35
466.843	3.38
467.195	3.38
467.547	3.35
467.899	3.36
468.252	3.36
468.604	3.36
468.956	3.35
469.308	3.35
469.66	3.35
470.012	3.37
470.364	3.37
470.716	3.39
471.068	3.39
471.42	3.36
471.772	3.36
472.123	3.36
472.475	3.38
472.827	3.37
473.178	3.36
473.53	3.36
473.882	3.37
474.233	3.37
474.585	3.36
474.936	3.38
475.288	3.37
475.639	3.38
475.99	3.38
476.342	3.37
476.693	3.39
477.044	3.38
477.395	3.37
477.746	3.37
478.097	3.39
478.448	3.38
478.8	3.42
479.15	3.42
479.501	3.42
479.852	3.41
480.203	3.42
480.554	3.42
480.905	3.43
481.255	3.41
481.606	3.43
481.957	3.45
482.307	3.47
482.658	3.48
483.009	3.49
483.359	3.49
483.709	3.5
484.06	3.5
484.41	3.51
484.761	3.52
485.111	3.53
485.461	3.52
485.811	3.52
486.162	3.51
486.512	3.51
486.862	3.52
487.212	3.52
487.562	3.51
487.912	3.53
488.262	3.52
488.612	3.54
488.961	3.53
489.311	3.51
489.661	3.5
490.011	3.49
490.36	3.48
490.71	3.48
491.06	3.49
491.409	3.48
491.759	3.48
492.108	3.46
492.458	3.46
492.807	3.47
493.157	3.48
493.506	3.48
493.855	3.48
494.204	3.47
494.554	3.47
494.903	3.47
495.252	3.47
495.601	3.49
495.95	3.48
496.299	3.48
496.648	3.49
496.997	3.5
497.346	3.5
497.695	3.51
498.043	3.52
498.392	3.51
498.741	3.5
499.09	3.52
499.438	3.54
499.787	3.53
500.135	3.52
500.484	3.53
500.832	3.53
501.181	3.54
501.529	3.54
501.878	3.55
502.226	3.57
502.574	3.56
502.923	3.54
503.271	3.54
503.619	3.55
503.967	3.53
504.315	3.54
504.663	3.52
505.011	3.53
505.359	3.5
505.707	3.5
506.055	3.51
506.403	3.51
506.751	3.49
507.098	3.51
507.446	3.53
507.794	3.54
508.141	3.54
508.489	3.56
508.837	3.58
509.184	3.59
509.531	3.59
509.879	3.58
510.226	3.62
510.574	3.63
510.921	3.63
511.268	3.65
511.616	3.66
511.963	3.69
512.31	3.7
512.657	3.71
513.004	3.71
513.351	3.72
513.698	3.72
514.045	3.73
514.392	3.73
514.739	3.73
515.086	3.71
515.432	3.72
515.779	3.7
516.126	3.69
516.473	3.71
516.819	3.68
517.166	3.7
517.512	3.7
517.859	3.7
518.205	3.69
518.552	3.69
518.898	3.68
519.245	3.69
519.591	3.68
519.937	3.68
520.283	3.69
520.629	3.7
520.976	3.71
521.322	3.73
521.668	3.73
522.014	3.73
522.36	3.74
522.706	3.73
523.052	3.75
523.398	3.76
523.743	3.78
524.089	3.81
524.435	3.81
524.781	3.81
525.126	3.81
525.472	3.83
525.817	3.84
526.163	3.85
526.509	3.85
526.854	3.86
527.199	3.87
527.545	3.86
527.89	3.86
528.235	3.86
528.581	3.85
528.926	3.85
529.271	3.86
529.616	3.86
529.961	3.87
530.306	3.87
530.651	3.86
530.996	3.87
531.341	3.87
531.686	3.89
532.031	3.9
532.376	3.9
532.721	3.9
533.065	3.91
533.41	3.92
533.755	3.91
534.099	3.91
534.444	3.91
534.788	3.91
535.133	3.92
535.477	3.93
535.822	3.94
536.166	3.95
536.51	3.95
536.855	3.96
537.199	3.96
537.543	3.97
537.887	3.98
538.231	3.98
538.576	3.96
538.92	3.96
539.264	3.95
539.608	3.96
539.951	3.96
540.295	3.96
540.639	3.96
540.983	3.96
541.327	3.96
541.671	3.96
542.014	3.98
542.358	3.98
542.701	3.99
543.045	3.98
543.389	3.99
543.732	3.99
544.075	4.01
544.419	4.01
544.762	4.01
545.105	4.03
545.449	4.03
545.792	4.05
546.135	4.04
546.478	4.05
546.821	4.04
547.165	4.05
547.508	4.07
547.851	4.11
548.194	4.11
548.536	4.12
548.879	4.13
549.222	4.11
549.565	4.09
549.908	4.09
550.25	4.11
550.593	4.08
550.936	4.1
551.278	4.07
551.621	4.1
551.963	4.11
552.306	4.09
552.648	4.1
552.991	4.07
553.333	4.07
553.675	4.06
554.017	4.05
554.36	4.06
554.702	4.04
555.044	4.01
555.386	4.06
555.728	4.06
556.07	4.02
556.412	4
556.754	4
557.096	4
557.438	3.99
557.78	4.03
558.121	4.01
558.463	4
558.805	3.99
559.147	3.96
559.488	3.95
559.83	3.92
560.171	3.92
560.513	3.96
560.854	3.93
561.196	3.96
561.537	3.97
561.878	3.97
562.22	3.98
562.561	3.98
562.902	3.98
563.243	4.04
563.584	4.06
563.925	4.1
564.266	4.09
564.607	4.08
564.948	4.07
565.289	4.08
565.63	4.08
565.971	4.06
566.312	4.06
566.653	4.04
566.993	4.04
567.334	4.06
567.675	4.05
568.015	4.07
568.356	4.07
568.696	4.03
569.037	4.06
569.377	4.03
569.718	4.03
570.058	4.01
570.398	3.99
570.739	3.97
571.079	3.98
571.419	3.98
571.759	3.99
572.099	3.99
572.439	3.97
572.779	3.99
573.119	3.98
573.459	3.98
573.799	3.99
574.139	4.01
574.479	4.02
574.819	4.01
575.158	4
575.498	3.99
575.838	4.02
576.177	3.96
576.517	4
576.856	3.96
577.196	3.97
577.535	3.97
577.875	3.98
578.214	3.96
578.553	3.95
578.893	3.97
579.232	3.98
579.571	3.99
579.91	4.01
580.25	4.03
580.589	4.05
580.928	4.06
581.267	4.07
581.606	4.05
581.945	4.04
582.283	4.05
582.622	4.03
582.961	4.06
583.3	4.07
583.639	4.03
583.977	4.04
584.316	4.04
584.654	4.05
584.993	4.03
585.332	4.04
585.67	4.04
586.008	4.02
586.347	4.03
586.685	4.04
587.024	4.03
587.362	4.04
587.7	4.07
588.038	4.1
588.376	4.1
588.715	4.1
589.053	4.09
589.391	4.08
589.729	4.12
590.067	4.07
590.404	4.12
590.742	4.16
591.08	4.18
591.418	4.17
591.756	4.21
592.093	4.25
592.431	4.27
592.769	4.27
593.106	4.26
593.444	4.25
593.781	4.29
594.119	4.28
594.456	4.27
594.793	4.27
595.131	4.24
595.468	4.22
595.805	4.26
596.143	4.32
596.48	4.32
596.817	4.3
597.154	4.33
597.491	4.33
597.828	4.29
598.165	4.24
598.502	4.25
598.839	4.22
599.176	4.2
599.512	4.18
599.849	4.19
600.186	4.19
600.523	4.21
600.859	4.17
601.196	4.16
601.532	4.18
601.869	4.15
602.205	4.16
602.542	4.15
602.878	4.14
603.215	4.11
603.551	4.11
603.887	4.11
604.223	4.11
604.56	4.12
604.896	4.13
605.232	4.16
605.568	4.17
605.904	4.15
606.24	4.18
606.576	4.18
606.912	4.19
607.248	4.22
607.583	4.2
607.919	4.19
608.255	4.21
608.591	4.21
608.926	4.21
609.262	4.19
609.597	4.23
609.933	4.21
610.268	4.2
610.604	4.22
610.939	4.21
611.275	4.18
611.61	4.13
611.945	4.11
612.281	4.14
612.616	4.13
612.951	4.19
613.286	4.14
613.621	4.17
613.956	4.17
614.291	4.14
614.626	4.15
614.961	4.2
615.296	4.2
615.631	4.21
615.966	4.25
616.3	4.28
616.635	4.24
616.97	4.25
617.304	4.27
617.639	4.25
617.973	4.25
618.308	4.28
618.642	4.28
618.977	4.28
619.311	4.26
619.646	4.27
619.98	4.23
620.314	4.23
620.648	4.21
620.983	4.19
621.317	4.18
621.651	4.21
621.985	4.19
622.319	4.19
622.653	4.17
622.987	4.15
623.321	4.21
623.655	4.19
623.988	4.21
624.322	4.21
624.656	4.21
624.99	4.24
625.323	4.24
625.657	4.26
625.99	4.26
626.324	4.23
626.657	4.21
626.991	4.22
627.324	4.25
627.658	4.24
627.991	4.3
628.324	4.28
628.657	4.26
628.991	4.22
629.324	4.24
629.657	4.24
629.99	4.21
630.323	4.19
630.656	4.2
630.989	4.19
631.322	4.18
631.655	4.2
631.987	4.18
632.32	4.21
632.653	4.2
632.986	4.22
633.318	4.27
633.651	4.31
633.984	4.35
634.316	4.36
634.649	4.34
634.981	4.3
635.313	4.36
635.646	4.39
635.978	4.47
636.31	4.45
636.643	4.47
636.975	4.49
637.307	4.5
637.639	4.53
637.971	4.56
638.303	4.54
638.635	4.55
638.967	4.56
639.299	4.51
639.631	4.55
639.963	4.56
640.295	4.56
640.626	4.52
640.958	4.5
641.29	4.46
641.621	4.46
641.953	4.45
642.285	4.42
642.616	4.39
642.948	4.33
643.279	4.35
643.61	4.31
643.942	4.34
644.273	4.3
644.604	4.3
644.936	4.32
645.267	4.35
645.598	4.31
645.929	4.3
646.26	4.3
646.591	4.38
646.922	4.36
647.253	4.32
647.584	4.37
647.915	4.33
648.245	4.34
648.576	4.36
648.907	4.36
649.238	4.36
649.568	4.37
649.899	4.37
650.229	4.42
650.56	4.42
650.89	4.48
651.221	4.45
651.551	4.49
651.882	4.43
652.212	4.43
652.542	4.48
652.872	4.52
653.203	4.58
653.533	4.52
653.863	4.52
654.193	4.53
654.523	4.46
654.853	4.51
655.183	4.51
655.513	4.56
655.843	4.62
656.172	4.72
656.502	4.68
656.832	4.65
657.162	4.56
657.491	4.59
657.821	4.58
658.15	4.66
658.48	4.67
658.809	4.71
659.139	4.75
659.468	4.72
659.798	4.79
660.127	4.75
660.456	4.73
660.785	4.75
661.115	4.79
661.444	4.75
661.773	4.75
662.102	4.78
662.431	4.79
662.76	4.7
663.089	4.66
663.418	4.68
663.747	4.75
664.076	4.75
664.404	4.73
664.733	4.72
665.062	4.7
665.39	4.6
665.719	4.55
666.048	4.53
666.376	4.61
666.705	4.53
667.033	4.58
667.362	4.59
667.69	4.61
668.018	4.57
668.347	4.65
668.675	4.61
669.003	4.58
669.331	4.58
669.659	4.66
669.987	4.56
670.315	4.61
670.643	4.56
670.971	4.57
671.299	4.6
671.627	4.54
671.955	4.49
672.283	4.46
672.61	4.48
672.938	4.5
673.266	4.45
673.593	4.39
673.921	4.38
674.249	4.41
674.576	4.42
674.904	4.45
675.231	4.39
675.558	4.45
675.886	4.41
676.213	4.41
676.54	4.36
676.867	4.48
677.195	4.47
677.522	4.46
677.849	4.54
678.176	4.53
678.503	4.63
678.83	4.63
679.157	4.68
679.484	4.69
679.81	4.68
680.137	4.7
680.464	4.85
680.791	4.82
681.117	4.81
681.444	4.79
681.771	4.84
682.097	4.95
682.424	4.97
682.75	5.06
683.077	5.06
683.403	5.1
683.729	5.06
684.056	5.12
684.382	5.14
684.708	5.15
685.034	5.2
685.36	5.1
685.686	5.09
686.012	5.05
686.339	5.1
686.664	5.09
686.99	5.09
687.316	4.99
687.642	5.02
687.968	5.06
688.294	5.04
688.619	4.95
688.945	4.86
689.271	4.85
689.596	4.77
689.922	4.76
690.247	4.75
690.573	4.67
690.898	4.62
691.224	4.72
691.549	4.72
691.874	4.64
692.2	4.76
692.525	4.81
692.85	4.86
693.175	4.87
693.5	4.91
693.825	4.92
694.15	4.91
694.475	4.88
694.8	4.83
695.125	4.88
695.45	4.94
695.775	4.94
696.099	4.97
696.424	5.09
696.749	5.11
697.073	5.13
697.398	5.25
697.723	5.2
698.047	5.13
698.372	5.11
698.696	5.05
699.02	4.97
699.345	4.97
699.669	5.05
699.993	5
700.318	5.03
700.642	5
700.966	5.04
701.29	5.07
701.614	5.08
701.938	5.07
702.262	5.03
702.586	5.18
702.91	5.19
703.234	5
703.557	4.96
703.881	4.96
704.205	5.04
704.529	5.14
704.852	5.13
705.176	5.13
705.499	5.2
705.823	5.22
706.146	5.23
706.47	5.29
706.793	5.28
707.117	5.27
707.44	5.32
707.763	5.37
708.086	5.32
708.409	5.28
708.733	5.18
709.056	5.18
709.379	5.05
709.702	5.02
710.025	5.2
710.348	5.25
710.671	5.25
710.993	5.05
711.316	5.01
711.639	5.06
711.962	5.14
712.284	5.19
712.607	5.27
712.93	5.28
713.252	5.17
713.575	5.23
713.897	5.06
714.22	5
714.542	4.86
714.864	4.87
715.187	5
715.509	5.11
715.831	5.15
716.153	5.19
716.475	5.2
716.798	5.12
717.12	5.08
717.442	5.1
717.764	5.14
718.085	5.19
718.407	5.18
718.729	5.04
719.051	4.99
719.373	4.89
719.695	4.82
720.016	4.85
720.338	4.79
720.659	5.04
720.981	5
721.302	5.15
721.624	5.25
721.945	4.98
722.267	4.92
722.588	4.79
722.909	4.87
723.231	4.69
723.552	4.77
723.873	4.72
724.194	4.82
724.515	4.88
724.836	4.78
725.157	4.82
725.478	4.95
725.799	5
726.12	5.13
726.441	5.2
726.762	5.22
727.083	5.3
727.403	5.19
727.724	5.33
728.045	5.3
728.365	5.31
728.686	5.61
729.006	5.53
729.327	5.67
729.647	5.54
729.967	5.72
730.288	5.74
730.608	5.66
730.928	5.45
731.249	5.38
731.569	5.45
731.889	5.38
732.209	5.38
732.529	5.3
732.849	5.14
733.169	5.1
733.489	5.02
733.809	5.09
734.129	5.13
734.448	5.12
734.768	5.14
735.088	5.19
735.408	5.07
735.727	5.26
736.047	5.2
736.366	5.22
736.686	5.21
737.005	5.17
737.325	5.29
737.644	5.38
737.963	5.52
738.283	5.46
738.602	5.53
738.921	5.56
739.24	5.67
739.56	5.88
739.879	5.93
740.198	5.99
740.517	5.9
740.836	5.89
741.155	5.89
741.473	5.76
741.792	5.71
742.111	5.77
742.43	5.83
742.748	5.83
743.067	5.78
743.386	5.74
743.704	5.68
744.023	5.72
744.341	5.72
744.66	5.57
744.978	5.67
745.297	5.63
745.615	5.49
745.933	5.53
746.252	5.47
746.57	5.35
746.888	5.26
747.206	5.17
747.524	5.12
747.842	5
748.16	5.28
748.478	5.13
748.796	5.12
749.114	4.93
749.432	4.86
749.749	5.06
750.067	5.25
750.385	5.33
750.703	5.46
751.02	5.49
751.338	5.52
751.655	5.19
751.973	5.24
752.29	5.26
752.608	5.14
752.925	5.34
753.242	5.49
753.56	5.64
753.877	5.77
754.194	5.72
754.511	5.79
754.828	5.57
755.145	5.55
755.462	5.45
755.779	5.52
756.096	5.76
756.413	5.68
756.73	5.58
757.047	5.6
757.364	5.59
757.68	5.72
757.997	5.7
758.314	6.13
758.63	6.05
758.947	6.32
759.264	6.48
759.58	6.5
759.896	6.49
760.213	6.52
760.529	6.53
760.846	6.57
761.162	6.71
761.478	6.72
761.794	6.84
762.11	6.93
762.426	6.72
762.743	6.66
763.059	6.75
763.375	6.69
763.69	6.71
764.006	6.77
764.322	6.58
764.638	6.65
764.954	6.56
765.27	6.73
765.585	6.6
765.901	6.47
766.216	6.36
766.532	6.29
766.848	6.25
767.163	6.1
767.478	5.99
767.794	5.82
768.109	5.89
768.424	5.88
768.74	5.76
769.055	6.19
769.37	6.05
769.685	6.04
770	6.13
770.315	6.11
770.63	6.01
770.945	6.37
771.26	6.3
771.575	6.21
771.89	6.01
772.205	5.88
772.52	5.99
772.834	6
773.149	6.27
773.464	6.17
773.778	6.37
774.093	6.42
774.407	6.68
774.722	6.68
775.036	6.72
775.351	6.91
775.665	6.73
775.979	7.01
776.293	7.03
776.608	7.19
776.922	7.18
777.236	7.34
777.55	7
777.864	7.46
778.178	7.42
778.492	7.38
778.806	7.69
779.12	7.61
779.434	7.78
779.747	7.55
780.061	7.43
780.375	7.45
780.689	7.72
781.002	7.35
781.316	7.45
781.629	7.48
781.943	7.31
782.256	7.1
782.57	6.79
782.883	6.67
783.196	6.53
783.51	6.24
783.823	5.95
784.136	6.01
784.449	5.84
784.762	6.21
785.075	6.05
785.388	6.3
785.701	6.3
786.014	6.28
786.327	6.34
786.64	6.97
786.953	6.92
787.266	6.95
787.578	7.18
787.891	7.05
788.204	6.76
788.516	6.73
788.829	6.87
789.141	7.23
789.454	7.29
789.766	7.5
790.079	7.54
790.391	7.49
790.703	7.91
791.016	8
791.328	8.14
791.64	8.48
791.952	8.37
792.264	8.09
792.576	7.86
792.888	8.11
793.2	8.08
793.512	8.21
793.824	8.58
794.136	8.72
794.448	9.06
794.76	9.26
795.071	9.36
795.383	9.4
795.695	9.56
796.006	9.2
796.318	9.16
796.629	9.64
796.941	9.74
797.252	9.4
797.564	9.19
797.875	8.86
798.186	9.18
798.497	9.29
798.809	9.77
799.12	9.65
799.431	9.48
799.742	9.12
800.053	8.78
800.364	8.26
800.675	8.38
800.986	7.63
801.297	7.78
801.608	7.47
801.918	7.19
802.229	6.96
802.54	7.45
802.851	7.29
803.161	7.43
803.472	7.68
803.782	7.53
804.093	7.08
804.403	7.02
804.714	6.88
805.024	6.31
805.334	5.84
805.645	5.99
805.955	6.35
806.265	6.57
806.575	7.01
806.885	7.06
807.195	6.93
807.505	7.58
807.815	7.58
808.125	7.52
808.435	8.09
808.745	7.53
809.055	7.26
809.365	7.14
809.674	6.44
809.984	6.56
810.294	6.59
810.603	6.39
810.913	5.98
811.222	5.58
811.532	5.7
811.841	7.04
812.151	7.41
812.46	7.18
812.769	6.84
813.079	6.67
813.388	6.96
813.697	6.21
814.006	5.58
814.315	5.67
814.624	6.6
814.933	6.31
815.242	6.7
815.551	6.29
815.86	6.49
816.169	6.23
816.478	6.42
816.786	6.09
817.095	6.59
817.404	6.99
817.712	6.79
818.021	6.6
818.33	5.31
818.638	5.18
818.947	5.28
819.255	5.39
819.563	5.63
819.872	5.92
820.18	6.31
820.488	6.94
820.796	7.07
821.105	7.23
821.413	7.32
821.721	7.39
822.029	7.65
822.337	7.62
822.645	7.84
822.953	7.7
823.26	7.81
823.568	7.78
823.876	7.86
824.184	7.93
824.491	7.95
824.799	8.17
825.107	8.18
825.414	8.25
825.722	8.25
826.029	8.13
826.337	8.01
826.644	8.06
826.951	8.07
827.259	8.01
827.566	7.85
827.873	7.71
828.18	7.69
828.488	7.43
828.795	7.5
829.102	7.57
829.409	7.55
829.716	7.63
830.023	8.13
830.329	8.04
830.636	8.25
830.943	8.2
831.25	8.2
831.557	8.22
831.863	8.45
832.17	8.59
832.476	9.21
832.783	9.59
833.089	9.5
833.396	9.12
833.702	9.38
834.009	9.35
834.315	9.48
834.621	9.81
834.928	9.98
835.234	10.09
835.54	9.69
835.846	9.78
836.152	9.46
836.458	8.86
836.764	8.85
837.07	8.5
837.376	8.85
837.682	8.81
837.988	8.63
838.293	8.49
838.599	8.83
838.905	9.08
839.211	8.37
839.516	8.64
839.822	8.78
840.127	8.24
840.433	9.12
840.738	9.36
841.044	9.23
841.349	9.3
841.654	8.72
841.959	8.79
842.265	8.89
842.57	9.71
842.875	9.5
843.18	9.61
843.485	9.53
843.79	8.9
844.095	8.91
844.4	8.87
844.705	8.67
845.01	8.93
845.315	7.34
845.619	7.86
845.924	8.08
846.229	8.5
846.533	9.44
846.838	7.53
847.142	7.61
847.447	6.46
847.751	6.39
848.056	4.74
848.36	5.82
848.664	5.76
848.969	5.13
849.273	4.74
849.577	4.71
849.881	5.95
850.185	5.24
850.489	5.37
850.794	6.56
851.097	6.97
851.401	6.06
851.705	5.54
852.009	6
852.313	5.12
852.617	4.42
852.92	3.2
853.224	3.39
853.528	2.53
853.831	4.44
854.135	6.3
854.438	7.7
854.742	8.56
855.045	9.16
855.349	9.38
855.652	9.66
855.955	10.31
856.259	9.31
856.562	11.33
856.865	10.49
857.168	10.49
857.471	9.43
857.774	8.58
858.077	9.39
858.38	9.84
858.683	9.5
858.986	9.89
859.289	10.68
859.592	10.86
859.894	12.1
860.197	10.64
860.5	11.45
860.802	12.61
861.105	10.95
861.407	10.2
861.71	10.63
862.012	10.56
862.315	9.78
862.617	10.18
862.919	10.85
863.222	10.95
863.524	11.24
863.826	10.96
864.128	11.15
864.43	11.18
864.732	10.14
865.034	13.09
865.336	11.9
865.638	12.25
865.94	16.11
866.242	16.87
866.544	17.9
866.846	16.96
867.147	18.18
867.449	18.06
867.751	18.99
868.052	19.65
868.354	19.51
868.655	21.96
868.957	22.14
869.258	21.19
869.56	20.07
869.861	19.99
870.162	20.4
870.463	20.91
870.765	19.57
871.066	19.07
871.367	16.83
871.668	17.78
871.969	16.68
872.27	13.17
872.571	11.79
872.872	11.35
873.173	10.73
873.473	8.78
873.774	9.54
874.075	8.75
874.376	7.09
874.676	7.74
874.977	7.03
875.277	6.06
875.578	6.85
875.878	8.37
876.179	7.45
876.479	7.13
876.78	7.39
877.08	9.22
877.38	10.16
877.68	10.28
877.981	10.1
878.281	10.97
878.581	11.22
