Data from BU58138_Reflection_00007.txt Node
Date: Mon Nov 18 16:42:12 EST 2019
User: vgr7
Spectrometer: USB2G7710
Scans to average: 3
Trigger mode: 4
Integration Time (sec): 2.000000E-2
Electric dark correction enabled: true
Boxcar width: 10
XAxis mode: Wavelengths
Number of Pixels in Spectrum: 2048
>>>>>Begin Spectral Data<<<<<
177.721	-100900
178.105	1100
178.488	534.98
178.871	2225
179.254	-184.67
179.636	-11.55
180.019	-80.98
180.402	66.67
180.785	-46.3
181.168	30.94
181.55	-28.95
181.933	27.15
182.316	58.27
182.698	79.81
183.081	59.24
183.463	37.22
183.846	40.86
184.228	66.78
184.611	57.06
184.993	121.03
185.376	115.18
185.758	101.48
186.14	106.92
186.522	98.45
186.904	93.01
187.287	771.23
187.669	-362.37
188.051	594.51
188.433	91.15
188.815	3561.54
189.197	-475.76
189.579	-205.26
189.961	-237.54
190.342	-177.94
190.724	-26.3
191.106	-14.06
191.488	-18.74
191.869	-22.84
192.251	-23.26
192.633	-28.78
193.014	-44.79
193.396	-69.07
193.777	-69.55
194.159	-65.13
194.54	-62.42
194.922	-58.55
195.303	-59.34
195.684	-71.51
196.065	-41.88
196.447	-33.48
196.828	-25.27
197.209	-16.92
197.59	-28.02
197.971	-13.69
198.352	-15.67
198.733	-36.57
199.114	-40.14
199.495	-24.55
199.876	-16.53
200.257	-9.56
200.638	-4.91
201.018	2.27
201.399	2.1
201.78	-2.88
202.16	-22.43
202.541	-27.75
202.922	-60.96
203.302	-96.16
203.683	-80.07
204.063	-63.14
204.444	-50.14
204.824	-36.88
205.204	-30.04
205.585	-25.12
205.965	-22.43
206.345	-32.46
206.725	-44.03
207.106	-37.06
207.486	-56.33
207.866	-74.02
208.246	-55.08
208.626	-46.92
209.006	-40.19
209.386	-50.5
209.766	-35.62
210.145	-14.7
210.525	-13.82
210.905	-1.49
211.285	11.78
211.664	13.56
212.044	7.47
212.424	7.46
212.803	-8.12
213.183	-10.32
213.562	-12.85
213.942	-3.87
214.321	-0.19
214.701	-5.07
215.08	-7.13
215.459	-1.37
215.838	8.37
216.218	7.07
216.597	10.38
216.976	-0.98
217.355	3.5
217.734	7.01
218.113	7.99
218.492	10.98
218.871	-7.99
219.25	-27.34
219.629	-11.26
220.008	-19.17
220.387	-20.86
220.766	-7.99
221.144	-25.79
221.523	2.98
221.902	2.71
222.28	-23.43
222.659	9.87
223.037	-6.99
223.416	-23.03
223.794	-30.67
224.173	-19.68
224.551	-11.69
224.929	-4.79
225.308	0.6
225.686	2.77
226.064	1.82
226.442	0.68
226.821	13.22
227.199	18.37
227.577	11.18
227.955	10.77
228.333	5.43
228.711	7.42
229.089	10.69
229.467	5.46
229.845	4.56
230.222	7.56
230.6	6.26
230.978	8.43
231.356	9.01
231.733	11.9
232.111	11.51
232.488	11.27
232.866	12.34
233.243	13.1
233.621	11.55
233.998	10.6
234.376	9.68
234.753	7.19
235.13	6.2
235.508	6.39
235.885	6.69
236.262	7.9
236.639	6.44
237.016	5.44
237.393	6.71
237.77	6.34
238.147	6.38
238.524	5.86
238.901	5.83
239.278	6.42
239.655	6.34
240.032	5.96
240.409	5.39
240.785	5.35
241.162	4.97
241.539	5.55
241.915	5.27
242.292	4.91
242.668	5.08
243.045	5.28
243.421	5.09
243.798	5.13
244.174	5.31
244.551	5.51
244.927	5.3
245.303	5.59
245.679	5.51
246.056	5.24
246.432	5.31
246.808	5.32
247.184	5.16
247.56	4.75
247.936	4.67
248.312	4.72
248.688	4.69
249.064	4.85
249.44	4.65
249.815	4.65
250.191	4.87
250.567	4.83
250.943	4.73
251.318	4.98
251.694	4.74
252.069	4.46
252.445	4.62
252.82	4.89
253.196	4.21
253.571	4.01
253.947	4.2
254.322	4.18
254.697	3.86
255.073	3.9
255.448	3.92
255.823	4.06
256.198	3.9
256.573	4.01
256.948	4.02
257.323	4.16
257.698	4.2
258.073	4.08
258.448	3.82
258.823	3.82
259.198	3.65
259.573	3.68
259.948	3.63
260.322	3.42
260.697	3.42
261.072	3.58
261.446	3.63
261.821	3.52
262.195	3.61
262.57	3.55
262.944	3.49
263.319	3.46
263.693	3.3
264.067	3.47
264.442	3.45
264.816	3.21
265.19	3.08
265.564	3.19
265.938	3.12
266.313	3.31
266.687	3.26
267.061	3.46
267.435	3.64
267.809	3.62
268.183	3.69
268.556	3.65
268.93	3.62
269.304	3.55
269.678	3.55
270.051	3.49
270.425	3.66
270.799	3.69
271.172	3.81
271.546	3.96
271.919	3.8
272.293	3.68
272.666	3.91
273.04	3.78
273.413	3.77
273.787	3.93
274.16	3.98
274.533	4.03
274.906	3.89
275.279	3.89
275.653	3.95
276.026	3.87
276.399	3.95
276.772	3.99
277.145	3.91
277.518	4.02
277.891	4.07
278.263	3.86
278.636	3.76
279.009	3.78
279.382	3.82
279.755	3.72
280.127	3.82
280.5	3.75
280.872	3.91
281.245	3.82
281.617	3.83
281.99	3.79
282.362	3.84
282.735	3.72
283.107	3.63
283.479	3.6
283.852	3.61
284.224	3.49
284.596	3.49
284.968	3.6
285.34	3.62
285.713	3.68
286.085	3.74
286.457	3.85
286.829	3.91
287.201	3.82
287.572	3.78
287.944	3.73
288.316	3.73
288.688	3.7
289.06	3.8
289.431	3.65
289.803	3.6
290.175	3.58
290.546	3.73
290.918	3.65
291.289	3.84
291.661	4.03
292.032	4.08
292.403	4.15
292.775	4.19
293.146	4.21
293.517	4.04
293.889	4.18
294.26	4.24
294.631	4.2
295.002	4.15
295.373	4.38
295.744	4.47
296.115	4.46
296.486	4.46
296.857	4.37
297.228	4.57
297.599	4.57
297.97	4.58
298.34	4.54
298.711	4.62
299.082	4.53
299.452	4.48
299.823	4.63
300.194	4.6
300.564	4.54
300.935	4.58
301.305	4.55
301.676	4.52
302.046	4.37
302.416	4.51
302.787	4.54
303.157	4.46
303.527	4.42
303.897	4.38
304.267	4.43
304.637	4.57
305.008	4.51
305.378	4.67
305.748	4.74
306.117	4.84
306.487	4.87
306.857	4.88
307.227	4.87
307.597	4.75
307.967	4.72
308.336	4.78
308.706	4.78
309.076	4.92
309.445	4.88
309.815	4.97
310.184	4.88
310.554	5.1
310.923	5.14
311.293	5.18
311.662	5.18
312.031	5.22
312.401	5.16
312.77	5.21
313.139	5.24
313.508	5.19
313.877	5.15
314.246	5.37
314.616	5.38
314.985	5.39
315.353	5.48
315.722	5.69
316.091	5.63
316.46	5.63
316.829	5.81
317.198	5.99
317.567	6.05
317.935	6
318.304	6.01
318.672	5.93
319.041	5.98
319.41	6.06
319.778	6.09
320.147	6.1
320.515	6.12
320.883	5.92
321.252	6.19
321.62	6.19
321.988	6
322.357	5.99
322.725	6.08
323.093	6.13
323.461	6.08
323.829	6.28
324.197	6.31
324.565	6.24
324.933	6.21
325.301	6.2
325.669	6.19
326.037	6.11
326.405	6.21
326.772	6.3
327.14	6.47
327.508	6.45
327.875	6.61
328.243	6.74
328.61	6.9
328.978	6.76
329.346	6.81
329.713	6.81
330.08	6.86
330.448	6.73
330.815	6.66
331.182	6.8
331.55	6.76
331.917	6.76
332.284	6.8
332.651	6.92
333.018	7.05
333.385	7.13
333.752	7.2
334.119	7.38
334.486	7.34
334.853	7.21
335.22	7.18
335.587	7.14
335.954	7.12
336.32	7.18
336.687	7.24
337.054	7.33
337.42	7.44
337.787	7.5
338.153	7.57
338.52	7.61
338.886	7.5
339.253	7.48
339.619	7.61
339.986	7.61
340.352	7.54
340.718	7.46
341.084	7.51
341.451	7.47
341.817	7.38
342.183	7.45
342.549	7.32
342.915	7.45
343.281	7.42
343.647	7.39
344.013	7.34
344.379	7.2
344.745	7.17
345.11	7.16
345.476	7.08
345.842	7.12
346.208	7.09
346.573	7.05
346.939	7.14
347.304	7.02
347.67	6.97
348.035	6.91
348.401	6.9
348.766	6.98
349.132	7.04
349.497	6.93
349.862	6.89
350.228	7.05
350.593	6.98
350.958	6.94
351.323	6.88
351.688	6.94
352.053	6.99
352.418	7.01
352.783	7.01
353.148	7.02
353.513	7.04
353.878	7.05
354.243	7.12
354.608	7.11
354.972	7.1
355.337	7.15
355.702	7.14
356.066	7.17
356.431	7.09
356.795	7.04
357.16	7.07
357.524	6.95
357.889	6.98
358.253	7.03
358.618	7.06
358.982	7.04
359.346	6.95
359.71	6.96
360.075	6.89
360.439	6.85
360.803	6.84
361.167	6.79
361.531	6.78
361.895	6.72
362.259	6.63
362.623	6.62
362.987	6.59
363.351	6.65
363.714	6.59
364.078	6.51
364.442	6.47
364.806	6.51
365.169	6.49
365.533	6.43
365.896	6.32
366.26	6.32
366.623	6.32
366.987	6.32
367.35	6.3
367.714	6.29
368.077	6.31
368.44	6.31
368.803	6.26
369.167	6.18
369.53	6.06
369.893	6.05
370.256	6.02
370.619	5.96
370.982	5.9
371.345	5.88
371.708	5.83
372.071	5.77
372.434	5.67
372.797	5.68
373.159	5.62
373.522	5.62
373.885	5.59
374.247	5.57
374.61	5.56
374.973	5.48
375.335	5.42
375.698	5.36
376.06	5.3
376.423	5.26
376.785	5.26
377.147	5.32
377.51	5.3
377.872	5.28
378.234	5.22
378.596	5.21
378.958	5.12
379.321	5.13
379.683	5.15
380.045	5.11
380.407	5.03
380.769	5
381.13	4.96
381.492	4.87
381.854	4.84
382.216	4.81
382.578	4.81
382.939	4.81
383.301	4.78
383.663	4.75
384.024	4.73
384.386	4.75
384.747	4.74
385.109	4.72
385.47	4.67
385.832	4.66
386.193	4.64
386.554	4.73
386.916	4.73
387.277	4.68
387.638	4.68
387.999	4.66
388.36	4.64
388.721	4.59
389.082	4.59
389.443	4.51
389.804	4.47
390.165	4.44
390.526	4.42
390.887	4.4
391.248	4.42
391.609	4.41
391.969	4.4
392.33	4.35
392.691	4.33
393.051	4.32
393.412	4.3
393.772	4.22
394.133	4.13
394.493	4.13
394.854	4.13
395.214	4.11
395.574	4.12
395.935	4.12
396.295	4.16
396.655	4.14
397.015	4.15
397.376	4.15
397.736	4.12
398.096	4.1
398.456	4.07
398.816	4.05
399.176	4.01
399.535	3.96
399.895	3.96
400.255	3.95
400.615	3.93
400.975	3.93
401.334	3.91
401.694	3.92
402.054	3.86
402.413	3.83
402.773	3.79
403.132	3.77
403.492	3.75
403.851	3.72
404.211	3.69
404.57	3.69
404.929	3.68
405.288	3.69
405.648	3.67
406.007	3.65
406.366	3.63
406.725	3.66
407.084	3.63
407.443	3.63
407.802	3.61
408.161	3.62
408.52	3.56
408.879	3.58
409.238	3.56
409.596	3.56
409.955	3.56
410.314	3.57
410.673	3.55
411.031	3.55
411.39	3.52
411.748	3.55
412.107	3.55
412.465	3.52
412.824	3.5
413.182	3.5
413.54	3.54
413.899	3.51
414.257	3.51
414.615	3.5
414.974	3.48
415.332	3.46
415.69	3.44
416.048	3.45
416.406	3.46
416.764	3.44
417.122	3.46
417.48	3.44
417.838	3.45
418.195	3.44
418.553	3.43
418.911	3.42
419.269	3.42
419.626	3.4
419.984	3.38
420.342	3.38
420.699	3.38
421.057	3.36
421.414	3.36
421.772	3.35
422.129	3.36
422.486	3.36
422.844	3.36
423.201	3.35
423.558	3.36
423.915	3.35
424.273	3.36
424.63	3.33
424.987	3.32
425.344	3.32
425.701	3.32
426.058	3.3
426.415	3.3
426.772	3.29
427.128	3.3
427.485	3.3
427.842	3.28
428.199	3.28
428.555	3.27
428.912	3.26
429.269	3.26
429.625	3.23
429.982	3.2
430.338	3.19
430.695	3.2
431.051	3.19
431.407	3.22
431.764	3.22
432.12	3.2
432.476	3.2
432.832	3.18
433.189	3.18
433.545	3.17
433.901	3.17
434.257	3.15
434.613	3.14
434.969	3.13
435.325	3.14
435.681	3.13
436.036	3.12
436.392	3.12
436.748	3.11
437.104	3.12
437.459	3.12
437.815	3.13
438.171	3.13
438.526	3.13
438.882	3.09
439.237	3.1
439.593	3.11
439.948	3.11
440.304	3.12
440.659	3.13
441.014	3.15
441.369	3.14
441.725	3.15
442.08	3.14
442.435	3.16
442.79	3.17
443.145	3.16
443.5	3.17
443.855	3.16
444.21	3.16
444.565	3.17
444.92	3.19
445.275	3.18
445.629	3.18
445.984	3.16
446.339	3.17
446.693	3.14
447.048	3.13
447.403	3.14
447.757	3.12
448.112	3.11
448.466	3.08
448.82	3.08
449.175	3.08
449.529	3.08
449.883	3.06
450.238	3.05
450.592	3.06
450.946	3.04
451.3	3.03
451.654	3.03
452.008	3.03
452.362	3
452.716	2.98
453.07	2.97
453.424	2.99
453.778	2.98
454.132	2.98
454.486	2.98
454.839	2.96
455.193	2.96
455.547	2.95
455.9	2.95
456.254	2.95
456.607	2.96
456.961	2.95
457.314	2.96
457.668	2.96
458.021	2.94
458.375	2.95
458.728	2.97
459.081	2.96
459.434	2.95
459.787	2.97
460.141	2.99
460.494	3
460.847	3
461.2	3.01
461.553	3.03
461.906	3.02
462.259	3.04
462.611	3.06
462.964	3.08
463.317	3.09
463.67	3.11
464.022	3.11
464.375	3.1
464.728	3.12
465.08	3.13
465.433	3.14
465.785	3.16
466.138	3.18
466.49	3.18
466.843	3.17
467.195	3.17
467.547	3.17
467.899	3.17
468.252	3.17
468.604	3.19
468.956	3.16
469.308	3.19
469.66	3.2
470.012	3.2
470.364	3.19
470.716	3.2
471.068	3.21
471.42	3.22
471.772	3.23
472.123	3.21
472.475	3.23
472.827	3.26
473.178	3.25
473.53	3.23
473.882	3.23
474.233	3.24
474.585	3.23
474.936	3.21
475.288	3.21
475.639	3.21
475.99	3.2
476.342	3.22
476.693	3.22
477.044	3.24
477.395	3.24
477.746	3.25
478.097	3.24
478.448	3.24
478.8	3.23
479.15	3.23
479.501	3.24
479.852	3.23
480.203	3.21
480.554	3.22
480.905	3.22
481.255	3.22
481.606	3.21
481.957	3.22
482.307	3.23
482.658	3.22
483.009	3.23
483.359	3.23
483.709	3.23
484.06	3.22
484.41	3.22
484.761	3.21
485.111	3.21
485.461	3.21
485.811	3.21
486.162	3.2
486.512	3.21
486.862	3.21
487.212	3.2
487.562	3.2
487.912	3.19
488.262	3.19
488.612	3.19
488.961	3.2
489.311	3.2
489.661	3.2
490.011	3.2
490.36	3.19
490.71	3.18
491.06	3.18
491.409	3.18
491.759	3.19
492.108	3.19
492.458	3.2
492.807	3.19
493.157	3.19
493.506	3.2
493.855	3.19
494.204	3.19
494.554	3.21
494.903	3.2
495.252	3.22
495.601	3.23
495.95	3.25
496.299	3.25
496.648	3.24
496.997	3.26
497.346	3.26
497.695	3.28
498.043	3.29
498.392	3.3
498.741	3.32
499.09	3.33
499.438	3.37
499.787	3.38
500.135	3.4
500.484	3.41
500.832	3.46
501.181	3.5
501.529	3.51
501.878	3.53
502.226	3.57
502.574	3.61
502.923	3.63
503.271	3.64
503.619	3.69
503.967	3.73
504.315	3.74
504.663	3.8
505.011	3.86
505.359	3.9
505.707	3.94
506.055	3.97
506.403	4.01
506.751	4.06
507.098	4.11
507.446	4.18
507.794	4.24
508.141	4.28
508.489	4.31
508.837	4.37
509.184	4.43
509.531	4.5
509.879	4.56
510.226	4.62
510.574	4.67
510.921	4.73
511.268	4.79
511.616	4.87
511.963	4.92
512.31	4.97
512.657	5.06
513.004	5.16
513.351	5.25
513.698	5.35
514.045	5.42
514.392	5.5
514.739	5.57
515.086	5.65
515.432	5.73
515.779	5.83
516.126	5.94
516.473	6.02
516.819	6.1
517.166	6.2
517.512	6.28
517.859	6.36
518.205	6.44
518.552	6.52
518.898	6.59
519.245	6.67
519.591	6.76
519.937	6.84
520.283	6.92
520.629	7.02
520.976	7.14
521.322	7.27
521.668	7.39
522.014	7.51
522.36	7.66
522.706	7.79
523.052	7.93
523.398	8.07
523.743	8.24
524.089	8.37
524.435	8.51
524.781	8.66
525.126	8.79
525.472	8.91
525.817	9.02
526.163	9.13
526.509	9.23
526.854	9.32
527.199	9.42
527.545	9.5
527.89	9.58
528.235	9.66
528.581	9.74
528.926	9.84
529.271	9.94
529.616	10.03
529.961	10.12
530.306	10.22
530.651	10.31
530.996	10.42
531.341	10.54
531.686	10.66
532.031	10.78
532.376	10.91
532.721	11.05
533.065	11.19
533.41	11.33
533.755	11.48
534.099	11.65
534.444	11.8
534.788	11.95
535.133	12.1
535.477	12.26
535.822	12.41
536.166	12.57
536.51	12.76
536.855	12.96
537.199	13.18
537.543	13.38
537.887	13.59
538.231	13.79
538.576	13.99
538.92	14.2
539.264	14.4
539.608	14.59
539.951	14.75
540.295	14.93
540.639	15.11
540.983	15.27
541.327	15.43
541.671	15.59
542.014	15.76
542.358	15.94
542.701	16.11
543.045	16.3
543.389	16.5
543.732	16.66
544.075	16.83
544.419	17.01
544.762	17.2
545.105	17.39
545.449	17.59
545.792	17.81
546.135	18.05
546.478	18.3
546.821	18.57
547.165	18.83
547.508	19.12
547.851	19.36
548.194	19.61
548.536	19.86
548.879	20.15
549.222	20.44
549.565	20.71
549.908	20.98
550.25	21.27
550.593	21.52
550.936	21.8
551.278	22.05
551.621	22.34
551.963	22.63
552.306	22.9
552.648	23.2
552.991	23.51
553.333	23.78
553.675	24.05
554.017	24.28
554.36	24.55
554.702	24.8
555.044	25.07
555.386	25.37
555.728	25.61
556.07	25.9
556.412	26.14
556.754	26.4
557.096	26.61
557.438	26.87
557.78	27.18
558.121	27.45
558.463	27.76
558.805	28.05
559.147	28.33
559.488	28.63
559.83	28.9
560.171	29.1
560.513	29.37
560.854	29.56
561.196	29.78
561.537	30.04
561.878	30.3
562.22	30.54
562.561	30.77
562.902	31.01
563.243	31.21
563.584	31.47
563.925	31.71
564.266	32.01
564.607	32.23
564.948	32.42
565.289	32.68
565.63	32.91
565.971	33.12
566.312	33.34
566.653	33.52
566.993	33.7
567.334	33.93
567.675	34.12
568.015	34.33
568.356	34.61
568.696	34.8
569.037	34.99
569.377	35.22
569.718	35.42
570.058	35.66
570.398	35.86
570.739	36.03
571.079	36.26
571.419	36.36
571.759	36.49
572.099	36.69
572.439	36.86
572.779	37.02
573.119	37.13
573.459	37.3
573.799	37.5
574.139	37.68
574.479	37.8
574.819	37.96
575.158	38.13
575.498	38.27
575.838	38.44
576.177	38.56
576.517	38.65
576.856	38.85
577.196	38.99
577.535	39.17
577.875	39.43
578.214	39.54
578.553	39.81
578.893	40.04
579.232	40.21
579.571	40.37
579.91	40.57
580.25	40.74
580.589	40.92
580.928	41.09
581.267	41.3
581.606	41.56
581.945	41.7
582.283	41.84
582.622	42.03
582.961	42.23
583.3	42.45
583.639	42.7
583.977	42.81
584.316	42.99
584.654	43.16
584.993	43.18
585.332	43.31
585.67	43.39
586.008	43.56
586.347	43.63
586.685	43.75
587.024	43.83
587.362	44.04
587.7	44.13
588.038	44.22
588.376	44.31
588.715	44.37
589.053	44.47
589.391	44.68
589.729	44.7
590.067	44.74
590.404	44.83
590.742	44.92
591.08	45
591.418	45.08
591.756	45.16
592.093	45.25
592.431	45.4
592.769	45.49
593.106	45.54
593.444	45.66
593.781	45.72
594.119	45.9
594.456	45.98
594.793	46.1
595.131	46.19
595.468	46.26
595.805	46.33
596.143	46.43
596.48	46.44
596.817	46.58
597.154	46.75
597.491	46.89
597.828	46.93
598.165	47.02
598.502	47.08
598.839	47.08
599.176	47.2
599.512	47.25
599.849	47.39
600.186	47.4
600.523	47.54
600.859	47.66
601.196	47.63
601.532	47.67
601.869	47.7
602.205	47.76
602.542	47.83
602.878	47.89
603.215	47.97
603.551	48.02
603.887	48.06
604.223	48
604.56	48.03
604.896	48.17
605.232	48.25
605.568	48.44
605.904	48.53
606.24	48.58
606.576	48.62
606.912	48.66
607.248	48.79
607.583	48.82
607.919	48.78
608.255	48.88
608.591	48.97
608.926	48.98
609.262	49.02
609.597	49.12
609.933	49.18
610.268	49.28
610.604	49.35
610.939	49.37
611.275	49.45
611.61	49.51
611.945	49.55
612.281	49.58
612.616	49.42
612.951	49.52
613.286	49.51
613.621	49.57
613.956	49.63
614.291	49.72
614.626	49.76
614.961	50
615.296	50.13
615.631	50.13
615.966	50.2
616.3	50.33
616.635	50.3
616.97	50.43
617.304	50.39
617.639	50.45
617.973	50.46
618.308	50.51
618.642	50.53
618.977	50.49
619.311	50.56
619.646	50.69
619.98	50.62
620.314	50.72
620.648	50.75
620.983	50.84
621.317	50.92
621.651	50.97
621.985	50.97
622.319	50.97
622.653	51.09
622.987	51.25
623.321	51.3
623.655	51.37
623.988	51.29
624.322	51.29
624.656	51.38
624.99	51.5
625.323	51.48
625.657	51.51
625.99	51.59
626.324	51.52
626.657	51.57
626.991	51.64
627.324	51.72
627.658	51.79
627.991	51.74
628.324	51.7
628.657	51.68
628.991	51.64
629.324	51.65
629.657	51.67
629.99	51.67
630.323	51.59
630.656	51.63
630.989	51.67
631.322	51.7
631.655	51.65
631.987	51.64
632.32	51.66
632.653	51.68
632.986	51.67
633.318	51.71
633.651	51.69
633.984	51.67
634.316	51.61
634.649	51.56
634.981	51.64
635.313	51.63
635.646	51.67
635.978	51.74
636.31	51.78
636.643	51.75
636.975	51.8
637.307	51.93
637.639	51.83
637.971	51.86
638.303	51.92
638.635	51.96
638.967	52.02
639.299	52.24
639.631	52.27
639.963	52.18
640.295	52.24
640.626	52.28
640.958	52.43
641.29	52.54
641.621	52.69
641.953	52.66
642.285	52.72
642.616	52.82
642.948	52.87
643.279	52.91
643.61	52.95
643.942	52.88
644.273	52.8
644.604	53.02
644.936	53.18
645.267	53.18
645.598	53.26
645.929	53.28
646.26	53.24
646.591	53.26
646.922	53.41
647.253	53.53
647.584	53.49
647.915	53.46
648.245	53.47
648.576	53.41
648.907	53.42
649.238	53.5
649.568	53.53
649.899	53.54
650.229	53.39
650.56	53.38
650.89	53.44
651.221	53.54
651.551	53.45
651.882	53.35
652.212	53.46
652.542	53.45
652.872	53.38
653.203	53.31
653.533	53.39
653.863	53.37
654.193	53.33
654.523	53.39
654.853	53.41
655.183	53.41
655.513	53.43
655.843	53.47
656.172	53.44
656.502	53.39
656.832	53.39
657.162	53.58
657.491	53.63
657.821	53.55
658.15	53.59
658.48	53.62
658.809	53.61
659.139	53.57
659.468	53.54
659.798	53.61
660.127	53.72
660.456	53.65
660.785	53.68
661.115	53.71
661.444	53.84
661.773	53.81
662.102	53.77
662.431	53.81
662.76	53.78
663.089	53.76
663.418	53.82
663.747	53.83
664.076	53.84
664.404	53.84
664.733	53.8
665.062	53.81
665.39	53.8
665.719	53.99
666.048	53.86
666.376	53.99
666.705	54
667.033	53.84
667.362	53.9
667.69	53.75
668.018	53.71
668.347	53.59
668.675	53.57
669.003	53.63
669.331	53.77
669.659	53.95
669.987	54
670.315	53.83
670.643	53.67
670.971	53.52
671.299	53.61
671.627	53.81
671.955	53.69
672.283	53.84
672.61	53.75
672.938	53.82
673.266	53.74
673.593	53.79
673.921	53.95
674.249	53.73
674.576	54.02
674.904	53.92
675.231	53.97
675.558	53.93
675.886	53.94
676.213	53.79
676.54	53.65
676.867	53.58
677.195	53.7
677.522	53.87
677.849	53.96
678.176	53.85
678.503	53.87
678.83	53.98
679.157	53.84
679.484	53.77
679.81	53.93
680.137	53.99
680.464	53.96
680.791	54.06
681.117	54.3
681.444	54.21
681.771	54.36
682.097	54.36
682.424	54.46
682.75	54.43
683.077	54.38
683.403	54.49
683.729	54.66
684.056	54.62
684.382	54.7
684.708	54.78
685.034	54.82
685.36	54.87
685.686	54.8
686.012	54.94
686.339	55.11
686.664	55.02
686.99	55.09
687.316	55.15
687.642	55.04
687.968	54.95
688.294	54.89
688.619	55.04
688.945	55.03
689.271	55.2
689.596	55.33
689.922	55.58
690.247	55.48
690.573	55.5
690.898	55.46
691.224	55.41
691.549	55.29
691.874	55.4
692.2	55.44
692.525	55.44
692.85	55.4
693.175	55.41
693.5	55.4
693.825	55.23
694.15	55.12
694.475	55.12
694.8	55.23
695.125	55.35
695.45	55.22
695.775	55.21
696.099	55.1
696.424	54.95
696.749	54.84
697.073	55
697.398	55.08
697.723	55.28
698.047	55.24
698.372	55.28
698.696	55.2
699.02	54.92
699.345	54.86
699.669	54.88
699.993	54.83
700.318	54.77
700.642	54.84
700.966	54.9
701.29	55.02
701.614	54.95
701.938	54.86
702.262	54.84
702.586	54.76
702.91	54.7
703.234	54.85
703.557	54.81
703.881	54.79
704.205	54.52
704.529	54.37
704.852	54.33
705.176	54.23
705.499	54.43
705.823	54.67
706.146	54.7
706.47	54.71
706.793	54.82
707.117	54.88
707.44	54.96
707.763	54.91
708.086	54.7
708.409	54.62
708.733	54.6
709.056	54.67
709.379	54.87
709.702	55.03
710.025	55
710.348	55.01
710.671	54.83
710.993	54.95
711.316	54.9
711.639	55.07
711.962	55.29
712.284	55.04
712.607	55.17
712.93	55.31
713.252	55.24
713.575	55.2
713.897	55.2
714.22	55.13
714.542	55.12
714.864	55.11
715.187	55.23
715.509	55.23
715.831	55.18
716.153	55.11
716.475	55.1
716.798	55.09
717.12	55.23
717.442	55.39
717.764	55.4
718.085	55.51
718.407	55.4
718.729	55.37
719.051	55.51
719.373	55.5
719.695	55.34
720.016	55.26
720.338	55.14
720.659	55.3
720.981	55.32
721.302	55.38
721.624	55.42
721.945	55.5
722.267	55.63
722.588	55.57
722.909	55.59
723.231	55.57
723.552	55.47
723.873	55.14
724.194	54.93
724.515	54.98
724.836	55.01
725.157	55.27
725.478	55.1
725.799	55.05
726.12	55.01
726.441	55.09
726.762	55.17
727.083	55.15
727.403	55.02
727.724	55.04
728.045	54.88
728.365	55.14
728.686	55.12
729.006	55.3
729.327	55.27
729.647	55.35
729.967	55.59
730.288	55.61
730.608	55.84
730.928	55.92
731.249	55.81
731.569	55.9
731.889	55.8
732.209	55.74
732.529	55.87
732.849	55.79
733.169	55.79
733.489	55.98
733.809	55.71
734.129	55.77
734.448	55.83
734.768	55.96
735.088	55.64
735.408	55.66
735.727	55.47
736.047	55.7
736.366	55.8
736.686	55.66
737.005	55.66
737.325	55.69
737.644	55.7
737.963	55.82
738.283	55.78
738.602	55.76
738.921	56.06
739.24	56.03
739.56	56.33
739.879	56.38
740.198	56.24
740.517	56.67
740.836	56.61
741.155	56.55
741.473	56.59
741.792	56.72
742.111	56.58
742.43	56.53
742.748	56.45
743.067	56.26
743.386	56.05
743.704	56.23
744.023	56.21
744.341	56.13
744.66	55.98
744.978	55.95
745.297	55.76
745.615	55.75
745.933	55.74
746.252	55.63
746.57	55.92
746.888	55.88
747.206	55.93
747.524	55.86
747.842	56.17
748.16	56.13
748.478	56.32
748.796	56.34
749.114	56.46
749.432	56.49
749.749	56.68
750.067	56.66
750.385	56.48
750.703	56.53
751.02	56.44
751.338	56.63
751.655	56.87
751.973	57
752.29	57.06
752.608	57.2
752.925	57.08
753.242	56.78
753.56	57.05
753.877	57.04
754.194	57.19
754.511	57.04
754.828	56.93
755.145	56.59
755.462	56.69
755.779	56.6
756.096	56.67
756.413	56.56
756.73	56.24
757.047	56.18
757.364	56.07
757.68	56.12
757.997	56.14
758.314	56.04
758.63	55.89
758.947	55.78
759.264	55.67
759.58	55.55
759.896	55.56
760.213	55.65
760.529	55.7
760.846	55.66
761.162	55.85
761.478	56.14
761.794	56.63
762.11	56.82
762.426	56.9
762.743	56.83
763.059	56.66
763.375	57.05
763.69	57.28
764.006	57.59
764.322	57.75
764.638	57.5
764.954	57.46
765.27	57.7
765.585	57.55
765.901	57.66
766.216	57.99
766.532	58.07
766.848	57.86
767.163	57.9
767.478	57.86
767.794	57.56
768.109	57.44
768.424	57.05
768.74	56.76
769.055	56.79
769.37	57.01
769.685	57.3
770	57.32
770.315	57.15
770.63	56.61
770.945	56.5
771.26	56.8
771.575	56.84
771.89	56.78
772.205	56.95
772.52	56.57
772.834	56.08
773.149	56.02
773.464	56.29
773.778	56.1
774.093	55.94
774.407	56.03
774.722	56.24
775.036	56.13
775.351	56.14
775.665	56.36
775.979	56.23
776.293	56.01
776.608	56.08
776.922	56.24
777.236	56.45
777.55	56.51
777.864	56.87
778.178	56.81
778.492	56.78
778.806	56.56
779.12	57.13
779.434	57.16
779.747	57.22
780.061	56.82
780.375	56.89
780.689	57.58
781.002	57.52
781.316	57.32
781.629	57.87
781.943	58.57
782.256	58.39
782.57	57.89
782.883	57.97
783.196	57.77
783.51	57.85
783.823	57.55
784.136	58.04
784.449	57.45
784.762	57.53
785.075	57.1
785.388	56.89
785.701	55.9
786.014	56.28
786.327	56.07
786.64	56.39
786.953	56.48
787.266	56.08
787.578	56.21
787.891	56.07
788.204	55.96
788.516	55.43
788.829	55.35
789.141	56.25
789.454	56.42
789.766	56.81
790.079	56.51
790.391	56.79
790.703	56.43
791.016	56.83
791.328	57.1
791.64	57.72
791.952	58.19
792.264	58.75
792.576	58.43
792.888	58.66
793.2	59.04
793.512	58.71
793.824	58.82
794.136	59.36
794.448	59.69
794.76	60.1
795.071	60.1
795.383	59.86
795.695	59.6
796.006	59.4
796.318	59.15
796.629	60.05
796.941	60.23
797.252	60.76
797.564	60.09
797.875	59.84
798.186	59.5
798.497	59.74
798.809	59.63
799.12	59.66
799.431	59.46
799.742	59.09
800.053	59.68
800.364	59.79
800.675	58.9
800.986	58.56
801.297	57.84
801.608	57.57
801.918	58.12
802.229	57.65
802.54	58
802.851	58.06
803.161	57.05
803.472	57.01
803.782	56.3
804.093	56.65
804.403	56.21
804.714	56.52
805.024	56
805.334	56.14
805.645	55.99
805.955	55.49
806.265	55.36
806.575	54.57
806.885	54.17
807.195	54.38
807.505	54.95
807.815	55.18
808.125	55.56
808.435	55.37
808.745	55.42
809.055	55.62
809.365	55.09
809.674	55.54
809.984	55.38
810.294	55.54
810.603	56.13
810.913	56.09
811.222	55.99
811.532	56.94
811.841	57.26
812.151	58.04
812.46	59.22
812.769	59.79
813.079	61.02
813.388	61.34
813.697	61.53
814.006	61.4
814.315	61.33
814.624	61.56
814.933	61.64
815.242	61.28
815.551	60.53
815.86	61.55
816.169	61.06
816.478	61.25
816.786	60.83
817.095	59.91
817.404	60.72
817.712	60.36
818.021	59.75
818.33	59.33
818.638	59.05
818.947	58.83
819.255	57.92
819.563	57.46
819.872	57.57
820.18	57.53
820.488	57.4
820.796	57.36
821.105	57.12
821.413	57.13
821.721	57.48
822.029	57.48
822.337	57.25
822.645	57.54
822.953	57.68
823.26	57.89
823.568	57.85
823.876	57.72
824.184	57.57
824.491	57.67
824.799	57.62
825.107	57.49
825.414	57.41
825.722	57.49
826.029	57.63
826.337	57.58
826.644	57.61
826.951	57.6
827.259	57.6
827.566	57.85
827.873	57.9
828.18	57.9
828.488	57.94
828.795	58.16
829.102	57.9
829.409	57.63
829.716	57.3
830.023	57.72
830.329	57.71
830.636	57.98
830.943	57.72
831.25	57.86
831.557	58.47
831.863	58.43
832.17	58.66
832.476	58.45
832.783	58.8
833.089	58.71
833.396	58.78
833.702	58.86
834.009	58.35
834.315	58.65
834.621	58.41
834.928	58.98
835.234	58.86
835.54	58.56
835.846	58.64
836.152	58.84
836.458	58.76
836.764	58.44
837.07	58.8
837.376	58.35
837.682	58.58
837.988	57.8
838.293	57.79
838.599	57.63
838.905	57.79
839.211	58.4
839.516	58.79
839.822	59.12
840.127	59.69
840.433	61.05
840.738	61.11
841.044	60.73
841.349	59.84
841.654	59.79
841.959	60.48
842.265	60.42
842.57	61.2
842.875	61.2
843.18	62.4
843.485	63.21
843.79	64.13
844.095	64.28
844.4	65.6
844.705	65.92
845.01	66.59
845.315	66.47
845.619	63.89
845.924	62.79
846.229	62.76
846.533	61.21
846.838	59.44
847.142	57.98
847.447	58.12
847.751	58.98
848.056	59.33
848.36	59.6
848.664	60.58
848.969	59.96
849.273	59.58
849.577	58.88
849.881	58.78
850.185	59.41
850.489	58.69
850.794	58.24
851.097	59.95
851.401	61.08
851.705	60.47
852.009	63.52
852.313	63.68
852.617	62.82
852.92	66.88
853.224	66.88
853.528	67.32
853.831	66.28
854.135	65.73
854.438	65.25
854.742	64
855.045	63.78
855.349	62.96
855.652	62.61
855.955	62.79
856.259	61.97
856.562	64.47
856.865	67.79
857.168	67.2
857.471	67.81
857.774	67.45
858.077	70.75
858.38	68.58
858.683	69.91
858.986	70.46
859.289	67.93
859.592	70.02
859.894	70.46
860.197	71.76
860.5	71.56
860.802	71.43
861.105	74.61
861.407	73.82
861.71	75.01
862.012	75.6
862.315	77.22
862.617	77.67
862.919	75.73
863.222	71.96
863.524	71.76
863.826	69.5
864.128	67
864.43	65.82
864.732	64.67
865.034	65.58
865.336	67.04
865.638	66.95
865.94	66.25
866.242	65.33
866.544	66.22
866.846	64.57
867.147	64.32
867.449	64.5
867.751	63.78
868.052	62.46
868.354	60.67
868.655	60.95
868.957	62.41
869.258	62.03
869.56	63.01
869.861	63.86
870.162	63.65
870.463	67.61
870.765	65.52
871.066	68.81
871.367	69.95
871.668	68.1
871.969	69.46
872.27	65.27
872.571	66.11
872.872	68.26
873.173	70.1
873.473	70.45
873.774	67.12
874.075	66.36
874.376	66.82
874.676	69
874.977	67.66
875.277	64.47
875.578	65.88
875.878	65.58
876.179	64.86
876.479	66.16
876.78	63.85
877.08	65.7
877.38	63
877.68	59.93
877.981	59.81
878.281	58.02
878.581	64.38
