Data from BU58119_Reflection_00005.txt Node
Date: Tue Nov 19 10:50:47 EST 2019
User: vgr7
Spectrometer: USB2G7710
Scans to average: 3
Trigger mode: 4
Integration Time (sec): 2.000000E-2
Electric dark correction enabled: true
Boxcar width: 10
XAxis mode: Wavelengths
Number of Pixels in Spectrum: 2048
>>>>>Begin Spectral Data<<<<<
177.721	-198.72
178.105	7.77
178.488	-10.95
178.871	-318.18
179.254	-1360
179.636	259.48
180.019	218.03
180.402	81.48
180.785	-563.64
181.168	96.75
181.55	98.23
181.933	23.69
182.316	-36.77
182.698	-33.91
183.081	-54.48
183.463	-58.89
183.846	5.76
184.228	-76.26
184.611	-56.13
184.993	39.44
185.376	130.69
185.758	-231.78
186.14	-176.12
186.522	-159.22
186.904	-217.72
187.287	-246.33
187.669	-164.14
188.051	-143.05
188.433	-160.36
188.815	-190.21
189.197	-130.17
189.579	-108.15
189.961	-118.81
190.342	-120.58
190.724	-122.63
191.106	-124.61
191.488	-115.48
191.869	-107.77
192.251	-116.12
192.633	-117.03
193.014	-102.75
193.396	-106.33
193.777	-93.65
194.159	-109.55
194.54	-95.3
194.922	-79.61
195.303	-70.69
195.684	-73.29
196.065	-56.68
196.447	-53.56
196.828	-43.31
197.209	-59.13
197.59	-43.5
197.971	-56.73
198.352	-52.2
198.733	-57.66
199.114	-51.02
199.495	-142.76
199.876	-252.25
200.257	-861.54
200.638	-1451.95
201.018	2696.77
201.399	-215.7
201.78	-277.32
202.16	-301.49
202.541	-1722.03
202.922	-802.68
203.302	7907.69
203.683	5360
204.063	-1568.42
204.444	-1617.82
204.824	-29800
205.204	-213.3
205.585	-222.85
205.965	-158.59
206.345	-164.04
206.725	-142.74
207.106	-131.2
207.486	-44.17
207.866	-28.21
208.246	-22.47
208.626	-35.19
209.006	-67.46
209.386	-73.74
209.766	-88.63
210.145	-56.81
210.525	-51.44
210.905	-42.71
211.285	-36.33
211.664	-20.8
212.044	-24.61
212.424	-14.03
212.803	-13.68
213.183	-16.96
213.562	-7.21
213.942	-5.88
214.321	-6.94
214.701	2.72
215.08	0.13
215.459	-17.17
215.838	-16.45
216.218	-17.82
216.597	-2.71
216.976	-0.25
217.355	-2.73
217.734	0.13
218.113	8.96
218.492	4.8
218.871	2.71
219.25	3.32
219.629	-7.95
220.008	-10.07
220.387	-15.74
220.766	-17.05
221.144	-22.94
221.523	-38.57
221.902	-43.74
222.28	-31.62
222.659	-22.49
223.037	-20.89
223.416	-13.21
223.794	-18.07
224.173	-17.83
224.551	-31.78
224.929	-20.7
225.308	-23.62
225.686	-30.61
226.064	-43.63
226.442	-42.77
226.821	-38.88
227.199	-39.95
227.577	-33.38
227.955	-24.94
228.333	-30.04
228.711	-29.99
229.089	-27.96
229.467	-24.63
229.845	-21.06
230.222	-15.77
230.6	-20.63
230.978	-17.97
231.356	-19.8
231.733	-13.89
232.111	-13.27
232.488	-10.55
232.866	-8.28
233.243	-5.6
233.621	-2.26
233.998	-2.79
234.376	-2.83
234.753	-3.54
235.13	-1.45
235.508	-2.56
235.885	-3.89
236.262	-2.96
236.639	-4.46
237.016	-3.22
237.393	-1.62
237.77	-1.11
238.147	-1.32
238.524	0.25
238.901	-0.7
239.278	1.17
239.655	0.69
240.032	0.54
240.409	0.79
240.785	0.94
241.162	1.2
241.539	1.05
241.915	2.16
242.292	2.73
242.668	3.41
243.045	3.38
243.421	4.08
243.798	4.32
244.174	4.74
244.551	5.53
244.927	5.45
245.303	5
245.679	4.96
246.056	4.59
246.432	4.48
246.808	4.72
247.184	4.88
247.56	4.74
247.936	5.04
248.312	5.01
248.688	4.77
249.064	4.7
249.44	4.55
249.815	4.32
250.191	4.24
250.567	3.87
250.943	3.92
251.318	3.64
251.694	3.37
252.069	3.56
252.445	3.25
252.82	3.32
253.196	3.53
253.571	3.75
253.947	4.13
254.322	4.03
254.697	4.16
255.073	3.75
255.448	3.82
255.823	3.78
256.198	4.1
256.573	4.16
256.948	4.29
257.323	4.43
257.698	4.71
258.073	4.65
258.448	4.96
258.823	4.71
259.198	4.99
259.573	4.96
259.948	4.95
260.322	4.83
260.697	4.88
261.072	4.96
261.446	4.88
261.821	4.9
262.195	4.88
262.57	4.88
262.944	4.86
263.319	4.94
263.693	4.88
264.067	4.73
264.442	4.74
264.816	4.7
265.19	4.67
265.564	4.55
265.938	4.47
266.313	4.55
266.687	4.82
267.061	4.85
267.435	4.95
267.809	4.81
268.183	4.74
268.556	4.66
268.93	4.66
269.304	4.46
269.678	4.41
270.051	4.35
270.425	4.35
270.799	4.25
271.172	4.27
271.546	4.47
271.919	4.64
272.293	4.83
272.666	4.82
273.04	4.83
273.413	4.76
273.787	4.89
274.16	4.63
274.533	4.59
274.906	4.39
275.279	4.31
275.653	4.28
276.026	4.35
276.399	4.22
276.772	4.18
277.145	4.33
277.518	4.19
277.891	4.4
278.263	4.43
278.636	4.6
279.009	4.58
279.382	4.42
279.755	4.29
280.127	4.13
280.5	4.05
280.872	4.14
281.245	4.18
281.617	4.38
281.99	4.5
282.362	4.44
282.735	4.44
283.107	4.55
283.479	4.6
283.852	4.59
284.224	4.65
284.596	4.62
284.968	4.7
285.34	4.76
285.713	4.81
286.085	4.71
286.457	4.72
286.829	4.7
287.201	4.78
287.572	4.73
287.944	4.88
288.316	4.98
288.688	5.06
289.06	5.12
289.431	5.01
289.803	5.05
290.175	5.25
290.546	5.27
290.918	5.22
291.289	4.98
291.661	5.07
292.032	5.15
292.403	5.16
292.775	5.15
293.146	5.24
293.517	5.14
293.889	5.13
294.26	5.2
294.631	5.12
295.002	5.19
295.373	5.17
295.744	5.14
296.115	5.15
296.486	5.15
296.857	5.14
297.228	5.13
297.599	5.02
297.97	4.86
298.34	4.81
298.711	4.85
299.082	4.99
299.452	4.89
299.823	4.85
300.194	4.91
300.564	4.75
300.935	4.71
301.305	4.79
301.676	4.63
302.046	4.56
302.416	4.67
302.787	4.5
303.157	4.47
303.527	4.47
303.897	4.45
304.267	4.34
304.637	4.27
305.008	4.39
305.378	4.51
305.748	4.67
306.117	4.67
306.487	4.72
306.857	4.84
307.227	5.21
307.597	5.31
307.967	5.28
308.336	5.37
308.706	5.39
309.076	5.28
309.445	5.68
309.815	5.7
310.184	5.55
310.554	5.58
310.923	5.64
311.293	5.7
311.662	5.63
312.031	5.53
312.401	5.62
312.77	5.57
313.139	5.48
313.508	5.36
313.877	5.28
314.246	5.22
314.616	5.24
314.985	4.92
315.353	4.93
315.722	4.87
316.091	4.94
316.46	4.91
316.829	5.04
317.198	4.79
317.567	4.84
317.935	5.17
318.304	5.25
318.672	5.25
319.041	5.06
319.41	4.97
319.778	5.12
320.147	5.02
320.515	5.02
320.883	4.82
321.252	4.95
321.62	5.06
321.988	5.02
322.357	4.93
322.725	5.12
323.093	5.03
323.461	5.08
323.829	5.14
324.197	5.09
324.565	5.09
324.933	5.24
325.301	5.06
325.669	4.82
326.037	4.73
326.405	4.78
326.772	4.79
327.14	4.84
327.508	4.69
327.875	4.78
328.243	4.75
328.61	4.98
328.978	4.86
329.346	4.84
329.713	4.86
330.08	4.98
330.448	4.97
330.815	4.99
331.182	4.94
331.55	4.75
331.917	4.75
332.284	4.73
332.651	4.57
333.018	4.55
333.385	4.61
333.752	4.67
334.119	4.76
334.486	4.91
334.853	4.97
335.22	4.99
335.587	4.86
335.954	4.78
336.32	4.8
336.687	4.85
337.054	4.79
337.42	4.84
337.787	4.72
338.153	4.68
338.52	4.61
338.886	4.69
339.253	4.64
339.619	4.73
339.986	4.73
340.352	4.73
340.718	4.83
341.084	4.91
341.451	4.92
341.817	4.78
342.183	4.62
342.549	4.65
342.915	4.85
343.281	4.89
343.647	4.92
344.013	4.86
344.379	4.85
344.745	4.85
345.11	4.77
345.476	4.8
345.842	4.8
346.208	4.98
346.573	4.92
346.939	5.06
347.304	5.04
347.67	5.06
348.035	5.13
348.401	5.1
348.766	4.98
349.132	5.02
349.497	5.14
349.862	5.22
350.228	5.19
350.593	5.14
350.958	5.18
351.323	5.24
351.688	5.25
352.053	5.38
352.418	5.48
352.783	5.46
353.148	5.45
353.513	5.37
353.878	5.25
354.243	5.27
354.608	5.3
354.972	5.29
355.337	5.23
355.702	5.18
356.066	5.14
356.431	5.18
356.795	5.13
357.16	5.03
357.524	5
357.889	4.95
358.253	4.85
358.618	4.89
358.982	4.89
359.346	4.94
359.71	4.82
360.075	4.84
360.439	4.89
360.803	4.88
361.167	4.93
361.531	4.92
361.895	4.92
362.259	4.88
362.623	4.92
362.987	5
363.351	5.02
363.714	5.07
364.078	5.06
364.442	5.06
364.806	5.13
365.169	5.14
365.533	5.18
365.896	5.31
366.26	5.18
366.623	5.1
366.987	5.06
367.35	5.09
367.714	5.05
368.077	5.07
368.44	5.05
368.803	5.03
369.167	4.97
369.53	4.96
369.893	4.99
370.256	4.86
370.619	4.79
370.982	4.73
371.345	4.79
371.708	4.85
372.071	4.8
372.434	4.76
372.797	4.77
373.159	4.69
373.522	4.66
373.885	4.76
374.247	4.85
374.61	4.91
374.973	4.92
375.335	5.01
375.698	4.93
376.06	5
376.423	5
376.785	5.03
377.147	5
377.51	4.94
377.872	5
378.234	4.96
378.596	4.95
378.958	4.88
379.321	4.84
379.683	4.84
380.045	4.86
380.407	4.91
380.769	4.97
381.13	4.87
381.492	4.87
381.854	4.88
382.216	4.86
382.578	4.86
382.939	4.84
383.301	4.88
383.663	4.84
384.024	4.88
384.386	4.88
384.747	4.9
385.109	4.92
385.47	4.95
385.832	4.93
386.193	4.97
386.554	4.95
386.916	4.98
387.277	5
387.638	5.02
387.999	4.97
388.36	4.95
388.721	5.02
389.082	5.04
389.443	5.03
389.804	5
390.165	5.04
390.526	5
390.887	5.05
391.248	5.05
391.609	5.04
391.969	5.03
392.33	5.04
392.691	5.1
393.051	5.07
393.412	5.09
393.772	5.1
394.133	5.11
394.493	5.08
394.854	5.09
395.214	5.06
395.574	5.06
395.935	5.06
396.295	5.03
396.655	4.97
397.015	4.92
397.376	4.9
397.736	4.84
398.096	4.83
398.456	4.79
398.816	4.75
399.176	4.68
399.535	4.66
399.895	4.66
400.255	4.62
400.615	4.61
400.975	4.62
401.334	4.62
401.694	4.64
402.054	4.65
402.413	4.63
402.773	4.61
403.132	4.61
403.492	4.63
403.851	4.66
404.211	4.7
404.57	4.73
404.929	4.75
405.288	4.78
405.648	4.79
406.007	4.8
406.366	4.8
406.725	4.84
407.084	4.87
407.443	4.87
407.802	4.84
408.161	4.85
408.52	4.87
408.879	4.87
409.238	4.86
409.596	4.88
409.955	4.85
410.314	4.86
410.673	4.88
411.031	4.86
411.39	4.85
411.748	4.88
412.107	4.87
412.465	4.85
412.824	4.82
413.182	4.81
413.54	4.82
413.899	4.79
414.257	4.8
414.615	4.79
414.974	4.8
415.332	4.82
415.69	4.81
416.048	4.78
416.406	4.76
416.764	4.77
417.122	4.78
417.48	4.78
417.838	4.78
418.195	4.78
418.553	4.78
418.911	4.79
419.269	4.77
419.626	4.76
419.984	4.77
420.342	4.79
420.699	4.8
421.057	4.79
421.414	4.82
421.772	4.83
422.129	4.83
422.486	4.81
422.844	4.81
423.201	4.82
423.558	4.84
423.915	4.86
424.273	4.85
424.63	4.83
424.987	4.86
425.344	4.89
425.701	4.88
426.058	4.88
426.415	4.89
426.772	4.89
427.128	4.9
427.485	4.93
427.842	4.91
428.199	4.92
428.555	4.91
428.912	4.89
429.269	4.88
429.625	4.86
429.982	4.89
430.338	4.88
430.695	4.85
431.051	4.84
431.407	4.82
431.764	4.84
432.12	4.84
432.476	4.84
432.832	4.82
433.189	4.83
433.545	4.84
433.901	4.83
434.257	4.79
434.613	4.78
434.969	4.75
435.325	4.75
435.681	4.75
436.036	4.75
436.392	4.77
436.748	4.77
437.104	4.78
437.459	4.77
437.815	4.79
438.171	4.8
438.526	4.8
438.882	4.82
439.237	4.81
439.593	4.82
439.948	4.79
440.304	4.8
440.659	4.8
441.014	4.78
441.369	4.8
441.725	4.81
442.08	4.83
442.435	4.84
442.79	4.87
443.145	4.86
443.5	4.87
443.855	4.86
444.21	4.86
444.565	4.86
444.92	4.89
445.275	4.89
445.629	4.89
445.984	4.89
446.339	4.89
446.693	4.89
447.048	4.88
447.403	4.89
447.757	4.87
448.112	4.86
448.466	4.86
448.82	4.86
449.175	4.88
449.529	4.87
449.883	4.87
450.238	4.86
450.592	4.86
450.946	4.86
451.3	4.86
451.654	4.87
452.008	4.88
452.362	4.87
452.716	4.87
453.07	4.86
453.424	4.88
453.778	4.86
454.132	4.86
454.486	4.87
454.839	4.86
455.193	4.88
455.547	4.89
455.9	4.91
456.254	4.91
456.607	4.91
456.961	4.9
457.314	4.9
457.668	4.89
458.021	4.91
458.375	4.91
458.728	4.9
459.081	4.89
459.434	4.88
459.787	4.87
460.141	4.86
460.494	4.89
460.847	4.88
461.2	4.89
461.553	4.9
461.906	4.89
462.259	4.89
462.611	4.91
462.964	4.91
463.317	4.92
463.67	4.91
464.022	4.91
464.375	4.92
464.728	4.92
465.08	4.94
465.433	4.91
465.785	4.93
466.138	4.94
466.49	4.94
466.843	4.95
467.195	4.93
467.547	4.93
467.899	4.9
468.252	4.91
468.604	4.92
468.956	4.89
469.308	4.89
469.66	4.9
470.012	4.87
470.364	4.87
470.716	4.85
471.068	4.85
471.42	4.87
471.772	4.89
472.123	4.9
472.475	4.9
472.827	4.91
473.178	4.88
473.53	4.89
473.882	4.89
474.233	4.91
474.585	4.92
474.936	4.96
475.288	4.97
475.639	4.95
475.99	4.95
476.342	4.97
476.693	4.98
477.044	4.98
477.395	4.99
477.746	4.99
478.097	5
478.448	5
478.8	4.96
479.15	4.95
479.501	4.95
479.852	4.95
480.203	4.96
480.554	4.99
480.905	5.01
481.255	5.03
481.606	5.04
481.957	5.05
482.307	5.04
482.658	5.05
483.009	5.04
483.359	5.05
483.709	5.07
484.06	5.06
484.41	5.07
484.761	5.07
485.111	5.08
485.461	5.08
485.811	5.09
486.162	5.12
486.512	5.12
486.862	5.13
487.212	5.13
487.562	5.12
487.912	5.12
488.262	5.12
488.612	5.11
488.961	5.09
489.311	5.1
489.661	5.1
490.011	5.1
490.36	5.1
490.71	5.1
491.06	5.08
491.409	5.09
491.759	5.07
492.108	5.05
492.458	5.04
492.807	5.04
493.157	5.03
493.506	5.01
493.855	5.01
494.204	4.99
494.554	4.99
494.903	5
495.252	4.98
495.601	4.97
495.95	4.97
496.299	4.99
496.648	4.98
496.997	4.96
497.346	4.98
497.695	5.01
498.043	5.03
498.392	5.04
498.741	5.03
499.09	5.05
499.438	5.09
499.787	5.11
500.135	5.12
500.484	5.14
500.832	5.14
501.181	5.15
501.529	5.16
501.878	5.19
502.226	5.2
502.574	5.23
502.923	5.23
503.271	5.24
503.619	5.24
503.967	5.26
504.315	5.29
504.663	5.27
505.011	5.25
505.359	5.22
505.707	5.24
506.055	5.26
506.403	5.28
506.751	5.28
507.098	5.29
507.446	5.27
507.794	5.27
508.141	5.26
508.489	5.31
508.837	5.3
509.184	5.28
509.531	5.29
509.879	5.31
510.226	5.32
510.574	5.31
510.921	5.33
511.268	5.32
511.616	5.31
511.963	5.35
512.31	5.36
512.657	5.38
513.004	5.37
513.351	5.38
513.698	5.38
514.045	5.38
514.392	5.38
514.739	5.41
515.086	5.42
515.432	5.44
515.779	5.42
516.126	5.43
516.473	5.44
516.819	5.43
517.166	5.42
517.512	5.42
517.859	5.44
518.205	5.42
518.552	5.44
518.898	5.43
519.245	5.44
519.591	5.44
519.937	5.45
520.283	5.45
520.629	5.45
520.976	5.43
521.322	5.42
521.668	5.41
522.014	5.41
522.36	5.4
522.706	5.4
523.052	5.4
523.398	5.39
523.743	5.38
524.089	5.42
524.435	5.4
524.781	5.42
525.126	5.42
525.472	5.45
525.817	5.45
526.163	5.46
526.509	5.45
526.854	5.48
527.199	5.48
527.545	5.49
527.89	5.5
528.235	5.51
528.581	5.54
528.926	5.54
529.271	5.53
529.616	5.51
529.961	5.52
530.306	5.52
530.651	5.52
530.996	5.54
531.341	5.54
531.686	5.56
532.031	5.55
532.376	5.56
532.721	5.55
533.065	5.56
533.41	5.55
533.755	5.56
534.099	5.54
534.444	5.55
534.788	5.52
535.133	5.53
535.477	5.54
535.822	5.5
536.166	5.51
536.51	5.54
536.855	5.58
537.199	5.57
537.543	5.59
537.887	5.61
538.231	5.57
538.576	5.55
538.92	5.57
539.264	5.57
539.608	5.57
539.951	5.57
540.295	5.57
540.639	5.59
540.983	5.59
541.327	5.6
541.671	5.62
542.014	5.65
542.358	5.64
542.701	5.64
543.045	5.65
543.389	5.66
543.732	5.64
544.075	5.62
544.419	5.61
544.762	5.6
545.105	5.61
545.449	5.63
545.792	5.65
546.135	5.65
546.478	5.67
546.821	5.66
547.165	5.65
547.508	5.62
547.851	5.62
548.194	5.58
548.536	5.57
548.879	5.54
549.222	5.53
549.565	5.5
549.908	5.48
550.25	5.46
550.593	5.45
550.936	5.45
551.278	5.44
551.621	5.46
551.963	5.48
552.306	5.46
552.648	5.45
552.991	5.43
553.333	5.41
553.675	5.4
554.017	5.38
554.36	5.38
554.702	5.4
555.044	5.44
555.386	5.49
555.728	5.5
556.07	5.49
556.412	5.47
556.754	5.47
557.096	5.48
557.438	5.52
557.78	5.52
558.121	5.53
558.463	5.53
558.805	5.54
559.147	5.5
559.488	5.53
559.83	5.56
560.171	5.58
560.513	5.61
560.854	5.62
561.196	5.63
561.537	5.67
561.878	5.66
562.22	5.66
562.561	5.64
562.902	5.65
563.243	5.68
563.584	5.69
563.925	5.73
564.266	5.76
564.607	5.78
564.948	5.78
565.289	5.79
565.63	5.8
565.971	5.81
566.312	5.8
566.653	5.78
566.993	5.76
567.334	5.74
567.675	5.71
568.015	5.71
568.356	5.72
568.696	5.71
569.037	5.7
569.377	5.69
569.718	5.66
570.058	5.66
570.398	5.63
570.739	5.61
571.079	5.61
571.419	5.57
571.759	5.57
572.099	5.56
572.439	5.55
572.779	5.54
573.119	5.56
573.459	5.59
573.799	5.59
574.139	5.58
574.479	5.61
574.819	5.63
575.158	5.65
575.498	5.66
575.838	5.62
576.177	5.61
576.517	5.61
576.856	5.64
577.196	5.64
577.535	5.65
577.875	5.66
578.214	5.64
578.553	5.67
578.893	5.65
579.232	5.66
579.571	5.67
579.91	5.71
580.25	5.67
580.589	5.65
580.928	5.66
581.267	5.66
581.606	5.64
581.945	5.55
582.283	5.52
582.622	5.51
582.961	5.54
583.3	5.56
583.639	5.55
583.977	5.55
584.316	5.57
584.654	5.6
584.993	5.62
585.332	5.68
585.67	5.68
586.008	5.71
586.347	5.71
586.685	5.65
587.024	5.64
587.362	5.65
587.7	5.68
588.038	5.67
588.376	5.71
588.715	5.68
589.053	5.74
589.391	5.77
589.729	5.83
590.067	5.86
590.404	5.85
590.742	5.87
591.08	5.86
591.418	5.88
591.756	5.86
592.093	5.88
592.431	5.85
592.769	5.82
593.106	5.77
593.444	5.78
593.781	5.82
594.119	5.84
594.456	5.81
594.793	5.79
595.131	5.8
595.468	5.81
595.805	5.84
596.143	5.83
596.48	5.84
596.817	5.79
597.154	5.73
597.491	5.76
597.828	5.72
598.165	5.75
598.502	5.71
598.839	5.7
599.176	5.7
599.512	5.69
599.849	5.7
600.186	5.71
600.523	5.72
600.859	5.72
601.196	5.72
601.532	5.76
601.869	5.77
602.205	5.76
602.542	5.72
602.878	5.73
603.215	5.74
603.551	5.72
603.887	5.77
604.223	5.82
604.56	5.82
604.896	5.86
605.232	5.87
605.568	5.9
605.904	5.91
606.24	5.9
606.576	5.93
606.912	5.95
607.248	5.99
607.583	5.97
607.919	5.96
608.255	5.93
608.591	5.96
608.926	5.97
609.262	5.96
609.597	5.96
609.933	5.96
610.268	6.01
610.604	5.99
610.939	5.96
611.275	5.97
611.61	5.93
611.945	5.89
612.281	5.88
612.616	5.85
612.951	5.83
613.286	5.83
613.621	5.83
613.956	5.84
614.291	5.78
614.626	5.79
614.961	5.81
615.296	5.84
615.631	5.85
615.966	5.83
616.3	5.88
616.635	5.87
616.97	5.83
617.304	5.76
617.639	5.76
617.973	5.69
618.308	5.68
618.642	5.72
618.977	5.7
619.311	5.73
619.646	5.75
619.98	5.81
620.314	5.77
620.648	5.76
620.983	5.71
621.317	5.74
621.651	5.71
621.985	5.76
622.319	5.72
622.653	5.67
622.987	5.7
623.321	5.69
623.655	5.69
623.988	5.78
624.322	5.83
624.656	5.85
624.99	5.92
625.323	5.89
625.657	5.91
625.99	5.95
626.324	5.9
626.657	5.89
626.991	5.88
627.324	5.94
627.658	5.93
627.991	5.98
628.324	5.95
628.657	6.01
628.991	5.98
629.324	6.01
629.657	5.99
629.99	6.02
630.323	6.03
630.656	6.05
630.989	6.01
631.322	5.94
631.655	5.94
631.987	5.92
632.32	5.92
632.653	5.91
632.986	5.87
633.318	5.9
633.651	5.9
633.984	5.85
634.316	5.82
634.649	5.82
634.981	5.82
635.313	5.87
635.646	5.84
635.978	5.86
636.31	5.83
636.643	5.86
636.975	5.85
637.307	5.87
637.639	5.88
637.971	5.84
638.303	5.81
638.635	5.78
638.967	5.8
639.299	5.85
639.631	5.87
639.963	5.87
640.295	5.86
640.626	5.87
640.958	5.92
641.29	5.98
641.621	6.02
641.953	6.03
642.285	5.95
642.616	5.92
642.948	5.86
643.279	5.88
643.61	5.9
643.942	5.9
644.273	5.9
644.604	5.83
644.936	5.88
645.267	5.97
645.598	5.98
645.929	5.93
646.26	5.89
646.591	5.93
646.922	5.99
647.253	6.01
647.584	6.01
647.915	6.01
648.245	6.03
648.576	5.98
648.907	6.05
649.238	6.05
649.568	6.1
649.899	6.18
650.229	6.2
650.56	6.11
650.89	6.12
651.221	6.12
651.551	6.23
651.882	6.24
652.212	6.22
652.542	6.26
652.872	6.32
653.203	6.36
653.533	6.31
653.863	6.3
654.193	6.22
654.523	6.21
654.853	6.21
655.183	6.11
655.513	6.18
655.843	6.09
656.172	6.1
656.502	6.07
656.832	6.04
657.162	6.06
657.491	6.17
657.821	6.14
658.15	6.06
658.48	6.03
658.809	5.99
659.139	6.02
659.468	6
659.798	6
660.127	6.01
660.456	6.01
660.785	5.98
661.115	6.07
661.444	6.09
661.773	6.07
662.102	6.13
662.431	6.05
662.76	6.12
663.089	6.17
663.418	6.16
663.747	6.12
664.076	6.12
664.404	6.06
664.733	6.07
665.062	6.14
665.39	6.12
665.719	6.18
666.048	6.07
666.376	6.02
666.705	6.06
667.033	6.04
667.362	6.01
667.69	6.03
668.018	6.04
668.347	6
668.675	6.03
669.003	6
669.331	6.07
669.659	5.92
669.987	5.84
670.315	5.9
670.643	5.96
670.971	5.87
671.299	5.9
671.627	5.94
671.955	5.91
672.283	5.94
672.61	5.93
672.938	5.97
673.266	5.98
673.593	5.85
673.921	5.81
674.249	5.81
674.576	5.82
674.904	5.75
675.231	5.81
675.558	5.84
675.886	5.81
676.213	5.72
676.54	5.8
676.867	5.9
677.195	5.86
677.522	5.8
677.849	5.85
678.176	5.8
678.503	5.8
678.83	5.85
679.157	5.87
679.484	5.87
679.81	5.96
680.137	6.01
680.464	6.09
680.791	6.01
681.117	6.04
681.444	6.02
681.771	6.02
682.097	6.03
682.424	5.95
682.75	5.99
683.077	6.01
683.403	6.02
683.729	6.01
684.056	6.1
684.382	6.2
684.708	6.21
685.034	6.2
685.36	6.1
685.686	6.11
686.012	6.08
686.339	6.01
686.664	6.06
686.99	6.06
687.316	6
687.642	6.1
687.968	6.05
688.294	6.13
688.619	6.17
688.945	6.19
689.271	6.25
689.596	6.14
689.922	6.17
690.247	6.22
690.573	6.21
690.898	6.25
691.224	6.24
691.549	6.27
691.874	6.27
692.2	6.28
692.525	6.25
692.85	6.26
693.175	6.41
693.5	6.33
693.825	6.43
694.15	6.49
694.475	6.48
694.8	6.58
695.125	6.55
695.45	6.53
695.775	6.44
696.099	6.43
696.424	6.5
696.749	6.56
697.073	6.63
697.398	6.61
697.723	6.6
698.047	6.67
698.372	6.65
698.696	6.65
699.02	6.72
699.345	6.82
699.669	6.83
699.993	6.74
700.318	6.77
700.642	6.75
700.966	6.79
701.29	6.77
701.614	6.79
701.938	6.84
702.262	6.78
702.586	6.93
702.91	7.01
703.234	7.01
703.557	7
703.881	6.93
704.205	6.97
704.529	6.85
704.852	6.63
705.176	6.62
705.499	6.74
705.823	6.76
706.146	6.59
706.47	6.63
706.793	6.83
707.117	6.66
707.44	6.6
707.763	6.57
708.086	6.61
708.409	6.54
708.733	6.34
709.056	6.47
709.379	6.52
709.702	6.52
710.025	6.69
710.348	6.7
710.671	6.7
710.993	6.83
711.316	7.01
711.639	7.07
711.962	7.22
712.284	7.26
712.607	7.36
712.93	7.4
713.252	7.41
713.575	7.35
713.897	7.41
714.22	7.4
714.542	7.47
714.864	7.55
715.187	7.51
715.509	7.65
715.831	7.5
716.153	7.48
716.475	7.47
716.798	7.3
717.12	7.3
717.442	7.24
717.764	7.12
718.085	7.11
718.407	7.22
718.729	7.06
719.051	6.94
719.373	6.94
719.695	6.89
720.016	6.81
720.338	6.86
720.659	6.88
720.981	6.84
721.302	6.91
721.624	6.73
721.945	6.86
722.267	6.94
722.588	7.12
722.909	6.89
723.231	6.82
723.552	6.93
723.873	6.79
724.194	6.89
724.515	6.91
724.836	6.75
725.157	6.62
725.478	6.74
725.799	6.82
726.12	6.87
726.441	6.79
726.762	7
727.083	7
727.403	7.18
727.724	7.22
728.045	7.23
728.365	7.34
728.686	7.31
729.006	7.25
729.327	7.16
729.647	7.32
729.967	7.39
730.288	7.3
730.608	7.46
730.928	7.59
731.249	7.64
731.569	7.79
731.889	7.89
732.209	7.81
732.529	7.9
732.849	7.76
733.169	7.99
733.489	7.78
733.809	7.65
734.129	7.32
734.448	7.31
734.768	7.27
735.088	7.34
735.408	7.33
735.727	7.26
736.047	7.38
736.366	7.42
736.686	7.49
737.005	7.65
737.325	7.56
737.644	7.23
737.963	7.13
738.283	6.92
738.602	6.96
738.921	7.19
739.24	7.1
739.56	7.03
739.879	6.88
740.198	6.61
740.517	6.74
740.836	7.13
741.155	7.25
741.473	7.25
741.792	7.13
742.111	7.04
742.43	7.06
742.748	7.07
743.067	6.86
743.386	6.68
743.704	6.64
744.023	6.56
744.341	6.91
744.66	6.86
744.978	7.1
745.297	7.27
745.615	7.05
745.933	7.2
746.252	7.46
746.57	7.6
746.888	8.22
747.206	8.27
747.524	8.05
747.842	7.9
748.16	7.88
748.478	8.05
748.796	8.32
749.114	8.56
749.432	8.54
749.749	8.69
750.067	8.69
750.385	8.58
750.703	8.84
751.02	8.74
751.338	8.62
751.655	8.65
751.973	8.24
752.29	8.36
752.608	8.05
752.925	8.26
753.242	8.21
753.56	7.73
753.877	7.81
754.194	8.12
754.511	8.17
754.828	8.09
755.145	8.01
755.462	7.76
755.779	7.45
756.096	7.49
756.413	7.53
756.73	7.52
757.047	7.63
757.364	7.52
757.68	7.44
757.997	7.68
758.314	7.93
758.63	7.87
758.947	7.69
759.264	7.74
759.58	7.42
759.896	7.65
760.213	7.9
760.529	7.89
760.846	7.91
761.162	7.95
761.478	8.03
761.794	8.11
762.11	8.19
762.426	8.13
762.743	8.21
763.059	8.43
763.375	8.46
763.69	8.52
764.006	8.57
764.322	8.59
764.638	8.58
764.954	8.38
765.27	8.77
765.585	8.69
765.901	8.75
766.216	8.78
766.532	8.66
766.848	8.78
767.163	8.66
767.478	8.27
767.794	8.23
768.109	8.29
768.424	8.14
768.74	8.07
769.055	8.44
769.37	8.08
769.685	8.01
770	8
770.315	8
770.63	8.06
770.945	8.12
771.26	8.19
771.575	8.02
771.89	7.34
772.205	7.65
772.52	7.59
772.834	7.7
773.149	7.53
773.464	7.43
773.778	7.32
774.093	7.81
774.407	8.09
774.722	7.94
775.036	8.19
775.351	8.15
775.665	8.17
775.979	8.51
776.293	8.44
776.608	8.46
776.922	8.32
777.236	8.32
777.55	8.26
777.864	8.29
778.178	8.16
778.492	8.68
778.806	8.46
779.12	8.58
779.434	8.39
779.747	8.91
780.061	8.95
780.375	9.18
780.689	9
781.002	8.86
781.316	8.67
781.629	8.51
781.943	8.49
782.256	7.95
782.57	7.76
782.883	7.04
783.196	7.11
783.51	7.26
783.823	7.35
784.136	7.48
784.449	7.23
784.762	7.36
785.075	7.21
785.388	7.47
785.701	7.37
786.014	7.74
786.327	7.55
786.64	7.83
786.953	7.75
787.266	8.11
787.578	8.3
787.891	8.73
788.204	8.71
788.516	8.94
788.829	9.04
789.141	9.29
789.454	9.82
789.766	9.59
790.079	9.19
790.391	8.84
790.703	8.75
791.016	8.63
791.328	8.57
791.64	8.52
791.952	8.48
792.264	8.42
792.576	8.09
792.888	8.04
793.2	7.45
793.512	7.53
793.824	7.28
794.136	7.02
794.448	6.88
794.76	7.33
795.071	7.1
795.383	7.31
795.695	7.51
796.006	7.65
796.318	7.87
796.629	7.87
796.941	7.75
797.252	7.36
797.564	8.1
797.875	7.89
798.186	8.08
798.497	7.92
798.809	8.03
799.12	8.1
799.431	7.81
799.742	7.6
800.053	7.18
800.364	7.46
800.675	7.69
800.986	7.65
801.297	7.27
801.608	7.56
801.918	7.31
802.229	6.98
802.54	6.66
802.851	6.83
803.161	7.23
803.472	7.49
803.782	8.63
804.093	7.91
804.403	8.15
804.714	7.96
805.024	7.92
805.334	8.35
805.645	8.55
805.955	8.71
806.265	9.75
806.575	9.73
806.885	9.09
807.195	8.56
807.505	8.53
807.815	8.36
808.125	8.29
808.435	8.46
808.745	8.4
809.055	9.01
809.365	8.62
809.674	7.82
809.984	7.55
810.294	6.89
810.603	6.57
810.913	6.61
811.222	6.2
811.532	6.41
811.841	6.03
812.151	6.08
812.46	6.14
812.769	5.17
813.079	5.57
813.388	5.43
813.697	5.24
814.006	5.55
814.315	5.06
814.624	5.03
814.933	4.63
815.242	4.91
815.551	4.15
815.86	4.5
816.169	5.26
816.478	6.27
816.786	5.82
817.095	6.07
817.404	5.95
817.712	6.56
818.021	7.29
818.33	7.16
818.638	7.17
818.947	7.54
819.255	7.58
819.563	7.91
819.872	8.33
820.18	8.49
820.488	8.75
820.796	9.37
821.105	9.15
821.413	9.27
821.721	9.4
822.029	9.42
822.337	9.48
822.645	9.5
822.953	9.33
823.26	9.4
823.568	9.49
823.876	9.46
824.184	9.5
824.491	9.46
824.799	9.4
825.107	9.28
825.414	9.13
825.722	9.11
826.029	9.29
826.337	9.32
826.644	9.43
826.951	9.22
827.259	9
827.566	9.17
827.873	9.32
828.18	9.13
828.488	8.9
828.795	8.8
829.102	8.57
829.409	8.38
829.716	8.27
830.023	8.31
830.329	8.67
830.636	8.34
830.943	7.99
831.25	8.63
831.557	8.73
831.863	8.82
832.17	9.07
832.476	8.66
832.783	8.55
833.089	8.37
833.396	8.46
833.702	8.62
834.009	8.56
834.315	8.72
834.621	8.83
834.928	9.27
835.234	9.42
835.54	9.5
835.846	10.11
836.152	10.29
836.458	10.31
836.764	10.46
837.07	10.45
837.376	10.08
837.682	9.29
837.988	9.4
838.293	9.55
838.599	9.2
838.905	8.62
839.211	8.29
839.516	8.47
839.822	9.15
840.127	8.62
840.433	8.3
840.738	7.33
841.044	7.02
841.349	7.04
841.654	6.42
841.959	7.77
842.265	6.4
842.57	5.58
842.875	4.78
843.18	3.42
843.485	3.41
843.79	4.33
844.095	4.78
844.4	4.16
844.705	4.11
845.01	5.41
845.315	6.7
845.619	6.95
845.924	6.41
846.229	3.74
846.533	4.46
846.838	4.24
847.142	4.25
847.447	3.96
847.751	3.61
848.056	2.84
848.36	1.02
848.664	1.53
848.969	2.66
849.273	2.16
849.577	2.93
849.881	4.27
850.185	4.25
850.489	3.55
850.794	4.67
851.097	5.7
851.401	4.17
851.705	3.7
852.009	5.74
852.313	3.87
852.617	3.78
852.92	3.19
853.224	3.66
853.528	3.51
853.831	4.92
854.135	5.29
854.438	5.89
854.742	4.29
855.045	4.8
855.349	3.83
855.652	3.58
855.955	4.31
856.259	2.48
856.562	2.28
856.865	2.6
857.168	3.11
857.471	2.92
857.774	1.53
858.077	0.89
858.38	0.03
858.683	1.98
858.986	3.8
859.289	3.7
859.592	4.21
859.894	3.9
860.197	2.32
860.5	3.41
860.802	5.77
861.105	8.18
861.407	9.99
861.71	10.85
862.012	13.06
862.315	10.28
862.617	10.68
862.919	9.31
863.222	9.59
863.524	9.69
863.826	9.78
864.128	13.14
864.43	13.76
864.732	13.97
865.034	14.7
865.336	13.99
865.638	16.28
865.94	16.86
866.242	19
866.544	21.09
866.846	20.92
867.147	18.08
867.449	17.97
867.751	16.45
868.052	14.84
868.354	14.26
868.655	18.43
868.957	20.43
869.258	21.63
869.56	21.38
869.861	19.64
870.162	17.93
870.463	17.14
870.765	14.89
871.066	12.59
871.367	9.55
871.668	10.39
871.969	7.92
872.27	9.66
872.571	7.17
872.872	6.12
873.173	4.21
873.473	4.55
873.774	4.2
874.075	3.53
874.376	3.75
874.676	4.11
874.977	2.99
875.277	2.56
875.578	4.88
875.878	4.08
876.179	4.54
876.479	4.73
876.78	3.37
877.08	5.06
877.38	5.51
877.68	10.46
877.981	10.01
878.281	11.96
878.581	8.53
