Data from BU58119_Reflection_00001.txt Node
Date: Tue Nov 19 10:50:38 EST 2019
User: vgr7
Spectrometer: USB2G7710
Scans to average: 3
Trigger mode: 4
Integration Time (sec): 2.000000E-2
Electric dark correction enabled: true
Boxcar width: 10
XAxis mode: Wavelengths
Number of Pixels in Spectrum: 2048
>>>>>Begin Spectral Data<<<<<
177.721	-181.15
178.105	-40.78
178.488	33.72
178.871	0
179.254	180
179.636	-7.76
180.019	27.04
180.402	-18.52
180.785	-2863.64
181.168	-841.56
181.55	-380.57
181.933	-271.3
182.316	-523.32
182.698	-220.13
183.081	-230.9
183.463	-296.5
183.846	-254.77
184.228	-1051.08
184.611	-544.27
184.993	-367.61
185.376	-488.45
185.758	1455.14
186.14	398.51
186.522	290.89
186.904	337.97
187.287	275.95
187.669	142.76
188.051	137.82
188.433	97.98
188.815	53.05
189.197	7.6
189.579	-18.76
189.961	-30.86
190.342	-27.75
190.724	-27.06
191.106	-37.97
191.488	-33.92
191.869	-16.72
192.251	-23.56
192.633	-18.91
193.014	-15.4
193.396	-18.98
193.777	-16.6
194.159	-16.54
194.54	-23.99
194.922	-17.35
195.303	-11.85
195.684	5.56
196.065	10.59
196.447	27.33
196.828	22.18
197.209	27.31
197.59	44.41
197.971	27.57
198.352	24.36
198.733	17.62
199.114	48.14
199.495	62.92
199.876	63.6
200.257	232.87
200.638	268.83
201.018	-1770.97
201.399	226.28
201.78	271
202.16	201.49
202.541	1591.53
202.922	610.07
203.302	-6900
203.683	-2220
204.063	363.16
204.444	525.74
204.824	7500
205.204	71.71
205.585	101.28
205.965	92.15
206.345	98.27
206.725	80.42
207.106	73.19
207.486	58.81
207.866	54.48
208.246	50.38
208.626	60.3
209.006	70.63
209.386	80.32
209.766	95.34
210.145	90.31
210.525	72.51
210.905	75.34
211.285	59.83
211.664	71.52
212.044	76.23
212.424	65.4
212.803	65.34
213.183	71.52
213.562	57.84
213.942	65.59
214.321	64.95
214.701	66.52
215.08	59.92
215.459	72.95
215.838	67.56
216.218	65.89
216.597	63.51
216.976	51.04
217.355	41.25
217.734	43.16
218.113	43.9
218.492	44.81
218.871	41
219.25	54.99
219.629	49.81
220.008	54.41
220.387	49.91
220.766	57.95
221.144	60.79
221.523	68.85
221.902	76.74
222.28	69.61
222.659	72.08
223.037	92.54
223.416	78.59
223.794	88.09
224.173	67.88
224.551	65.24
224.929	58.48
225.308	62.14
225.686	48.57
226.064	41.24
226.442	36.09
226.821	30.38
227.199	18.99
227.577	16.84
227.955	16.14
228.333	14.23
228.711	14.7
229.089	12.48
229.467	8.01
229.845	6.27
230.222	11.17
230.6	10.26
230.978	11.42
231.356	12.67
231.733	13.72
232.111	17
232.488	13.49
232.866	13.22
233.243	12.05
233.621	13.89
233.998	16.38
234.376	18.58
234.753	17.3
235.13	17.75
235.508	19.06
235.885	17.75
236.262	18.95
236.639	16.54
237.016	14.72
237.393	16.56
237.77	15.87
238.147	14.27
238.524	13.34
238.901	11.65
239.278	10.17
239.655	9.85
240.032	10.53
240.409	10.42
240.785	10.27
241.162	10.1
241.539	9.75
241.915	9.51
242.292	9.16
242.668	9.79
243.045	10.27
243.421	9.79
243.798	9.47
244.174	9.11
244.551	9.24
244.927	9.57
245.303	9.26
245.679	9.1
246.056	9.15
246.432	9.11
246.808	9.36
247.184	9.41
247.56	9.16
247.936	8.78
248.312	8.96
248.688	8.9
249.064	8.76
249.44	8.64
249.815	8.59
250.191	8.43
250.567	8.21
250.943	8.1
251.318	8.06
251.694	8.5
252.069	8.55
252.445	8.71
252.82	8.65
253.196	8.79
253.571	9.13
253.947	8.81
254.322	8.66
254.697	8.42
255.073	8.55
255.448	8.55
255.823	8.46
256.198	8.13
256.573	8.02
256.948	8.22
257.323	8.09
257.698	7.85
258.073	7.78
258.448	7.73
258.823	7.45
259.198	7.5
259.573	7.16
259.948	7.16
260.322	7
260.697	7.09
261.072	6.98
261.446	6.98
261.821	6.9
262.195	6.99
262.57	6.94
262.944	6.95
263.319	6.92
263.693	6.73
264.067	6.92
264.442	6.95
264.816	6.86
265.19	6.78
265.564	6.82
265.938	6.87
266.313	6.7
266.687	6.72
267.061	6.35
267.435	6.3
267.809	6.34
268.183	6.31
268.556	6.29
268.93	6.41
269.304	6.29
269.678	6.3
270.051	6.35
270.425	6.39
270.799	6.24
271.172	6.2
271.546	6.36
271.919	6.35
272.293	6.36
272.666	6.27
273.04	6.38
273.413	6.3
273.787	6.17
274.16	6.22
274.533	6.3
274.906	6.67
275.279	6.68
275.653	6.72
276.026	6.75
276.399	6.58
276.772	6.55
277.145	6.57
277.518	6.59
277.891	6.5
278.263	6.46
278.636	6.61
279.009	6.48
279.382	6.51
279.755	6.3
280.127	6.14
280.5	6.15
280.872	6.22
281.245	6.3
281.617	6.47
281.99	6.5
282.362	6.4
282.735	6.31
283.107	6.39
283.479	6.35
283.852	6.37
284.224	6.34
284.596	6.37
284.968	6.27
285.34	6.27
285.713	6.37
286.085	6.31
286.457	6.31
286.829	6.51
287.201	6.43
287.572	6.48
287.944	6.65
288.316	6.7
288.688	6.65
289.06	6.78
289.431	6.8
289.803	6.88
290.175	6.91
290.546	6.9
290.918	6.87
291.289	6.81
291.661	6.69
292.032	6.66
292.403	6.66
292.775	6.83
293.146	6.88
293.517	6.77
293.889	6.93
294.26	7.09
294.631	7.06
295.002	7.35
295.373	7.45
295.744	7.46
296.115	7.53
296.486	7.52
296.857	7.38
297.228	7.36
297.599	7.31
297.97	7.37
298.34	7.45
298.711	7.47
299.082	7.55
299.452	7.67
299.823	7.79
300.194	7.91
300.564	7.88
300.935	7.83
301.305	7.88
301.676	7.84
302.046	7.63
302.416	7.63
302.787	7.35
303.157	7.34
303.527	7.41
303.897	7.32
304.267	7.33
304.637	7.28
305.008	7.27
305.378	7.34
305.748	7.43
306.117	7.27
306.487	7.5
306.857	7.43
307.227	7.61
307.597	7.75
307.967	7.64
308.336	7.62
308.706	7.79
309.076	7.92
309.445	8.1
309.815	8.27
310.184	8.25
310.554	8.36
310.923	8.26
311.293	8.22
311.662	8.23
312.031	8.24
312.401	8.24
312.77	8.26
313.139	8.19
313.508	8.07
313.877	8.27
314.246	8.28
314.616	8.48
314.985	8.38
315.353	8.28
315.722	8.27
316.091	8.4
316.46	8.31
316.829	8.24
317.198	8.05
317.567	8.15
317.935	8.22
318.304	8.21
318.672	8.37
319.041	8.45
319.41	8.57
319.778	8.5
320.147	8.81
320.515	8.85
320.883	9
321.252	9.21
321.62	9.06
321.988	8.99
322.357	9.02
322.725	8.92
323.093	8.93
323.461	8.96
323.829	8.84
324.197	8.8
324.565	8.81
324.933	8.82
325.301	8.51
325.669	8.5
326.037	8.45
326.405	8.38
326.772	8.32
327.14	8.15
327.508	8.26
327.875	8.09
328.243	8.08
328.61	8.1
328.978	7.96
329.346	7.97
329.713	7.94
330.08	7.83
330.448	7.97
330.815	8.07
331.182	7.93
331.55	8.03
331.917	8.07
332.284	7.97
332.651	7.98
333.018	8.1
333.385	8.06
333.752	8.07
334.119	8.17
334.486	8.07
334.853	8.14
335.22	8.1
335.587	8.17
335.954	8.34
336.32	8.31
336.687	8.19
337.054	8.22
337.42	8.29
337.787	8.22
338.153	8.1
338.52	7.95
338.886	8.12
339.253	7.95
339.619	7.93
339.986	8.07
340.352	8.1
340.718	8.15
341.084	8.23
341.451	8.31
341.817	8.26
342.183	8.44
342.549	8.4
342.915	8.51
343.281	8.58
343.647	8.49
344.013	8.39
344.379	8.54
344.745	8.58
345.11	8.46
345.476	8.52
345.842	8.63
346.208	8.77
346.573	8.75
346.939	8.8
347.304	8.84
347.67	8.69
348.035	8.53
348.401	8.54
348.766	8.45
349.132	8.45
349.497	8.54
349.862	8.45
350.228	8.52
350.593	8.44
350.958	8.45
351.323	8.29
351.688	8.33
352.053	8.3
352.418	8.25
352.783	8.26
353.148	8.24
353.513	8.27
353.878	8.23
354.243	8.2
354.608	8.3
354.972	8.23
355.337	8.34
355.702	8.52
356.066	8.51
356.431	8.53
356.795	8.54
357.16	8.4
357.524	8.43
357.889	8.38
358.253	8.44
358.618	8.36
358.982	8.42
359.346	8.48
359.71	8.39
360.075	8.42
360.439	8.5
360.803	8.54
361.167	8.45
361.531	8.39
361.895	8.36
362.259	8.39
362.623	8.4
362.987	8.36
363.351	8.24
363.714	8.22
364.078	8.22
364.442	8.17
364.806	8.22
365.169	8.09
365.533	8.08
365.896	8.05
366.26	8.11
366.623	8.12
366.987	8.07
367.35	8.21
367.714	8.24
368.077	8.2
368.44	8.21
368.803	8.23
369.167	8.24
369.53	8.28
369.893	8.26
370.256	8.19
370.619	8.21
370.982	8.23
371.345	8.24
371.708	8.17
372.071	8.19
372.434	8.18
372.797	8.31
373.159	8.32
373.522	8.3
373.885	8.18
374.247	8.17
374.61	8.2
374.973	8.15
375.335	8.12
375.698	8.12
376.06	8.06
376.423	8.01
376.785	8.06
377.147	8.01
377.51	7.96
377.872	8.08
378.234	8.06
378.596	8.08
378.958	8.12
379.321	8.16
379.683	8.15
380.045	8.18
380.407	8.11
380.769	8.12
381.13	8.12
381.492	8.17
381.854	8.14
382.216	8.13
382.578	8.13
382.939	8.1
383.301	8.06
383.663	8.08
384.024	8.12
384.386	8.08
384.747	8.12
385.109	8.14
385.47	8.08
385.832	8.06
386.193	8.12
386.554	8.04
386.916	8.05
387.277	8.04
387.638	8.03
387.999	8.04
388.36	8.08
388.721	8.09
389.082	8.12
389.443	8.19
389.804	8.16
390.165	8.13
390.526	8.14
390.887	8.16
391.248	8.15
391.609	8.14
391.969	8.16
392.33	8.16
392.691	8.21
393.051	8.25
393.412	8.29
393.772	8.27
394.133	8.28
394.493	8.26
394.854	8.25
395.214	8.28
395.574	8.3
395.935	8.26
396.295	8.25
396.655	8.25
397.015	8.21
397.376	8.27
397.736	8.26
398.096	8.25
398.456	8.19
398.816	8.2
399.176	8.17
399.535	8.14
399.895	8.16
400.255	8.07
400.615	8.06
400.975	8.03
401.334	7.99
401.694	7.99
402.054	7.99
402.413	8.01
402.773	7.95
403.132	7.96
403.492	7.95
403.851	7.93
404.211	7.9
404.57	7.92
404.929	7.84
405.288	7.89
405.648	7.88
406.007	7.91
406.366	7.9
406.725	7.89
407.084	7.9
407.443	7.86
407.802	7.89
408.161	7.86
408.52	7.86
408.879	7.89
409.238	7.86
409.596	7.86
409.955	7.84
410.314	7.85
410.673	7.82
411.031	7.81
411.39	7.86
411.748	7.89
412.107	7.84
412.465	7.86
412.824	7.85
413.182	7.85
413.54	7.86
413.899	7.84
414.257	7.87
414.615	7.87
414.974	7.87
415.332	7.86
415.69	7.87
416.048	7.86
416.406	7.83
416.764	7.85
417.122	7.82
417.48	7.84
417.838	7.82
418.195	7.82
418.553	7.84
418.911	7.8
419.269	7.8
419.626	7.81
419.984	7.79
420.342	7.78
420.699	7.78
421.057	7.79
421.414	7.8
421.772	7.8
422.129	7.79
422.486	7.78
422.844	7.78
423.201	7.79
423.558	7.78
423.915	7.77
424.273	7.76
424.63	7.78
424.987	7.76
425.344	7.78
425.701	7.78
426.058	7.76
426.415	7.75
426.772	7.73
427.128	7.74
427.485	7.76
427.842	7.75
428.199	7.76
428.555	7.73
428.912	7.71
429.269	7.71
429.625	7.7
429.982	7.72
430.338	7.71
430.695	7.67
431.051	7.72
431.407	7.75
431.764	7.74
432.12	7.74
432.476	7.77
432.832	7.78
433.189	7.77
433.545	7.79
433.901	7.82
434.257	7.83
434.613	7.81
434.969	7.79
435.325	7.81
435.681	7.8
436.036	7.79
436.392	7.81
436.748	7.82
437.104	7.84
437.459	7.85
437.815	7.82
438.171	7.85
438.526	7.81
438.882	7.8
439.237	7.8
439.593	7.82
439.948	7.8
440.304	7.82
440.659	7.82
441.014	7.8
441.369	7.79
441.725	7.76
442.08	7.77
442.435	7.79
442.79	7.76
443.145	7.75
443.5	7.77
443.855	7.77
444.21	7.76
444.565	7.76
444.92	7.75
445.275	7.77
445.629	7.77
445.984	7.77
446.339	7.79
446.693	7.8
447.048	7.78
447.403	7.77
447.757	7.75
448.112	7.74
448.466	7.75
448.82	7.76
449.175	7.77
449.529	7.77
449.883	7.78
450.238	7.79
450.592	7.78
450.946	7.76
451.3	7.77
451.654	7.75
452.008	7.75
452.362	7.76
452.716	7.75
453.07	7.74
453.424	7.76
453.778	7.75
454.132	7.76
454.486	7.77
454.839	7.79
455.193	7.79
455.547	7.79
455.9	7.79
456.254	7.78
456.607	7.79
456.961	7.8
457.314	7.78
457.668	7.79
458.021	7.83
458.375	7.85
458.728	7.86
459.081	7.88
459.434	7.87
459.787	7.86
460.141	7.88
460.494	7.89
460.847	7.88
461.2	7.88
461.553	7.87
461.906	7.88
462.259	7.85
462.611	7.84
462.964	7.86
463.317	7.86
463.67	7.86
464.022	7.87
464.375	7.86
464.728	7.86
465.08	7.87
465.433	7.84
465.785	7.82
466.138	7.81
466.49	7.8
466.843	7.81
467.195	7.82
467.547	7.82
467.899	7.82
468.252	7.81
468.604	7.82
468.956	7.82
469.308	7.8
469.66	7.81
470.012	7.83
470.364	7.82
470.716	7.82
471.068	7.82
471.42	7.81
471.772	7.85
472.123	7.88
472.475	7.89
472.827	7.89
473.178	7.93
473.53	7.95
473.882	7.95
474.233	7.95
474.585	7.94
474.936	7.95
475.288	7.96
475.639	7.99
475.99	7.96
476.342	7.95
476.693	7.98
477.044	7.97
477.395	7.98
477.746	7.98
478.097	7.99
478.448	8
478.8	7.97
479.15	7.92
479.501	7.9
479.852	7.9
480.203	7.92
480.554	7.92
480.905	7.92
481.255	7.93
481.606	7.92
481.957	7.96
482.307	7.96
482.658	7.97
483.009	7.96
483.359	7.99
483.709	8.02
484.06	8.02
484.41	8.03
484.761	8.04
485.111	8.04
485.461	8.05
485.811	8.06
486.162	8.07
486.512	8.08
486.862	8.09
487.212	8.1
487.562	8.09
487.912	8.08
488.262	8.08
488.612	8.08
488.961	8.09
489.311	8.08
489.661	8.09
490.011	8.09
490.36	8.1
490.71	8.09
491.06	8.06
491.409	8.06
491.759	8.08
492.108	8.08
492.458	8.08
492.807	8.07
493.157	8.07
493.506	8.08
493.855	8.09
494.204	8.09
494.554	8.09
494.903	8.1
495.252	8.12
495.601	8.12
495.95	8.13
496.299	8.12
496.648	8.12
496.997	8.12
497.346	8.11
497.695	8.1
498.043	8.12
498.392	8.13
498.741	8.12
499.09	8.13
499.438	8.13
499.787	8.12
500.135	8.12
500.484	8.1
500.832	8.08
501.181	8.07
501.529	8.08
501.878	8.06
502.226	8.06
502.574	8.09
502.923	8.08
503.271	8.09
503.619	8.13
503.967	8.1
504.315	8.1
504.663	8.1
505.011	8.09
505.359	8.08
505.707	8.06
506.055	8.06
506.403	8.01
506.751	8.03
507.098	8.06
507.446	8.06
507.794	8.07
508.141	8.09
508.489	8.12
508.837	8.11
509.184	8.12
509.531	8.14
509.879	8.11
510.226	8.11
510.574	8.12
510.921	8.11
511.268	8.15
511.616	8.16
511.963	8.16
512.31	8.17
512.657	8.19
513.004	8.2
513.351	8.22
513.698	8.24
514.045	8.24
514.392	8.23
514.739	8.24
515.086	8.25
515.432	8.26
515.779	8.23
516.126	8.27
516.473	8.27
516.819	8.27
517.166	8.31
517.512	8.33
517.859	8.32
518.205	8.3
518.552	8.29
518.898	8.27
519.245	8.27
519.591	8.28
519.937	8.27
520.283	8.28
520.629	8.27
520.976	8.27
521.322	8.28
521.668	8.27
522.014	8.29
522.36	8.32
522.706	8.33
523.052	8.36
523.398	8.37
523.743	8.38
524.089	8.4
524.435	8.39
524.781	8.39
525.126	8.41
525.472	8.46
525.817	8.46
526.163	8.46
526.509	8.48
526.854	8.48
527.199	8.48
527.545	8.49
527.89	8.5
528.235	8.5
528.581	8.49
528.926	8.51
529.271	8.51
529.616	8.51
529.961	8.52
530.306	8.52
530.651	8.52
530.996	8.52
531.341	8.54
531.686	8.54
532.031	8.54
532.376	8.54
532.721	8.5
533.065	8.52
533.41	8.53
533.755	8.51
534.099	8.51
534.444	8.52
534.788	8.52
535.133	8.53
535.477	8.53
535.822	8.53
536.166	8.52
536.51	8.52
536.855	8.49
537.199	8.48
537.543	8.48
537.887	8.49
538.231	8.48
538.576	8.47
538.92	8.48
539.264	8.49
539.608	8.49
539.951	8.51
540.295	8.49
540.639	8.5
540.983	8.51
541.327	8.53
541.671	8.54
542.014	8.56
542.358	8.55
542.701	8.57
543.045	8.57
543.389	8.57
543.732	8.58
544.075	8.6
544.419	8.61
544.762	8.61
545.105	8.63
545.449	8.65
545.792	8.64
546.135	8.66
546.478	8.65
546.821	8.66
547.165	8.67
547.508	8.67
547.851	8.66
548.194	8.65
548.536	8.61
548.879	8.59
549.222	8.58
549.565	8.57
549.908	8.54
550.25	8.56
550.593	8.55
550.936	8.56
551.278	8.55
551.621	8.52
551.963	8.55
552.306	8.54
552.648	8.51
552.991	8.51
553.333	8.49
553.675	8.5
554.017	8.45
554.36	8.46
554.702	8.49
555.044	8.51
555.386	8.54
555.728	8.57
556.07	8.58
556.412	8.6
556.754	8.61
557.096	8.63
557.438	8.67
557.78	8.65
558.121	8.63
558.463	8.63
558.805	8.67
559.147	8.61
559.488	8.61
559.83	8.65
560.171	8.61
560.513	8.62
560.854	8.59
561.196	8.65
561.537	8.63
561.878	8.62
562.22	8.61
562.561	8.62
562.902	8.62
563.243	8.65
563.584	8.65
563.925	8.62
564.266	8.59
564.607	8.56
564.948	8.54
565.289	8.54
565.63	8.55
565.971	8.5
566.312	8.53
566.653	8.52
566.993	8.51
567.334	8.56
567.675	8.58
568.015	8.59
568.356	8.57
568.696	8.58
569.037	8.58
569.377	8.6
569.718	8.59
570.058	8.58
570.398	8.57
570.739	8.56
571.079	8.62
571.419	8.6
571.759	8.62
572.099	8.69
572.439	8.71
572.779	8.76
573.119	8.78
573.459	8.77
573.799	8.78
574.139	8.77
574.479	8.78
574.819	8.78
575.158	8.77
575.498	8.76
575.838	8.76
576.177	8.75
576.517	8.73
576.856	8.76
577.196	8.76
577.535	8.72
577.875	8.72
578.214	8.7
578.553	8.75
578.893	8.77
579.232	8.72
579.571	8.71
579.91	8.69
580.25	8.71
580.589	8.68
580.928	8.69
581.267	8.73
581.606	8.74
581.945	8.69
582.283	8.72
582.622	8.72
582.961	8.75
583.3	8.76
583.639	8.8
583.977	8.77
584.316	8.79
584.654	8.82
584.993	8.8
585.332	8.82
585.67	8.88
586.008	8.85
586.347	8.87
586.685	8.83
587.024	8.81
587.362	8.82
587.7	8.86
588.038	8.88
588.376	8.86
588.715	8.82
589.053	8.84
589.391	8.82
589.729	8.84
590.067	8.87
590.404	8.87
590.742	8.87
591.08	8.85
591.418	8.86
591.756	8.87
592.093	8.9
592.431	8.87
592.769	8.85
593.106	8.81
593.444	8.84
593.781	8.86
594.119	8.86
594.456	8.81
594.793	8.81
595.131	8.78
595.468	8.78
595.805	8.77
596.143	8.82
596.48	8.84
596.817	8.86
597.154	8.83
597.491	8.85
597.828	8.86
598.165	8.84
598.502	8.84
598.839	8.85
599.176	8.86
599.512	8.84
599.849	8.85
600.186	8.88
600.523	8.86
600.859	8.88
601.196	8.91
601.532	8.94
601.869	8.93
602.205	8.97
602.542	9
602.878	8.98
603.215	8.93
603.551	8.91
603.887	8.87
604.223	8.92
604.56	8.91
604.896	8.92
605.232	8.94
605.568	8.97
605.904	8.98
606.24	9
606.576	9.04
606.912	9.02
607.248	9.04
607.583	9.09
607.919	9.07
608.255	9.07
608.591	9.14
608.926	9.11
609.262	9.07
609.597	9.04
609.933	9.1
610.268	9.14
610.604	9.15
610.939	9.19
611.275	9.13
611.61	9.18
611.945	9.15
612.281	9.18
612.616	9.15
612.951	9.19
613.286	9.16
613.621	9.14
613.956	9.16
614.291	9.15
614.626	9.13
614.961	9.15
615.296	9.13
615.631	9.09
615.966	9.1
616.3	9.13
616.635	9.14
616.97	9.14
617.304	9.12
617.639	9.16
617.973	9.14
618.308	9.21
618.642	9.13
618.977	9.11
619.311	9.16
619.646	9.2
619.98	9.2
620.314	9.21
620.648	9.2
620.983	9.17
621.317	9.25
621.651	9.25
621.985	9.24
622.319	9.23
622.653	9.22
622.987	9.28
623.321	9.27
623.655	9.29
623.988	9.33
624.322	9.32
624.656	9.38
624.99	9.37
625.323	9.31
625.657	9.35
625.99	9.37
626.324	9.28
626.657	9.27
626.991	9.23
627.324	9.23
627.658	9.22
627.991	9.24
628.324	9.18
628.657	9.12
628.991	9.18
629.324	9.2
629.657	9.24
629.99	9.26
630.323	9.26
630.656	9.28
630.989	9.18
631.322	9.22
631.655	9.15
631.987	9.17
632.32	9.23
632.653	9.23
632.986	9.23
633.318	9.28
633.651	9.27
633.984	9.3
634.316	9.27
634.649	9.26
634.981	9.3
635.313	9.35
635.646	9.43
635.978	9.41
636.31	9.42
636.643	9.4
636.975	9.41
637.307	9.48
637.639	9.48
637.971	9.57
638.303	9.6
638.635	9.6
638.967	9.64
639.299	9.59
639.631	9.58
639.963	9.61
640.295	9.57
640.626	9.53
640.958	9.5
641.29	9.58
641.621	9.62
641.953	9.57
642.285	9.58
642.616	9.5
642.948	9.51
643.279	9.5
643.61	9.55
643.942	9.5
644.273	9.5
644.604	9.5
644.936	9.5
645.267	9.46
645.598	9.5
645.929	9.46
646.26	9.47
646.591	9.5
646.922	9.57
647.253	9.66
647.584	9.68
647.915	9.73
648.245	9.67
648.576	9.7
648.907	9.71
649.238	9.65
649.568	9.7
649.899	9.65
650.229	9.7
650.56	9.65
650.89	9.69
651.221	9.67
651.551	9.72
651.882	9.68
652.212	9.71
652.542	9.68
652.872	9.64
653.203	9.73
653.533	9.72
653.863	9.61
654.193	9.58
654.523	9.57
654.853	9.55
655.183	9.6
655.513	9.57
655.843	9.56
656.172	9.61
656.502	9.62
656.832	9.67
657.162	9.59
657.491	9.63
657.821	9.62
658.15	9.55
658.48	9.53
658.809	9.57
659.139	9.59
659.468	9.63
659.798	9.7
660.127	9.61
660.456	9.62
660.785	9.68
661.115	9.67
661.444	9.74
661.773	9.7
662.102	9.62
662.431	9.64
662.76	9.68
663.089	9.74
663.418	9.79
663.747	9.77
664.076	9.81
664.404	9.8
664.733	9.79
665.062	9.86
665.39	9.83
665.719	9.79
666.048	9.72
666.376	9.67
666.705	9.62
667.033	9.74
667.362	9.76
667.69	9.75
668.018	9.8
668.347	9.79
668.675	9.78
669.003	9.84
669.331	9.84
669.659	9.77
669.987	9.82
670.315	9.77
670.643	9.67
670.971	9.69
671.299	9.69
671.627	9.7
671.955	9.69
672.283	9.73
672.61	9.77
672.938	9.89
673.266	9.91
673.593	9.92
673.921	9.85
674.249	9.77
674.576	9.71
674.904	9.62
675.231	9.64
675.558	9.75
675.886	9.78
676.213	9.7
676.54	9.77
676.867	9.68
677.195	9.71
677.522	9.85
677.849	9.85
678.176	9.87
678.503	9.84
678.83	9.82
679.157	9.78
679.484	9.77
679.81	9.65
680.137	9.7
680.464	9.69
680.791	9.71
681.117	9.8
681.444	9.86
681.771	10
682.097	10.08
682.424	10.05
682.75	10.16
683.077	10.25
683.403	10.3
683.729	10.35
684.056	10.39
684.382	10.42
684.708	10.44
685.034	10.51
685.36	10.43
685.686	10.44
686.012	10.49
686.339	10.44
686.664	10.53
686.99	10.44
687.316	10.54
687.642	10.57
687.968	10.51
688.294	10.52
688.619	10.44
688.945	10.39
689.271	10.38
689.596	10.26
689.922	10.33
690.247	10.33
690.573	10.33
690.898	10.31
691.224	10.3
691.549	10.25
691.874	10.23
692.2	10.3
692.525	10.27
692.85	10.24
693.175	10.38
693.5	10.43
693.825	10.54
694.15	10.47
694.475	10.49
694.8	10.41
695.125	10.39
695.45	10.42
695.775	10.31
696.099	10.37
696.424	10.4
696.749	10.31
697.073	10.23
697.398	10.21
697.723	10.16
698.047	10.1
698.372	10.25
698.696	10.3
699.02	10.3
699.345	10.36
699.669	10.44
699.993	10.39
700.318	10.34
700.642	10.3
700.966	10.3
701.29	10.3
701.614	10.47
701.938	10.5
702.262	10.51
702.586	10.6
702.91	10.53
703.234	10.44
703.557	10.5
703.881	10.56
704.205	10.52
704.529	10.52
704.852	10.56
705.176	10.55
705.499	10.32
705.823	10.39
706.146	10.38
706.47	10.36
706.793	10.45
707.117	10.46
707.44	10.47
707.763	10.63
708.086	10.49
708.409	10.39
708.733	10.45
709.056	10.54
709.379	10.5
709.702	10.53
710.025	10.69
710.348	10.64
710.671	10.81
710.993	10.82
711.316	10.96
711.639	10.88
711.962	10.9
712.284	10.95
712.607	10.93
712.93	10.95
713.252	11.05
713.575	11.07
713.897	10.99
714.22	11.06
714.542	10.96
714.864	11.04
715.187	11.07
715.509	11
715.831	10.97
716.153	10.99
716.475	11.02
716.798	10.84
717.12	10.89
717.442	10.65
717.764	10.7
718.085	10.57
718.407	10.69
718.729	10.54
719.051	10.63
719.373	10.66
719.695	10.66
720.016	10.45
720.338	10.2
720.659	10.39
720.981	10.33
721.302	10.39
721.624	10.45
721.945	10.43
722.267	10.4
722.588	10.32
722.909	10.29
723.231	10.46
723.552	10.72
723.873	10.7
724.194	10.8
724.515	10.77
724.836	10.89
725.157	10.89
725.478	10.98
725.799	11.09
726.12	10.95
726.441	10.94
726.762	11.01
727.083	11.19
727.403	11.12
727.724	11.2
728.045	11.14
728.365	11.04
728.686	11.16
729.006	11.25
729.327	11.38
729.647	11.49
729.967	11.46
730.288	11.21
730.608	11.29
730.928	11.36
731.249	11.47
731.569	11.43
731.889	11.56
732.209	11.46
732.529	11.44
732.849	11.71
733.169	11.8
733.489	11.78
733.809	11.8
734.129	11.74
734.448	11.73
734.768	11.65
735.088	11.9
735.408	11.79
735.727	11.84
736.047	11.68
736.366	11.66
736.686	11.47
737.005	11.62
737.325	11.51
737.644	11.41
737.963	11.41
738.283	11.17
738.602	10.85
738.921	10.8
739.24	10.92
739.56	10.82
739.879	10.74
740.198	10.82
740.517	10.74
740.836	10.99
741.155	10.81
741.473	10.83
741.792	10.7
742.111	10.76
742.43	10.81
742.748	10.9
743.067	10.94
743.386	10.75
743.704	10.88
744.023	10.99
744.341	10.97
744.66	10.71
744.978	10.94
745.297	11.11
745.615	11.23
745.933	10.9
746.252	10.66
746.57	10.84
746.888	10.75
747.206	10.7
747.524	10.34
747.842	10.42
748.16	10.69
748.478	10.68
748.796	10.87
749.114	10.77
749.432	10.64
749.749	10.63
750.067	11.01
750.385	11.02
750.703	11.14
751.02	11.49
751.338	11.69
751.655	11.62
751.973	11.52
752.29	11.3
752.608	11.42
752.925	11.57
753.242	11.54
753.56	11.5
753.877	11.44
754.194	11.83
754.511	11.71
754.828	11.58
755.145	11.65
755.462	11.76
755.779	11.64
756.096	11.77
756.413	11.69
756.73	11.78
757.047	11.67
757.364	11.79
757.68	11.52
757.997	11.42
758.314	11.59
758.63	11.83
758.947	12.33
759.264	12.43
759.58	12.66
759.896	12.5
760.213	12.69
760.529	12.88
760.846	12.63
761.162	12.72
761.478	12.79
761.794	12.6
762.11	12.28
762.426	12.34
762.743	12.29
763.059	12.39
763.375	12.25
763.69	12.36
764.006	12.25
764.322	12.27
764.638	12.49
764.954	12.41
765.27	12.17
765.585	11.88
765.901	11.72
766.216	11.53
766.532	11.47
766.848	11.22
767.163	11.15
767.478	11.19
767.794	11.35
768.109	11.12
768.424	11.05
768.74	10.94
769.055	11.13
769.37	11.11
769.685	11.02
770	10.96
770.315	11
770.63	10.82
770.945	10.56
771.26	10.62
771.575	10.61
771.89	10.68
772.205	10.71
772.52	10.69
772.834	10.52
773.149	10.53
773.464	10.67
773.778	10.72
774.093	10.81
774.407	10.58
774.722	10.89
775.036	10.98
775.351	11.53
775.665	11.21
775.979	11.26
776.293	11.32
776.608	11.48
776.922	11.04
777.236	11.25
777.55	11.44
777.864	11.32
778.178	11.05
778.492	10.94
778.806	11.52
779.12	11.72
779.434	11.92
779.747	12.02
780.061	12.37
780.375	12.53
780.689	12.57
781.002	13.21
781.316	13.02
781.629	13.12
781.943	13.14
782.256	13.34
782.57	13.1
782.883	13.13
783.196	12.78
783.51	12.89
783.823	13.15
784.136	13.69
784.449	13.61
784.762	13.9
785.075	14.39
785.388	14.04
785.701	13.84
786.014	14.05
786.327	14.25
786.64	13.99
786.953	14.1
787.266	13.79
787.578	13.05
787.891	13.26
788.204	13.42
788.516	13.45
788.829	13.51
789.141	14.01
789.454	14.14
789.766	15.05
790.079	15.25
790.391	15.23
790.703	14.58
791.016	14.9
791.328	15.59
791.64	15.61
791.952	15.98
792.264	16.01
792.576	16.19
792.888	16.2
793.2	16.58
793.512	16.28
793.824	16.7
794.136	17.35
794.448	17.78
794.76	17.81
795.071	17.78
795.383	17.52
795.695	17.26
796.006	17.1
796.318	16.53
796.629	16.66
796.941	16.47
797.252	16.84
797.564	16.7
797.875	16.55
798.186	16.16
798.497	15.75
798.809	15.84
799.12	15.67
799.431	15.97
799.742	15.73
800.053	15.66
800.364	15.76
800.675	15.22
800.986	14.45
801.297	14.35
801.608	14.17
801.918	14.48
802.229	14.61
802.54	14.64
802.851	15.15
803.161	15.03
803.472	15.29
803.782	15.65
804.093	15.55
804.403	15.19
804.714	16.06
805.024	16.24
805.334	16.45
805.645	16.45
805.955	16.28
806.265	17.21
806.575	17.83
806.885	17.56
807.195	18.03
807.505	19.01
807.815	19.31
808.125	19.32
808.435	19.57
808.745	19.51
809.055	19.99
809.365	19.11
809.674	18.95
809.984	18.5
810.294	18.62
810.603	18.09
810.913	18.4
811.222	17.73
811.532	17.26
811.841	17.7
812.151	17.47
812.46	17.16
812.769	16.05
813.079	16.41
813.388	16.26
813.697	16.22
814.006	16.22
814.315	16.07
814.624	16.79
814.933	16.17
815.242	16.27
815.551	15.71
815.86	16.73
816.169	17.1
816.478	17.17
816.786	16.84
817.095	16.77
817.404	16.63
817.712	16.77
818.021	17.5
818.33	17.48
818.638	17.61
818.947	17.38
819.255	16.98
819.563	15.83
819.872	15.84
820.18	15.6
820.488	15.86
820.796	15.88
821.105	15.8
821.413	15.83
821.721	15.65
822.029	15.5
822.337	15.16
822.645	15.17
822.953	15.27
823.26	15.24
823.568	15.32
823.876	15.19
824.184	15.28
824.491	15.03
824.799	15.03
825.107	15.04
825.414	15.09
825.722	15.02
826.029	15.19
826.337	15.15
826.644	15.4
826.951	14.95
827.259	14.83
827.566	14.53
827.873	14.51
828.18	14.66
828.488	14.85
828.795	14.99
829.102	14.97
829.409	14.68
829.716	14.77
830.023	14.62
830.329	15.02
830.636	14.7
830.943	15.32
831.25	15.16
831.557	15.23
831.863	15.46
832.17	16.09
832.476	16.05
832.783	15.92
833.089	15.58
833.396	16.06
833.702	16.46
834.009	17.01
834.315	17.05
834.621	17.16
834.928	17.28
835.234	17.55
835.54	17.38
835.846	17.69
836.152	17.62
836.458	17.79
836.764	17.66
837.07	17.68
837.376	17
837.682	17.21
837.988	17.41
838.293	17.04
838.599	16.17
838.905	16.84
839.211	17.37
839.516	17.21
839.822	17.17
840.127	16.69
840.433	16.6
840.738	17.03
841.044	16.82
841.349	16.19
841.654	15.35
841.959	15.7
842.265	16.36
842.57	15.82
842.875	16.04
843.18	15.74
843.485	15.32
843.79	15.7
844.095	14.94
844.4	15.15
844.705	16.22
845.01	17.09
845.315	15.71
845.619	15.51
845.924	15.42
846.229	15.92
846.533	16.22
846.838	15.12
847.142	14.25
847.447	15.78
847.751	16.8
848.056	16.31
848.36	16.44
848.664	15.63
848.969	17.57
849.273	18.44
849.577	17.48
849.881	20.23
850.185	20.15
850.489	21.76
850.794	23.52
851.097	23.5
851.401	24.91
851.705	26.56
852.009	25.83
852.313	23.53
852.617	23.39
852.92	23.68
853.224	24.86
853.528	27.48
853.831	26.23
854.135	24.31
854.438	25.67
854.742	25.04
855.045	24.24
855.349	21.49
855.652	21.38
855.955	22.41
856.259	20.93
856.562	22.5
856.865	21.08
857.168	18.15
857.471	16.14
857.774	17.2
858.077	15.74
858.38	17.01
858.683	20.16
858.986	18.67
859.289	17.35
859.592	18.87
859.894	15.18
860.197	15.65
860.5	17.33
860.802	16.69
861.105	18.15
861.407	17.03
861.71	18.99
862.012	20.29
862.315	20.13
862.617	22.48
862.919	22.22
863.222	23.29
863.524	22.17
863.826	22.62
864.128	23.64
864.43	25.05
864.732	25.63
865.034	26.06
865.336	30.48
865.638	28.67
865.94	27.97
866.242	31.86
866.544	30.52
866.846	30.76
867.147	33.93
867.449	33.49
867.751	36.03
868.052	36.68
868.354	34.39
868.655	35.29
868.957	31.42
869.258	31.19
869.56	30.94
869.861	33.08
870.162	34.25
870.463	30.27
870.765	30.27
871.066	29.4
871.367	28.58
871.668	26.06
871.969	30.75
872.27	30.82
872.571	30.49
872.872	32.96
873.173	32.15
873.473	30.86
873.774	34.35
874.075	33.58
874.376	31.02
874.676	31.49
874.977	32.12
875.277	33.61
875.578	33.34
875.878	33.11
876.179	32.75
876.479	32.29
876.78	34.6
877.08	34.79
877.38	37.29
877.68	39.03
877.981	37.65
878.281	37.11
878.581	35.48
