Data from BU58138_Reflection_00003.txt Node
Date: Mon Nov 18 16:42:03 EST 2019
User: vgr7
Spectrometer: USB2G7710
Scans to average: 3
Trigger mode: 4
Integration Time (sec): 2.000000E-2
Electric dark correction enabled: true
Boxcar width: 10
XAxis mode: Wavelengths
Number of Pixels in Spectrum: 2048
>>>>>Begin Spectral Data<<<<<
177.721	-31900
178.105	290.48
178.488	91.03
178.871	912.5
179.254	-60.58
179.636	6.37
180.019	-21.53
180.402	133.33
180.785	-30.81
181.168	39.23
181.55	51.34
181.933	76.16
182.316	102.88
182.698	137.69
183.081	113.27
183.463	96.46
183.846	101.82
184.228	132.07
184.611	141.72
184.993	241.49
185.376	234.49
185.758	164.99
186.14	180.22
186.522	202.01
186.904	314.45
187.287	1990.41
187.669	-1620.43
188.051	1792.31
188.433	442.18
188.815	11023.08
189.197	-1213.13
189.579	-356.14
189.961	-316.4
190.342	-295.42
190.724	-102.08
191.106	-70.54
191.488	-66.83
191.869	-81.98
192.251	-105.79
192.633	-126.2
193.014	-130.04
193.396	-146.4
193.777	-130.68
194.159	-103.08
194.54	-75.59
194.922	-63.96
195.303	-81.82
195.684	-64.49
196.065	-30.23
196.447	-18.49
196.828	-33.14
197.209	-45.24
197.59	-55.08
197.971	-67.63
198.352	-62.43
198.733	-77.82
199.114	-66.27
199.495	-56.95
199.876	-50.8
200.257	-47.63
200.638	-38.87
201.018	-39.17
201.399	-40.68
201.78	-36.74
202.16	-59.94
202.541	-90.4
202.922	-168.69
203.302	-177.09
203.683	-165.01
204.063	-183.94
204.444	-160.62
204.824	-133.65
205.204	-147.53
205.585	-142.82
205.965	-97.72
206.345	-104.49
206.725	-115.64
207.106	-117.36
207.486	-134.9
207.866	-131.47
208.246	-127.65
208.626	-111.24
209.006	-98.13
209.386	-115.38
209.766	-104.94
210.145	-76.63
210.525	-66.23
210.905	-56.07
211.285	-46.91
211.664	-45.99
212.044	-47.88
212.424	-53.28
212.803	-63.27
213.183	-47.88
213.562	-51.5
213.942	-50.25
214.321	-52.05
214.701	-59.03
215.08	-67.82
215.459	-62.02
215.838	-59.36
216.218	-56.26
216.597	-46.99
216.976	-45.18
217.355	-39.86
217.734	-32.57
218.113	-40.77
218.492	-45.76
218.871	-41.55
219.25	-56.43
219.629	-41.98
220.008	-68.76
220.387	-69.36
220.766	-80.86
221.144	-126.18
221.523	-112.16
221.902	-136.04
222.28	-161.18
222.659	-91.7
223.037	-79.74
223.416	-66.14
223.794	-60
224.173	-52.81
224.551	-46.83
224.929	-38.45
225.308	-25.35
225.686	-22
226.064	-18.32
226.442	-15.53
226.821	-14.4
227.199	-13.33
227.577	-16.72
227.955	-12.29
228.333	-11.3
228.711	-10.83
229.089	-7.35
229.467	-10.41
229.845	-12.97
230.222	-11.37
230.6	-12.29
230.978	-8.84
231.356	-6.57
231.733	-4.8
232.111	-2.99
232.488	-2.1
232.866	-3.38
233.243	-1.74
233.621	-1.45
233.998	-0.69
234.376	-0.83
234.753	-1.04
235.13	-0.32
235.508	-0.82
235.885	-1.11
236.262	-2.13
236.639	-1.51
237.016	-2.24
237.393	-0.16
237.77	0.49
238.147	1.83
238.524	2.79
238.901	3.11
239.278	2.49
239.655	2.99
240.032	2.65
240.409	2.85
240.785	3.19
241.162	2.55
241.539	2.44
241.915	2.56
242.292	2.47
242.668	2.68
243.045	3.11
243.421	3.53
243.798	3.58
244.174	3.75
244.551	3.88
244.927	3.98
245.303	4.21
245.679	4.38
246.056	4.26
246.432	4.11
246.808	3.91
247.184	3.94
247.56	3.61
247.936	3.63
248.312	3.32
248.688	3.32
249.064	3.36
249.44	3.41
249.815	3.55
250.191	3.75
250.567	3.66
250.943	3.55
251.318	3.49
251.694	3.46
252.069	3.37
252.445	3.16
252.82	2.99
253.196	2.67
253.571	2.49
253.947	2.7
254.322	2.76
254.697	2.95
255.073	3.04
255.448	2.91
255.823	3.12
256.198	3.6
256.573	3.46
256.948	3.45
257.323	3.39
257.698	3.15
258.073	3.07
258.448	3.23
258.823	3.2
259.198	3.23
259.573	3.28
259.948	3.42
260.322	3.6
260.697	3.63
261.072	3.53
261.446	3.38
261.821	3.17
262.195	3.11
262.57	2.94
262.944	2.71
263.319	2.8
263.693	2.65
264.067	2.33
264.442	2.41
264.816	2.17
265.19	1.99
265.564	2.1
265.938	1.86
266.313	1.73
266.687	1.92
267.061	1.92
267.435	2.1
267.809	2.17
268.183	2.02
268.556	1.96
268.93	2.07
269.304	2.37
269.678	2.51
270.051	2.5
270.425	2.61
270.799	2.86
271.172	2.93
271.546	2.9
271.919	2.88
272.293	3
272.666	3.22
273.04	3.34
273.413	3.15
273.787	3.22
274.16	3.24
274.533	3.07
274.906	2.92
275.279	2.76
275.653	2.75
276.026	2.76
276.399	2.79
276.772	2.81
277.145	2.62
277.518	2.55
277.891	2.52
278.263	2.57
278.636	2.43
279.009	2.27
279.382	2.26
279.755	2.36
280.127	2.26
280.5	2.26
280.872	2.23
281.245	2.44
281.617	2.69
281.99	2.83
282.362	2.87
282.735	2.88
283.107	2.78
283.479	2.78
283.852	2.89
284.224	2.94
284.596	2.95
284.968	3.08
285.34	3.15
285.713	3.14
286.085	3.15
286.457	3.23
286.829	3.34
287.201	3.49
287.572	3.51
287.944	3.47
288.316	3.41
288.688	3.44
289.06	3.41
289.431	3.25
289.803	3.23
290.175	3.31
290.546	3.47
290.918	3.65
291.289	3.76
291.661	3.75
292.032	3.93
292.403	4.02
292.775	4.1
293.146	4.05
293.517	4.12
293.889	4.15
294.26	4.11
294.631	4.07
295.002	3.94
295.373	4
295.744	4.13
296.115	4.13
296.486	4.1
296.857	4.12
297.228	4.26
297.599	4.18
297.97	4.2
298.34	4.24
298.711	4.25
299.082	4.15
299.452	4.18
299.823	4.14
300.194	4.09
300.564	3.94
300.935	3.99
301.305	4.09
301.676	4.15
302.046	4.1
302.416	4.2
302.787	4.27
303.157	4.27
303.527	4.23
303.897	4.4
304.267	4.45
304.637	4.52
305.008	4.42
305.378	4.58
305.748	4.73
306.117	4.62
306.487	4.49
306.857	4.58
307.227	4.69
307.597	4.57
307.967	4.54
308.336	4.55
308.706	4.45
309.076	4.3
309.445	4.27
309.815	4.33
310.184	4.25
310.554	4.42
310.923	4.33
311.293	4.18
311.662	4.15
312.031	4.21
312.401	4.07
312.77	4.15
313.139	4.19
313.508	4.05
313.877	4.06
314.246	4.14
314.616	4.01
314.985	3.87
315.353	3.91
315.722	3.99
316.091	4.05
316.46	4.09
316.829	4.14
317.198	4.14
317.567	4.23
317.935	4.34
318.304	4.21
318.672	4.34
319.041	4.62
319.41	4.56
319.778	4.48
320.147	4.68
320.515	4.76
320.883	4.69
321.252	4.78
321.62	4.77
321.988	4.75
322.357	4.84
322.725	4.77
323.093	4.77
323.461	4.7
323.829	4.65
324.197	4.82
324.565	4.9
324.933	4.96
325.301	4.91
325.669	4.86
326.037	4.84
326.405	4.83
326.772	4.75
327.14	4.84
327.508	4.86
327.875	4.7
328.243	4.6
328.61	4.47
328.978	4.36
329.346	4.36
329.713	4.3
330.08	4.22
330.448	4.18
330.815	4
331.182	3.95
331.55	3.99
331.917	3.88
332.284	3.78
332.651	3.72
333.018	3.72
333.385	3.77
333.752	3.86
334.119	3.85
334.486	3.84
334.853	3.71
335.22	3.6
335.587	3.69
335.954	3.71
336.32	3.71
336.687	3.75
337.054	3.8
337.42	3.94
337.787	4.07
338.153	4.12
338.52	4.29
338.886	4.28
339.253	4.21
339.619	4.2
339.986	4.3
340.352	4.3
340.718	4.28
341.084	4.24
341.451	4.22
341.817	4.25
342.183	4.25
342.549	4.27
342.915	4.33
343.281	4.42
343.647	4.47
344.013	4.48
344.379	4.46
344.745	4.42
345.11	4.45
345.476	4.45
345.842	4.36
346.208	4.36
346.573	4.42
346.939	4.48
347.304	4.45
347.67	4.33
348.035	4.25
348.401	4.23
348.766	4.19
349.132	4.13
349.497	4.09
349.862	4.15
350.228	4.21
350.593	4.2
350.958	4.17
351.323	4.19
351.688	4.22
352.053	4.25
352.418	4.34
352.783	4.24
353.148	4.15
353.513	4.21
353.878	4.14
354.243	4.19
354.608	4.23
354.972	4.28
355.337	4.32
355.702	4.39
356.066	4.51
356.431	4.55
356.795	4.6
357.16	4.61
357.524	4.5
357.889	4.44
358.253	4.52
358.618	4.55
358.982	4.51
359.346	4.46
359.71	4.45
360.075	4.35
360.439	4.41
360.803	4.41
361.167	4.35
361.531	4.41
361.895	4.4
362.259	4.35
362.623	4.33
362.987	4.35
363.351	4.41
363.714	4.38
364.078	4.3
364.442	4.23
364.806	4.29
365.169	4.3
365.533	4.35
365.896	4.28
366.26	4.22
366.623	4.17
366.987	4.21
367.35	4.16
367.714	4.23
368.077	4.22
368.44	4.25
368.803	4.29
369.167	4.27
369.53	4.2
369.893	4.24
370.256	4.23
370.619	4.2
370.982	4.09
371.345	4.08
371.708	4.19
372.071	4.27
372.434	4.12
372.797	4.15
373.159	4.12
373.522	4.19
373.885	4.25
374.247	4.31
374.61	4.32
374.973	4.34
375.335	4.32
375.698	4.31
376.06	4.34
376.423	4.36
376.785	4.38
377.147	4.45
377.51	4.46
377.872	4.53
378.234	4.6
378.596	4.64
378.958	4.62
379.321	4.57
379.683	4.55
380.045	4.58
380.407	4.55
380.769	4.52
381.13	4.49
381.492	4.46
381.854	4.46
382.216	4.48
382.578	4.47
382.939	4.55
383.301	4.53
383.663	4.5
384.024	4.53
384.386	4.53
384.747	4.52
385.109	4.53
385.47	4.48
385.832	4.43
386.193	4.5
386.554	4.49
386.916	4.52
387.277	4.49
387.638	4.55
387.999	4.56
388.36	4.6
388.721	4.58
389.082	4.56
389.443	4.56
389.804	4.53
390.165	4.53
390.526	4.5
390.887	4.5
391.248	4.51
391.609	4.51
391.969	4.52
392.33	4.55
392.691	4.53
393.051	4.52
393.412	4.53
393.772	4.46
394.133	4.49
394.493	4.47
394.854	4.49
395.214	4.49
395.574	4.51
395.935	4.5
396.295	4.54
396.655	4.59
397.015	4.59
397.376	4.59
397.736	4.62
398.096	4.59
398.456	4.6
398.816	4.62
399.176	4.58
399.535	4.55
399.895	4.5
400.255	4.5
400.615	4.5
400.975	4.47
401.334	4.5
401.694	4.5
402.054	4.51
402.413	4.52
402.773	4.48
403.132	4.47
403.492	4.46
403.851	4.42
404.211	4.35
404.57	4.34
404.929	4.35
405.288	4.34
405.648	4.34
406.007	4.34
406.366	4.34
406.725	4.39
407.084	4.43
407.443	4.44
407.802	4.46
408.161	4.48
408.52	4.51
408.879	4.5
409.238	4.46
409.596	4.47
409.955	4.44
410.314	4.46
410.673	4.46
411.031	4.48
411.39	4.47
411.748	4.46
412.107	4.49
412.465	4.47
412.824	4.48
413.182	4.48
413.54	4.49
413.899	4.48
414.257	4.46
414.615	4.44
414.974	4.45
415.332	4.4
415.69	4.39
416.048	4.37
416.406	4.38
416.764	4.38
417.122	4.37
417.48	4.38
417.838	4.39
418.195	4.41
418.553	4.41
418.911	4.42
419.269	4.44
419.626	4.41
419.984	4.41
420.342	4.4
420.699	4.39
421.057	4.39
421.414	4.38
421.772	4.38
422.129	4.38
422.486	4.37
422.844	4.37
423.201	4.38
423.558	4.38
423.915	4.37
424.273	4.39
424.63	4.37
424.987	4.37
425.344	4.36
425.701	4.36
426.058	4.35
426.415	4.34
426.772	4.32
427.128	4.32
427.485	4.32
427.842	4.32
428.199	4.34
428.555	4.34
428.912	4.35
429.269	4.35
429.625	4.36
429.982	4.35
430.338	4.36
430.695	4.36
431.051	4.35
431.407	4.37
431.764	4.36
432.12	4.39
432.476	4.4
432.832	4.39
433.189	4.39
433.545	4.39
433.901	4.39
434.257	4.4
434.613	4.43
434.969	4.43
435.325	4.45
435.681	4.43
436.036	4.41
436.392	4.39
436.748	4.37
437.104	4.36
437.459	4.37
437.815	4.37
438.171	4.36
438.526	4.36
438.882	4.35
439.237	4.35
439.593	4.37
439.948	4.35
440.304	4.36
440.659	4.36
441.014	4.38
441.369	4.37
441.725	4.37
442.08	4.35
442.435	4.37
442.79	4.36
443.145	4.36
443.5	4.38
443.855	4.37
444.21	4.37
444.565	4.4
444.92	4.4
445.275	4.39
445.629	4.4
445.984	4.4
446.339	4.39
446.693	4.39
447.048	4.36
447.403	4.36
447.757	4.37
448.112	4.35
448.466	4.33
448.82	4.33
449.175	4.36
449.529	4.36
449.883	4.33
450.238	4.33
450.592	4.33
450.946	4.29
451.3	4.3
451.654	4.31
452.008	4.28
452.362	4.26
452.716	4.27
453.07	4.27
453.424	4.28
453.778	4.3
454.132	4.27
454.486	4.27
454.839	4.27
455.193	4.25
455.547	4.27
455.9	4.26
456.254	4.28
456.607	4.24
456.961	4.26
457.314	4.27
457.668	4.29
458.021	4.3
458.375	4.33
458.728	4.34
459.081	4.36
459.434	4.36
459.787	4.37
460.141	4.37
460.494	4.37
460.847	4.37
461.2	4.37
461.553	4.38
461.906	4.37
462.259	4.4
462.611	4.43
462.964	4.44
463.317	4.46
463.67	4.46
464.022	4.46
464.375	4.46
464.728	4.47
465.08	4.46
465.433	4.45
465.785	4.45
466.138	4.45
466.49	4.4
466.843	4.41
467.195	4.41
467.547	4.44
467.899	4.43
468.252	4.42
468.604	4.4
468.956	4.41
469.308	4.44
469.66	4.41
470.012	4.38
470.364	4.4
470.716	4.39
471.068	4.37
471.42	4.39
471.772	4.4
472.123	4.39
472.475	4.4
472.827	4.43
473.178	4.42
473.53	4.43
473.882	4.46
474.233	4.46
474.585	4.45
474.936	4.43
475.288	4.43
475.639	4.45
475.99	4.47
476.342	4.49
476.693	4.5
477.044	4.5
477.395	4.52
477.746	4.52
478.097	4.51
478.448	4.51
478.8	4.51
479.15	4.51
479.501	4.51
479.852	4.53
480.203	4.52
480.554	4.53
480.905	4.53
481.255	4.53
481.606	4.54
481.957	4.55
482.307	4.56
482.658	4.57
483.009	4.57
483.359	4.56
483.709	4.56
484.06	4.56
484.41	4.57
484.761	4.56
485.111	4.57
485.461	4.57
485.811	4.57
486.162	4.58
486.512	4.59
486.862	4.59
487.212	4.58
487.562	4.58
487.912	4.57
488.262	4.57
488.612	4.57
488.961	4.56
489.311	4.56
489.661	4.55
490.011	4.55
490.36	4.54
490.71	4.54
491.06	4.53
491.409	4.52
491.759	4.51
492.108	4.52
492.458	4.52
492.807	4.5
493.157	4.49
493.506	4.51
493.855	4.5
494.204	4.49
494.554	4.49
494.903	4.49
495.252	4.49
495.601	4.5
495.95	4.52
496.299	4.52
496.648	4.52
496.997	4.53
497.346	4.52
497.695	4.54
498.043	4.56
498.392	4.56
498.741	4.58
499.09	4.57
499.438	4.58
499.787	4.59
500.135	4.63
500.484	4.66
500.832	4.62
501.181	4.65
501.529	4.66
501.878	4.67
502.226	4.68
502.574	4.69
502.923	4.67
503.271	4.67
503.619	4.68
503.967	4.67
504.315	4.67
504.663	4.69
505.011	4.69
505.359	4.7
505.707	4.71
506.055	4.7
506.403	4.71
506.751	4.73
507.098	4.72
507.446	4.72
507.794	4.71
508.141	4.71
508.489	4.71
508.837	4.73
509.184	4.74
509.531	4.77
509.879	4.78
510.226	4.81
510.574	4.8
510.921	4.82
511.268	4.83
511.616	4.84
511.963	4.81
512.31	4.83
512.657	4.83
513.004	4.85
513.351	4.89
513.698	4.89
514.045	4.91
514.392	4.93
514.739	4.94
515.086	4.96
515.432	4.99
515.779	4.99
516.126	5.01
516.473	5.02
516.819	5.03
517.166	5.01
517.512	5
517.859	5.01
518.205	5.02
518.552	5.02
518.898	5.03
519.245	5.05
519.591	5.03
519.937	5.01
520.283	5
520.629	4.98
520.976	4.98
521.322	4.97
521.668	4.96
522.014	4.94
522.36	4.93
522.706	4.93
523.052	4.93
523.398	4.93
523.743	4.94
524.089	4.94
524.435	4.95
524.781	4.95
525.126	4.98
525.472	5
525.817	5.01
526.163	4.99
526.509	5.01
526.854	5.03
527.199	5.05
527.545	5.05
527.89	5.06
528.235	5.07
528.581	5.07
528.926	5.08
529.271	5.1
529.616	5.11
529.961	5.12
530.306	5.12
530.651	5.12
530.996	5.12
531.341	5.12
531.686	5.12
532.031	5.12
532.376	5.11
532.721	5.11
533.065	5.11
533.41	5.12
533.755	5.13
534.099	5.13
534.444	5.12
534.788	5.13
535.133	5.13
535.477	5.13
535.822	5.12
536.166	5.11
536.51	5.11
536.855	5.11
537.199	5.11
537.543	5.1
537.887	5.1
538.231	5.09
538.576	5.09
538.92	5.12
539.264	5.12
539.608	5.13
539.951	5.13
540.295	5.13
540.639	5.16
540.983	5.16
541.327	5.15
541.671	5.16
542.014	5.17
542.358	5.18
542.701	5.19
543.045	5.2
543.389	5.19
543.732	5.19
544.075	5.2
544.419	5.2
544.762	5.19
545.105	5.19
545.449	5.19
545.792	5.21
546.135	5.18
546.478	5.19
546.821	5.2
547.165	5.2
547.508	5.2
547.851	5.16
548.194	5.14
548.536	5.15
548.879	5.16
549.222	5.15
549.565	5.15
549.908	5.14
550.25	5.13
550.593	5.16
550.936	5.17
551.278	5.16
551.621	5.18
551.963	5.19
552.306	5.21
552.648	5.21
552.991	5.24
553.333	5.24
553.675	5.24
554.017	5.24
554.36	5.24
554.702	5.24
555.044	5.23
555.386	5.24
555.728	5.22
556.07	5.22
556.412	5.21
556.754	5.19
557.096	5.18
557.438	5.19
557.78	5.18
558.121	5.2
558.463	5.2
558.805	5.21
559.147	5.21
559.488	5.22
559.83	5.24
560.171	5.22
560.513	5.25
560.854	5.26
561.196	5.26
561.537	5.27
561.878	5.27
562.22	5.27
562.561	5.27
562.902	5.29
563.243	5.29
563.584	5.29
563.925	5.29
564.266	5.31
564.607	5.28
564.948	5.31
565.289	5.3
565.63	5.28
565.971	5.22
566.312	5.22
566.653	5.18
566.993	5.19
567.334	5.18
567.675	5.14
568.015	5.14
568.356	5.14
568.696	5.16
569.037	5.15
569.377	5.14
569.718	5.17
570.058	5.16
570.398	5.18
570.739	5.18
571.079	5.17
571.419	5.16
571.759	5.19
572.099	5.17
572.439	5.15
572.779	5.13
573.119	5.16
573.459	5.18
573.799	5.22
574.139	5.22
574.479	5.21
574.819	5.22
575.158	5.19
575.498	5.18
575.838	5.18
576.177	5.15
576.517	5.15
576.856	5.15
577.196	5.15
577.535	5.15
577.875	5.16
578.214	5.16
578.553	5.2
578.893	5.17
579.232	5.19
579.571	5.18
579.91	5.22
580.25	5.18
580.589	5.18
580.928	5.19
581.267	5.18
581.606	5.17
581.945	5.2
582.283	5.23
582.622	5.29
582.961	5.27
583.3	5.32
583.639	5.35
583.977	5.32
584.316	5.32
584.654	5.25
584.993	5.24
585.332	5.27
585.67	5.27
586.008	5.28
586.347	5.27
586.685	5.26
587.024	5.26
587.362	5.26
587.7	5.23
588.038	5.22
588.376	5.23
588.715	5.25
589.053	5.26
589.391	5.31
589.729	5.27
590.067	5.26
590.404	5.26
590.742	5.28
591.08	5.3
591.418	5.28
591.756	5.36
592.093	5.37
592.431	5.37
592.769	5.39
593.106	5.38
593.444	5.35
593.781	5.38
594.119	5.42
594.456	5.47
594.793	5.46
595.131	5.44
595.468	5.46
595.805	5.46
596.143	5.46
596.48	5.44
596.817	5.42
597.154	5.45
597.491	5.46
597.828	5.45
598.165	5.44
598.502	5.47
598.839	5.43
599.176	5.44
599.512	5.41
599.849	5.4
600.186	5.4
600.523	5.43
600.859	5.45
601.196	5.44
601.532	5.41
601.869	5.42
602.205	5.44
602.542	5.43
602.878	5.41
603.215	5.42
603.551	5.41
603.887	5.45
604.223	5.44
604.56	5.48
604.896	5.48
605.232	5.5
605.568	5.5
605.904	5.52
606.24	5.54
606.576	5.54
606.912	5.51
607.248	5.49
607.583	5.52
607.919	5.49
608.255	5.52
608.591	5.55
608.926	5.59
609.262	5.58
609.597	5.56
609.933	5.6
610.268	5.59
610.604	5.6
610.939	5.56
611.275	5.55
611.61	5.51
611.945	5.51
612.281	5.49
612.616	5.48
612.951	5.49
613.286	5.46
613.621	5.43
613.956	5.47
614.291	5.52
614.626	5.48
614.961	5.5
615.296	5.46
615.631	5.43
615.966	5.36
616.3	5.39
616.635	5.43
616.97	5.41
617.304	5.4
617.639	5.41
617.973	5.41
618.308	5.43
618.642	5.43
618.977	5.4
619.311	5.4
619.646	5.43
619.98	5.4
620.314	5.42
620.648	5.5
620.983	5.48
621.317	5.49
621.651	5.52
621.985	5.47
622.319	5.49
622.653	5.53
622.987	5.58
623.321	5.54
623.655	5.54
623.988	5.56
624.322	5.54
624.656	5.58
624.99	5.61
625.323	5.58
625.657	5.59
625.99	5.63
626.324	5.65
626.657	5.64
626.991	5.65
627.324	5.65
627.658	5.66
627.991	5.69
628.324	5.64
628.657	5.6
628.991	5.63
629.324	5.64
629.657	5.61
629.99	5.66
630.323	5.7
630.656	5.72
630.989	5.72
631.322	5.73
631.655	5.67
631.987	5.68
632.32	5.68
632.653	5.69
632.986	5.71
633.318	5.68
633.651	5.69
633.984	5.67
634.316	5.65
634.649	5.59
634.981	5.59
635.313	5.57
635.646	5.63
635.978	5.66
636.31	5.61
636.643	5.57
636.975	5.56
637.307	5.56
637.639	5.52
637.971	5.47
638.303	5.51
638.635	5.49
638.967	5.42
639.299	5.48
639.631	5.44
639.963	5.37
640.295	5.36
640.626	5.33
640.958	5.4
641.29	5.37
641.621	5.39
641.953	5.35
642.285	5.4
642.616	5.38
642.948	5.39
643.279	5.43
643.61	5.51
643.942	5.48
644.273	5.45
644.604	5.41
644.936	5.46
645.267	5.45
645.598	5.44
645.929	5.52
646.26	5.5
646.591	5.53
646.922	5.5
647.253	5.52
647.584	5.55
647.915	5.54
648.245	5.61
648.576	5.62
648.907	5.62
649.238	5.59
649.568	5.55
649.899	5.58
650.229	5.54
650.56	5.48
650.89	5.49
651.221	5.53
651.551	5.53
651.882	5.49
652.212	5.47
652.542	5.55
652.872	5.53
653.203	5.5
653.533	5.47
653.863	5.56
654.193	5.59
654.523	5.59
654.853	5.54
655.183	5.55
655.513	5.58
655.843	5.58
656.172	5.59
656.502	5.67
656.832	5.6
657.162	5.63
657.491	5.66
657.821	5.6
658.15	5.59
658.48	5.55
658.809	5.6
659.139	5.53
659.468	5.46
659.798	5.5
660.127	5.52
660.456	5.58
660.785	5.53
661.115	5.48
661.444	5.49
661.773	5.54
662.102	5.52
662.431	5.52
662.76	5.5
663.089	5.49
663.418	5.42
663.747	5.44
664.076	5.45
664.404	5.47
664.733	5.46
665.062	5.44
665.39	5.5
665.719	5.52
666.048	5.6
666.376	5.63
666.705	5.57
667.033	5.55
667.362	5.56
667.69	5.58
668.018	5.62
668.347	5.61
668.675	5.63
669.003	5.66
669.331	5.7
669.659	5.74
669.987	5.7
670.315	5.74
670.643	5.76
670.971	5.77
671.299	5.84
671.627	5.93
671.955	5.89
672.283	5.93
672.61	5.91
672.938	6.03
673.266	6.11
673.593	6.23
673.921	6.25
674.249	6.19
674.576	6.21
674.904	6.22
675.231	6.12
675.558	6.09
675.886	6.04
676.213	6
676.54	6.04
676.867	6.1
677.195	6.2
677.522	6.14
677.849	6.21
678.176	6.13
678.503	6.05
678.83	6.16
679.157	6.12
679.484	6.08
679.81	5.99
680.137	5.87
680.464	5.78
680.791	5.8
681.117	5.77
681.444	5.76
681.771	5.81
682.097	5.88
682.424	5.92
682.75	5.93
683.077	5.87
683.403	5.85
683.729	5.84
684.056	5.79
684.382	5.89
684.708	5.77
685.034	5.85
685.36	5.96
685.686	5.85
686.012	5.82
686.339	5.88
686.664	5.78
686.99	5.92
687.316	5.95
687.642	5.99
687.968	6.02
688.294	6.07
688.619	6.04
688.945	6.01
689.271	5.93
689.596	5.99
689.922	6.12
690.247	6.15
690.573	6.13
690.898	6.12
691.224	6.06
691.549	6.07
691.874	6.01
692.2	6.02
692.525	6.04
692.85	6.12
693.175	6.11
693.5	6.15
693.825	6.03
694.15	6.01
694.475	5.92
694.8	5.99
695.125	5.87
695.45	5.8
695.775	5.81
696.099	5.89
696.424	5.78
696.749	5.67
697.073	5.63
697.398	5.64
697.723	5.75
698.047	5.7
698.372	5.68
698.696	5.64
699.02	5.56
699.345	5.61
699.669	5.68
699.993	5.6
700.318	5.56
700.642	5.54
700.966	5.58
701.29	5.59
701.614	5.57
701.938	5.62
702.262	5.7
702.586	5.77
702.91	5.64
703.234	5.81
703.557	5.95
703.881	5.99
704.205	6.11
704.529	6.03
704.852	6.16
705.176	6.21
705.499	6.35
705.823	6.39
706.146	6.35
706.47	6.27
706.793	6.37
707.117	6.45
707.44	6.49
707.763	6.31
708.086	6.26
708.409	6.19
708.733	6.16
709.056	6.06
709.379	6.18
709.702	6.21
710.025	6.11
710.348	5.99
710.671	5.85
710.993	5.75
711.316	5.59
711.639	5.58
711.962	5.59
712.284	5.67
712.607	5.74
712.93	5.85
713.252	5.89
713.575	5.93
713.897	5.96
714.22	5.93
714.542	6.21
714.864	6.3
715.187	6.36
715.509	6.49
715.831	6.7
716.153	6.63
716.475	6.68
716.798	6.7
717.12	6.66
717.442	6.88
717.764	7
718.085	7.12
718.407	7.11
718.729	7.1
719.051	7.06
719.373	7.04
719.695	6.95
720.016	6.81
720.338	6.89
720.659	6.92
720.981	6.89
721.302	6.76
721.624	6.73
721.945	6.74
722.267	6.59
722.588	6.31
722.909	6.01
723.231	6.04
723.552	6.03
723.873	6.13
724.194	5.97
724.515	5.95
724.836	5.82
725.157	5.8
725.478	5.56
725.799	5.36
726.12	5.31
726.441	5.39
726.762	5.58
727.083	5.51
727.403	5.61
727.724	5.84
728.045	5.78
728.365	5.81
728.686	5.71
729.006	5.84
729.327	5.86
729.647	6.15
729.967	6.31
730.288	6.31
730.608	6.14
730.928	6.22
731.249	6.06
731.569	6.31
731.889	6.26
732.209	6.47
732.529	6.6
732.849	6.65
733.169	6.67
733.489	6.59
733.809	6.5
734.129	6.42
734.448	6.4
734.768	6.4
735.088	6.38
735.408	6.44
735.727	6.34
736.047	6.51
736.366	6.25
736.686	6.1
737.005	6.12
737.325	6.31
737.644	6.19
737.963	6.16
738.283	5.77
738.602	5.75
738.921	5.81
739.24	5.65
739.56	5.74
739.879	5.56
740.198	5.5
740.517	5.47
740.836	5.36
741.155	5.11
741.473	5.22
741.792	5.24
742.111	5.32
742.43	5.48
742.748	5.3
743.067	5.31
743.386	5.42
743.704	5.3
744.023	5.44
744.341	5.49
744.66	5.69
744.978	5.73
745.297	5.9
745.615	6
745.933	6.06
746.252	5.94
746.57	5.94
746.888	6.12
747.206	6.16
747.524	6.33
747.842	6.76
748.16	6.87
748.478	6.81
748.796	6.85
749.114	6.82
749.432	6.84
749.749	7.09
750.067	6.85
750.385	7.04
750.703	6.87
751.02	6.86
751.338	6.7
751.655	6.91
751.973	6.87
752.29	6.66
752.608	6.76
752.925	6.9
753.242	7.05
753.56	7.01
753.877	7.12
754.194	6.87
754.511	6.58
754.828	6.4
755.145	6.22
755.462	6.16
755.779	6.1
756.096	5.85
756.413	5.89
756.73	6.02
757.047	6
757.364	6
757.68	6.09
757.997	6.17
758.314	6
758.63	6
758.947	6.18
759.264	6.08
759.58	6.01
759.896	6.21
760.213	6.33
760.529	6.38
760.846	6.41
761.162	6.44
761.478	6.59
761.794	6.77
762.11	6.86
762.426	6.88
762.743	7.12
763.059	7.04
763.375	7.03
763.69	7.06
764.006	7.15
764.322	7.18
764.638	7.23
764.954	7.4
765.27	7.43
765.585	7.44
765.901	7.55
766.216	7.56
766.532	7.36
766.848	7.12
767.163	6.95
767.478	7.2
767.794	7.21
768.109	6.95
768.424	7.23
768.74	7.23
769.055	7.09
769.37	7.12
769.685	7.08
770	7.17
770.315	6.89
770.63	6.43
770.945	6.23
771.26	6.12
771.575	5.83
771.89	5.65
772.205	5.34
772.52	5.44
772.834	5.25
773.149	5.52
773.464	5.55
773.778	5.73
774.093	5.26
774.407	5.24
774.722	5.22
775.036	4.92
775.351	4.98
775.665	4.96
775.979	4.9
776.293	5.04
776.608	5.01
776.922	5.04
777.236	5.3
777.55	5.35
777.864	5.46
778.178	5.79
778.492	5.87
778.806	5.88
779.12	5.84
779.434	5.81
779.747	5.52
780.061	5.33
780.375	5.34
780.689	5.6
781.002	5.75
781.316	5.94
781.629	6.1
781.943	5.95
782.256	6.25
782.57	6.06
782.883	5.77
783.196	5.5
783.51	5.58
783.823	5.28
784.136	5.54
784.449	5.57
784.762	5.71
785.075	6.03
785.388	6.11
785.701	5.97
786.014	6.22
786.327	6.52
786.64	7.37
786.953	7.53
787.266	7.72
787.578	7.52
787.891	7.7
788.204	7.59
788.516	7.69
788.829	7.82
789.141	8.03
789.454	8.52
789.766	8.72
790.079	8.95
790.391	9.21
790.703	9.28
791.016	9.25
791.328	9.17
791.64	8.79
791.952	9.2
792.264	8.67
792.576	8.43
792.888	8.22
793.2	8.04
793.512	7.85
793.824	7.85
794.136	8.2
794.448	8.28
794.76	8.22
795.071	7.98
795.383	7.21
795.695	6.98
796.006	6.61
796.318	6.58
796.629	6.69
796.941	6.66
797.252	6.5
797.564	6.63
797.875	6.81
798.186	7.16
798.497	7.1
798.809	7.63
799.12	7.81
799.431	7.8
799.742	7.79
800.053	7.83
800.364	7.94
800.675	7.34
800.986	6.98
801.297	6.92
801.608	7.04
801.918	7.61
802.229	7.61
802.54	7.46
802.851	7.49
803.161	7.07
803.472	7.1
803.782	6.93
804.093	6.76
804.403	6.08
804.714	5.81
805.024	4.98
805.334	4.8
805.645	5.17
805.955	5.22
806.265	5.24
806.575	5.08
806.885	5.2
807.195	6.18
807.505	6.56
807.815	6.42
808.125	6.47
808.435	5.94
808.745	6.21
809.055	6.45
809.365	5.94
809.674	6.31
809.984	6.32
810.294	6.02
810.603	6.46
810.913	7.1
811.222	7.22
811.532	7.93
811.841	8.02
812.151	7.59
812.46	7.31
812.769	6.6
813.079	6.11
813.388	5.66
813.697	4.96
814.006	4.74
814.315	4.93
814.624	5.11
814.933	5.71
815.242	5.41
815.551	5.67
815.86	6.42
816.169	5.86
816.478	6.55
816.786	7.14
817.095	6.37
817.404	6.57
817.712	6.33
818.021	6.55
818.33	6.74
818.638	7.06
818.947	7.43
819.255	7.72
819.563	8.18
819.872	7.88
820.18	7.94
820.488	8.05
820.796	8.18
821.105	8.14
821.413	7.96
821.721	8.14
822.029	8.08
822.337	8.02
822.645	8.29
822.953	8.18
823.26	8.26
823.568	8.25
823.876	8.26
824.184	8.32
824.491	8.22
824.799	8.32
825.107	8.31
825.414	8.41
825.722	8.38
826.029	8.45
826.337	8.76
826.644	8.81
826.951	8.71
827.259	8.44
827.566	8.45
827.873	8.65
828.18	8.7
828.488	8.81
828.795	8.67
829.102	8.58
829.409	8.76
829.716	8.67
830.023	8.93
830.329	8.7
830.636	8.66
830.943	8.73
831.25	8.2
831.557	7.91
831.863	7.56
832.17	7.66
832.476	7.61
832.783	7.53
833.089	7.27
833.396	7.53
833.702	8
834.009	7.71
834.315	7.64
834.621	7.27
834.928	7.23
835.234	7.51
835.54	7.36
835.846	7.11
836.152	7.1
836.458	7.09
836.764	7.32
837.07	7.61
837.376	7.43
837.682	8.06
837.988	7.72
838.293	7.85
838.599	7.05
838.905	6.57
839.211	5.62
839.516	5.91
839.822	5.89
840.127	4.98
840.433	5.88
840.738	5.54
841.044	5.81
841.349	6.29
841.654	6.62
841.959	7.1
842.265	7.15
842.57	6.7
842.875	5.96
843.18	4.86
843.485	4.84
843.79	4.72
844.095	3.78
844.4	5.28
844.705	4.46
845.01	5.85
845.315	4.98
845.619	6.15
845.924	5.41
846.229	5.42
846.533	5.95
846.838	4.03
847.142	4.29
847.447	2.31
847.751	-0.37
848.056	-1.23
848.36	-1.98
848.664	-2.59
848.969	-3.52
849.273	-2.85
849.577	-2.77
849.881	-3.71
850.185	-0.72
850.489	0.88
850.794	0.72
851.097	1.64
851.401	0.7
851.705	1.63
852.009	1.89
852.313	2.14
852.617	1.32
852.92	2.61
853.224	0.73
853.528	2.73
853.831	3.94
854.135	5.05
854.438	4.42
854.742	3.31
855.045	2.88
855.349	5.87
855.652	5.95
855.955	6.5
856.259	6.09
856.562	4.63
856.865	5.27
857.168	5.3
857.471	5.14
857.774	6.2
858.077	7.62
858.38	9.03
858.683	8.58
858.986	7.73
859.289	7.33
859.592	10.33
859.894	9.48
860.197	10.63
860.5	10.45
860.802	10.97
861.105	11.28
861.407	9.65
861.71	8.99
862.012	9.36
862.315	8.9
862.617	9.73
862.919	10.47
863.222	9.8
863.524	9.03
863.826	9.13
864.128	8.04
864.43	7.92
864.732	7.39
865.034	8.96
865.336	6.54
865.638	7.08
865.94	7.17
866.242	7.89
866.544	7.19
866.846	7.99
867.147	8.56
867.449	8.12
867.751	9.19
868.052	9.55
868.354	8.46
868.655	10.99
868.957	10.3
869.258	7.41
869.56	5.01
869.861	5.44
870.162	5.06
870.463	7.86
870.765	6.82
871.066	5.46
871.367	3.87
871.668	6.56
871.969	5.23
872.27	3.67
872.571	1.64
872.872	3.17
873.173	3.19
873.473	2.41
873.774	5.73
874.075	5.41
874.376	3.11
874.676	4.11
874.977	1.47
875.277	3.15
875.578	4.88
875.878	6.39
876.179	7.01
876.479	7.08
876.78	4.9
877.08	5.63
877.38	4.76
877.68	6.03
877.981	6.9
878.281	8.47
878.581	10.84
