Data from BU58129_Reflection_00001.txt Node
Date: Mon Nov 18 16:34:50 EST 2019
User: vgr7
Spectrometer: USB2G7710
Scans to average: 3
Trigger mode: 4
Integration Time (sec): 2.000000E-2
Electric dark correction enabled: true
Boxcar width: 10
XAxis mode: Wavelengths
Number of Pixels in Spectrum: 2048
>>>>>Begin Spectral Data<<<<<
177.721	77.48
178.105	245.3
178.488	138.16
178.871	363.89
179.254	-15.94
179.636	116.55
180.019	287.13
180.402	55
180.785	-12.77
181.168	488.89
181.55	290.48
181.933	149.04
182.316	132.4
182.698	197.34
183.081	109.61
183.463	142.87
183.846	327.81
184.228	465.78
184.611	4322.22
184.993	-188.82
185.376	-146.26
185.758	-142.02
186.14	-200.98
186.522	-150.28
186.904	-1181.05
187.287	1030.82
187.669	-176.34
188.051	554.21
188.433	436.7
188.815	1897.98
189.197	588.45
189.579	706.06
189.961	1014.73
190.342	253.58
190.724	644.06
191.106	1000.43
191.488	187.49
191.869	94.22
192.251	62.28
192.633	33.83
193.014	14.02
193.396	20.28
193.777	22.12
194.159	16.07
194.54	15.25
194.922	-30.86
195.303	-26.09
195.684	-26.71
196.065	-101.55
196.447	-87.9
196.828	-340.8
197.209	-320.79
197.59	-316.28
197.971	-375.21
198.352	1399.44
198.733	-941.2
199.114	2487.6
199.495	386.95
199.876	506.29
200.257	326.71
200.638	233.33
201.018	236.16
201.399	212.1
201.78	203.58
202.16	198.72
202.541	587.7
202.922	1011.56
203.302	-557.28
203.683	-273.67
204.063	-220.35
204.444	-160.16
204.824	364.84
205.204	5966.67
205.585	318.58
205.965	115.69
206.345	453.74
206.725	233.33
207.106	125.55
207.486	200.86
207.866	420.3
208.246	1132.86
208.626	525.36
209.006	4988.89
209.386	915.69
209.766	395.99
210.145	626.81
210.525	-1763.95
210.905	-3272.55
211.285	-502.3
211.664	-173.65
212.044	-171.9
212.424	-170.15
212.803	-303.1
213.183	-34.04
213.562	-59.88
213.942	5.07
214.321	25.2
214.701	-114.14
215.08	-31.56
215.459	-19.61
215.838	27.38
216.218	75.8
216.597	37.9
216.976	26.96
217.355	22.63
217.734	31.83
218.113	59.72
218.492	55.61
218.871	39.79
219.25	61.39
219.629	74.05
220.008	41.06
220.387	43.48
220.766	47.57
221.144	22.34
221.523	21.57
221.902	-32.98
222.28	-27.09
222.659	0.45
223.037	9.44
223.416	9.12
223.794	2.67
224.173	-8.96
224.551	1.97
224.929	5.29
225.308	7.65
225.686	9.66
226.064	15.09
226.442	13.86
226.821	7.73
227.199	3.55
227.577	-2.27
227.955	0.29
228.333	-1.51
228.711	-2.68
229.089	2.02
229.467	0.4
229.845	0.86
230.222	1.54
230.6	-1.11
230.978	-1.24
231.356	1.24
231.733	1.48
232.111	7.36
232.488	6.5
232.866	5.73
233.243	5.37
233.621	4.18
233.998	2.72
234.376	1.39
234.753	2.63
235.13	3.44
235.508	5.71
235.885	5.78
236.262	2.89
236.639	4.41
237.016	2.92
237.393	5.09
237.77	5.94
238.147	6.52
238.524	6.91
238.901	7.07
239.278	6.56
239.655	6.76
240.032	5.77
240.409	5.33
240.785	5.42
241.162	5.46
241.539	5.63
241.915	5.59
242.292	5.61
242.668	5.72
243.045	6
243.421	5.43
243.798	5.22
244.174	5.52
244.551	5.1
244.927	4.91
245.303	4.78
245.679	4.64
246.056	4.32
246.432	4.14
246.808	3.87
247.184	3.64
247.56	3.28
247.936	3.1
248.312	3.13
248.688	2.94
249.064	2.9
249.44	2.88
249.815	2.95
250.191	3.18
250.567	3.21
250.943	3
251.318	3.2
251.694	3.31
252.069	3.28
252.445	3.34
252.82	3.42
253.196	2.85
253.571	3.04
253.947	2.95
254.322	3.32
254.697	3.44
255.073	3.43
255.448	3.57
255.823	3.71
256.198	3.93
256.573	4.08
256.948	4.01
257.323	4.02
257.698	3.91
258.073	3.57
258.448	3.37
258.823	3.24
259.198	3.03
259.573	2.93
259.948	2.87
260.322	2.97
260.697	3.09
261.072	3.36
261.446	3.4
261.821	3.3
262.195	3.27
262.57	3.23
262.944	3.25
263.319	3.21
263.693	3.06
264.067	2.94
264.442	2.91
264.816	2.87
265.19	2.73
265.564	2.76
265.938	3.01
266.313	3
266.687	3.05
267.061	3.25
267.435	3.34
267.809	3.43
268.183	3.2
268.556	3.19
268.93	3.11
269.304	3.03
269.678	3.32
270.051	3.17
270.425	3.22
270.799	3.16
271.172	3.2
271.546	3.22
271.919	3.07
272.293	2.94
272.666	2.99
273.04	3.12
273.413	3.03
273.787	2.78
274.16	2.8
274.533	2.86
274.906	2.75
275.279	2.75
275.653	2.71
276.026	2.65
276.399	2.51
276.772	2.59
277.145	2.63
277.518	2.57
277.891	2.59
278.263	2.61
278.636	2.75
279.009	2.75
279.382	2.93
279.755	3
280.127	3.12
280.5	3.27
280.872	3.29
281.245	3.21
281.617	3.44
281.99	3.43
282.362	3.48
282.735	3.39
283.107	3.41
283.479	3.53
283.852	3.65
284.224	3.64
284.596	3.65
284.968	3.71
285.34	3.73
285.713	3.78
286.085	3.74
286.457	3.66
286.829	3.72
287.201	3.7
287.572	3.7
287.944	3.61
288.316	3.51
288.688	3.52
289.06	3.57
289.431	3.56
289.803	3.65
290.175	3.69
290.546	3.81
290.918	3.75
291.289	3.73
291.661	3.73
292.032	3.89
292.403	3.92
292.775	4
293.146	4.07
293.517	4.07
293.889	4.09
294.26	4.08
294.631	4.05
295.002	3.88
295.373	3.93
295.744	4.04
296.115	4.14
296.486	4.01
296.857	4.02
297.228	3.98
297.599	3.89
297.97	3.81
298.34	3.89
298.711	4
299.082	3.97
299.452	3.98
299.823	4.04
300.194	4.1
300.564	3.91
300.935	3.87
301.305	3.92
301.676	3.93
302.046	4.02
302.416	4.13
302.787	4.35
303.157	4.4
303.527	4.44
303.897	4.42
304.267	4.55
304.637	4.73
305.008	4.78
305.378	4.88
305.748	4.79
306.117	4.74
306.487	4.75
306.857	4.86
307.227	4.93
307.597	4.72
307.967	4.62
308.336	4.67
308.706	4.59
309.076	4.58
309.445	4.54
309.815	4.46
310.184	4.4
310.554	4.36
310.923	4.3
311.293	4.23
311.662	4.24
312.031	4.24
312.401	4.16
312.77	4.16
313.139	4.17
313.508	4.19
313.877	4.15
314.246	4.12
314.616	3.98
314.985	3.8
315.353	3.75
315.722	3.88
316.091	3.81
316.46	3.89
316.829	3.77
317.198	3.86
317.567	3.85
317.935	3.8
318.304	3.83
318.672	3.8
319.041	3.79
319.41	3.72
319.778	3.8
320.147	3.78
320.515	3.64
320.883	3.5
321.252	3.58
321.62	3.62
321.988	3.61
322.357	3.64
322.725	3.9
323.093	4.12
323.461	4
323.829	4.04
324.197	4.02
324.565	4.11
324.933	4.1
325.301	4.2
325.669	4.22
326.037	4.17
326.405	4.25
326.772	4.4
327.14	4.47
327.508	4.35
327.875	4.31
328.243	4.31
328.61	4.31
328.978	4.34
329.346	4.39
329.713	4.29
330.08	4.33
330.448	4.06
330.815	3.91
331.182	3.92
331.55	4
331.917	4
332.284	4.12
332.651	4.05
333.018	3.91
333.385	3.91
333.752	3.85
334.119	3.8
334.486	3.7
334.853	3.62
335.22	3.66
335.587	3.72
335.954	3.78
336.32	3.89
336.687	3.9
337.054	3.92
337.42	3.98
337.787	3.97
338.153	4.05
338.52	4.03
338.886	3.98
339.253	3.81
339.619	3.86
339.986	3.79
340.352	3.84
340.718	3.91
341.084	3.83
341.451	3.87
341.817	3.89
342.183	3.85
342.549	3.88
342.915	3.89
343.281	3.9
343.647	3.9
344.013	3.82
344.379	3.72
344.745	3.61
345.11	3.61
345.476	3.65
345.842	3.66
346.208	3.75
346.573	3.84
346.939	3.9
347.304	3.82
347.67	3.79
348.035	3.77
348.401	3.84
348.766	3.95
349.132	3.95
349.497	3.87
349.862	3.96
350.228	3.92
350.593	3.81
350.958	3.78
351.323	3.75
351.688	3.75
352.053	3.88
352.418	3.93
352.783	3.91
353.148	3.86
353.513	3.88
353.878	3.89
354.243	3.78
354.608	3.82
354.972	3.79
355.337	3.81
355.702	3.87
356.066	3.84
356.431	3.79
356.795	3.72
357.16	3.73
357.524	3.6
357.889	3.54
358.253	3.6
358.618	3.71
358.982	3.7
359.346	3.66
359.71	3.62
360.075	3.66
360.439	3.67
360.803	3.66
361.167	3.63
361.531	3.62
361.895	3.62
362.259	3.6
362.623	3.62
362.987	3.62
363.351	3.61
363.714	3.58
364.078	3.58
364.442	3.61
364.806	3.65
365.169	3.72
365.533	3.78
365.896	3.8
366.26	3.77
366.623	3.8
366.987	3.9
367.35	3.94
367.714	3.9
368.077	3.89
368.44	3.86
368.803	3.88
369.167	3.81
369.53	3.83
369.893	3.86
370.256	3.91
370.619	3.9
370.982	3.75
371.345	3.78
371.708	3.74
372.071	3.73
372.434	3.69
372.797	3.69
373.159	3.66
373.522	3.58
373.885	3.54
374.247	3.54
374.61	3.49
374.973	3.46
375.335	3.44
375.698	3.49
376.06	3.51
376.423	3.5
376.785	3.55
377.147	3.57
377.51	3.59
377.872	3.57
378.234	3.57
378.596	3.66
378.958	3.65
379.321	3.69
379.683	3.73
380.045	3.73
380.407	3.75
380.769	3.77
381.13	3.82
381.492	3.78
381.854	3.76
382.216	3.79
382.578	3.78
382.939	3.79
383.301	3.69
383.663	3.68
384.024	3.7
384.386	3.74
384.747	3.76
385.109	3.73
385.47	3.72
385.832	3.75
386.193	3.76
386.554	3.72
386.916	3.75
387.277	3.74
387.638	3.77
387.999	3.76
388.36	3.75
388.721	3.76
389.082	3.79
389.443	3.75
389.804	3.74
390.165	3.74
390.526	3.76
390.887	3.79
391.248	3.84
391.609	3.82
391.969	3.8
392.33	3.75
392.691	3.72
393.051	3.7
393.412	3.69
393.772	3.65
394.133	3.66
394.493	3.66
394.854	3.67
395.214	3.67
395.574	3.64
395.935	3.66
396.295	3.66
396.655	3.64
397.015	3.66
397.376	3.64
397.736	3.66
398.096	3.65
398.456	3.65
398.816	3.62
399.176	3.59
399.535	3.59
399.895	3.59
400.255	3.62
400.615	3.64
400.975	3.63
401.334	3.68
401.694	3.67
402.054	3.64
402.413	3.63
402.773	3.59
403.132	3.58
403.492	3.56
403.851	3.59
404.211	3.59
404.57	3.62
404.929	3.62
405.288	3.59
405.648	3.6
406.007	3.61
406.366	3.61
406.725	3.65
407.084	3.63
407.443	3.65
407.802	3.67
408.161	3.69
408.52	3.66
408.879	3.63
409.238	3.66
409.596	3.66
409.955	3.63
410.314	3.66
410.673	3.67
411.031	3.66
411.39	3.64
411.748	3.64
412.107	3.63
412.465	3.62
412.824	3.63
413.182	3.6
413.54	3.61
413.899	3.63
414.257	3.64
414.615	3.67
414.974	3.65
415.332	3.64
415.69	3.61
416.048	3.64
416.406	3.66
416.764	3.66
417.122	3.66
417.48	3.66
417.838	3.68
418.195	3.68
418.553	3.7
418.911	3.7
419.269	3.7
419.626	3.69
419.984	3.71
420.342	3.72
420.699	3.72
421.057	3.72
421.414	3.7
421.772	3.69
422.129	3.67
422.486	3.68
422.844	3.67
423.201	3.67
423.558	3.66
423.915	3.66
424.273	3.67
424.63	3.66
424.987	3.67
425.344	3.66
425.701	3.67
426.058	3.66
426.415	3.65
426.772	3.66
427.128	3.66
427.485	3.64
427.842	3.63
428.199	3.64
428.555	3.65
428.912	3.66
429.269	3.64
429.625	3.65
429.982	3.64
430.338	3.66
430.695	3.68
431.051	3.69
431.407	3.67
431.764	3.65
432.12	3.66
432.476	3.65
432.832	3.64
433.189	3.63
433.545	3.62
433.901	3.62
434.257	3.62
434.613	3.64
434.969	3.65
435.325	3.69
435.681	3.69
436.036	3.68
436.392	3.67
436.748	3.68
437.104	3.66
437.459	3.66
437.815	3.66
438.171	3.66
438.526	3.65
438.882	3.67
439.237	3.68
439.593	3.68
439.948	3.69
440.304	3.7
440.659	3.71
441.014	3.72
441.369	3.7
441.725	3.69
442.08	3.69
442.435	3.69
442.79	3.66
443.145	3.64
443.5	3.63
443.855	3.64
444.21	3.65
444.565	3.67
444.92	3.7
445.275	3.68
445.629	3.68
445.984	3.69
446.339	3.67
446.693	3.65
447.048	3.64
447.403	3.64
447.757	3.64
448.112	3.63
448.466	3.63
448.82	3.64
449.175	3.65
449.529	3.64
449.883	3.63
450.238	3.63
450.592	3.66
450.946	3.66
451.3	3.66
451.654	3.65
452.008	3.64
452.362	3.63
452.716	3.64
453.07	3.65
453.424	3.66
453.778	3.68
454.132	3.67
454.486	3.67
454.839	3.67
455.193	3.67
455.547	3.67
455.9	3.67
456.254	3.7
456.607	3.7
456.961	3.68
457.314	3.68
457.668	3.68
458.021	3.64
458.375	3.64
458.728	3.64
459.081	3.64
459.434	3.62
459.787	3.61
460.141	3.6
460.494	3.59
460.847	3.57
461.2	3.56
461.553	3.56
461.906	3.57
462.259	3.57
462.611	3.58
462.964	3.58
463.317	3.58
463.67	3.57
464.022	3.58
464.375	3.58
464.728	3.6
465.08	3.61
465.433	3.64
465.785	3.64
466.138	3.63
466.49	3.65
466.843	3.66
467.195	3.67
467.547	3.69
467.899	3.7
468.252	3.7
468.604	3.71
468.956	3.73
469.308	3.73
469.66	3.71
470.012	3.71
470.364	3.71
470.716	3.72
471.068	3.7
471.42	3.69
471.772	3.71
472.123	3.72
472.475	3.71
472.827	3.73
473.178	3.75
473.53	3.73
473.882	3.72
474.233	3.73
474.585	3.71
474.936	3.69
475.288	3.69
475.639	3.71
475.99	3.71
476.342	3.68
476.693	3.69
477.044	3.71
477.395	3.7
477.746	3.7
478.097	3.7
478.448	3.69
478.8	3.68
479.15	3.68
479.501	3.67
479.852	3.68
480.203	3.68
480.554	3.69
480.905	3.72
481.255	3.71
481.606	3.72
481.957	3.73
482.307	3.75
482.658	3.76
483.009	3.76
483.359	3.77
483.709	3.78
484.06	3.78
484.41	3.78
484.761	3.79
485.111	3.79
485.461	3.79
485.811	3.8
486.162	3.81
486.512	3.81
486.862	3.81
487.212	3.81
487.562	3.81
487.912	3.81
488.262	3.79
488.612	3.8
488.961	3.8
489.311	3.8
489.661	3.8
490.011	3.79
490.36	3.78
490.71	3.79
491.06	3.79
491.409	3.79
491.759	3.78
492.108	3.77
492.458	3.76
492.807	3.75
493.157	3.75
493.506	3.75
493.855	3.74
494.204	3.75
494.554	3.76
494.903	3.75
495.252	3.75
495.601	3.78
495.95	3.79
496.299	3.78
496.648	3.77
496.997	3.76
497.346	3.77
497.695	3.78
498.043	3.76
498.392	3.76
498.741	3.78
499.09	3.79
499.438	3.78
499.787	3.79
500.135	3.81
500.484	3.82
500.832	3.82
501.181	3.81
501.529	3.79
501.878	3.77
502.226	3.78
502.574	3.76
502.923	3.73
503.271	3.74
503.619	3.75
503.967	3.75
504.315	3.77
504.663	3.77
505.011	3.76
505.359	3.76
505.707	3.75
506.055	3.74
506.403	3.72
506.751	3.74
507.098	3.73
507.446	3.73
507.794	3.71
508.141	3.72
508.489	3.74
508.837	3.76
509.184	3.77
509.531	3.77
509.879	3.79
510.226	3.82
510.574	3.82
510.921	3.8
511.268	3.81
511.616	3.81
511.963	3.81
512.31	3.82
512.657	3.84
513.004	3.84
513.351	3.84
513.698	3.84
514.045	3.84
514.392	3.87
514.739	3.86
515.086	3.88
515.432	3.86
515.779	3.87
516.126	3.9
516.473	3.9
516.819	3.89
517.166	3.88
517.512	3.86
517.859	3.87
518.205	3.88
518.552	3.88
518.898	3.89
519.245	3.89
519.591	3.88
519.937	3.84
520.283	3.84
520.629	3.85
520.976	3.88
521.322	3.88
521.668	3.86
522.014	3.88
522.36	3.87
522.706	3.87
523.052	3.86
523.398	3.85
523.743	3.85
524.089	3.87
524.435	3.88
524.781	3.88
525.126	3.87
525.472	3.87
525.817	3.88
526.163	3.87
526.509	3.87
526.854	3.89
527.199	3.91
527.545	3.91
527.89	3.91
528.235	3.9
528.581	3.9
528.926	3.91
529.271	3.92
529.616	3.91
529.961	3.91
530.306	3.91
530.651	3.91
530.996	3.93
531.341	3.92
531.686	3.93
532.031	3.94
532.376	3.95
532.721	3.95
533.065	3.94
533.41	3.95
533.755	3.95
534.099	3.96
534.444	3.96
534.788	3.97
535.133	3.97
535.477	3.98
535.822	3.97
536.166	3.96
536.51	3.95
536.855	3.99
537.199	4
537.543	3.99
537.887	4
538.231	3.96
538.576	3.96
538.92	3.95
539.264	3.95
539.608	3.95
539.951	3.95
540.295	3.96
540.639	3.96
540.983	3.96
541.327	3.94
541.671	3.92
542.014	3.92
542.358	3.92
542.701	3.92
543.045	3.93
543.389	3.95
543.732	3.95
544.075	3.94
544.419	3.94
544.762	3.94
545.105	3.94
545.449	3.96
545.792	3.97
546.135	3.99
546.478	3.98
546.821	3.96
547.165	3.96
547.508	3.97
547.851	3.97
548.194	3.97
548.536	3.99
548.879	4.01
549.222	4.01
549.565	4.03
549.908	4.04
550.25	4.03
550.593	4.03
550.936	4.01
551.278	4
551.621	4
551.963	4.03
552.306	4.02
552.648	4.01
552.991	4.01
553.333	3.99
553.675	4.01
554.017	4.05
554.36	4.07
554.702	4.08
555.044	4.07
555.386	4.09
555.728	4.08
556.07	4.09
556.412	4.08
556.754	4.05
557.096	4.07
557.438	4.07
557.78	4.09
558.121	4.09
558.463	4.09
558.805	4.1
559.147	4.06
559.488	4.07
559.83	4.08
560.171	4.05
560.513	4.08
560.854	4.07
561.196	4.06
561.537	4.06
561.878	4.03
562.22	4.02
562.561	4
562.902	4
563.243	3.99
563.584	4.02
563.925	4.01
564.266	4
564.607	4.01
564.948	4.01
565.289	4.02
565.63	4.04
565.971	4
566.312	4
566.653	4.03
566.993	4.03
567.334	4.03
567.675	4.03
568.015	4.02
568.356	4
568.696	3.99
569.037	4
569.377	4.02
569.718	4.04
570.058	4.06
570.398	4.06
570.739	4.08
571.079	4.08
571.419	4.08
571.759	4.07
572.099	4.04
572.439	4.05
572.779	4.03
573.119	4.06
573.459	4.11
573.799	4.08
574.139	4.08
574.479	4.08
574.819	4.07
575.158	4.07
575.498	4.1
575.838	4.11
576.177	4.1
576.517	4.07
576.856	4.07
577.196	4.05
577.535	4.05
577.875	4
578.214	3.98
578.553	3.98
578.893	3.99
579.232	4.01
579.571	3.97
579.91	3.97
580.25	3.99
580.589	3.95
580.928	3.95
581.267	3.95
581.606	3.92
581.945	3.96
582.283	3.96
582.622	3.92
582.961	3.92
583.3	3.94
583.639	3.99
583.977	4.01
584.316	4.01
584.654	4.03
584.993	4.08
585.332	4.1
585.67	4.1
586.008	4.08
586.347	4.09
586.685	4.15
587.024	4.14
587.362	4.13
587.7	4.14
588.038	4.18
588.376	4.17
588.715	4.18
589.053	4.14
589.391	4.15
589.729	4.18
590.067	4.18
590.404	4.17
590.742	4.16
591.08	4.15
591.418	4.18
591.756	4.17
592.093	4.15
592.431	4.11
592.769	4.11
593.106	4.14
593.444	4.11
593.781	4.08
594.119	4.12
594.456	4.12
594.793	4.1
595.131	4.08
595.468	4.09
595.805	4.09
596.143	4.11
596.48	4.09
596.817	4.07
597.154	4.02
597.491	4
597.828	3.99
598.165	4.01
598.502	4
598.839	4.02
599.176	4.02
599.512	4.06
599.849	4.05
600.186	4.06
600.523	4.12
600.859	4.14
601.196	4.11
601.532	4.09
601.869	4.1
602.205	4.09
602.542	4.11
602.878	4.14
603.215	4.15
603.551	4.17
603.887	4.17
604.223	4.21
604.56	4.24
604.896	4.25
605.232	4.27
605.568	4.24
605.904	4.21
606.24	4.26
606.576	4.27
606.912	4.28
607.248	4.23
607.583	4.19
607.919	4.18
608.255	4.19
608.591	4.23
608.926	4.24
609.262	4.25
609.597	4.26
609.933	4.2
610.268	4.19
610.604	4.17
610.939	4.19
611.275	4.23
611.61	4.23
611.945	4.22
612.281	4.17
612.616	4.21
612.951	4.22
613.286	4.14
613.621	4.14
613.956	4.13
614.291	4.17
614.626	4.18
614.961	4.16
615.296	4.12
615.631	4.1
615.966	4.1
616.3	4.12
616.635	4.14
616.97	4.2
617.304	4.23
617.639	4.23
617.973	4.28
618.308	4.21
618.642	4.2
618.977	4.16
619.311	4.16
619.646	4.15
619.98	4.17
620.314	4.22
620.648	4.24
620.983	4.26
621.317	4.28
621.651	4.29
621.985	4.36
622.319	4.41
622.653	4.43
622.987	4.46
623.321	4.48
623.655	4.41
623.988	4.44
624.322	4.43
624.656	4.46
624.99	4.44
625.323	4.47
625.657	4.53
625.99	4.57
626.324	4.58
626.657	4.61
626.991	4.64
627.324	4.64
627.658	4.62
627.991	4.63
628.324	4.62
628.657	4.64
628.991	4.62
629.324	4.62
629.657	4.62
629.99	4.58
630.323	4.56
630.656	4.62
630.989	4.64
631.322	4.65
631.655	4.58
631.987	4.58
632.32	4.54
632.653	4.46
632.986	4.49
633.318	4.45
633.651	4.43
633.984	4.41
634.316	4.41
634.649	4.42
634.981	4.42
635.313	4.38
635.646	4.36
635.978	4.35
636.31	4.38
636.643	4.36
636.975	4.38
637.307	4.37
637.639	4.32
637.971	4.25
638.303	4.16
638.635	4.21
638.967	4.18
639.299	4.26
639.631	4.31
639.963	4.23
640.295	4.36
640.626	4.38
640.958	4.44
641.29	4.4
641.621	4.36
641.953	4.35
642.285	4.4
642.616	4.44
642.948	4.41
643.279	4.35
643.61	4.33
643.942	4.34
644.273	4.31
644.604	4.35
644.936	4.39
645.267	4.5
645.598	4.52
645.929	4.61
646.26	4.54
646.591	4.52
646.922	4.54
647.253	4.47
647.584	4.4
647.915	4.28
648.245	4.28
648.576	4.31
648.907	4.32
649.238	4.31
649.568	4.32
649.899	4.36
650.229	4.41
650.56	4.48
650.89	4.46
651.221	4.49
651.551	4.44
651.882	4.41
652.212	4.45
652.542	4.48
652.872	4.41
653.203	4.41
653.533	4.46
653.863	4.47
654.193	4.51
654.523	4.53
654.853	4.55
655.183	4.6
655.513	4.62
655.843	4.6
656.172	4.61
656.502	4.56
656.832	4.59
657.162	4.57
657.491	4.5
657.821	4.53
658.15	4.59
658.48	4.7
658.809	4.7
659.139	4.62
659.468	4.61
659.798	4.61
660.127	4.7
660.456	4.69
660.785	4.69
661.115	4.66
661.444	4.71
661.773	4.74
662.102	4.77
662.431	4.83
662.76	4.84
663.089	4.8
663.418	4.84
663.747	4.81
664.076	4.83
664.404	4.83
664.733	4.85
665.062	4.82
665.39	4.74
665.719	4.78
666.048	4.81
666.376	4.77
666.705	4.72
667.033	4.67
667.362	4.7
667.69	4.62
668.018	4.64
668.347	4.61
668.675	4.6
669.003	4.61
669.331	4.62
669.659	4.64
669.987	4.58
670.315	4.53
670.643	4.48
670.971	4.5
671.299	4.54
671.627	4.52
671.955	4.52
672.283	4.48
672.61	4.44
672.938	4.45
673.266	4.5
673.593	4.65
673.921	4.63
674.249	4.54
674.576	4.64
674.904	4.64
675.231	4.59
675.558	4.57
675.886	4.49
676.213	4.47
676.54	4.52
676.867	4.7
677.195	4.68
677.522	4.76
677.849	4.81
678.176	4.85
678.503	4.86
678.83	4.86
679.157	4.88
679.484	4.89
679.81	4.89
680.137	4.82
680.464	4.72
680.791	4.7
681.117	4.76
681.444	4.7
681.771	4.66
682.097	4.64
682.424	4.73
682.75	4.75
683.077	4.68
683.403	4.69
683.729	4.61
684.056	4.69
684.382	4.71
684.708	4.62
685.034	4.57
685.36	4.53
685.686	4.47
686.012	4.44
686.339	4.51
686.664	4.57
686.99	4.65
687.316	4.66
687.642	4.66
687.968	4.56
688.294	4.68
688.619	4.61
688.945	4.6
689.271	4.5
689.596	4.47
689.922	4.49
690.247	4.42
690.573	4.45
690.898	4.42
691.224	4.45
691.549	4.57
691.874	4.51
692.2	4.51
692.525	4.6
692.85	4.58
693.175	4.41
693.5	4.29
693.825	4.21
694.15	4.27
694.475	4.27
694.8	4.37
695.125	4.25
695.45	4.22
695.775	4.32
696.099	4.37
696.424	4.44
696.749	4.38
697.073	4.35
697.398	4.36
697.723	4.31
698.047	4.27
698.372	4.14
698.696	4.16
699.02	4.23
699.345	4.17
699.669	4.3
699.993	4.32
700.318	4.34
700.642	4.34
700.966	4.27
701.29	4.3
701.614	4.26
701.938	4.31
702.262	4.47
702.586	4.44
702.91	4.42
703.234	4.4
703.557	4.54
703.881	4.54
704.205	4.56
704.529	4.59
704.852	4.56
705.176	4.6
705.499	4.64
705.823	4.6
706.146	4.75
706.47	4.65
706.793	4.61
707.117	4.71
707.44	4.66
707.763	4.7
708.086	4.69
708.409	4.7
708.733	4.57
709.056	4.62
709.379	4.73
709.702	4.64
710.025	4.65
710.348	4.53
710.671	4.54
710.993	4.4
711.316	4.36
711.639	4.39
711.962	4.4
712.284	4.38
712.607	4.46
712.93	4.35
713.252	4.45
713.575	4.59
713.897	4.58
714.22	4.68
714.542	4.72
714.864	4.72
715.187	4.84
715.509	4.99
715.831	4.85
716.153	4.72
716.475	4.67
716.798	4.73
717.12	4.78
717.442	4.83
717.764	4.89
718.085	4.9
718.407	4.91
718.729	4.95
719.051	4.91
719.373	4.74
719.695	4.8
720.016	4.77
720.338	4.85
720.659	4.86
720.981	4.97
721.302	4.98
721.624	4.95
721.945	4.71
722.267	4.78
722.588	4.81
722.909	4.92
723.231	5.01
723.552	4.86
723.873	4.83
724.194	4.72
724.515	4.7
724.836	4.77
725.157	5.02
725.478	4.97
725.799	4.96
726.12	4.98
726.441	4.88
726.762	4.76
727.083	4.75
727.403	4.82
727.724	4.89
728.045	5.02
728.365	5.14
728.686	5.19
729.006	5.24
729.327	5.24
729.647	5.13
729.967	5.19
730.288	5.17
730.608	5.13
730.928	5.22
731.249	5.33
731.569	5.55
731.889	5.36
732.209	5.46
732.529	5.57
732.849	5.76
733.169	5.89
733.489	5.92
733.809	5.84
734.129	5.78
734.448	5.6
734.768	5.39
735.088	5.34
735.408	5.46
735.727	5.41
736.047	5.47
736.366	5.49
736.686	5.53
737.005	5.54
737.325	5.64
737.644	5.8
737.963	5.95
738.283	5.62
738.602	5.56
738.921	5.55
739.24	5.57
739.56	5.37
739.879	5.49
740.198	5.55
740.517	5.68
740.836	5.7
741.155	5.68
741.473	5.95
741.792	5.98
742.111	5.93
742.43	5.8
742.748	5.76
743.067	5.74
743.386	5.86
743.704	5.89
744.023	5.89
744.341	5.71
744.66	5.68
744.978	5.51
745.297	5.7
745.615	5.71
745.933	5.74
746.252	6
746.57	5.72
746.888	5.62
747.206	5.46
747.524	5.48
747.842	5.66
748.16	5.56
748.478	5.61
748.796	5.65
749.114	5.74
749.432	5.65
749.749	5.68
750.067	5.6
750.385	5.69
750.703	5.88
751.02	5.76
751.338	5.66
751.655	5.8
751.973	5.72
752.29	5.73
752.608	5.63
752.925	5.63
753.242	5.56
753.56	5.48
753.877	5.56
754.194	5.34
754.511	5.47
754.828	5.25
755.145	5.13
755.462	5.1
755.779	5.26
756.096	5.57
756.413	5.83
756.73	5.77
757.047	5.89
757.364	5.58
757.68	5.71
757.997	5.64
758.314	5.62
758.63	5.8
758.947	5.69
759.264	5.71
759.58	5.37
759.896	5.46
760.213	5.49
760.529	5.55
760.846	5.53
761.162	5.31
761.478	5.43
761.794	5.35
762.11	5.25
762.426	5.34
762.743	5.1
763.059	4.96
763.375	5.05
763.69	5.03
764.006	5.19
764.322	5.3
764.638	5.38
764.954	5.65
765.27	5.46
765.585	5.54
765.901	5.55
766.216	5.6
766.532	5.67
766.848	5.62
767.163	5.78
767.478	5.92
767.794	5.96
768.109	5.75
768.424	5.9
768.74	6.06
769.055	5.76
769.37	5.75
769.685	5.79
770	5.95
770.315	5.98
770.63	5.85
770.945	5.75
771.26	5.64
771.575	5.17
771.89	5.36
772.205	5.24
772.52	5.21
772.834	5.16
773.149	5.26
773.464	5.37
773.778	4.89
774.093	4.59
774.407	4.55
774.722	4.79
775.036	4.91
775.351	5.03
775.665	5.23
775.979	5.69
776.293	5.83
776.608	5.56
776.922	5.63
777.236	5.76
777.55	5.7
777.864	5.95
778.178	6.41
778.492	6.76
778.806	6.49
779.12	6.81
779.434	6.95
779.747	6.52
780.061	6.63
780.375	7.13
780.689	7.52
781.002	7.81
781.316	7.87
781.629	8
781.943	8.01
782.256	8.12
782.57	7.63
782.883	7.99
783.196	8.02
783.51	7.92
783.823	7.72
784.136	7.85
784.449	7.66
784.762	7.92
785.075	7.39
785.388	7.63
785.701	7.57
786.014	7.43
786.327	7.7
786.64	7.84
786.953	7.87
787.266	7.37
787.578	7.56
787.891	7.51
788.204	6.96
788.516	7.07
788.829	7.2
789.141	7.5
789.454	7.57
789.766	7.48
790.079	7.29
790.391	7.68
790.703	7.68
791.016	7.72
791.328	7.41
791.64	7.14
791.952	7.5
792.264	6.85
792.576	6.98
792.888	7.16
793.2	7.16
793.512	6.78
793.824	7.28
794.136	6.6
794.448	6.67
794.76	6.87
795.071	6.77
795.383	6.21
795.695	6.11
796.006	5.59
796.318	5.75
796.629	6.4
796.941	6.36
797.252	6.49
797.564	7.03
797.875	7.1
798.186	7.24
798.497	7.34
798.809	8.26
799.12	8.41
799.431	8.83
799.742	8.61
800.053	8.56
800.364	8.22
800.675	8.25
800.986	8.4
801.297	8.55
801.608	8.21
801.918	8.49
802.229	8.28
802.54	8.42
802.851	8.27
803.161	7.55
803.472	7.14
803.782	7.25
804.093	6.73
804.403	7.2
804.714	7.53
805.024	6.92
805.334	6.69
805.645	7.04
805.955	6.65
806.265	7.48
806.575	7.71
806.885	8.29
807.195	8.74
807.505	8.52
807.815	8.46
808.125	8.34
808.435	7.96
808.745	8.72
809.055	8.98
809.365	8.94
809.674	9.39
809.984	9.82
810.294	9.59
810.603	9.68
810.913	9.33
811.222	9.29
811.532	10.03
811.841	10.18
812.151	10.76
812.46	10.42
812.769	9.62
813.079	10.05
813.388	10.64
813.697	10.56
814.006	10.79
814.315	11.2
814.624	11.92
814.933	12.69
815.242	11.98
815.551	11.78
815.86	11.98
816.169	11.73
816.478	11.15
816.786	10.76
817.095	10.91
817.404	10.66
817.712	9.94
818.021	9.99
818.33	9.12
818.638	8
818.947	8.03
819.255	8.25
819.563	7.72
819.872	6.9
820.18	6.96
820.488	6.72
820.796	6.79
821.105	6.61
821.413	6.54
821.721	6.59
822.029	6.59
822.337	6.48
822.645	6.54
822.953	6.73
823.26	6.7
823.568	6.76
823.876	6.75
824.184	6.85
824.491	6.65
824.799	6.63
825.107	6.77
825.414	6.74
825.722	6.65
826.029	6.64
826.337	6.68
826.644	6.56
826.951	6.71
827.259	6.5
827.566	6.62
827.873	6.61
828.18	6.81
828.488	6.77
828.795	6.84
829.102	6.86
829.409	7.01
829.716	6.92
830.023	6.84
830.329	6.57
830.636	6.81
830.943	6.9
831.25	7.49
831.557	7.54
831.863	7.5
832.17	7.36
832.476	7.47
832.783	7.79
833.089	8.07
833.396	7.97
833.702	8.57
834.009	8.53
834.315	8.77
834.621	8.8
834.928	9.15
835.234	9.13
835.54	9.31
835.846	8.92
836.152	9.35
836.458	9.3
836.764	9.29
837.07	8.71
837.376	8.71
837.682	8.24
837.988	8.13
838.293	8.27
838.599	8.07
838.905	7.91
839.211	8.02
839.516	7.95
839.822	8.28
840.127	6.88
840.433	6.57
840.738	5.8
841.044	5.08
841.349	4.66
841.654	5.3
841.959	4.94
842.265	4.75
842.57	5.1
842.875	4.5
843.18	5.24
843.485	6.21
843.79	6.28
844.095	6.16
844.4	7.07
844.705	6.6
845.01	6.96
845.315	7.17
845.619	6.14
845.924	6.17
846.229	4.81
846.533	6.86
846.838	6.51
847.142	6.64
847.447	5.86
847.751	4.93
848.056	3.86
848.36	4.87
848.664	5.9
848.969	4.52
849.273	4.14
849.577	4.82
849.881	3.62
850.185	4.88
850.489	4.38
850.794	2.05
851.097	4.21
851.401	5.94
851.705	6.49
852.009	7.14
852.313	7.52
852.617	8.51
852.92	9.27
853.224	10.11
853.528	11.4
853.831	11.73
854.135	12.57
854.438	10.45
854.742	8.01
855.045	6.04
855.349	5.86
855.652	6.68
855.955	4.38
856.259	4.09
856.562	3.18
856.865	3.96
857.168	3.28
857.471	0.75
857.774	1.43
858.077	0.87
858.38	1.02
858.683	0.94
858.986	1.36
859.289	0.18
859.592	0.19
859.894	-0.1
860.197	0.57
860.5	1.44
860.802	4.5
861.105	3.95
861.407	5.52
861.71	4.37
862.012	3.35
862.315	5.05
862.617	6.54
862.919	7.6
863.222	7.92
863.524	9
863.826	11.41
864.128	10.35
864.43	10.99
864.732	10.76
865.034	9.63
865.336	7.67
865.638	5.38
865.94	4.33
866.242	3.63
866.544	4
866.846	2.89
867.147	2.26
867.449	2.85
867.751	1.56
868.052	5.38
868.354	7.12
868.655	8.01
868.957	7.2
869.258	4.74
869.56	4.43
869.861	2.44
870.162	1.48
870.463	3
870.765	3.92
871.066	3.7
871.367	1.41
871.668	5.3
871.969	5.55
872.27	6.31
872.571	5.31
872.872	5.36
873.173	4.6
873.473	4.94
873.774	6.41
874.075	7.72
874.376	6.58
874.676	8.97
874.977	7.68
875.277	7.53
875.578	8.69
875.878	9.25
876.179	11.95
876.479	11.83
876.78	9.2
877.08	8.72
877.38	9.09
877.68	12.74
877.981	10.06
878.281	11.85
878.581	13.13
