Data from MVZ_BU26842_Reflection_00009.txt Node
Date: Tue Nov 19 12:18:29 EST 2019
User: vgr7
Spectrometer: USB2G7710
Scans to average: 3
Trigger mode: 4
Integration Time (sec): 2.000000E-2
Electric dark correction enabled: true
Boxcar width: 10
XAxis mode: Wavelengths
Number of Pixels in Spectrum: 2048
>>>>>Begin Spectral Data<<<<<
177.721	-43.79
178.105	-159.26
178.488	1044.44
178.871	104.94
179.254	433.33
179.636	-288.89
180.019	-75.93
180.402	109.09
180.785	129.63
181.168	8.12
181.55	61.81
181.933	58.94
182.316	59.9
182.698	148.45
183.081	139.86
183.463	288.6
183.846	-405.75
184.228	-550.79
184.611	-111.31
184.993	-73.15
185.376	-60.36
185.758	-55.39
186.14	-76.19
186.522	-96.47
186.904	-130.56
187.287	-63.95
187.669	-58.33
188.051	-60.58
188.433	-78.69
188.815	-76.87
189.197	-88.17
189.579	-102.72
189.961	-104.22
190.342	-88.97
190.724	-98.18
191.106	-99.86
191.488	-184.55
191.869	-351.48
192.251	-337.23
192.633	-276.81
193.014	-466.14
193.396	-613.18
193.777	-428.74
194.159	-206.37
194.54	-208.86
194.922	-286.85
195.303	-408.33
195.684	-995.96
196.065	-443.98
196.447	-262.75
196.828	-240.8
197.209	-178.59
197.59	-92.71
197.971	-61.96
198.352	-54.46
198.733	-51.72
199.114	-62.13
199.495	-53.24
199.876	-33.94
200.257	-34.96
200.638	-33.94
201.018	-35.85
201.399	-34.01
201.78	-17.62
202.16	-17.62
202.541	-13.86
202.922	-3.58
203.302	-21.21
203.683	-10.42
204.063	-19.32
204.444	-18.07
204.824	-22.51
205.204	-18.98
205.585	-33.24
205.965	-29.51
206.345	-22.93
206.725	-29.95
207.106	-17.85
207.486	-9.31
207.866	-11.81
208.246	-11.26
208.626	-19.45
209.006	-22.01
209.386	-28.46
209.766	-53.89
210.145	-45.33
210.525	-39.25
210.905	-45.9
211.285	-29.19
211.664	-30.35
212.044	-22.66
212.424	-17.61
212.803	-39.55
213.183	-44.24
213.562	-42.95
213.942	-57.71
214.321	-75.58
214.701	-65.26
215.08	-70.39
215.459	-44.72
215.838	-66.67
216.218	-83.97
216.597	-82.19
216.976	-93.22
217.355	-85.69
217.734	-86.58
218.113	-84.27
218.492	-102.65
218.871	-92.03
219.25	-116.97
219.629	-159.06
220.008	-133.62
220.387	-150.79
220.766	-91.94
221.144	-95.26
221.523	-98.22
221.902	-77.32
222.28	-61.83
222.659	-30.55
223.037	-42
223.416	-47.62
223.794	-46.83
224.173	-51.05
224.551	-50.14
224.929	-39.78
225.308	-34.88
225.686	-38.47
226.064	-38.28
226.442	-35.96
226.821	-24.09
227.199	-13.49
227.577	-14.81
227.955	-10.46
228.333	-12.47
228.711	-12.99
229.089	-14.68
229.467	-14.17
229.845	-15.96
230.222	-13.63
230.6	-16.37
230.978	-13.7
231.356	-13.55
231.733	-11.82
232.111	-9.98
232.488	-8.42
232.866	-9.35
233.243	-10.77
233.621	-7.96
233.998	-8.09
234.376	-3.96
234.753	-5.32
235.13	-8.39
235.508	-6.17
235.885	-7
236.262	-4.78
236.639	-5.53
237.016	-4.16
237.393	-2.73
237.77	-2.35
238.147	-1.79
238.524	-1.94
238.901	-3.03
239.278	-3.23
239.655	-1.73
240.032	-0.95
240.409	-1.38
240.785	-0.72
241.162	-0.57
241.539	-0.61
241.915	-0.26
242.292	-0.15
242.668	-0.03
243.045	0.88
243.421	1.56
243.798	1.85
244.174	2.27
244.551	2.73
244.927	3.04
245.303	3.16
245.679	3.39
246.056	3.18
246.432	3.3
246.808	3.79
247.184	4.25
247.56	4.14
247.936	4.02
248.312	4.08
248.688	4.1
249.064	4.11
249.44	4.08
249.815	4.02
250.191	3.93
250.567	4.24
250.943	4.3
251.318	4.25
251.694	4.26
252.069	3.69
252.445	3.32
252.82	3.3
253.196	3.24
253.571	2.78
253.947	2.81
254.322	2.4
254.697	2.35
255.073	1.85
255.448	1.75
255.823	1.87
256.198	1.9
256.573	2.06
256.948	2.5
257.323	2.55
257.698	2.86
258.073	2.72
258.448	2.5
258.823	2.42
259.198	2.41
259.573	2.29
259.948	2.6
260.322	2.69
260.697	2.62
261.072	2.75
261.446	2.91
261.821	2.95
262.195	3.03
262.57	2.94
262.944	3.19
263.319	3.29
263.693	3.21
264.067	3.36
264.442	3.38
264.816	3.21
265.19	3.29
265.564	3.07
265.938	3.27
266.313	3.46
266.687	3.4
267.061	3.28
267.435	3.35
267.809	3.09
268.183	3.25
268.556	3.21
268.93	3.23
269.304	3.29
269.678	3.39
270.051	3.57
270.425	3.79
270.799	3.67
271.172	3.62
271.546	3.68
271.919	3.72
272.293	3.65
272.666	3.7
273.04	3.58
273.413	3.59
273.787	3.59
274.16	3.29
274.533	3.25
274.906	3.43
275.279	3.41
275.653	3.58
276.026	3.59
276.399	3.58
276.772	3.34
277.145	3.14
277.518	2.98
277.891	3.07
278.263	2.84
278.636	2.86
279.009	2.87
279.382	2.83
279.755	2.81
280.127	2.78
280.5	2.8
280.872	2.99
281.245	3
281.617	3.1
281.99	3.17
282.362	3.28
282.735	3.2
283.107	3.37
283.479	3.43
283.852	3.41
284.224	3.47
284.596	3.55
284.968	3.68
285.34	3.74
285.713	3.66
286.085	3.56
286.457	3.48
286.829	3.58
287.201	3.53
287.572	3.69
287.944	3.84
288.316	3.79
288.688	3.79
289.06	3.82
289.431	3.64
289.803	3.81
290.175	3.83
290.546	3.84
290.918	3.78
291.289	3.6
291.661	3.64
292.032	3.61
292.403	3.58
292.775	3.54
293.146	3.78
293.517	3.71
293.889	3.84
294.26	3.93
294.631	3.92
295.002	4.06
295.373	3.91
295.744	3.84
296.115	3.98
296.486	3.97
296.857	4.02
297.228	4
297.599	4.1
297.97	4.2
298.34	4.25
298.711	4.48
299.082	4.67
299.452	4.74
299.823	4.75
300.194	4.94
300.564	5.1
300.935	5.07
301.305	5.22
301.676	5.3
302.046	5.41
302.416	5.34
302.787	5.46
303.157	5.54
303.527	5.59
303.897	5.6
304.267	5.74
304.637	5.7
305.008	6
305.378	5.8
305.748	5.72
306.117	5.77
306.487	5.49
306.857	5.57
307.227	5.54
307.597	5.69
307.967	5.65
308.336	5.59
308.706	5.47
309.076	5.42
309.445	5.48
309.815	5.5
310.184	5.6
310.554	5.6
310.923	5.64
311.293	5.64
311.662	5.65
312.031	5.54
312.401	5.72
312.77	5.64
313.139	5.78
313.508	6
313.877	6.03
314.246	6.12
314.616	6.09
314.985	6.16
315.353	6.17
315.722	6.28
316.091	6.37
316.46	6.54
316.829	6.68
317.198	6.71
317.567	6.92
317.935	7.09
318.304	7.33
318.672	7.42
319.041	7.39
319.41	7.44
319.778	7.57
320.147	7.72
320.515	7.74
320.883	7.79
321.252	7.73
321.62	7.76
321.988	7.91
322.357	7.98
322.725	7.87
323.093	7.91
323.461	7.93
323.829	8.13
324.197	8.1
324.565	8.17
324.933	8.17
325.301	8.09
325.669	8.15
326.037	8.12
326.405	8.24
326.772	8.45
327.14	8.47
327.508	8.58
327.875	8.49
328.243	8.63
328.61	8.66
328.978	8.65
329.346	8.78
329.713	8.74
330.08	8.7
330.448	8.78
330.815	8.8
331.182	8.68
331.55	8.74
331.917	8.78
332.284	8.96
332.651	9.06
333.018	9.14
333.385	9.08
333.752	8.96
334.119	9.1
334.486	9.09
334.853	9.03
335.22	8.99
335.587	8.94
335.954	9.02
336.32	8.94
336.687	9.13
337.054	9.07
337.42	9.26
337.787	9.26
338.153	9.45
338.52	9.5
338.886	9.72
339.253	9.64
339.619	9.75
339.986	9.51
340.352	9.62
340.718	9.61
341.084	9.52
341.451	9.51
341.817	9.4
342.183	9.31
342.549	9.42
342.915	9.43
343.281	9.56
343.647	9.53
344.013	9.63
344.379	9.39
344.745	9.44
345.11	9.43
345.476	9.63
345.842	9.58
346.208	9.54
346.573	9.54
346.939	9.6
347.304	9.58
347.67	9.73
348.035	9.68
348.401	9.67
348.766	9.79
349.132	9.99
349.497	10.09
349.862	10.14
350.228	10.28
350.593	10.23
350.958	10.29
351.323	10.33
351.688	10.4
352.053	10.48
352.418	10.52
352.783	10.45
353.148	10.39
353.513	10.39
353.878	10.44
354.243	10.23
354.608	10.26
354.972	10.25
355.337	10.32
355.702	10.32
356.066	10.3
356.431	10.31
356.795	10.27
357.16	10.16
357.524	10.2
357.889	10.06
358.253	10.13
358.618	10.13
358.982	10.12
359.346	10.07
359.71	10.08
360.075	10.1
360.439	10.1
360.803	10.2
361.167	10.21
361.531	10.23
361.895	10.36
362.259	10.36
362.623	10.38
362.987	10.35
363.351	10.33
363.714	10.37
364.078	10.3
364.442	10.3
364.806	10.32
365.169	10.31
365.533	10.36
365.896	10.35
366.26	10.25
366.623	10.21
366.987	10.21
367.35	10.23
367.714	10.2
368.077	10.31
368.44	10.2
368.803	10.16
369.167	10.07
369.53	10.04
369.893	9.95
370.256	9.91
370.619	9.75
370.982	9.65
371.345	9.66
371.708	9.6
372.071	9.55
372.434	9.46
372.797	9.45
373.159	9.51
373.522	9.41
373.885	9.42
374.247	9.47
374.61	9.48
374.973	9.41
375.335	9.4
375.698	9.24
376.06	9.18
376.423	9.18
376.785	9.16
377.147	9.15
377.51	9.19
377.872	9.14
378.234	9.17
378.596	9.19
378.958	9.09
379.321	9.09
379.683	9.01
380.045	9.01
380.407	8.94
380.769	8.84
381.13	8.85
381.492	8.8
381.854	8.76
382.216	8.62
382.578	8.59
382.939	8.5
383.301	8.52
383.663	8.52
384.024	8.5
384.386	8.42
384.747	8.36
385.109	8.26
385.47	8.16
385.832	8.1
386.193	8.1
386.554	8.02
386.916	7.99
387.277	7.92
387.638	7.9
387.999	7.92
388.36	7.85
388.721	7.82
389.082	7.82
389.443	7.76
389.804	7.78
390.165	7.77
390.526	7.73
390.887	7.64
391.248	7.56
391.609	7.47
391.969	7.46
392.33	7.44
392.691	7.42
393.051	7.43
393.412	7.42
393.772	7.34
394.133	7.33
394.493	7.31
394.854	7.32
395.214	7.29
395.574	7.24
395.935	7.21
396.295	7.16
396.655	7.08
397.015	7.02
397.376	6.93
397.736	6.88
398.096	6.84
398.456	6.79
398.816	6.75
399.176	6.7
399.535	6.7
399.895	6.61
400.255	6.53
400.615	6.5
400.975	6.42
401.334	6.39
401.694	6.37
402.054	6.3
402.413	6.24
402.773	6.21
403.132	6.14
403.492	6.09
403.851	6.05
404.211	6.03
404.57	6
404.929	6
405.288	5.98
405.648	5.94
406.007	5.94
406.366	5.91
406.725	5.9
407.084	5.86
407.443	5.85
407.802	5.85
408.161	5.84
408.52	5.89
408.879	5.89
409.238	5.86
409.596	5.85
409.955	5.86
410.314	5.81
410.673	5.81
411.031	5.77
411.39	5.75
411.748	5.75
412.107	5.73
412.465	5.72
412.824	5.68
413.182	5.68
413.54	5.66
413.899	5.65
414.257	5.68
414.615	5.66
414.974	5.65
415.332	5.64
415.69	5.6
416.048	5.54
416.406	5.48
416.764	5.48
417.122	5.45
417.48	5.42
417.838	5.37
418.195	5.36
418.553	5.36
418.911	5.33
419.269	5.3
419.626	5.28
419.984	5.28
420.342	5.26
420.699	5.22
421.057	5.21
421.414	5.19
421.772	5.14
422.129	5.1
422.486	5.07
422.844	5.06
423.201	5.07
423.558	5.03
423.915	5.04
424.273	5.01
424.63	5.01
424.987	4.99
425.344	5.01
425.701	5
426.058	4.97
426.415	4.95
426.772	4.94
427.128	4.91
427.485	4.86
427.842	4.86
428.199	4.85
428.555	4.81
428.912	4.8
429.269	4.79
429.625	4.78
429.982	4.77
430.338	4.75
430.695	4.7
431.051	4.7
431.407	4.7
431.764	4.71
432.12	4.68
432.476	4.68
432.832	4.66
433.189	4.65
433.545	4.67
433.901	4.68
434.257	4.68
434.613	4.69
434.969	4.69
435.325	4.7
435.681	4.69
436.036	4.7
436.392	4.69
436.748	4.71
437.104	4.72
437.459	4.73
437.815	4.72
438.171	4.73
438.526	4.75
438.882	4.72
439.237	4.7
439.593	4.74
439.948	4.74
440.304	4.74
440.659	4.75
441.014	4.74
441.369	4.74
441.725	4.74
442.08	4.74
442.435	4.75
442.79	4.73
443.145	4.75
443.5	4.75
443.855	4.74
444.21	4.74
444.565	4.74
444.92	4.73
445.275	4.71
445.629	4.69
445.984	4.67
446.339	4.67
446.693	4.67
447.048	4.62
447.403	4.61
447.757	4.57
448.112	4.54
448.466	4.54
448.82	4.52
449.175	4.51
449.529	4.5
449.883	4.47
450.238	4.47
450.592	4.44
450.946	4.44
451.3	4.43
451.654	4.39
452.008	4.36
452.362	4.35
452.716	4.38
453.07	4.37
453.424	4.36
453.778	4.34
454.132	4.32
454.486	4.32
454.839	4.31
455.193	4.33
455.547	4.33
455.9	4.32
456.254	4.3
456.607	4.31
456.961	4.29
457.314	4.28
457.668	4.26
458.021	4.27
458.375	4.25
458.728	4.26
459.081	4.27
459.434	4.28
459.787	4.29
460.141	4.28
460.494	4.3
460.847	4.31
461.2	4.34
461.553	4.36
461.906	4.38
462.259	4.38
462.611	4.39
462.964	4.42
463.317	4.41
463.67	4.43
464.022	4.46
464.375	4.48
464.728	4.5
465.08	4.54
465.433	4.56
465.785	4.59
466.138	4.62
466.49	4.65
466.843	4.67
467.195	4.68
467.547	4.69
467.899	4.69
468.252	4.74
468.604	4.75
468.956	4.75
469.308	4.76
469.66	4.81
470.012	4.82
470.364	4.81
470.716	4.86
471.068	4.89
471.42	4.9
471.772	4.93
472.123	4.95
472.475	4.97
472.827	4.98
473.178	4.98
473.53	4.99
473.882	5.01
474.233	5.02
474.585	5.02
474.936	5.04
475.288	5.05
475.639	5.05
475.99	5.07
476.342	5.08
476.693	5.11
477.044	5.09
477.395	5.08
477.746	5.08
478.097	5.08
478.448	5.03
478.8	5
479.15	4.97
479.501	4.97
479.852	4.97
480.203	4.96
480.554	4.95
480.905	4.96
481.255	4.94
481.606	4.94
481.957	4.93
482.307	4.91
482.658	4.9
483.009	4.89
483.359	4.87
483.709	4.86
484.06	4.86
484.41	4.85
484.761	4.86
485.111	4.86
485.461	4.85
485.811	4.86
486.162	4.87
486.512	4.87
486.862	4.86
487.212	4.85
487.562	4.85
487.912	4.85
488.262	4.83
488.612	4.83
488.961	4.84
489.311	4.85
489.661	4.86
490.011	4.86
490.36	4.87
490.71	4.88
491.06	4.88
491.409	4.89
491.759	4.9
492.108	4.9
492.458	4.91
492.807	4.94
493.157	4.95
493.506	4.97
493.855	5
494.204	5.02
494.554	5.07
494.903	5.11
495.252	5.14
495.601	5.18
495.95	5.23
496.299	5.27
496.648	5.32
496.997	5.37
497.346	5.45
497.695	5.52
498.043	5.59
498.392	5.66
498.741	5.73
499.09	5.82
499.438	5.91
499.787	6
500.135	6.05
500.484	6.16
500.832	6.24
501.181	6.34
501.529	6.46
501.878	6.54
502.226	6.64
502.574	6.76
502.923	6.9
503.271	7.01
503.619	7.14
503.967	7.25
504.315	7.4
504.663	7.52
505.011	7.69
505.359	7.82
505.707	7.97
506.055	8.13
506.403	8.29
506.751	8.47
507.098	8.61
507.446	8.81
507.794	8.99
508.141	9.18
508.489	9.36
508.837	9.51
509.184	9.69
509.531	9.88
509.879	10.08
510.226	10.25
510.574	10.46
510.921	10.65
511.268	10.82
511.616	11
511.963	11.21
512.31	11.38
512.657	11.6
513.004	11.79
513.351	12.01
513.698	12.23
514.045	12.44
514.392	12.69
514.739	12.93
515.086	13.13
515.432	13.35
515.779	13.55
516.126	13.78
516.473	13.99
516.819	14.22
517.166	14.45
517.512	14.65
517.859	14.84
518.205	15.01
518.552	15.23
518.898	15.42
519.245	15.63
519.591	15.84
519.937	16.04
520.283	16.25
520.629	16.46
520.976	16.67
521.322	16.9
521.668	17.14
522.014	17.38
522.36	17.62
522.706	17.87
523.052	18.18
523.398	18.47
523.743	18.79
524.089	19.06
524.435	19.31
524.781	19.58
525.126	19.8
525.472	20.03
525.817	20.27
526.163	20.46
526.509	20.62
526.854	20.78
527.199	20.94
527.545	21.14
527.89	21.31
528.235	21.5
528.581	21.66
528.926	21.82
529.271	22.01
529.616	22.19
529.961	22.4
530.306	22.56
530.651	22.74
530.996	22.93
531.341	23.13
531.686	23.31
532.031	23.54
532.376	23.77
532.721	24.03
533.065	24.24
533.41	24.5
533.755	24.77
534.099	25.03
534.444	25.3
534.788	25.53
535.133	25.75
535.477	25.99
535.822	26.24
536.166	26.52
536.51	26.79
536.855	27.09
537.199	27.37
537.543	27.7
537.887	28.03
538.231	28.34
538.576	28.65
538.92	28.97
539.264	29.29
539.608	29.56
539.951	29.8
540.295	30.09
540.639	30.31
540.983	30.53
541.327	30.75
541.671	30.97
542.014	31.2
542.358	31.43
542.701	31.63
543.045	31.88
543.389	32.07
543.732	32.29
544.075	32.52
544.419	32.73
544.762	32.93
545.105	33.14
545.449	33.41
545.792	33.66
546.135	33.95
546.478	34.17
546.821	34.44
547.165	34.7
547.508	34.92
547.851	35.2
548.194	35.45
548.536	35.72
548.879	35.95
549.222	36.19
549.565	36.47
549.908	36.69
550.25	36.87
550.593	37.15
550.936	37.32
551.278	37.56
551.621	37.81
551.963	38.01
552.306	38.23
552.648	38.41
552.991	38.65
553.333	38.75
553.675	38.89
554.017	39.12
554.36	39.29
554.702	39.45
555.044	39.64
555.386	39.86
555.728	40.03
556.07	40.18
556.412	40.34
556.754	40.47
557.096	40.68
557.438	40.81
557.78	41.02
558.121	41.28
558.463	41.4
558.805	41.63
559.147	41.87
559.488	41.98
559.83	42.13
560.171	42.28
560.513	42.46
560.854	42.65
561.196	42.79
561.537	42.98
561.878	43.13
562.22	43.26
562.561	43.38
562.902	43.53
563.243	43.63
563.584	43.8
563.925	43.85
564.266	43.95
564.607	44.17
564.948	44.24
565.289	44.35
565.63	44.51
565.971	44.52
566.312	44.61
566.653	44.77
566.993	44.91
567.334	45
567.675	45.09
568.015	45.23
568.356	45.33
568.696	45.43
569.037	45.52
569.377	45.64
569.718	45.76
570.058	45.88
570.398	46.01
570.739	46.07
571.079	46.3
571.419	46.42
571.759	46.54
572.099	46.63
572.439	46.69
572.779	46.72
573.119	46.83
573.459	46.9
573.799	46.97
574.139	47.02
574.479	47.12
574.819	47.21
575.158	47.27
575.498	47.36
575.838	47.43
576.177	47.51
576.517	47.54
576.856	47.57
577.196	47.56
577.535	47.64
577.875	47.69
578.214	47.67
578.553	47.77
578.893	47.79
579.232	47.86
579.571	47.93
579.91	48.03
580.25	48.07
580.589	48.2
580.928	48.33
581.267	48.35
581.606	48.39
581.945	48.47
582.283	48.51
582.622	48.52
582.961	48.56
583.3	48.64
583.639	48.68
583.977	48.73
584.316	48.87
584.654	48.94
584.993	49.1
585.332	49.23
585.67	49.23
586.008	49.29
586.347	49.39
586.685	49.38
587.024	49.47
587.362	49.55
587.7	49.64
588.038	49.7
588.376	49.86
588.715	49.94
589.053	50.01
589.391	50.07
589.729	50.21
590.067	50.23
590.404	50.29
590.742	50.43
591.08	50.51
591.418	50.58
591.756	50.63
592.093	50.61
592.431	50.59
592.769	50.68
593.106	50.74
593.444	50.72
593.781	50.81
594.119	50.82
594.456	50.94
594.793	50.96
595.131	50.99
595.468	51.02
595.805	51.11
596.143	51.1
596.48	51.16
596.817	51.07
597.154	51.06
597.491	51.11
597.828	51.09
598.165	51.15
598.502	51.16
598.839	51.28
599.176	51.33
599.512	51.3
599.849	51.28
600.186	51.28
600.523	51.32
600.859	51.37
601.196	51.45
601.532	51.45
601.869	51.48
602.205	51.48
602.542	51.47
602.878	51.46
603.215	51.51
603.551	51.54
603.887	51.66
604.223	51.78
604.56	51.81
604.896	51.9
605.232	51.9
605.568	51.93
605.904	51.88
606.24	51.89
606.576	52.04
606.912	52.07
607.248	52.1
607.583	52.21
607.919	52.25
608.255	52.26
608.591	52.27
608.926	52.26
609.262	52.32
609.597	52.34
609.933	52.31
610.268	52.36
610.604	52.33
610.939	52.33
611.275	52.31
611.61	52.28
611.945	52.23
612.281	52.25
612.616	52.37
612.951	52.39
613.286	52.45
613.621	52.45
613.956	52.6
614.291	52.58
614.626	52.49
614.961	52.54
615.296	52.56
615.631	52.53
615.966	52.51
616.3	52.47
616.635	52.56
616.97	52.63
617.304	52.52
617.639	52.65
617.973	52.76
618.308	52.75
618.642	52.77
618.977	52.88
619.311	52.92
619.646	52.81
619.98	52.86
620.314	52.93
620.648	52.95
620.983	52.92
621.317	53.04
621.651	53.15
621.985	53.11
622.319	53.16
622.653	53.24
622.987	53.26
623.321	53.27
623.655	53.25
623.988	53.26
624.322	53.37
624.656	53.39
624.99	53.31
625.323	53.36
625.657	53.31
625.99	53.29
626.324	53.3
626.657	53.29
626.991	53.26
627.324	53.22
627.658	53.21
627.991	53.25
628.324	53.19
628.657	53.16
628.991	53.17
629.324	53.15
629.657	53.13
629.99	53.12
630.323	53.19
630.656	53.25
630.989	53.28
631.322	53.34
631.655	53.36
631.987	53.41
632.32	53.43
632.653	53.55
632.986	53.62
633.318	53.65
633.651	53.65
633.984	53.75
634.316	53.78
634.649	53.74
634.981	53.75
635.313	53.86
635.646	53.99
635.978	54.14
636.31	54.15
636.643	54.17
636.975	54.22
637.307	54.22
637.639	54.2
637.971	54.22
638.303	54.15
638.635	54.17
638.967	54.25
639.299	54.27
639.631	54.23
639.963	54.14
640.295	54.15
640.626	54.23
640.958	54.2
641.29	54.21
641.621	54.24
641.953	54.23
642.285	54.15
642.616	54.04
642.948	53.92
643.279	53.91
643.61	54.02
643.942	54.03
644.273	54
644.604	54
644.936	53.99
645.267	54.07
645.598	54.03
645.929	53.89
646.26	53.83
646.591	53.86
646.922	53.97
647.253	54.05
647.584	54.03
647.915	53.88
648.245	53.91
648.576	53.95
648.907	54
649.238	54.07
649.568	54.12
649.899	54.17
650.229	54.14
650.56	54.21
650.89	54.27
651.221	54.32
651.551	54.35
651.882	54.29
652.212	54.23
652.542	54.2
652.872	54.29
653.203	54.28
653.533	54.32
653.863	54.32
654.193	54.33
654.523	54.39
654.853	54.63
655.183	54.71
655.513	54.74
655.843	54.75
656.172	54.8
656.502	54.73
656.832	54.75
657.162	54.83
657.491	54.81
657.821	54.71
658.15	54.87
658.48	54.94
658.809	55.1
659.139	55.07
659.468	55.17
659.798	55.22
660.127	55.29
660.456	55.29
660.785	55.31
661.115	55.31
661.444	55.27
661.773	55.14
662.102	55.06
662.431	55
662.76	55.08
663.089	55.15
663.418	55.25
663.747	55.33
664.076	55.32
664.404	55.28
664.733	55.37
665.062	55.31
665.39	55.13
665.719	55.08
666.048	55.09
666.376	54.93
666.705	54.79
667.033	54.79
667.362	54.76
667.69	54.81
668.018	54.77
668.347	54.91
668.675	54.98
669.003	54.97
669.331	55.01
669.659	54.95
669.987	54.79
670.315	54.77
670.643	54.7
670.971	54.76
671.299	54.69
671.627	54.71
671.955	54.54
672.283	54.61
672.61	54.66
672.938	54.74
673.266	54.79
673.593	54.89
673.921	54.95
674.249	55.08
674.576	54.86
674.904	54.85
675.231	54.89
675.558	55.02
675.886	55.11
676.213	55.18
676.54	55.18
676.867	55.33
677.195	55.33
677.522	55.41
677.849	55.48
678.176	55.59
678.503	55.63
678.83	55.79
679.157	55.7
679.484	55.66
679.81	55.73
680.137	55.76
680.464	55.82
680.791	55.86
681.117	55.81
681.444	55.9
681.771	55.99
682.097	55.91
682.424	55.82
682.75	55.8
683.077	55.77
683.403	55.72
683.729	55.67
684.056	55.74
684.382	55.66
684.708	55.65
685.034	55.59
685.36	55.5
685.686	55.41
686.012	55.54
686.339	55.58
686.664	55.51
686.99	55.56
687.316	55.39
687.642	55.39
687.968	55.42
688.294	55.57
688.619	55.5
688.945	55.47
689.271	55.65
689.596	55.71
689.922	55.63
690.247	55.65
690.573	55.57
690.898	55.5
691.224	55.55
691.549	55.28
691.874	55.43
692.2	55.39
692.525	55.26
692.85	55.26
693.175	55.32
693.5	55.44
693.825	55.51
694.15	55.58
694.475	55.56
694.8	55.51
695.125	55.39
695.45	55.19
695.775	55.24
696.099	55.22
696.424	55.25
696.749	55.41
697.073	55.25
697.398	55.37
697.723	55.45
698.047	55.49
698.372	55.49
698.696	55.4
699.02	55.46
699.345	55.41
699.669	55.43
699.993	55.26
700.318	55.26
700.642	55.15
700.966	55.15
701.29	55.01
701.614	55.1
701.938	55.17
702.262	55.31
702.586	55.17
702.91	55.01
703.234	55
703.557	54.9
703.881	55.15
704.205	55.01
704.529	54.92
704.852	54.88
705.176	55.25
705.499	55.38
705.823	55.59
706.146	55.93
706.47	55.74
706.793	55.87
707.117	55.78
707.44	55.92
707.763	55.98
708.086	56.02
708.409	55.96
708.733	55.7
709.056	55.87
709.379	56.09
709.702	56.19
710.025	56.15
710.348	56.15
710.671	56.35
710.993	56.16
711.316	56.06
711.639	56.13
711.962	55.91
712.284	55.93
712.607	55.92
712.93	55.89
713.252	56.08
713.575	55.95
713.897	55.82
714.22	55.82
714.542	55.83
714.864	55.87
715.187	55.77
715.509	55.92
715.831	56.04
716.153	55.81
716.475	55.71
716.798	55.74
717.12	55.59
717.442	55.37
717.764	55.69
718.085	55.87
718.407	55.89
718.729	55.79
719.051	55.49
719.373	55.34
719.695	55.26
720.016	55.35
720.338	55.31
720.659	55.31
720.981	54.98
721.302	55.18
721.624	55.21
721.945	55.37
722.267	55.49
722.588	55.51
722.909	55.79
723.231	55.86
723.552	55.67
723.873	55.73
724.194	55.78
724.515	55.8
724.836	55.59
725.157	55.32
725.478	55.42
725.799	55.61
726.12	55.36
726.441	55.41
726.762	55.42
727.083	55.51
727.403	55.61
727.724	56.14
728.045	56.02
728.365	55.97
728.686	55.97
729.006	55.98
729.327	55.8
729.647	55.73
729.967	55.85
730.288	55.98
730.608	56.27
730.928	56.1
731.249	55.92
731.569	55.98
731.889	55.97
732.209	56.12
732.529	55.95
732.849	56.12
733.169	56.14
733.489	55.92
733.809	56.15
734.129	56.36
734.448	55.93
734.768	56.04
735.088	55.88
735.408	55.47
735.727	55.36
736.047	55.3
736.366	55.34
736.686	55.43
737.005	55.21
737.325	55.07
737.644	55.45
737.963	55.65
738.283	55.84
738.602	56.01
738.921	55.98
739.24	56.15
739.56	56.42
739.879	56.66
740.198	56.76
740.517	56.65
740.836	56.12
741.155	56.38
741.473	56.4
741.792	56.57
742.111	57.06
742.43	57.44
742.748	57.57
743.067	57.79
743.386	57.4
743.704	57.76
744.023	57.71
744.341	57.48
744.66	57.59
744.978	57.11
745.297	56.93
745.615	56.8
745.933	56.8
746.252	56.6
746.57	56.01
746.888	56.39
747.206	56.41
747.524	56.97
747.842	56.95
748.16	56.88
748.478	57.01
748.796	57.14
749.114	56.82
749.432	56.73
749.749	56.53
750.067	56.68
750.385	56.49
750.703	56.92
751.02	56.62
751.338	56.46
751.655	57.11
751.973	57.32
752.29	57.4
752.608	57.14
752.925	56.91
753.242	57.07
753.56	56.68
753.877	56.36
754.194	56.41
754.511	56.4
754.828	56.3
755.145	56.38
755.462	56.17
755.779	56.07
756.096	56.5
756.413	56.23
756.73	56.28
757.047	56.19
757.364	55.73
757.68	56.4
757.997	56.32
758.314	56.46
758.63	56.63
758.947	56.77
759.264	56.99
759.58	57.2
759.896	57.4
760.213	57.4
760.529	57.78
760.846	57.5
761.162	57.59
761.478	57.67
761.794	57.66
762.11	57.68
762.426	57.81
762.743	57.64
763.059	57.77
763.375	57.58
763.69	57.75
764.006	57.68
764.322	57.41
764.638	57.43
764.954	57.29
765.27	57.26
765.585	57.09
765.901	57.13
766.216	57.25
766.532	57.13
766.848	57.33
767.163	57.29
767.478	57.59
767.794	57.69
768.109	57.8
768.424	57.82
768.74	57.73
769.055	57.51
769.37	57.36
769.685	57.4
770	57.6
770.315	57.66
770.63	58.01
770.945	57.82
771.26	57.94
771.575	57.53
771.89	57.3
772.205	57.67
772.52	58.21
772.834	58.36
773.149	58.39
773.464	58.07
773.778	57.76
774.093	57.66
774.407	57.2
774.722	57.12
775.036	57.24
775.351	57.48
775.665	58.29
775.979	58.73
776.293	59.1
776.608	58.88
776.922	58.72
777.236	59.1
777.55	59.31
777.864	59.04
778.178	59.33
778.492	59.18
778.806	58.98
779.12	58.12
779.434	57.63
779.747	58.23
780.061	58.88
780.375	59.67
780.689	59.77
781.002	60.12
781.316	59.75
781.629	59.79
781.943	59.83
782.256	59.42
782.57	58.66
782.883	58.2
783.196	58.38
783.51	58.51
783.823	57.76
784.136	57.33
784.449	57.46
784.762	57.55
785.075	57.86
785.388	57.85
785.701	58.55
786.014	59.28
786.327	58.52
786.64	58.31
786.953	58.02
787.266	57.54
787.578	57.74
787.891	57.78
788.204	57.85
788.516	58.02
788.829	57.87
789.141	57.93
789.454	58.43
789.766	58.94
790.079	59.06
790.391	58.72
790.703	58.93
791.016	59.25
791.328	59.68
791.64	59.6
791.952	59.57
792.264	59.49
792.576	59.09
792.888	59.22
793.2	59.13
793.512	59.3
793.824	59.17
794.136	59.39
794.448	60.21
794.76	60
795.071	60.15
795.383	60.55
795.695	60.81
796.006	60.32
796.318	59.95
796.629	60.15
796.941	61.27
797.252	60.84
797.564	60.44
797.875	59.87
798.186	60
798.497	60.31
798.809	60.03
799.12	59.6
799.431	59.69
799.742	59.28
800.053	59.21
800.364	59.34
800.675	58.82
800.986	57.66
801.297	57.25
801.608	56.4
801.918	55.77
802.229	55.64
802.54	55.09
802.851	54.85
803.161	54.42
803.472	54.01
803.782	54.73
804.093	54.81
804.403	54.76
804.714	54.77
805.024	53.99
805.334	53.95
805.645	54.29
805.955	54.64
806.265	55.14
806.575	54.94
806.885	55.06
807.195	55
807.505	55.41
807.815	55.8
808.125	56.6
808.435	56.92
808.745	57.23
809.055	57.36
809.365	57.67
809.674	58.14
809.984	58.19
810.294	57.38
810.603	57.45
810.913	57.87
811.222	57.65
811.532	58.06
811.841	58.65
812.151	59.34
812.46	59.24
812.769	58.82
813.079	58.94
813.388	58.99
813.697	59.04
814.006	59.12
814.315	58.81
814.624	58.23
814.933	57.94
815.242	56.86
815.551	56.69
815.86	56.46
816.169	56.15
816.478	56.22
816.786	57.29
817.095	57.19
817.404	57.85
817.712	59.13
818.021	58.5
818.33	57.96
818.638	57.08
818.947	56.84
819.255	57.32
819.563	56.39
819.872	57.3
820.18	57.15
820.488	57.31
820.796	57.33
821.105	57.53
821.413	57.68
821.721	57.95
822.029	58.26
822.337	58.67
822.645	58.74
822.953	58.86
823.26	59.02
823.568	59.03
823.876	58.89
824.184	58.64
824.491	58.91
824.799	59.06
825.107	59.23
825.414	59.17
825.722	59.08
826.029	59.73
826.337	59.32
826.644	59.71
826.951	59.72
827.259	59.93
827.566	60.15
827.873	60.24
828.18	60.43
828.488	60.42
828.795	59.86
829.102	59.81
829.409	59.38
829.716	59.11
830.023	59.2
830.329	58.63
830.636	58.82
830.943	58.96
831.25	58.42
831.557	58.49
831.863	58.97
832.17	58.67
832.476	58.39
832.783	58.34
833.089	58.16
833.396	58.2
833.702	58.29
834.009	58.39
834.315	58.15
834.621	58.23
834.928	58.43
835.234	59.45
835.54	58.87
835.846	59.76
836.152	59.41
836.458	59.95
836.764	60.32
837.07	60.02
837.376	59.68
837.682	60.04
837.988	60.41
838.293	60.07
838.599	60.28
838.905	59.98
839.211	59.52
839.516	59.27
839.822	59.16
840.127	57.95
840.433	56.85
840.738	56.88
841.044	57.24
841.349	57.59
841.654	56.98
841.959	57.35
842.265	55.94
842.57	56.68
842.875	55.43
843.18	55.86
843.485	55.51
843.79	55.38
844.095	55.98
844.4	54.55
844.705	55.14
845.01	55.51
845.315	55.01
845.619	57.13
845.924	56.86
846.229	57.34
846.533	60.14
846.838	58.23
847.142	58.35
847.447	56.45
847.751	55.13
848.056	55
848.36	57.9
848.664	58.27
848.969	58.69
849.273	59.55
849.577	59.34
849.881	61.07
850.185	59.72
850.489	60.04
850.794	62.85
851.097	62.74
851.401	64.46
851.705	63.89
852.009	65.05
852.313	66.82
852.617	67.9
852.92	68.53
853.224	71.82
853.528	70.81
853.831	69.26
854.135	67.89
854.438	67.63
854.742	65.7
855.045	65.5
855.349	62.81
855.652	62.62
855.955	63.06
856.259	63.38
856.562	63.17
856.865	61.55
857.168	59.51
857.471	61.7
857.774	61.63
858.077	59.62
858.38	57.46
858.683	57.29
858.986	55.13
859.289	52.76
859.592	53.59
859.894	56.49
860.197	57.43
860.5	61.18
860.802	61.21
861.105	60.26
861.407	61.33
861.71	64.19
862.012	64.74
862.315	63.08
862.617	62.67
862.919	65.65
863.222	68.59
863.524	65.61
863.826	62.51
864.128	59.65
864.43	63.68
864.732	62.36
865.034	62.62
865.336	63.14
865.638	62.88
865.94	61.25
866.242	58.9
866.544	60.76
866.846	60.66
867.147	58.15
867.449	59.37
867.751	55.84
868.052	55.98
868.354	55.31
868.655	58.31
868.957	56.39
869.258	55.41
869.56	53.62
869.861	56.59
870.162	56.16
870.463	59.08
870.765	57.28
871.066	58.79
871.367	59.36
871.668	60.37
871.969	60.31
872.27	61.5
872.571	63.06
872.872	60.77
873.173	59.56
873.473	62.69
873.774	62.58
874.075	66.21
874.376	62.94
874.676	65.99
874.977	62.7
875.277	65.31
875.578	65.36
875.878	65.36
876.179	64.37
876.479	64.97
876.78	63.53
877.08	64.93
877.38	66
877.68	61.67
877.981	61.11
878.281	62.81
878.581	62.69
