Data from MVZ_BU147395_Reflection_00015.txt Node
Date: Tue Nov 19 12:05:19 EST 2019
User: vgr7
Spectrometer: USB2G7710
Scans to average: 3
Trigger mode: 4
Integration Time (sec): 2.000000E-2
Electric dark correction enabled: true
Boxcar width: 10
XAxis mode: Wavelengths
Number of Pixels in Spectrum: 2048
>>>>>Begin Spectral Data<<<<<
177.721	45.25
178.105	43.32
178.488	-0.16
178.871	-23.58
179.254	-31.68
179.636	11.85
180.019	523.08
180.402	154.55
180.785	129.19
181.168	232.95
181.55	764.18
181.933	-122.37
182.316	-243.93
182.698	3863.16
183.081	-1804.26
183.463	-1050.6
183.846	815.19
184.228	654.95
184.611	176.55
184.993	164.36
185.376	145.88
185.758	121.04
186.14	99.58
186.522	70.85
186.904	48.73
187.287	24.73
187.669	36.83
188.051	47.57
188.433	44.59
188.815	16.04
189.197	10.44
189.579	14.15
189.961	7.17
190.342	10.88
190.724	-5.3
191.106	-2.7
191.488	0.58
191.869	2.75
192.251	7.29
192.633	7.04
193.014	6.93
193.396	5.89
193.777	-1.92
194.159	6.74
194.54	4.01
194.922	6.24
195.303	27.25
195.684	26.69
196.065	23.9
196.447	26.96
196.828	31.93
197.209	24.06
197.59	18.63
197.971	6.09
198.352	7.51
198.733	-0.17
199.114	-1.31
199.495	-22.34
199.876	-12.55
200.257	-20.37
200.638	-12.16
201.018	-24.21
201.399	-40.83
201.78	-34.91
202.16	-48.17
202.541	-67.12
202.922	-54.57
203.302	-112.72
203.683	-76.92
204.063	-62.28
204.444	-58.13
204.824	-86.45
205.204	-71.15
205.585	-80.09
205.965	-48.97
206.345	-64.77
206.725	-71.74
207.106	-56.53
207.486	-15.02
207.866	-5
208.246	11.22
208.626	-4.6
209.006	2.78
209.386	6.66
209.766	-6.77
210.145	-10.72
210.525	-15.14
210.905	-15.35
211.285	-10.1
211.664	-7.82
212.044	-8.84
212.424	-18.57
212.803	-9.89
213.183	-3.44
213.562	19.6
213.942	18.09
214.321	25.2
214.701	43.2
215.08	34.16
215.459	28.37
215.838	18.46
216.218	15.93
216.597	17.85
216.976	3.88
217.355	-20.01
217.734	-12.9
218.113	-1.74
218.492	2.56
218.871	12.42
219.25	14.52
219.629	-12.95
220.008	-14.3
220.387	-1.47
220.766	-3.67
221.144	-9.89
221.523	-23.57
221.902	-21.41
222.28	-18.54
222.659	-11.67
223.037	-9.23
223.416	-6.51
223.794	-1.44
224.173	-3.15
224.551	-2.96
224.929	-6.3
225.308	-4.75
225.686	-2.59
226.064	-6.26
226.442	-4.96
226.821	-7.77
227.199	-7.44
227.577	-3.33
227.955	-3.73
228.333	-7.82
228.711	-8.01
229.089	-5.96
229.467	-4.65
229.845	-7.85
230.222	-5.74
230.6	-8.28
230.978	-6.59
231.356	-7.04
231.733	-7.95
232.111	-7.95
232.488	-6.83
232.866	-4.15
233.243	-2
233.621	0.8
233.998	1.99
234.376	1.9
234.753	2.1
235.13	2.57
235.508	4.86
235.885	5.21
236.262	5.13
236.639	4.58
237.016	3.51
237.393	4.07
237.77	6.49
238.147	5.6
238.524	6.17
238.901	5.19
239.278	5.8
239.655	5.61
240.032	5.95
240.409	6.04
240.785	5.93
241.162	5.71
241.539	4.28
241.915	4.64
242.292	4.83
242.668	4.85
243.045	4.75
243.421	4.52
243.798	4.6
244.174	4.65
244.551	5.02
244.927	5.15
245.303	4.76
245.679	4.6
246.056	4.59
246.432	4.48
246.808	4.7
247.184	4.48
247.56	4.35
247.936	4.38
248.312	4.41
248.688	4.24
249.064	4.11
249.44	4.2
249.815	4.02
250.191	3.9
250.567	3.94
250.943	3.85
251.318	3.71
251.694	3.41
252.069	3.28
252.445	3.19
252.82	3.41
253.196	3.37
253.571	3.05
253.947	3.08
254.322	2.93
254.697	2.87
255.073	2.95
255.448	3.07
255.823	3.06
256.198	2.87
256.573	3.09
256.948	3.53
257.323	3.62
257.698	3.37
258.073	3.46
258.448	3.38
258.823	3.37
259.198	3.49
259.573	3.52
259.948	3.72
260.322	3.7
260.697	3.58
261.072	3.64
261.446	3.88
261.821	3.7
262.195	3.65
262.57	3.69
262.944	3.62
263.319	3.69
263.693	3.62
264.067	3.63
264.442	3.5
264.816	3.24
265.19	3.15
265.564	3.31
265.938	3.34
266.313	3.29
266.687	3.26
267.061	3.14
267.435	3.36
267.809	3.19
268.183	3.03
268.556	2.99
268.93	3.03
269.304	2.72
269.678	2.79
270.051	2.91
270.425	2.95
270.799	2.97
271.172	3.08
271.546	3.14
271.919	3.11
272.293	3.28
272.666	3.39
273.04	3.43
273.413	3.48
273.787	3.32
274.16	3.3
274.533	3.38
274.906	3.32
275.279	3.27
275.653	3.2
276.026	3.32
276.399	3.24
276.772	3.19
277.145	3.42
277.518	3.37
277.891	3.28
278.263	3.16
278.636	3.19
279.009	3.01
279.382	2.98
279.755	3.02
280.127	2.93
280.5	2.8
280.872	2.91
281.245	2.85
281.617	2.88
281.99	2.94
282.362	2.92
282.735	2.87
283.107	2.61
283.479	2.71
283.852	2.83
284.224	2.81
284.596	2.88
284.968	2.76
285.34	2.79
285.713	2.93
286.085	2.98
286.457	2.95
286.829	2.96
287.201	2.99
287.572	3.03
287.944	3.07
288.316	3.08
288.688	3.23
289.06	3.25
289.431	3.33
289.803	3.43
290.175	3.52
290.546	3.6
290.918	3.73
291.289	3.66
291.661	3.53
292.032	3.58
292.403	3.64
292.775	3.7
293.146	3.85
293.517	3.73
293.889	3.75
294.26	3.78
294.631	3.87
295.002	3.83
295.373	3.83
295.744	3.81
296.115	3.86
296.486	3.68
296.857	3.7
297.228	3.66
297.599	3.58
297.97	3.67
298.34	3.7
298.711	3.91
299.082	3.95
299.452	3.93
299.823	4.04
300.194	3.97
300.564	3.94
300.935	3.84
301.305	3.8
301.676	3.75
302.046	3.67
302.416	3.65
302.787	3.77
303.157	3.77
303.527	3.85
303.897	3.93
304.267	4.11
304.637	4.09
305.008	4.12
305.378	4.16
305.748	3.96
306.117	3.99
306.487	3.94
306.857	4.05
307.227	4.07
307.597	4
307.967	3.99
308.336	4.01
308.706	4.1
309.076	4.4
309.445	4.48
309.815	4.58
310.184	4.6
310.554	4.47
310.923	4.54
311.293	4.44
311.662	4.4
312.031	4.29
312.401	4.28
312.77	4.3
313.139	4.31
313.508	4.32
313.877	4.32
314.246	4.29
314.616	4.29
314.985	4.4
315.353	4.41
315.722	4.69
316.091	4.71
316.46	4.67
316.829	4.58
317.198	4.7
317.567	4.75
317.935	4.91
318.304	5.08
318.672	5.05
319.041	5.19
319.41	5.13
319.778	5.14
320.147	5.25
320.515	5.33
320.883	5.27
321.252	5.37
321.62	5.42
321.988	5.49
322.357	5.38
322.725	5.47
323.093	5.48
323.461	5.37
323.829	5.56
324.197	5.71
324.565	5.64
324.933	5.54
325.301	5.48
325.669	5.42
326.037	5.43
326.405	5.46
326.772	5.46
327.14	5.54
327.508	5.57
327.875	5.54
328.243	5.49
328.61	5.58
328.978	5.6
329.346	5.56
329.713	5.56
330.08	5.66
330.448	5.57
330.815	5.68
331.182	5.7
331.55	5.68
331.917	5.57
332.284	5.57
332.651	5.62
333.018	5.75
333.385	5.72
333.752	5.71
334.119	5.8
334.486	5.83
334.853	5.88
335.22	5.93
335.587	5.88
335.954	5.96
336.32	6.03
336.687	6.15
337.054	6.21
337.42	6.2
337.787	6.22
338.153	6.17
338.52	6.22
338.886	6.17
339.253	6.06
339.619	6.24
339.986	6.2
340.352	6.35
340.718	6.31
341.084	6.29
341.451	6.27
341.817	6.3
342.183	6.24
342.549	6.27
342.915	6.27
343.281	6.33
343.647	6.3
344.013	6.3
344.379	6.26
344.745	6.33
345.11	6.36
345.476	6.47
345.842	6.56
346.208	6.57
346.573	6.63
346.939	6.78
347.304	6.63
347.67	6.67
348.035	6.55
348.401	6.61
348.766	6.63
349.132	6.74
349.497	6.62
349.862	6.73
350.228	6.76
350.593	6.7
350.958	6.79
351.323	6.81
351.688	6.86
352.053	6.82
352.418	6.76
352.783	6.73
353.148	6.67
353.513	6.68
353.878	6.59
354.243	6.47
354.608	6.49
354.972	6.57
355.337	6.61
355.702	6.61
356.066	6.59
356.431	6.58
356.795	6.47
357.16	6.52
357.524	6.4
357.889	6.34
358.253	6.4
358.618	6.36
358.982	6.21
359.346	6.19
359.71	6.22
360.075	6.28
360.439	6.33
360.803	6.34
361.167	6.34
361.531	6.42
361.895	6.49
362.259	6.44
362.623	6.42
362.987	6.4
363.351	6.43
363.714	6.42
364.078	6.42
364.442	6.48
364.806	6.45
365.169	6.51
365.533	6.5
365.896	6.52
366.26	6.55
366.623	6.63
366.987	6.65
367.35	6.64
367.714	6.6
368.077	6.61
368.44	6.56
368.803	6.53
369.167	6.51
369.53	6.49
369.893	6.44
370.256	6.33
370.619	6.33
370.982	6.25
371.345	6.26
371.708	6.23
372.071	6.14
372.434	6.14
372.797	6.12
373.159	6.1
373.522	5.98
373.885	5.93
374.247	5.86
374.61	5.81
374.973	5.74
375.335	5.7
375.698	5.65
376.06	5.64
376.423	5.61
376.785	5.52
377.147	5.47
377.51	5.44
377.872	5.48
378.234	5.46
378.596	5.48
378.958	5.42
379.321	5.38
379.683	5.41
380.045	5.37
380.407	5.3
380.769	5.31
381.13	5.3
381.492	5.27
381.854	5.28
382.216	5.25
382.578	5.31
382.939	5.29
383.301	5.22
383.663	5.23
384.024	5.19
384.386	5.16
384.747	5.12
385.109	5.11
385.47	5.09
385.832	5.05
386.193	5.04
386.554	4.99
386.916	4.98
387.277	4.92
387.638	4.94
387.999	4.89
388.36	4.79
388.721	4.78
389.082	4.78
389.443	4.78
389.804	4.75
390.165	4.68
390.526	4.67
390.887	4.67
391.248	4.63
391.609	4.64
391.969	4.62
392.33	4.64
392.691	4.65
393.051	4.59
393.412	4.54
393.772	4.52
394.133	4.49
394.493	4.49
394.854	4.49
395.214	4.45
395.574	4.49
395.935	4.48
396.295	4.45
396.655	4.39
397.015	4.38
397.376	4.32
397.736	4.27
398.096	4.2
398.456	4.14
398.816	4.1
399.176	4.03
399.535	4.01
399.895	3.92
400.255	3.86
400.615	3.88
400.975	3.88
401.334	3.84
401.694	3.84
402.054	3.8
402.413	3.77
402.773	3.77
403.132	3.73
403.492	3.76
403.851	3.76
404.211	3.77
404.57	3.76
404.929	3.76
405.288	3.76
405.648	3.77
406.007	3.76
406.366	3.74
406.725	3.74
407.084	3.76
407.443	3.79
407.802	3.81
408.161	3.82
408.52	3.81
408.879	3.83
409.238	3.81
409.596	3.8
409.955	3.77
410.314	3.71
410.673	3.74
411.031	3.69
411.39	3.69
411.748	3.66
412.107	3.63
412.465	3.6
412.824	3.6
413.182	3.59
413.54	3.61
413.899	3.62
414.257	3.61
414.615	3.57
414.974	3.55
415.332	3.54
415.69	3.52
416.048	3.5
416.406	3.47
416.764	3.45
417.122	3.45
417.48	3.47
417.838	3.49
418.195	3.47
418.553	3.46
418.911	3.42
419.269	3.43
419.626	3.43
419.984	3.42
420.342	3.43
420.699	3.41
421.057	3.41
421.414	3.41
421.772	3.4
422.129	3.38
422.486	3.38
422.844	3.35
423.201	3.34
423.558	3.34
423.915	3.33
424.273	3.34
424.63	3.34
424.987	3.34
425.344	3.32
425.701	3.32
426.058	3.33
426.415	3.34
426.772	3.33
427.128	3.32
427.485	3.33
427.842	3.31
428.199	3.32
428.555	3.3
428.912	3.29
429.269	3.29
429.625	3.3
429.982	3.32
430.338	3.32
430.695	3.29
431.051	3.3
431.407	3.29
431.764	3.28
432.12	3.28
432.476	3.28
432.832	3.28
433.189	3.27
433.545	3.26
433.901	3.28
434.257	3.28
434.613	3.29
434.969	3.28
435.325	3.27
435.681	3.26
436.036	3.26
436.392	3.25
436.748	3.26
437.104	3.27
437.459	3.26
437.815	3.29
438.171	3.31
438.526	3.29
438.882	3.3
439.237	3.29
439.593	3.28
439.948	3.27
440.304	3.26
440.659	3.25
441.014	3.25
441.369	3.25
441.725	3.23
442.08	3.22
442.435	3.23
442.79	3.22
443.145	3.22
443.5	3.22
443.855	3.22
444.21	3.22
444.565	3.21
444.92	3.21
445.275	3.2
445.629	3.2
445.984	3.19
446.339	3.18
446.693	3.18
447.048	3.16
447.403	3.15
447.757	3.16
448.112	3.16
448.466	3.15
448.82	3.14
449.175	3.15
449.529	3.15
449.883	3.13
450.238	3.15
450.592	3.14
450.946	3.13
451.3	3.13
451.654	3.11
452.008	3.11
452.362	3.09
452.716	3.08
453.07	3.09
453.424	3.09
453.778	3.09
454.132	3.1
454.486	3.13
454.839	3.13
455.193	3.13
455.547	3.11
455.9	3.1
456.254	3.11
456.607	3.11
456.961	3.11
457.314	3.12
457.668	3.12
458.021	3.11
458.375	3.1
458.728	3.1
459.081	3.12
459.434	3.11
459.787	3.11
460.141	3.12
460.494	3.13
460.847	3.14
461.2	3.14
461.553	3.15
461.906	3.15
462.259	3.15
462.611	3.15
462.964	3.17
463.317	3.17
463.67	3.19
464.022	3.2
464.375	3.19
464.728	3.21
465.08	3.19
465.433	3.2
465.785	3.23
466.138	3.24
466.49	3.25
466.843	3.27
467.195	3.27
467.547	3.28
467.899	3.28
468.252	3.28
468.604	3.3
468.956	3.31
469.308	3.3
469.66	3.29
470.012	3.32
470.364	3.35
470.716	3.37
471.068	3.38
471.42	3.38
471.772	3.42
472.123	3.44
472.475	3.47
472.827	3.49
473.178	3.51
473.53	3.5
473.882	3.5
474.233	3.5
474.585	3.51
474.936	3.52
475.288	3.52
475.639	3.51
475.99	3.51
476.342	3.52
476.693	3.54
477.044	3.56
477.395	3.54
477.746	3.51
478.097	3.5
478.448	3.48
478.8	3.47
479.15	3.45
479.501	3.43
479.852	3.43
480.203	3.42
480.554	3.42
480.905	3.42
481.255	3.42
481.606	3.41
481.957	3.41
482.307	3.39
482.658	3.4
483.009	3.39
483.359	3.39
483.709	3.39
484.06	3.38
484.41	3.38
484.761	3.36
485.111	3.36
485.461	3.37
485.811	3.37
486.162	3.38
486.512	3.38
486.862	3.37
487.212	3.37
487.562	3.37
487.912	3.36
488.262	3.36
488.612	3.36
488.961	3.36
489.311	3.36
489.661	3.37
490.011	3.36
490.36	3.36
490.71	3.36
491.06	3.36
491.409	3.35
491.759	3.36
492.108	3.38
492.458	3.4
492.807	3.39
493.157	3.4
493.506	3.4
493.855	3.41
494.204	3.43
494.554	3.45
494.903	3.48
495.252	3.5
495.601	3.53
495.95	3.55
496.299	3.56
496.648	3.57
496.997	3.58
497.346	3.63
497.695	3.68
498.043	3.73
498.392	3.77
498.741	3.82
499.09	3.84
499.438	3.86
499.787	3.9
500.135	3.95
500.484	3.98
500.832	4.02
501.181	4.08
501.529	4.14
501.878	4.19
502.226	4.25
502.574	4.31
502.923	4.37
503.271	4.43
503.619	4.51
503.967	4.59
504.315	4.68
504.663	4.76
505.011	4.84
505.359	4.89
505.707	4.95
506.055	5.04
506.403	5.13
506.751	5.23
507.098	5.32
507.446	5.42
507.794	5.54
508.141	5.65
508.489	5.76
508.837	5.89
509.184	6.01
509.531	6.1
509.879	6.22
510.226	6.35
510.574	6.47
510.921	6.57
511.268	6.71
511.616	6.81
511.963	6.95
512.31	7.09
512.657	7.23
513.004	7.4
513.351	7.56
513.698	7.72
514.045	7.89
514.392	8.07
514.739	8.24
515.086	8.41
515.432	8.57
515.779	8.72
516.126	8.87
516.473	9
516.819	9.18
517.166	9.34
517.512	9.49
517.859	9.66
518.205	9.82
518.552	9.96
518.898	10.12
519.245	10.25
519.591	10.41
519.937	10.57
520.283	10.75
520.629	10.91
520.976	11.1
521.322	11.31
521.668	11.51
522.014	11.72
522.36	11.91
522.706	12.14
523.052	12.36
523.398	12.59
523.743	12.85
524.089	13.06
524.435	13.27
524.781	13.49
525.126	13.66
525.472	13.86
525.817	14.04
526.163	14.22
526.509	14.38
526.854	14.52
527.199	14.65
527.545	14.78
527.89	14.92
528.235	15.04
528.581	15.18
528.926	15.3
529.271	15.43
529.616	15.58
529.961	15.74
530.306	15.89
530.651	16.06
530.996	16.24
531.341	16.41
531.686	16.59
532.031	16.77
532.376	16.98
532.721	17.18
533.065	17.38
533.41	17.59
533.755	17.82
534.099	18.03
534.444	18.27
534.788	18.47
535.133	18.67
535.477	18.92
535.822	19.14
536.166	19.39
536.51	19.64
536.855	19.91
537.199	20.17
537.543	20.47
537.887	20.72
538.231	20.98
538.576	21.25
538.92	21.52
539.264	21.79
539.608	22.04
539.951	22.27
540.295	22.5
540.639	22.69
540.983	22.88
541.327	23.11
541.671	23.32
542.014	23.56
542.358	23.74
542.701	23.92
543.045	24.11
543.389	24.33
543.732	24.54
544.075	24.75
544.419	25
544.762	25.22
545.105	25.46
545.449	25.73
545.792	26
546.135	26.27
546.478	26.54
546.821	26.84
547.165	27.14
547.508	27.42
547.851	27.75
548.194	28.07
548.536	28.36
548.879	28.68
549.222	28.9
549.565	29.24
549.908	29.54
550.25	29.84
550.593	30.13
550.936	30.44
551.278	30.73
551.621	30.95
551.963	31.24
552.306	31.53
552.648	31.79
552.991	32.09
553.333	32.39
553.675	32.7
554.017	32.94
554.36	33.21
554.702	33.45
555.044	33.68
555.386	33.9
555.728	34.14
556.07	34.42
556.412	34.73
556.754	34.96
557.096	35.29
557.438	35.53
557.78	35.78
558.121	36.04
558.463	36.27
558.805	36.52
559.147	36.72
559.488	36.92
559.83	37.13
560.171	37.37
560.513	37.51
560.854	37.68
561.196	37.9
561.537	38.07
561.878	38.28
562.22	38.45
562.561	38.65
562.902	38.79
563.243	38.88
563.584	39.03
563.925	39.15
564.266	39.18
564.607	39.33
564.948	39.51
565.289	39.64
565.63	39.82
565.971	39.96
566.312	40.09
566.653	40.2
566.993	40.33
567.334	40.42
567.675	40.56
568.015	40.69
568.356	40.79
568.696	40.91
569.037	40.99
569.377	41.11
569.718	41.18
570.058	41.35
570.398	41.44
570.739	41.58
571.079	41.75
571.419	41.97
571.759	42.11
572.099	42.14
572.439	42.24
572.779	42.33
573.119	42.43
573.459	42.53
573.799	42.66
574.139	42.75
574.479	42.82
574.819	43.05
575.158	43.15
575.498	43.31
575.838	43.38
576.177	43.54
576.517	43.7
576.856	43.85
577.196	43.99
577.535	44.19
577.875	44.34
578.214	44.47
578.553	44.57
578.893	44.68
579.232	44.94
579.571	45.1
579.91	45.24
580.25	45.44
580.589	45.64
580.928	45.77
581.267	45.94
581.606	46.18
581.945	46.2
582.283	46.29
582.622	46.3
582.961	46.44
583.3	46.52
583.639	46.59
583.977	46.76
584.316	46.81
584.654	46.83
584.993	46.89
585.332	46.96
585.67	47.07
586.008	47.19
586.347	47.2
586.685	47.26
587.024	47.32
587.362	47.33
587.7	47.37
588.038	47.4
588.376	47.46
588.715	47.45
589.053	47.54
589.391	47.62
589.729	47.75
590.067	47.81
590.404	47.87
590.742	47.97
591.08	48.01
591.418	48.06
591.756	48.17
592.093	48.18
592.431	48.23
592.769	48.27
593.106	48.24
593.444	48.22
593.781	48.28
594.119	48.34
594.456	48.39
594.793	48.41
595.131	48.5
595.468	48.55
595.805	48.63
596.143	48.6
596.48	48.7
596.817	48.69
597.154	48.82
597.491	48.9
597.828	48.94
598.165	48.96
598.502	49.01
598.839	49.05
599.176	49.19
599.512	49.22
599.849	49.23
600.186	49.34
600.523	49.47
600.859	49.51
601.196	49.5
601.532	49.56
601.869	49.55
602.205	49.58
602.542	49.57
602.878	49.59
603.215	49.64
603.551	49.58
603.887	49.63
604.223	49.56
604.56	49.58
604.896	49.63
605.232	49.65
605.568	49.69
605.904	49.7
606.24	49.71
606.576	49.72
606.912	49.79
607.248	49.88
607.583	49.87
607.919	49.94
608.255	50.04
608.591	50.09
608.926	50.24
609.262	50.34
609.597	50.4
609.933	50.48
610.268	50.58
610.604	50.72
610.939	50.79
611.275	50.93
611.61	50.98
611.945	51.03
612.281	51.12
612.616	51.14
612.951	51.29
613.286	51.39
613.621	51.61
613.956	51.74
614.291	51.8
614.626	52
614.961	52.12
615.296	52.18
615.631	52.33
615.966	52.34
616.3	52.37
616.635	52.49
616.97	52.58
617.304	52.64
617.639	52.61
617.973	52.76
618.308	52.77
618.642	52.79
618.977	52.85
619.311	52.89
619.646	53.05
619.98	52.96
620.314	52.96
620.648	52.89
620.983	52.81
621.317	52.78
621.651	52.71
621.985	52.72
622.319	52.82
622.653	52.67
622.987	52.66
623.321	52.7
623.655	52.62
623.988	52.59
624.322	52.58
624.656	52.59
624.99	52.4
625.323	52.35
625.657	52.37
625.99	52.34
626.324	52.36
626.657	52.29
626.991	52.32
627.324	52.31
627.658	52.37
627.991	52.38
628.324	52.4
628.657	52.46
628.991	52.51
629.324	52.54
629.657	52.61
629.99	52.62
630.323	52.63
630.656	52.71
630.989	52.72
631.322	52.74
631.655	52.9
631.987	53.09
632.32	53.22
632.653	53.14
632.986	53.12
633.318	53.21
633.651	53.34
633.984	53.36
634.316	53.47
634.649	53.47
634.981	53.51
635.313	53.55
635.646	53.53
635.978	53.5
636.31	53.47
636.643	53.56
636.975	53.69
637.307	53.71
637.639	53.69
637.971	53.78
638.303	53.77
638.635	53.65
638.967	53.58
639.299	53.62
639.631	53.71
639.963	53.94
640.295	53.93
640.626	53.85
640.958	53.92
641.29	53.96
641.621	53.97
641.953	54
642.285	54.09
642.616	54.27
642.948	54.27
643.279	54.29
643.61	54.3
643.942	54.21
644.273	54.25
644.604	54.33
644.936	54.26
645.267	54.25
645.598	54.29
645.929	54.23
646.26	54.21
646.591	54.32
646.922	54.22
647.253	54.19
647.584	54.34
647.915	54.32
648.245	54.28
648.576	54.3
648.907	54.36
649.238	54.25
649.568	54.04
649.899	53.95
650.229	54
650.56	54
650.89	54.16
651.221	54.21
651.551	54.24
651.882	54.32
652.212	54.39
652.542	54.47
652.872	54.53
653.203	54.48
653.533	54.43
653.863	54.38
654.193	54.38
654.523	54.26
654.853	54.36
655.183	54.28
655.513	54.17
655.843	54.15
656.172	54.2
656.502	54.24
656.832	54.33
657.162	54.27
657.491	54.29
657.821	54.2
658.15	54.17
658.48	54
658.809	53.96
659.139	53.88
659.468	53.89
659.798	54
660.127	54.06
660.456	54.12
660.785	54.18
661.115	54.09
661.444	54.03
661.773	54.04
662.102	54.17
662.431	54.32
662.76	54.4
663.089	54.44
663.418	54.63
663.747	54.71
664.076	54.74
664.404	54.64
664.733	54.65
665.062	54.69
665.39	54.82
665.719	54.86
666.048	55.04
666.376	55.04
666.705	54.98
667.033	54.93
667.362	54.86
667.69	54.77
668.018	54.84
668.347	55.03
668.675	55.02
669.003	54.91
669.331	54.84
669.659	54.81
669.987	54.76
670.315	54.54
670.643	54.45
670.971	54.48
671.299	54.6
671.627	54.62
671.955	54.57
672.283	54.54
672.61	54.47
672.938	54.41
673.266	54.31
673.593	54.21
673.921	54.31
674.249	54.46
674.576	54.44
674.904	54.55
675.231	54.4
675.558	54.38
675.886	54.45
676.213	54.48
676.54	54.43
676.867	54.38
677.195	54.4
677.522	54.41
677.849	54.4
678.176	54.45
678.503	54.48
678.83	54.5
679.157	54.61
679.484	54.73
679.81	54.79
680.137	54.87
680.464	54.97
680.791	54.88
681.117	54.73
681.444	54.69
681.771	54.68
682.097	54.81
682.424	54.67
682.75	54.71
683.077	54.75
683.403	54.77
683.729	54.77
684.056	54.87
684.382	54.79
684.708	54.71
685.034	54.61
685.36	54.57
685.686	54.46
686.012	54.33
686.339	54.17
686.664	54.01
686.99	53.88
687.316	53.86
687.642	53.88
687.968	53.89
688.294	54.03
688.619	53.97
688.945	53.88
689.271	53.94
689.596	53.9
689.922	53.93
690.247	53.86
690.573	53.86
690.898	53.88
691.224	54.02
691.549	54.1
691.874	54.05
692.2	54.25
692.525	54.31
692.85	54.4
693.175	54.54
693.5	54.61
693.825	54.76
694.15	54.54
694.475	54.42
694.8	54.42
695.125	54.46
695.45	54.36
695.775	54.34
696.099	54.41
696.424	54.52
696.749	54.38
697.073	54.46
697.398	54.65
697.723	54.66
698.047	54.62
698.372	54.57
698.696	54.61
699.02	54.48
699.345	54.43
699.669	54.41
699.993	54.35
700.318	54.36
700.642	54.34
700.966	54.45
701.29	54.46
701.614	54.63
701.938	54.69
702.262	54.83
702.586	54.91
702.91	54.97
703.234	54.88
703.557	55.06
703.881	55.1
704.205	55.17
704.529	55.17
704.852	55.38
705.176	55.59
705.499	55.77
705.823	55.7
706.146	55.84
706.47	55.84
706.793	56.01
707.117	56.09
707.44	56.07
707.763	56.23
708.086	56.4
708.409	56.44
708.733	56.32
709.056	56.23
709.379	56.14
709.702	56.05
710.025	56.04
710.348	55.68
710.671	55.59
710.993	55.24
711.316	55.46
711.639	55.19
711.962	54.99
712.284	54.85
712.607	54.96
712.93	54.87
713.252	54.89
713.575	54.81
713.897	54.49
714.22	54.55
714.542	54.62
714.864	54.67
715.187	54.53
715.509	54.34
715.831	54.38
716.153	54.42
716.475	54.44
716.798	54.39
717.12	54.66
717.442	54.68
717.764	54.84
718.085	54.66
718.407	54.76
718.729	54.81
719.051	54.82
719.373	54.65
719.695	54.74
720.016	54.9
720.338	54.94
720.659	55.31
720.981	55.31
721.302	55.34
721.624	55.37
721.945	55.44
722.267	55.55
722.588	55.34
722.909	55.16
723.231	55.22
723.552	55.15
723.873	55.21
724.194	55.17
724.515	55.13
724.836	55.02
725.157	55.01
725.478	55.28
725.799	55.11
726.12	55.31
726.441	55.32
726.762	55.24
727.083	55.16
727.403	55.06
727.724	54.96
728.045	54.78
728.365	54.76
728.686	54.67
729.006	54.83
729.327	55.14
729.647	55.27
729.967	55.29
730.288	55.3
730.608	55.07
730.928	55.27
731.249	55.38
731.569	55.54
731.889	55.4
732.209	55.27
732.529	55.47
732.849	55.6
733.169	55.53
733.489	55.51
733.809	55.39
734.129	55.36
734.448	55.59
734.768	55.58
735.088	55.57
735.408	55.61
735.727	55.57
736.047	55.71
736.366	55.77
736.686	55.84
737.005	56.15
737.325	56.36
737.644	56.14
737.963	56.01
738.283	55.89
738.602	56.18
738.921	56.25
739.24	56.16
739.56	56.21
739.879	56.26
740.198	56.25
740.517	56.28
740.836	56.3
741.155	56.25
741.473	56.16
741.792	56.23
742.111	56.16
742.43	56.21
742.748	56.13
743.067	56.06
743.386	56.09
743.704	56
744.023	55.82
744.341	55.98
744.66	56.07
744.978	55.89
745.297	55.84
745.615	55.58
745.933	55.7
746.252	55.55
746.57	55.74
746.888	56
747.206	56.4
747.524	56.65
747.842	56.37
748.16	56.51
748.478	56.45
748.796	56.56
749.114	56.47
749.432	56.32
749.749	56.28
750.067	55.86
750.385	55.62
750.703	55.85
751.02	56.05
751.338	56.19
751.655	56.26
751.973	56.22
752.29	56.48
752.608	56.25
752.925	55.98
753.242	56.11
753.56	56.03
753.877	55.44
754.194	55.43
754.511	55.54
754.828	55.73
755.145	55.56
755.462	55.56
755.779	55.44
756.096	55.39
756.413	55.55
756.73	55.94
757.047	56.02
757.364	55.97
757.68	55.64
757.997	55.64
758.314	55.46
758.63	55.36
758.947	55.18
759.264	55.35
759.58	55.38
759.896	55.02
760.213	54.96
760.529	55.21
760.846	55.01
761.162	54.92
761.478	54.62
761.794	54.84
762.11	54.9
762.426	54.75
762.743	54.86
763.059	54.87
763.375	54.86
763.69	54.87
764.006	54.79
764.322	54.93
764.638	54.98
764.954	55.07
765.27	55.11
765.585	54.86
765.901	54.95
766.216	55.09
766.532	55.2
766.848	54.97
767.163	54.88
767.478	54.61
767.794	54.65
768.109	54.97
768.424	54.67
768.74	54.54
769.055	54.82
769.37	54.44
769.685	54.16
770	54.16
770.315	54.14
770.63	54.26
770.945	54.56
771.26	54.36
771.575	54.59
771.89	54.56
772.205	54.93
772.52	54.86
772.834	55.16
773.149	55
773.464	54.88
773.778	54.94
774.093	55.51
774.407	55.8
774.722	55.62
775.036	55.73
775.351	55.66
775.665	55.78
775.979	56.33
776.293	56.89
776.608	57
776.922	57.09
777.236	57.32
777.55	56.59
777.864	56.61
778.178	56.83
778.492	57.08
778.806	57.33
779.12	57.08
779.434	56.86
779.747	56.98
780.061	57.44
780.375	57.63
780.689	57.28
781.002	56.85
781.316	56.92
781.629	57.07
781.943	57.47
782.256	57.58
782.57	57.06
782.883	56.99
783.196	56.77
783.51	56.47
783.823	56.24
784.136	56.57
784.449	55.98
784.762	55.61
785.075	55.31
785.388	54.99
785.701	55.52
786.014	55.07
786.327	54.78
786.64	54.39
786.953	54.57
787.266	54.49
787.578	54.55
787.891	54.49
788.204	54.11
788.516	53.76
788.829	53.31
789.141	53.61
789.454	53.07
789.766	53.01
790.079	53.16
790.391	52.74
790.703	52.76
791.016	53.51
791.328	53.58
791.64	54.17
791.952	54.17
792.264	53.86
792.576	54.39
792.888	54.63
793.2	55.13
793.512	54.87
793.824	54.75
794.136	54.7
794.448	54.83
794.76	55.55
795.071	55.53
795.383	55.44
795.695	55.42
796.006	55.91
796.318	55.93
796.629	55.89
796.941	55.98
797.252	55.84
797.564	55.2
797.875	55.05
798.186	54.69
798.497	54.39
798.809	54.22
799.12	53.72
799.431	53.84
799.742	53.45
800.053	53.46
800.364	54.55
800.675	54.78
800.986	54.85
801.297	54.53
801.608	55.09
801.918	55.41
802.229	55.52
802.54	55.94
802.851	55.69
803.161	55.36
803.472	55.67
803.782	55.69
804.093	56.1
804.403	56.73
804.714	55.86
805.024	56.16
805.334	56.01
805.645	55.93
805.955	56.26
806.265	56.32
806.575	56.31
806.885	55.63
807.195	55.28
807.505	55.13
807.815	55.34
808.125	54.82
808.435	54.55
808.745	53.71
809.055	52.82
809.365	53.07
809.674	53.46
809.984	53.97
810.294	53.91
810.603	54.29
810.913	53.77
811.222	55.07
811.532	55.78
811.841	55.5
812.151	56.44
812.46	55.56
812.769	56.38
813.079	56.13
813.388	56.06
813.697	56.42
814.006	56.94
814.315	56.63
814.624	57.22
814.933	58.04
815.242	59.3
815.551	59.31
815.86	59.34
816.169	59.11
816.478	59.01
816.786	59.05
817.095	58.06
817.404	57.44
817.712	57.05
818.021	56.6
818.33	56.79
818.638	55.58
818.947	55.97
819.255	55.39
819.563	55.15
819.872	54.81
820.18	55.17
820.488	54.7
820.796	54.79
821.105	54.67
821.413	54.55
821.721	54.41
822.029	54.59
822.337	54.52
822.645	54.57
822.953	54.48
823.26	54.5
823.568	54.43
823.876	54.58
824.184	54.6
824.491	54.76
824.799	54.93
825.107	55.14
825.414	54.97
825.722	54.95
826.029	54.97
826.337	55.01
826.644	54.6
826.951	54.69
827.259	54.73
827.566	54.66
827.873	54.78
828.18	54.84
828.488	55
828.795	54.93
829.102	54.88
829.409	54.68
829.716	54.8
830.023	55.04
830.329	55.06
830.636	54.92
830.943	54.47
831.25	54.18
831.557	54.18
831.863	54.62
832.17	54.59
832.476	54.73
832.783	54.68
833.089	54.98
833.396	54.97
833.702	54.69
834.009	54.58
834.315	54.36
834.621	54.68
834.928	54.05
835.234	53.91
835.54	53.74
835.846	54.03
836.152	53.98
836.458	54.1
836.764	54.45
837.07	54.28
837.376	54.61
837.682	54.48
837.988	54.62
838.293	54.54
838.599	54.32
838.905	54.85
839.211	55.27
839.516	55.53
839.822	55.77
840.127	55.47
840.433	56.34
840.738	56.79
841.044	56.72
841.349	56.87
841.654	57.68
841.959	57.99
842.265	57.47
842.57	56.73
842.875	56.36
843.18	56.01
843.485	56.01
843.79	56.14
844.095	57.32
844.4	57.62
844.705	57.47
845.01	59.02
845.315	58.04
845.619	59.92
845.924	61.3
846.229	62.15
846.533	63.38
846.838	62.22
847.142	61.4
847.447	59.64
847.751	59.9
848.056	60.3
848.36	60.32
848.664	61.61
848.969	63.08
849.273	63.64
849.577	64.95
849.881	67.21
850.185	66.75
850.489	65.03
850.794	62.2
851.097	61.39
851.401	59.33
851.705	58.92
852.009	55.76
852.313	52.87
852.617	49.73
852.92	51.32
853.224	51.78
853.528	52.93
853.831	54.53
854.135	56.54
854.438	57.43
854.742	57.81
855.045	57.21
855.349	57.3
855.652	56.84
855.955	54.67
856.259	53.2
856.562	53.62
856.865	54.71
857.168	55.87
857.471	57.51
857.774	58.76
858.077	61.38
858.38	61.32
858.683	63.6
858.986	63.2
859.289	61.26
859.592	61.95
859.894	60.06
860.197	58.78
860.5	57.17
860.802	55.96
861.105	55.76
861.407	56.51
861.71	56.74
862.012	57.89
862.315	58.22
862.617	58.14
862.919	56.82
863.222	55.69
863.524	57.11
863.826	57.88
864.128	58.2
864.43	54.53
864.732	53.96
865.034	53.75
865.336	54.79
865.638	54.12
865.94	54.19
866.242	54
866.544	56.52
866.846	57.4
867.147	56.21
867.449	58.68
867.751	60.46
868.052	60
868.354	59.97
868.655	60.21
868.957	60.82
869.258	62.18
869.56	63.22
869.861	63.45
870.162	60.15
870.463	59.52
870.765	60.64
871.066	60.54
871.367	61.14
871.668	60.8
871.969	59.79
872.27	59.19
872.571	60.36
872.872	57.8
873.173	55.08
873.473	56.34
873.774	56.22
874.075	54.18
874.376	52.58
874.676	53.23
874.977	53.34
875.277	52.84
875.578	50.71
875.878	50.21
876.179	48.56
876.479	49.63
876.78	49.36
877.08	49.98
877.38	50.98
877.68	49.09
877.981	51.42
878.281	53.99
878.581	52.86
