Data from MVZ_BU147393_Reflection_00001.txt Node
Date: Tue Nov 19 12:06:48 EST 2019
User: vgr7
Spectrometer: USB2G7710
Scans to average: 3
Trigger mode: 4
Integration Time (sec): 2.000000E-2
Electric dark correction enabled: true
Boxcar width: 10
XAxis mode: Wavelengths
Number of Pixels in Spectrum: 2048
>>>>>Begin Spectral Data<<<<<
177.721	63.05
178.105	3100
178.488	-106.69
178.871	-190.62
179.254	154.55
179.636	88.05
180.019	-7.91
180.402	-333.33
180.785	72.73
181.168	41.75
181.55	48.28
181.933	112.3
182.316	53.13
182.698	139.82
183.081	9.25
183.463	26.34
183.846	206.19
184.228	64.07
184.611	87.39
184.993	-176.92
185.376	2350
185.758	15100
186.14	400
186.522	-27.12
186.904	40
187.287	3528.57
187.669	146.15
188.051	126.79
188.433	42.75
188.815	52.91
189.197	30.5
189.579	18.34
189.961	15.37
190.342	7.16
190.724	-9.51
191.106	-2.03
191.488	20.57
191.869	41.96
192.251	34.31
192.633	29.23
193.014	22.94
193.396	26.46
193.777	36.08
194.159	47.58
194.54	58.24
194.922	48.91
195.303	33.04
195.684	45.53
196.065	49.41
196.447	65.91
196.828	62.77
197.209	78.48
197.59	83.45
197.971	91.97
198.352	74.74
198.733	92.29
199.114	88.35
199.495	70.31
199.876	64.95
200.257	67.47
200.638	67.78
201.018	57.7
201.399	51.71
201.78	32.05
202.16	27.06
202.541	17.13
202.922	9.36
203.302	10.7
203.683	1.82
204.063	-1.41
204.444	-2.07
204.824	-1.27
205.204	0.92
205.585	3.59
205.965	6
206.345	8.75
206.725	4.31
207.106	13.85
207.486	12.46
207.866	7.49
208.246	8.08
208.626	-3
209.006	-4.91
209.386	-3.23
209.766	-5.67
210.145	2
210.525	-8.2
210.905	5.83
211.285	19.54
211.664	32.65
212.044	29.37
212.424	23.9
212.803	29.93
213.183	20.75
213.562	22.49
213.942	17.73
214.321	13.64
214.701	16.5
215.08	3.77
215.459	8.13
215.838	20.93
216.218	4.48
216.597	36.44
216.976	16.08
217.355	8.91
217.734	31.82
218.113	35.66
218.492	60.53
218.871	28.71
219.25	23
219.629	-51.34
220.008	-15.38
220.387	6.76
220.766	5.89
221.144	29.32
221.523	9.34
221.902	28.77
222.28	59.32
222.659	49.02
223.037	42.82
223.416	70.23
223.794	65.32
224.173	57.07
224.551	53.36
224.929	57.48
225.308	48.84
225.686	51.29
226.064	40.16
226.442	38.9
226.821	33.2
227.199	31.79
227.577	36.3
227.955	36.69
228.333	34.27
228.711	34.98
229.089	27.64
229.467	25.06
229.845	22.86
230.222	23.34
230.6	19.86
230.978	19.14
231.356	16.88
231.733	12.34
232.111	13.29
232.488	14.89
232.866	16.93
233.243	19
233.621	17.61
233.998	18.45
234.376	18.89
234.753	19.03
235.13	18.09
235.508	14.9
235.885	14.83
236.262	14.93
236.639	12.64
237.016	13.18
237.393	13.83
237.77	11.89
238.147	11.11
238.524	11.74
238.901	11
239.278	10.1
239.655	10.2
240.032	9.66
240.409	8.08
240.785	7.19
241.162	6.22
241.539	5.2
241.915	5.01
242.292	5.23
242.668	5.44
243.045	5.33
243.421	5.65
243.798	5.39
244.174	4.98
244.551	5.19
244.927	5.27
245.303	4.98
245.679	5.5
246.056	5.28
246.432	5.34
246.808	5.3
247.184	4.98
247.56	4.82
247.936	4.66
248.312	4.92
248.688	4.88
249.064	4.9
249.44	5.02
249.815	5.08
250.191	4.89
250.567	4.69
250.943	4.84
251.318	5.11
251.694	4.92
252.069	5.13
252.445	5.27
252.82	5.31
253.196	5.43
253.571	5.18
253.947	5.06
254.322	4.82
254.697	5.03
255.073	5.35
255.448	5.29
255.823	5.26
256.198	5.32
256.573	5.18
256.948	5.22
257.323	5.31
257.698	5.13
258.073	5.05
258.448	5.09
258.823	4.8
259.198	4.56
259.573	4.42
259.948	4.42
260.322	4.28
260.697	4.27
261.072	4.22
261.446	4.33
261.821	4.31
262.195	4.38
262.57	4.44
262.944	4.49
263.319	4.73
263.693	4.85
264.067	4.82
264.442	4.75
264.816	4.53
265.19	4.49
265.564	4.55
265.938	4.53
266.313	4.51
266.687	4.49
267.061	4.49
267.435	4.9
267.809	4.81
268.183	4.67
268.556	4.5
268.93	4.58
269.304	4.48
269.678	4.74
270.051	4.7
270.425	4.63
270.799	4.47
271.172	4.48
271.546	4.43
271.919	4.37
272.293	4.48
272.666	4.65
273.04	4.73
273.413	4.73
273.787	4.74
274.16	4.63
274.533	4.85
274.906	5.01
275.279	4.78
275.653	4.88
276.026	4.98
276.399	5.15
276.772	5.16
277.145	5.15
277.518	4.88
277.891	4.85
278.263	4.94
278.636	5.09
279.009	4.88
279.382	4.8
279.755	4.93
280.127	4.94
280.5	4.78
280.872	4.64
281.245	4.68
281.617	4.46
281.99	4.51
282.362	4.41
282.735	4.17
283.107	4.1
283.479	4.1
283.852	4.01
284.224	4
284.596	4
284.968	3.91
285.34	3.96
285.713	3.97
286.085	3.79
286.457	3.81
286.829	3.93
287.201	4.19
287.572	4.09
287.944	4.11
288.316	4.28
288.688	4.24
289.06	4.12
289.431	4.31
289.803	4.46
290.175	4.34
290.546	4.45
290.918	4.45
291.289	4.44
291.661	4.49
292.032	4.49
292.403	4.26
292.775	4.35
293.146	4.38
293.517	4.24
293.889	4.21
294.26	4.15
294.631	4.14
295.002	3.89
295.373	3.87
295.744	3.84
296.115	3.76
296.486	3.89
296.857	3.94
297.228	3.88
297.599	3.7
297.97	3.77
298.34	3.84
298.711	3.97
299.082	4.01
299.452	4.08
299.823	4.01
300.194	4.33
300.564	4.37
300.935	4.6
301.305	4.7
301.676	4.7
302.046	4.65
302.416	4.62
302.787	4.69
303.157	4.67
303.527	4.68
303.897	4.57
304.267	4.33
304.637	4.24
305.008	4.46
305.378	4.45
305.748	4.5
306.117	4.39
306.487	4.23
306.857	4.22
307.227	4.34
307.597	4.42
307.967	4.41
308.336	4.29
308.706	3.96
309.076	4.16
309.445	4.3
309.815	4.32
310.184	4.35
310.554	4.23
310.923	4.26
311.293	4.21
311.662	4.4
312.031	4.53
312.401	4.52
312.77	4.36
313.139	4.4
313.508	4.4
313.877	4.46
314.246	4.47
314.616	4.47
314.985	4.1
315.353	4.19
315.722	4.21
316.091	4.21
316.46	4.38
316.829	4.28
317.198	4.21
317.567	4.35
317.935	4.22
318.304	4.54
318.672	4.51
319.041	4.57
319.41	4.64
319.778	4.61
320.147	4.64
320.515	4.59
320.883	4.62
321.252	4.36
321.62	4.29
321.988	4.36
322.357	4.3
322.725	4.45
323.093	4.35
323.461	4.15
323.829	4.36
324.197	4.31
324.565	4.18
324.933	4.17
325.301	4.04
325.669	4.14
326.037	3.94
326.405	3.91
326.772	3.87
327.14	3.62
327.508	3.57
327.875	3.65
328.243	3.71
328.61	3.68
328.978	3.81
329.346	3.83
329.713	3.91
330.08	4.07
330.448	4.2
330.815	4
331.182	3.91
331.55	3.7
331.917	3.62
332.284	3.65
332.651	3.68
333.018	3.72
333.385	3.62
333.752	3.65
334.119	3.86
334.486	3.93
334.853	4.1
335.22	4.26
335.587	4.18
335.954	4.18
336.32	4.22
336.687	4.27
337.054	4.27
337.42	4.28
337.787	4.03
338.153	4.05
338.52	4.21
338.886	4.25
339.253	4.34
339.619	4.43
339.986	4.4
340.352	4.36
340.718	4.42
341.084	4.39
341.451	4.41
341.817	4.24
342.183	4.28
342.549	4.26
342.915	4.23
343.281	4.17
343.647	4.18
344.013	4.17
344.379	4.2
344.745	4.26
345.11	4.08
345.476	4.33
345.842	4.34
346.208	4.28
346.573	4.31
346.939	4.34
347.304	4.34
347.67	4.44
348.035	4.47
348.401	4.36
348.766	4.39
349.132	4.38
349.497	4.41
349.862	4.33
350.228	4.3
350.593	4.16
350.958	4.26
351.323	4.18
351.688	4.25
352.053	4.26
352.418	4.25
352.783	4.33
353.148	4.16
353.513	4.02
353.878	4
354.243	3.9
354.608	3.84
354.972	3.82
355.337	3.71
355.702	3.64
356.066	3.73
356.431	3.79
356.795	3.8
357.16	3.8
357.524	3.82
357.889	3.85
358.253	3.93
358.618	4.01
358.982	4.07
359.346	3.98
359.71	3.92
360.075	3.91
360.439	3.94
360.803	3.99
361.167	4.03
361.531	4.05
361.895	4.16
362.259	4.22
362.623	4.16
362.987	4.18
363.351	4.22
363.714	4.23
364.078	4.24
364.442	4.25
364.806	4.34
365.169	4.35
365.533	4.35
365.896	4.35
366.26	4.17
366.623	4.21
366.987	4.29
367.35	4.36
367.714	4.42
368.077	4.43
368.44	4.37
368.803	4.33
369.167	4.36
369.53	4.31
369.893	4.25
370.256	4.24
370.619	4.26
370.982	4.2
371.345	4.24
371.708	4.21
372.071	4.16
372.434	4.12
372.797	4.14
373.159	4.06
373.522	4.12
373.885	4.19
374.247	4.12
374.61	4.08
374.973	4.05
375.335	3.95
375.698	3.91
376.06	3.91
376.423	3.93
376.785	3.95
377.147	3.95
377.51	3.94
377.872	4.02
378.234	4.03
378.596	4.11
378.958	4.14
379.321	4.07
379.683	4.09
380.045	4.02
380.407	4.04
380.769	4.04
381.13	3.97
381.492	3.96
381.854	4
382.216	3.99
382.578	3.96
382.939	4
383.301	3.99
383.663	4.02
384.024	4.02
384.386	3.96
384.747	3.98
385.109	3.99
385.47	3.99
385.832	3.98
386.193	3.96
386.554	3.84
386.916	3.9
387.277	3.88
387.638	3.91
387.999	3.93
388.36	3.98
388.721	4.02
389.082	4.04
389.443	4.02
389.804	4.04
390.165	4.02
390.526	4.01
390.887	4.03
391.248	3.98
391.609	4
391.969	4.01
392.33	4
392.691	4.01
393.051	3.97
393.412	3.96
393.772	4
394.133	4.01
394.493	4.01
394.854	4.01
395.214	4.05
395.574	4.01
395.935	4.01
396.295	4.02
396.655	3.99
397.015	4.01
397.376	3.98
397.736	4
398.096	4
398.456	4.01
398.816	4.01
399.176	4.04
399.535	4.01
399.895	4.02
400.255	3.99
400.615	3.98
400.975	3.95
401.334	3.93
401.694	3.96
402.054	3.96
402.413	4.01
402.773	3.96
403.132	3.95
403.492	3.95
403.851	3.92
404.211	3.93
404.57	3.91
404.929	3.91
405.288	3.92
405.648	3.91
406.007	3.87
406.366	3.89
406.725	3.84
407.084	3.89
407.443	3.88
407.802	3.86
408.161	3.87
408.52	3.91
408.879	3.89
409.238	3.87
409.596	3.87
409.955	3.84
410.314	3.86
410.673	3.86
411.031	3.85
411.39	3.85
411.748	3.87
412.107	3.88
412.465	3.89
412.824	3.88
413.182	3.86
413.54	3.88
413.899	3.89
414.257	3.89
414.615	3.86
414.974	3.89
415.332	3.93
415.69	3.93
416.048	3.93
416.406	3.92
416.764	3.92
417.122	3.88
417.48	3.87
417.838	3.85
418.195	3.85
418.553	3.87
418.911	3.86
419.269	3.86
419.626	3.86
419.984	3.86
420.342	3.87
420.699	3.87
421.057	3.88
421.414	3.88
421.772	3.87
422.129	3.87
422.486	3.85
422.844	3.85
423.201	3.88
423.558	3.88
423.915	3.9
424.273	3.91
424.63	3.92
424.987	3.93
425.344	3.95
425.701	3.96
426.058	3.96
426.415	3.98
426.772	3.95
427.128	3.96
427.485	3.96
427.842	3.94
428.199	3.95
428.555	3.93
428.912	3.91
429.269	3.9
429.625	3.92
429.982	3.93
430.338	3.93
430.695	3.88
431.051	3.87
431.407	3.86
431.764	3.83
432.12	3.86
432.476	3.84
432.832	3.83
433.189	3.82
433.545	3.81
433.901	3.82
434.257	3.87
434.613	3.86
434.969	3.86
435.325	3.88
435.681	3.9
436.036	3.9
436.392	3.9
436.748	3.93
437.104	3.93
437.459	3.92
437.815	3.91
438.171	3.92
438.526	3.91
438.882	3.91
439.237	3.92
439.593	3.91
439.948	3.9
440.304	3.91
440.659	3.91
441.014	3.91
441.369	3.91
441.725	3.88
442.08	3.88
442.435	3.86
442.79	3.84
443.145	3.82
443.5	3.83
443.855	3.84
444.21	3.83
444.565	3.82
444.92	3.83
445.275	3.85
445.629	3.83
445.984	3.83
446.339	3.82
446.693	3.82
447.048	3.81
447.403	3.82
447.757	3.81
448.112	3.81
448.466	3.79
448.82	3.8
449.175	3.8
449.529	3.81
449.883	3.79
450.238	3.8
450.592	3.81
450.946	3.79
451.3	3.8
451.654	3.8
452.008	3.8
452.362	3.79
452.716	3.79
453.07	3.82
453.424	3.83
453.778	3.83
454.132	3.83
454.486	3.85
454.839	3.84
455.193	3.85
455.547	3.85
455.9	3.87
456.254	3.87
456.607	3.88
456.961	3.87
457.314	3.88
457.668	3.9
458.021	3.91
458.375	3.91
458.728	3.91
459.081	3.9
459.434	3.89
459.787	3.9
460.141	3.9
460.494	3.89
460.847	3.88
461.2	3.87
461.553	3.88
461.906	3.88
462.259	3.88
462.611	3.89
462.964	3.9
463.317	3.9
463.67	3.91
464.022	3.91
464.375	3.91
464.728	3.9
465.08	3.91
465.433	3.89
465.785	3.89
466.138	3.9
466.49	3.91
466.843	3.94
467.195	3.96
467.547	3.97
467.899	3.95
468.252	3.97
468.604	4
468.956	4
469.308	4.01
469.66	4.04
470.012	4.03
470.364	4.03
470.716	4.04
471.068	4.04
471.42	4.04
471.772	4.06
472.123	4.09
472.475	4.08
472.827	4.12
473.178	4.12
473.53	4.11
473.882	4.12
474.233	4.12
474.585	4.11
474.936	4.1
475.288	4.1
475.639	4.1
475.99	4.09
476.342	4.11
476.693	4.1
477.044	4.1
477.395	4.1
477.746	4.1
478.097	4.07
478.448	4.05
478.8	4.07
479.15	4.05
479.501	4.02
479.852	4.04
480.203	4.02
480.554	4.02
480.905	4.03
481.255	4.02
481.606	4.02
481.957	4.01
482.307	4.02
482.658	4.02
483.009	4.02
483.359	4.03
483.709	4.03
484.06	4.02
484.41	4.01
484.761	4.02
485.111	4.02
485.461	4.03
485.811	4.03
486.162	4.03
486.512	4.03
486.862	4.05
487.212	4.04
487.562	4.04
487.912	4.04
488.262	4.04
488.612	4.04
488.961	4.04
489.311	4.05
489.661	4.05
490.011	4.05
490.36	4.05
490.71	4.03
491.06	4.01
491.409	4.02
491.759	4.03
492.108	4.02
492.458	4.02
492.807	4.01
493.157	4.01
493.506	4.01
493.855	4.01
494.204	4
494.554	4.01
494.903	4.01
495.252	4.01
495.601	4
495.95	4
496.299	4
496.648	3.99
496.997	4.02
497.346	4.03
497.695	4.02
498.043	4.04
498.392	4.08
498.741	4.09
499.09	4.09
499.438	4.12
499.787	4.12
500.135	4.13
500.484	4.13
500.832	4.13
501.181	4.12
501.529	4.14
501.878	4.16
502.226	4.16
502.574	4.17
502.923	4.18
503.271	4.18
503.619	4.21
503.967	4.22
504.315	4.23
504.663	4.23
505.011	4.26
505.359	4.25
505.707	4.24
506.055	4.25
506.403	4.24
506.751	4.23
507.098	4.27
507.446	4.27
507.794	4.3
508.141	4.34
508.489	4.37
508.837	4.37
509.184	4.36
509.531	4.39
509.879	4.41
510.226	4.43
510.574	4.46
510.921	4.46
511.268	4.47
511.616	4.47
511.963	4.48
512.31	4.48
512.657	4.49
513.004	4.48
513.351	4.48
513.698	4.48
514.045	4.48
514.392	4.45
514.739	4.46
515.086	4.45
515.432	4.45
515.779	4.46
516.126	4.47
516.473	4.48
516.819	4.48
517.166	4.49
517.512	4.48
517.859	4.48
518.205	4.47
518.552	4.46
518.898	4.48
519.245	4.47
519.591	4.48
519.937	4.5
520.283	4.53
520.629	4.54
520.976	4.56
521.322	4.58
521.668	4.59
522.014	4.61
522.36	4.62
522.706	4.61
523.052	4.62
523.398	4.6
523.743	4.62
524.089	4.64
524.435	4.63
524.781	4.63
525.126	4.63
525.472	4.66
525.817	4.64
526.163	4.64
526.509	4.66
526.854	4.66
527.199	4.65
527.545	4.65
527.89	4.66
528.235	4.67
528.581	4.66
528.926	4.66
529.271	4.67
529.616	4.67
529.961	4.68
530.306	4.67
530.651	4.69
530.996	4.69
531.341	4.69
531.686	4.7
532.031	4.71
532.376	4.71
532.721	4.7
533.065	4.72
533.41	4.74
533.755	4.73
534.099	4.73
534.444	4.74
534.788	4.75
535.133	4.74
535.477	4.75
535.822	4.75
536.166	4.74
536.51	4.74
536.855	4.73
537.199	4.73
537.543	4.74
537.887	4.74
538.231	4.75
538.576	4.75
538.92	4.75
539.264	4.74
539.608	4.76
539.951	4.75
540.295	4.76
540.639	4.76
540.983	4.76
541.327	4.78
541.671	4.8
542.014	4.8
542.358	4.8
542.701	4.79
543.045	4.81
543.389	4.81
543.732	4.81
544.075	4.84
544.419	4.83
544.762	4.83
545.105	4.84
545.449	4.84
545.792	4.86
546.135	4.84
546.478	4.87
546.821	4.89
547.165	4.9
547.508	4.91
547.851	4.92
548.194	4.9
548.536	4.88
548.879	4.89
549.222	4.89
549.565	4.9
549.908	4.91
550.25	4.92
550.593	4.93
550.936	4.95
551.278	4.92
551.621	4.93
551.963	4.97
552.306	4.97
552.648	4.95
552.991	4.92
553.333	4.94
553.675	4.94
554.017	4.92
554.36	4.94
554.702	4.93
555.044	4.92
555.386	4.94
555.728	4.95
556.07	4.9
556.412	4.89
556.754	4.87
557.096	4.86
557.438	4.87
557.78	4.86
558.121	4.89
558.463	4.88
558.805	4.9
559.147	4.87
559.488	4.86
559.83	4.92
560.171	4.93
560.513	4.9
560.854	4.84
561.196	4.85
561.537	4.83
561.878	4.86
562.22	4.83
562.561	4.84
562.902	4.88
563.243	4.87
563.584	4.9
563.925	4.94
564.266	4.94
564.607	4.91
564.948	4.93
565.289	4.92
565.63	4.93
565.971	4.92
566.312	4.92
566.653	4.93
566.993	4.86
567.334	4.89
567.675	4.91
568.015	4.95
568.356	4.92
568.696	4.92
569.037	4.91
569.377	4.95
569.718	4.93
570.058	4.93
570.398	4.95
570.739	4.92
571.079	4.9
571.419	4.9
571.759	4.88
572.099	4.87
572.439	4.88
572.779	4.88
573.119	4.9
573.459	4.89
573.799	4.88
574.139	4.89
574.479	4.88
574.819	4.9
575.158	4.9
575.498	4.91
575.838	4.91
576.177	4.87
576.517	4.86
576.856	4.87
577.196	4.89
577.535	4.86
577.875	4.88
578.214	4.89
578.553	4.91
578.893	4.93
579.232	4.95
579.571	4.94
579.91	4.95
580.25	4.94
580.589	4.99
580.928	4.99
581.267	5
581.606	5
581.945	5
582.283	4.99
582.622	5.01
582.961	5.01
583.3	5.04
583.639	5.04
583.977	5.02
584.316	4.96
584.654	5.05
584.993	5.07
585.332	5.09
585.67	5.07
586.008	5.1
586.347	5.11
586.685	5.12
587.024	5.09
587.362	5.12
587.7	5.13
588.038	5.14
588.376	5.14
588.715	5.12
589.053	5.13
589.391	5.17
589.729	5.17
590.067	5.18
590.404	5.17
590.742	5.16
591.08	5.17
591.418	5.21
591.756	5.15
592.093	5.12
592.431	5.12
592.769	5.15
593.106	5.17
593.444	5.16
593.781	5.18
594.119	5.21
594.456	5.21
594.793	5.17
595.131	5.17
595.468	5.17
595.805	5.21
596.143	5.21
596.48	5.21
596.817	5.22
597.154	5.22
597.491	5.22
597.828	5.24
598.165	5.28
598.502	5.24
598.839	5.26
599.176	5.29
599.512	5.26
599.849	5.26
600.186	5.24
600.523	5.21
600.859	5.21
601.196	5.16
601.532	5.16
601.869	5.15
602.205	5.15
602.542	5.15
602.878	5.14
603.215	5.12
603.551	5.11
603.887	5.12
604.223	5.14
604.56	5.14
604.896	5.16
605.232	5.15
605.568	5.17
605.904	5.15
606.24	5.17
606.576	5.2
606.912	5.19
607.248	5.21
607.583	5.24
607.919	5.21
608.255	5.29
608.591	5.28
608.926	5.33
609.262	5.39
609.597	5.39
609.933	5.43
610.268	5.46
610.604	5.44
610.939	5.46
611.275	5.44
611.61	5.48
611.945	5.5
612.281	5.5
612.616	5.52
612.951	5.55
613.286	5.53
613.621	5.5
613.956	5.52
614.291	5.48
614.626	5.5
614.961	5.53
615.296	5.53
615.631	5.55
615.966	5.56
616.3	5.53
616.635	5.53
616.97	5.51
617.304	5.53
617.639	5.65
617.973	5.53
618.308	5.53
618.642	5.47
618.977	5.44
619.311	5.4
619.646	5.37
619.98	5.37
620.314	5.38
620.648	5.38
620.983	5.4
621.317	5.46
621.651	5.48
621.985	5.46
622.319	5.41
622.653	5.4
622.987	5.44
623.321	5.43
623.655	5.47
623.988	5.48
624.322	5.42
624.656	5.35
624.99	5.45
625.323	5.44
625.657	5.45
625.99	5.49
626.324	5.51
626.657	5.53
626.991	5.54
627.324	5.54
627.658	5.6
627.991	5.62
628.324	5.62
628.657	5.61
628.991	5.63
629.324	5.67
629.657	5.64
629.99	5.62
630.323	5.62
630.656	5.61
630.989	5.6
631.322	5.6
631.655	5.57
631.987	5.56
632.32	5.56
632.653	5.61
632.986	5.57
633.318	5.56
633.651	5.52
633.984	5.48
634.316	5.51
634.649	5.49
634.981	5.45
635.313	5.44
635.646	5.46
635.978	5.48
636.31	5.48
636.643	5.46
636.975	5.45
637.307	5.46
637.639	5.48
637.971	5.46
638.303	5.47
638.635	5.53
638.967	5.58
639.299	5.54
639.631	5.55
639.963	5.52
640.295	5.61
640.626	5.63
640.958	5.68
641.29	5.62
641.621	5.57
641.953	5.58
642.285	5.55
642.616	5.56
642.948	5.54
643.279	5.54
643.61	5.6
643.942	5.63
644.273	5.57
644.604	5.53
644.936	5.53
645.267	5.6
645.598	5.63
645.929	5.56
646.26	5.63
646.591	5.67
646.922	5.75
647.253	5.65
647.584	5.7
647.915	5.72
648.245	5.81
648.576	5.83
648.907	5.79
649.238	5.79
649.568	5.76
649.899	5.74
650.229	5.71
650.56	5.76
650.89	5.78
651.221	5.8
651.551	5.83
651.882	5.92
652.212	5.9
652.542	5.87
652.872	5.9
653.203	5.88
653.533	5.85
653.863	5.85
654.193	5.87
654.523	5.83
654.853	5.79
655.183	5.78
655.513	5.86
655.843	5.91
656.172	5.99
656.502	6.05
656.832	6.04
657.162	6.08
657.491	6.05
657.821	6.02
658.15	6.04
658.48	6.04
658.809	5.99
659.139	6.06
659.468	6.02
659.798	6.04
660.127	6.04
660.456	6.08
660.785	6.06
661.115	6.03
661.444	6.15
661.773	6.24
662.102	6.23
662.431	6.25
662.76	6.26
663.089	6.3
663.418	6.3
663.747	6.39
664.076	6.42
664.404	6.46
664.733	6.48
665.062	6.56
665.39	6.51
665.719	6.48
666.048	6.35
666.376	6.35
666.705	6.44
667.033	6.49
667.362	6.46
667.69	6.53
668.018	6.62
668.347	6.53
668.675	6.47
669.003	6.38
669.331	6.32
669.659	6.19
669.987	6.16
670.315	6.14
670.643	6
670.971	6.01
671.299	6.05
671.627	5.98
671.955	5.89
672.283	5.93
672.61	5.98
672.938	6.14
673.266	6.21
673.593	6.14
673.921	6.16
674.249	6.19
674.576	6.19
674.904	6.14
675.231	6.27
675.558	6.31
675.886	6.35
676.213	6.35
676.54	6.51
676.867	6.44
677.195	6.49
677.522	6.59
677.849	6.61
678.176	6.48
678.503	6.46
678.83	6.42
679.157	6.39
679.484	6.39
679.81	6.34
680.137	6.37
680.464	6.3
680.791	6.33
681.117	6.4
681.444	6.37
681.771	6.41
682.097	6.37
682.424	6.39
682.75	6.44
683.077	6.47
683.403	6.38
683.729	6.38
684.056	6.43
684.382	6.46
684.708	6.41
685.034	6.54
685.36	6.61
685.686	6.74
686.012	6.95
686.339	6.98
686.664	6.98
686.99	6.79
687.316	6.91
687.642	6.89
687.968	6.76
688.294	6.65
688.619	6.62
688.945	6.57
689.271	6.55
689.596	6.61
689.922	6.65
690.247	6.66
690.573	6.77
690.898	6.73
691.224	6.63
691.549	6.65
691.874	6.61
692.2	6.52
692.525	6.45
692.85	6.27
693.175	6.23
693.5	6.2
693.825	6.3
694.15	6.11
694.475	6.15
694.8	6.17
695.125	6.26
695.45	6.27
695.775	6.29
696.099	6.28
696.424	6.26
696.749	6.36
697.073	6.39
697.398	6.44
697.723	6.43
698.047	6.55
698.372	6.56
698.696	6.48
699.02	6.52
699.345	6.5
699.669	6.46
699.993	6.44
700.318	6.54
700.642	6.66
700.966	6.77
701.29	6.85
701.614	7.01
701.938	7.08
702.262	7.14
702.586	7.2
702.91	7.22
703.234	7.1
703.557	6.93
703.881	6.97
704.205	6.75
704.529	6.72
704.852	6.58
705.176	6.67
705.499	6.7
705.823	6.84
706.146	7.04
706.47	7.21
706.793	7.23
707.117	7.15
707.44	7.09
707.763	7
708.086	6.77
708.409	6.64
708.733	6.53
709.056	6.52
709.379	6.64
709.702	6.65
710.025	6.82
710.348	6.85
710.671	6.98
710.993	7.09
711.316	7.03
711.639	6.97
711.962	7.04
712.284	7.11
712.607	7.18
712.93	7.02
713.252	7.04
713.575	7.07
713.897	7.01
714.22	7.03
714.542	7.24
714.864	7.41
715.187	7.47
715.509	7.44
715.831	7.47
716.153	7.31
716.475	7.4
716.798	7.27
717.12	7.34
717.442	7.22
717.764	7.27
718.085	7.37
718.407	7.53
718.729	7.37
719.051	7.38
719.373	7.31
719.695	7.44
720.016	7.43
720.338	7.54
720.659	7.52
720.981	7.34
721.302	7.43
721.624	7.4
721.945	7.35
722.267	7.44
722.588	7.25
722.909	7.2
723.231	7.04
723.552	7.18
723.873	7.09
724.194	7.08
724.515	7.07
724.836	7.06
725.157	6.91
725.478	6.98
725.799	7.02
726.12	6.92
726.441	6.93
726.762	6.88
727.083	6.85
727.403	7.02
727.724	7.12
728.045	6.94
728.365	6.96
728.686	6.88
729.006	7.07
729.327	7.21
729.647	7.41
729.967	7.51
730.288	7.62
730.608	7.68
730.928	7.76
731.249	7.79
731.569	7.75
731.889	7.87
732.209	7.89
732.529	8.04
732.849	8.05
733.169	8
733.489	7.98
733.809	8.14
734.129	7.88
734.448	8.07
734.768	8.2
735.088	8.1
735.408	8.12
735.727	7.84
736.047	7.86
736.366	7.85
736.686	7.79
737.005	7.72
737.325	7.83
737.644	7.66
737.963	7.6
738.283	7.68
738.602	7.87
738.921	7.85
739.24	7.71
739.56	7.8
739.879	7.85
740.198	8.11
740.517	7.94
740.836	8.22
741.155	8.24
741.473	8.18
741.792	8.13
742.111	8.19
742.43	8.47
742.748	8.56
743.067	8.43
743.386	8.38
743.704	8.29
744.023	8.46
744.341	8.66
744.66	8.67
744.978	8.7
745.297	8.74
745.615	8.74
745.933	8.87
746.252	8.84
746.57	9.01
746.888	8.92
747.206	8.96
747.524	8.79
747.842	8.68
748.16	8.74
748.478	9.06
748.796	9.32
749.114	9.34
749.432	9.34
749.749	9.39
750.067	9.7
750.385	9.97
750.703	9.83
751.02	9.79
751.338	9.92
751.655	10.02
751.973	9.93
752.29	9.86
752.608	9.5
752.925	9.66
753.242	9.43
753.56	9.34
753.877	9.17
754.194	9.56
754.511	9.48
754.828	9.37
755.145	9.35
755.462	9.36
755.779	9.16
756.096	9.19
756.413	9.3
756.73	9.3
757.047	9.02
757.364	9.25
757.68	9.6
757.997	9.66
758.314	9.61
758.63	9.42
758.947	9.59
759.264	9.97
759.58	9.94
759.896	9.93
760.213	9.83
760.529	10.2
760.846	9.91
761.162	9.98
761.478	10.03
761.794	10.07
762.11	9.83
762.426	9.91
762.743	10.04
763.059	10.2
763.375	10.19
763.69	10.35
764.006	10.11
764.322	9.9
764.638	9.68
764.954	9.64
765.27	9.93
765.585	10.09
765.901	9.86
766.216	9.83
766.532	9.8
766.848	9.95
767.163	9.8
767.478	9.91
767.794	10.08
768.109	10.14
768.424	9.99
768.74	10.19
769.055	10.49
769.37	10.33
769.685	10.07
770	9.87
770.315	9.68
770.63	9.53
770.945	9.6
771.26	9.92
771.575	9.73
771.89	9.34
772.205	8.9
772.52	9.33
772.834	9.46
773.149	9.71
773.464	9.94
773.778	9.77
774.093	9.52
774.407	9.23
774.722	9.56
775.036	9.73
775.351	9.74
775.665	9.78
775.979	9.58
776.293	9.88
776.608	9.96
776.922	10.12
777.236	10.33
777.55	10.17
777.864	10.28
778.178	10.72
778.492	10.7
778.806	10.89
779.12	10.84
779.434	10.86
779.747	10.7
780.061	10.57
780.375	10.99
780.689	11.45
781.002	11.6
781.316	11.13
781.629	11.29
781.943	11.12
782.256	10.57
782.57	10.75
782.883	10.78
783.196	11.1
783.51	10.79
783.823	10.44
784.136	10.51
784.449	10.67
784.762	10.85
785.075	11.15
785.388	11.45
785.701	11.25
786.014	11.1
786.327	10.79
786.64	10.84
786.953	10.91
787.266	10.73
787.578	10.83
787.891	11.15
788.204	10.92
788.516	11.31
788.829	11.65
789.141	11.93
789.454	11.87
789.766	11.43
790.079	11.56
790.391	12.06
790.703	12.21
791.016	12.09
791.328	11.93
791.64	11.46
791.952	11.3
792.264	11.39
792.576	11.81
792.888	12.32
793.2	12.23
793.512	12.16
793.824	12.17
794.136	12.07
794.448	11.91
794.76	12.37
795.071	12.07
795.383	12.21
795.695	12.05
796.006	11.6
796.318	11.88
796.629	11.88
796.941	11.92
797.252	11.9
797.564	11.79
797.875	11.55
798.186	12.38
798.497	12.34
798.809	12.22
799.12	12.05
799.431	11.84
799.742	12
800.053	11.61
800.364	11.84
800.675	12.29
800.986	12.5
801.297	12.05
801.608	11.88
801.918	11.9
802.229	11.84
802.54	12.24
802.851	12.32
803.161	12.58
803.472	13.11
803.782	12.98
804.093	13.38
804.403	13.63
804.714	13.55
805.024	13.32
805.334	13.52
805.645	13.61
805.955	14.05
806.265	14.25
806.575	14.55
806.885	14.41
807.195	14.5
807.505	14.29
807.815	14.22
808.125	14.54
808.435	15.24
808.745	15.16
809.055	15.5
809.365	15.58
809.674	15.52
809.984	15.27
810.294	15.5
810.603	14.62
810.913	14.62
811.222	14.21
811.532	14.46
811.841	15.22
812.151	15
812.46	14.5
812.769	13.57
813.079	13.71
813.388	14.43
813.697	13.02
814.006	13.93
814.315	14.1
814.624	13.54
814.933	12.73
815.242	13.68
815.551	13.52
815.86	13.11
816.169	12.81
816.478	12.8
816.786	12.26
817.095	12.74
817.404	12.71
817.712	13.33
818.021	12.88
818.33	11.75
818.638	11.53
818.947	11.3
819.255	11.45
819.563	11.26
819.872	10.92
820.18	11.38
820.488	11.08
820.796	11.27
821.105	11.36
821.413	11.22
821.721	11.08
822.029	11.08
822.337	11.29
822.645	11.44
822.953	11.4
823.26	11.65
823.568	11.65
823.876	11.62
824.184	11.46
824.491	11.64
824.799	11.76
825.107	11.77
825.414	11.96
825.722	11.88
826.029	12
826.337	11.99
826.644	12.08
826.951	12.13
827.259	12.27
827.566	12.4
827.873	12.62
828.18	12.68
828.488	12.72
828.795	12.76
829.102	12.71
829.409	12.57
829.716	12.55
830.023	12.87
830.329	13.18
830.636	13.29
830.943	12.91
831.25	13.31
831.557	13.41
831.863	13.19
832.17	13.58
832.476	13.62
832.783	13.86
833.089	13.95
833.396	13.98
833.702	13.93
834.009	14.02
834.315	13.58
834.621	13.6
834.928	13.63
835.234	13.69
835.54	13.66
835.846	13.97
836.152	13.6
836.458	13.3
836.764	13.43
837.07	13.6
837.376	13.9
837.682	13.18
837.988	13.57
838.293	13.67
838.599	13.89
838.905	13.91
839.211	13.91
839.516	13.27
839.822	13.44
840.127	12.51
840.433	13.27
840.738	13.87
841.044	14.03
841.349	13.68
841.654	13.54
841.959	14.23
842.265	15.26
842.57	16.07
842.875	16.05
843.18	15.73
843.485	15.51
843.79	15.64
844.095	16.95
844.4	16.96
844.705	17.67
845.01	19.01
845.315	19.02
845.619	18.93
845.924	17.94
846.229	18.01
846.533	19.44
846.838	17.98
847.142	18.33
847.447	19.07
847.751	19.3
848.056	19.03
848.36	19.85
848.664	18.24
848.969	18.14
849.273	17.37
849.577	17.87
849.881	18.24
850.185	17.35
850.489	17.71
850.794	18.18
851.097	18.29
851.401	15.62
851.705	15.13
852.009	17.88
852.313	18.43
852.617	19.15
852.92	19.93
853.224	20.71
853.528	20.88
853.831	19.65
854.135	19.6
854.438	18.64
854.742	18.81
855.045	18.35
855.349	16.49
855.652	17.07
855.955	17.59
856.259	20.21
856.562	21.77
856.865	21.21
857.168	21.99
857.471	23.53
857.774	23.27
858.077	24.49
858.38	22.27
858.683	27.8
858.986	25.14
859.289	23.56
859.592	24.74
859.894	24.36
860.197	24.51
860.5	24.83
860.802	27.31
861.105	26.15
861.407	28.98
861.71	30.58
862.012	30.22
862.315	29.31
862.617	27.19
862.919	28.98
863.222	29.18
863.524	26.39
863.826	23.83
864.128	26.83
864.43	25.91
864.732	24.25
865.034	20.88
865.336	24.07
865.638	24.86
865.94	23.76
866.242	23.84
866.544	25.06
866.846	26.81
867.147	26.06
867.449	27.08
867.751	24.68
868.052	25.59
868.354	26.94
868.655	27.42
868.957	27.21
869.258	24.77
869.56	26.21
869.861	25.48
870.162	25.74
870.463	25.01
870.765	24.71
871.066	28.61
871.367	29.17
871.668	26.82
871.969	26.98
872.27	27.38
872.571	27.61
872.872	25.75
873.173	23.9
873.473	23.25
873.774	23
874.075	24.45
874.376	22.54
874.676	21.94
874.977	20.15
875.277	21.37
875.578	20.95
875.878	18.3
876.179	20.65
876.479	21.74
876.78	20.72
877.08	21.43
877.38	17.18
877.68	16.81
877.981	18.22
878.281	16.91
878.581	14.6
