Data from MVZ_BU88648_Reflection_00005.txt Node
Date: Tue Nov 19 12:02:00 EST 2019
User: vgr7
Spectrometer: USB2G7710
Scans to average: 3
Trigger mode: 4
Integration Time (sec): 2.000000E-2
Electric dark correction enabled: true
Boxcar width: 10
XAxis mode: Wavelengths
Number of Pixels in Spectrum: 2048
>>>>>Begin Spectral Data<<<<<
177.721	-2583.82
178.105	-363.86
178.488	-214.84
178.871	-365.38
179.254	-59.62
179.636	-156.76
180.019	-57.2
180.402	162.5
180.785	-54.65
181.168	40.56
181.55	-145.54
181.933	191.35
182.316	41.96
182.698	174.68
183.081	51.58
183.463	7.56
183.846	-9.62
184.228	-2.48
184.611	-54.69
184.993	-60.11
185.376	-62.6
185.758	-33.95
186.14	-79.11
186.522	-67.58
186.904	-81.6
187.287	-144.73
187.669	-88.26
188.051	-93.03
188.433	-73.66
188.815	-56.9
189.197	-90.25
189.579	-98.05
189.961	-92.27
190.342	-116.79
190.724	-128.66
191.106	-170.44
191.488	-102.42
191.869	-49.91
192.251	-38.25
192.633	-19.07
193.014	-26.04
193.396	-14.14
193.777	-21.54
194.159	10.04
194.54	36.85
194.922	19.8
195.303	-8.25
195.684	-19.43
196.065	-19.5
196.447	-45.72
196.828	-136.57
197.209	-93.73
197.59	-27.26
197.971	-17.18
198.352	-25.98
198.733	-30.79
199.114	-56.15
199.495	-94.84
199.876	-204.25
200.257	-249.52
200.638	-135.22
201.018	-106.15
201.399	-88.35
201.78	-80.69
202.16	-79.04
202.541	-89.18
202.922	-77.86
203.302	-56.89
203.683	-67.19
204.063	-69.1
204.444	-58.32
204.824	-44.01
205.204	-44.59
205.585	-44.58
205.965	-67.14
206.345	-58.19
206.725	-41.92
207.106	-27.77
207.486	-11.73
207.866	-15.68
208.246	-5.29
208.626	-16.37
209.006	-30.21
209.386	-40.97
209.766	-46.34
210.145	-49.03
210.525	-62.85
210.905	-63.89
211.285	-57.29
211.664	-38.39
212.044	-29.06
212.424	-31.12
212.803	-33.52
213.183	-32.37
213.562	-32.45
213.942	-33.2
214.321	-28.54
214.701	-39.76
215.08	-45.43
215.459	-33.45
215.838	-24.33
216.218	-30.34
216.597	-15.25
216.976	-17.77
217.355	-11.78
217.734	-13.56
218.113	-18.35
218.492	-19.15
218.871	-11.45
219.25	-23.68
219.629	-29.54
220.008	-38.13
220.387	-55.7
220.766	-46.07
221.144	-41.44
221.523	-46.3
221.902	-39.18
222.28	-37.1
222.659	-13.23
223.037	-6.92
223.416	-26.98
223.794	-19.74
224.173	-26.1
224.551	-31.51
224.929	-23.78
225.308	-24.11
225.686	-28.74
226.064	-24.06
226.442	-13.37
226.821	-15.2
227.199	-9.56
227.577	-9.23
227.955	-8.84
228.333	-6.62
228.711	-1.23
229.089	0.61
229.467	-3.11
229.845	-3.87
230.222	-1.58
230.6	-4.18
230.978	-0.94
231.356	2.39
231.733	-2.18
232.111	-0.99
232.488	1.61
232.866	3.42
233.243	1.98
233.621	4.44
233.998	1.76
234.376	-1.32
234.753	1.04
235.13	1.43
235.508	0.65
235.885	0.89
236.262	1.37
236.639	-0.11
237.016	-1.96
237.393	0.65
237.77	1.1
238.147	-0.28
238.524	-0.12
238.901	-0.6
239.278	-0.83
239.655	-0.06
240.032	-0.75
240.409	-0.97
240.785	-1
241.162	-0.55
241.539	-0.53
241.915	0.38
242.292	0.79
242.668	0.59
243.045	1.23
243.421	1.95
243.798	2.19
244.174	2.09
244.551	2.31
244.927	2.59
245.303	2.32
245.679	2.45
246.056	2.86
246.432	3.03
246.808	3.14
247.184	3.46
247.56	3.51
247.936	3.78
248.312	3.7
248.688	3.74
249.064	3.8
249.44	3.63
249.815	3.51
250.191	3.73
250.567	3.85
250.943	3.77
251.318	3.38
251.694	3.45
252.069	3.95
252.445	3.85
252.82	4.15
253.196	4.59
253.571	4.6
253.947	4.51
254.322	4.61
254.697	4.61
255.073	4.23
255.448	4.28
255.823	4.27
256.198	4.32
256.573	4.44
256.948	4.67
257.323	4.93
257.698	4.99
258.073	4.92
258.448	4.64
258.823	4.53
259.198	4.61
259.573	4.5
259.948	4.41
260.322	4.18
260.697	4.22
261.072	4.15
261.446	4.19
261.821	4.09
262.195	4.16
262.57	4.22
262.944	4.18
263.319	4.25
263.693	4.32
264.067	4.24
264.442	4.11
264.816	3.9
265.19	3.97
265.564	3.88
265.938	3.79
266.313	3.85
266.687	3.83
267.061	3.81
267.435	3.85
267.809	3.5
268.183	3.55
268.556	3.39
268.93	3.09
269.304	3.04
269.678	2.99
270.051	2.81
270.425	2.65
270.799	2.56
271.172	2.59
271.546	2.75
271.919	2.74
272.293	2.9
272.666	2.88
273.04	2.76
273.413	2.75
273.787	2.79
274.16	2.75
274.533	2.88
274.906	2.97
275.279	2.95
275.653	3.09
276.026	3.21
276.399	3.1
276.772	3.25
277.145	3.16
277.518	3.33
277.891	3.32
278.263	3.47
278.636	3.57
279.009	3.45
279.382	3.19
279.755	3.34
280.127	3.26
280.5	3.22
280.872	3.13
281.245	3.28
281.617	3.29
281.99	3.52
282.362	3.36
282.735	3.28
283.107	3.32
283.479	3.34
283.852	3.45
284.224	3.47
284.596	3.55
284.968	3.54
285.34	3.47
285.713	3.52
286.085	3.35
286.457	3.39
286.829	3.35
287.201	3.52
287.572	3.38
287.944	3.36
288.316	3.49
288.688	3.54
289.06	3.57
289.431	3.63
289.803	3.6
290.175	3.49
290.546	3.47
290.918	3.32
291.289	3.33
291.661	3.38
292.032	3.42
292.403	3.45
292.775	3.6
293.146	3.55
293.517	3.62
293.889	3.77
294.26	3.79
294.631	3.91
295.002	3.81
295.373	3.76
295.744	3.7
296.115	3.65
296.486	3.71
296.857	3.7
297.228	3.55
297.599	3.45
297.97	3.56
298.34	3.61
298.711	3.75
299.082	3.76
299.452	3.63
299.823	3.56
300.194	3.53
300.564	3.29
300.935	3.35
301.305	3.25
301.676	3.25
302.046	3.07
302.416	3
302.787	3.14
303.157	3.22
303.527	3.31
303.897	3.27
304.267	3.33
304.637	3.27
305.008	3.43
305.378	3.54
305.748	3.59
306.117	3.59
306.487	3.64
306.857	3.56
307.227	3.59
307.597	3.57
307.967	3.53
308.336	3.65
308.706	3.65
309.076	3.72
309.445	3.77
309.815	3.89
310.184	3.82
310.554	3.64
310.923	3.72
311.293	3.63
311.662	3.69
312.031	3.66
312.401	3.7
312.77	3.57
313.139	3.37
313.508	3.24
313.877	3.27
314.246	3.04
314.616	3.1
314.985	3.08
315.353	3.22
315.722	3.35
316.091	3.42
316.46	3.33
316.829	3.18
317.198	3
317.567	3.03
317.935	3.09
318.304	3.31
318.672	3.28
319.041	3.33
319.41	3.23
319.778	3.14
320.147	2.89
320.515	3.01
320.883	2.95
321.252	3.13
321.62	3.07
321.988	3.24
322.357	3.15
322.725	3.1
323.093	3.05
323.461	2.94
323.829	2.96
324.197	3
324.565	3.05
324.933	3.14
325.301	3.04
325.669	3.08
326.037	2.91
326.405	3.01
326.772	2.98
327.14	2.97
327.508	2.89
327.875	2.99
328.243	3.05
328.61	3.23
328.978	3.2
329.346	3.11
329.713	3.31
330.08	3.3
330.448	3.35
330.815	3.36
331.182	3.27
331.55	3.17
331.917	3.18
332.284	3.22
332.651	3.14
333.018	3.1
333.385	3.09
333.752	3.15
334.119	3.12
334.486	3.2
334.853	3.2
335.22	3.13
335.587	3
335.954	2.91
336.32	2.92
336.687	2.91
337.054	3.07
337.42	2.92
337.787	2.89
338.153	3.02
338.52	3.06
338.886	3.11
339.253	3.07
339.619	3.1
339.986	3.12
340.352	3.23
340.718	3.26
341.084	3.25
341.451	3.26
341.817	3.29
342.183	3.24
342.549	3.24
342.915	3.36
343.281	3.43
343.647	3.54
344.013	3.51
344.379	3.53
344.745	3.42
345.11	3.33
345.476	3.54
345.842	3.41
346.208	3.32
346.573	3.31
346.939	3.3
347.304	3.32
347.67	3.31
348.035	3.18
348.401	3.29
348.766	3.29
349.132	3.25
349.497	3.22
349.862	3.19
350.228	3.26
350.593	3.17
350.958	3.27
351.323	3.14
351.688	3.25
352.053	3.27
352.418	3.34
352.783	3.34
353.148	3.27
353.513	3.34
353.878	3.31
354.243	3.22
354.608	3.28
354.972	3.29
355.337	3.31
355.702	3.35
356.066	3.3
356.431	3.23
356.795	3.17
357.16	3.09
357.524	3.16
357.889	3.14
358.253	3.25
358.618	3.26
358.982	3.3
359.346	3.33
359.71	3.34
360.075	3.37
360.439	3.48
360.803	3.5
361.167	3.46
361.531	3.46
361.895	3.55
362.259	3.54
362.623	3.53
362.987	3.49
363.351	3.51
363.714	3.47
364.078	3.55
364.442	3.62
364.806	3.63
365.169	3.64
365.533	3.65
365.896	3.64
366.26	3.59
366.623	3.57
366.987	3.52
367.35	3.49
367.714	3.49
368.077	3.39
368.44	3.35
368.803	3.25
369.167	3.31
369.53	3.31
369.893	3.32
370.256	3.27
370.619	3.27
370.982	3.24
371.345	3.28
371.708	3.28
372.071	3.24
372.434	3.26
372.797	3.22
373.159	3.19
373.522	3.22
373.885	3.23
374.247	3.2
374.61	3.22
374.973	3.21
375.335	3.28
375.698	3.3
376.06	3.28
376.423	3.39
376.785	3.38
377.147	3.31
377.51	3.34
377.872	3.45
378.234	3.51
378.596	3.56
378.958	3.6
379.321	3.53
379.683	3.58
380.045	3.53
380.407	3.53
380.769	3.51
381.13	3.54
381.492	3.55
381.854	3.56
382.216	3.56
382.578	3.57
382.939	3.47
383.301	3.5
383.663	3.45
384.024	3.36
384.386	3.4
384.747	3.45
385.109	3.45
385.47	3.42
385.832	3.38
386.193	3.36
386.554	3.28
386.916	3.35
387.277	3.33
387.638	3.37
387.999	3.37
388.36	3.42
388.721	3.39
389.082	3.4
389.443	3.41
389.804	3.43
390.165	3.4
390.526	3.39
390.887	3.39
391.248	3.48
391.609	3.59
391.969	3.58
392.33	3.59
392.691	3.59
393.051	3.58
393.412	3.59
393.772	3.61
394.133	3.63
394.493	3.6
394.854	3.6
395.214	3.61
395.574	3.61
395.935	3.58
396.295	3.54
396.655	3.53
397.015	3.56
397.376	3.54
397.736	3.51
398.096	3.52
398.456	3.55
398.816	3.54
399.176	3.47
399.535	3.45
399.895	3.43
400.255	3.44
400.615	3.44
400.975	3.43
401.334	3.42
401.694	3.45
402.054	3.47
402.413	3.51
402.773	3.57
403.132	3.57
403.492	3.58
403.851	3.61
404.211	3.62
404.57	3.62
404.929	3.6
405.288	3.66
405.648	3.66
406.007	3.63
406.366	3.61
406.725	3.63
407.084	3.65
407.443	3.64
407.802	3.61
408.161	3.59
408.52	3.6
408.879	3.61
409.238	3.59
409.596	3.58
409.955	3.52
410.314	3.47
410.673	3.48
411.031	3.5
411.39	3.5
411.748	3.5
412.107	3.5
412.465	3.52
412.824	3.49
413.182	3.49
413.54	3.5
413.899	3.5
414.257	3.52
414.615	3.51
414.974	3.52
415.332	3.53
415.69	3.54
416.048	3.54
416.406	3.53
416.764	3.55
417.122	3.5
417.48	3.53
417.838	3.52
418.195	3.51
418.553	3.5
418.911	3.49
419.269	3.48
419.626	3.49
419.984	3.48
420.342	3.49
420.699	3.49
421.057	3.49
421.414	3.49
421.772	3.5
422.129	3.5
422.486	3.51
422.844	3.51
423.201	3.52
423.558	3.52
423.915	3.52
424.273	3.53
424.63	3.54
424.987	3.54
425.344	3.55
425.701	3.55
426.058	3.55
426.415	3.56
426.772	3.57
427.128	3.56
427.485	3.57
427.842	3.57
428.199	3.58
428.555	3.59
428.912	3.58
429.269	3.56
429.625	3.58
429.982	3.56
430.338	3.56
430.695	3.55
431.051	3.58
431.407	3.57
431.764	3.54
432.12	3.57
432.476	3.59
432.832	3.6
433.189	3.61
433.545	3.61
433.901	3.62
434.257	3.62
434.613	3.62
434.969	3.61
435.325	3.62
435.681	3.62
436.036	3.6
436.392	3.61
436.748	3.61
437.104	3.61
437.459	3.6
437.815	3.59
438.171	3.6
438.526	3.59
438.882	3.59
439.237	3.59
439.593	3.58
439.948	3.56
440.304	3.55
440.659	3.58
441.014	3.58
441.369	3.58
441.725	3.57
442.08	3.56
442.435	3.59
442.79	3.57
443.145	3.56
443.5	3.58
443.855	3.58
444.21	3.59
444.565	3.58
444.92	3.6
445.275	3.61
445.629	3.6
445.984	3.6
446.339	3.63
446.693	3.64
447.048	3.63
447.403	3.64
447.757	3.63
448.112	3.61
448.466	3.62
448.82	3.62
449.175	3.63
449.529	3.64
449.883	3.62
450.238	3.65
450.592	3.66
450.946	3.66
451.3	3.66
451.654	3.67
452.008	3.67
452.362	3.67
452.716	3.68
453.07	3.69
453.424	3.68
453.778	3.66
454.132	3.67
454.486	3.66
454.839	3.65
455.193	3.66
455.547	3.66
455.9	3.67
456.254	3.67
456.607	3.67
456.961	3.66
457.314	3.67
457.668	3.67
458.021	3.67
458.375	3.67
458.728	3.68
459.081	3.68
459.434	3.69
459.787	3.68
460.141	3.69
460.494	3.71
460.847	3.71
461.2	3.69
461.553	3.69
461.906	3.7
462.259	3.7
462.611	3.7
462.964	3.71
463.317	3.7
463.67	3.7
464.022	3.7
464.375	3.71
464.728	3.71
465.08	3.7
465.433	3.69
465.785	3.72
466.138	3.72
466.49	3.72
466.843	3.72
467.195	3.74
467.547	3.74
467.899	3.71
468.252	3.71
468.604	3.75
468.956	3.76
469.308	3.76
469.66	3.78
470.012	3.78
470.364	3.79
470.716	3.8
471.068	3.83
471.42	3.83
471.772	3.84
472.123	3.84
472.475	3.86
472.827	3.89
473.178	3.88
473.53	3.88
473.882	3.87
474.233	3.86
474.585	3.85
474.936	3.83
475.288	3.85
475.639	3.85
475.99	3.84
476.342	3.86
476.693	3.86
477.044	3.86
477.395	3.87
477.746	3.85
478.097	3.86
478.448	3.84
478.8	3.82
479.15	3.81
479.501	3.8
479.852	3.8
480.203	3.79
480.554	3.78
480.905	3.79
481.255	3.78
481.606	3.79
481.957	3.82
482.307	3.83
482.658	3.83
483.009	3.84
483.359	3.84
483.709	3.85
484.06	3.85
484.41	3.85
484.761	3.85
485.111	3.86
485.461	3.87
485.811	3.87
486.162	3.88
486.512	3.89
486.862	3.89
487.212	3.9
487.562	3.91
487.912	3.92
488.262	3.92
488.612	3.93
488.961	3.94
489.311	3.92
489.661	3.93
490.011	3.93
490.36	3.91
490.71	3.92
491.06	3.91
491.409	3.91
491.759	3.91
492.108	3.9
492.458	3.89
492.807	3.87
493.157	3.87
493.506	3.87
493.855	3.88
494.204	3.89
494.554	3.86
494.903	3.83
495.252	3.83
495.601	3.84
495.95	3.84
496.299	3.84
496.648	3.86
496.997	3.85
497.346	3.83
497.695	3.84
498.043	3.85
498.392	3.84
498.741	3.84
499.09	3.83
499.438	3.84
499.787	3.86
500.135	3.85
500.484	3.86
500.832	3.87
501.181	3.86
501.529	3.87
501.878	3.88
502.226	3.91
502.574	3.9
502.923	3.89
503.271	3.87
503.619	3.84
503.967	3.83
504.315	3.84
504.663	3.85
505.011	3.85
505.359	3.85
505.707	3.86
506.055	3.9
506.403	3.91
506.751	3.92
507.098	3.94
507.446	3.98
507.794	3.97
508.141	3.94
508.489	3.95
508.837	3.94
509.184	3.95
509.531	3.95
509.879	3.95
510.226	3.95
510.574	3.97
510.921	3.97
511.268	3.98
511.616	3.99
511.963	3.98
512.31	3.98
512.657	3.98
513.004	3.98
513.351	3.93
513.698	3.93
514.045	3.92
514.392	3.9
514.739	3.91
515.086	3.93
515.432	3.95
515.779	3.94
516.126	3.98
516.473	3.98
516.819	3.98
517.166	4
517.512	3.99
517.859	3.99
518.205	3.99
518.552	4.01
518.898	4.01
519.245	4.02
519.591	4.03
519.937	4.04
520.283	4.04
520.629	4.06
520.976	4.05
521.322	4.07
521.668	4.08
522.014	4.08
522.36	4.07
522.706	4.06
523.052	4.06
523.398	4.05
523.743	4.03
524.089	4.05
524.435	4.03
524.781	4.06
525.126	4.07
525.472	4.1
525.817	4.08
526.163	4.08
526.509	4.09
526.854	4.09
527.199	4.1
527.545	4.11
527.89	4.11
528.235	4.12
528.581	4.11
528.926	4.1
529.271	4.09
529.616	4.09
529.961	4.11
530.306	4.11
530.651	4.1
530.996	4.13
531.341	4.13
531.686	4.14
532.031	4.13
532.376	4.13
532.721	4.11
533.065	4.12
533.41	4.12
533.755	4.12
534.099	4.12
534.444	4.1
534.788	4.09
535.133	4.08
535.477	4.09
535.822	4.09
536.166	4.11
536.51	4.12
536.855	4.13
537.199	4.13
537.543	4.14
537.887	4.15
538.231	4.13
538.576	4.14
538.92	4.16
539.264	4.16
539.608	4.16
539.951	4.16
540.295	4.16
540.639	4.17
540.983	4.17
541.327	4.2
541.671	4.2
542.014	4.22
542.358	4.22
542.701	4.21
543.045	4.2
543.389	4.2
543.732	4.19
544.075	4.19
544.419	4.18
544.762	4.16
545.105	4.15
545.449	4.14
545.792	4.13
546.135	4.11
546.478	4.11
546.821	4.1
547.165	4.14
547.508	4.14
547.851	4.14
548.194	4.11
548.536	4.1
548.879	4.12
549.222	4.12
549.565	4.12
549.908	4.13
550.25	4.14
550.593	4.13
550.936	4.13
551.278	4.12
551.621	4.13
551.963	4.14
552.306	4.17
552.648	4.19
552.991	4.19
553.333	4.16
553.675	4.18
554.017	4.2
554.36	4.18
554.702	4.15
555.044	4.15
555.386	4.14
555.728	4.14
556.07	4.1
556.412	4.11
556.754	4.1
557.096	4.11
557.438	4.12
557.78	4.12
558.121	4.15
558.463	4.14
558.805	4.15
559.147	4.15
559.488	4.13
559.83	4.13
560.171	4.09
560.513	4.09
560.854	4.08
561.196	4.08
561.537	4.06
561.878	4.11
562.22	4.11
562.561	4.16
562.902	4.16
563.243	4.18
563.584	4.17
563.925	4.17
564.266	4.18
564.607	4.18
564.948	4.18
565.289	4.17
565.63	4.15
565.971	4.16
566.312	4.15
566.653	4.19
566.993	4.18
567.334	4.21
567.675	4.23
568.015	4.19
568.356	4.18
568.696	4.2
569.037	4.19
569.377	4.18
569.718	4.15
570.058	4.14
570.398	4.15
570.739	4.13
571.079	4.14
571.419	4.14
571.759	4.13
572.099	4.13
572.439	4.13
572.779	4.17
573.119	4.17
573.459	4.18
573.799	4.15
574.139	4.17
574.479	4.18
574.819	4.2
575.158	4.21
575.498	4.22
575.838	4.19
576.177	4.19
576.517	4.23
576.856	4.24
577.196	4.24
577.535	4.22
577.875	4.22
578.214	4.2
578.553	4.18
578.893	4.18
579.232	4.19
579.571	4.23
579.91	4.2
580.25	4.18
580.589	4.21
580.928	4.2
581.267	4.2
581.606	4.2
581.945	4.18
582.283	4.17
582.622	4.15
582.961	4.19
583.3	4.18
583.639	4.12
583.977	4.1
584.316	4.12
584.654	4.13
584.993	4.11
585.332	4.11
585.67	4.11
586.008	4.11
586.347	4.1
586.685	4.07
587.024	4.05
587.362	4.07
587.7	4.09
588.038	4.15
588.376	4.13
588.715	4.12
589.053	4.13
589.391	4.16
589.729	4.14
590.067	4.14
590.404	4.15
590.742	4.16
591.08	4.2
591.418	4.19
591.756	4.15
592.093	4.2
592.431	4.23
592.769	4.25
593.106	4.24
593.444	4.26
593.781	4.21
594.119	4.28
594.456	4.27
594.793	4.22
595.131	4.2
595.468	4.22
595.805	4.21
596.143	4.22
596.48	4.22
596.817	4.25
597.154	4.24
597.491	4.26
597.828	4.26
598.165	4.25
598.502	4.23
598.839	4.25
599.176	4.25
599.512	4.24
599.849	4.24
600.186	4.21
600.523	4.22
600.859	4.28
601.196	4.24
601.532	4.24
601.869	4.26
602.205	4.26
602.542	4.27
602.878	4.28
603.215	4.29
603.551	4.32
603.887	4.33
604.223	4.31
604.56	4.29
604.896	4.31
605.232	4.31
605.568	4.34
605.904	4.31
606.24	4.29
606.576	4.27
606.912	4.27
607.248	4.33
607.583	4.29
607.919	4.31
608.255	4.32
608.591	4.35
608.926	4.37
609.262	4.38
609.597	4.36
609.933	4.37
610.268	4.32
610.604	4.3
610.939	4.32
611.275	4.36
611.61	4.36
611.945	4.34
612.281	4.37
612.616	4.38
612.951	4.44
613.286	4.43
613.621	4.47
613.956	4.49
614.291	4.42
614.626	4.45
614.961	4.42
615.296	4.45
615.631	4.46
615.966	4.37
616.3	4.35
616.635	4.38
616.97	4.39
617.304	4.41
617.639	4.42
617.973	4.4
618.308	4.41
618.642	4.41
618.977	4.41
619.311	4.41
619.646	4.4
619.98	4.42
620.314	4.45
620.648	4.42
620.983	4.35
621.317	4.41
621.651	4.41
621.985	4.45
622.319	4.37
622.653	4.35
622.987	4.41
623.321	4.44
623.655	4.45
623.988	4.43
624.322	4.45
624.656	4.44
624.99	4.42
625.323	4.4
625.657	4.4
625.99	4.41
626.324	4.38
626.657	4.43
626.991	4.44
627.324	4.46
627.658	4.49
627.991	4.57
628.324	4.57
628.657	4.55
628.991	4.55
629.324	4.57
629.657	4.57
629.99	4.52
630.323	4.51
630.656	4.44
630.989	4.44
631.322	4.47
631.655	4.5
631.987	4.48
632.32	4.49
632.653	4.48
632.986	4.46
633.318	4.47
633.651	4.42
633.984	4.42
634.316	4.43
634.649	4.46
634.981	4.43
635.313	4.47
635.646	4.48
635.978	4.51
636.31	4.5
636.643	4.48
636.975	4.53
637.307	4.57
637.639	4.63
637.971	4.61
638.303	4.54
638.635	4.5
638.967	4.54
639.299	4.53
639.631	4.55
639.963	4.53
640.295	4.53
640.626	4.51
640.958	4.54
641.29	4.49
641.621	4.43
641.953	4.36
642.285	4.35
642.616	4.36
642.948	4.34
643.279	4.32
643.61	4.39
643.942	4.38
644.273	4.36
644.604	4.28
644.936	4.33
645.267	4.39
645.598	4.41
645.929	4.33
646.26	4.34
646.591	4.32
646.922	4.4
647.253	4.4
647.584	4.46
647.915	4.32
648.245	4.33
648.576	4.35
648.907	4.39
649.238	4.27
649.568	4.33
649.899	4.32
650.229	4.37
650.56	4.32
650.89	4.32
651.221	4.29
651.551	4.35
651.882	4.35
652.212	4.29
652.542	4.31
652.872	4.39
653.203	4.44
653.533	4.52
653.863	4.48
654.193	4.47
654.523	4.4
654.853	4.53
655.183	4.52
655.513	4.52
655.843	4.54
656.172	4.61
656.502	4.52
656.832	4.51
657.162	4.5
657.491	4.52
657.821	4.53
658.15	4.53
658.48	4.59
658.809	4.58
659.139	4.6
659.468	4.6
659.798	4.63
660.127	4.63
660.456	4.59
660.785	4.67
661.115	4.7
661.444	4.8
661.773	4.82
662.102	4.86
662.431	4.85
662.76	4.83
663.089	4.81
663.418	4.83
663.747	4.77
664.076	4.81
664.404	4.92
664.733	4.94
665.062	4.99
665.39	4.91
665.719	4.89
666.048	4.86
666.376	4.92
666.705	4.94
667.033	4.89
667.362	4.81
667.69	4.68
668.018	4.66
668.347	4.59
668.675	4.56
669.003	4.45
669.331	4.42
669.659	4.47
669.987	4.42
670.315	4.49
670.643	4.55
670.971	4.55
671.299	4.49
671.627	4.51
671.955	4.42
672.283	4.41
672.61	4.45
672.938	4.58
673.266	4.57
673.593	4.54
673.921	4.53
674.249	4.65
674.576	4.71
674.904	4.73
675.231	4.7
675.558	4.71
675.886	4.77
676.213	4.78
676.54	4.75
676.867	4.89
677.195	4.9
677.522	4.9
677.849	4.91
678.176	4.86
678.503	4.87
678.83	4.94
679.157	4.95
679.484	5
679.81	4.88
680.137	4.85
680.464	4.84
680.791	4.88
681.117	4.84
681.444	4.83
681.771	4.82
682.097	4.85
682.424	4.8
682.75	4.84
683.077	4.9
683.403	4.91
683.729	4.78
684.056	4.7
684.382	4.73
684.708	4.68
685.034	4.75
685.36	4.64
685.686	4.69
686.012	4.69
686.339	4.62
686.664	4.73
686.99	4.71
687.316	4.75
687.642	4.86
687.968	4.94
688.294	4.93
688.619	4.95
688.945	5
689.271	5.07
689.596	4.99
689.922	5.01
690.247	5.02
690.573	5.07
690.898	5.11
691.224	5.14
691.549	5.16
691.874	5.16
692.2	5.13
692.525	5
692.85	5.17
693.175	5.1
693.5	5.07
693.825	5.09
694.15	5.07
694.475	4.87
694.8	4.86
695.125	4.87
695.45	4.79
695.775	4.73
696.099	4.71
696.424	4.88
696.749	4.95
697.073	4.87
697.398	5
697.723	4.99
698.047	4.98
698.372	4.98
698.696	4.93
699.02	5.05
699.345	5.12
699.669	4.94
699.993	4.97
700.318	4.98
700.642	4.99
700.966	4.99
701.29	5.11
701.614	5.04
701.938	5.02
702.262	5.09
702.586	5.1
702.91	5.12
703.234	5.03
703.557	5.02
703.881	5.25
704.205	5.11
704.529	5.13
704.852	5.08
705.176	5.07
705.499	5.12
705.823	5.13
706.146	5.08
706.47	5.21
706.793	5.23
707.117	5.19
707.44	5.22
707.763	5.32
708.086	5.2
708.409	5.06
708.733	5.1
709.056	5.04
709.379	5.2
709.702	5.35
710.025	5.35
710.348	5.19
710.671	5.02
710.993	5.18
711.316	5.25
711.639	5.32
711.962	5.38
712.284	5.38
712.607	5.38
712.93	5.42
713.252	5.39
713.575	5.49
713.897	5.56
714.22	5.46
714.542	5.46
714.864	5.43
715.187	5.68
715.509	5.77
715.831	5.81
716.153	5.81
716.475	5.79
716.798	5.81
717.12	5.82
717.442	5.88
717.764	5.78
718.085	5.75
718.407	5.66
718.729	5.69
719.051	5.48
719.373	5.51
719.695	5.55
720.016	5.52
720.338	5.65
720.659	5.59
720.981	5.62
721.302	5.52
721.624	5.7
721.945	5.71
722.267	5.59
722.588	5.6
722.909	5.45
723.231	5.31
723.552	5.36
723.873	5.4
724.194	5.32
724.515	5.36
724.836	5.28
725.157	5.32
725.478	5.24
725.799	5.46
726.12	5.44
726.441	5.37
726.762	5.37
727.083	5.38
727.403	5.26
727.724	5.33
728.045	5.48
728.365	5.51
728.686	5.45
729.006	5.38
729.327	5.46
729.647	5.49
729.967	5.5
730.288	5.5
730.608	5.46
730.928	5.6
731.249	5.61
731.569	5.8
731.889	5.82
732.209	5.74
732.529	5.79
732.849	5.83
733.169	5.84
733.489	5.78
733.809	5.62
734.129	5.79
734.448	5.79
734.768	5.55
735.088	5.49
735.408	5.47
735.727	5.65
736.047	5.65
736.366	5.47
736.686	5.38
737.005	5.65
737.325	5.59
737.644	5.45
737.963	5.4
738.283	5.31
738.602	5.35
738.921	5.58
739.24	5.71
739.56	5.72
739.879	5.69
740.198	5.71
740.517	5.58
740.836	5.53
741.155	5.67
741.473	5.81
741.792	5.72
742.111	5.77
742.43	5.72
742.748	5.65
743.067	5.92
743.386	5.85
743.704	5.53
744.023	5.77
744.341	6.1
744.66	6.07
744.978	5.85
745.297	5.7
745.615	5.71
745.933	5.78
746.252	5.65
746.57	5.68
746.888	5.98
747.206	6.07
747.524	6.21
747.842	5.99
748.16	6
748.478	6.03
748.796	6.11
749.114	6.17
749.432	6.25
749.749	5.88
750.067	6.26
750.385	6.62
750.703	6.46
751.02	6.16
751.338	6.05
751.655	6.31
751.973	6.49
752.29	6.41
752.608	5.95
752.925	6.16
753.242	6.31
753.56	6
753.877	6.27
754.194	6.18
754.511	6.09
754.828	5.96
755.145	6.12
755.462	5.95
755.779	5.68
756.096	5.63
756.413	5.91
756.73	5.73
757.047	5.13
757.364	5.27
757.68	5.32
757.997	5.3
758.314	5.18
758.63	5.27
758.947	5.4
759.264	5.41
759.58	5.17
759.896	5.17
760.213	5.49
760.529	5.59
760.846	5.52
761.162	5.21
761.478	5.51
761.794	5.65
762.11	5.69
762.426	5.88
762.743	5.84
763.059	5.83
763.375	5.7
763.69	5.97
764.006	6.06
764.322	6.14
764.638	6.34
764.954	6.53
765.27	6.47
765.585	6.23
765.901	6.38
766.216	6.47
766.532	6.39
766.848	6.36
767.163	5.94
767.478	5.95
767.794	6.31
768.109	6.25
768.424	6.01
768.74	6.07
769.055	5.93
769.37	5.79
769.685	5.48
770	5.73
770.315	5.55
770.63	5.26
770.945	5.03
771.26	4.92
771.575	4.67
771.89	4.75
772.205	4.73
772.52	4.5
772.834	4.42
773.149	4.22
773.464	4.01
773.778	4
774.093	4.22
774.407	4.41
774.722	4.27
775.036	4.23
775.351	4.28
775.665	4.36
775.979	4.41
776.293	5.05
776.608	5.16
776.922	4.99
777.236	5.38
777.55	5.92
777.864	6.02
778.178	6.11
778.492	5.82
778.806	6.17
779.12	6.39
779.434	6.67
779.747	6.92
780.061	7.37
780.375	8.01
780.689	7.79
781.002	7.55
781.316	7.33
781.629	7.51
781.943	7.94
782.256	7.67
782.57	7.96
782.883	7.42
783.196	7.37
783.51	7.5
783.823	7.39
784.136	6.68
784.449	6.73
784.762	7
785.075	7.51
785.388	7.46
785.701	7.3
786.014	7
786.327	6.99
786.64	6.67
786.953	6.19
787.266	6.18
787.578	6.36
787.891	6.19
788.204	6.33
788.516	5.96
788.829	6.21
789.141	6.14
789.454	6.17
789.766	6.33
790.079	6.24
790.391	5.91
790.703	6.21
791.016	5.99
791.328	5.77
791.64	5.59
791.952	5.69
792.264	5.75
792.576	5.83
792.888	5.86
793.2	5.83
793.512	5.8
793.824	5.85
794.136	5.67
794.448	6.22
794.76	6.06
795.071	5.99
795.383	6.01
795.695	6.19
796.006	6.19
796.318	6.03
796.629	6.45
796.941	6.84
797.252	7.01
797.564	7.17
797.875	7.02
798.186	7.22
798.497	7.03
798.809	6.84
799.12	6.78
799.431	7.01
799.742	7.5
800.053	7.74
800.364	7.99
800.675	8.37
800.986	8.14
801.297	7.89
801.608	7.32
801.918	7.33
802.229	7.09
802.54	7.1
802.851	6.75
803.161	6.71
803.472	6.62
803.782	6.3
804.093	6.2
804.403	6.64
804.714	6.63
805.024	7.06
805.334	7.12
805.645	7.41
805.955	6.79
806.265	6.55
806.575	6.17
806.885	5.81
807.195	5.76
807.505	5.54
807.815	5.28
808.125	5.81
808.435	5.91
808.745	5.66
809.055	6.24
809.365	6.62
809.674	6.44
809.984	6.83
810.294	6.9
810.603	6.69
810.913	6.49
811.222	5.8
811.532	5.46
811.841	5.92
812.151	6.29
812.46	6.45
812.769	5.96
813.079	6.61
813.388	7.14
813.697	6.63
814.006	6.94
814.315	7.22
814.624	7.51
814.933	6.8
815.242	7.46
815.551	7.19
815.86	7.96
816.169	8.14
816.478	8.03
816.786	8.53
817.095	8.2
817.404	7.81
817.712	7.89
818.021	8.07
818.33	7.88
818.638	7.45
818.947	7.51
819.255	7.52
819.563	7.32
819.872	7.37
820.18	7.66
820.488	7.93
820.796	8.08
821.105	8.07
821.413	8.51
821.721	8.52
822.029	8.36
822.337	8.2
822.645	8.29
822.953	8.06
823.26	7.87
823.568	8.01
823.876	8.17
824.184	8.25
824.491	8.11
824.799	8.05
825.107	8.14
825.414	8.11
825.722	8.18
826.029	8.24
826.337	8.17
826.644	8.18
826.951	8.12
827.259	8.09
827.566	8.03
827.873	7.85
828.18	7.8
828.488	8.15
828.795	7.98
829.102	7.62
829.409	7.57
829.716	7.83
830.023	8
830.329	7.8
830.636	7.86
830.943	7.84
831.25	8.7
831.557	8.67
831.863	8.73
832.17	8.53
832.476	8.71
832.783	8.73
833.089	8.5
833.396	8.13
833.702	7.93
834.009	7.59
834.315	7.5
834.621	7.4
834.928	6.98
835.234	7.05
835.54	7.2
835.846	7.69
836.152	7.37
836.458	7.09
836.764	7.9
837.07	7.87
837.376	7.72
837.682	6.5
837.988	6.55
838.293	7.2
838.599	7.52
838.905	7.57
839.211	7.48
839.516	7.32
839.822	8.37
840.127	8.65
840.433	8.65
840.738	9.03
841.044	9.03
841.349	8.83
841.654	8.56
841.959	9.52
842.265	8.7
842.57	8.69
842.875	8.3
843.18	6.91
843.485	6.76
843.79	7.77
844.095	8.69
844.4	8.49
844.705	7.55
845.01	8.77
845.315	8.65
845.619	9.09
845.924	8.41
846.229	7.75
846.533	7.3
846.838	7.7
847.142	8.15
847.447	7.79
847.751	7.94
848.056	8.67
848.36	8.73
848.664	9.83
848.969	10.62
849.273	11.53
849.577	9.75
849.881	10.73
850.185	9.57
850.489	8.22
850.794	8.72
851.097	9.3
851.401	7.55
851.705	5.84
852.009	7.71
852.313	8.89
852.617	7.55
852.92	9.74
853.224	10.53
853.528	9.49
853.831	11.77
854.135	11.83
854.438	10.11
854.742	8.56
855.045	8.01
855.349	7.45
855.652	6.71
855.955	7.32
856.259	5.21
856.562	5.12
856.865	6.32
857.168	3.88
857.471	3.72
857.774	0.99
858.077	1.69
858.38	-0.56
858.683	-0.08
858.986	-0.23
859.289	-1.59
859.592	0.41
859.894	-0.86
860.197	-1.69
860.5	-2.22
860.802	-1.59
861.105	-2.01
861.407	-1.04
861.71	-0.7
862.012	-0.75
862.315	-1.53
862.617	-0.32
862.919	-0.29
863.222	-1.3
863.524	-0.33
863.826	-1.59
864.128	3.54
864.43	3.19
864.732	2.65
865.034	2.78
865.336	3.36
865.638	3.41
865.94	2.02
866.242	3.97
866.544	5.22
866.846	5.7
867.147	7.08
867.449	7.75
867.751	7.48
868.052	6.6
868.354	6.59
868.655	8.84
868.957	8.19
869.258	8.81
869.56	9.78
869.861	10.79
870.162	11.87
870.463	9.1
870.765	9.1
871.066	9.04
871.367	7.67
871.668	6.96
871.969	8.25
872.27	8.96
872.571	6.7
872.872	5.23
873.173	4.63
873.473	2.67
873.774	2.05
874.075	2.57
874.376	2.99
874.676	2.68
874.977	3.71
875.277	2.84
875.578	3.65
875.878	3
876.179	2.35
876.479	1.31
876.78	0.47
877.08	1.06
877.38	1.01
877.68	3.34
877.981	4.41
878.281	1.78
878.581	-1.96
