Data from MVZ_BU165823_Reflection_00008.txt Node
Date: Tue Nov 19 12:10:29 EST 2019
User: vgr7
Spectrometer: USB2G7710
Scans to average: 3
Trigger mode: 4
Integration Time (sec): 2.000000E-2
Electric dark correction enabled: true
Boxcar width: 10
XAxis mode: Wavelengths
Number of Pixels in Spectrum: 2048
>>>>>Begin Spectral Data<<<<<
177.721	7.61
178.105	-15.21
178.488	-23.55
178.871	-59.5
179.254	-19.15
179.636	-13.3
180.019	-55.05
180.402	175
180.785	-14.75
181.168	15.04
181.55	27.04
181.933	44.29
182.316	140.46
182.698	-81.82
183.081	-243.07
183.463	89.69
183.846	263.27
184.228	4.66
184.611	-18.06
184.993	-22.84
185.376	-37.79
185.758	-27.16
186.14	-41.98
186.522	-36.96
186.904	-43.08
187.287	-43.53
187.669	-43.85
188.051	-51.27
188.433	-64.3
188.815	-76.74
189.197	-60.91
189.579	-64.26
189.961	-57.85
190.342	-59.3
190.724	-81.82
191.106	-96.85
191.488	-76.33
191.869	-38.34
192.251	-36.13
192.633	-43.33
193.014	-51.17
193.396	-78.91
193.777	-65.32
194.159	-72.22
194.54	-59.21
194.922	-109.4
195.303	-94.84
195.684	-108.41
196.065	-110.83
196.447	-38.44
196.828	4.88
197.209	-8.32
197.59	-2.96
197.971	11.3
198.352	19.49
198.733	-0.91
199.114	4.02
199.495	-11.28
199.876	-55.74
200.257	-52.4
200.638	-57.95
201.018	-52.98
201.399	-30.76
201.78	-68.6
202.16	-46.82
202.541	-62.66
202.922	-58.09
203.302	-54.93
203.683	-42.86
204.063	-31.34
204.444	-25.07
204.824	-29.44
205.204	-33.97
205.585	-16.3
205.965	-19.96
206.345	-15.9
206.725	-5.5
207.106	-1.08
207.486	2.28
207.866	20.63
208.246	5.61
208.626	2.82
209.006	-0.36
209.386	3.25
209.766	2.85
210.145	1.46
210.525	-8.35
210.905	3.63
211.285	-1.11
211.664	-5.3
212.044	-17.43
212.424	-19.5
212.803	-17.8
213.183	-9.05
213.562	-24.71
213.942	-35.74
214.321	-58.82
214.701	-67.12
215.08	-65.48
215.459	-61.11
215.838	-83.39
216.218	-99.04
216.597	-78.55
216.976	-127.7
217.355	-129.28
217.734	-163.44
218.113	-81.5
218.492	-69.31
218.871	-83.61
219.25	-74.45
219.629	-61.39
220.008	-42.03
220.387	-46.08
220.766	-41.08
221.144	-54.68
221.523	-45.89
221.902	-35.95
222.28	-22.56
222.659	-12.76
223.037	-26.91
223.416	-21.47
223.794	-10.41
224.173	-13.75
224.551	-10.77
224.929	-9.01
225.308	-3.44
225.686	-3.22
226.064	-8.72
226.442	-9.24
226.821	-10.06
227.199	-10.2
227.577	-14.76
227.955	-16.46
228.333	-14.9
228.711	-14.3
229.089	-9.83
229.467	-5.18
229.845	-10.02
230.222	-8.48
230.6	-7.65
230.978	-3.11
231.356	-3.97
231.733	-4.34
232.111	-2.67
232.488	-1.09
232.866	2.5
233.243	2.64
233.621	3.34
233.998	4.73
234.376	6.39
234.753	7.18
235.13	7.75
235.508	8.22
235.885	7.52
236.262	4.88
236.639	4.05
237.016	3.5
237.393	1.64
237.77	4.05
238.147	3.91
238.524	3.91
238.901	4.46
239.278	4.83
239.655	4.57
240.032	4.3
240.409	3.82
240.785	3.71
241.162	4.61
241.539	4.57
241.915	4.55
242.292	3.97
242.668	3.7
243.045	3.96
243.421	3.91
243.798	4.5
244.174	4.8
244.551	4.73
244.927	4.85
245.303	4.73
245.679	4.65
246.056	5.06
246.432	5.09
246.808	4.97
247.184	4.83
247.56	4.76
247.936	4.77
248.312	4.68
248.688	4.82
249.064	4.48
249.44	4.26
249.815	4.37
250.191	4.45
250.567	4.46
250.943	4.42
251.318	4.4
251.694	4
252.069	3.86
252.445	4.12
252.82	4.19
253.196	4.29
253.571	4.69
253.947	4.26
254.322	4.24
254.697	3.9
255.073	4
255.448	4.43
255.823	4.57
256.198	4.41
256.573	4.26
256.948	4.38
257.323	4.46
257.698	4.26
258.073	4.38
258.448	4.45
258.823	4.08
259.198	4.26
259.573	4.3
259.948	4.38
260.322	4.12
260.697	4.03
261.072	4.09
261.446	3.99
261.821	4.03
262.195	3.99
262.57	4.08
262.944	4.08
263.319	4.07
263.693	3.94
264.067	4.05
264.442	3.89
264.816	3.92
265.19	3.97
265.564	4.04
265.938	3.84
266.313	3.78
266.687	4.14
267.061	4.06
267.435	4.18
267.809	4.23
268.183	4.34
268.556	4.2
268.93	4.11
269.304	3.9
269.678	3.95
270.051	3.94
270.425	3.99
270.799	3.9
271.172	3.81
271.546	4.02
271.919	3.96
272.293	4.17
272.666	4.1
273.04	4.12
273.413	4.01
273.787	4.14
274.16	4.14
274.533	4.2
274.906	4.19
275.279	4.13
275.653	4.01
276.026	4.18
276.399	4.39
276.772	4.45
277.145	4.45
277.518	4.23
277.891	4.33
278.263	4.35
278.636	4.36
279.009	4.34
279.382	4.13
279.755	4.19
280.127	3.99
280.5	4.02
280.872	3.9
281.245	3.85
281.617	3.84
281.99	3.94
282.362	3.94
282.735	3.89
283.107	3.91
283.479	3.9
283.852	3.68
284.224	3.63
284.596	3.5
284.968	3.56
285.34	3.78
285.713	3.74
286.085	3.72
286.457	3.78
286.829	3.8
287.201	3.74
287.572	3.81
287.944	3.92
288.316	3.79
288.688	3.89
289.06	4.09
289.431	4.11
289.803	4.01
290.175	3.93
290.546	4
290.918	4.1
291.289	4.07
291.661	4.16
292.032	4.14
292.403	4.21
292.775	4.19
293.146	4.08
293.517	4
293.889	4.07
294.26	4.17
294.631	4.25
295.002	4.34
295.373	4.22
295.744	4.18
296.115	4.38
296.486	4.39
296.857	4.45
297.228	4.41
297.599	4.46
297.97	4.52
298.34	4.55
298.711	4.66
299.082	4.75
299.452	4.88
299.823	5.03
300.194	5.12
300.564	5.15
300.935	5.2
301.305	5.28
301.676	5.16
302.046	5.07
302.416	5.03
302.787	5.11
303.157	5.26
303.527	5.4
303.897	5.43
304.267	5.4
304.637	5.34
305.008	5.56
305.378	5.67
305.748	5.82
306.117	5.7
306.487	5.56
306.857	5.59
307.227	5.66
307.597	5.65
307.967	5.66
308.336	5.63
308.706	5.7
309.076	5.88
309.445	6.13
309.815	6.13
310.184	6.1
310.554	6.14
310.923	6.12
311.293	6.09
311.662	6.15
312.031	6.16
312.401	6.1
312.77	5.97
313.139	6.01
313.508	5.98
313.877	6.08
314.246	6.15
314.616	6.28
314.985	6.24
315.353	6.35
315.722	6.57
316.091	6.58
316.46	6.72
316.829	6.72
317.198	6.68
317.567	6.85
317.935	6.96
318.304	7.05
318.672	7.19
319.041	7.3
319.41	7.18
319.778	7.5
320.147	7.69
320.515	7.68
320.883	7.57
321.252	7.67
321.62	7.75
321.988	7.85
322.357	7.71
322.725	7.75
323.093	7.55
323.461	7.37
323.829	7.62
324.197	7.67
324.565	7.75
324.933	7.63
325.301	7.52
325.669	7.49
326.037	7.51
326.405	7.42
326.772	7.29
327.14	7.47
327.508	7.4
327.875	7.27
328.243	7.34
328.61	7.4
328.978	7.35
329.346	7.29
329.713	7.27
330.08	7.36
330.448	7.39
330.815	7.64
331.182	7.51
331.55	7.45
331.917	7.3
332.284	7.25
332.651	7.34
333.018	7.38
333.385	7.54
333.752	7.6
334.119	7.67
334.486	7.79
334.853	7.63
335.22	7.57
335.587	7.61
335.954	7.54
336.32	7.61
336.687	7.61
337.054	7.6
337.42	7.51
337.787	7.53
338.153	7.6
338.52	7.54
338.886	7.83
339.253	7.81
339.619	7.91
339.986	7.86
340.352	7.96
340.718	8.02
341.084	7.98
341.451	8.03
341.817	8.07
342.183	7.91
342.549	8.07
342.915	8.07
343.281	8.2
343.647	8.31
344.013	8.31
344.379	8.38
344.745	8.4
345.11	8.41
345.476	8.45
345.842	8.28
346.208	8.38
346.573	8.24
346.939	8.24
347.304	8.33
347.67	8.43
348.035	8.37
348.401	8.37
348.766	8.26
349.132	8.21
349.497	8.09
349.862	8.19
350.228	8.12
350.593	8.12
350.958	8.16
351.323	8.21
351.688	8.17
352.053	8.18
352.418	8.17
352.783	8.27
353.148	8.19
353.513	8.28
353.878	8.16
354.243	8.19
354.608	8.24
354.972	8.19
355.337	8.12
355.702	8.18
356.066	8.17
356.431	8.16
356.795	8.13
357.16	8.12
357.524	8.12
357.889	8.12
358.253	8.1
358.618	8.02
358.982	7.96
359.346	7.93
359.71	7.86
360.075	7.84
360.439	7.83
360.803	7.88
361.167	7.84
361.531	7.82
361.895	7.85
362.259	7.87
362.623	7.84
362.987	7.8
363.351	7.69
363.714	7.68
364.078	7.75
364.442	7.69
364.806	7.71
365.169	7.71
365.533	7.72
365.896	7.72
366.26	7.61
366.623	7.59
366.987	7.59
367.35	7.64
367.714	7.67
368.077	7.58
368.44	7.52
368.803	7.42
369.167	7.33
369.53	7.17
369.893	7.05
370.256	6.9
370.619	6.88
370.982	6.78
371.345	6.77
371.708	6.68
372.071	6.65
372.434	6.6
372.797	6.58
373.159	6.44
373.522	6.33
373.885	6.29
374.247	6.28
374.61	6.2
374.973	6.06
375.335	6.03
375.698	5.97
376.06	5.91
376.423	5.94
376.785	5.95
377.147	5.97
377.51	5.92
377.872	5.89
378.234	5.89
378.596	5.87
378.958	5.85
379.321	5.76
379.683	5.73
380.045	5.7
380.407	5.6
380.769	5.55
381.13	5.51
381.492	5.5
381.854	5.4
382.216	5.41
382.578	5.39
382.939	5.33
383.301	5.29
383.663	5.27
384.024	5.22
384.386	5.19
384.747	5.12
385.109	5.15
385.47	5.21
385.832	5.12
386.193	5.08
386.554	4.99
386.916	4.98
387.277	4.91
387.638	4.92
387.999	4.93
388.36	4.95
388.721	5
389.082	5.06
389.443	5.05
389.804	5.02
390.165	4.99
390.526	4.96
390.887	4.94
391.248	4.93
391.609	4.93
391.969	4.92
392.33	4.96
392.691	4.9
393.051	4.81
393.412	4.82
393.772	4.84
394.133	4.83
394.493	4.76
394.854	4.77
395.214	4.73
395.574	4.67
395.935	4.65
396.295	4.62
396.655	4.51
397.015	4.48
397.376	4.48
397.736	4.42
398.096	4.4
398.456	4.36
398.816	4.35
399.176	4.3
399.535	4.28
399.895	4.22
400.255	4.19
400.615	4.21
400.975	4.19
401.334	4.2
401.694	4.23
402.054	4.24
402.413	4.22
402.773	4.19
403.132	4.2
403.492	4.17
403.851	4.11
404.211	4.13
404.57	4.18
404.929	4.17
405.288	4.22
405.648	4.2
406.007	4.19
406.366	4.14
406.725	4.13
407.084	4.11
407.443	4.08
407.802	4.09
408.161	4.09
408.52	4.06
408.879	4.02
409.238	3.97
409.596	3.99
409.955	4
410.314	3.99
410.673	3.95
411.031	3.96
411.39	3.97
411.748	3.95
412.107	3.9
412.465	3.86
412.824	3.82
413.182	3.83
413.54	3.84
413.899	3.86
414.257	3.83
414.615	3.82
414.974	3.83
415.332	3.82
415.69	3.79
416.048	3.79
416.406	3.76
416.764	3.75
417.122	3.76
417.48	3.75
417.838	3.73
418.195	3.74
418.553	3.72
418.911	3.71
419.269	3.69
419.626	3.69
419.984	3.69
420.342	3.7
420.699	3.69
421.057	3.66
421.414	3.66
421.772	3.67
422.129	3.67
422.486	3.66
422.844	3.64
423.201	3.62
423.558	3.62
423.915	3.63
424.273	3.61
424.63	3.58
424.987	3.58
425.344	3.59
425.701	3.57
426.058	3.57
426.415	3.56
426.772	3.54
427.128	3.52
427.485	3.5
427.842	3.48
428.199	3.46
428.555	3.46
428.912	3.45
429.269	3.44
429.625	3.42
429.982	3.43
430.338	3.44
430.695	3.44
431.051	3.44
431.407	3.43
431.764	3.43
432.12	3.47
432.476	3.46
432.832	3.45
433.189	3.47
433.545	3.45
433.901	3.44
434.257	3.45
434.613	3.48
434.969	3.48
435.325	3.51
435.681	3.52
436.036	3.53
436.392	3.53
436.748	3.51
437.104	3.52
437.459	3.51
437.815	3.5
438.171	3.51
438.526	3.51
438.882	3.53
439.237	3.54
439.593	3.52
439.948	3.51
440.304	3.51
440.659	3.5
441.014	3.49
441.369	3.49
441.725	3.5
442.08	3.48
442.435	3.48
442.79	3.46
443.145	3.44
443.5	3.44
443.855	3.44
444.21	3.44
444.565	3.44
444.92	3.45
445.275	3.46
445.629	3.46
445.984	3.45
446.339	3.43
446.693	3.45
447.048	3.43
447.403	3.43
447.757	3.41
448.112	3.43
448.466	3.45
448.82	3.46
449.175	3.45
449.529	3.46
449.883	3.46
450.238	3.47
450.592	3.5
450.946	3.48
451.3	3.47
451.654	3.46
452.008	3.46
452.362	3.45
452.716	3.43
453.07	3.43
453.424	3.43
453.778	3.43
454.132	3.4
454.486	3.42
454.839	3.41
455.193	3.45
455.547	3.44
455.9	3.46
456.254	3.45
456.607	3.45
456.961	3.44
457.314	3.43
457.668	3.42
458.021	3.42
458.375	3.41
458.728	3.4
459.081	3.43
459.434	3.41
459.787	3.43
460.141	3.44
460.494	3.42
460.847	3.43
461.2	3.44
461.553	3.45
461.906	3.47
462.259	3.45
462.611	3.45
462.964	3.46
463.317	3.43
463.67	3.44
464.022	3.42
464.375	3.45
464.728	3.43
465.08	3.44
465.433	3.42
465.785	3.43
466.138	3.44
466.49	3.43
466.843	3.45
467.195	3.43
467.547	3.43
467.899	3.45
468.252	3.45
468.604	3.46
468.956	3.44
469.308	3.44
469.66	3.47
470.012	3.46
470.364	3.45
470.716	3.47
471.068	3.47
471.42	3.49
471.772	3.48
472.123	3.49
472.475	3.5
472.827	3.51
473.178	3.53
473.53	3.55
473.882	3.56
474.233	3.55
474.585	3.54
474.936	3.55
475.288	3.53
475.639	3.56
475.99	3.54
476.342	3.56
476.693	3.55
477.044	3.53
477.395	3.51
477.746	3.53
478.097	3.54
478.448	3.54
478.8	3.54
479.15	3.53
479.501	3.53
479.852	3.53
480.203	3.54
480.554	3.55
480.905	3.56
481.255	3.56
481.606	3.57
481.957	3.58
482.307	3.59
482.658	3.59
483.009	3.57
483.359	3.59
483.709	3.59
484.06	3.59
484.41	3.59
484.761	3.61
485.111	3.6
485.461	3.59
485.811	3.59
486.162	3.6
486.512	3.6
486.862	3.61
487.212	3.61
487.562	3.6
487.912	3.61
488.262	3.6
488.612	3.59
488.961	3.59
489.311	3.59
489.661	3.58
490.011	3.57
490.36	3.58
490.71	3.58
491.06	3.58
491.409	3.57
491.759	3.59
492.108	3.58
492.458	3.59
492.807	3.6
493.157	3.61
493.506	3.62
493.855	3.61
494.204	3.63
494.554	3.65
494.903	3.66
495.252	3.66
495.601	3.69
495.95	3.72
496.299	3.73
496.648	3.72
496.997	3.74
497.346	3.78
497.695	3.8
498.043	3.81
498.392	3.84
498.741	3.85
499.09	3.85
499.438	3.88
499.787	3.91
500.135	3.91
500.484	3.92
500.832	3.94
501.181	3.98
501.529	4.01
501.878	4.03
502.226	4.05
502.574	4.1
502.923	4.1
503.271	4.11
503.619	4.14
503.967	4.16
504.315	4.19
504.663	4.2
505.011	4.23
505.359	4.26
505.707	4.27
506.055	4.34
506.403	4.38
506.751	4.4
507.098	4.44
507.446	4.5
507.794	4.55
508.141	4.56
508.489	4.61
508.837	4.63
509.184	4.67
509.531	4.72
509.879	4.76
510.226	4.82
510.574	4.89
510.921	4.95
511.268	5.02
511.616	5.1
511.963	5.17
512.31	5.25
512.657	5.32
513.004	5.39
513.351	5.46
513.698	5.55
514.045	5.62
514.392	5.7
514.739	5.78
515.086	5.88
515.432	5.99
515.779	6.05
516.126	6.17
516.473	6.26
516.819	6.35
517.166	6.41
517.512	6.48
517.859	6.55
518.205	6.58
518.552	6.64
518.898	6.7
519.245	6.77
519.591	6.85
519.937	6.94
520.283	7.04
520.629	7.13
520.976	7.2
521.322	7.28
521.668	7.37
522.014	7.46
522.36	7.55
522.706	7.64
523.052	7.76
523.398	7.86
523.743	7.96
524.089	8.05
524.435	8.15
524.781	8.27
525.126	8.38
525.472	8.48
525.817	8.57
526.163	8.66
526.509	8.75
526.854	8.81
527.199	8.88
527.545	8.93
527.89	8.98
528.235	9.06
528.581	9.13
528.926	9.2
529.271	9.28
529.616	9.34
529.961	9.42
530.306	9.5
530.651	9.58
530.996	9.68
531.341	9.78
531.686	9.89
532.031	9.97
532.376	10.06
532.721	10.15
533.065	10.26
533.41	10.36
533.755	10.44
534.099	10.55
534.444	10.64
534.788	10.74
535.133	10.86
535.477	10.98
535.822	11.1
536.166	11.23
536.51	11.34
536.855	11.49
537.199	11.62
537.543	11.77
537.887	11.91
538.231	12.05
538.576	12.2
538.92	12.33
539.264	12.48
539.608	12.61
539.951	12.76
540.295	12.91
540.639	13.03
540.983	13.19
541.327	13.33
541.671	13.48
542.014	13.63
542.358	13.76
542.701	13.89
543.045	14.02
543.389	14.15
543.732	14.28
544.075	14.4
544.419	14.54
544.762	14.68
545.105	14.82
545.449	14.98
545.792	15.13
546.135	15.31
546.478	15.49
546.821	15.69
547.165	15.88
547.508	16.07
547.851	16.25
548.194	16.39
548.536	16.6
548.879	16.82
549.222	17
549.565	17.2
549.908	17.37
550.25	17.57
550.593	17.78
550.936	18.04
551.278	18.32
551.621	18.57
551.963	18.85
552.306	19.11
552.648	19.33
552.991	19.6
553.333	19.88
553.675	20.16
554.017	20.41
554.36	20.69
554.702	20.93
555.044	21.19
555.386	21.45
555.728	21.68
556.07	21.91
556.412	22.18
556.754	22.44
557.096	22.76
557.438	23.01
557.78	23.35
558.121	23.64
558.463	23.91
558.805	24.19
559.147	24.42
559.488	24.71
559.83	24.99
560.171	25.23
560.513	25.54
560.854	25.77
561.196	26.02
561.537	26.22
561.878	26.52
562.22	26.81
562.561	27.1
562.902	27.42
563.243	27.73
563.584	28.03
563.925	28.34
564.266	28.64
564.607	28.97
564.948	29.16
565.289	29.42
565.63	29.66
565.971	29.93
566.312	30.23
566.653	30.45
566.993	30.72
567.334	31.02
567.675	31.25
568.015	31.53
568.356	31.85
568.696	32.18
569.037	32.46
569.377	32.73
569.718	33.01
570.058	33.22
570.398	33.45
570.739	33.69
571.079	33.93
571.419	34.17
571.759	34.39
572.099	34.61
572.439	34.82
572.779	35.05
573.119	35.3
573.459	35.51
573.799	35.71
574.139	35.88
574.479	36.07
574.819	36.29
575.158	36.54
575.498	36.71
575.838	36.89
576.177	37.08
576.517	37.27
576.856	37.5
577.196	37.73
577.535	37.92
577.875	38.15
578.214	38.39
578.553	38.58
578.893	38.79
579.232	39.09
579.571	39.39
579.91	39.65
580.25	39.8
580.589	40
580.928	40.31
581.267	40.57
581.606	40.81
581.945	41
582.283	41.18
582.622	41.34
582.961	41.55
583.3	41.73
583.639	41.94
583.977	42.12
584.316	42.26
584.654	42.5
584.993	42.61
585.332	42.77
585.67	42.91
586.008	43.1
586.347	43.22
586.685	43.3
587.024	43.43
587.362	43.56
587.7	43.73
588.038	43.83
588.376	43.94
588.715	43.94
589.053	44.08
589.391	44.22
589.729	44.33
590.067	44.49
590.404	44.72
590.742	44.91
591.08	45.08
591.418	45.28
591.756	45.43
592.093	45.61
592.431	45.73
592.769	45.91
593.106	46.05
593.444	46.12
593.781	46.3
594.119	46.41
594.456	46.51
594.793	46.6
595.131	46.76
595.468	46.89
595.805	47.07
596.143	47.18
596.48	47.29
596.817	47.47
597.154	47.55
597.491	47.6
597.828	47.58
598.165	47.7
598.502	47.77
598.839	47.85
599.176	47.91
599.512	48.05
599.849	48.1
600.186	48.22
600.523	48.34
600.859	48.4
601.196	48.41
601.532	48.6
601.869	48.76
602.205	48.8
602.542	48.87
602.878	49.06
603.215	49.17
603.551	49.25
603.887	49.29
604.223	49.36
604.56	49.38
604.896	49.49
605.232	49.48
605.568	49.63
605.904	49.68
606.24	49.78
606.576	49.77
606.912	49.91
607.248	49.93
607.583	50.06
607.919	50.17
608.255	50.32
608.591	50.35
608.926	50.4
609.262	50.41
609.597	50.54
609.933	50.51
610.268	50.48
610.604	50.51
610.939	50.53
611.275	50.54
611.61	50.54
611.945	50.57
612.281	50.62
612.616	50.64
612.951	50.77
613.286	50.81
613.621	50.87
613.956	50.85
614.291	50.93
614.626	50.95
614.961	51.03
615.296	51.11
615.631	51.15
615.966	51.15
616.3	51.38
616.635	51.45
616.97	51.46
617.304	51.58
617.639	51.72
617.973	51.8
618.308	51.93
618.642	52.1
618.977	52.19
619.311	52.25
619.646	52.15
619.98	52.15
620.314	52.2
620.648	52.26
620.983	52.28
621.317	52.34
621.651	52.3
621.985	52.25
622.319	52.32
622.653	52.38
622.987	52.5
623.321	52.4
623.655	52.35
623.988	52.48
624.322	52.56
624.656	52.45
624.99	52.51
625.323	52.52
625.657	52.46
625.99	52.58
626.324	52.67
626.657	52.78
626.991	52.93
627.324	52.96
627.658	53.07
627.991	53.13
628.324	53.15
628.657	53.27
628.991	53.35
629.324	53.44
629.657	53.45
629.99	53.5
630.323	53.55
630.656	53.59
630.989	53.63
631.322	53.63
631.655	53.73
631.987	53.7
632.32	53.78
632.653	53.9
632.986	53.83
633.318	53.9
633.651	53.92
633.984	53.81
634.316	53.89
634.649	53.91
634.981	53.97
635.313	54.08
635.646	54.09
635.978	54.06
636.31	53.98
636.643	54.07
636.975	54.09
637.307	54.09
637.639	54.1
637.971	54.16
638.303	54.21
638.635	54.2
638.967	54.27
639.299	54.28
639.631	54.42
639.963	54.52
640.295	54.47
640.626	54.45
640.958	54.49
641.29	54.42
641.621	54.37
641.953	54.23
642.285	54.13
642.616	54.09
642.948	54.11
643.279	54.11
643.61	54.07
643.942	54.06
644.273	54.08
644.604	54.07
644.936	53.96
645.267	53.87
645.598	53.91
645.929	54.01
646.26	54.01
646.591	53.88
646.922	53.9
647.253	53.97
647.584	53.9
647.915	54.01
648.245	54.05
648.576	54.11
648.907	54.26
649.238	54.29
649.568	54.52
649.899	54.5
650.229	54.58
650.56	54.65
650.89	54.74
651.221	54.72
651.551	54.92
651.882	55.13
652.212	55.3
652.542	55.45
652.872	55.37
653.203	55.42
653.533	55.51
653.863	55.45
654.193	55.46
654.523	55.59
654.853	55.52
655.183	55.53
655.513	55.57
655.843	55.67
656.172	55.89
656.502	55.81
656.832	56
657.162	55.96
657.491	56.05
657.821	55.86
658.15	55.89
658.48	55.86
658.809	55.77
659.139	55.62
659.468	55.51
659.798	55.57
660.127	55.59
660.456	55.65
660.785	55.7
661.115	55.62
661.444	55.64
661.773	55.61
662.102	55.6
662.431	55.61
662.76	55.58
663.089	55.44
663.418	55.48
663.747	55.36
664.076	55.4
664.404	55.42
664.733	55.57
665.062	55.65
665.39	55.56
665.719	55.63
666.048	55.73
666.376	55.82
666.705	55.87
667.033	55.88
667.362	55.87
667.69	55.85
668.018	55.96
668.347	56.1
668.675	56.23
669.003	56.28
669.331	56.31
669.659	56.29
669.987	56.16
670.315	56
670.643	56.08
670.971	56.08
671.299	55.98
671.627	55.91
671.955	55.86
672.283	55.89
672.61	55.81
672.938	55.74
673.266	55.66
673.593	55.58
673.921	55.42
674.249	55.38
674.576	55.57
674.904	55.43
675.231	55.43
675.558	55.46
675.886	55.49
676.213	55.43
676.54	55.56
676.867	55.76
677.195	55.92
677.522	55.88
677.849	55.84
678.176	55.79
678.503	55.92
678.83	56.05
679.157	56.16
679.484	56.14
679.81	56.26
680.137	56.29
680.464	56.32
680.791	56.58
681.117	56.63
681.444	56.49
681.771	56.45
682.097	56.45
682.424	56.31
682.75	56.4
683.077	56.53
683.403	56.46
683.729	56.45
684.056	56.37
684.382	56.39
684.708	56.28
685.034	56.35
685.36	56.31
685.686	56.28
686.012	56.3
686.339	56.3
686.664	56.28
686.99	56.17
687.316	56.13
687.642	55.92
687.968	55.94
688.294	55.97
688.619	56.05
688.945	55.92
689.271	56
689.596	55.99
689.922	55.77
690.247	55.78
690.573	55.85
690.898	55.85
691.224	55.88
691.549	55.97
691.874	56.04
692.2	56.1
692.525	56.19
692.85	56.12
693.175	56.08
693.5	56.11
693.825	56.45
694.15	56.46
694.475	56.64
694.8	56.53
695.125	56.73
695.45	56.94
695.775	57.01
696.099	57.19
696.424	57.15
696.749	57.43
697.073	57.48
697.398	57.39
697.723	57.46
698.047	57.41
698.372	57.52
698.696	57.43
699.02	57.6
699.345	57.57
699.669	57.64
699.993	57.87
700.318	57.88
700.642	57.77
700.966	57.84
701.29	57.7
701.614	57.73
701.938	57.61
702.262	57.56
702.586	57.59
702.91	57.43
703.234	57.41
703.557	57.37
703.881	57.33
704.205	57.48
704.529	57.43
704.852	57.42
705.176	57.4
705.499	57.46
705.823	57.29
706.146	57.34
706.47	57.31
706.793	57.22
707.117	57.15
707.44	57.13
707.763	57.08
708.086	57.09
708.409	56.95
708.733	57
709.056	56.85
709.379	56.76
709.702	56.61
710.025	56.66
710.348	56.54
710.671	56.47
710.993	56.32
711.316	56.42
711.639	56.67
711.962	56.65
712.284	56.42
712.607	56.36
712.93	56.31
713.252	56.29
713.575	56.35
713.897	56.23
714.22	56.4
714.542	56.59
714.864	56.59
715.187	56.85
715.509	56.81
715.831	57.04
716.153	57.34
716.475	57.57
716.798	57.56
717.12	57.51
717.442	57.49
717.764	57.55
718.085	57.44
718.407	57.34
718.729	57.5
719.051	57.9
719.373	57.93
719.695	57.9
720.016	57.89
720.338	58.01
720.659	58.09
720.981	57.95
721.302	57.82
721.624	58.02
721.945	57.75
722.267	57.6
722.588	57.34
722.909	57.15
723.231	57.24
723.552	57.15
723.873	57.14
724.194	57.47
724.515	57.45
724.836	57.81
725.157	57.53
725.478	57.28
725.799	56.96
726.12	56.97
726.441	56.73
726.762	56.75
727.083	56.67
727.403	56.74
727.724	56.73
728.045	56.9
728.365	56.92
728.686	56.91
729.006	56.87
729.327	57.01
729.647	57.02
729.967	56.79
730.288	56.86
730.608	56.87
730.928	56.87
731.249	56.94
731.569	56.7
731.889	56.95
732.209	56.99
732.529	57.08
732.849	56.93
733.169	57.1
733.489	57.07
733.809	57.02
734.129	57.17
734.448	57.23
734.768	57.27
735.088	57.17
735.408	57.42
735.727	57.35
736.047	57.28
736.366	57.2
736.686	57.2
737.005	57.29
737.325	57.38
737.644	57.04
737.963	57.03
738.283	57
738.602	57.04
738.921	56.89
739.24	56.86
739.56	57.06
739.879	56.85
740.198	57.1
740.517	57.03
740.836	56.96
741.155	56.9
741.473	56.85
741.792	57.03
742.111	57.06
742.43	57.29
742.748	57.22
743.067	57.15
743.386	57.04
743.704	56.76
744.023	56.72
744.341	57.2
744.66	56.91
744.978	56.81
745.297	56.72
745.615	57.26
745.933	57.37
746.252	57.67
746.57	58.11
746.888	58.06
747.206	58.22
747.524	58.22
747.842	58.12
748.16	57.95
748.478	58.2
748.796	58.33
749.114	58.64
749.432	58.79
749.749	58.93
750.067	59.34
750.385	59.79
750.703	59.68
751.02	59.34
751.338	59.33
751.655	59.69
751.973	59.77
752.29	59.68
752.608	59.91
752.925	59.75
753.242	59.7
753.56	59.54
753.877	59.33
754.194	59.29
754.511	59.48
754.828	59.21
755.145	58.67
755.462	58.55
755.779	58.14
756.096	58.29
756.413	58.6
756.73	58.73
757.047	58.51
757.364	59.01
757.68	59.1
757.997	59.15
758.314	58.84
758.63	58.72
758.947	58.61
759.264	58.14
759.58	57.85
759.896	57.8
760.213	57.69
760.529	58.05
760.846	58.1
761.162	58.13
761.478	58.37
761.794	58.23
762.11	58
762.426	58.16
762.743	57.91
763.059	57.58
763.375	57.38
763.69	57.63
764.006	57.4
764.322	57.4
764.638	57.44
764.954	57.52
765.27	57.38
765.585	57.28
765.901	57.28
766.216	57.38
766.532	57.27
766.848	57.61
767.163	57.21
767.478	57.01
767.794	56.82
768.109	56.75
768.424	57
768.74	57.31
769.055	57.4
769.37	57.49
769.685	57.56
770	57.77
770.315	57.48
770.63	57.65
770.945	57.67
771.26	57.39
771.575	57.56
771.89	57.45
772.205	57.87
772.52	58.2
772.834	58.14
773.149	58.07
773.464	57.54
773.778	57.97
774.093	57.98
774.407	58.09
774.722	58.04
775.036	57.96
775.351	57.93
775.665	57.38
775.979	57.67
776.293	57.91
776.608	57.32
776.922	57.33
777.236	57.41
777.55	57.26
777.864	57.6
778.178	57.44
778.492	57.54
778.806	57.37
779.12	57.39
779.434	57.36
779.747	57.59
780.061	57.85
780.375	57.57
780.689	57.75
781.002	57.66
781.316	57.74
781.629	57.83
781.943	57.17
782.256	57.9
782.57	57.66
782.883	57.04
783.196	57.51
783.51	57.98
783.823	58.37
784.136	58.51
784.449	58.81
784.762	59.15
785.075	59.75
785.388	59.47
785.701	59.2
786.014	59.58
786.327	59.54
786.64	59.46
786.953	59.74
787.266	59.9
787.578	59.81
787.891	60.52
788.204	60.66
788.516	60.64
788.829	60.15
789.141	60.28
789.454	60.68
789.766	60.88
790.079	60.73
790.391	59.83
790.703	59.62
791.016	59.61
791.328	59.59
791.64	59.11
791.952	58.98
792.264	59.17
792.576	59.04
792.888	59.05
793.2	58.87
793.512	58.94
793.824	58.53
794.136	59.12
794.448	58.79
794.76	58.97
795.071	59.13
795.383	59.28
795.695	59.17
796.006	59.31
796.318	59.57
796.629	59.11
796.941	59.67
797.252	59.72
797.564	59.86
797.875	59.21
798.186	58.81
798.497	59.01
798.809	59.16
799.12	59.2
799.431	59.6
799.742	59.75
800.053	59.23
800.364	59.65
800.675	59.39
800.986	58.82
801.297	58.02
801.608	58.61
801.918	58.64
802.229	58.98
802.54	58.99
802.851	58.49
803.161	57.91
803.472	58.14
803.782	58.29
804.093	58.89
804.403	59.49
804.714	60.35
805.024	59.94
805.334	60.1
805.645	59.7
805.955	58.94
806.265	59.53
806.575	59.33
806.885	59.06
807.195	58.92
807.505	58.49
807.815	59.33
808.125	59.51
808.435	59.34
808.745	58.66
809.055	59.03
809.365	58.97
809.674	59.82
809.984	59.82
810.294	59.78
810.603	59.43
810.913	59.13
811.222	58.58
811.532	58.81
811.841	59.05
812.151	58.74
812.46	59.09
812.769	58.38
813.079	59.26
813.388	59.22
813.697	58.64
814.006	58.68
814.315	58.27
814.624	57.88
814.933	57.57
815.242	58.47
815.551	58.08
815.86	58.82
816.169	58.4
816.478	57.45
816.786	57.16
817.095	56.43
817.404	56.81
817.712	56.73
818.021	56.84
818.33	56.77
818.638	57.28
818.947	57.65
819.255	57.59
819.563	57.22
819.872	57.24
820.18	57.03
820.488	57.49
820.796	57.44
821.105	57.16
821.413	57.32
821.721	57.09
822.029	57.03
822.337	56.7
822.645	56.97
822.953	57.12
823.26	57.4
823.568	57.41
823.876	57.19
824.184	57.4
824.491	57.39
824.799	57.44
825.107	57.27
825.414	57.24
825.722	57.28
826.029	57.11
826.337	57.27
826.644	57.73
826.951	57.78
827.259	57.88
827.566	58.08
827.873	58.31
828.18	58.52
828.488	58.47
828.795	58.89
829.102	58.67
829.409	58.51
829.716	58.11
830.023	58.07
830.329	58.11
830.636	57.55
830.943	57.62
831.25	57.43
831.557	57.51
831.863	57.32
832.17	56.99
832.476	57.98
832.783	57.46
833.089	56.78
833.396	56.91
833.702	56.94
834.009	56.65
834.315	56.33
834.621	56.4
834.928	56.57
835.234	56.41
835.54	56.57
835.846	57.09
836.152	57.67
836.458	57.36
836.764	58.19
837.07	58.21
837.376	58.19
837.682	58.01
837.988	57.96
838.293	57.68
838.599	58.7
838.905	57.53
839.211	58.2
839.516	59.25
839.822	59.03
840.127	58.23
840.433	58.51
840.738	58.9
841.044	58.32
841.349	58.17
841.654	58.29
841.959	58.03
842.265	57
842.57	56.56
842.875	57.39
843.18	56.05
843.485	57.1
843.79	57.6
844.095	57.72
844.4	58.98
844.705	60.23
845.01	59.81
845.315	61
845.619	61.86
845.924	60.19
846.229	60.05
846.533	60.06
846.838	59.46
847.142	58.08
847.447	57.98
847.751	59.89
848.056	57.15
848.36	57.97
848.664	59.52
848.969	57.81
849.273	59.23
849.577	58.18
849.881	56.98
850.185	55.32
850.489	55.51
850.794	55.91
851.097	54.42
851.401	52.55
851.705	51.89
852.009	49.71
852.313	50.68
852.617	48.79
852.92	49.01
853.224	48.68
853.528	49.21
853.831	50.03
854.135	49.43
854.438	50.66
854.742	50.11
855.045	48.67
855.349	48.5
855.652	47.26
855.955	48.64
856.259	48.56
856.562	49.77
856.865	50.6
857.168	50.66
857.471	51.61
857.774	53.5
858.077	53.14
858.38	54.23
858.683	53.77
858.986	55.33
859.289	58.54
859.592	58.79
859.894	58.72
860.197	56.9
860.5	57.26
860.802	60.4
861.105	60.56
861.407	59.88
861.71	60.22
862.012	58.74
862.315	59.07
862.617	61.5
862.919	62.53
863.222	60.28
863.524	58.09
863.826	56.54
864.128	54.91
864.43	53.83
864.732	54.36
865.034	53.98
865.336	55.5
865.638	53.52
865.94	56.94
866.242	56.41
866.544	56.03
866.846	54.58
867.147	53.58
867.449	54.13
867.751	52.71
868.052	52.15
868.354	55.25
868.655	56.13
868.957	55.49
869.258	51.51
869.56	54.71
869.861	55.52
870.162	57.25
870.463	55.14
870.765	56.71
871.066	54.82
871.367	55.31
871.668	52.68
871.969	53.17
872.27	53.15
872.571	53.35
872.872	54.04
873.173	55.32
873.473	52.69
873.774	54.41
874.075	58.89
874.376	58.58
874.676	58.58
874.977	57.36
875.277	58.37
875.578	61.5
875.878	59.93
876.179	60.35
876.479	59.93
876.78	63.58
877.08	65.17
877.38	66.18
877.68	66.41
877.981	68.36
878.281	68.36
878.581	65.47
