Data from MVZ_BU147395_Reflection_00006.txt Node
Date: Tue Nov 19 12:05:00 EST 2019
User: vgr7
Spectrometer: USB2G7710
Scans to average: 3
Trigger mode: 4
Integration Time (sec): 2.000000E-2
Electric dark correction enabled: true
Boxcar width: 10
XAxis mode: Wavelengths
Number of Pixels in Spectrum: 2048
>>>>>Begin Spectral Data<<<<<
177.721	61.86
178.105	51.42
178.488	15
178.871	-92.45
179.254	-69.31
179.636	-47.4
180.019	676.92
180.402	345.45
180.785	75.78
181.168	-47.4
181.55	-504.48
181.933	96.14
182.316	299.42
182.698	-3452.63
183.081	961.7
183.463	624.1
183.846	-526.58
184.228	-246.15
184.611	-51.47
184.993	1.98
185.376	9.02
185.758	23.46
186.14	15.9
186.522	-0.9
186.904	-30.03
187.287	-35.21
187.669	-18.13
188.051	-10.55
188.433	-37.75
188.815	-78.45
189.197	-47.72
189.579	-22.36
189.961	-19.16
190.342	-14.38
190.724	-27.07
191.106	-18.3
191.488	-30.84
191.869	-26.63
192.251	-18.34
192.633	-13.07
193.014	-12.24
193.396	-19.08
193.777	-26.61
194.159	-31.56
194.54	-34.47
194.922	-38.9
195.303	-41.13
195.684	-39.55
196.065	-49.48
196.447	-36.25
196.828	-12.88
197.209	-14.22
197.59	-23.01
197.971	-23.22
198.352	-22.85
198.733	-17.48
199.114	-31.26
199.495	-21.39
199.876	-28.89
200.257	-37.17
200.638	-28
201.018	-56.4
201.399	-66.92
201.78	-40.51
202.16	-86.91
202.541	-121.24
202.922	-104.63
203.302	-133.12
203.683	-179.02
204.063	-124.55
204.444	-70.93
204.824	-114.84
205.204	-90.8
205.585	-100.76
205.965	-86.37
206.345	-103.53
206.725	-101.24
207.106	-66.93
207.486	-54.61
207.866	-33.31
208.246	-32.74
208.626	-52.27
209.006	-40.97
209.386	-34.87
209.766	-50.32
210.145	-28.33
210.525	-20.94
210.905	-9.25
211.285	-2.39
211.664	12.08
212.044	10.36
212.424	-4.62
212.803	-7.81
213.183	-20.15
213.562	-14.25
213.942	-26.67
214.321	-22.46
214.701	-31.34
215.08	-27.73
215.459	-19.23
215.838	-36.23
216.218	-26.49
216.597	-13.42
216.976	-21.16
217.355	-16.85
217.734	-13.56
218.113	5.43
218.492	-8.85
218.871	-11.13
219.25	-9.53
219.629	-24.26
220.008	-22.16
220.387	-17.25
220.766	-6.78
221.144	-5.89
221.523	-5.35
221.902	1.26
222.28	4.24
222.659	13.2
223.037	10.32
223.416	10.28
223.794	10.71
224.173	7.07
224.551	4.89
224.929	5.23
225.308	1.86
225.686	2.06
226.064	-3.35
226.442	-1.47
226.821	-5.22
227.199	-8.26
227.577	-4.78
227.955	-3.18
228.333	-2.19
228.711	-1.21
229.089	-0.68
229.467	1.59
229.845	-0.58
230.222	1.43
230.6	-3.64
230.978	-2.73
231.356	-1.56
231.733	-2.27
232.111	-2.55
232.488	-2.84
232.866	-2.14
233.243	-1.46
233.621	-1.03
233.998	-2.73
234.376	-1.12
234.753	-0.12
235.13	1.81
235.508	1.6
235.885	0.31
236.262	0.89
236.639	-0.96
237.016	-0.15
237.393	-0.06
237.77	2.02
238.147	1.57
238.524	3.46
238.901	3.22
239.278	2.47
239.655	3.22
240.032	3.32
240.409	3.58
240.785	3.58
241.162	4.06
241.539	3.79
241.915	4.07
242.292	4.17
242.668	4.67
243.045	4.62
243.421	4.8
243.798	4.92
244.174	5.04
244.551	5.44
244.927	5.49
245.303	5.16
245.679	4.77
246.056	4.77
246.432	5
246.808	5.1
247.184	5.11
247.56	5
247.936	5.07
248.312	5.04
248.688	5.04
249.064	5.27
249.44	5.24
249.815	5.35
250.191	5.35
250.567	5.23
250.943	5.24
251.318	5.3
251.694	5.16
252.069	4.98
252.445	4.8
252.82	4.98
253.196	4.98
253.571	5.4
253.947	5.66
254.322	5.23
254.697	4.93
255.073	4.52
255.448	4.71
255.823	4.66
256.198	4.66
256.573	4.67
256.948	4.5
257.323	4.83
257.698	4.85
258.073	4.55
258.448	4.59
258.823	4.41
259.198	4.34
259.573	4.36
259.948	4.52
260.322	4.45
260.697	4.43
261.072	4.51
261.446	4.28
261.821	4.2
262.195	4.18
262.57	4.26
262.944	4.49
263.319	4.4
263.693	4.36
264.067	4.39
264.442	4.43
264.816	4.33
265.19	4.11
265.564	3.93
265.938	4.17
266.313	4.02
266.687	4.26
267.061	4.15
267.435	4.25
267.809	4.03
268.183	3.88
268.556	3.61
268.93	3.67
269.304	3.79
269.678	3.73
270.051	3.84
270.425	3.78
270.799	3.64
271.172	3.65
271.546	3.74
271.919	3.69
272.293	3.74
272.666	3.76
273.04	3.79
273.413	3.81
273.787	3.77
274.16	3.7
274.533	3.59
274.906	3.72
275.279	3.78
275.653	3.92
276.026	4.15
276.399	4.29
276.772	4.45
277.145	4.36
277.518	4.23
277.891	4.19
278.263	4.29
278.636	4.53
279.009	4.45
279.382	4.32
279.755	4.31
280.127	4.12
280.5	3.94
280.872	3.99
281.245	4.13
281.617	4.07
281.99	4.13
282.362	4.13
282.735	3.91
283.107	3.78
283.479	3.64
283.852	3.67
284.224	3.63
284.596	3.49
284.968	3.56
285.34	3.64
285.713	3.6
286.085	3.65
286.457	3.63
286.829	3.73
287.201	3.73
287.572	3.67
287.944	3.74
288.316	3.93
288.688	3.93
289.06	3.78
289.431	3.8
289.803	3.86
290.175	3.97
290.546	4.09
290.918	4.12
291.289	4.16
291.661	4.17
292.032	4.2
292.403	4.18
292.775	4.19
293.146	4.25
293.517	4.28
293.889	4.26
294.26	4.23
294.631	4.26
295.002	4.34
295.373	4.47
295.744	4.54
296.115	4.45
296.486	4.49
296.857	4.67
297.228	4.65
297.599	4.49
297.97	4.47
298.34	4.49
298.711	4.53
299.082	4.47
299.452	4.3
299.823	4.25
300.194	4.38
300.564	4.22
300.935	4.29
301.305	4.36
301.676	4.26
302.046	4.22
302.416	4.12
302.787	4.06
303.157	4.02
303.527	4.03
303.897	4.02
304.267	3.98
304.637	3.83
305.008	3.93
305.378	4.09
305.748	4.01
306.117	3.98
306.487	4.04
306.857	4.15
307.227	4.29
307.597	4.47
307.967	4.41
308.336	4.62
308.706	4.61
309.076	4.6
309.445	4.74
309.815	4.8
310.184	4.88
310.554	4.88
310.923	4.77
311.293	4.76
311.662	4.83
312.031	4.81
312.401	4.79
312.77	4.7
313.139	4.66
313.508	4.68
313.877	4.64
314.246	4.61
314.616	4.71
314.985	4.67
315.353	4.48
315.722	4.45
316.091	4.43
316.46	4.29
316.829	4.3
317.198	4.15
317.567	4.15
317.935	4.09
318.304	4.22
318.672	4.42
319.041	4.34
319.41	4.33
319.778	4.44
320.147	4.55
320.515	4.66
320.883	4.61
321.252	4.64
321.62	4.58
321.988	4.69
322.357	4.57
322.725	4.7
323.093	4.69
323.461	4.69
323.829	4.52
324.197	4.55
324.565	4.64
324.933	4.7
325.301	4.68
325.669	4.71
326.037	4.65
326.405	4.47
326.772	4.37
327.14	4.34
327.508	4.26
327.875	4.2
328.243	4.09
328.61	4.14
328.978	4.15
329.346	4.25
329.713	4.06
330.08	4.11
330.448	4.2
330.815	4.4
331.182	4.29
331.55	4.35
331.917	4.27
332.284	4.25
332.651	4.19
333.018	4.19
333.385	4.19
333.752	4.1
334.119	4.22
334.486	4.31
334.853	4.3
335.22	4.21
335.587	4.27
335.954	4.2
336.32	4.18
336.687	4.25
337.054	4.22
337.42	4.31
337.787	4.35
338.153	4.31
338.52	4.25
338.886	4.33
339.253	4.35
339.619	4.4
339.986	4.29
340.352	4.26
340.718	4.25
341.084	4.12
341.451	4.23
341.817	4.22
342.183	4.23
342.549	4.29
342.915	4.34
343.281	4.32
343.647	4.32
344.013	4.36
344.379	4.26
344.745	4.23
345.11	4.15
345.476	4.18
345.842	4.1
346.208	4.1
346.573	4.14
346.939	4.19
347.304	4.28
347.67	4.25
348.035	4.28
348.401	4.26
348.766	4.32
349.132	4.32
349.497	4.32
349.862	4.31
350.228	4.35
350.593	4.37
350.958	4.41
351.323	4.51
351.688	4.6
352.053	4.69
352.418	4.72
352.783	4.85
353.148	4.81
353.513	4.7
353.878	4.63
354.243	4.56
354.608	4.61
354.972	4.51
355.337	4.61
355.702	4.56
356.066	4.64
356.431	4.63
356.795	4.64
357.16	4.63
357.524	4.65
357.889	4.56
358.253	4.54
358.618	4.44
358.982	4.42
359.346	4.41
359.71	4.4
360.075	4.48
360.439	4.48
360.803	4.46
361.167	4.52
361.531	4.59
361.895	4.56
362.259	4.51
362.623	4.5
362.987	4.47
363.351	4.49
363.714	4.45
364.078	4.49
364.442	4.46
364.806	4.49
365.169	4.43
365.533	4.49
365.896	4.56
366.26	4.61
366.623	4.57
366.987	4.56
367.35	4.54
367.714	4.41
368.077	4.42
368.44	4.46
368.803	4.49
369.167	4.41
369.53	4.45
369.893	4.47
370.256	4.5
370.619	4.49
370.982	4.52
371.345	4.51
371.708	4.47
372.071	4.48
372.434	4.48
372.797	4.54
373.159	4.51
373.522	4.54
373.885	4.6
374.247	4.66
374.61	4.57
374.973	4.6
375.335	4.65
375.698	4.59
376.06	4.56
376.423	4.57
376.785	4.63
377.147	4.65
377.51	4.61
377.872	4.61
378.234	4.58
378.596	4.59
378.958	4.61
379.321	4.66
379.683	4.62
380.045	4.61
380.407	4.59
380.769	4.6
381.13	4.54
381.492	4.49
381.854	4.53
382.216	4.58
382.578	4.57
382.939	4.55
383.301	4.54
383.663	4.54
384.024	4.53
384.386	4.55
384.747	4.53
385.109	4.57
385.47	4.58
385.832	4.58
386.193	4.58
386.554	4.56
386.916	4.54
387.277	4.59
387.638	4.61
387.999	4.58
388.36	4.56
388.721	4.55
389.082	4.58
389.443	4.52
389.804	4.53
390.165	4.58
390.526	4.57
390.887	4.58
391.248	4.6
391.609	4.58
391.969	4.55
392.33	4.55
392.691	4.54
393.051	4.52
393.412	4.51
393.772	4.52
394.133	4.51
394.493	4.5
394.854	4.5
395.214	4.53
395.574	4.53
395.935	4.52
396.295	4.56
396.655	4.55
397.015	4.56
397.376	4.54
397.736	4.46
398.096	4.48
398.456	4.49
398.816	4.48
399.176	4.48
399.535	4.51
399.895	4.49
400.255	4.49
400.615	4.5
400.975	4.52
401.334	4.49
401.694	4.49
402.054	4.49
402.413	4.43
402.773	4.41
403.132	4.42
403.492	4.45
403.851	4.4
404.211	4.4
404.57	4.39
404.929	4.38
405.288	4.44
405.648	4.41
406.007	4.41
406.366	4.39
406.725	4.38
407.084	4.37
407.443	4.4
407.802	4.39
408.161	4.38
408.52	4.41
408.879	4.45
409.238	4.46
409.596	4.48
409.955	4.53
410.314	4.5
410.673	4.51
411.031	4.45
411.39	4.49
411.748	4.52
412.107	4.53
412.465	4.55
412.824	4.51
413.182	4.53
413.54	4.53
413.899	4.54
414.257	4.56
414.615	4.52
414.974	4.51
415.332	4.53
415.69	4.53
416.048	4.51
416.406	4.49
416.764	4.49
417.122	4.49
417.48	4.47
417.838	4.47
418.195	4.45
418.553	4.47
418.911	4.45
419.269	4.42
419.626	4.44
419.984	4.43
420.342	4.43
420.699	4.41
421.057	4.4
421.414	4.4
421.772	4.39
422.129	4.41
422.486	4.4
422.844	4.39
423.201	4.39
423.558	4.39
423.915	4.39
424.273	4.37
424.63	4.37
424.987	4.38
425.344	4.4
425.701	4.4
426.058	4.4
426.415	4.38
426.772	4.38
427.128	4.36
427.485	4.37
427.842	4.36
428.199	4.37
428.555	4.38
428.912	4.37
429.269	4.37
429.625	4.36
429.982	4.38
430.338	4.38
430.695	4.36
431.051	4.36
431.407	4.35
431.764	4.36
432.12	4.37
432.476	4.37
432.832	4.37
433.189	4.37
433.545	4.37
433.901	4.38
434.257	4.38
434.613	4.37
434.969	4.36
435.325	4.38
435.681	4.38
436.036	4.38
436.392	4.38
436.748	4.38
437.104	4.38
437.459	4.37
437.815	4.38
438.171	4.39
438.526	4.4
438.882	4.41
439.237	4.41
439.593	4.39
439.948	4.39
440.304	4.38
440.659	4.38
441.014	4.38
441.369	4.38
441.725	4.38
442.08	4.39
442.435	4.41
442.79	4.4
443.145	4.4
443.5	4.4
443.855	4.41
444.21	4.42
444.565	4.41
444.92	4.41
445.275	4.4
445.629	4.39
445.984	4.39
446.339	4.4
446.693	4.41
447.048	4.4
447.403	4.4
447.757	4.38
448.112	4.38
448.466	4.4
448.82	4.4
449.175	4.4
449.529	4.4
449.883	4.39
450.238	4.39
450.592	4.41
450.946	4.41
451.3	4.4
451.654	4.36
452.008	4.38
452.362	4.4
452.716	4.39
453.07	4.4
453.424	4.41
453.778	4.39
454.132	4.39
454.486	4.4
454.839	4.39
455.193	4.42
455.547	4.43
455.9	4.41
456.254	4.41
456.607	4.43
456.961	4.43
457.314	4.41
457.668	4.4
458.021	4.4
458.375	4.39
458.728	4.39
459.081	4.41
459.434	4.39
459.787	4.39
460.141	4.41
460.494	4.41
460.847	4.39
461.2	4.4
461.553	4.41
461.906	4.43
462.259	4.44
462.611	4.43
462.964	4.43
463.317	4.43
463.67	4.44
464.022	4.43
464.375	4.44
464.728	4.44
465.08	4.45
465.433	4.43
465.785	4.44
466.138	4.47
466.49	4.48
466.843	4.48
467.195	4.49
467.547	4.49
467.899	4.53
468.252	4.53
468.604	4.52
468.956	4.53
469.308	4.53
469.66	4.55
470.012	4.56
470.364	4.56
470.716	4.59
471.068	4.59
471.42	4.6
471.772	4.6
472.123	4.62
472.475	4.64
472.827	4.65
473.178	4.65
473.53	4.65
473.882	4.65
474.233	4.64
474.585	4.64
474.936	4.65
475.288	4.62
475.639	4.62
475.99	4.61
476.342	4.59
476.693	4.59
477.044	4.58
477.395	4.57
477.746	4.55
478.097	4.55
478.448	4.54
478.8	4.54
479.15	4.53
479.501	4.53
479.852	4.53
480.203	4.55
480.554	4.56
480.905	4.56
481.255	4.57
481.606	4.58
481.957	4.58
482.307	4.57
482.658	4.59
483.009	4.59
483.359	4.6
483.709	4.61
484.06	4.61
484.41	4.62
484.761	4.62
485.111	4.63
485.461	4.63
485.811	4.63
486.162	4.64
486.512	4.64
486.862	4.64
487.212	4.64
487.562	4.63
487.912	4.64
488.262	4.64
488.612	4.64
488.961	4.64
489.311	4.64
489.661	4.64
490.011	4.62
490.36	4.63
490.71	4.63
491.06	4.63
491.409	4.62
491.759	4.61
492.108	4.6
492.458	4.61
492.807	4.61
493.157	4.59
493.506	4.59
493.855	4.58
494.204	4.6
494.554	4.6
494.903	4.6
495.252	4.59
495.601	4.58
495.95	4.58
496.299	4.57
496.648	4.6
496.997	4.61
497.346	4.64
497.695	4.64
498.043	4.66
498.392	4.66
498.741	4.68
499.09	4.7
499.438	4.7
499.787	4.71
500.135	4.72
500.484	4.74
500.832	4.75
501.181	4.77
501.529	4.78
501.878	4.8
502.226	4.82
502.574	4.83
502.923	4.82
503.271	4.85
503.619	4.85
503.967	4.84
504.315	4.84
504.663	4.83
505.011	4.83
505.359	4.83
505.707	4.82
506.055	4.81
506.403	4.79
506.751	4.8
507.098	4.81
507.446	4.82
507.794	4.82
508.141	4.84
508.489	4.84
508.837	4.84
509.184	4.82
509.531	4.79
509.879	4.82
510.226	4.85
510.574	4.84
510.921	4.85
511.268	4.85
511.616	4.86
511.963	4.85
512.31	4.85
512.657	4.85
513.004	4.86
513.351	4.87
513.698	4.9
514.045	4.91
514.392	4.92
514.739	4.91
515.086	4.94
515.432	4.93
515.779	4.95
516.126	4.97
516.473	4.98
516.819	5.01
517.166	5
517.512	4.99
517.859	5.01
518.205	5
518.552	5.02
518.898	5.02
519.245	5.03
519.591	5.04
519.937	5.05
520.283	5.05
520.629	5.03
520.976	5.02
521.322	5.03
521.668	5.03
522.014	5.04
522.36	5.02
522.706	5.02
523.052	5
523.398	5.01
523.743	5.03
524.089	5
524.435	5.01
524.781	5.02
525.126	5.01
525.472	5.02
525.817	5.02
526.163	5.04
526.509	5.06
526.854	5.07
527.199	5.07
527.545	5.09
527.89	5.1
528.235	5.1
528.581	5.1
528.926	5.11
529.271	5.11
529.616	5.12
529.961	5.12
530.306	5.13
530.651	5.12
530.996	5.11
531.341	5.13
531.686	5.14
532.031	5.14
532.376	5.15
532.721	5.16
533.065	5.16
533.41	5.15
533.755	5.15
534.099	5.13
534.444	5.14
534.788	5.12
535.133	5.13
535.477	5.14
535.822	5.15
536.166	5.14
536.51	5.13
536.855	5.14
537.199	5.14
537.543	5.16
537.887	5.17
538.231	5.18
538.576	5.17
538.92	5.18
539.264	5.18
539.608	5.19
539.951	5.2
540.295	5.2
540.639	5.2
540.983	5.2
541.327	5.21
541.671	5.21
542.014	5.23
542.358	5.22
542.701	5.23
543.045	5.24
543.389	5.26
543.732	5.24
544.075	5.23
544.419	5.25
544.762	5.24
545.105	5.23
545.449	5.24
545.792	5.25
546.135	5.24
546.478	5.24
546.821	5.27
547.165	5.27
547.508	5.27
547.851	5.28
548.194	5.27
548.536	5.27
548.879	5.26
549.222	5.24
549.565	5.24
549.908	5.21
550.25	5.21
550.593	5.18
550.936	5.22
551.278	5.22
551.621	5.19
551.963	5.21
552.306	5.22
552.648	5.2
552.991	5.2
553.333	5.18
553.675	5.19
554.017	5.16
554.36	5.15
554.702	5.15
555.044	5.14
555.386	5.14
555.728	5.16
556.07	5.17
556.412	5.2
556.754	5.21
557.096	5.24
557.438	5.2
557.78	5.2
558.121	5.2
558.463	5.19
558.805	5.2
559.147	5.18
559.488	5.16
559.83	5.19
560.171	5.18
560.513	5.23
560.854	5.2
561.196	5.19
561.537	5.2
561.878	5.2
562.22	5.23
562.561	5.24
562.902	5.23
563.243	5.2
563.584	5.22
563.925	5.23
564.266	5.21
564.607	5.25
564.948	5.24
565.289	5.25
565.63	5.28
565.971	5.3
566.312	5.32
566.653	5.33
566.993	5.29
567.334	5.28
567.675	5.28
568.015	5.32
568.356	5.3
568.696	5.27
569.037	5.28
569.377	5.25
569.718	5.23
570.058	5.25
570.398	5.25
570.739	5.2
571.079	5.2
571.419	5.19
571.759	5.18
572.099	5.19
572.439	5.18
572.779	5.16
573.119	5.15
573.459	5.13
573.799	5.12
574.139	5.14
574.479	5.18
574.819	5.18
575.158	5.18
575.498	5.21
575.838	5.22
576.177	5.2
576.517	5.2
576.856	5.2
577.196	5.21
577.535	5.21
577.875	5.22
578.214	5.22
578.553	5.25
578.893	5.27
579.232	5.25
579.571	5.29
579.91	5.29
580.25	5.29
580.589	5.32
580.928	5.33
581.267	5.3
581.606	5.31
581.945	5.28
582.283	5.25
582.622	5.2
582.961	5.23
583.3	5.25
583.639	5.28
583.977	5.29
584.316	5.31
584.654	5.32
584.993	5.35
585.332	5.36
585.67	5.34
586.008	5.36
586.347	5.37
586.685	5.3
587.024	5.3
587.362	5.3
587.7	5.29
588.038	5.33
588.376	5.33
588.715	5.29
589.053	5.28
589.391	5.33
589.729	5.38
590.067	5.38
590.404	5.4
590.742	5.39
591.08	5.37
591.418	5.35
591.756	5.38
592.093	5.36
592.431	5.35
592.769	5.37
593.106	5.32
593.444	5.35
593.781	5.34
594.119	5.36
594.456	5.35
594.793	5.35
595.131	5.34
595.468	5.35
595.805	5.36
596.143	5.39
596.48	5.38
596.817	5.37
597.154	5.34
597.491	5.33
597.828	5.35
598.165	5.34
598.502	5.35
598.839	5.37
599.176	5.38
599.512	5.34
599.849	5.36
600.186	5.41
600.523	5.38
600.859	5.44
601.196	5.43
601.532	5.43
601.869	5.4
602.205	5.38
602.542	5.39
602.878	5.38
603.215	5.37
603.551	5.33
603.887	5.32
604.223	5.32
604.56	5.31
604.896	5.31
605.232	5.33
605.568	5.33
605.904	5.29
606.24	5.29
606.576	5.31
606.912	5.27
607.248	5.26
607.583	5.27
607.919	5.23
608.255	5.24
608.591	5.25
608.926	5.25
609.262	5.26
609.597	5.28
609.933	5.27
610.268	5.29
610.604	5.3
610.939	5.32
611.275	5.34
611.61	5.31
611.945	5.28
612.281	5.3
612.616	5.3
612.951	5.33
613.286	5.34
613.621	5.38
613.956	5.49
614.291	5.45
614.626	5.42
614.961	5.47
615.296	5.49
615.631	5.52
615.966	5.53
616.3	5.57
616.635	5.53
616.97	5.55
617.304	5.54
617.639	5.58
617.973	5.56
618.308	5.58
618.642	5.62
618.977	5.56
619.311	5.55
619.646	5.56
619.98	5.52
620.314	5.55
620.648	5.47
620.983	5.38
621.317	5.41
621.651	5.46
621.985	5.45
622.319	5.43
622.653	5.46
622.987	5.49
623.321	5.44
623.655	5.45
623.988	5.46
624.322	5.49
624.656	5.52
624.99	5.54
625.323	5.5
625.657	5.5
625.99	5.54
626.324	5.5
626.657	5.48
626.991	5.49
627.324	5.42
627.658	5.47
627.991	5.48
628.324	5.45
628.657	5.43
628.991	5.47
629.324	5.41
629.657	5.36
629.99	5.35
630.323	5.35
630.656	5.42
630.989	5.41
631.322	5.36
631.655	5.32
631.987	5.33
632.32	5.36
632.653	5.38
632.986	5.39
633.318	5.45
633.651	5.43
633.984	5.39
634.316	5.41
634.649	5.38
634.981	5.41
635.313	5.43
635.646	5.42
635.978	5.45
636.31	5.53
636.643	5.52
636.975	5.55
637.307	5.59
637.639	5.52
637.971	5.48
638.303	5.5
638.635	5.5
638.967	5.43
639.299	5.43
639.631	5.4
639.963	5.43
640.295	5.42
640.626	5.45
640.958	5.51
641.29	5.6
641.621	5.62
641.953	5.59
642.285	5.6
642.616	5.66
642.948	5.62
643.279	5.55
643.61	5.59
643.942	5.58
644.273	5.57
644.604	5.55
644.936	5.63
645.267	5.68
645.598	5.76
645.929	5.79
646.26	5.79
646.591	5.8
646.922	5.82
647.253	5.79
647.584	5.78
647.915	5.78
648.245	5.77
648.576	5.74
648.907	5.79
649.238	5.77
649.568	5.73
649.899	5.69
650.229	5.73
650.56	5.73
650.89	5.76
651.221	5.77
651.551	5.89
651.882	5.88
652.212	5.87
652.542	5.85
652.872	5.83
653.203	5.88
653.533	5.96
653.863	5.98
654.193	5.95
654.523	5.9
654.853	5.98
655.183	5.98
655.513	5.94
655.843	5.9
656.172	5.95
656.502	5.98
656.832	5.96
657.162	5.94
657.491	5.96
657.821	5.92
658.15	5.92
658.48	5.88
658.809	5.85
659.139	5.86
659.468	5.92
659.798	5.95
660.127	5.9
660.456	5.8
660.785	5.77
661.115	5.85
661.444	5.94
661.773	5.91
662.102	5.87
662.431	5.95
662.76	5.94
663.089	5.99
663.418	5.99
663.747	6.01
664.076	6.04
664.404	6.07
664.733	6.04
665.062	6.03
665.39	6.01
665.719	6.06
666.048	6.03
666.376	5.96
666.705	5.95
667.033	6.01
667.362	6.09
667.69	6.08
668.018	6.08
668.347	6.09
668.675	6.06
669.003	6.1
669.331	6.11
669.659	6.15
669.987	6.08
670.315	6.09
670.643	6.11
670.971	6.17
671.299	6.11
671.627	6.18
671.955	6.17
672.283	6.19
672.61	6.17
672.938	6.23
673.266	6.16
673.593	6.2
673.921	6.19
674.249	6.11
674.576	6.09
674.904	6.1
675.231	6.08
675.558	6.15
675.886	6.15
676.213	6.13
676.54	6.13
676.867	6.08
677.195	6.14
677.522	6.13
677.849	6.14
678.176	6.17
678.503	6.12
678.83	6.14
679.157	6.11
679.484	6.08
679.81	6.04
680.137	6.1
680.464	6.06
680.791	6.09
681.117	6.19
681.444	6.17
681.771	6.2
682.097	6.21
682.424	6.13
682.75	6.13
683.077	6.14
683.403	6.15
683.729	6.15
684.056	6.01
684.382	6.04
684.708	5.97
685.034	6.03
685.36	6.01
685.686	6.03
686.012	6.02
686.339	6.01
686.664	6.11
686.99	6.07
687.316	6.06
687.642	6.01
687.968	5.97
688.294	5.98
688.619	5.97
688.945	6.07
689.271	6.13
689.596	6.1
689.922	6.09
690.247	6.14
690.573	6.25
690.898	6.32
691.224	6.26
691.549	6.25
691.874	6.21
692.2	6.25
692.525	6.18
692.85	6.13
693.175	6.18
693.5	6.06
693.825	6.13
694.15	6.09
694.475	6.1
694.8	6.09
695.125	6.19
695.45	6.1
695.775	6.06
696.099	6.11
696.424	6.14
696.749	6.31
697.073	6.28
697.398	6.25
697.723	6.26
698.047	6.31
698.372	6.43
698.696	6.39
699.02	6.47
699.345	6.51
699.669	6.58
699.993	6.56
700.318	6.69
700.642	6.62
700.966	6.74
701.29	6.79
701.614	6.82
701.938	6.81
702.262	6.72
702.586	6.66
702.91	6.63
703.234	6.66
703.557	6.56
703.881	6.62
704.205	6.6
704.529	6.54
704.852	6.47
705.176	6.42
705.499	6.49
705.823	6.33
706.146	6.48
706.47	6.62
706.793	6.71
707.117	6.44
707.44	6.47
707.763	6.4
708.086	6.4
708.409	6.41
708.733	6.33
709.056	6.59
709.379	6.72
709.702	6.7
710.025	6.68
710.348	6.57
710.671	6.51
710.993	6.54
711.316	6.6
711.639	6.72
711.962	6.72
712.284	6.67
712.607	6.72
712.93	6.5
713.252	6.32
713.575	6.34
713.897	6.45
714.22	6.48
714.542	6.57
714.864	6.52
715.187	6.46
715.509	6.51
715.831	6.5
716.153	6.37
716.475	6.44
716.798	6.43
717.12	6.49
717.442	6.47
717.764	6.37
718.085	6.45
718.407	6.39
718.729	6.28
719.051	6.22
719.373	6.22
719.695	6.29
720.016	6.5
720.338	6.55
720.659	6.63
720.981	6.53
721.302	6.62
721.624	6.71
721.945	6.78
722.267	6.73
722.588	6.76
722.909	6.82
723.231	6.71
723.552	6.71
723.873	6.69
724.194	6.7
724.515	6.85
724.836	6.91
725.157	6.87
725.478	7.01
725.799	7.13
726.12	7.05
726.441	7.2
726.762	7.2
727.083	7.18
727.403	7.16
727.724	7.2
728.045	7.12
728.365	7.09
728.686	7.16
729.006	7.2
729.327	7.15
729.647	7.1
729.967	7.19
730.288	7.18
730.608	7.3
730.928	7.29
731.249	7.33
731.569	7.18
731.889	7.03
732.209	6.97
732.529	6.82
732.849	6.91
733.169	6.84
733.489	6.75
733.809	6.7
734.129	6.56
734.448	6.74
734.768	6.62
735.088	6.68
735.408	6.75
735.727	6.68
736.047	6.84
736.366	6.82
736.686	6.74
737.005	6.88
737.325	6.78
737.644	6.76
737.963	6.65
738.283	6.6
738.602	6.98
738.921	7.1
739.24	7.28
739.56	7.36
739.879	7.19
740.198	7.17
740.517	7.21
740.836	7.11
741.155	7.05
741.473	7.38
741.792	7.42
742.111	7.46
742.43	7.78
742.748	7.6
743.067	7.77
743.386	7.68
743.704	7.59
744.023	7.72
744.341	7.8
744.66	7.75
744.978	7.98
745.297	7.99
745.615	7.73
745.933	7.79
746.252	7.64
746.57	7.87
746.888	7.79
747.206	7.77
747.524	8.29
747.842	8.15
748.16	7.93
748.478	7.92
748.796	7.78
749.114	7.6
749.432	7.61
749.749	7.57
750.067	7.71
750.385	7.57
750.703	7.55
751.02	7.45
751.338	7.65
751.655	7.5
751.973	7.39
752.29	7.66
752.608	7.32
752.925	7.45
753.242	7.45
753.56	7.58
753.877	7.52
754.194	7.33
754.511	7.28
754.828	7.17
755.145	6.92
755.462	6.88
755.779	6.88
756.096	7.23
756.413	7.25
756.73	7.14
757.047	7.24
757.364	7.11
757.68	7.27
757.997	7.41
758.314	7.63
758.63	7.61
758.947	7.48
759.264	7.96
759.58	8.02
759.896	8.05
760.213	8.02
760.529	8
760.846	8.16
761.162	8.15
761.478	8.45
761.794	8.54
762.11	8.47
762.426	8.49
762.743	8.24
763.059	8.24
763.375	8.34
763.69	8.42
764.006	8.44
764.322	8.61
764.638	8.47
764.954	8.4
765.27	8.57
765.585	8.53
765.901	8.45
766.216	8.37
766.532	8.42
766.848	8.48
767.163	8.49
767.478	8.4
767.794	8.61
768.109	8.34
768.424	8.46
768.74	8.4
769.055	8.55
769.37	8.52
769.685	8.39
770	8.63
770.315	8.79
770.63	8.97
770.945	8.88
771.26	8.71
771.575	8.62
771.89	8.41
772.205	8.53
772.52	8.4
772.834	8.68
773.149	8.73
773.464	9
773.778	9.17
774.093	9.23
774.407	9.41
774.722	9.27
775.036	9.14
775.351	9.53
775.665	9.63
775.979	9.83
776.293	9.73
776.608	9.38
776.922	9.22
777.236	9.38
777.55	9.25
777.864	9.38
778.178	9.46
778.492	9.91
778.806	10.09
779.12	10.33
779.434	10.6
779.747	10.67
780.061	10.61
780.375	10.9
780.689	10.91
781.002	10.84
781.316	11.03
781.629	11.19
781.943	11.21
782.256	10.68
782.57	10.41
782.883	10.76
783.196	11.07
783.51	11.3
783.823	10.75
784.136	10.64
784.449	10.63
784.762	10.74
785.075	10.2
785.388	10
785.701	10.22
786.014	9.59
786.327	9.59
786.64	9.21
786.953	8.66
787.266	8.44
787.578	8.12
787.891	8.26
788.204	8.53
788.516	8.49
788.829	8.79
789.141	9.14
789.454	9.37
789.766	9.47
790.079	9.01
790.391	9.25
790.703	9.14
791.016	9.32
791.328	9.22
791.64	9.45
791.952	9.84
792.264	9.69
792.576	10.08
792.888	9.83
793.2	10.22
793.512	10.01
793.824	10.25
794.136	10.44
794.448	10.41
794.76	9.91
795.071	9.59
795.383	9.41
795.695	9.36
796.006	9.14
796.318	9.04
796.629	9.64
796.941	9.75
797.252	9.93
797.564	9.94
797.875	9.97
798.186	10.16
798.497	9.88
798.809	9.35
799.12	8.76
799.431	8.92
799.742	8.93
800.053	8.98
800.364	9.57
800.675	9.94
800.986	10.13
801.297	10.23
801.608	10.36
801.918	10.58
802.229	10.35
802.54	9.99
802.851	9.8
803.161	9.33
803.472	9.38
803.782	9.59
804.093	9.54
804.403	9.18
804.714	9.01
805.024	9.37
805.334	9.9
805.645	9.98
805.955	9.99
806.265	9.96
806.575	10.83
806.885	10.36
807.195	10.01
807.505	9.65
807.815	9.68
808.125	9.98
808.435	10.39
808.745	10.07
809.055	10.79
809.365	10.79
809.674	11.11
809.984	11.18
810.294	11.25
810.603	10.79
810.913	11.15
811.222	11.05
811.532	10.35
811.841	11.21
812.151	11.47
812.46	11.56
812.769	11.67
813.079	11.12
813.388	10.51
813.697	10.55
814.006	11.35
814.315	11.61
814.624	11.44
814.933	10.64
815.242	11.05
815.551	10.87
815.86	11.41
816.169	11.08
816.478	11.07
816.786	10.43
817.095	11.19
817.404	11.42
817.712	12.01
818.021	12.17
818.33	10.89
818.638	11.28
818.947	11.6
819.255	11.8
819.563	11.9
819.872	11.84
820.18	11.65
820.488	11.61
820.796	11.85
821.105	11.84
821.413	12.14
821.721	12.07
822.029	12.11
822.337	12.14
822.645	12.11
822.953	12.09
823.26	12.12
823.568	12.18
823.876	12.17
824.184	12.09
824.491	12.14
824.799	12.21
825.107	12.17
825.414	12.02
825.722	11.82
826.029	11.88
826.337	12.04
826.644	12.19
826.951	12.19
827.259	12.05
827.566	12.08
827.873	12
828.18	12.16
828.488	12.09
828.795	12
829.102	12.1
829.409	12.13
829.716	12.59
830.023	12.54
830.329	12.62
830.636	12.48
830.943	12.51
831.25	12.61
831.557	12.5
831.863	12.38
832.17	12.67
832.476	12.45
832.783	12.42
833.089	12.54
833.396	12.63
833.702	12.34
834.009	12
834.315	12.21
834.621	12.14
834.928	11.95
835.234	11.64
835.54	11.67
835.846	11.56
836.152	10.89
836.458	10.66
836.764	10.5
837.07	10.29
837.376	10.37
837.682	10.63
837.988	10.96
838.293	11.45
838.599	11.09
838.905	11.4
839.211	11.27
839.516	10.66
839.822	10.26
840.127	10.51
840.433	11.07
840.738	10.26
841.044	10.25
841.349	10.29
841.654	10.43
841.959	10.15
842.265	10.14
842.57	10.88
842.875	10.66
843.18	10.69
843.485	11.65
843.79	11.53
844.095	10.82
844.4	10.52
844.705	10.3
845.01	11.37
845.315	11.32
845.619	12.45
845.924	12.89
846.229	13.01
846.533	14.1
846.838	13.33
847.142	12.75
847.447	12.03
847.751	12.22
848.056	11.68
848.36	12.26
848.664	13.34
848.969	12.58
849.273	12.73
849.577	12.05
849.881	10.67
850.185	10.73
850.489	11.34
850.794	10.27
851.097	9.5
851.401	7.33
851.705	6.01
852.009	5.33
852.313	4.51
852.617	5.32
852.92	5.92
853.224	8.26
853.528	9.61
853.831	10.47
854.135	10.9
854.438	12.28
854.742	13
855.045	12.93
855.349	12.02
855.652	12.2
855.955	15.05
856.259	17.09
856.562	16.23
856.865	16.19
857.168	16.82
857.471	17.19
857.774	16.73
858.077	19.07
858.38	17.44
858.683	19.16
858.986	18.55
859.289	17.22
859.592	16.49
859.894	17
860.197	16.61
860.5	17.44
860.802	17.01
861.105	14.94
861.407	13.36
861.71	15.14
862.012	18.04
862.315	15.45
862.617	11.97
862.919	11.47
863.222	11.55
863.524	11.85
863.826	11.45
864.128	15.77
864.43	13.97
864.732	15.59
865.034	15.84
865.336	15.45
865.638	13.94
865.94	12.36
866.242	11.3
866.544	14.37
866.846	12.78
867.147	14.19
867.449	17.11
867.751	17.83
868.052	16.74
868.354	14.05
868.655	13.7
868.957	16.17
869.258	16.85
869.56	16.85
869.861	18.71
870.162	17.55
870.463	15.24
870.765	14.38
871.066	12.22
871.367	12.13
871.668	11.57
871.969	10.93
872.27	12.51
872.571	12.51
872.872	9.32
873.173	7.98
873.473	6.16
873.774	5.23
874.075	5.99
874.376	7.47
874.676	9.16
874.977	10.81
875.277	10.78
875.578	11.69
875.878	11.54
876.179	9.82
876.479	11.61
876.78	11.44
877.08	12.53
877.38	14.27
877.68	13.22
877.981	13.14
878.281	16.58
878.581	16.06
