Data from MVZ_BU8942_Reflection_00004.txt Node
Date: Tue Nov 19 12:03:55 EST 2019
User: vgr7
Spectrometer: USB2G7710
Scans to average: 3
Trigger mode: 4
Integration Time (sec): 2.000000E-2
Electric dark correction enabled: true
Boxcar width: 10
XAxis mode: Wavelengths
Number of Pixels in Spectrum: 2048
>>>>>Begin Spectral Data<<<<<
177.721	48.39
178.105	-16.88
178.488	-203.37
178.871	-800
179.254	160
179.636	-31.39
180.019	-167.33
180.402	100
180.785	172
181.168	623.26
181.55	-542.86
181.933	36.44
182.316	-7.73
182.698	131.69
183.081	164.75
183.463	124.79
183.846	53.77
184.228	32.74
184.611	81.33
184.993	68.42
185.376	79.24
185.758	63.29
186.14	55.32
186.522	49.15
186.904	15.62
187.287	-10.6
187.669	-57.89
188.051	-45.75
188.433	-51.62
188.815	-107.09
189.197	-101.71
189.579	-98.11
189.961	-131.66
190.342	-47.14
190.724	-59.91
191.106	-97.37
191.488	-94.97
191.869	-116.19
192.251	-103.97
192.633	-93.98
193.014	-80.54
193.396	-82.23
193.777	-64.17
194.159	-77.63
194.54	-66.08
194.922	-53.36
195.303	-51.55
195.684	-55.41
196.065	-43.69
196.447	-46.03
196.828	-58.2
197.209	-48.73
197.59	-38.24
197.971	-32.15
198.352	-51.15
198.733	-95.17
199.114	-117.34
199.495	-91.12
199.876	-93.73
200.257	-38.16
200.638	-37.66
201.018	-20.23
201.399	20.05
201.78	8.67
202.16	14.29
202.541	-19.44
202.922	-29.96
203.302	-29.31
203.683	-27.5
204.063	-87.01
204.444	-134.49
204.824	-106.76
205.204	-116.19
205.585	-97.21
205.965	-177.4
206.345	-141
206.725	-44.63
207.106	-15.11
207.486	-29.34
207.866	-29.12
208.246	-38.93
208.626	-101.59
209.006	-112.24
209.386	-183.54
209.766	-309.76
210.145	-200.79
210.525	-159.46
210.905	-126.24
211.285	-141.74
211.664	-119.83
212.044	-73.25
212.424	-38.24
212.803	-44.7
213.183	-29.11
213.562	-31.61
213.942	-48.83
214.321	-52.23
214.701	-99.58
215.08	-137.06
215.459	-66.32
215.838	-54.64
216.218	-52.43
216.597	-50.67
216.976	-69.72
217.355	-82.87
217.734	-97.85
218.113	-81.74
218.492	-54.16
218.871	-57.03
219.25	-59.17
219.629	-59.63
220.008	-71.9
220.387	-67.65
220.766	-56.28
221.144	-56.88
221.523	-58.32
221.902	-47.93
222.28	-27.6
222.659	-18.54
223.037	-24.42
223.416	-28.83
223.794	-18.21
224.173	-20.3
224.551	-14.53
224.929	-10.28
225.308	-10.47
225.686	-2.79
226.064	-1.85
226.442	-7.11
226.821	-7.18
227.199	-5.32
227.577	-1.65
227.955	4.11
228.333	6.52
228.711	4.77
229.089	1.49
229.467	2
229.845	1.04
230.222	-3.07
230.6	-5.06
230.978	-2.48
231.356	-5.41
231.733	-3.06
232.111	-1.89
232.488	-0.48
232.866	3.21
233.243	0.98
233.621	1.39
233.998	-1.15
234.376	1.12
234.753	0.95
235.13	-0.07
235.508	-1.57
235.885	-2.93
236.262	-3.87
236.639	-3.55
237.016	-2.18
237.393	-1.47
237.77	-0.17
238.147	1
238.524	2.14
238.901	0.88
239.278	1.28
239.655	-0.01
240.032	-0.26
240.409	0.38
240.785	0.07
241.162	0.48
241.539	0.27
241.915	0.32
242.292	0.12
242.668	0.94
243.045	1.58
243.421	2.19
243.798	2.29
244.174	2.75
244.551	2.64
244.927	2.7
245.303	2.7
245.679	2.49
246.056	2.58
246.432	2.69
246.808	2.98
247.184	3.1
247.56	3.05
247.936	3.25
248.312	3.23
248.688	3.21
249.064	3.33
249.44	3.56
249.815	3.86
250.191	4.06
250.567	4.15
250.943	4.03
251.318	3.66
251.694	3.61
252.069	3.49
252.445	3.87
252.82	4.05
253.196	4.16
253.571	4.23
253.947	4.25
254.322	3.72
254.697	3.65
255.073	3.4
255.448	3.53
255.823	3.39
256.198	2.84
256.573	2.98
256.948	3.23
257.323	3.18
257.698	3.01
258.073	2.68
258.448	2.33
258.823	2.3
259.198	2.6
259.573	2.34
259.948	2.34
260.322	2.13
260.697	2.15
261.072	2.02
261.446	2.26
261.821	2.17
262.195	2.29
262.57	2.26
262.944	2.39
263.319	2.49
263.693	2.55
264.067	2.89
264.442	2.75
264.816	2.68
265.19	2.5
265.564	2.45
265.938	2.7
266.313	2.65
266.687	2.67
267.061	2.59
267.435	3
267.809	3.02
268.183	3.04
268.556	2.91
268.93	2.99
269.304	2.79
269.678	2.71
270.051	2.92
270.425	2.97
270.799	2.86
271.172	2.76
271.546	2.84
271.919	2.69
272.293	2.71
272.666	2.57
273.04	2.67
273.413	2.75
273.787	2.72
274.16	2.99
274.533	3.13
274.906	3.07
275.279	2.86
275.653	2.83
276.026	2.81
276.399	2.95
276.772	2.92
277.145	2.95
277.518	3.06
277.891	2.81
278.263	2.97
278.636	2.96
279.009	2.92
279.382	2.7
279.755	2.78
280.127	2.85
280.5	2.86
280.872	2.99
281.245	3
281.617	2.95
281.99	2.93
282.362	2.81
282.735	2.73
283.107	2.81
283.479	3
283.852	3.07
284.224	3.11
284.596	3.15
284.968	3.09
285.34	3.13
285.713	3.26
286.085	3.04
286.457	3.16
286.829	3.31
287.201	3.37
287.572	3.39
287.944	3.48
288.316	3.49
288.688	3.55
289.06	3.58
289.431	3.63
289.803	3.62
290.175	3.56
290.546	3.66
290.918	3.65
291.289	3.35
291.661	3.29
292.032	3.14
292.403	3.07
292.775	3.2
293.146	3.22
293.517	3.21
293.889	3.21
294.26	3.21
294.631	3.13
295.002	3.13
295.373	3.15
295.744	3.04
296.115	3.03
296.486	2.89
296.857	2.86
297.228	2.76
297.599	2.71
297.97	2.82
298.34	2.88
298.711	2.91
299.082	3.13
299.452	3.02
299.823	3.07
300.194	3.3
300.564	3.11
300.935	3.08
301.305	2.95
301.676	2.89
302.046	2.77
302.416	2.93
302.787	2.99
303.157	2.87
303.527	2.9
303.897	2.85
304.267	3
304.637	3.06
305.008	3.3
305.378	3.31
305.748	3.4
306.117	3.2
306.487	3.33
306.857	3.32
307.227	3.59
307.597	3.62
307.967	3.5
308.336	3.64
308.706	3.61
309.076	3.77
309.445	4
309.815	4.12
310.184	3.96
310.554	3.8
310.923	3.89
311.293	3.79
311.662	3.99
312.031	3.83
312.401	3.9
312.77	3.69
313.139	3.75
313.508	3.59
313.877	3.7
314.246	3.55
314.616	3.49
314.985	3.37
315.353	3.32
315.722	3.38
316.091	3.44
316.46	3.47
316.829	3.36
317.198	3.25
317.567	3.33
317.935	3.27
318.304	3.43
318.672	3.39
319.041	3.49
319.41	3.47
319.778	3.5
320.147	3.38
320.515	3.51
320.883	3.39
321.252	3.58
321.62	3.56
321.988	3.66
322.357	3.65
322.725	3.68
323.093	3.63
323.461	3.55
323.829	3.52
324.197	3.47
324.565	3.54
324.933	3.42
325.301	3.16
325.669	3.25
326.037	3.22
326.405	3.35
326.772	3.38
327.14	3.24
327.508	3.14
327.875	2.91
328.243	2.97
328.61	2.92
328.978	2.76
329.346	2.79
329.713	2.83
330.08	2.91
330.448	3.02
330.815	2.99
331.182	2.94
331.55	2.92
331.917	3.11
332.284	3.22
332.651	3.35
333.018	3.53
333.385	3.46
333.752	3.5
334.119	3.31
334.486	3.26
334.853	3.53
335.22	3.58
335.587	3.84
335.954	3.78
336.32	3.77
336.687	3.82
337.054	3.82
337.42	3.79
337.787	3.71
338.153	3.7
338.52	3.85
338.886	3.8
339.253	3.76
339.619	3.64
339.986	3.49
340.352	3.51
340.718	3.49
341.084	3.59
341.451	3.55
341.817	3.63
342.183	3.57
342.549	3.41
342.915	3.47
343.281	3.41
343.647	3.29
344.013	3.42
344.379	3.33
344.745	3.42
345.11	3.38
345.476	3.46
345.842	3.31
346.208	3.3
346.573	3.44
346.939	3.42
347.304	3.46
347.67	3.46
348.035	3.43
348.401	3.43
348.766	3.32
349.132	3.38
349.497	3.36
349.862	3.46
350.228	3.38
350.593	3.35
350.958	3.47
351.323	3.45
351.688	3.39
352.053	3.46
352.418	3.44
352.783	3.37
353.148	3.35
353.513	3.4
353.878	3.35
354.243	3.24
354.608	3.28
354.972	3.31
355.337	3.38
355.702	3.32
356.066	3.34
356.431	3.4
356.795	3.38
357.16	3.32
357.524	3.33
357.889	3.38
358.253	3.39
358.618	3.29
358.982	3.29
359.346	3.34
359.71	3.33
360.075	3.29
360.439	3.33
360.803	3.3
361.167	3.26
361.531	3.28
361.895	3.27
362.259	3.28
362.623	3.19
362.987	3.15
363.351	3.22
363.714	3.18
364.078	3.17
364.442	3.15
364.806	3.18
365.169	3.11
365.533	3.1
365.896	3.12
366.26	3.13
366.623	3.2
366.987	3.17
367.35	3.21
367.714	3.25
368.077	3.3
368.44	3.3
368.803	3.33
369.167	3.26
369.53	3.28
369.893	3.28
370.256	3.28
370.619	3.23
370.982	3.16
371.345	3.18
371.708	3.16
372.071	3.06
372.434	3.11
372.797	3.15
373.159	3.2
373.522	3.2
373.885	3.23
374.247	3.2
374.61	3.24
374.973	3.29
375.335	3.29
375.698	3.19
376.06	3.29
376.423	3.31
376.785	3.38
377.147	3.38
377.51	3.38
377.872	3.42
378.234	3.51
378.596	3.54
378.958	3.58
379.321	3.63
379.683	3.74
380.045	3.69
380.407	3.74
380.769	3.71
381.13	3.66
381.492	3.65
381.854	3.62
382.216	3.59
382.578	3.6
382.939	3.55
383.301	3.58
383.663	3.49
384.024	3.52
384.386	3.53
384.747	3.51
385.109	3.49
385.47	3.53
385.832	3.47
386.193	3.5
386.554	3.45
386.916	3.42
387.277	3.37
387.638	3.45
387.999	3.41
388.36	3.38
388.721	3.44
389.082	3.47
389.443	3.54
389.804	3.55
390.165	3.51
390.526	3.52
390.887	3.54
391.248	3.55
391.609	3.54
391.969	3.51
392.33	3.53
392.691	3.55
393.051	3.54
393.412	3.54
393.772	3.52
394.133	3.52
394.493	3.51
394.854	3.54
395.214	3.51
395.574	3.47
395.935	3.48
396.295	3.49
396.655	3.45
397.015	3.44
397.376	3.47
397.736	3.46
398.096	3.47
398.456	3.46
398.816	3.47
399.176	3.47
399.535	3.49
399.895	3.51
400.255	3.53
400.615	3.52
400.975	3.53
401.334	3.55
401.694	3.55
402.054	3.57
402.413	3.59
402.773	3.59
403.132	3.63
403.492	3.65
403.851	3.62
404.211	3.67
404.57	3.66
404.929	3.65
405.288	3.68
405.648	3.69
406.007	3.72
406.366	3.71
406.725	3.71
407.084	3.74
407.443	3.71
407.802	3.7
408.161	3.71
408.52	3.72
408.879	3.75
409.238	3.79
409.596	3.78
409.955	3.75
410.314	3.75
410.673	3.76
411.031	3.74
411.39	3.74
411.748	3.72
412.107	3.71
412.465	3.7
412.824	3.68
413.182	3.66
413.54	3.69
413.899	3.68
414.257	3.71
414.615	3.67
414.974	3.71
415.332	3.68
415.69	3.67
416.048	3.71
416.406	3.69
416.764	3.68
417.122	3.68
417.48	3.69
417.838	3.69
418.195	3.69
418.553	3.7
418.911	3.71
419.269	3.71
419.626	3.73
419.984	3.73
420.342	3.73
420.699	3.73
421.057	3.72
421.414	3.74
421.772	3.73
422.129	3.75
422.486	3.74
422.844	3.75
423.201	3.76
423.558	3.73
423.915	3.73
424.273	3.73
424.63	3.74
424.987	3.74
425.344	3.74
425.701	3.75
426.058	3.76
426.415	3.75
426.772	3.75
427.128	3.73
427.485	3.74
427.842	3.73
428.199	3.75
428.555	3.75
428.912	3.75
429.269	3.75
429.625	3.75
429.982	3.76
430.338	3.79
430.695	3.77
431.051	3.8
431.407	3.82
431.764	3.81
432.12	3.83
432.476	3.85
432.832	3.82
433.189	3.82
433.545	3.83
433.901	3.83
434.257	3.85
434.613	3.86
434.969	3.85
435.325	3.86
435.681	3.85
436.036	3.85
436.392	3.83
436.748	3.86
437.104	3.83
437.459	3.83
437.815	3.8
438.171	3.82
438.526	3.81
438.882	3.8
439.237	3.81
439.593	3.81
439.948	3.79
440.304	3.8
440.659	3.81
441.014	3.81
441.369	3.81
441.725	3.81
442.08	3.83
442.435	3.85
442.79	3.83
443.145	3.83
443.5	3.85
443.855	3.84
444.21	3.83
444.565	3.85
444.92	3.84
445.275	3.85
445.629	3.84
445.984	3.83
446.339	3.84
446.693	3.84
447.048	3.83
447.403	3.83
447.757	3.83
448.112	3.82
448.466	3.81
448.82	3.82
449.175	3.82
449.529	3.82
449.883	3.81
450.238	3.81
450.592	3.81
450.946	3.83
451.3	3.85
451.654	3.86
452.008	3.86
452.362	3.87
452.716	3.88
453.07	3.9
453.424	3.91
453.778	3.91
454.132	3.92
454.486	3.94
454.839	3.94
455.193	3.95
455.547	3.98
455.9	3.98
456.254	3.96
456.607	3.96
456.961	3.95
457.314	3.94
457.668	3.95
458.021	3.96
458.375	3.92
458.728	3.91
459.081	3.89
459.434	3.89
459.787	3.89
460.141	3.88
460.494	3.9
460.847	3.89
461.2	3.9
461.553	3.88
461.906	3.88
462.259	3.87
462.611	3.88
462.964	3.85
463.317	3.87
463.67	3.89
464.022	3.89
464.375	3.87
464.728	3.87
465.08	3.87
465.433	3.86
465.785	3.88
466.138	3.89
466.49	3.9
466.843	3.9
467.195	3.89
467.547	3.88
467.899	3.87
468.252	3.89
468.604	3.88
468.956	3.9
469.308	3.9
469.66	3.92
470.012	3.92
470.364	3.94
470.716	3.96
471.068	3.95
471.42	3.95
471.772	3.98
472.123	4.01
472.475	4.02
472.827	4.03
473.178	4.03
473.53	4.06
473.882	4.06
474.233	4.06
474.585	4.07
474.936	4.08
475.288	4.07
475.639	4.07
475.99	4.08
476.342	4.07
476.693	4.07
477.044	4.06
477.395	4.07
477.746	4.05
478.097	4.04
478.448	4.04
478.8	4.06
479.15	4.04
479.501	4.04
479.852	4.04
480.203	4.03
480.554	4.03
480.905	4.03
481.255	4.03
481.606	4.02
481.957	4.03
482.307	4.04
482.658	4.05
483.009	4.05
483.359	4.05
483.709	4.06
484.06	4.06
484.41	4.06
484.761	4.06
485.111	4.07
485.461	4.06
485.811	4.06
486.162	4.06
486.512	4.07
486.862	4.07
487.212	4.07
487.562	4.08
487.912	4.09
488.262	4.1
488.612	4.1
488.961	4.1
489.311	4.1
489.661	4.1
490.011	4.08
490.36	4.08
490.71	4.07
491.06	4.07
491.409	4.08
491.759	4.07
492.108	4.08
492.458	4.06
492.807	4.08
493.157	4.08
493.506	4.08
493.855	4.08
494.204	4.07
494.554	4.08
494.903	4.07
495.252	4.06
495.601	4.04
495.95	4.03
496.299	4.06
496.648	4.07
496.997	4.07
497.346	4.11
497.695	4.11
498.043	4.13
498.392	4.14
498.741	4.13
499.09	4.15
499.438	4.16
499.787	4.16
500.135	4.16
500.484	4.18
500.832	4.17
501.181	4.16
501.529	4.18
501.878	4.16
502.226	4.17
502.574	4.16
502.923	4.17
503.271	4.17
503.619	4.16
503.967	4.16
504.315	4.16
504.663	4.13
505.011	4.13
505.359	4.13
505.707	4.11
506.055	4.12
506.403	4.11
506.751	4.11
507.098	4.12
507.446	4.14
507.794	4.13
508.141	4.15
508.489	4.18
508.837	4.17
509.184	4.19
509.531	4.2
509.879	4.19
510.226	4.17
510.574	4.2
510.921	4.21
511.268	4.21
511.616	4.22
511.963	4.23
512.31	4.27
512.657	4.27
513.004	4.29
513.351	4.29
513.698	4.29
514.045	4.28
514.392	4.29
514.739	4.29
515.086	4.31
515.432	4.3
515.779	4.29
516.126	4.31
516.473	4.27
516.819	4.29
517.166	4.31
517.512	4.34
517.859	4.33
518.205	4.33
518.552	4.35
518.898	4.33
519.245	4.34
519.591	4.33
519.937	4.33
520.283	4.35
520.629	4.34
520.976	4.36
521.322	4.37
521.668	4.35
522.014	4.34
522.36	4.33
522.706	4.33
523.052	4.36
523.398	4.34
523.743	4.35
524.089	4.34
524.435	4.34
524.781	4.34
525.126	4.36
525.472	4.36
525.817	4.33
526.163	4.35
526.509	4.36
526.854	4.36
527.199	4.37
527.545	4.35
527.89	4.36
528.235	4.34
528.581	4.35
528.926	4.35
529.271	4.37
529.616	4.37
529.961	4.37
530.306	4.38
530.651	4.38
530.996	4.39
531.341	4.4
531.686	4.4
532.031	4.4
532.376	4.39
532.721	4.39
533.065	4.41
533.41	4.41
533.755	4.4
534.099	4.39
534.444	4.39
534.788	4.39
535.133	4.39
535.477	4.4
535.822	4.41
536.166	4.41
536.51	4.4
536.855	4.42
537.199	4.41
537.543	4.41
537.887	4.42
538.231	4.41
538.576	4.42
538.92	4.45
539.264	4.46
539.608	4.46
539.951	4.45
540.295	4.46
540.639	4.45
540.983	4.46
541.327	4.48
541.671	4.48
542.014	4.51
542.358	4.52
542.701	4.53
543.045	4.54
543.389	4.55
543.732	4.54
544.075	4.53
544.419	4.53
544.762	4.53
545.105	4.53
545.449	4.55
545.792	4.53
546.135	4.52
546.478	4.51
546.821	4.51
547.165	4.53
547.508	4.52
547.851	4.51
548.194	4.5
548.536	4.49
548.879	4.49
549.222	4.46
549.565	4.46
549.908	4.44
550.25	4.42
550.593	4.42
550.936	4.43
551.278	4.4
551.621	4.41
551.963	4.41
552.306	4.42
552.648	4.39
552.991	4.4
553.333	4.42
553.675	4.43
554.017	4.47
554.36	4.48
554.702	4.47
555.044	4.49
555.386	4.5
555.728	4.51
556.07	4.51
556.412	4.48
556.754	4.5
557.096	4.5
557.438	4.5
557.78	4.5
558.121	4.52
558.463	4.56
558.805	4.57
559.147	4.57
559.488	4.55
559.83	4.57
560.171	4.54
560.513	4.52
560.854	4.51
561.196	4.49
561.537	4.49
561.878	4.52
562.22	4.52
562.561	4.53
562.902	4.53
563.243	4.54
563.584	4.56
563.925	4.56
564.266	4.57
564.607	4.56
564.948	4.55
565.289	4.54
565.63	4.47
565.971	4.48
566.312	4.48
566.653	4.47
566.993	4.47
567.334	4.5
567.675	4.49
568.015	4.47
568.356	4.45
568.696	4.44
569.037	4.43
569.377	4.46
569.718	4.45
570.058	4.44
570.398	4.44
570.739	4.44
571.079	4.43
571.419	4.45
571.759	4.43
572.099	4.44
572.439	4.42
572.779	4.47
573.119	4.46
573.459	4.45
573.799	4.46
574.139	4.45
574.479	4.46
574.819	4.46
575.158	4.49
575.498	4.49
575.838	4.51
576.177	4.52
576.517	4.52
576.856	4.51
577.196	4.54
577.535	4.54
577.875	4.52
578.214	4.52
578.553	4.5
578.893	4.53
579.232	4.53
579.571	4.55
579.91	4.58
580.25	4.57
580.589	4.61
580.928	4.61
581.267	4.62
581.606	4.59
581.945	4.6
582.283	4.57
582.622	4.55
582.961	4.53
583.3	4.5
583.639	4.49
583.977	4.54
584.316	4.57
584.654	4.57
584.993	4.59
585.332	4.61
585.67	4.63
586.008	4.6
586.347	4.59
586.685	4.59
587.024	4.58
587.362	4.61
587.7	4.59
588.038	4.61
588.376	4.59
588.715	4.56
589.053	4.51
589.391	4.55
589.729	4.57
590.067	4.61
590.404	4.61
590.742	4.54
591.08	4.53
591.418	4.5
591.756	4.46
592.093	4.46
592.431	4.45
592.769	4.48
593.106	4.49
593.444	4.55
593.781	4.56
594.119	4.51
594.456	4.5
594.793	4.5
595.131	4.48
595.468	4.51
595.805	4.51
596.143	4.59
596.48	4.56
596.817	4.57
597.154	4.54
597.491	4.52
597.828	4.56
598.165	4.53
598.502	4.51
598.839	4.54
599.176	4.54
599.512	4.53
599.849	4.51
600.186	4.52
600.523	4.48
600.859	4.46
601.196	4.5
601.532	4.53
601.869	4.52
602.205	4.56
602.542	4.56
602.878	4.61
603.215	4.59
603.551	4.58
603.887	4.54
604.223	4.57
604.56	4.61
604.896	4.65
605.232	4.67
605.568	4.66
605.904	4.66
606.24	4.65
606.576	4.69
606.912	4.7
607.248	4.71
607.583	4.73
607.919	4.74
608.255	4.71
608.591	4.73
608.926	4.76
609.262	4.75
609.597	4.75
609.933	4.75
610.268	4.72
610.604	4.76
610.939	4.81
611.275	4.78
611.61	4.73
611.945	4.68
612.281	4.68
612.616	4.7
612.951	4.74
613.286	4.75
613.621	4.73
613.956	4.76
614.291	4.75
614.626	4.67
614.961	4.7
615.296	4.73
615.631	4.7
615.966	4.66
616.3	4.68
616.635	4.64
616.97	4.63
617.304	4.67
617.639	4.66
617.973	4.59
618.308	4.61
618.642	4.69
618.977	4.71
619.311	4.68
619.646	4.72
619.98	4.69
620.314	4.71
620.648	4.76
620.983	4.7
621.317	4.74
621.651	4.79
621.985	4.74
622.319	4.75
622.653	4.75
622.987	4.78
623.321	4.8
623.655	4.79
623.988	4.8
624.322	4.8
624.656	4.8
624.99	4.84
625.323	4.84
625.657	4.78
625.99	4.79
626.324	4.79
626.657	4.72
626.991	4.7
627.324	4.72
627.658	4.67
627.991	4.73
628.324	4.68
628.657	4.66
628.991	4.68
629.324	4.66
629.657	4.65
629.99	4.61
630.323	4.6
630.656	4.63
630.989	4.66
631.322	4.63
631.655	4.64
631.987	4.64
632.32	4.7
632.653	4.67
632.986	4.69
633.318	4.7
633.651	4.79
633.984	4.84
634.316	4.83
634.649	4.85
634.981	4.8
635.313	4.85
635.646	4.88
635.978	4.93
636.31	5.01
636.643	5.02
636.975	4.99
637.307	5
637.639	4.96
637.971	4.88
638.303	4.92
638.635	4.89
638.967	4.9
639.299	4.85
639.631	4.86
639.963	4.82
640.295	4.82
640.626	4.74
640.958	4.75
641.29	4.72
641.621	4.7
641.953	4.7
642.285	4.66
642.616	4.67
642.948	4.6
643.279	4.51
643.61	4.54
643.942	4.64
644.273	4.64
644.604	4.68
644.936	4.77
645.267	4.75
645.598	4.78
645.929	4.73
646.26	4.77
646.591	4.83
646.922	4.9
647.253	4.85
647.584	4.91
647.915	4.84
648.245	4.85
648.576	4.85
648.907	4.87
649.238	4.88
649.568	4.86
649.899	4.89
650.229	4.88
650.56	4.85
650.89	4.82
651.221	4.75
651.551	4.72
651.882	4.66
652.212	4.68
652.542	4.73
652.872	4.81
653.203	4.74
653.533	4.72
653.863	4.72
654.193	4.75
654.523	4.71
654.853	4.78
655.183	4.81
655.513	4.86
655.843	4.78
656.172	4.85
656.502	4.81
656.832	4.78
657.162	4.83
657.491	4.79
657.821	4.76
658.15	4.85
658.48	4.82
658.809	4.86
659.139	4.85
659.468	4.78
659.798	4.79
660.127	4.82
660.456	4.77
660.785	4.75
661.115	4.83
661.444	4.86
661.773	4.85
662.102	4.83
662.431	4.81
662.76	4.89
663.089	4.89
663.418	4.97
663.747	4.98
664.076	4.92
664.404	4.98
664.733	5.04
665.062	4.99
665.39	5.07
665.719	5.06
666.048	5.06
666.376	5.08
666.705	4.99
667.033	4.95
667.362	4.99
667.69	5.06
668.018	5.05
668.347	5.02
668.675	5
669.003	5
669.331	5.1
669.659	5.11
669.987	5.05
670.315	4.92
670.643	4.98
670.971	5.03
671.299	5
671.627	4.95
671.955	4.95
672.283	4.93
672.61	4.89
672.938	4.93
673.266	4.84
673.593	4.88
673.921	4.91
674.249	4.99
674.576	4.93
674.904	4.91
675.231	4.92
675.558	4.91
675.886	4.97
676.213	4.9
676.54	4.96
676.867	4.95
677.195	5.06
677.522	5.08
677.849	5.02
678.176	5.08
678.503	5.13
678.83	5.15
679.157	5.28
679.484	5.32
679.81	5.35
680.137	5.43
680.464	5.48
680.791	5.47
681.117	5.44
681.444	5.46
681.771	5.47
682.097	5.53
682.424	5.59
682.75	5.56
683.077	5.55
683.403	5.45
683.729	5.5
684.056	5.49
684.382	5.47
684.708	5.57
685.034	5.54
685.36	5.46
685.686	5.48
686.012	5.29
686.339	5.31
686.664	5.29
686.99	5.27
687.316	5.26
687.642	5.27
687.968	5.37
688.294	5.41
688.619	5.37
688.945	5.24
689.271	5.13
689.596	5.23
689.922	5.16
690.247	5.21
690.573	5.2
690.898	5.29
691.224	5.28
691.549	5.32
691.874	5.4
692.2	5.44
692.525	5.37
692.85	5.48
693.175	5.42
693.5	5.35
693.825	5.35
694.15	5.31
694.475	5.27
694.8	5.09
695.125	4.96
695.45	4.96
695.775	5.11
696.099	5.17
696.424	5.11
696.749	5.11
697.073	5.11
697.398	5.06
697.723	4.98
698.047	5.06
698.372	5.11
698.696	4.96
699.02	5.1
699.345	5.21
699.669	5.12
699.993	5.23
700.318	5.28
700.642	5.26
700.966	5.31
701.29	5.42
701.614	5.56
701.938	5.63
702.262	5.57
702.586	5.59
702.91	5.59
703.234	5.54
703.557	5.53
703.881	5.62
704.205	5.66
704.529	5.73
704.852	5.57
705.176	5.46
705.499	5.51
705.823	5.31
706.146	5.24
706.47	5.42
706.793	5.28
707.117	5.25
707.44	5.24
707.763	5.29
708.086	5.25
708.409	5.04
708.733	4.98
709.056	5.06
709.379	5.08
709.702	5.09
710.025	5.13
710.348	5.29
710.671	5.24
710.993	5.3
711.316	5.25
711.639	5.25
711.962	5.34
712.284	5.4
712.607	5.44
712.93	5.41
713.252	5.38
713.575	5.42
713.897	5.32
714.22	5.29
714.542	5.32
714.864	5.04
715.187	5.17
715.509	5.33
715.831	5.38
716.153	5.35
716.475	5.26
716.798	5.2
717.12	5.2
717.442	5.05
717.764	4.93
718.085	4.98
718.407	5.04
718.729	4.93
719.051	4.99
719.373	4.96
719.695	5.02
720.016	4.88
720.338	4.92
720.659	5.07
720.981	5.09
721.302	5.15
721.624	5.36
721.945	5.31
722.267	5.2
722.588	5.06
722.909	5.03
723.231	5.13
723.552	5.19
723.873	5.16
724.194	5.21
724.515	5.22
724.836	5.26
725.157	5.23
725.478	5.19
725.799	5.19
726.12	5.2
726.441	5.09
726.762	5.19
727.083	5.13
727.403	5
727.724	4.94
728.045	4.93
728.365	5.07
728.686	5.21
729.006	5.12
729.327	5.37
729.647	5.51
729.967	5.58
730.288	5.52
730.608	5.34
730.928	5.56
731.249	5.54
731.569	5.41
731.889	5.46
732.209	5.49
732.529	5.44
732.849	5.48
733.169	5.53
733.489	5.49
733.809	5.73
734.129	5.83
734.448	6.16
734.768	6
735.088	5.93
735.408	5.95
735.727	6.08
736.047	6.05
736.366	6.04
736.686	5.94
737.005	6.11
737.325	6.4
737.644	6.21
737.963	6.23
738.283	6.46
738.602	6.73
738.921	6.88
739.24	6.8
739.56	6.91
739.879	7.02
740.198	7.03
740.517	6.83
740.836	6.94
741.155	6.74
741.473	6.73
741.792	6.67
742.111	6.38
742.43	6.44
742.748	6.22
743.067	6.12
743.386	6.15
743.704	6.02
744.023	6.08
744.341	6.43
744.66	6.44
744.978	6.06
745.297	5.63
745.615	5.47
745.933	5.52
746.252	5.6
746.57	5.56
746.888	5.55
747.206	5.53
747.524	5.5
747.842	5.58
748.16	5.79
748.478	6.19
748.796	6.64
749.114	6.62
749.432	6.83
749.749	6.67
750.067	6.87
750.385	6.87
750.703	6.83
751.02	6.43
751.338	6.22
751.655	6.52
751.973	6.66
752.29	6.68
752.608	6.82
752.925	6.63
753.242	6.64
753.56	6.58
753.877	6.69
754.194	6.88
754.511	6.88
754.828	6.64
755.145	6.67
755.462	6.64
755.779	6.75
756.096	6.89
756.413	7.13
756.73	6.9
757.047	6.89
757.364	6.67
757.68	6.57
757.997	6.96
758.314	7.19
758.63	7.27
758.947	7.44
759.264	7.49
759.58	7.38
759.896	7.55
760.213	8.01
760.529	8.07
760.846	7.91
761.162	7.84
761.478	7.93
761.794	7.92
762.11	7.84
762.426	7.68
762.743	7.55
763.059	7.42
763.375	7.37
763.69	7.5
764.006	7.58
764.322	7.71
764.638	7.95
764.954	7.85
765.27	7.76
765.585	7.75
765.901	7.84
766.216	7.99
766.532	7.84
766.848	7.68
767.163	7.39
767.478	7.48
767.794	7.42
768.109	7.37
768.424	7.11
768.74	7.13
769.055	7.31
769.37	7.21
769.685	7.42
770	7.48
770.315	7.23
770.63	7.52
770.945	7.96
771.26	7.72
771.575	7.13
771.89	7.04
772.205	6.62
772.52	6.47
772.834	6.3
773.149	5.96
773.464	5.99
773.778	6.04
774.093	6.18
774.407	6.69
774.722	6.72
775.036	6.81
775.351	6.71
775.665	6.5
775.979	6.5
776.293	6.81
776.608	6.94
776.922	6.87
777.236	6.37
777.55	5.83
777.864	5.76
778.178	6.37
778.492	6.91
778.806	7.04
779.12	6.9
779.434	7.27
779.747	7.63
780.061	7.29
780.375	7.47
780.689	7.14
781.002	6.94
781.316	6.96
781.629	6.6
781.943	6.68
782.256	6.72
782.57	6.9
782.883	6.24
783.196	5.9
783.51	6.11
783.823	6.05
784.136	6.06
784.449	5.49
784.762	5.25
785.075	4.7
785.388	5.11
785.701	5.22
786.014	5.04
786.327	5.25
786.64	5.5
786.953	5.94
787.266	5.88
787.578	5.67
787.891	5.38
788.204	5.65
788.516	5.91
788.829	6.14
789.141	6.07
789.454	6.48
789.766	6.62
790.079	6.34
790.391	6.53
790.703	6.72
791.016	7.4
791.328	8.07
791.64	8.2
791.952	8.21
792.264	7.85
792.576	7.67
792.888	7.66
793.2	7.61
793.512	7.29
793.824	7.64
794.136	7.69
794.448	7.99
794.76	7.62
795.071	6.94
795.383	7.17
795.695	6.58
796.006	5.9
796.318	5.96
796.629	6.31
796.941	6.65
797.252	6.54
797.564	6.32
797.875	5.82
798.186	5.78
798.497	5.41
798.809	5.66
799.12	5.37
799.431	5.13
799.742	5.33
800.053	5.17
800.364	5.62
800.675	5.83
800.986	5.72
801.297	6.37
801.608	6.37
801.918	6.09
802.229	7.05
802.54	7.78
802.851	8.23
803.161	8.39
803.472	8.2
803.782	8.46
804.093	8.26
804.403	8.56
804.714	8.67
805.024	8.59
805.334	8.79
805.645	9.02
805.955	9.34
806.265	9.2
806.575	9.36
806.885	8.91
807.195	8.6
807.505	8.81
807.815	8.75
808.125	8.24
808.435	8.49
808.745	7.41
809.055	7.29
809.365	6.87
809.674	6.44
809.984	5.99
810.294	5.58
810.603	5.68
810.913	5.32
811.222	5.45
811.532	5.9
811.841	6.19
812.151	6.43
812.46	5.78
812.769	5.18
813.079	4.86
813.388	4.27
813.697	3.89
814.006	3.88
814.315	3.83
814.624	4.63
814.933	4.16
815.242	4.79
815.551	5.05
815.86	5.44
816.169	5.43
816.478	5.43
816.786	5.03
817.095	5.09
817.404	5.03
817.712	4.87
818.021	4.67
818.33	4.31
818.638	4.44
818.947	4.97
819.255	5.45
819.563	5.72
819.872	6
820.18	6.56
820.488	6.73
820.796	6.72
821.105	7.03
821.413	7.1
821.721	7.2
822.029	7.08
822.337	7.05
822.645	7.4
822.953	7.72
823.26	7.84
823.568	7.9
823.876	7.95
824.184	7.98
824.491	7.97
824.799	8.15
825.107	8.26
825.414	8.22
825.722	8.42
826.029	8.49
826.337	8.54
826.644	8.64
826.951	8.76
827.259	8.9
827.566	8.79
827.873	8.84
828.18	8.95
828.488	9.02
828.795	9.15
829.102	8.8
829.409	8.46
829.716	8.77
830.023	8.98
830.329	8.89
830.636	9.09
830.943	9.02
831.25	9.04
831.557	9.14
831.863	9.25
832.17	8.91
832.476	8.76
832.783	8.75
833.089	8.4
833.396	8.34
833.702	8.47
834.009	8.85
834.315	8.86
834.621	8.57
834.928	8.31
835.234	8.3
835.54	8.42
835.846	8.58
836.152	8.39
836.458	7.74
836.764	8.14
837.07	8.02
837.376	8.45
837.682	8
837.988	7.73
838.293	7.96
838.599	7.84
838.905	7.87
839.211	8.14
839.516	8.02
839.822	8.18
840.127	7.91
840.433	7.49
840.738	7.55
841.044	8.02
841.349	8.75
841.654	7.94
841.959	8
842.265	8.32
842.57	8.3
842.875	8.96
843.18	9.19
843.485	8.99
843.79	8.99
844.095	8.63
844.4	8.72
844.705	9.12
845.01	10.04
845.315	9.12
845.619	9.74
845.924	10.14
846.229	10.26
846.533	10.45
846.838	10.17
847.142	9.65
847.447	9.16
847.751	10.33
848.056	12.51
848.36	12.63
848.664	12.44
848.969	11.57
849.273	11.65
849.577	10.23
849.881	9.07
850.185	8.13
850.489	8.3
850.794	8.66
851.097	7.45
851.401	5.68
851.705	6.98
852.009	6.9
852.313	5.89
852.617	2.94
852.92	4.63
853.224	5.72
853.528	6.47
853.831	7.64
854.135	6.35
854.438	7.59
854.742	8.14
855.045	7.78
855.349	9.19
855.652	9.73
855.955	9.85
856.259	10.29
856.562	13.17
856.865	13.91
857.168	13.95
857.471	15.52
857.774	16.61
858.077	15.56
858.38	12.2
858.683	14.07
858.986	16.71
859.289	14.87
859.592	13.62
859.894	14.04
860.197	12.27
860.5	12.47
860.802	11.68
861.105	12.32
861.407	12.33
861.71	11.98
862.012	10.62
862.315	9.36
862.617	11.18
862.919	9.55
863.222	11.1
863.524	11.18
863.826	9.74
864.128	10.67
864.43	11.8
864.732	14.56
865.034	15.06
865.336	14.18
865.638	12.68
865.94	11.95
866.242	10.58
866.544	13.51
866.846	15.26
867.147	13.59
867.449	12.99
867.751	11.49
868.052	10.92
868.354	11.62
868.655	12.64
868.957	12.62
869.258	13.14
869.56	11.66
869.861	9.71
870.162	11.28
870.463	10.33
870.765	12.33
871.066	9.06
871.367	6.39
871.668	5.85
871.969	6.34
872.27	8.87
872.571	8.22
872.872	4.82
873.173	1.57
873.473	0.21
873.774	1
874.075	3.26
874.376	2.28
874.676	5.53
874.977	5.16
875.277	4.25
875.578	2.14
875.878	2.18
876.179	3.27
876.479	1.59
876.78	1
877.08	-1.21
877.38	1.53
877.68	3.43
877.981	3.72
878.281	4.22
878.581	1.54
