Data from MVZ_BU163026_Reflection_00003.txt Node
Date: Tue Nov 19 12:05:54 EST 2019
User: vgr7
Spectrometer: USB2G7710
Scans to average: 3
Trigger mode: 4
Integration Time (sec): 2.000000E-2
Electric dark correction enabled: true
Boxcar width: 10
XAxis mode: Wavelengths
Number of Pixels in Spectrum: 2048
>>>>>Begin Spectral Data<<<<<
177.721	141.04
178.105	491.89
178.488	362.8
178.871	173.13
179.254	10.77
179.636	-22.92
180.019	28.22
180.402	266.67
180.785	-536.36
181.168	135.71
181.55	95.07
181.933	-46.07
182.316	-35.31
182.698	-8.79
183.081	-55.58
183.463	-43.95
183.846	-45.39
184.228	-6.77
184.611	-20.04
184.993	-34.86
185.376	4.17
185.758	19.57
186.14	48.09
186.522	56.98
186.904	68.38
187.287	87.98
187.669	109.61
188.051	91.74
188.433	72.49
188.815	77.56
189.197	87.22
189.579	99.28
189.961	127.57
190.342	176.72
190.724	225.66
191.106	227.22
191.488	132.26
191.869	193.3
192.251	242.1
192.633	250.12
193.014	313.26
193.396	185.18
193.777	146.68
194.159	363.94
194.54	1177.92
194.922	-3952.63
195.303	812
195.684	612.69
196.065	612.32
196.447	-678.89
196.828	11190.91
197.209	1100
197.59	3148.78
197.971	2631.91
198.352	493
198.733	427.76
199.114	715.76
199.495	439.52
199.876	468.04
200.257	390.11
200.638	592.6
201.018	681.05
201.399	3281.82
201.78	3846.48
202.16	529.13
202.541	398.06
202.922	411.48
203.302	366.47
203.683	325.17
204.063	259.36
204.444	307.89
204.824	471.76
205.204	3307.55
205.585	4319.51
205.965	2494.37
206.345	-673.28
206.725	-376.72
207.106	-290.49
207.486	-213.51
207.866	-245.15
208.246	-79.25
208.626	-79.21
209.006	-95.18
209.386	-123.3
209.766	-126.97
210.145	-35.4
210.525	-100
210.905	9.09
211.285	2.16
211.664	9.97
212.044	6.47
212.424	7
212.803	-9.39
213.183	-20.7
213.562	3
213.942	9.47
214.321	30.49
214.701	40.2
215.08	61.18
215.459	79.86
215.838	53.99
216.218	50.14
216.597	60.63
216.976	43.6
217.355	-0.11
217.734	-46.68
218.113	-32.63
218.492	-25.58
218.871	-49.07
219.25	-59.45
219.629	-110.08
220.008	-71.45
220.387	-102.39
220.766	-68.67
221.144	-84.04
221.523	-121.11
221.902	-122.03
222.28	-158.15
222.659	-85.02
223.037	-105.52
223.416	-108.22
223.794	-95.7
224.173	-104.86
224.551	-84.48
224.929	-68.48
225.308	-51.42
225.686	-42.47
226.064	-49.2
226.442	-43.25
226.821	-36.61
227.199	-33.48
227.577	-29.04
227.955	-36.49
228.333	-36.96
228.711	-34.22
229.089	-29.21
229.467	-26.05
229.845	-28.71
230.222	-25.76
230.6	-26.88
230.978	-22.36
231.356	-23.54
231.733	-23.24
232.111	-18.08
232.488	-18.03
232.866	-14.8
233.243	-15.62
233.621	-12.51
233.998	-10.76
234.376	-10.46
234.753	-9.36
235.13	-9.9
235.508	-7.46
235.885	-6.07
236.262	-4.99
236.639	-5.69
237.016	-5.76
237.393	-3.79
237.77	-2.08
238.147	-1.99
238.524	-1.78
238.901	-2.36
239.278	-1.83
239.655	-1.69
240.032	-1.58
240.409	-0.56
240.785	-1.11
241.162	-0.67
241.539	-1.09
241.915	-1.31
242.292	-0.74
242.668	-0.42
243.045	0.28
243.421	0.42
243.798	0.82
244.174	0.94
244.551	1.3
244.927	1.39
245.303	1.62
245.679	1.87
246.056	1.83
246.432	1.86
246.808	2.32
247.184	2.43
247.56	2.36
247.936	2.55
248.312	2.4
248.688	2.66
249.064	2.85
249.44	3.17
249.815	3.73
250.191	3.8
250.567	3.76
250.943	3.77
251.318	3.98
251.694	3.73
252.069	3.89
252.445	3.85
252.82	4.13
253.196	3.83
253.571	3.83
253.947	3.94
254.322	4.09
254.697	3.96
255.073	3.58
255.448	3.82
255.823	3.57
256.198	3.32
256.573	3.21
256.948	3.31
257.323	2.94
257.698	2.7
258.073	2.79
258.448	3
258.823	2.84
259.198	2.8
259.573	2.86
259.948	2.75
260.322	2.8
260.697	2.75
261.072	2.66
261.446	2.43
261.821	2.51
262.195	2.32
262.57	2.35
262.944	2.54
263.319	2.58
263.693	2.68
264.067	2.76
264.442	2.9
264.816	2.51
265.19	2.53
265.564	2.47
265.938	2.24
266.313	1.8
266.687	2.04
267.061	1.81
267.435	2.16
267.809	2.17
268.183	2.08
268.556	2
268.93	2.35
269.304	2.52
269.678	2.46
270.051	2.77
270.425	2.69
270.799	2.56
271.172	2.38
271.546	2.29
271.919	2.08
272.293	2.09
272.666	2.26
273.04	2.38
273.413	2.36
273.787	2.36
274.16	2.39
274.533	2.4
274.906	2.66
275.279	2.54
275.653	2.64
276.026	2.65
276.399	2.78
276.772	2.74
277.145	2.81
277.518	2.81
277.891	2.64
278.263	2.78
278.636	2.96
279.009	3.06
279.382	3.05
279.755	3.19
280.127	3.09
280.5	2.92
280.872	3.02
281.245	3.08
281.617	3.31
281.99	3.39
282.362	3.21
282.735	3.08
283.107	3.12
283.479	2.98
283.852	2.95
284.224	2.94
284.596	2.88
284.968	2.74
285.34	2.74
285.713	2.9
286.085	2.83
286.457	2.78
286.829	2.68
287.201	2.69
287.572	2.92
287.944	3.01
288.316	3.27
288.688	3.25
289.06	3.33
289.431	3.19
289.803	3.21
290.175	3.18
290.546	3.2
290.918	3.12
291.289	3.03
291.661	3.11
292.032	3.09
292.403	3.09
292.775	3.26
293.146	3.36
293.517	3.32
293.889	3.29
294.26	3.36
294.631	3.47
295.002	3.54
295.373	3.41
295.744	3.3
296.115	3.31
296.486	3.27
296.857	3.19
297.228	3.22
297.599	3.16
297.97	3.25
298.34	3.18
298.711	3.28
299.082	3.49
299.452	3.46
299.823	3.4
300.194	3.43
300.564	3.25
300.935	3.23
301.305	3.09
301.676	2.97
302.046	3.02
302.416	2.98
302.787	2.88
303.157	2.82
303.527	2.78
303.897	2.61
304.267	2.55
304.637	2.62
305.008	2.57
305.378	2.61
305.748	2.53
306.117	2.66
306.487	2.56
306.857	2.57
307.227	2.55
307.597	2.56
307.967	2.55
308.336	2.8
308.706	2.76
309.076	2.97
309.445	3.23
309.815	3.03
310.184	3.06
310.554	2.99
310.923	2.99
311.293	2.93
311.662	3.08
312.031	3.03
312.401	2.89
312.77	2.99
313.139	3.04
313.508	3.06
313.877	3.17
314.246	3.1
314.616	3.19
314.985	3.25
315.353	3.4
315.722	3.4
316.091	3.32
316.46	3.35
316.829	3.24
317.198	3.26
317.567	3.5
317.935	3.52
318.304	3.74
318.672	3.82
319.041	3.98
319.41	3.88
319.778	4.04
320.147	4.16
320.515	4.24
320.883	4.21
321.252	4.2
321.62	3.95
321.988	4.13
322.357	3.95
322.725	3.99
323.093	3.92
323.461	4.06
323.829	4.07
324.197	4.11
324.565	4.24
324.933	4.16
325.301	3.91
325.669	3.91
326.037	3.92
326.405	4.09
326.772	4.26
327.14	4.25
327.508	4.19
327.875	4.05
328.243	3.93
328.61	4.01
328.978	3.99
329.346	4.02
329.713	4.08
330.08	4.1
330.448	4.02
330.815	4.07
331.182	3.99
331.55	3.8
331.917	3.61
332.284	3.61
332.651	3.49
333.018	3.57
333.385	3.64
333.752	3.61
334.119	3.55
334.486	3.33
334.853	3.32
335.22	3.36
335.587	3.38
335.954	3.4
336.32	3.32
336.687	3.55
337.054	3.64
337.42	3.58
337.787	3.63
338.153	3.67
338.52	3.71
338.886	3.62
339.253	3.74
339.619	3.94
339.986	3.72
340.352	3.8
340.718	3.8
341.084	3.67
341.451	3.58
341.817	3.55
342.183	3.65
342.549	3.73
342.915	3.73
343.281	3.89
343.647	3.85
344.013	3.84
344.379	3.75
344.745	3.7
345.11	3.65
345.476	3.63
345.842	3.55
346.208	3.47
346.573	3.52
346.939	3.39
347.304	3.44
347.67	3.57
348.035	3.5
348.401	3.44
348.766	3.42
349.132	3.5
349.497	3.49
349.862	3.4
350.228	3.4
350.593	3.4
350.958	3.37
351.323	3.38
351.688	3.41
352.053	3.48
352.418	3.49
352.783	3.44
353.148	3.39
353.513	3.43
353.878	3.43
354.243	3.46
354.608	3.59
354.972	3.48
355.337	3.4
355.702	3.28
356.066	3.3
356.431	3.35
356.795	3.38
357.16	3.4
357.524	3.47
357.889	3.46
358.253	3.48
358.618	3.48
358.982	3.52
359.346	3.59
359.71	3.48
360.075	3.51
360.439	3.55
360.803	3.62
361.167	3.61
361.531	3.6
361.895	3.59
362.259	3.55
362.623	3.56
362.987	3.68
363.351	3.8
363.714	3.81
364.078	3.82
364.442	3.8
364.806	3.76
365.169	3.74
365.533	3.79
365.896	3.8
366.26	3.8
366.623	3.81
366.987	3.76
367.35	3.88
367.714	3.89
368.077	4.01
368.44	4.03
368.803	3.99
369.167	3.99
369.53	3.98
369.893	4.04
370.256	4.01
370.619	3.93
370.982	3.94
371.345	3.98
371.708	3.94
372.071	3.87
372.434	3.85
372.797	3.86
373.159	3.79
373.522	3.74
373.885	3.68
374.247	3.68
374.61	3.68
374.973	3.62
375.335	3.66
375.698	3.6
376.06	3.54
376.423	3.56
376.785	3.6
377.147	3.6
377.51	3.59
377.872	3.66
378.234	3.69
378.596	3.71
378.958	3.72
379.321	3.76
379.683	3.82
380.045	3.9
380.407	3.85
380.769	3.82
381.13	3.85
381.492	3.84
381.854	3.85
382.216	3.86
382.578	3.85
382.939	3.77
383.301	3.76
383.663	3.77
384.024	3.84
384.386	3.83
384.747	3.84
385.109	3.83
385.47	3.86
385.832	3.88
386.193	3.87
386.554	3.88
386.916	3.91
387.277	3.9
387.638	3.84
387.999	3.91
388.36	3.94
388.721	3.97
389.082	3.99
389.443	3.99
389.804	4.01
390.165	4.02
390.526	4.04
390.887	4.06
391.248	4.06
391.609	4.05
391.969	4.06
392.33	4.05
392.691	4.02
393.051	4
393.412	3.96
393.772	3.99
394.133	3.98
394.493	3.92
394.854	3.91
395.214	3.96
395.574	3.89
395.935	3.89
396.295	3.87
396.655	3.89
397.015	3.89
397.376	3.87
397.736	3.87
398.096	3.89
398.456	3.89
398.816	3.91
399.176	3.87
399.535	3.84
399.895	3.83
400.255	3.86
400.615	3.8
400.975	3.81
401.334	3.8
401.694	3.79
402.054	3.83
402.413	3.9
402.773	3.87
403.132	3.93
403.492	3.96
403.851	3.99
404.211	4
404.57	3.99
404.929	3.99
405.288	4.01
405.648	3.99
406.007	3.98
406.366	3.97
406.725	3.97
407.084	4
407.443	4
407.802	4.03
408.161	4.11
408.52	4.12
408.879	4.14
409.238	4.18
409.596	4.19
409.955	4.18
410.314	4.22
410.673	4.23
411.031	4.22
411.39	4.22
411.748	4.22
412.107	4.21
412.465	4.2
412.824	4.22
413.182	4.24
413.54	4.25
413.899	4.27
414.257	4.3
414.615	4.3
414.974	4.36
415.332	4.36
415.69	4.36
416.048	4.36
416.406	4.36
416.764	4.34
417.122	4.36
417.48	4.34
417.838	4.32
418.195	4.29
418.553	4.28
418.911	4.29
419.269	4.3
419.626	4.3
419.984	4.29
420.342	4.28
420.699	4.28
421.057	4.3
421.414	4.29
421.772	4.29
422.129	4.29
422.486	4.28
422.844	4.28
423.201	4.27
423.558	4.27
423.915	4.29
424.273	4.29
424.63	4.25
424.987	4.26
425.344	4.25
425.701	4.26
426.058	4.28
426.415	4.28
426.772	4.27
427.128	4.26
427.485	4.27
427.842	4.27
428.199	4.28
428.555	4.26
428.912	4.27
429.269	4.28
429.625	4.29
429.982	4.27
430.338	4.28
430.695	4.24
431.051	4.24
431.407	4.24
431.764	4.22
432.12	4.26
432.476	4.27
432.832	4.28
433.189	4.27
433.545	4.26
433.901	4.22
434.257	4.23
434.613	4.23
434.969	4.23
435.325	4.23
435.681	4.21
436.036	4.2
436.392	4.2
436.748	4.21
437.104	4.22
437.459	4.25
437.815	4.25
438.171	4.31
438.526	4.3
438.882	4.29
439.237	4.29
439.593	4.28
439.948	4.28
440.304	4.27
440.659	4.28
441.014	4.28
441.369	4.31
441.725	4.31
442.08	4.33
442.435	4.34
442.79	4.35
443.145	4.36
443.5	4.37
443.855	4.36
444.21	4.36
444.565	4.35
444.92	4.33
445.275	4.34
445.629	4.31
445.984	4.31
446.339	4.31
446.693	4.3
447.048	4.31
447.403	4.33
447.757	4.32
448.112	4.33
448.466	4.34
448.82	4.34
449.175	4.34
449.529	4.35
449.883	4.34
450.238	4.32
450.592	4.3
450.946	4.29
451.3	4.29
451.654	4.27
452.008	4.28
452.362	4.27
452.716	4.24
453.07	4.24
453.424	4.25
453.778	4.26
454.132	4.29
454.486	4.3
454.839	4.28
455.193	4.31
455.547	4.32
455.9	4.31
456.254	4.3
456.607	4.3
456.961	4.28
457.314	4.29
457.668	4.29
458.021	4.32
458.375	4.32
458.728	4.33
459.081	4.32
459.434	4.32
459.787	4.3
460.141	4.32
460.494	4.32
460.847	4.32
461.2	4.31
461.553	4.29
461.906	4.3
462.259	4.3
462.611	4.28
462.964	4.26
463.317	4.26
463.67	4.27
464.022	4.28
464.375	4.29
464.728	4.32
465.08	4.31
465.433	4.31
465.785	4.33
466.138	4.33
466.49	4.34
466.843	4.37
467.195	4.42
467.547	4.4
467.899	4.42
468.252	4.43
468.604	4.44
468.956	4.46
469.308	4.44
469.66	4.44
470.012	4.45
470.364	4.46
470.716	4.45
471.068	4.45
471.42	4.45
471.772	4.45
472.123	4.44
472.475	4.46
472.827	4.43
473.178	4.44
473.53	4.43
473.882	4.43
474.233	4.4
474.585	4.41
474.936	4.41
475.288	4.38
475.639	4.4
475.99	4.39
476.342	4.39
476.693	4.4
477.044	4.4
477.395	4.4
477.746	4.39
478.097	4.41
478.448	4.39
478.8	4.39
479.15	4.4
479.501	4.41
479.852	4.42
480.203	4.44
480.554	4.44
480.905	4.48
481.255	4.49
481.606	4.51
481.957	4.51
482.307	4.53
482.658	4.55
483.009	4.53
483.359	4.56
483.709	4.56
484.06	4.56
484.41	4.56
484.761	4.56
485.111	4.57
485.461	4.58
485.811	4.59
486.162	4.59
486.512	4.6
486.862	4.61
487.212	4.61
487.562	4.59
487.912	4.6
488.262	4.58
488.612	4.58
488.961	4.59
489.311	4.59
489.661	4.58
490.011	4.58
490.36	4.59
490.71	4.57
491.06	4.56
491.409	4.56
491.759	4.57
492.108	4.56
492.458	4.56
492.807	4.56
493.157	4.56
493.506	4.56
493.855	4.56
494.204	4.54
494.554	4.54
494.903	4.57
495.252	4.56
495.601	4.57
495.95	4.58
496.299	4.58
496.648	4.57
496.997	4.57
497.346	4.58
497.695	4.58
498.043	4.59
498.392	4.59
498.741	4.58
499.09	4.59
499.438	4.63
499.787	4.63
500.135	4.63
500.484	4.62
500.832	4.65
501.181	4.67
501.529	4.69
501.878	4.7
502.226	4.71
502.574	4.76
502.923	4.75
503.271	4.72
503.619	4.73
503.967	4.72
504.315	4.73
504.663	4.71
505.011	4.7
505.359	4.7
505.707	4.7
506.055	4.73
506.403	4.74
506.751	4.75
507.098	4.79
507.446	4.82
507.794	4.83
508.141	4.82
508.489	4.82
508.837	4.82
509.184	4.83
509.531	4.82
509.879	4.79
510.226	4.8
510.574	4.84
510.921	4.84
511.268	4.87
511.616	4.88
511.963	4.89
512.31	4.92
512.657	4.94
513.004	4.94
513.351	4.94
513.698	4.93
514.045	4.93
514.392	4.92
514.739	4.93
515.086	4.94
515.432	4.96
515.779	4.94
516.126	4.96
516.473	4.96
516.819	4.99
517.166	5.01
517.512	5
517.859	5.05
518.205	5.02
518.552	5.04
518.898	5.03
519.245	5.05
519.591	5.06
519.937	5.06
520.283	5.09
520.629	5.09
520.976	5.11
521.322	5.13
521.668	5.12
522.014	5.12
522.36	5.12
522.706	5.13
523.052	5.15
523.398	5.14
523.743	5.15
524.089	5.16
524.435	5.15
524.781	5.17
525.126	5.14
525.472	5.18
525.817	5.18
526.163	5.19
526.509	5.18
526.854	5.19
527.199	5.2
527.545	5.2
527.89	5.2
528.235	5.19
528.581	5.19
528.926	5.2
529.271	5.2
529.616	5.2
529.961	5.19
530.306	5.21
530.651	5.22
530.996	5.22
531.341	5.21
531.686	5.23
532.031	5.24
532.376	5.25
532.721	5.24
533.065	5.24
533.41	5.25
533.755	5.27
534.099	5.26
534.444	5.25
534.788	5.24
535.133	5.24
535.477	5.25
535.822	5.25
536.166	5.26
536.51	5.25
536.855	5.26
537.199	5.26
537.543	5.25
537.887	5.26
538.231	5.28
538.576	5.28
538.92	5.3
539.264	5.31
539.608	5.29
539.951	5.29
540.295	5.29
540.639	5.29
540.983	5.29
541.327	5.3
541.671	5.33
542.014	5.33
542.358	5.33
542.701	5.34
543.045	5.34
543.389	5.34
543.732	5.35
544.075	5.36
544.419	5.37
544.762	5.36
545.105	5.35
545.449	5.33
545.792	5.33
546.135	5.3
546.478	5.26
546.821	5.27
547.165	5.27
547.508	5.29
547.851	5.25
548.194	5.24
548.536	5.25
548.879	5.2
549.222	5.21
549.565	5.22
549.908	5.2
550.25	5.2
550.593	5.19
550.936	5.2
551.278	5.18
551.621	5.18
551.963	5.2
552.306	5.2
552.648	5.2
552.991	5.22
553.333	5.25
553.675	5.3
554.017	5.29
554.36	5.29
554.702	5.26
555.044	5.31
555.386	5.32
555.728	5.29
556.07	5.3
556.412	5.3
556.754	5.29
557.096	5.29
557.438	5.29
557.78	5.27
558.121	5.27
558.463	5.3
558.805	5.31
559.147	5.31
559.488	5.28
559.83	5.31
560.171	5.3
560.513	5.3
560.854	5.27
561.196	5.29
561.537	5.34
561.878	5.37
562.22	5.36
562.561	5.37
562.902	5.4
563.243	5.4
563.584	5.4
563.925	5.42
564.266	5.44
564.607	5.46
564.948	5.44
565.289	5.47
565.63	5.44
565.971	5.42
566.312	5.42
566.653	5.44
566.993	5.45
567.334	5.5
567.675	5.5
568.015	5.52
568.356	5.49
568.696	5.48
569.037	5.44
569.377	5.46
569.718	5.44
570.058	5.42
570.398	5.41
570.739	5.41
571.079	5.44
571.419	5.45
571.759	5.45
572.099	5.47
572.439	5.47
572.779	5.5
573.119	5.53
573.459	5.5
573.799	5.5
574.139	5.49
574.479	5.42
574.819	5.43
575.158	5.43
575.498	5.42
575.838	5.43
576.177	5.44
576.517	5.47
576.856	5.5
577.196	5.53
577.535	5.57
577.875	5.55
578.214	5.55
578.553	5.53
578.893	5.53
579.232	5.53
579.571	5.49
579.91	5.48
580.25	5.47
580.589	5.5
580.928	5.51
581.267	5.48
581.606	5.55
581.945	5.52
582.283	5.54
582.622	5.54
582.961	5.51
583.3	5.51
583.639	5.46
583.977	5.44
584.316	5.41
584.654	5.4
584.993	5.46
585.332	5.44
585.67	5.48
586.008	5.53
586.347	5.54
586.685	5.51
587.024	5.51
587.362	5.5
587.7	5.53
588.038	5.54
588.376	5.56
588.715	5.56
589.053	5.62
589.391	5.63
589.729	5.65
590.067	5.62
590.404	5.64
590.742	5.68
591.08	5.7
591.418	5.73
591.756	5.75
592.093	5.75
592.431	5.76
592.769	5.74
593.106	5.69
593.444	5.69
593.781	5.71
594.119	5.71
594.456	5.75
594.793	5.72
595.131	5.71
595.468	5.74
595.805	5.73
596.143	5.66
596.48	5.64
596.817	5.63
597.154	5.66
597.491	5.66
597.828	5.67
598.165	5.65
598.502	5.63
598.839	5.65
599.176	5.67
599.512	5.68
599.849	5.7
600.186	5.71
600.523	5.72
600.859	5.76
601.196	5.79
601.532	5.78
601.869	5.74
602.205	5.74
602.542	5.76
602.878	5.78
603.215	5.83
603.551	5.81
603.887	5.81
604.223	5.82
604.56	5.82
604.896	5.81
605.232	5.8
605.568	5.81
605.904	5.78
606.24	5.76
606.576	5.75
606.912	5.73
607.248	5.78
607.583	5.81
607.919	5.8
608.255	5.74
608.591	5.71
608.926	5.74
609.262	5.72
609.597	5.68
609.933	5.67
610.268	5.67
610.604	5.7
610.939	5.69
611.275	5.73
611.61	5.73
611.945	5.69
612.281	5.77
612.616	5.79
612.951	5.85
613.286	5.83
613.621	5.81
613.956	5.85
614.291	5.8
614.626	5.74
614.961	5.78
615.296	5.89
615.631	5.87
615.966	5.89
616.3	5.97
616.635	6.06
616.97	6.05
617.304	6.03
617.639	6.01
617.973	6.07
618.308	6.05
618.642	6.09
618.977	6.13
619.311	6.11
619.646	6.15
619.98	6.08
620.314	6.09
620.648	6.14
620.983	6.14
621.317	6.16
621.651	6.19
621.985	6.2
622.319	6.16
622.653	6.24
622.987	6.25
623.321	6.2
623.655	6.14
623.988	6.13
624.322	6.14
624.656	6.16
624.99	6.11
625.323	6.06
625.657	6.05
625.99	6.07
626.324	5.99
626.657	5.92
626.991	5.95
627.324	5.94
627.658	5.92
627.991	5.93
628.324	5.9
628.657	5.92
628.991	5.86
629.324	5.86
629.657	5.83
629.99	5.84
630.323	5.82
630.656	5.82
630.989	5.77
631.322	5.82
631.655	5.84
631.987	5.87
632.32	5.93
632.653	5.95
632.986	5.92
633.318	5.99
633.651	6
633.984	5.98
634.316	5.95
634.649	5.95
634.981	5.95
635.313	5.98
635.646	5.95
635.978	6.02
636.31	6
636.643	5.98
636.975	5.97
637.307	6.02
637.639	6.02
637.971	6.1
638.303	6
638.635	6
638.967	6.01
639.299	6
639.631	5.97
639.963	5.95
640.295	5.94
640.626	6
640.958	5.99
641.29	6.03
641.621	6.07
641.953	5.97
642.285	5.98
642.616	6
642.948	5.96
643.279	5.99
643.61	5.97
643.942	5.9
644.273	5.84
644.604	5.89
644.936	5.95
645.267	6
645.598	5.99
645.929	5.97
646.26	5.92
646.591	5.9
646.922	5.95
647.253	5.91
647.584	5.88
647.915	5.92
648.245	5.99
648.576	5.93
648.907	6.06
649.238	6.06
649.568	6.07
649.899	6.04
650.229	5.99
650.56	6.02
650.89	6.13
651.221	6.12
651.551	6.13
651.882	6.05
652.212	6.05
652.542	6.08
652.872	6.04
653.203	6.14
653.533	6.21
653.863	6.21
654.193	6.27
654.523	6.27
654.853	6.28
655.183	6.2
655.513	6.25
655.843	6.19
656.172	6.22
656.502	6.21
656.832	6.27
657.162	6.33
657.491	6.42
657.821	6.42
658.15	6.44
658.48	6.39
658.809	6.4
659.139	6.4
659.468	6.33
659.798	6.38
660.127	6.3
660.456	6.27
660.785	6.31
661.115	6.34
661.444	6.32
661.773	6.33
662.102	6.34
662.431	6.36
662.76	6.39
663.089	6.41
663.418	6.38
663.747	6.38
664.076	6.36
664.404	6.33
664.733	6.27
665.062	6.37
665.39	6.38
665.719	6.41
666.048	6.41
666.376	6.52
666.705	6.51
667.033	6.63
667.362	6.58
667.69	6.57
668.018	6.46
668.347	6.46
668.675	6.42
669.003	6.46
669.331	6.5
669.659	6.52
669.987	6.46
670.315	6.45
670.643	6.41
670.971	6.34
671.299	6.31
671.627	6.35
671.955	6.32
672.283	6.34
672.61	6.36
672.938	6.36
673.266	6.29
673.593	6.31
673.921	6.22
674.249	6.29
674.576	6.32
674.904	6.39
675.231	6.39
675.558	6.49
675.886	6.5
676.213	6.44
676.54	6.44
676.867	6.38
677.195	6.54
677.522	6.59
677.849	6.65
678.176	6.75
678.503	6.83
678.83	6.78
679.157	6.78
679.484	6.72
679.81	6.8
680.137	6.81
680.464	6.92
680.791	6.99
681.117	7.04
681.444	6.99
681.771	7.04
682.097	7.12
682.424	7.1
682.75	7.18
683.077	7.18
683.403	7.14
683.729	7.23
684.056	7.2
684.382	7.23
684.708	7.28
685.034	7.19
685.36	7.13
685.686	7.21
686.012	7.25
686.339	7.26
686.664	7.26
686.99	7.2
687.316	7.05
687.642	7.08
687.968	7.16
688.294	7.16
688.619	7.07
688.945	7.08
689.271	7.01
689.596	6.86
689.922	6.86
690.247	6.92
690.573	6.95
690.898	6.96
691.224	6.98
691.549	6.94
691.874	7.04
692.2	7.01
692.525	6.98
692.85	6.96
693.175	6.99
693.5	6.85
693.825	7.02
694.15	7.03
694.475	7
694.8	6.79
695.125	6.81
695.45	6.83
695.775	6.71
696.099	6.78
696.424	6.87
696.749	6.92
697.073	6.89
697.398	6.88
697.723	6.83
698.047	6.83
698.372	6.89
698.696	6.85
699.02	6.95
699.345	6.97
699.669	6.98
699.993	7.01
700.318	7.09
700.642	6.95
700.966	7.01
701.29	6.93
701.614	7.07
701.938	7.12
702.262	7.14
702.586	7.16
702.91	7.03
703.234	7.01
703.557	6.89
703.881	6.88
704.205	6.9
704.529	6.94
704.852	6.9
705.176	6.99
705.499	6.98
705.823	6.82
706.146	6.72
706.47	6.81
706.793	6.75
707.117	6.66
707.44	6.78
707.763	6.78
708.086	6.8
708.409	6.64
708.733	6.59
709.056	6.67
709.379	6.7
709.702	6.82
710.025	6.7
710.348	6.75
710.671	6.89
710.993	6.94
711.316	6.91
711.639	6.83
711.962	6.8
712.284	6.75
712.607	6.74
712.93	6.88
713.252	6.83
713.575	6.89
713.897	6.98
714.22	6.99
714.542	6.86
714.864	6.91
715.187	6.87
715.509	6.9
715.831	6.94
716.153	7
716.475	7.12
716.798	7.19
717.12	7.33
717.442	7.14
717.764	7.07
718.085	7.24
718.407	7.29
718.729	7.1
719.051	7.13
719.373	7.23
719.695	7.14
720.016	7.15
720.338	7.09
720.659	7.06
720.981	7.11
721.302	7.25
721.624	7.16
721.945	7.4
722.267	7.48
722.588	7.37
722.909	7.45
723.231	7.13
723.552	7.08
723.873	6.96
724.194	7.16
724.515	7.21
724.836	6.85
725.157	6.9
725.478	7.05
725.799	7.08
726.12	7.04
726.441	7.21
726.762	7.16
727.083	7.3
727.403	7.4
727.724	7.32
728.045	7.52
728.365	7.83
728.686	7.8
729.006	7.64
729.327	7.62
729.647	7.48
729.967	7.66
730.288	7.9
730.608	7.9
730.928	7.77
731.249	7.71
731.569	8.04
731.889	8.09
732.209	8.07
732.529	8.1
732.849	8.07
733.169	7.91
733.489	7.84
733.809	7.96
734.129	7.86
734.448	7.86
734.768	7.66
735.088	7.4
735.408	7.32
735.727	7.55
736.047	7.71
736.366	7.7
736.686	7.67
737.005	7.49
737.325	7.48
737.644	7.53
737.963	7.46
738.283	7.17
738.602	7.36
738.921	7.16
739.24	7.34
739.56	7.46
739.879	7.39
740.198	7.55
740.517	7.33
740.836	7.39
741.155	7.4
741.473	7.56
741.792	7.51
742.111	7.77
742.43	7.73
742.748	7.57
743.067	7.65
743.386	7.69
743.704	7.71
744.023	7.9
744.341	7.88
744.66	8.01
744.978	8.17
745.297	7.84
745.615	7.9
745.933	7.9
746.252	7.99
746.57	8.26
746.888	8.34
747.206	8.49
747.524	8.31
747.842	8.27
748.16	8.21
748.478	8.43
748.796	8.34
749.114	8.42
749.432	8.64
749.749	8.51
750.067	8.5
750.385	8.55
750.703	8.29
751.02	8.44
751.338	8.51
751.655	8.52
751.973	8.6
752.29	8.5
752.608	8.47
752.925	8.26
753.242	8.22
753.56	7.95
753.877	7.79
754.194	7.84
754.511	7.88
754.828	7.67
755.145	7.81
755.462	7.84
755.779	7.67
756.096	7.63
756.413	7.98
756.73	8.29
757.047	8.2
757.364	8.48
757.68	8.45
757.997	8.21
758.314	8.3
758.63	8.16
758.947	8.5
759.264	8.43
759.58	8.73
759.896	8.83
760.213	8.92
760.529	9.05
760.846	9.13
761.162	9.21
761.478	9.22
761.794	9.22
762.11	9.24
762.426	9.28
762.743	9.3
763.059	9.21
763.375	9.02
763.69	9.19
764.006	9.25
764.322	9.31
764.638	9.71
764.954	9.81
765.27	10.05
765.585	10.07
765.901	10.1
766.216	9.87
766.532	9.84
766.848	9.8
767.163	9.73
767.478	9.91
767.794	9.82
768.109	10.01
768.424	10.04
768.74	9.91
769.055	10.06
769.37	9.98
769.685	10.15
770	10.18
770.315	10.12
770.63	9.82
770.945	9.77
771.26	9.59
771.575	9.37
771.89	9.29
772.205	9.23
772.52	8.7
772.834	8.77
773.149	8.8
773.464	8.99
773.778	8.86
774.093	8.58
774.407	8.99
774.722	9.03
775.036	8.79
775.351	9.06
775.665	8.93
775.979	8.9
776.293	8.75
776.608	8.87
776.922	9.14
777.236	9.27
777.55	8.9
777.864	8.7
778.178	8.55
778.492	8.48
778.806	8.5
779.12	8.86
779.434	9.2
779.747	9.14
780.061	9.42
780.375	9.6
780.689	10
781.002	9.6
781.316	9.51
781.629	9.3
781.943	8.98
782.256	8.33
782.57	8.35
782.883	8.39
783.196	8.31
783.51	8.03
783.823	8.37
784.136	8.82
784.449	9.07
784.762	9.38
785.075	9.67
785.388	9.94
785.701	10.01
786.014	9.54
786.327	9.69
786.64	9.51
786.953	9.8
787.266	9.45
787.578	9.92
787.891	9.51
788.204	9.75
788.516	9.93
788.829	10.48
789.141	10.79
789.454	10.85
789.766	10.81
790.079	11.01
790.391	10.88
790.703	11.41
791.016	11.38
791.328	11.74
791.64	11.51
791.952	11.93
792.264	11.51
792.576	11.47
792.888	11.48
793.2	11.54
793.512	11.12
793.824	11.24
794.136	10.79
794.448	11.2
794.76	11.17
795.071	10.6
795.383	10.43
795.695	9.79
796.006	9.51
796.318	9.6
796.629	9.62
796.941	9.58
797.252	8.61
797.564	8.73
797.875	7.97
798.186	8
798.497	7.34
798.809	8.05
799.12	8.38
799.431	8.41
799.742	8.72
800.053	8.42
800.364	8.62
800.675	8.82
800.986	8.69
801.297	9.13
801.608	9.34
801.918	9.85
802.229	10.35
802.54	10.52
802.851	10.44
803.161	9.95
803.472	10.08
803.782	10.84
804.093	10.24
804.403	11.04
804.714	11.12
805.024	10.94
805.334	10.9
805.645	10.45
805.955	10.14
806.265	10.04
806.575	10.55
806.885	10.17
807.195	10.26
807.505	10.05
807.815	9.92
808.125	9.64
808.435	9.3
808.745	8.96
809.055	9.27
809.365	9
809.674	8.74
809.984	8.98
810.294	8.57
810.603	8.27
810.913	7.37
811.222	7.05
811.532	7.44
811.841	7.77
812.151	8.69
812.46	8.56
812.769	7.89
813.079	7.9
813.388	8.38
813.697	8.25
814.006	8.94
814.315	8.59
814.624	10.35
814.933	10.28
815.242	10.06
815.551	9.74
815.86	10.14
816.169	10.83
816.478	10.02
816.786	9.79
817.095	10.77
817.404	11.13
817.712	11.37
818.021	11.06
818.33	10.88
818.638	10.45
818.947	10.46
819.255	10.78
819.563	11.18
819.872	11.06
820.18	11.3
820.488	11.45
820.796	11.48
821.105	11.23
821.413	11.59
821.721	11.84
822.029	11.71
822.337	11.92
822.645	11.72
822.953	11.9
823.26	12.07
823.568	11.97
823.876	11.88
824.184	11.92
824.491	12.07
824.799	12.05
825.107	12.23
825.414	12.36
825.722	12.21
826.029	12.19
826.337	12.28
826.644	12.41
826.951	12.22
827.259	12.28
827.566	12.26
827.873	12.13
828.18	12
828.488	12.39
828.795	12.28
829.102	12.42
829.409	12.24
829.716	12.2
830.023	12.4
830.329	12.67
830.636	12.58
830.943	12.45
831.25	12.34
831.557	12.08
831.863	11.76
832.17	12.48
832.476	12.31
832.783	12.16
833.089	11.78
833.396	11.8
833.702	11.89
834.009	12.22
834.315	12.31
834.621	12.32
834.928	11.67
835.234	11.94
835.54	12.18
835.846	12.49
836.152	11.86
836.458	11.31
836.764	11.06
837.07	11.1
837.376	11.41
837.682	11.74
837.988	12.11
838.293	12.74
838.599	12.1
838.905	12.67
839.211	12.29
839.516	12.57
839.822	13.47
840.127	13
840.433	12.8
840.738	12.75
841.044	12.7
841.349	13.25
841.654	12.34
841.959	12.17
842.265	11.9
842.57	12.86
842.875	13.85
843.18	14.06
843.485	14.85
843.79	13.55
844.095	13.12
844.4	12.3
844.705	11.76
845.01	13.05
845.315	11.33
845.619	13.13
845.924	13.14
846.229	11.64
846.533	11.88
846.838	9.16
847.142	6.92
847.447	8.16
847.751	7.08
848.056	5.79
848.36	5.99
848.664	5.58
848.969	6.19
849.273	5.13
849.577	6.04
849.881	4.72
850.185	4.98
850.489	7.66
850.794	7.29
851.097	7.94
851.401	4.73
851.705	6.34
852.009	7.03
852.313	6.37
852.617	7.21
852.92	9.22
853.224	14.65
853.528	16.85
853.831	15.14
854.135	17.03
854.438	18.18
854.742	17.07
855.045	16.67
855.349	14.06
855.652	15.65
855.955	15.19
856.259	15.98
856.562	15.86
856.865	12.16
857.168	12.84
857.471	12.34
857.774	12.56
858.077	11.26
858.38	10.98
858.683	12.24
858.986	12.37
859.289	11.39
859.592	9.42
859.894	9.75
860.197	11.09
860.5	10.69
860.802	9.82
861.105	11.44
861.407	13.68
861.71	17.62
862.012	16.12
862.315	16.93
862.617	17.53
862.919	17.3
863.222	19.31
863.524	17.59
863.826	17.31
864.128	19.84
864.43	22.99
864.732	22.11
865.034	20.09
865.336	19.92
865.638	18.5
865.94	16.81
866.242	15.11
866.544	15.4
866.846	15.19
867.147	18.07
867.449	19.03
867.751	15.48
868.052	11.41
868.354	11.38
868.655	13.25
868.957	11.97
869.258	13.69
869.56	11.16
869.861	12.71
870.162	12.34
870.463	11.99
870.765	9.12
871.066	8.09
871.367	8.6
871.668	6.9
871.969	5.59
872.27	9.01
872.571	9.25
872.872	7.49
873.173	9.38
873.473	5.81
873.774	3.5
874.075	6.58
874.376	6.14
874.676	10.68
874.977	7.46
875.277	8.49
875.578	7.95
875.878	9.4
876.179	9.92
876.479	9.13
876.78	7.04
877.08	7.75
877.38	7.59
877.68	7.86
877.981	11.27
878.281	14.99
878.581	10.6
