Data from MVZ_BU57658_Reflection_00005.txt Node
Date: Tue Nov 19 12:13:24 EST 2019
User: vgr7
Spectrometer: USB2G7710
Scans to average: 3
Trigger mode: 4
Integration Time (sec): 2.000000E-2
Electric dark correction enabled: true
Boxcar width: 10
XAxis mode: Wavelengths
Number of Pixels in Spectrum: 2048
>>>>>Begin Spectral Data<<<<<
177.721	303.39
178.105	100
178.488	-39.07
178.871	-50
179.254	-260
179.636	276.47
180.019	-22.45
180.402	125
180.785	12.2
181.168	88.72
181.55	21.16
181.933	61.75
182.316	40.96
182.698	3.98
183.081	24.34
183.463	32.14
183.846	22.43
184.228	37.64
184.611	28.35
184.993	73.33
185.376	65.25
185.758	29.46
186.14	2.33
186.522	43.09
186.904	180
187.287	110.31
187.669	36
188.051	70.06
188.433	775.68
188.815	-302.3
189.197	-284.62
189.579	-122.59
189.961	-126.05
190.342	-49.07
190.724	-64.13
191.106	-63.27
191.488	-56.61
191.869	-54.53
192.251	-41.52
192.633	-40.44
193.014	-30.8
193.396	-33.58
193.777	-26.04
194.159	-42.11
194.54	-51.21
194.922	-63.41
195.303	-91.21
195.684	-92.4
196.065	-108.23
196.447	-65.17
196.828	-83.75
197.209	-84.47
197.59	-63.5
197.971	-109.94
198.352	2655.56
198.733	-431.91
199.114	212.68
199.495	-627.27
199.876	-426.32
200.257	-12900
200.638	671.43
201.018	532.43
201.399	268.54
201.78	398.7
202.16	1420
202.541	1805.88
202.922	-2823.08
203.302	-131.16
203.683	-60
204.063	-45.26
204.444	-50.84
204.824	-53.27
205.204	-25.22
205.585	-24.15
205.965	-42.21
206.345	-48.36
206.725	-38.36
207.106	-37.87
207.486	-56.52
207.866	-51.9
208.246	-41.15
208.626	-87.35
209.006	-110.37
209.386	-128.43
209.766	-218.52
210.145	-205.79
210.525	-313.33
210.905	-98.58
211.285	-67.7
211.664	-123.53
212.044	-19.4
212.424	-1185.71
212.803	-178.69
213.183	100
213.562	-18.52
213.942	-0.72
214.321	-17.12
214.701	-60.8
215.08	-25.41
215.459	-8.3
215.838	-39.3
216.218	-61.83
216.597	-4.44
216.976	4.43
217.355	-10.9
217.734	-26.2
218.113	-9.89
218.492	-21.12
218.871	-29.32
219.25	-27.47
219.629	-44.46
220.008	-43.76
220.387	-58.68
220.766	-46.69
221.144	-40.52
221.523	-57.74
221.902	-25.5
222.28	-1.73
222.659	15.21
223.037	26.96
223.416	24.22
223.794	23.32
224.173	21.02
224.551	20.25
224.929	16.08
225.308	20.21
225.686	29.27
226.064	22.01
226.442	15.51
226.821	10.79
227.199	6.95
227.577	9.28
227.955	8.67
228.333	2.33
228.711	0.97
229.089	3.12
229.467	3.3
229.845	-1.76
230.222	-1.2
230.6	-3.5
230.978	-5.66
231.356	-4.99
231.733	-4.29
232.111	-2.63
232.488	-2.61
232.866	-3.88
233.243	-5.42
233.621	-4.61
233.998	-3.12
234.376	0.23
234.753	1.35
235.13	1.11
235.508	0.9
235.885	0.02
236.262	1.96
236.639	0.81
237.016	1
237.393	2.25
237.77	3.17
238.147	1.56
238.524	1.21
238.901	1.34
239.278	0.48
239.655	-0.12
240.032	0.13
240.409	0.87
240.785	1.56
241.162	1.5
241.539	0.81
241.915	0.59
242.292	0.87
242.668	0.71
243.045	1.1
243.421	1.96
243.798	1.97
244.174	2.28
244.551	2.9
244.927	2.75
245.303	2.75
245.679	2.64
246.056	2.61
246.432	2.74
246.808	2.7
247.184	3.02
247.56	3.31
247.936	3.54
248.312	3.3
248.688	3.3
249.064	3.21
249.44	3.23
249.815	3.45
250.191	3.27
250.567	3.38
250.943	3.42
251.318	3.08
251.694	3.02
252.069	2.96
252.445	2.87
252.82	2.97
253.196	3.06
253.571	3.17
253.947	3.43
254.322	3.35
254.697	3.28
255.073	3.18
255.448	3.21
255.823	2.77
256.198	2.48
256.573	2.42
256.948	2.78
257.323	2.95
257.698	2.95
258.073	3.13
258.448	3.36
258.823	3.14
259.198	3.08
259.573	3.09
259.948	3.13
260.322	2.92
260.697	3.01
261.072	2.96
261.446	2.92
261.821	2.8
262.195	2.88
262.57	3.04
262.944	2.91
263.319	2.86
263.693	2.91
264.067	3.18
264.442	3.12
264.816	3.06
265.19	2.83
265.564	2.87
265.938	2.81
266.313	2.6
266.687	2.75
267.061	2.9
267.435	3.09
267.809	2.95
268.183	3.02
268.556	2.92
268.93	2.95
269.304	2.98
269.678	3.1
270.051	3.28
270.425	3.31
270.799	3.3
271.172	3.35
271.546	3.62
271.919	3.5
272.293	3.6
272.666	3.43
273.04	3.6
273.413	3.63
273.787	3.51
274.16	3.31
274.533	3.22
274.906	3.25
275.279	3.06
275.653	3.34
276.026	3.26
276.399	3.24
276.772	3.26
277.145	3.26
277.518	3.08
277.891	2.92
278.263	3.02
278.636	3.11
279.009	2.94
279.382	2.69
279.755	2.82
280.127	2.93
280.5	3.16
280.872	3.19
281.245	3.09
281.617	3.04
281.99	3.35
282.362	3.43
282.735	3.31
283.107	3.38
283.479	3.17
283.852	3.25
284.224	3.32
284.596	3.27
284.968	3.27
285.34	3.34
285.713	3.54
286.085	3.34
286.457	3.36
286.829	3.48
287.201	3.48
287.572	3.45
287.944	3.5
288.316	3.36
288.688	3.32
289.06	3.39
289.431	3.66
289.803	3.66
290.175	3.64
290.546	3.69
290.918	3.84
291.289	3.78
291.661	3.85
292.032	3.89
292.403	3.83
292.775	3.97
293.146	3.91
293.517	3.64
293.889	3.62
294.26	3.52
294.631	3.41
295.002	3.37
295.373	3.33
295.744	3.28
296.115	3.38
296.486	3.43
296.857	3.31
297.228	3.14
297.599	2.95
297.97	3.08
298.34	3.07
298.711	3.03
299.082	2.96
299.452	2.89
299.823	2.91
300.194	2.95
300.564	2.73
300.935	2.8
301.305	2.82
301.676	2.7
302.046	2.87
302.416	2.89
302.787	2.81
303.157	2.78
303.527	2.83
303.897	2.7
304.267	2.67
304.637	2.49
305.008	2.39
305.378	2.51
305.748	2.32
306.117	2.31
306.487	2.29
306.857	2.59
307.227	2.77
307.597	2.65
307.967	2.65
308.336	2.75
308.706	2.79
309.076	2.91
309.445	3.13
309.815	3.08
310.184	3.1
310.554	3.29
310.923	3.33
311.293	3.38
311.662	3.44
312.031	3.47
312.401	3.68
312.77	3.69
313.139	3.71
313.508	3.66
313.877	3.67
314.246	3.59
314.616	3.64
314.985	3.57
315.353	3.69
315.722	3.72
316.091	3.62
316.46	3.56
316.829	3.54
317.198	3.51
317.567	3.48
317.935	3.46
318.304	3.45
318.672	3.54
319.041	3.49
319.41	3.59
319.778	3.66
320.147	3.75
320.515	3.8
320.883	3.87
321.252	4.05
321.62	4.02
321.988	4.21
322.357	4.05
322.725	4.05
323.093	4
323.461	4.03
323.829	4.21
324.197	4.22
324.565	4.17
324.933	4.14
325.301	3.99
325.669	4.22
326.037	4.24
326.405	4.13
326.772	4.15
327.14	3.92
327.508	3.85
327.875	3.87
328.243	3.92
328.61	3.83
328.978	3.82
329.346	3.91
329.713	3.96
330.08	4.03
330.448	3.99
330.815	3.94
331.182	3.95
331.55	3.93
331.917	3.82
332.284	3.93
332.651	4.12
333.018	4.3
333.385	4.15
333.752	4.16
334.119	4.24
334.486	4.08
334.853	4.18
335.22	4.21
335.587	4.06
335.954	3.93
336.32	3.8
336.687	3.88
337.054	3.73
337.42	3.77
337.787	3.81
338.153	3.82
338.52	3.91
338.886	3.9
339.253	3.73
339.619	3.87
339.986	3.81
340.352	3.67
340.718	3.6
341.084	3.57
341.451	3.62
341.817	3.72
342.183	3.8
342.549	3.82
342.915	3.79
343.281	3.84
343.647	3.95
344.013	4.08
344.379	4
344.745	4.04
345.11	3.92
345.476	3.91
345.842	3.82
346.208	3.76
346.573	3.76
346.939	3.96
347.304	3.97
347.67	3.93
348.035	3.82
348.401	3.89
348.766	3.95
349.132	3.97
349.497	3.88
349.862	3.77
350.228	3.89
350.593	3.86
350.958	3.93
351.323	3.91
351.688	3.92
352.053	3.93
352.418	3.98
352.783	3.97
353.148	4.01
353.513	4.08
353.878	4.19
354.243	4.08
354.608	4.11
354.972	4.16
355.337	4.2
355.702	4.31
356.066	4.31
356.431	4.32
356.795	4.29
357.16	4.33
357.524	4.36
357.889	4.2
358.253	4.17
358.618	4.15
358.982	4.19
359.346	4.15
359.71	4.07
360.075	4.07
360.439	4.1
360.803	4.06
361.167	4.08
361.531	4.05
361.895	4.18
362.259	4.13
362.623	4.07
362.987	4.05
363.351	4.04
363.714	4.05
364.078	4.05
364.442	4.01
364.806	3.95
365.169	3.96
365.533	4.08
365.896	4.13
366.26	4.13
366.623	4.18
366.987	4.22
367.35	4.34
367.714	4.36
368.077	4.41
368.44	4.46
368.803	4.41
369.167	4.33
369.53	4.32
369.893	4.24
370.256	4.21
370.619	4.21
370.982	4.15
371.345	4.13
371.708	4.09
372.071	4.04
372.434	4.04
372.797	4.09
373.159	4.11
373.522	4.05
373.885	4.05
374.247	4.02
374.61	3.98
374.973	3.95
375.335	3.91
375.698	3.85
376.06	3.8
376.423	3.78
376.785	3.87
377.147	3.88
377.51	3.89
377.872	3.92
378.234	3.97
378.596	4.05
378.958	4.1
379.321	4.14
379.683	4.18
380.045	4.19
380.407	4.11
380.769	4.05
381.13	4.08
381.492	4
381.854	3.96
382.216	4
382.578	4
382.939	3.99
383.301	3.98
383.663	3.96
384.024	4
384.386	3.91
384.747	3.9
385.109	3.88
385.47	3.9
385.832	3.83
386.193	3.76
386.554	3.69
386.916	3.7
387.277	3.71
387.638	3.69
387.999	3.7
388.36	3.7
388.721	3.72
389.082	3.8
389.443	3.82
389.804	3.85
390.165	3.88
390.526	3.93
390.887	3.93
391.248	3.94
391.609	3.99
391.969	4.07
392.33	4.08
392.691	4.16
393.051	4.13
393.412	4.16
393.772	4.19
394.133	4.19
394.493	4.14
394.854	4.18
395.214	4.22
395.574	4.24
395.935	4.22
396.295	4.24
396.655	4.21
397.015	4.22
397.376	4.18
397.736	4.1
398.096	4.06
398.456	4.07
398.816	4.05
399.176	3.96
399.535	3.89
399.895	3.85
400.255	3.79
400.615	3.82
400.975	3.85
401.334	3.85
401.694	3.88
402.054	3.91
402.413	3.91
402.773	3.9
403.132	3.85
403.492	3.9
403.851	3.84
404.211	3.81
404.57	3.8
404.929	3.83
405.288	3.84
405.648	3.87
406.007	3.87
406.366	3.88
406.725	3.9
407.084	3.92
407.443	3.92
407.802	3.92
408.161	3.94
408.52	3.92
408.879	3.93
409.238	3.93
409.596	3.91
409.955	3.88
410.314	3.89
410.673	3.94
411.031	3.92
411.39	3.97
411.748	4.01
412.107	3.97
412.465	3.96
412.824	3.97
413.182	3.95
413.54	3.94
413.899	3.94
414.257	3.95
414.615	3.96
414.974	3.96
415.332	3.96
415.69	3.91
416.048	3.88
416.406	3.85
416.764	3.86
417.122	3.83
417.48	3.83
417.838	3.8
418.195	3.79
418.553	3.78
418.911	3.76
419.269	3.76
419.626	3.77
419.984	3.77
420.342	3.78
420.699	3.77
421.057	3.77
421.414	3.77
421.772	3.76
422.129	3.75
422.486	3.75
422.844	3.73
423.201	3.73
423.558	3.74
423.915	3.76
424.273	3.73
424.63	3.73
424.987	3.73
425.344	3.74
425.701	3.75
426.058	3.74
426.415	3.74
426.772	3.71
427.128	3.7
427.485	3.71
427.842	3.71
428.199	3.7
428.555	3.69
428.912	3.69
429.269	3.68
429.625	3.67
429.982	3.67
430.338	3.68
430.695	3.69
431.051	3.7
431.407	3.68
431.764	3.69
432.12	3.71
432.476	3.69
432.832	3.71
433.189	3.7
433.545	3.71
433.901	3.7
434.257	3.72
434.613	3.72
434.969	3.71
435.325	3.69
435.681	3.7
436.036	3.72
436.392	3.72
436.748	3.71
437.104	3.71
437.459	3.71
437.815	3.72
438.171	3.75
438.526	3.73
438.882	3.75
439.237	3.75
439.593	3.75
439.948	3.75
440.304	3.73
440.659	3.73
441.014	3.73
441.369	3.75
441.725	3.74
442.08	3.74
442.435	3.76
442.79	3.77
443.145	3.78
443.5	3.77
443.855	3.76
444.21	3.79
444.565	3.8
444.92	3.8
445.275	3.79
445.629	3.75
445.984	3.76
446.339	3.74
446.693	3.75
447.048	3.75
447.403	3.75
447.757	3.76
448.112	3.77
448.466	3.79
448.82	3.79
449.175	3.8
449.529	3.78
449.883	3.78
450.238	3.74
450.592	3.73
450.946	3.75
451.3	3.75
451.654	3.72
452.008	3.72
452.362	3.71
452.716	3.71
453.07	3.73
453.424	3.69
453.778	3.72
454.132	3.71
454.486	3.7
454.839	3.7
455.193	3.7
455.547	3.69
455.9	3.69
456.254	3.69
456.607	3.69
456.961	3.7
457.314	3.71
457.668	3.73
458.021	3.74
458.375	3.74
458.728	3.76
459.081	3.77
459.434	3.77
459.787	3.79
460.141	3.81
460.494	3.8
460.847	3.83
461.2	3.83
461.553	3.85
461.906	3.87
462.259	3.84
462.611	3.84
462.964	3.85
463.317	3.84
463.67	3.84
464.022	3.85
464.375	3.84
464.728	3.84
465.08	3.82
465.433	3.85
465.785	3.85
466.138	3.83
466.49	3.84
466.843	3.85
467.195	3.84
467.547	3.82
467.899	3.87
468.252	3.87
468.604	3.86
468.956	3.86
469.308	3.83
469.66	3.85
470.012	3.85
470.364	3.85
470.716	3.87
471.068	3.87
471.42	3.89
471.772	3.9
472.123	3.91
472.475	3.91
472.827	3.9
473.178	3.9
473.53	3.92
473.882	3.93
474.233	3.91
474.585	3.91
474.936	3.9
475.288	3.88
475.639	3.86
475.99	3.87
476.342	3.86
476.693	3.89
477.044	3.89
477.395	3.87
477.746	3.88
478.097	3.89
478.448	3.89
478.8	3.87
479.15	3.88
479.501	3.88
479.852	3.88
480.203	3.88
480.554	3.89
480.905	3.9
481.255	3.88
481.606	3.88
481.957	3.91
482.307	3.91
482.658	3.92
483.009	3.92
483.359	3.92
483.709	3.93
484.06	3.93
484.41	3.94
484.761	3.95
485.111	3.96
485.461	3.94
485.811	3.94
486.162	3.94
486.512	3.94
486.862	3.94
487.212	3.95
487.562	3.95
487.912	3.97
488.262	3.96
488.612	3.98
488.961	3.98
489.311	3.96
489.661	3.97
490.011	3.96
490.36	3.96
490.71	3.96
491.06	3.95
491.409	3.94
491.759	3.94
492.108	3.94
492.458	3.93
492.807	3.96
493.157	3.97
493.506	3.99
493.855	4.01
494.204	4.03
494.554	4.01
494.903	4.02
495.252	4.02
495.601	4.03
495.95	4.03
496.299	4.07
496.648	4.1
496.997	4.13
497.346	4.15
497.695	4.16
498.043	4.17
498.392	4.23
498.741	4.28
499.09	4.3
499.438	4.32
499.787	4.32
500.135	4.3
500.484	4.31
500.832	4.3
501.181	4.32
501.529	4.34
501.878	4.37
502.226	4.39
502.574	4.39
502.923	4.42
503.271	4.44
503.619	4.44
503.967	4.42
504.315	4.43
504.663	4.46
505.011	4.48
505.359	4.49
505.707	4.5
506.055	4.5
506.403	4.51
506.751	4.55
507.098	4.59
507.446	4.6
507.794	4.62
508.141	4.65
508.489	4.67
508.837	4.69
509.184	4.71
509.531	4.72
509.879	4.75
510.226	4.75
510.574	4.77
510.921	4.8
511.268	4.81
511.616	4.81
511.963	4.85
512.31	4.86
512.657	4.88
513.004	4.9
513.351	4.91
513.698	4.93
514.045	4.92
514.392	4.94
514.739	4.97
515.086	4.99
515.432	4.98
515.779	4.99
516.126	5.02
516.473	5.04
516.819	5.05
517.166	5.05
517.512	5.07
517.859	5.07
518.205	5.07
518.552	5.1
518.898	5.13
519.245	5.14
519.591	5.15
519.937	5.18
520.283	5.17
520.629	5.2
520.976	5.2
521.322	5.22
521.668	5.21
522.014	5.21
522.36	5.19
522.706	5.22
523.052	5.25
523.398	5.26
523.743	5.28
524.089	5.33
524.435	5.36
524.781	5.37
525.126	5.39
525.472	5.42
525.817	5.42
526.163	5.43
526.509	5.43
526.854	5.44
527.199	5.43
527.545	5.46
527.89	5.46
528.235	5.48
528.581	5.48
528.926	5.5
529.271	5.51
529.616	5.54
529.961	5.55
530.306	5.56
530.651	5.55
530.996	5.55
531.341	5.54
531.686	5.54
532.031	5.55
532.376	5.55
532.721	5.55
533.065	5.57
533.41	5.55
533.755	5.57
534.099	5.58
534.444	5.59
534.788	5.59
535.133	5.59
535.477	5.59
535.822	5.6
536.166	5.61
536.51	5.63
536.855	5.63
537.199	5.64
537.543	5.64
537.887	5.66
538.231	5.66
538.576	5.67
538.92	5.69
539.264	5.71
539.608	5.74
539.951	5.76
540.295	5.77
540.639	5.82
540.983	5.83
541.327	5.83
541.671	5.85
542.014	5.87
542.358	5.88
542.701	5.89
543.045	5.9
543.389	5.9
543.732	5.9
544.075	5.91
544.419	5.92
544.762	5.92
545.105	5.95
545.449	5.97
545.792	5.98
546.135	5.99
546.478	5.99
546.821	5.97
547.165	5.98
547.508	5.98
547.851	5.95
548.194	5.93
548.536	5.91
548.879	5.9
549.222	5.89
549.565	5.9
549.908	5.9
550.25	5.91
550.593	5.89
550.936	5.92
551.278	5.91
551.621	5.94
551.963	5.96
552.306	5.96
552.648	5.94
552.991	5.96
553.333	5.92
553.675	5.96
554.017	5.98
554.36	5.99
554.702	5.95
555.044	5.99
555.386	6.03
555.728	6.06
556.07	6.05
556.412	6.08
556.754	6.08
557.096	6.06
557.438	6.05
557.78	6.09
558.121	6.08
558.463	6.07
558.805	6.06
559.147	6.06
559.488	6.05
559.83	6.07
560.171	6.08
560.513	6.12
560.854	6.11
561.196	6.12
561.537	6.11
561.878	6.13
562.22	6.15
562.561	6.14
562.902	6.15
563.243	6.16
563.584	6.12
563.925	6.14
564.266	6.16
564.607	6.17
564.948	6.17
565.289	6.17
565.63	6.17
565.971	6.18
566.312	6.2
566.653	6.22
566.993	6.19
567.334	6.21
567.675	6.23
568.015	6.23
568.356	6.23
568.696	6.24
569.037	6.23
569.377	6.21
569.718	6.23
570.058	6.23
570.398	6.24
570.739	6.24
571.079	6.22
571.419	6.25
571.759	6.26
572.099	6.27
572.439	6.26
572.779	6.27
573.119	6.25
573.459	6.26
573.799	6.24
574.139	6.26
574.479	6.26
574.819	6.25
575.158	6.24
575.498	6.23
575.838	6.23
576.177	6.25
576.517	6.24
576.856	6.22
577.196	6.22
577.535	6.24
577.875	6.3
578.214	6.31
578.553	6.27
578.893	6.31
579.232	6.33
579.571	6.34
579.91	6.35
580.25	6.35
580.589	6.3
580.928	6.31
581.267	6.32
581.606	6.34
581.945	6.34
582.283	6.33
582.622	6.33
582.961	6.34
583.3	6.32
583.639	6.31
583.977	6.33
584.316	6.39
584.654	6.42
584.993	6.4
585.332	6.36
585.67	6.39
586.008	6.37
586.347	6.34
586.685	6.31
587.024	6.29
587.362	6.27
587.7	6.33
588.038	6.37
588.376	6.39
588.715	6.35
589.053	6.38
589.391	6.4
589.729	6.43
590.067	6.45
590.404	6.48
590.742	6.5
591.08	6.52
591.418	6.47
591.756	6.46
592.093	6.47
592.431	6.51
592.769	6.51
593.106	6.47
593.444	6.48
593.781	6.5
594.119	6.49
594.456	6.54
594.793	6.51
595.131	6.47
595.468	6.46
595.805	6.49
596.143	6.46
596.48	6.47
596.817	6.48
597.154	6.48
597.491	6.48
597.828	6.52
598.165	6.46
598.502	6.5
598.839	6.5
599.176	6.5
599.512	6.48
599.849	6.5
600.186	6.52
600.523	6.53
600.859	6.54
601.196	6.58
601.532	6.58
601.869	6.61
602.205	6.6
602.542	6.57
602.878	6.58
603.215	6.61
603.551	6.62
603.887	6.62
604.223	6.61
604.56	6.57
604.896	6.52
605.232	6.59
605.568	6.55
605.904	6.55
606.24	6.57
606.576	6.59
606.912	6.57
607.248	6.61
607.583	6.61
607.919	6.62
608.255	6.6
608.591	6.6
608.926	6.59
609.262	6.64
609.597	6.67
609.933	6.69
610.268	6.68
610.604	6.64
610.939	6.63
611.275	6.66
611.61	6.66
611.945	6.69
612.281	6.67
612.616	6.69
612.951	6.69
613.286	6.69
613.621	6.7
613.956	6.72
614.291	6.7
614.626	6.68
614.961	6.71
615.296	6.78
615.631	6.82
615.966	6.86
616.3	6.88
616.635	6.91
616.97	6.88
617.304	6.85
617.639	6.87
617.973	6.89
618.308	6.86
618.642	6.89
618.977	6.91
619.311	6.91
619.646	6.87
619.98	6.86
620.314	6.87
620.648	6.85
620.983	6.87
621.317	6.87
621.651	6.83
621.985	6.81
622.319	6.78
622.653	6.74
622.987	6.7
623.321	6.64
623.655	6.6
623.988	6.62
624.322	6.66
624.656	6.7
624.99	6.66
625.323	6.68
625.657	6.7
625.99	6.64
626.324	6.64
626.657	6.64
626.991	6.66
627.324	6.62
627.658	6.63
627.991	6.66
628.324	6.62
628.657	6.64
628.991	6.68
629.324	6.72
629.657	6.68
629.99	6.72
630.323	6.74
630.656	6.69
630.989	6.63
631.322	6.6
631.655	6.58
631.987	6.61
632.32	6.65
632.653	6.64
632.986	6.7
633.318	6.7
633.651	6.76
633.984	6.76
634.316	6.76
634.649	6.78
634.981	6.72
635.313	6.78
635.646	6.8
635.978	6.8
636.31	6.77
636.643	6.78
636.975	6.75
637.307	6.71
637.639	6.81
637.971	6.85
638.303	6.87
638.635	6.87
638.967	6.85
639.299	6.82
639.631	6.85
639.963	6.83
640.295	6.83
640.626	6.82
640.958	6.81
641.29	6.86
641.621	6.79
641.953	6.79
642.285	6.78
642.616	6.8
642.948	6.78
643.279	6.82
643.61	6.87
643.942	6.86
644.273	6.95
644.604	6.84
644.936	6.88
645.267	6.88
645.598	6.88
645.929	6.84
646.26	6.85
646.591	6.83
646.922	6.91
647.253	6.96
647.584	6.95
647.915	6.95
648.245	6.91
648.576	6.94
648.907	6.95
649.238	6.99
649.568	6.96
649.899	6.96
650.229	6.89
650.56	6.95
650.89	7
651.221	6.98
651.551	7.1
651.882	7.06
652.212	7.1
652.542	7.21
652.872	7.31
653.203	7.35
653.533	7.36
653.863	7.28
654.193	7.2
654.523	7.18
654.853	7.28
655.183	7.28
655.513	7.35
655.843	7.37
656.172	7.38
656.502	7.36
656.832	7.37
657.162	7.41
657.491	7.36
657.821	7.38
658.15	7.39
658.48	7.39
658.809	7.4
659.139	7.41
659.468	7.29
659.798	7.31
660.127	7.27
660.456	7.22
660.785	7.26
661.115	7.33
661.444	7.37
661.773	7.33
662.102	7.4
662.431	7.38
662.76	7.33
663.089	7.37
663.418	7.42
663.747	7.44
664.076	7.43
664.404	7.49
664.733	7.41
665.062	7.38
665.39	7.37
665.719	7.35
666.048	7.29
666.376	7.39
666.705	7.36
667.033	7.42
667.362	7.44
667.69	7.49
668.018	7.48
668.347	7.42
668.675	7.37
669.003	7.26
669.331	7.27
669.659	7.31
669.987	7.29
670.315	7.28
670.643	7.3
670.971	7.36
671.299	7.25
671.627	7.37
671.955	7.32
672.283	7.31
672.61	7.41
672.938	7.49
673.266	7.43
673.593	7.38
673.921	7.34
674.249	7.36
674.576	7.35
674.904	7.33
675.231	7.35
675.558	7.42
675.886	7.46
676.213	7.46
676.54	7.5
676.867	7.45
677.195	7.58
677.522	7.6
677.849	7.52
678.176	7.58
678.503	7.58
678.83	7.6
679.157	7.62
679.484	7.59
679.81	7.62
680.137	7.6
680.464	7.77
680.791	7.75
681.117	7.76
681.444	7.86
681.771	7.93
682.097	7.98
682.424	7.92
682.75	7.92
683.077	7.9
683.403	7.85
683.729	7.8
684.056	7.59
684.382	7.53
684.708	7.53
685.034	7.57
685.36	7.44
685.686	7.49
686.012	7.48
686.339	7.51
686.664	7.52
686.99	7.5
687.316	7.28
687.642	7.22
687.968	7.33
688.294	7.14
688.619	7.09
688.945	7.1
689.271	7.23
689.596	7.21
689.922	7.28
690.247	7.25
690.573	7.35
690.898	7.51
691.224	7.68
691.549	7.77
691.874	7.78
692.2	7.97
692.525	7.93
692.85	7.86
693.175	7.86
693.5	7.76
693.825	7.88
694.15	7.9
694.475	7.95
694.8	7.88
695.125	8.04
695.45	7.94
695.775	7.92
696.099	7.89
696.424	7.95
696.749	7.97
697.073	7.91
697.398	7.93
697.723	7.96
698.047	7.79
698.372	7.85
698.696	7.79
699.02	7.66
699.345	7.74
699.669	7.84
699.993	7.74
700.318	7.75
700.642	7.67
700.966	7.77
701.29	7.8
701.614	7.85
701.938	7.71
702.262	7.79
702.586	7.78
702.91	7.77
703.234	7.81
703.557	7.69
703.881	7.7
704.205	7.75
704.529	7.62
704.852	7.66
705.176	7.62
705.499	7.65
705.823	7.74
706.146	7.73
706.47	7.66
706.793	7.74
707.117	7.77
707.44	7.75
707.763	7.73
708.086	7.88
708.409	7.73
708.733	7.72
709.056	7.7
709.379	7.65
709.702	7.67
710.025	7.61
710.348	7.82
710.671	7.95
710.993	7.84
711.316	7.91
711.639	7.94
711.962	7.98
712.284	8.02
712.607	7.97
712.93	8.04
713.252	8.03
713.575	7.98
713.897	8
714.22	8.11
714.542	8.27
714.864	8.14
715.187	8.16
715.509	8.28
715.831	8.38
716.153	8.43
716.475	8.56
716.798	8.44
717.12	8.41
717.442	8.37
717.764	8.38
718.085	8.39
718.407	8.39
718.729	8.23
719.051	8.25
719.373	8.28
719.695	8.2
720.016	8.2
720.338	8.43
720.659	8.38
720.981	8.32
721.302	8.27
721.624	8.4
721.945	8.36
722.267	8.51
722.588	8.43
722.909	8.54
723.231	8.14
723.552	8.28
723.873	8.28
724.194	8.34
724.515	8.28
724.836	8.18
725.157	8
725.478	8.18
725.799	8.19
726.12	8.35
726.441	8.36
726.762	8.48
727.083	8.47
727.403	8.59
727.724	8.64
728.045	8.36
728.365	8.26
728.686	8.42
729.006	8.22
729.327	8.21
729.647	8.1
729.967	8.22
730.288	8.4
730.608	8.51
730.928	8.62
731.249	8.84
731.569	8.97
731.889	9.17
732.209	9.15
732.529	9.02
732.849	9
733.169	8.9
733.489	8.78
733.809	8.65
734.129	8.62
734.448	8.53
734.768	8.71
735.088	8.79
735.408	8.56
735.727	8.57
736.047	8.61
736.366	8.68
736.686	8.54
737.005	8.34
737.325	8.12
737.644	8.16
737.963	8.15
738.283	8.16
738.602	8.26
738.921	8.39
739.24	8.55
739.56	8.49
739.879	8.62
740.198	8.74
740.517	8.78
740.836	8.9
741.155	9.13
741.473	9.15
741.792	9.13
742.111	9.52
742.43	9.66
742.748	9.65
743.067	9.75
743.386	9.74
743.704	9.9
744.023	9.96
744.341	9.92
744.66	9.84
744.978	9.85
745.297	9.46
745.615	9.17
745.933	9.27
746.252	9.26
746.57	9.44
746.888	9.68
747.206	9.93
747.524	9.72
747.842	9.36
748.16	9.28
748.478	9.29
748.796	9.13
749.114	9.11
749.432	9.13
749.749	9.04
750.067	9.33
750.385	9.3
750.703	9.34
751.02	9.31
751.338	9.11
751.655	8.94
751.973	9.07
752.29	8.83
752.608	8.94
752.925	8.95
753.242	8.78
753.56	8.29
753.877	8.14
754.194	8.34
754.511	8.33
754.828	8.1
755.145	8.12
755.462	8.37
755.779	8.59
756.096	8.73
756.413	9.07
756.73	9.11
757.047	9.21
757.364	9.2
757.68	9.19
757.997	9.33
758.314	9.4
758.63	9.66
758.947	10.14
759.264	10.23
759.58	10.44
759.896	10.6
760.213	11.02
760.529	10.89
760.846	10.79
761.162	10.79
761.478	11.05
761.794	10.99
762.11	10.76
762.426	10.35
762.743	10.15
763.059	10.07
763.375	9.96
763.69	9.91
764.006	10.08
764.322	10.07
764.638	10.23
764.954	10.44
765.27	10.38
765.585	10.27
765.901	9.88
766.216	9.72
766.532	9.48
766.848	9.54
767.163	9.5
767.478	9.6
767.794	9.62
768.109	9.47
768.424	9.63
768.74	9.62
769.055	10.15
769.37	10.09
769.685	10.1
770	10.29
770.315	10.05
770.63	9.66
770.945	9.93
771.26	9.78
771.575	9.75
771.89	9.66
772.205	9.73
772.52	9.92
772.834	10.21
773.149	10.1
773.464	9.89
773.778	10.2
774.093	10.41
774.407	10.45
774.722	10.52
775.036	10.32
775.351	10.53
775.665	10.18
775.979	10.58
776.293	10.62
776.608	10.59
776.922	11.14
777.236	11.44
777.55	10.78
777.864	10.73
778.178	10.26
778.492	10.6
778.806	10.86
779.12	10.73
779.434	10.5
779.747	10.88
780.061	11.03
780.375	11.09
780.689	10.87
781.002	11.1
781.316	11.5
781.629	11.65
781.943	11.51
782.256	11.42
782.57	11.53
782.883	11.57
783.196	12.07
783.51	11.76
783.823	11.56
784.136	11.84
784.449	12.02
784.762	12.71
785.075	12.74
785.388	12.45
785.701	12.25
786.014	12.12
786.327	11.77
786.64	11.58
786.953	11.32
787.266	11.26
787.578	11.42
787.891	10.99
788.204	10.83
788.516	10.97
788.829	11.02
789.141	11.02
789.454	10.98
789.766	11.01
790.079	10.96
790.391	11.12
790.703	11.3
791.016	11.12
791.328	10.92
791.64	10.66
791.952	10.88
792.264	11.19
792.576	11.97
792.888	12.04
793.2	11.84
793.512	11.85
793.824	11.75
794.136	11.54
794.448	11.58
794.76	11.8
795.071	11.62
795.383	11.46
795.695	11.93
796.006	11.27
796.318	10.85
796.629	10.68
796.941	11.22
797.252	11.15
797.564	11.25
797.875	11.67
798.186	11.73
798.497	11.99
798.809	11.86
799.12	10.98
799.431	11
799.742	11.05
800.053	10.69
800.364	10.67
800.675	11.04
800.986	11.22
801.297	11.66
801.608	11.31
801.918	11.63
802.229	10.56
802.54	10.51
802.851	10.84
803.161	11.61
803.472	10.82
803.782	10.73
804.093	10.93
804.403	10.91
804.714	10.65
805.024	10.04
805.334	10.73
805.645	10.84
805.955	11.28
806.265	11.56
806.575	11.63
806.885	11.81
807.195	11.35
807.505	10.81
807.815	10.53
808.125	10.98
808.435	11.1
808.745	11.63
809.055	12.37
809.365	11.84
809.674	11.61
809.984	11.94
810.294	12.54
810.603	12.03
810.913	11.02
811.222	11.36
811.532	11.58
811.841	11.53
812.151	11.69
812.46	11.69
812.769	10.83
813.079	11.47
813.388	11.01
813.697	10.36
814.006	11.09
814.315	11.01
814.624	11
814.933	10.6
815.242	10.11
815.551	9.89
815.86	10.53
816.169	9.97
816.478	10.58
816.786	10.39
817.095	10.85
817.404	11.03
817.712	11.24
818.021	11.48
818.33	10.76
818.638	11.27
818.947	11.36
819.255	11.67
819.563	11.61
819.872	11.6
820.18	11.92
820.488	12.05
820.796	12.24
821.105	12.47
821.413	12.56
821.721	12.65
822.029	12.48
822.337	12.38
822.645	12.55
822.953	12.54
823.26	12.52
823.568	12.52
823.876	12.65
824.184	12.5
824.491	12.48
824.799	12.58
825.107	12.59
825.414	12.53
825.722	12.57
826.029	12.79
826.337	12.93
826.644	13.05
826.951	12.9
827.259	12.88
827.566	12.71
827.873	12.88
828.18	12.84
828.488	13.15
828.795	13.15
829.102	12.86
829.409	12.74
829.716	12.73
830.023	12.67
830.329	12.66
830.636	13.29
830.943	13.33
831.25	13.16
831.557	13.05
831.863	13.24
832.17	13.61
832.476	13.45
832.783	13.17
833.089	13.37
833.396	13.77
833.702	13.71
834.009	13.66
834.315	13.57
834.621	13.43
834.928	13.34
835.234	13.03
835.54	12.99
835.846	13.32
836.152	13
836.458	13.16
836.764	13.11
837.07	12.24
837.376	11.73
837.682	11.86
837.988	11.75
838.293	11.6
838.599	10.85
838.905	10.09
839.211	10.11
839.516	9.61
839.822	9.63
840.127	8.01
840.433	8.3
840.738	6.94
841.044	7.53
841.349	7.45
841.654	7.61
841.959	8.98
842.265	8.2
842.57	8.34
842.875	7.77
843.18	7.28
843.485	7.75
843.79	7.96
844.095	8.45
844.4	7.99
844.705	8.52
845.01	10.5
845.315	11.9
845.619	12.61
845.924	11.06
846.229	10.26
846.533	12.69
846.838	11.14
847.142	11.4
847.447	11.4
847.751	11.82
848.056	12.07
848.36	11.54
848.664	11.32
848.969	11.61
849.273	10.83
849.577	12.14
849.881	11.69
850.185	12.57
850.489	13.27
850.794	13.82
851.097	13.18
851.401	9.82
851.705	5.9
852.009	5.02
852.313	5.45
852.617	6
852.92	5.98
853.224	7.57
853.528	7.61
853.831	4.59
854.135	2.33
854.438	3.03
854.742	2.59
855.045	2.24
855.349	2.9
855.652	3.95
855.955	2.01
856.259	2.05
856.562	3.22
856.865	3.35
857.168	5.03
857.471	4.82
857.774	5.95
858.077	5.96
858.38	7.25
858.683	10.77
858.986	10.41
859.289	9.98
859.592	9.17
859.894	10.56
860.197	13.38
860.5	16.44
860.802	16.08
861.105	14.67
861.407	12.15
861.71	10.45
862.012	11.41
862.315	11.38
862.617	11.76
862.919	10.96
863.222	9.61
863.524	7.26
863.826	6.23
864.128	5.4
864.43	8.59
864.732	7.78
865.034	6.55
865.336	5.33
865.638	6.32
865.94	8.22
866.242	8.16
866.544	11.55
866.846	9.56
867.147	9.05
867.449	11.02
867.751	13.6
868.052	13.1
868.354	12.64
868.655	12.9
868.957	13.94
869.258	11.77
869.56	11.03
869.861	10.88
870.162	10.79
870.463	11.98
870.765	10.58
871.066	9.71
871.367	8.73
871.668	7.39
871.969	4.35
872.27	3.27
872.571	1.06
872.872	-2.64
873.173	-1.61
873.473	-1.58
873.774	-1.77
874.075	-0.18
874.376	3.33
874.676	5.68
874.977	5.47
875.277	4.99
875.578	9.07
875.878	9.62
876.179	10.29
876.479	11.69
876.78	12.11
877.08	13.06
877.38	14.77
877.68	16.29
877.981	20.47
878.281	23.69
878.581	24.09
