Data from MVZ_BU163024_Reflection_00013.txt Node
Date: Tue Nov 19 12:11:47 EST 2019
User: vgr7
Spectrometer: USB2G7710
Scans to average: 3
Trigger mode: 4
Integration Time (sec): 2.000000E-2
Electric dark correction enabled: true
Boxcar width: 10
XAxis mode: Wavelengths
Number of Pixels in Spectrum: 2048
>>>>>Begin Spectral Data<<<<<
177.721	349.08
178.105	23.25
178.488	-6.6
178.871	31.18
179.254	148.48
179.636	172.92
180.019	-36.15
180.402	-53.85
180.785	-33.33
181.168	67.51
181.55	73.72
181.933	63.11
182.316	38.32
182.698	11.28
183.081	-18.78
183.463	27.69
183.846	31.44
184.228	41.08
184.611	20.74
184.993	42.75
185.376	45.66
185.758	93.97
186.14	35.67
186.522	-0.14
186.904	-7.48
187.287	13.77
187.669	-37.11
188.051	-50.87
188.433	-42.98
188.815	-34.24
189.197	-63.23
189.579	-136.04
189.961	-87.11
190.342	-119
190.724	-49.93
191.106	5.01
191.488	-67.43
191.869	-56
192.251	-95.21
192.633	-56.16
193.014	-104.48
193.396	-24.81
193.777	-48.01
194.159	-34.94
194.54	-13.48
194.922	12.58
195.303	43.43
195.684	191.95
196.065	-109.74
196.447	-92.41
196.828	15.86
197.209	-3.85
197.59	6.21
197.971	5.1
198.352	-11.47
198.733	-17.2
199.114	-15.94
199.495	-24.33
199.876	-33.72
200.257	-89.13
200.638	-71.25
201.018	-91.74
201.399	-44.85
201.78	-54.68
202.16	-85.82
202.541	-114.4
202.922	-131.43
203.302	-233.33
203.683	1486.67
204.063	839.39
204.444	1211.11
204.824	1661.9
205.204	-1854.02
205.585	7623.81
205.965	-1101.55
206.345	1846.03
206.725	-226.03
207.106	-65.21
207.486	-44.59
207.866	-43.34
208.246	-14.34
208.626	-9.26
209.006	-6.43
209.386	-15.81
209.766	-32.62
210.145	-8.94
210.525	17.15
210.905	18.81
211.285	27.1
211.664	34.07
212.044	44.39
212.424	40.12
212.803	48.35
213.183	49.02
213.562	52.14
213.942	52.81
214.321	47.39
214.701	52.72
215.08	67.27
215.459	61.41
215.838	71.54
216.218	67.87
216.597	56.76
216.976	48.84
217.355	49.24
217.734	38.71
218.113	45.09
218.492	38.94
218.871	37.83
219.25	28.33
219.629	18.38
220.008	4.23
220.387	5.94
220.766	-7.23
221.144	-18.23
221.523	-25.95
221.902	-26.98
222.28	-30.02
222.659	-19.52
223.037	-33.96
223.416	-29.81
223.794	-28.89
224.173	-26.36
224.551	-22.75
224.929	-14.09
225.308	-7.26
225.686	-10.65
226.064	-16.2
226.442	-16.22
226.821	-15.23
227.199	-10.25
227.577	-5.49
227.955	-4.79
228.333	-11
228.711	-7.48
229.089	-5.41
229.467	-0.91
229.845	-4.61
230.222	-0.89
230.6	-0.54
230.978	3.78
231.356	-1.68
231.733	-3.31
232.111	-4.58
232.488	-4.68
232.866	-2.78
233.243	-1.85
233.621	0.84
233.998	-0.04
234.376	-0.61
234.753	0.43
235.13	1.08
235.508	0.66
235.885	1.33
236.262	2.38
236.639	1.67
237.016	1.97
237.393	0.65
237.77	2.86
238.147	2.14
238.524	1.36
238.901	0.75
239.278	1.77
239.655	3.21
240.032	3.86
240.409	3.82
240.785	3.5
241.162	2.87
241.539	2.57
241.915	3.58
242.292	4
242.668	4.02
243.045	4.31
243.421	4.39
243.798	4.61
244.174	5.06
244.551	5.37
244.927	5.39
245.303	5.3
245.679	4.75
246.056	4.87
246.432	5.12
246.808	5.34
247.184	5.53
247.56	5.2
247.936	5.35
248.312	5.4
248.688	5.6
249.064	5.57
249.44	5.75
249.815	5.69
250.191	5.65
250.567	5.46
250.943	5.31
251.318	5.07
251.694	5.07
252.069	5.03
252.445	4.96
252.82	5.08
253.196	5.41
253.571	5.55
253.947	5.38
254.322	5.21
254.697	4.89
255.073	4.8
255.448	4.83
255.823	4.74
256.198	4.31
256.573	3.87
256.948	4.07
257.323	3.85
257.698	3.77
258.073	3.71
258.448	3.86
258.823	3.77
259.198	4.05
259.573	3.84
259.948	3.73
260.322	3.83
260.697	3.96
261.072	3.84
261.446	3.88
261.821	3.84
262.195	4.03
262.57	4.12
262.944	4.1
263.319	4.16
263.693	3.75
264.067	3.91
264.442	4.09
264.816	3.91
265.19	3.96
265.564	3.88
265.938	4
266.313	4.01
266.687	4.21
267.061	4.06
267.435	4.14
267.809	4.26
268.183	4.07
268.556	3.71
268.93	3.79
269.304	3.66
269.678	3.78
270.051	3.83
270.425	3.72
270.799	3.63
271.172	3.56
271.546	3.86
271.919	3.91
272.293	3.84
272.666	4.1
273.04	4.08
273.413	4.08
273.787	4.02
274.16	3.97
274.533	3.96
274.906	3.92
275.279	3.82
275.653	3.68
276.026	3.69
276.399	3.77
276.772	3.84
277.145	3.85
277.518	3.67
277.891	3.53
278.263	3.82
278.636	3.95
279.009	4.07
279.382	3.99
279.755	3.86
280.127	3.86
280.5	3.64
280.872	3.69
281.245	3.75
281.617	3.57
281.99	3.5
282.362	3.43
282.735	3.37
283.107	3.38
283.479	3.45
283.852	3.33
284.224	3.29
284.596	3.3
284.968	3.38
285.34	3.47
285.713	3.5
286.085	3.34
286.457	3.24
286.829	3.17
287.201	3.26
287.572	3.41
287.944	3.54
288.316	3.62
288.688	3.63
289.06	3.77
289.431	3.98
289.803	4.07
290.175	4.11
290.546	4.23
290.918	4.22
291.289	4.04
291.661	4.29
292.032	4.32
292.403	4.31
292.775	4.35
293.146	4.46
293.517	4.46
293.889	4.38
294.26	4.56
294.631	4.51
295.002	4.48
295.373	4.41
295.744	4.37
296.115	4.28
296.486	4.32
296.857	4.15
297.228	4.01
297.599	3.97
297.97	4.14
298.34	4.21
298.711	4.31
299.082	4.61
299.452	4.53
299.823	4.69
300.194	4.77
300.564	4.74
300.935	4.71
301.305	4.62
301.676	4.75
302.046	4.63
302.416	4.74
302.787	4.81
303.157	4.86
303.527	5.03
303.897	5.03
304.267	5.08
304.637	5.02
305.008	5.12
305.378	5.29
305.748	5.1
306.117	5.03
306.487	5.14
306.857	5.12
307.227	5.31
307.597	5.27
307.967	5.2
308.336	5.26
308.706	5.29
309.076	5.46
309.445	5.53
309.815	5.61
310.184	5.63
310.554	5.58
310.923	5.71
311.293	5.55
311.662	5.64
312.031	5.61
312.401	5.73
312.77	5.71
313.139	5.74
313.508	5.78
313.877	5.85
314.246	5.99
314.616	6
314.985	5.89
315.353	5.98
315.722	6.12
316.091	6.22
316.46	6.26
316.829	6.17
317.198	6.07
317.567	6.22
317.935	6.4
318.304	6.43
318.672	6.3
319.041	6.44
319.41	6.54
319.778	6.68
320.147	6.81
320.515	7.01
320.883	6.85
321.252	6.83
321.62	6.79
321.988	6.65
322.357	6.79
322.725	6.85
323.093	6.85
323.461	6.81
323.829	6.86
324.197	6.91
324.565	7.06
324.933	7.17
325.301	7.04
325.669	6.85
326.037	7.02
326.405	7.2
326.772	7.14
327.14	7.11
327.508	7.19
327.875	7.18
328.243	7.28
328.61	7.45
328.978	7.51
329.346	7.49
329.713	7.6
330.08	7.54
330.448	7.55
330.815	7.58
331.182	7.65
331.55	7.64
331.917	7.55
332.284	7.63
332.651	7.64
333.018	7.75
333.385	8.11
333.752	8.01
334.119	7.95
334.486	7.97
334.853	7.96
335.22	7.8
335.587	7.83
335.954	7.76
336.32	7.79
336.687	7.93
337.054	8.14
337.42	8.11
337.787	8.13
338.153	8.11
338.52	8.12
338.886	8.14
339.253	8.05
339.619	8.09
339.986	8.01
340.352	8.08
340.718	7.99
341.084	7.79
341.451	7.87
341.817	7.83
342.183	7.85
342.549	8.04
342.915	8.01
343.281	7.9
343.647	7.89
344.013	7.84
344.379	7.8
344.745	7.77
345.11	7.62
345.476	7.72
345.842	7.71
346.208	7.79
346.573	7.77
346.939	7.79
347.304	7.93
347.67	7.93
348.035	7.86
348.401	7.94
348.766	7.99
349.132	8
349.497	8.07
349.862	8.07
350.228	7.96
350.593	8.06
350.958	8.25
351.323	8.16
351.688	8.29
352.053	8.27
352.418	8.27
352.783	8.37
353.148	8.36
353.513	8.42
353.878	8.3
354.243	8.2
354.608	8.35
354.972	8.2
355.337	8.29
355.702	8.31
356.066	8.26
356.431	8.24
356.795	8.19
357.16	8.18
357.524	8.19
357.889	8.2
358.253	8.2
358.618	8.17
358.982	8.24
359.346	8.17
359.71	8.15
360.075	8.13
360.439	8.15
360.803	8.07
361.167	8.03
361.531	8.02
361.895	8.02
362.259	7.94
362.623	7.93
362.987	7.84
363.351	7.83
363.714	7.88
364.078	7.88
364.442	7.82
364.806	7.75
365.169	7.71
365.533	7.76
365.896	7.74
366.26	7.61
366.623	7.52
366.987	7.48
367.35	7.54
367.714	7.48
368.077	7.47
368.44	7.48
368.803	7.48
369.167	7.42
369.53	7.52
369.893	7.58
370.256	7.58
370.619	7.55
370.982	7.45
371.345	7.34
371.708	7.31
372.071	7.3
372.434	7.25
372.797	7.27
373.159	7.13
373.522	7
373.885	7.05
374.247	7.06
374.61	6.98
374.973	6.88
375.335	6.86
375.698	6.77
376.06	6.69
376.423	6.61
376.785	6.58
377.147	6.48
377.51	6.31
377.872	6.26
378.234	6.22
378.596	6.25
378.958	6.23
379.321	6.15
379.683	6.1
380.045	6.11
380.407	6.06
380.769	5.99
381.13	5.99
381.492	5.93
381.854	5.82
382.216	5.83
382.578	5.78
382.939	5.75
383.301	5.69
383.663	5.69
384.024	5.7
384.386	5.74
384.747	5.66
385.109	5.65
385.47	5.65
385.832	5.62
386.193	5.55
386.554	5.5
386.916	5.5
387.277	5.47
387.638	5.43
387.999	5.37
388.36	5.35
388.721	5.38
389.082	5.39
389.443	5.43
389.804	5.39
390.165	5.4
390.526	5.33
390.887	5.31
391.248	5.22
391.609	5.19
391.969	5.11
392.33	5.12
392.691	5.09
393.051	5.04
393.412	5.01
393.772	4.95
394.133	4.95
394.493	4.89
394.854	4.89
395.214	4.88
395.574	4.84
395.935	4.82
396.295	4.73
396.655	4.64
397.015	4.59
397.376	4.57
397.736	4.52
398.096	4.5
398.456	4.51
398.816	4.53
399.176	4.45
399.535	4.45
399.895	4.43
400.255	4.4
400.615	4.35
400.975	4.31
401.334	4.34
401.694	4.35
402.054	4.34
402.413	4.29
402.773	4.23
403.132	4.24
403.492	4.26
403.851	4.23
404.211	4.24
404.57	4.22
404.929	4.15
405.288	4.14
405.648	4.12
406.007	4.1
406.366	4.07
406.725	4.09
407.084	4.04
407.443	4
407.802	3.98
408.161	3.98
408.52	3.99
408.879	3.96
409.238	3.96
409.596	3.96
409.955	3.94
410.314	3.94
410.673	3.91
411.031	3.86
411.39	3.87
411.748	3.9
412.107	3.87
412.465	3.88
412.824	3.85
413.182	3.84
413.54	3.84
413.899	3.81
414.257	3.83
414.615	3.84
414.974	3.86
415.332	3.86
415.69	3.83
416.048	3.81
416.406	3.79
416.764	3.75
417.122	3.72
417.48	3.71
417.838	3.71
418.195	3.69
418.553	3.7
418.911	3.66
419.269	3.64
419.626	3.66
419.984	3.66
420.342	3.63
420.699	3.62
421.057	3.62
421.414	3.63
421.772	3.6
422.129	3.58
422.486	3.56
422.844	3.55
423.201	3.55
423.558	3.56
423.915	3.56
424.273	3.57
424.63	3.58
424.987	3.59
425.344	3.58
425.701	3.59
426.058	3.57
426.415	3.59
426.772	3.56
427.128	3.54
427.485	3.54
427.842	3.54
428.199	3.54
428.555	3.53
428.912	3.52
429.269	3.51
429.625	3.51
429.982	3.5
430.338	3.53
430.695	3.5
431.051	3.49
431.407	3.46
431.764	3.45
432.12	3.46
432.476	3.44
432.832	3.43
433.189	3.43
433.545	3.41
433.901	3.43
434.257	3.43
434.613	3.41
434.969	3.4
435.325	3.41
435.681	3.42
436.036	3.4
436.392	3.41
436.748	3.43
437.104	3.42
437.459	3.43
437.815	3.41
438.171	3.42
438.526	3.44
438.882	3.42
439.237	3.38
439.593	3.38
439.948	3.4
440.304	3.41
440.659	3.41
441.014	3.4
441.369	3.4
441.725	3.41
442.08	3.41
442.435	3.41
442.79	3.4
443.145	3.39
443.5	3.38
443.855	3.37
444.21	3.37
444.565	3.38
444.92	3.38
445.275	3.38
445.629	3.36
445.984	3.34
446.339	3.36
446.693	3.37
447.048	3.36
447.403	3.32
447.757	3.31
448.112	3.29
448.466	3.31
448.82	3.28
449.175	3.28
449.529	3.29
449.883	3.28
450.238	3.27
450.592	3.27
450.946	3.27
451.3	3.26
451.654	3.25
452.008	3.23
452.362	3.2
452.716	3.19
453.07	3.19
453.424	3.19
453.778	3.16
454.132	3.17
454.486	3.18
454.839	3.21
455.193	3.2
455.547	3.23
455.9	3.23
456.254	3.24
456.607	3.25
456.961	3.25
457.314	3.24
457.668	3.26
458.021	3.26
458.375	3.25
458.728	3.26
459.081	3.24
459.434	3.27
459.787	3.28
460.141	3.28
460.494	3.31
460.847	3.3
461.2	3.31
461.553	3.31
461.906	3.31
462.259	3.29
462.611	3.3
462.964	3.31
463.317	3.31
463.67	3.32
464.022	3.29
464.375	3.29
464.728	3.32
465.08	3.34
465.433	3.35
465.785	3.39
466.138	3.41
466.49	3.43
466.843	3.43
467.195	3.44
467.547	3.44
467.899	3.43
468.252	3.48
468.604	3.49
468.956	3.53
469.308	3.55
469.66	3.57
470.012	3.59
470.364	3.58
470.716	3.59
471.068	3.59
471.42	3.63
471.772	3.68
472.123	3.66
472.475	3.67
472.827	3.67
473.178	3.66
473.53	3.66
473.882	3.65
474.233	3.64
474.585	3.64
474.936	3.65
475.288	3.67
475.639	3.66
475.99	3.63
476.342	3.62
476.693	3.61
477.044	3.62
477.395	3.58
477.746	3.58
478.097	3.56
478.448	3.56
478.8	3.55
479.15	3.52
479.501	3.53
479.852	3.5
480.203	3.5
480.554	3.49
480.905	3.49
481.255	3.49
481.606	3.49
481.957	3.5
482.307	3.51
482.658	3.5
483.009	3.49
483.359	3.51
483.709	3.51
484.06	3.52
484.41	3.51
484.761	3.52
485.111	3.52
485.461	3.52
485.811	3.51
486.162	3.51
486.512	3.51
486.862	3.51
487.212	3.5
487.562	3.49
487.912	3.49
488.262	3.49
488.612	3.48
488.961	3.49
489.311	3.49
489.661	3.47
490.011	3.46
490.36	3.46
490.71	3.47
491.06	3.45
491.409	3.45
491.759	3.45
492.108	3.45
492.458	3.45
492.807	3.47
493.157	3.49
493.506	3.48
493.855	3.49
494.204	3.5
494.554	3.53
494.903	3.54
495.252	3.57
495.601	3.61
495.95	3.62
496.299	3.65
496.648	3.66
496.997	3.72
497.346	3.76
497.695	3.8
498.043	3.84
498.392	3.88
498.741	3.92
499.09	3.95
499.438	3.99
499.787	4.04
500.135	4.07
500.484	4.11
500.832	4.15
501.181	4.21
501.529	4.29
501.878	4.36
502.226	4.43
502.574	4.5
502.923	4.55
503.271	4.62
503.619	4.68
503.967	4.73
504.315	4.79
504.663	4.85
505.011	4.92
505.359	4.95
505.707	5.02
506.055	5.09
506.403	5.17
506.751	5.22
507.098	5.33
507.446	5.43
507.794	5.48
508.141	5.59
508.489	5.67
508.837	5.73
509.184	5.8
509.531	5.89
509.879	5.97
510.226	6.06
510.574	6.15
510.921	6.25
511.268	6.37
511.616	6.47
511.963	6.57
512.31	6.69
512.657	6.85
513.004	6.95
513.351	7.07
513.698	7.2
514.045	7.36
514.392	7.49
514.739	7.62
515.086	7.79
515.432	7.93
515.779	8.08
516.126	8.24
516.473	8.4
516.819	8.53
517.166	8.66
517.512	8.76
517.859	8.91
518.205	9.04
518.552	9.16
518.898	9.26
519.245	9.4
519.591	9.53
519.937	9.63
520.283	9.79
520.629	9.93
520.976	10.11
521.322	10.25
521.668	10.39
522.014	10.56
522.36	10.74
522.706	10.9
523.052	11.07
523.398	11.24
523.743	11.39
524.089	11.61
524.435	11.8
524.781	12.01
525.126	12.16
525.472	12.32
525.817	12.47
526.163	12.62
526.509	12.74
526.854	12.87
527.199	13.01
527.545	13.15
527.89	13.27
528.235	13.39
528.581	13.53
528.926	13.67
529.271	13.8
529.616	13.93
529.961	14.07
530.306	14.23
530.651	14.41
530.996	14.59
531.341	14.78
531.686	14.97
532.031	15.17
532.376	15.38
532.721	15.57
533.065	15.78
533.41	16
533.755	16.23
534.099	16.45
534.444	16.67
534.788	16.86
535.133	17.07
535.477	17.27
535.822	17.51
536.166	17.76
536.51	18.04
536.855	18.32
537.199	18.63
537.543	18.93
537.887	19.21
538.231	19.52
538.576	19.8
538.92	20.08
539.264	20.34
539.608	20.62
539.951	20.88
540.295	21.17
540.639	21.41
540.983	21.67
541.327	21.93
541.671	22.18
542.014	22.46
542.358	22.71
542.701	22.96
543.045	23.21
543.389	23.46
543.732	23.7
544.075	23.95
544.419	24.18
544.762	24.45
545.105	24.71
545.449	24.98
545.792	25.29
546.135	25.6
546.478	25.94
546.821	26.3
547.165	26.7
547.508	26.99
547.851	27.33
548.194	27.66
548.536	27.98
548.879	28.31
549.222	28.61
549.565	28.93
549.908	29.27
550.25	29.6
550.593	29.93
550.936	30.28
551.278	30.63
551.621	31.03
551.963	31.34
552.306	31.71
552.648	32.02
552.991	32.3
553.333	32.6
553.675	32.9
554.017	33.15
554.36	33.41
554.702	33.69
555.044	33.96
555.386	34.26
555.728	34.55
556.07	34.87
556.412	35.15
556.754	35.47
557.096	35.78
557.438	36.03
557.78	36.31
558.121	36.61
558.463	36.89
558.805	37.15
559.147	37.48
559.488	37.75
559.83	38.02
560.171	38.36
560.513	38.65
560.854	38.9
561.196	39.19
561.537	39.45
561.878	39.74
562.22	40.05
562.561	40.28
562.902	40.54
563.243	40.82
563.584	41.06
563.925	41.3
564.266	41.61
564.607	41.85
564.948	42.09
565.289	42.33
565.63	42.55
565.971	42.78
566.312	43.03
566.653	43.27
566.993	43.45
567.334	43.6
567.675	43.82
568.015	44.09
568.356	44.28
568.696	44.5
569.037	44.66
569.377	44.87
569.718	45.09
570.058	45.24
570.398	45.37
570.739	45.64
571.079	45.84
571.419	45.97
571.759	46.15
572.099	46.32
572.439	46.43
572.779	46.6
573.119	46.75
573.459	46.87
573.799	47
574.139	47.18
574.479	47.41
574.819	47.58
575.158	47.68
575.498	47.86
575.838	47.93
576.177	48.08
576.517	48.24
576.856	48.4
577.196	48.66
577.535	48.85
577.875	49.01
578.214	49.17
578.553	49.35
578.893	49.53
579.232	49.7
579.571	49.94
579.91	50.1
580.25	50.25
580.589	50.42
580.928	50.56
581.267	50.73
581.606	50.84
581.945	50.88
582.283	50.99
582.622	51.06
582.961	51.24
583.3	51.39
583.639	51.48
583.977	51.57
584.316	51.66
584.654	51.72
584.993	51.84
585.332	51.99
585.67	52.08
586.008	52.19
586.347	52.31
586.685	52.36
587.024	52.55
587.362	52.72
587.7	52.8
588.038	53.01
588.376	53.09
588.715	53.2
589.053	53.33
589.391	53.5
589.729	53.68
590.067	53.85
590.404	53.99
590.742	54.07
591.08	54.21
591.418	54.33
591.756	54.49
592.093	54.61
592.431	54.72
592.769	54.83
593.106	54.95
593.444	55.08
593.781	55.19
594.119	55.2
594.456	55.25
594.793	55.35
595.131	55.42
595.468	55.46
595.805	55.54
596.143	55.63
596.48	55.69
596.817	55.63
597.154	55.64
597.491	55.69
597.828	55.71
598.165	55.71
598.502	55.83
598.839	55.83
599.176	55.79
599.512	55.8
599.849	55.86
600.186	55.85
600.523	55.85
600.859	55.91
601.196	55.96
601.532	56
601.869	56.05
602.205	56.09
602.542	56.22
602.878	56.31
603.215	56.38
603.551	56.46
603.887	56.49
604.223	56.53
604.56	56.63
604.896	56.85
605.232	56.88
605.568	56.86
605.904	56.92
606.24	57.02
606.576	57.1
606.912	57.17
607.248	57.21
607.583	57.29
607.919	57.43
608.255	57.53
608.591	57.65
608.926	57.72
609.262	57.73
609.597	57.74
609.933	57.77
610.268	57.82
610.604	57.85
610.939	57.96
611.275	58.06
611.61	58.01
611.945	57.93
612.281	58.13
612.616	58.22
612.951	58.33
613.286	58.37
613.621	58.37
613.956	58.42
614.291	58.55
614.626	58.56
614.961	58.47
615.296	58.48
615.631	58.41
615.966	58.49
616.3	58.56
616.635	58.65
616.97	58.66
617.304	58.66
617.639	58.65
617.973	58.75
618.308	58.79
618.642	58.87
618.977	58.88
619.311	58.91
619.646	58.84
619.98	58.84
620.314	58.91
620.648	59.02
620.983	59.11
621.317	59.18
621.651	59.21
621.985	59.19
622.319	59.26
622.653	59.29
622.987	59.2
623.321	59.27
623.655	59.31
623.988	59.3
624.322	59.34
624.656	59.49
624.99	59.54
625.323	59.62
625.657	59.71
625.99	59.72
626.324	59.72
626.657	59.82
626.991	59.8
627.324	59.7
627.658	59.67
627.991	59.73
628.324	59.61
628.657	59.8
628.991	59.98
629.324	59.94
629.657	60
629.99	60.08
630.323	60
630.656	59.99
630.989	60.04
631.322	60.01
631.655	59.98
631.987	60
632.32	60.05
632.653	60.14
632.986	60.2
633.318	60.15
633.651	60.21
633.984	60.37
634.316	60.45
634.649	60.53
634.981	60.45
635.313	60.65
635.646	60.49
635.978	60.49
636.31	60.65
636.643	60.65
636.975	60.71
637.307	60.8
637.639	60.9
637.971	60.92
638.303	61
638.635	61.04
638.967	61.25
639.299	61.18
639.631	61.16
639.963	61.18
640.295	61.33
640.626	61.33
640.958	61.23
641.29	61.34
641.621	61.24
641.953	61.22
642.285	61.23
642.616	61.38
642.948	61.39
643.279	61.34
643.61	61.34
643.942	61.36
644.273	61.45
644.604	61.4
644.936	61.5
645.267	61.46
645.598	61.43
645.929	61.31
646.26	61.37
646.591	61.32
646.922	61.36
647.253	61.16
647.584	61.08
647.915	61.31
648.245	61.32
648.576	61.36
648.907	61.39
649.238	61.37
649.568	61.36
649.899	61.36
650.229	61.32
650.56	61.37
650.89	61.29
651.221	61.29
651.551	61.32
651.882	61.29
652.212	61.33
652.542	61.32
652.872	61.34
653.203	61.27
653.533	61.26
653.863	61.26
654.193	61.28
654.523	61.39
654.853	61.39
655.183	61.38
655.513	61.43
655.843	61.43
656.172	61.54
656.502	61.49
656.832	61.54
657.162	61.63
657.491	61.69
657.821	61.79
658.15	61.93
658.48	62.02
658.809	61.94
659.139	61.91
659.468	61.92
659.798	61.9
660.127	61.96
660.456	61.94
660.785	61.91
661.115	62.1
661.444	62.1
661.773	62.02
662.102	61.97
662.431	62.12
662.76	62.23
663.089	62.2
663.418	62.27
663.747	62.3
664.076	62.29
664.404	62.27
664.733	62.23
665.062	62.09
665.39	62.13
665.719	62.32
666.048	62.42
666.376	62.41
666.705	62.44
667.033	62.41
667.362	62.55
667.69	62.63
668.018	62.62
668.347	62.6
668.675	62.51
669.003	62.65
669.331	62.56
669.659	62.5
669.987	62.45
670.315	62.43
670.643	62.31
670.971	62.26
671.299	62.33
671.627	62.52
671.955	62.49
672.283	62.19
672.61	61.95
672.938	62.02
673.266	61.93
673.593	61.81
673.921	61.88
674.249	61.87
674.576	61.81
674.904	61.76
675.231	61.72
675.558	61.94
675.886	62.04
676.213	62
676.54	62.02
676.867	62.11
677.195	62.15
677.522	62.25
677.849	62.27
678.176	62.33
678.503	62.17
678.83	62.33
679.157	62.49
679.484	62.66
679.81	62.71
680.137	62.93
680.464	63.05
680.791	63.11
681.117	63.09
681.444	63.12
681.771	63.18
682.097	63.25
682.424	63.2
682.75	63.12
683.077	63.28
683.403	63.31
683.729	63.4
684.056	63.4
684.382	63.56
684.708	63.56
685.034	63.46
685.36	63.59
685.686	63.59
686.012	63.54
686.339	63.53
686.664	63.38
686.99	63.24
687.316	63.1
687.642	63.09
687.968	63.11
688.294	63.12
688.619	63.07
688.945	63.06
689.271	63.09
689.596	62.95
689.922	62.79
690.247	62.72
690.573	62.69
690.898	62.66
691.224	62.41
691.549	62.56
691.874	62.51
692.2	62.4
692.525	62.32
692.85	62.51
693.175	62.55
693.5	62.68
693.825	62.87
694.15	63.01
694.475	62.89
694.8	62.93
695.125	63.05
695.45	63.27
695.775	63.29
696.099	63.33
696.424	63.62
696.749	63.65
697.073	63.73
697.398	63.73
697.723	63.84
698.047	63.9
698.372	63.9
698.696	64.03
699.02	64.16
699.345	64.13
699.669	64.1
699.993	64.05
700.318	64.12
700.642	63.96
700.966	63.9
701.29	63.97
701.614	63.98
701.938	64.06
702.262	63.76
702.586	63.88
702.91	63.84
703.234	63.77
703.557	63.74
703.881	63.74
704.205	63.65
704.529	63.56
704.852	63.65
705.176	63.56
705.499	63.55
705.823	63.52
706.146	63.56
706.47	63.37
706.793	63.5
707.117	63.43
707.44	63.41
707.763	63.39
708.086	63.56
708.409	63.58
708.733	63.47
709.056	63.76
709.379	63.68
709.702	63.61
710.025	63.5
710.348	63.46
710.671	63.41
710.993	63.45
711.316	63.23
711.639	63.06
711.962	63.48
712.284	63.54
712.607	63.51
712.93	63.52
713.252	63.64
713.575	63.48
713.897	63.33
714.22	63.62
714.542	63.6
714.864	63.48
715.187	63.49
715.509	63.43
715.831	63.27
716.153	63.29
716.475	63.28
716.798	63.37
717.12	63.36
717.442	63.57
717.764	63.76
718.085	63.97
718.407	64.16
718.729	63.88
719.051	63.9
719.373	63.97
719.695	64.07
720.016	64.15
720.338	64.34
720.659	64.66
720.981	64.47
721.302	64.8
721.624	64.52
721.945	64.57
722.267	64.75
722.588	64.87
722.909	64.66
723.231	64.91
723.552	64.65
723.873	64.66
724.194	64.47
724.515	64.44
724.836	64.62
725.157	64.69
725.478	64.63
725.799	64.42
726.12	64.3
726.441	64.31
726.762	64.14
727.083	64.28
727.403	64.26
727.724	64.38
728.045	64.44
728.365	64.73
728.686	64.81
729.006	64.55
729.327	64.63
729.647	64.81
729.967	64.75
730.288	64.85
730.608	64.91
730.928	64.66
731.249	64.38
731.569	64.37
731.889	64.37
732.209	64.3
732.529	64.4
732.849	64.49
733.169	64.21
733.489	64.47
733.809	64.37
734.129	64.23
734.448	63.98
734.768	63.89
735.088	64.1
735.408	63.95
735.727	64.2
736.047	63.98
736.366	63.94
736.686	63.88
737.005	63.91
737.325	64.01
737.644	64.47
737.963	64.54
738.283	64.44
738.602	64.47
738.921	64.73
739.24	64.88
739.56	65.23
739.879	65.5
740.198	65.4
740.517	65.18
740.836	65.67
741.155	65.95
741.473	65.82
741.792	65.66
742.111	65.56
742.43	65.5
742.748	65.88
743.067	65.88
743.386	65.77
743.704	65.82
744.023	66.04
744.341	65.95
744.66	66.14
744.978	66.03
745.297	66.18
745.615	65.92
745.933	65.86
746.252	65.55
746.57	65.37
746.888	65.18
747.206	65.3
747.524	64.97
747.842	65.02
748.16	65.14
748.478	64.99
748.796	65.28
749.114	65.6
749.432	65.46
749.749	65.62
750.067	65.68
750.385	65.66
750.703	65.43
751.02	65.22
751.338	65.18
751.655	65.13
751.973	64.97
752.29	65.07
752.608	64.9
752.925	64.69
753.242	64.76
753.56	65.08
753.877	64.98
754.194	64.68
754.511	64.46
754.828	64.57
755.145	64.69
755.462	64.41
755.779	63.84
756.096	64
756.413	63.77
756.73	63.85
757.047	63.47
757.364	63.71
757.68	63.83
757.997	63.97
758.314	64.24
758.63	64.17
758.947	64.11
759.264	64.54
759.58	64.36
759.896	64.38
760.213	64.37
760.529	64.74
760.846	64.81
761.162	65.27
761.478	65.38
761.794	64.97
762.11	65.44
762.426	65.61
762.743	65.3
763.059	65.52
763.375	65.47
763.69	65.86
764.006	65.6
764.322	65.53
764.638	65.78
764.954	65.78
765.27	65.92
765.585	65.94
765.901	65.48
766.216	65.81
766.532	66.22
766.848	66.15
767.163	66.11
767.478	66.2
767.794	65.8
768.109	65.2
768.424	65.46
768.74	65.32
769.055	65.1
769.37	65.49
769.685	65.19
770	65.32
770.315	64.96
770.63	65.06
770.945	64.8
771.26	64.19
771.575	64.54
771.89	63.99
772.205	63.92
772.52	64.3
772.834	63.74
773.149	63.2
773.464	63.14
773.778	62.79
774.093	62.91
774.407	63.31
774.722	64.04
775.036	64.66
775.351	64.42
775.665	64.4
775.979	63.75
776.293	64.05
776.608	63.97
776.922	63.57
777.236	63.61
777.55	64.15
777.864	64.48
778.178	63.72
778.492	63.74
778.806	63.51
779.12	63.47
779.434	64
779.747	64.38
780.061	64.67
780.375	64.47
780.689	64.62
781.002	64.49
781.316	64.34
781.629	63.41
781.943	63.7
782.256	64.17
782.57	64.72
782.883	64.42
783.196	64.19
783.51	65.02
783.823	64.97
784.136	64.64
784.449	64.5
784.762	64.82
785.075	65
785.388	65.85
785.701	65.34
786.014	64.6
786.327	64.5
786.64	64.42
786.953	64.85
787.266	64.52
787.578	63.6
787.891	63.87
788.204	64.68
788.516	64.32
788.829	64.29
789.141	64.69
789.454	64.65
789.766	65.42
790.079	65.23
790.391	65.95
790.703	66.62
791.016	66.73
791.328	67.07
791.64	67.44
791.952	67.01
792.264	67.32
792.576	68.22
792.888	67.73
793.2	67.73
793.512	67.77
793.824	67.59
794.136	69.05
794.448	68.62
794.76	67.93
795.071	67.7
795.383	67.28
795.695	66.66
796.006	66.71
796.318	66.22
796.629	66.74
796.941	65.98
797.252	65.22
797.564	64.46
797.875	64.06
798.186	64.14
798.497	64.33
798.809	64.73
799.12	64.36
799.431	64.69
799.742	64.42
800.053	64.23
800.364	65
800.675	64.7
800.986	64.84
801.297	65.44
801.608	65.62
801.918	65.82
802.229	66.14
802.54	66.01
802.851	65.51
803.161	65.48
803.472	65.27
803.782	66.44
804.093	66.73
804.403	66.78
804.714	66.93
805.024	66.82
805.334	66.8
805.645	66.77
805.955	66.56
806.265	67.02
806.575	67.25
806.885	66.89
807.195	66.66
807.505	66.48
807.815	65.88
808.125	65.94
808.435	65.73
808.745	65.59
809.055	65.84
809.365	66.45
809.674	66.43
809.984	66.54
810.294	65.98
810.603	66.12
810.913	65.89
811.222	65.34
811.532	65.44
811.841	65.18
812.151	65.67
812.46	66.57
812.769	66.1
813.079	66.66
813.388	66.35
813.697	66.46
814.006	65.95
814.315	66.91
814.624	66.83
814.933	67.44
815.242	67.34
815.551	67.57
815.86	67.33
816.169	66.28
816.478	66.21
816.786	66.07
817.095	66.21
817.404	66.82
817.712	66.95
818.021	66.42
818.33	66.68
818.638	65.93
818.947	65.45
819.255	65.35
819.563	65.36
819.872	65.49
820.18	65.83
820.488	66.49
820.796	66.22
821.105	66.45
821.413	66.46
821.721	66.77
822.029	66.79
822.337	67.19
822.645	67.5
822.953	67.52
823.26	67.41
823.568	67.58
823.876	67.32
824.184	67.4
824.491	67.53
824.799	67.34
825.107	67.36
825.414	67.42
825.722	67.41
826.029	67.46
826.337	67.46
826.644	67.26
826.951	67.38
827.259	67.42
827.566	67.08
827.873	66.96
828.18	66.8
828.488	66.68
828.795	66.14
829.102	65.94
829.409	66.05
829.716	66.06
830.023	65.91
830.329	66.21
830.636	66.13
830.943	65.87
831.25	66.36
831.557	66.77
831.863	67.03
832.17	67.46
832.476	67.87
832.783	67.73
833.089	67.05
833.396	66.9
833.702	67.2
834.009	67.86
834.315	68.1
834.621	68.09
834.928	68.14
835.234	68.71
835.54	68.94
835.846	68.57
836.152	68.55
836.458	68.06
836.764	67.32
837.07	67.36
837.376	67.71
837.682	67.26
837.988	67.11
838.293	67.36
838.599	67.07
838.905	66.28
839.211	66.82
839.516	68.66
839.822	68.38
840.127	68.11
840.433	68.14
840.738	68.26
841.044	67.81
841.349	67.98
841.654	66.44
841.959	65.6
842.265	66.76
842.57	67.53
842.875	68.76
843.18	70.46
843.485	70.72
843.79	70.48
844.095	70.3
844.4	70.38
844.705	70.07
845.01	69.85
845.315	69.81
845.619	69.86
845.924	70.04
846.229	71.25
846.533	71.63
846.838	71.29
847.142	72.16
847.447	73.68
847.751	73.86
848.056	76.04
848.36	77.48
848.664	77.47
848.969	76.53
849.273	75.04
849.577	73.43
849.881	70.86
850.185	69.9
850.489	69.24
850.794	70.18
851.097	70.9
851.401	70.13
851.705	70.64
852.009	71.14
852.313	70.55
852.617	67.43
852.92	66.8
853.224	68.95
853.528	68.95
853.831	67.36
854.135	66.21
854.438	65.04
854.742	64.57
855.045	63.09
855.349	65.15
855.652	67.3
855.955	68.77
856.259	69.07
856.562	70.46
856.865	73.77
857.168	72.07
857.471	69.29
857.774	71.01
858.077	68.79
858.38	69.72
858.683	68.56
858.986	66.96
859.289	67.39
859.592	64.14
859.894	63.99
860.197	63.23
860.5	64.45
860.802	64.9
861.105	66.69
861.407	68.34
861.71	65.51
862.012	63.5
862.315	62.82
862.617	63.69
862.919	62.92
863.222	60.86
863.524	61.73
863.826	60.17
864.128	63.95
864.43	67.7
864.732	64.96
865.034	65.46
865.336	68.82
865.638	69.4
865.94	69.63
866.242	66.47
866.544	66.99
866.846	66.06
867.147	64.69
867.449	65.96
867.751	64.05
868.052	63.9
868.354	64.69
868.655	67.31
868.957	66.61
869.258	65.7
869.56	66.71
869.861	69.95
870.162	73.27
870.463	68.84
870.765	64.22
871.066	64.4
871.367	63.51
871.668	59.76
871.969	58.88
872.27	57.57
872.571	58.06
872.872	56.57
873.173	55.5
873.473	56.06
873.774	52.14
874.075	52.31
874.376	52.21
874.676	54.69
874.977	53.26
875.277	55.84
875.578	57.77
875.878	56.59
876.179	52.86
876.479	50.56
876.78	50.99
877.08	53.56
877.38	53.18
877.68	53.61
877.981	57.56
878.281	57.57
878.581	61.79
