Data from MVZ_BU165823_Reflection_00014.txt Node
Date: Tue Nov 19 12:10:44 EST 2019
User: vgr7
Spectrometer: USB2G7710
Scans to average: 3
Trigger mode: 4
Integration Time (sec): 2.000000E-2
Electric dark correction enabled: true
Boxcar width: 10
XAxis mode: Wavelengths
Number of Pixels in Spectrum: 2048
>>>>>Begin Spectral Data<<<<<
177.721	2.08
178.105	-5.99
178.488	-47.6
178.871	-67.77
179.254	-68.09
179.636	-97.04
180.019	-20.2
180.402	-25
180.785	-124.59
181.168	-78.27
181.55	24.89
181.933	-32.31
182.316	-226.59
182.698	-2036.36
183.081	-71.53
183.463	156.7
183.846	151.02
184.228	52.33
184.611	10.86
184.993	-4.06
185.376	-4.4
185.758	37.46
186.14	36.18
186.522	6.13
186.904	5.74
187.287	10.16
187.669	5.1
188.051	20.78
188.433	14.44
188.815	13.33
189.197	4.64
189.579	21.37
189.961	-1.01
190.342	-5.15
190.724	2
191.106	12.48
191.488	28.31
191.869	25.08
192.251	16.71
192.633	26.67
193.014	19.28
193.396	-16.38
193.777	-53.77
194.159	-45.51
194.54	-41.23
194.922	-69.05
195.303	-67.1
195.684	-136.14
196.065	-167.89
196.447	-121.65
196.828	-133.42
197.209	-114.66
197.59	-141.89
197.971	-86.51
198.352	-78.87
198.733	-118.47
199.114	-80.31
199.495	-82.27
199.876	-76.18
200.257	-104.57
200.638	-95.84
201.018	-89.54
201.399	-61.22
201.78	-8.01
202.16	-28.9
202.541	-18.86
202.922	-21.14
203.302	-54.52
203.683	-36.24
204.063	-22.09
204.444	-12.51
204.824	9.02
205.204	0.12
205.585	8.33
205.965	-0.84
206.345	-3.38
206.725	16.44
207.106	17.74
207.486	7.09
207.866	12.52
208.246	4.52
208.626	-3.67
209.006	-4.92
209.386	-7.39
209.766	-20.87
210.145	-22.18
210.525	-29.37
210.905	-13.73
211.285	-0.9
211.664	-2.75
212.044	-8.7
212.424	-9.96
212.803	-32.73
213.183	-25.75
213.562	-27.29
213.942	-18.41
214.321	-10.45
214.701	-19.49
215.08	-5.83
215.459	-0.22
215.838	-26.38
216.218	-37.4
216.597	-35.11
216.976	-58.45
217.355	-34.8
217.734	-23.81
218.113	1.49
218.492	4.7
218.871	-2.62
219.25	-6.64
219.629	-2.97
220.008	10.59
220.387	19.8
220.766	46.35
221.144	23.47
221.523	14.65
221.902	9.46
222.28	22.84
222.659	34.26
223.037	30.34
223.416	22.75
223.794	32.4
224.173	37.36
224.551	36.33
224.929	30.08
225.308	23.03
225.686	16.47
226.064	10.12
226.442	6.36
226.821	9.61
227.199	8.98
227.577	9.84
227.955	10.12
228.333	6.04
228.711	4.31
229.089	8.65
229.467	6.47
229.845	4.41
230.222	3.55
230.6	1.84
230.978	0.08
231.356	2.05
231.733	2.5
232.111	1.03
232.488	0.02
232.866	2.29
233.243	4.86
233.621	6.02
233.998	5.69
234.376	6.43
234.753	4.56
235.13	6.92
235.508	6.34
235.885	5.93
236.262	7.73
236.639	8.35
237.016	6.34
237.393	6.55
237.77	6.54
238.147	5.57
238.524	4.84
238.901	4.58
239.278	3.97
239.655	3.88
240.032	4.31
240.409	4.9
240.785	3.43
241.162	3.27
241.539	3.13
241.915	3.61
242.292	4.04
242.668	4.32
243.045	4.48
243.421	4.74
243.798	4.55
244.174	4.24
244.551	3.66
244.927	3.81
245.303	3.88
245.679	4.19
246.056	4.33
246.432	4.4
246.808	4.35
247.184	4.38
247.56	4.31
247.936	4.59
248.312	4.69
248.688	4.8
249.064	4.64
249.44	4.6
249.815	4.65
250.191	4.73
250.567	4.7
250.943	4.38
251.318	4.45
251.694	4.47
252.069	4.66
252.445	5.06
252.82	5.43
253.196	5.74
253.571	5.67
253.947	5.56
254.322	5.32
254.697	5.54
255.073	5.44
255.448	5.21
255.823	4.69
256.198	4.58
256.573	4.86
256.948	5
257.323	5.03
257.698	4.83
258.073	4.64
258.448	4.58
258.823	4.34
259.198	4.08
259.573	4.1
259.948	4.03
260.322	3.91
260.697	3.94
261.072	3.78
261.446	3.82
261.821	3.8
262.195	3.89
262.57	3.87
262.944	3.88
263.319	4.19
263.693	4.19
264.067	4.09
264.442	4.04
264.816	3.77
265.19	3.59
265.564	3.54
265.938	3.6
266.313	3.46
266.687	3.61
267.061	3.67
267.435	3.64
267.809	3.62
268.183	3.75
268.556	3.44
268.93	3.42
269.304	3.32
269.678	3.33
270.051	3.44
270.425	3.4
270.799	3.21
271.172	2.99
271.546	3.12
271.919	3.27
272.293	3.39
272.666	3.53
273.04	3.79
273.413	3.68
273.787	3.59
274.16	3.58
274.533	3.69
274.906	3.66
275.279	3.66
275.653	3.78
276.026	3.82
276.399	3.88
276.772	3.86
277.145	3.89
277.518	3.92
277.891	3.78
278.263	3.81
278.636	3.95
279.009	4.06
279.382	3.92
279.755	3.84
280.127	3.64
280.5	3.64
280.872	3.74
281.245	3.95
281.617	4.04
281.99	4.35
282.362	4.25
282.735	4.25
283.107	4.16
283.479	4.03
283.852	4.03
284.224	4.06
284.596	3.98
284.968	3.86
285.34	3.89
285.713	3.92
286.085	3.83
286.457	3.83
286.829	3.81
287.201	3.82
287.572	3.82
287.944	3.95
288.316	3.95
288.688	3.9
289.06	3.92
289.431	4.06
289.803	3.96
290.175	4.01
290.546	4.03
290.918	4.11
291.289	4.05
291.661	3.95
292.032	3.96
292.403	4.09
292.775	4.37
293.146	4.39
293.517	4.41
293.889	4.62
294.26	4.67
294.631	4.78
295.002	4.87
295.373	5
295.744	4.88
296.115	4.95
296.486	4.83
296.857	4.78
297.228	4.5
297.599	4.35
297.97	4.4
298.34	4.46
298.711	4.42
299.082	4.56
299.452	4.65
299.823	4.77
300.194	4.86
300.564	4.79
300.935	4.86
301.305	4.8
301.676	4.74
302.046	4.91
302.416	4.85
302.787	4.75
303.157	4.57
303.527	4.79
303.897	4.85
304.267	4.97
304.637	5.05
305.008	5.24
305.378	5.52
305.748	5.6
306.117	5.71
306.487	5.85
306.857	5.87
307.227	5.82
307.597	5.79
307.967	5.83
308.336	5.91
308.706	5.94
309.076	6.15
309.445	6.29
309.815	6.21
310.184	6.22
310.554	6.43
310.923	6.69
311.293	6.73
311.662	6.81
312.031	6.79
312.401	6.79
312.77	6.87
313.139	6.9
313.508	7
313.877	7.01
314.246	7
314.616	7.21
314.985	7.46
315.353	7.59
315.722	7.74
316.091	7.71
316.46	7.8
316.829	7.96
317.198	8.02
317.567	8.22
317.935	8.37
318.304	8.57
318.672	8.55
319.041	8.53
319.41	8.54
319.778	8.76
320.147	8.78
320.515	8.86
320.883	8.83
321.252	8.83
321.62	8.87
321.988	9.01
322.357	9
322.725	8.99
323.093	9
323.461	8.96
323.829	9.13
324.197	9.23
324.565	9.23
324.933	9.18
325.301	8.99
325.669	8.99
326.037	8.85
326.405	8.76
326.772	8.85
327.14	8.87
327.508	8.85
327.875	9.02
328.243	9.03
328.61	9.23
328.978	9.18
329.346	9.35
329.713	9.46
330.08	9.55
330.448	9.52
330.815	9.5
331.182	9.47
331.55	9.38
331.917	9.25
332.284	9.25
332.651	9.33
333.018	9.51
333.385	9.7
333.752	9.81
334.119	9.92
334.486	9.91
334.853	9.95
335.22	10
335.587	9.93
335.954	9.94
336.32	9.82
336.687	9.92
337.054	9.81
337.42	9.72
337.787	9.6
338.153	9.73
338.52	9.91
338.886	10
339.253	9.95
339.619	9.97
339.986	9.88
340.352	9.83
340.718	9.77
341.084	9.75
341.451	9.81
341.817	9.88
342.183	9.88
342.549	10.04
342.915	10.05
343.281	10.12
343.647	10.19
344.013	10.23
344.379	10.2
344.745	10.23
345.11	10.31
345.476	10.5
345.842	10.45
346.208	10.48
346.573	10.47
346.939	10.52
347.304	10.65
347.67	10.61
348.035	10.72
348.401	10.84
348.766	10.76
349.132	10.77
349.497	10.77
349.862	10.79
350.228	10.59
350.593	10.53
350.958	10.56
351.323	10.52
351.688	10.53
352.053	10.59
352.418	10.66
352.783	10.7
353.148	10.57
353.513	10.47
353.878	10.27
354.243	10.24
354.608	10.3
354.972	10.26
355.337	10.37
355.702	10.24
356.066	10.17
356.431	10.21
356.795	10.18
357.16	10.15
357.524	10.08
357.889	10.12
358.253	10.15
358.618	10.04
358.982	10.01
359.346	10.03
359.71	9.96
360.075	9.9
360.439	9.76
360.803	9.72
361.167	9.69
361.531	9.7
361.895	9.68
362.259	9.68
362.623	9.59
362.987	9.48
363.351	9.48
363.714	9.45
364.078	9.35
364.442	9.22
364.806	9.16
365.169	9.13
365.533	9.04
365.896	8.98
366.26	9.02
366.623	8.91
366.987	8.8
367.35	8.77
367.714	8.64
368.077	8.56
368.44	8.5
368.803	8.58
369.167	8.6
369.53	8.58
369.893	8.52
370.256	8.47
370.619	8.43
370.982	8.33
371.345	8.25
371.708	8.18
372.071	8.08
372.434	8.03
372.797	8.01
373.159	7.98
373.522	7.91
373.885	7.87
374.247	7.91
374.61	7.82
374.973	7.76
375.335	7.74
375.698	7.71
376.06	7.66
376.423	7.58
376.785	7.47
377.147	7.38
377.51	7.28
377.872	7.23
378.234	7.25
378.596	7.23
378.958	7.16
379.321	7.15
379.683	7.15
380.045	7.05
380.407	6.93
380.769	6.8
381.13	6.71
381.492	6.57
381.854	6.44
382.216	6.45
382.578	6.33
382.939	6.23
383.301	6.2
383.663	6.19
384.024	6.1
384.386	6.03
384.747	5.94
385.109	5.86
385.47	5.83
385.832	5.79
386.193	5.72
386.554	5.68
386.916	5.64
387.277	5.55
387.638	5.51
387.999	5.53
388.36	5.56
388.721	5.57
389.082	5.59
389.443	5.57
389.804	5.51
390.165	5.48
390.526	5.45
390.887	5.45
391.248	5.39
391.609	5.4
391.969	5.44
392.33	5.44
392.691	5.43
393.051	5.39
393.412	5.33
393.772	5.3
394.133	5.28
394.493	5.27
394.854	5.26
395.214	5.29
395.574	5.25
395.935	5.23
396.295	5.2
396.655	5.15
397.015	5.12
397.376	5.09
397.736	5.07
398.096	5.06
398.456	4.98
398.816	4.96
399.176	4.88
399.535	4.78
399.895	4.74
400.255	4.74
400.615	4.7
400.975	4.67
401.334	4.66
401.694	4.66
402.054	4.61
402.413	4.62
402.773	4.58
403.132	4.55
403.492	4.54
403.851	4.48
404.211	4.47
404.57	4.44
404.929	4.39
405.288	4.37
405.648	4.36
406.007	4.34
406.366	4.3
406.725	4.28
407.084	4.25
407.443	4.24
407.802	4.2
408.161	4.17
408.52	4.18
408.879	4.18
409.238	4.12
409.596	4.07
409.955	4.04
410.314	4.01
410.673	4
411.031	3.94
411.39	3.94
411.748	3.92
412.107	3.88
412.465	3.88
412.824	3.9
413.182	3.87
413.54	3.86
413.899	3.85
414.257	3.87
414.615	3.89
414.974	3.91
415.332	3.9
415.69	3.93
416.048	3.91
416.406	3.9
416.764	3.9
417.122	3.9
417.48	3.87
417.838	3.86
418.195	3.84
418.553	3.83
418.911	3.8
419.269	3.77
419.626	3.77
419.984	3.76
420.342	3.74
420.699	3.73
421.057	3.71
421.414	3.71
421.772	3.69
422.129	3.66
422.486	3.64
422.844	3.62
423.201	3.59
423.558	3.56
423.915	3.54
424.273	3.53
424.63	3.51
424.987	3.53
425.344	3.53
425.701	3.5
426.058	3.48
426.415	3.48
426.772	3.48
427.128	3.48
427.485	3.46
427.842	3.41
428.199	3.42
428.555	3.43
428.912	3.37
429.269	3.35
429.625	3.35
429.982	3.32
430.338	3.31
430.695	3.28
431.051	3.29
431.407	3.27
431.764	3.26
432.12	3.28
432.476	3.25
432.832	3.23
433.189	3.24
433.545	3.25
433.901	3.23
434.257	3.24
434.613	3.23
434.969	3.24
435.325	3.26
435.681	3.25
436.036	3.23
436.392	3.25
436.748	3.24
437.104	3.25
437.459	3.25
437.815	3.26
438.171	3.28
438.526	3.29
438.882	3.3
439.237	3.28
439.593	3.26
439.948	3.27
440.304	3.28
440.659	3.28
441.014	3.26
441.369	3.28
441.725	3.26
442.08	3.25
442.435	3.26
442.79	3.26
443.145	3.27
443.5	3.26
443.855	3.27
444.21	3.27
444.565	3.28
444.92	3.28
445.275	3.27
445.629	3.25
445.984	3.24
446.339	3.24
446.693	3.25
447.048	3.24
447.403	3.24
447.757	3.22
448.112	3.22
448.466	3.22
448.82	3.21
449.175	3.21
449.529	3.21
449.883	3.2
450.238	3.19
450.592	3.16
450.946	3.16
451.3	3.15
451.654	3.15
452.008	3.13
452.362	3.13
452.716	3.11
453.07	3.12
453.424	3.12
453.778	3.1
454.132	3.1
454.486	3.13
454.839	3.11
455.193	3.12
455.547	3.1
455.9	3.12
456.254	3.13
456.607	3.14
456.961	3.15
457.314	3.15
457.668	3.15
458.021	3.15
458.375	3.14
458.728	3.14
459.081	3.14
459.434	3.13
459.787	3.14
460.141	3.16
460.494	3.17
460.847	3.18
461.2	3.17
461.553	3.17
461.906	3.17
462.259	3.15
462.611	3.17
462.964	3.18
463.317	3.16
463.67	3.17
464.022	3.16
464.375	3.17
464.728	3.18
465.08	3.2
465.433	3.19
465.785	3.2
466.138	3.23
466.49	3.22
466.843	3.24
467.195	3.24
467.547	3.23
467.899	3.21
468.252	3.23
468.604	3.27
468.956	3.3
469.308	3.28
469.66	3.32
470.012	3.3
470.364	3.31
470.716	3.34
471.068	3.33
471.42	3.35
471.772	3.36
472.123	3.38
472.475	3.39
472.827	3.4
473.178	3.44
473.53	3.44
473.882	3.49
474.233	3.5
474.585	3.49
474.936	3.53
475.288	3.54
475.639	3.52
475.99	3.51
476.342	3.51
476.693	3.52
477.044	3.51
477.395	3.51
477.746	3.5
478.097	3.48
478.448	3.46
478.8	3.44
479.15	3.44
479.501	3.42
479.852	3.41
480.203	3.42
480.554	3.41
480.905	3.4
481.255	3.37
481.606	3.37
481.957	3.37
482.307	3.37
482.658	3.38
483.009	3.38
483.359	3.37
483.709	3.37
484.06	3.37
484.41	3.38
484.761	3.39
485.111	3.39
485.461	3.38
485.811	3.38
486.162	3.37
486.512	3.37
486.862	3.37
487.212	3.37
487.562	3.36
487.912	3.35
488.262	3.35
488.612	3.36
488.961	3.36
489.311	3.37
489.661	3.36
490.011	3.36
490.36	3.35
490.71	3.35
491.06	3.34
491.409	3.34
491.759	3.34
492.108	3.35
492.458	3.34
492.807	3.36
493.157	3.38
493.506	3.4
493.855	3.41
494.204	3.42
494.554	3.42
494.903	3.44
495.252	3.47
495.601	3.49
495.95	3.5
496.299	3.52
496.648	3.53
496.997	3.53
497.346	3.54
497.695	3.58
498.043	3.64
498.392	3.68
498.741	3.71
499.09	3.75
499.438	3.77
499.787	3.82
500.135	3.85
500.484	3.87
500.832	3.91
501.181	3.95
501.529	4
501.878	4.04
502.226	4.07
502.574	4.1
502.923	4.15
503.271	4.2
503.619	4.24
503.967	4.3
504.315	4.38
504.663	4.42
505.011	4.45
505.359	4.48
505.707	4.51
506.055	4.55
506.403	4.6
506.751	4.63
507.098	4.7
507.446	4.75
507.794	4.81
508.141	4.88
508.489	4.96
508.837	5.03
509.184	5.1
509.531	5.19
509.879	5.25
510.226	5.31
510.574	5.4
510.921	5.45
511.268	5.53
511.616	5.6
511.963	5.7
512.31	5.78
512.657	5.85
513.004	5.95
513.351	6.04
513.698	6.14
514.045	6.26
514.392	6.37
514.739	6.48
515.086	6.62
515.432	6.72
515.779	6.84
516.126	6.96
516.473	7.06
516.819	7.16
517.166	7.28
517.512	7.35
517.859	7.45
518.205	7.54
518.552	7.64
518.898	7.74
519.245	7.84
519.591	7.95
519.937	8.09
520.283	8.2
520.629	8.3
520.976	8.42
521.322	8.56
521.668	8.67
522.014	8.82
522.36	8.94
522.706	9.07
523.052	9.22
523.398	9.35
523.743	9.5
524.089	9.65
524.435	9.79
524.781	9.98
525.126	10.1
525.472	10.24
525.817	10.33
526.163	10.44
526.509	10.52
526.854	10.61
527.199	10.71
527.545	10.79
527.89	10.89
528.235	10.98
528.581	11.07
528.926	11.17
529.271	11.25
529.616	11.33
529.961	11.43
530.306	11.52
530.651	11.63
530.996	11.75
531.341	11.88
531.686	12.01
532.031	12.13
532.376	12.25
532.721	12.39
533.065	12.53
533.41	12.68
533.755	12.83
534.099	12.98
534.444	13.12
534.788	13.28
535.133	13.42
535.477	13.58
535.822	13.73
536.166	13.9
536.51	14.07
536.855	14.29
537.199	14.47
537.543	14.66
537.887	14.86
538.231	15.08
538.576	15.26
538.92	15.44
539.264	15.61
539.608	15.81
539.951	15.96
540.295	16.16
540.639	16.32
540.983	16.48
541.327	16.65
541.671	16.81
542.014	16.97
542.358	17.14
542.701	17.31
543.045	17.51
543.389	17.67
543.732	17.85
544.075	17.99
544.419	18.17
544.762	18.36
545.105	18.54
545.449	18.73
545.792	18.95
546.135	19.19
546.478	19.43
546.821	19.7
547.165	19.98
547.508	20.23
547.851	20.48
548.194	20.77
548.536	21.04
548.879	21.29
549.222	21.57
549.565	21.82
549.908	22.07
550.25	22.31
550.593	22.61
550.936	22.93
551.278	23.25
551.621	23.6
551.963	23.9
552.306	24.21
552.648	24.43
552.991	24.71
553.333	25
553.675	25.27
554.017	25.5
554.36	25.76
554.702	26.05
555.044	26.35
555.386	26.56
555.728	26.8
556.07	27.09
556.412	27.34
556.754	27.64
557.096	27.99
557.438	28.25
557.78	28.56
558.121	28.85
558.463	29.18
558.805	29.49
559.147	29.79
559.488	30.04
559.83	30.39
560.171	30.67
560.513	30.97
560.854	31.27
561.196	31.61
561.537	31.9
561.878	32.22
562.22	32.48
562.561	32.83
562.902	33.11
563.243	33.42
563.584	33.73
563.925	34.07
564.266	34.26
564.607	34.58
564.948	34.83
565.289	35.08
565.63	35.3
565.971	35.5
566.312	35.75
566.653	36.06
566.993	36.34
567.334	36.61
567.675	36.86
568.015	37.1
568.356	37.35
568.696	37.66
569.037	37.83
569.377	38.09
569.718	38.34
570.058	38.6
570.398	38.79
570.739	39.01
571.079	39.17
571.419	39.42
571.759	39.64
572.099	39.9
572.439	40.15
572.779	40.36
573.119	40.6
573.459	40.79
573.799	40.92
574.139	41.08
574.479	41.3
574.819	41.48
575.158	41.73
575.498	41.92
575.838	42.09
576.177	42.29
576.517	42.44
576.856	42.66
577.196	42.84
577.535	43.09
577.875	43.31
578.214	43.54
578.553	43.74
578.893	43.98
579.232	44.17
579.571	44.34
579.91	44.57
580.25	44.76
580.589	44.99
580.928	45.27
581.267	45.46
581.606	45.63
581.945	45.82
582.283	46.01
582.622	46.11
582.961	46.26
583.3	46.49
583.639	46.68
583.977	46.82
584.316	47.02
584.654	47.15
584.993	47.32
585.332	47.53
585.67	47.65
586.008	47.72
586.347	47.76
586.685	47.88
587.024	47.94
587.362	48.04
587.7	48.19
588.038	48.31
588.376	48.53
588.715	48.58
589.053	48.65
589.391	48.83
589.729	48.99
590.067	49.12
590.404	49.29
590.742	49.45
591.08	49.53
591.418	49.68
591.756	49.83
592.093	49.9
592.431	50.06
592.769	50.2
593.106	50.32
593.444	50.43
593.781	50.54
594.119	50.68
594.456	50.73
594.793	50.71
595.131	50.8
595.468	50.82
595.805	50.93
596.143	51
596.48	50.95
596.817	51.04
597.154	51.09
597.491	51.07
597.828	51.14
598.165	51.2
598.502	51.27
598.839	51.35
599.176	51.44
599.512	51.52
599.849	51.64
600.186	51.75
600.523	51.85
600.859	51.98
601.196	51.97
601.532	52.14
601.869	52.3
602.205	52.36
602.542	52.47
602.878	52.59
603.215	52.75
603.551	52.86
603.887	52.97
604.223	53.01
604.56	53.06
604.896	53.15
605.232	53.24
605.568	53.35
605.904	53.39
606.24	53.48
606.576	53.45
606.912	53.44
607.248	53.46
607.583	53.58
607.919	53.65
608.255	53.78
608.591	53.84
608.926	53.91
609.262	53.96
609.597	54.05
609.933	54.06
610.268	54.05
610.604	54.06
610.939	54.05
611.275	54.09
611.61	54.23
611.945	54.3
612.281	54.34
612.616	54.36
612.951	54.48
613.286	54.54
613.621	54.6
613.956	54.71
614.291	54.8
614.626	54.83
614.961	54.91
615.296	55.02
615.631	55.14
615.966	55.18
616.3	55.25
616.635	55.27
616.97	55.29
617.304	55.38
617.639	55.54
617.973	55.6
618.308	55.69
618.642	55.74
618.977	55.71
619.311	55.68
619.646	55.62
619.98	55.64
620.314	55.64
620.648	55.69
620.983	55.77
621.317	55.83
621.651	55.73
621.985	55.59
622.319	55.57
622.653	55.49
622.987	55.54
623.321	55.55
623.655	55.51
623.988	55.63
624.322	55.58
624.656	55.55
624.99	55.63
625.323	55.6
625.657	55.55
625.99	55.61
626.324	55.71
626.657	55.68
626.991	55.73
627.324	55.79
627.658	55.86
627.991	55.87
628.324	55.91
628.657	55.95
628.991	56.03
629.324	56.12
629.657	56.21
629.99	56.23
630.323	56.2
630.656	56.34
630.989	56.43
631.322	56.44
631.655	56.48
631.987	56.44
632.32	56.53
632.653	56.57
632.986	56.6
633.318	56.61
633.651	56.76
633.984	56.74
634.316	56.76
634.649	56.79
634.981	56.86
635.313	56.87
635.646	56.98
635.978	56.98
636.31	57
636.643	56.95
636.975	56.96
637.307	57.1
637.639	57.09
637.971	57.02
638.303	57.04
638.635	57.02
638.967	57.1
639.299	57.14
639.631	57.21
639.963	57.27
640.295	57.24
640.626	57.19
640.958	57.1
641.29	57.09
641.621	57.09
641.953	56.9
642.285	56.91
642.616	56.92
642.948	57.05
643.279	57
643.61	57.07
643.942	57.03
644.273	57
644.604	56.9
644.936	56.78
645.267	56.93
645.598	56.91
645.929	56.89
646.26	56.93
646.591	57.05
646.922	57.04
647.253	57.14
647.584	57.06
647.915	57.26
648.245	57.27
648.576	57.33
648.907	57.39
649.238	57.41
649.568	57.53
649.899	57.57
650.229	57.64
650.56	57.73
650.89	57.81
651.221	57.85
651.551	57.94
651.882	58.06
652.212	58.06
652.542	58.22
652.872	58.28
653.203	58.33
653.533	58.29
653.863	58.28
654.193	58.28
654.523	58.38
654.853	58.32
655.183	58.3
655.513	58.36
655.843	58.52
656.172	58.5
656.502	58.39
656.832	58.28
657.162	58.25
657.491	58.14
657.821	58.07
658.15	58.09
658.48	58.12
658.809	58.12
659.139	58.02
659.468	57.99
659.798	58
660.127	57.92
660.456	57.86
660.785	57.86
661.115	57.67
661.444	57.69
661.773	57.63
662.102	57.67
662.431	57.65
662.76	57.51
663.089	57.58
663.418	57.66
663.747	57.66
664.076	57.6
664.404	57.7
664.733	57.73
665.062	57.7
665.39	57.66
665.719	57.72
666.048	57.86
666.376	57.94
666.705	58.05
667.033	58.09
667.362	58.19
667.69	58.17
668.018	58.38
668.347	58.5
668.675	58.63
669.003	58.72
669.331	58.68
669.659	58.88
669.987	58.82
670.315	58.75
670.643	58.76
670.971	58.85
671.299	58.83
671.627	58.86
671.955	58.9
672.283	58.88
672.61	58.8
672.938	58.78
673.266	58.65
673.593	58.55
673.921	58.62
674.249	58.44
674.576	58.51
674.904	58.41
675.231	58.28
675.558	58.28
675.886	58.18
676.213	58.15
676.54	58.06
676.867	58.16
677.195	58.24
677.522	58.29
677.849	58.41
678.176	58.45
678.503	58.44
678.83	58.52
679.157	58.59
679.484	58.54
679.81	58.57
680.137	58.64
680.464	58.62
680.791	58.52
681.117	58.58
681.444	58.54
681.771	58.55
682.097	58.61
682.424	58.58
682.75	58.59
683.077	58.61
683.403	58.67
683.729	58.72
684.056	58.67
684.382	58.54
684.708	58.32
685.034	58.21
685.36	58.31
685.686	58.24
686.012	58.25
686.339	58.34
686.664	58.23
686.99	58.11
687.316	58.05
687.642	58.05
687.968	58.08
688.294	58.13
688.619	58.29
688.945	58.47
689.271	58.42
689.596	58.47
689.922	58.48
690.247	58.42
690.573	58.27
690.898	58.32
691.224	58.44
691.549	58.47
691.874	58.56
692.2	58.5
692.525	58.53
692.85	58.51
693.175	58.43
693.5	58.52
693.825	58.68
694.15	58.66
694.475	58.76
694.8	58.85
695.125	58.8
695.45	58.82
695.775	58.7
696.099	58.87
696.424	58.72
696.749	58.75
697.073	58.79
697.398	58.87
697.723	58.84
698.047	58.86
698.372	58.97
698.696	58.91
699.02	58.94
699.345	59.06
699.669	59.07
699.993	59.2
700.318	59.23
700.642	59.24
700.966	59.36
701.29	59.37
701.614	59.22
701.938	59.18
702.262	59.17
702.586	59.12
702.91	58.91
703.234	58.94
703.557	59.08
703.881	59.1
704.205	59.06
704.529	59.16
704.852	59.24
705.176	59.33
705.499	59.48
705.823	59.48
706.146	59.38
706.47	59.33
706.793	59.2
707.117	58.95
707.44	58.77
707.763	58.78
708.086	58.75
708.409	58.96
708.733	59.01
709.056	58.73
709.379	58.69
709.702	58.6
710.025	58.88
710.348	58.78
710.671	58.79
710.993	58.68
711.316	58.75
711.639	58.83
711.962	58.86
712.284	58.73
712.607	58.71
712.93	58.7
713.252	58.77
713.575	59.03
713.897	59.34
714.22	59.44
714.542	59.42
714.864	59.18
715.187	58.98
715.509	59.11
715.831	59.24
716.153	59.28
716.475	59.58
716.798	59.44
717.12	59.39
717.442	59.28
717.764	59.42
718.085	59.26
718.407	59.23
718.729	59.09
719.051	59.2
719.373	59.31
719.695	59.18
720.016	59.11
720.338	59.06
720.659	58.89
720.981	58.82
721.302	58.86
721.624	59.15
721.945	58.98
722.267	58.9
722.588	59.14
722.909	59.28
723.231	59.34
723.552	59.4
723.873	59.17
724.194	59.37
724.515	59.34
724.836	59.26
725.157	59.1
725.478	59.2
725.799	59.02
726.12	59.16
726.441	59.24
726.762	59.11
727.083	58.9
727.403	58.89
727.724	59.14
728.045	59.13
728.365	59.17
728.686	59.17
729.006	59.08
729.327	59.14
729.647	59.09
729.967	58.82
730.288	58.84
730.608	59.15
730.928	59
731.249	58.93
731.569	59.09
731.889	59.23
732.209	59.14
732.529	59.05
732.849	58.99
733.169	58.95
733.489	59.08
733.809	59.41
734.129	59.4
734.448	59.21
734.768	59.24
735.088	59.38
735.408	59.75
735.727	60.01
736.047	59.73
736.366	59.57
736.686	59.65
737.005	59.55
737.325	59.36
737.644	59.3
737.963	59.3
738.283	59.35
738.602	59.15
738.921	59.23
739.24	59.4
739.56	59.31
739.879	59.33
740.198	59.23
740.517	59.27
740.836	59.29
741.155	59.46
741.473	59.65
741.792	59.62
742.111	59.72
742.43	59.56
742.748	60.05
743.067	60.42
743.386	60.59
743.704	60.46
744.023	60.46
744.341	60.5
744.66	60.73
744.978	60.39
745.297	60.45
745.615	60.4
745.933	60.63
746.252	60.71
746.57	60.78
746.888	60.89
747.206	60.61
747.524	60.68
747.842	60.51
748.16	60.47
748.478	60.27
748.796	60.1
749.114	60.04
749.432	59.76
749.749	59.36
750.067	59.17
750.385	59.49
750.703	59.63
751.02	59.65
751.338	59.28
751.655	59.57
751.973	59.75
752.29	59.66
752.608	59.53
752.925	59.65
753.242	59.73
753.56	59.54
753.877	59.31
754.194	59.35
754.511	59.48
754.828	58.83
755.145	58.59
755.462	58.87
755.779	58.95
756.096	58.38
756.413	58.76
756.73	58.89
757.047	58.8
757.364	58.86
757.68	58.92
757.997	59.18
758.314	59.13
758.63	58.77
758.947	58.87
759.264	58.87
759.58	58.34
759.896	57.95
760.213	58.21
760.529	58.36
760.846	58.4
761.162	58.51
761.478	58.94
761.794	59.07
762.11	58.63
762.426	59
762.743	59.08
763.059	58.91
763.375	58.96
763.69	58.99
764.006	58.83
764.322	58.81
764.638	58.9
764.954	58.75
765.27	58.81
765.585	58.68
765.901	58.67
766.216	58.97
766.532	59.01
766.848	59.19
767.163	59
767.478	58.7
767.794	58.64
768.109	58.48
768.424	58.19
768.74	58.38
769.055	57.88
769.37	57.99
769.685	58.04
770	57.92
770.315	58.13
770.63	58.43
770.945	58.61
771.26	58.08
771.575	58.42
771.89	58.3
772.205	58.35
772.52	58.11
772.834	57.75
773.149	57.74
773.464	57.42
773.778	57.74
774.093	58.5
774.407	58.4
774.722	58.5
775.036	59.08
775.351	59.2
775.665	59.24
775.979	59.61
776.293	59.71
776.608	59.78
776.922	59.26
777.236	59.41
777.55	59.76
777.864	60.35
778.178	60.24
778.492	60.53
778.806	60.74
779.12	61.43
779.434	61.79
779.747	62.21
780.061	62.71
780.375	62.51
780.689	62.26
781.002	62.15
781.316	62.3
781.629	62.27
781.943	62.08
782.256	61.91
782.57	61.81
782.883	61.41
783.196	61.68
783.51	62.06
783.823	62.23
784.136	61.47
784.449	61.57
784.762	62.07
785.075	62.26
785.388	62.54
785.701	61.9
786.014	61.42
786.327	61.73
786.64	61.46
786.953	61.76
787.266	61.56
787.578	61.6
787.891	61.68
788.204	61.35
788.516	61.11
788.829	61.22
789.141	61.48
789.454	61.8
789.766	61.57
790.079	61.69
790.391	61.3
790.703	61.96
791.016	61.53
791.328	61
791.64	60.93
791.952	60.58
792.264	60.75
792.576	60.94
792.888	61.23
793.2	61.02
793.512	60.78
793.824	61.02
794.136	61.12
794.448	61.12
794.76	61.91
795.071	62.11
795.383	61.77
795.695	62.09
796.006	61.97
796.318	61.89
796.629	61.48
796.941	61.18
797.252	60.66
797.564	61.42
797.875	61.25
798.186	61.46
798.497	61.09
798.809	61.25
799.12	61.3
799.431	60.75
799.742	60.43
800.053	60.89
800.364	61.12
800.675	61.16
800.986	61.1
801.297	59.77
801.608	60.18
801.918	60.79
802.229	60.28
802.54	60.24
802.851	60.06
803.161	59.88
803.472	59.93
803.782	60.08
804.093	60.59
804.403	60.73
804.714	61.12
805.024	61.58
805.334	61.86
805.645	62.29
805.955	62.75
806.265	63.27
806.575	62.44
806.885	61.62
807.195	61.28
807.505	60.47
807.815	61.22
808.125	61.18
808.435	61.18
808.745	60.73
809.055	61.42
809.365	61.44
809.674	61.37
809.984	61.45
810.294	61.43
810.603	59.8
810.913	59.45
811.222	58.72
811.532	59.07
811.841	58.37
812.151	57.86
812.46	56.81
812.769	56.16
813.079	56.05
813.388	55.89
813.697	55.6
814.006	55.91
814.315	55.62
814.624	55.63
814.933	55.38
815.242	55.58
815.551	55.36
815.86	56.01
816.169	56.25
816.478	56.21
816.786	55.94
817.095	56.57
817.404	57.32
817.712	57.47
818.021	57.2
818.33	57.17
818.638	56.88
818.947	57.05
819.255	57.21
819.563	57.19
819.872	57.46
820.18	57.92
820.488	58.59
820.796	58.8
821.105	58.98
821.413	59.18
821.721	59.16
822.029	59.03
822.337	59.05
822.645	59.02
822.953	58.96
823.26	59.09
823.568	58.82
823.876	58.77
824.184	58.56
824.491	58.46
824.799	58.68
825.107	58.89
825.414	59.17
825.722	59.34
826.029	59.45
826.337	59.59
826.644	59.48
826.951	59.3
827.259	59.23
827.566	59.02
827.873	58.91
828.18	59.2
828.488	59.39
828.795	59.26
829.102	59.01
829.409	59.38
829.716	59.24
830.023	59.46
830.329	59.25
830.636	59.5
830.943	59.25
831.25	58.84
831.557	58.89
831.863	58.52
832.17	58.21
832.476	58.4
832.783	58.47
833.089	58.71
833.396	58.19
833.702	58.41
834.009	58.56
834.315	58.3
834.621	57.88
834.928	57.65
835.234	57.65
835.54	57.91
835.846	57.49
836.152	57.59
836.458	57.59
836.764	58.29
837.07	58.22
837.376	58.88
837.682	59.17
837.988	58.44
838.293	57.96
838.599	58.6
838.905	58.43
839.211	58.33
839.516	58.28
839.822	59.46
840.127	59.04
840.433	59.13
840.738	61.57
841.044	61.4
841.349	61.81
841.654	61.29
841.959	61.48
842.265	61
842.57	61.29
842.875	62.37
843.18	62.19
843.485	62.96
843.79	62.9
844.095	63.77
844.4	65.08
844.705	66.06
845.01	66.12
845.315	66.84
845.619	66.8
845.924	65.32
846.229	64.77
846.533	65.45
846.838	65.36
847.142	60.83
847.447	60.35
847.751	60.55
848.056	60.82
848.36	62.39
848.664	63.53
848.969	62.07
849.273	61.7
849.577	57.86
849.881	57.19
850.185	55.53
850.489	53.94
850.794	52.77
851.097	51.97
851.401	51.33
851.705	50.48
852.009	47.92
852.313	49.97
852.617	48.09
852.92	47.09
853.224	46.59
853.528	47.45
853.831	48.11
854.135	46.64
854.438	46.56
854.742	46.89
855.045	46.67
855.349	49.27
855.652	50.23
855.955	52.82
856.259	52.88
856.562	55.4
856.865	56.49
857.168	59.23
857.471	57.61
857.774	56.04
858.077	56.87
858.38	58.99
858.683	58.38
858.986	61.6
859.289	63.01
859.592	62.25
859.894	61.94
860.197	61.85
860.5	64.68
860.802	64.75
861.105	63.29
861.407	64.46
861.71	61.7
862.012	58.98
862.315	57.5
862.617	56.79
862.919	56.54
863.222	57.63
863.524	54.99
863.826	55.93
864.128	58.41
864.43	57.85
864.732	59.1
865.034	61.24
865.336	59.96
865.638	59.27
865.94	63.31
866.242	61.77
866.544	60.79
866.846	57.56
867.147	60.3
867.449	61.54
867.751	57.2
868.052	57.44
868.354	56.91
868.655	58.28
868.957	61.61
869.258	57.6
869.56	53.57
869.861	53.03
870.162	53.18
870.463	49.22
870.765	49.69
871.066	47.74
871.367	44.19
871.668	42.6
871.969	43.86
872.27	42.53
872.571	45.81
872.872	46.47
873.173	48.07
873.473	45.13
873.774	44.16
874.075	47.3
874.376	46.42
874.676	49.4
874.977	48.49
875.277	45.77
875.578	50.31
875.878	52.08
876.179	52.84
876.479	54.06
876.78	56.42
877.08	55.94
877.38	56.08
877.68	58.76
877.981	60.9
878.281	60.36
878.581	57.89
