Data from MVZ_BU28167_Reflection_00005.txt Node
Date: Tue Nov 19 12:17:27 EST 2019
User: vgr7
Spectrometer: USB2G7710
Scans to average: 3
Trigger mode: 4
Integration Time (sec): 2.000000E-2
Electric dark correction enabled: true
Boxcar width: 10
XAxis mode: Wavelengths
Number of Pixels in Spectrum: 2048
>>>>>Begin Spectral Data<<<<<
177.721	190.09
178.105	238.89
178.488	-52.68
178.871	2.08
179.254	22.22
179.636	-60.17
180.019	-5.02
180.402	110
180.785	-226.67
181.168	-83.71
181.55	-18.47
181.933	-15.59
182.316	-5.97
182.698	-22.98
183.081	-32.87
183.463	-23.49
183.846	-16.16
184.228	-19.42
184.611	-21.6
184.993	-25.85
185.376	-6.89
185.758	5.68
186.14	13.66
186.522	-5.64
186.904	-10.14
187.287	-6.96
187.669	-10.93
188.051	-25.65
188.433	-15.05
188.815	-5.31
189.197	-1.62
189.579	-5.07
189.961	3.44
190.342	11.28
190.724	12.77
191.106	41.44
191.488	31.92
191.869	-106.35
192.251	-115.69
192.633	-441.67
193.014	-2566.67
193.396	-160.42
193.777	-2066.67
194.159	-483.33
194.54	-86.87
194.922	77.01
195.303	77.78
195.684	-108.33
196.065	-247.22
196.447	16.67
196.828	159.52
197.209	215.08
197.59	266.67
197.971	674.07
198.352	-239.18
198.733	-96.08
199.114	-134.57
199.495	-216.99
199.876	-204.92
200.257	-212.09
200.638	-334.03
201.018	-274.32
201.399	-3304.76
201.78	-4788.89
202.16	895.24
202.541	1009.72
202.922	-2955.56
203.302	226.02
203.683	184.13
204.063	134.67
204.444	79.74
204.824	98.89
205.204	75.78
205.585	65.32
205.965	84.95
206.345	79.28
206.725	77.23
207.106	55.94
207.486	59.05
207.866	72.39
208.246	58.14
208.626	55.31
209.006	59.16
209.386	135.35
209.766	62.96
210.145	1.83
210.525	112.82
210.905	108.5
211.285	85.04
211.664	97.62
212.044	134.98
212.424	242.51
212.803	129.76
213.183	166.67
213.562	189.74
213.942	167.13
214.321	221.53
214.701	179.6
215.08	241.24
215.459	146.95
215.838	134.59
216.218	121.93
216.597	73.39
216.976	33.06
217.355	24.4
217.734	31.16
218.113	37.28
218.492	17.67
218.871	-10.42
219.25	6.01
219.629	-4.82
220.008	-9.11
220.387	-42.53
220.766	-22.81
221.144	-3.67
221.523	-4.27
221.902	-20.66
222.28	-14.1
222.659	9.85
223.037	-3.85
223.416	-3.59
223.794	3.46
224.173	4.14
224.551	13.18
224.929	-1.36
225.308	-20.77
225.686	-21.06
226.064	-21.81
226.442	-13.48
226.821	-7.31
227.199	-8.93
227.577	-8.37
227.955	-10.76
228.333	-8.36
228.711	-3.7
229.089	-0.44
229.467	-2.13
229.845	0.49
230.222	2.49
230.6	-3.56
230.978	0.8
231.356	-2.51
231.733	0.16
232.111	-0.75
232.488	-1.25
232.866	0.91
233.243	4.57
233.621	6.23
233.998	5.09
234.376	5.39
234.753	7.9
235.13	9.47
235.508	10.57
235.885	9.21
236.262	8.25
236.639	3.27
237.016	0.05
237.393	-0.02
237.77	2.03
238.147	0.76
238.524	1.09
238.901	-0.83
239.278	0.43
239.655	-0.2
240.032	0.23
240.409	0.51
240.785	1.06
241.162	1.32
241.539	1.9
241.915	2.37
242.292	2.69
242.668	2.63
243.045	2.88
243.421	3.37
243.798	3.92
244.174	4.05
244.551	4.7
244.927	4.92
245.303	4.84
245.679	4.66
246.056	4.9
246.432	5.22
246.808	5.41
247.184	5.54
247.56	5.33
247.936	5.43
248.312	5.5
248.688	5.53
249.064	5.48
249.44	5.21
249.815	5.37
250.191	5.44
250.567	5.49
250.943	5.24
251.318	5.06
251.694	4.93
252.069	5.1
252.445	4.9
252.82	5.28
253.196	5.48
253.571	5.65
253.947	5.73
254.322	5.29
254.697	5.39
255.073	5.23
255.448	5.39
255.823	5.27
256.198	4.97
256.573	5.02
256.948	5.02
257.323	5.33
257.698	5.3
258.073	5.1
258.448	4.85
258.823	4.74
259.198	4.58
259.573	4.42
259.948	4.41
260.322	4.44
260.697	4.45
261.072	4.6
261.446	4.41
261.821	4.15
262.195	4.36
262.57	4.31
262.944	4.32
263.319	4.38
263.693	4.32
264.067	4.37
264.442	4.21
264.816	4.22
265.19	4.08
265.564	3.95
265.938	3.96
266.313	4.18
266.687	4.25
267.061	4.22
267.435	4.46
267.809	4.45
268.183	4.38
268.556	4.19
268.93	4.11
269.304	4.18
269.678	4.44
270.051	4.25
270.425	4.29
270.799	4.13
271.172	4.13
271.546	4.33
271.919	4.3
272.293	4.4
272.666	4.49
273.04	4.5
273.413	4.46
273.787	4.44
274.16	4.31
274.533	4.42
274.906	4.61
275.279	4.66
275.653	4.45
276.026	4.58
276.399	4.46
276.772	4.34
277.145	4.27
277.518	4.13
277.891	4.2
278.263	4.26
278.636	4.66
279.009	4.63
279.382	4.29
279.755	4.22
280.127	4.27
280.5	4.04
280.872	3.98
281.245	4.01
281.617	4.02
281.99	4.04
282.362	3.89
282.735	3.91
283.107	3.68
283.479	3.83
283.852	3.63
284.224	3.79
284.596	3.84
284.968	3.77
285.34	3.82
285.713	3.87
286.085	3.76
286.457	3.6
286.829	3.7
287.201	3.81
287.572	3.96
287.944	3.99
288.316	4.08
288.688	4.13
289.06	4.07
289.431	4.21
289.803	4.18
290.175	4.37
290.546	4.31
290.918	4.43
291.289	4.2
291.661	4.33
292.032	4.37
292.403	4.35
292.775	4.37
293.146	4.48
293.517	4.39
293.889	4.52
294.26	4.51
294.631	4.43
295.002	4.56
295.373	4.47
295.744	4.45
296.115	4.39
296.486	4.37
296.857	4.45
297.228	4.28
297.599	4.24
297.97	4.29
298.34	4.32
298.711	4.33
299.082	4.5
299.452	4.4
299.823	4.33
300.194	4.34
300.564	4.39
300.935	4.43
301.305	4.48
301.676	4.41
302.046	4.39
302.416	4.56
302.787	4.56
303.157	4.69
303.527	4.68
303.897	4.6
304.267	4.67
304.637	4.78
305.008	4.86
305.378	4.98
305.748	4.91
306.117	4.92
306.487	4.95
306.857	4.91
307.227	5.11
307.597	5.1
307.967	5.09
308.336	5.08
308.706	5
309.076	5.12
309.445	5.25
309.815	5.25
310.184	5.06
310.554	5.04
310.923	5
311.293	5.03
311.662	5.21
312.031	5.25
312.401	5.16
312.77	5.14
313.139	5.14
313.508	5.13
313.877	5.06
314.246	5.06
314.616	5.15
314.985	5.04
315.353	5.21
315.722	5.41
316.091	5.43
316.46	5.38
316.829	5.26
317.198	5.17
317.567	5.24
317.935	5.35
318.304	5.33
318.672	5.21
319.041	5.13
319.41	5.13
319.778	5.02
320.147	4.98
320.515	5.16
320.883	5
321.252	4.88
321.62	4.88
321.988	4.8
322.357	4.86
322.725	4.94
323.093	4.86
323.461	4.79
323.829	4.79
324.197	4.86
324.565	4.88
324.933	4.84
325.301	4.75
325.669	4.78
326.037	4.83
326.405	4.93
326.772	5
327.14	4.82
327.508	4.72
327.875	4.75
328.243	4.68
328.61	4.89
328.978	4.9
329.346	5.02
329.713	5.13
330.08	5.15
330.448	5.03
330.815	4.84
331.182	4.79
331.55	4.83
331.917	4.66
332.284	4.7
332.651	4.75
333.018	4.74
333.385	4.85
333.752	4.87
334.119	4.94
334.486	4.92
334.853	4.96
335.22	4.99
335.587	4.92
335.954	4.9
336.32	4.71
336.687	4.7
337.054	4.57
337.42	4.56
337.787	4.46
338.153	4.4
338.52	4.57
338.886	4.63
339.253	4.54
339.619	4.71
339.986	4.54
340.352	4.42
340.718	4.46
341.084	4.4
341.451	4.35
341.817	4.32
342.183	4.35
342.549	4.43
342.915	4.44
343.281	4.43
343.647	4.49
344.013	4.66
344.379	4.79
344.745	4.83
345.11	4.73
345.476	4.91
345.842	5.02
346.208	5.05
346.573	4.97
346.939	5
347.304	4.87
347.67	4.95
348.035	5.08
348.401	5.03
348.766	4.87
349.132	4.86
349.497	4.9
349.862	4.86
350.228	4.94
350.593	4.92
350.958	5.09
351.323	5.05
351.688	4.99
352.053	4.94
352.418	4.92
352.783	4.91
353.148	4.9
353.513	4.87
353.878	4.77
354.243	4.76
354.608	4.78
354.972	4.81
355.337	4.9
355.702	4.88
356.066	4.87
356.431	4.83
356.795	4.82
357.16	4.76
357.524	4.77
357.889	4.62
358.253	4.65
358.618	4.59
358.982	4.56
359.346	4.56
359.71	4.48
360.075	4.52
360.439	4.53
360.803	4.46
361.167	4.4
361.531	4.39
361.895	4.39
362.259	4.43
362.623	4.45
362.987	4.39
363.351	4.32
363.714	4.39
364.078	4.43
364.442	4.37
364.806	4.42
365.169	4.36
365.533	4.38
365.896	4.39
366.26	4.38
366.623	4.33
366.987	4.29
367.35	4.35
367.714	4.33
368.077	4.36
368.44	4.36
368.803	4.38
369.167	4.36
369.53	4.39
369.893	4.38
370.256	4.28
370.619	4.29
370.982	4.3
371.345	4.29
371.708	4.3
372.071	4.29
372.434	4.23
372.797	4.28
373.159	4.34
373.522	4.3
373.885	4.25
374.247	4.36
374.61	4.38
374.973	4.41
375.335	4.42
375.698	4.41
376.06	4.39
376.423	4.38
376.785	4.39
377.147	4.37
377.51	4.38
377.872	4.46
378.234	4.54
378.596	4.56
378.958	4.57
379.321	4.54
379.683	4.57
380.045	4.65
380.407	4.62
380.769	4.62
381.13	4.65
381.492	4.68
381.854	4.69
382.216	4.7
382.578	4.73
382.939	4.72
383.301	4.69
383.663	4.71
384.024	4.76
384.386	4.82
384.747	4.84
385.109	4.79
385.47	4.78
385.832	4.76
386.193	4.74
386.554	4.66
386.916	4.67
387.277	4.64
387.638	4.58
387.999	4.59
388.36	4.6
388.721	4.63
389.082	4.57
389.443	4.53
389.804	4.56
390.165	4.54
390.526	4.55
390.887	4.61
391.248	4.6
391.609	4.63
391.969	4.59
392.33	4.56
392.691	4.58
393.051	4.6
393.412	4.58
393.772	4.58
394.133	4.63
394.493	4.63
394.854	4.67
395.214	4.66
395.574	4.62
395.935	4.58
396.295	4.55
396.655	4.58
397.015	4.59
397.376	4.58
397.736	4.52
398.096	4.52
398.456	4.48
398.816	4.45
399.176	4.39
399.535	4.38
399.895	4.36
400.255	4.36
400.615	4.32
400.975	4.31
401.334	4.32
401.694	4.32
402.054	4.31
402.413	4.3
402.773	4.33
403.132	4.33
403.492	4.37
403.851	4.37
404.211	4.37
404.57	4.33
404.929	4.33
405.288	4.38
405.648	4.39
406.007	4.39
406.366	4.39
406.725	4.42
407.084	4.43
407.443	4.45
407.802	4.42
408.161	4.43
408.52	4.44
408.879	4.44
409.238	4.46
409.596	4.48
409.955	4.48
410.314	4.45
410.673	4.46
411.031	4.42
411.39	4.44
411.748	4.45
412.107	4.44
412.465	4.42
412.824	4.39
413.182	4.34
413.54	4.36
413.899	4.34
414.257	4.34
414.615	4.35
414.974	4.35
415.332	4.34
415.69	4.32
416.048	4.32
416.406	4.31
416.764	4.34
417.122	4.34
417.48	4.36
417.838	4.36
418.195	4.37
418.553	4.39
418.911	4.37
419.269	4.36
419.626	4.38
419.984	4.36
420.342	4.36
420.699	4.36
421.057	4.35
421.414	4.34
421.772	4.34
422.129	4.34
422.486	4.33
422.844	4.34
423.201	4.34
423.558	4.32
423.915	4.32
424.273	4.31
424.63	4.31
424.987	4.31
425.344	4.3
425.701	4.27
426.058	4.27
426.415	4.26
426.772	4.25
427.128	4.25
427.485	4.26
427.842	4.25
428.199	4.25
428.555	4.26
428.912	4.27
429.269	4.27
429.625	4.26
429.982	4.27
430.338	4.26
430.695	4.27
431.051	4.32
431.407	4.31
431.764	4.28
432.12	4.26
432.476	4.28
432.832	4.3
433.189	4.3
433.545	4.31
433.901	4.3
434.257	4.3
434.613	4.31
434.969	4.33
435.325	4.34
435.681	4.35
436.036	4.36
436.392	4.39
436.748	4.36
437.104	4.38
437.459	4.39
437.815	4.41
438.171	4.4
438.526	4.39
438.882	4.38
439.237	4.41
439.593	4.41
439.948	4.4
440.304	4.39
440.659	4.42
441.014	4.42
441.369	4.45
441.725	4.47
442.08	4.46
442.435	4.44
442.79	4.43
443.145	4.43
443.5	4.42
443.855	4.39
444.21	4.4
444.565	4.38
444.92	4.37
445.275	4.37
445.629	4.36
445.984	4.37
446.339	4.39
446.693	4.35
447.048	4.34
447.403	4.34
447.757	4.33
448.112	4.32
448.466	4.29
448.82	4.26
449.175	4.27
449.529	4.26
449.883	4.25
450.238	4.27
450.592	4.27
450.946	4.27
451.3	4.27
451.654	4.29
452.008	4.28
452.362	4.28
452.716	4.27
453.07	4.29
453.424	4.26
453.778	4.26
454.132	4.29
454.486	4.31
454.839	4.3
455.193	4.29
455.547	4.28
455.9	4.31
456.254	4.33
456.607	4.3
456.961	4.3
457.314	4.32
457.668	4.3
458.021	4.31
458.375	4.32
458.728	4.3
459.081	4.3
459.434	4.29
459.787	4.31
460.141	4.33
460.494	4.33
460.847	4.33
461.2	4.33
461.553	4.33
461.906	4.33
462.259	4.33
462.611	4.35
462.964	4.39
463.317	4.38
463.67	4.37
464.022	4.4
464.375	4.41
464.728	4.4
465.08	4.42
465.433	4.42
465.785	4.41
466.138	4.45
466.49	4.46
466.843	4.49
467.195	4.5
467.547	4.49
467.899	4.49
468.252	4.53
468.604	4.54
468.956	4.55
469.308	4.54
469.66	4.58
470.012	4.57
470.364	4.54
470.716	4.56
471.068	4.57
471.42	4.57
471.772	4.57
472.123	4.6
472.475	4.61
472.827	4.6
473.178	4.62
473.53	4.64
473.882	4.64
474.233	4.61
474.585	4.6
474.936	4.6
475.288	4.59
475.639	4.59
475.99	4.56
476.342	4.56
476.693	4.55
477.044	4.54
477.395	4.53
477.746	4.54
478.097	4.52
478.448	4.53
478.8	4.53
479.15	4.54
479.501	4.52
479.852	4.5
480.203	4.51
480.554	4.48
480.905	4.46
481.255	4.46
481.606	4.48
481.957	4.48
482.307	4.49
482.658	4.49
483.009	4.5
483.359	4.5
483.709	4.51
484.06	4.52
484.41	4.52
484.761	4.52
485.111	4.51
485.461	4.52
485.811	4.52
486.162	4.52
486.512	4.51
486.862	4.52
487.212	4.53
487.562	4.52
487.912	4.54
488.262	4.54
488.612	4.54
488.961	4.53
489.311	4.54
489.661	4.53
490.011	4.52
490.36	4.51
490.71	4.51
491.06	4.5
491.409	4.49
491.759	4.51
492.108	4.5
492.458	4.52
492.807	4.5
493.157	4.49
493.506	4.5
493.855	4.51
494.204	4.53
494.554	4.53
494.903	4.54
495.252	4.55
495.601	4.56
495.95	4.58
496.299	4.59
496.648	4.6
496.997	4.62
497.346	4.67
497.695	4.68
498.043	4.72
498.392	4.73
498.741	4.75
499.09	4.75
499.438	4.78
499.787	4.78
500.135	4.8
500.484	4.8
500.832	4.81
501.181	4.83
501.529	4.84
501.878	4.84
502.226	4.85
502.574	4.85
502.923	4.87
503.271	4.86
503.619	4.9
503.967	4.89
504.315	4.91
504.663	4.9
505.011	4.89
505.359	4.9
505.707	4.9
506.055	4.91
506.403	4.92
506.751	4.92
507.098	4.96
507.446	5
507.794	5.01
508.141	5.03
508.489	5.04
508.837	5.03
509.184	5.06
509.531	5.07
509.879	5.07
510.226	5.06
510.574	5.09
510.921	5.09
511.268	5.1
511.616	5.11
511.963	5.11
512.31	5.13
512.657	5.14
513.004	5.14
513.351	5.15
513.698	5.16
514.045	5.17
514.392	5.18
514.739	5.18
515.086	5.23
515.432	5.24
515.779	5.25
516.126	5.28
516.473	5.28
516.819	5.3
517.166	5.32
517.512	5.35
517.859	5.34
518.205	5.34
518.552	5.34
518.898	5.31
519.245	5.35
519.591	5.37
519.937	5.37
520.283	5.38
520.629	5.35
520.976	5.36
521.322	5.36
521.668	5.36
522.014	5.37
522.36	5.36
522.706	5.35
523.052	5.36
523.398	5.35
523.743	5.4
524.089	5.41
524.435	5.41
524.781	5.44
525.126	5.48
525.472	5.49
525.817	5.51
526.163	5.53
526.509	5.53
526.854	5.55
527.199	5.56
527.545	5.56
527.89	5.59
528.235	5.6
528.581	5.62
528.926	5.6
529.271	5.6
529.616	5.62
529.961	5.63
530.306	5.63
530.651	5.63
530.996	5.63
531.341	5.63
531.686	5.65
532.031	5.65
532.376	5.64
532.721	5.63
533.065	5.64
533.41	5.66
533.755	5.66
534.099	5.66
534.444	5.66
534.788	5.65
535.133	5.66
535.477	5.67
535.822	5.68
536.166	5.71
536.51	5.7
536.855	5.71
537.199	5.69
537.543	5.71
537.887	5.73
538.231	5.72
538.576	5.71
538.92	5.72
539.264	5.71
539.608	5.72
539.951	5.72
540.295	5.71
540.639	5.72
540.983	5.72
541.327	5.72
541.671	5.74
542.014	5.75
542.358	5.75
542.701	5.73
543.045	5.75
543.389	5.76
543.732	5.76
544.075	5.75
544.419	5.76
544.762	5.78
545.105	5.78
545.449	5.77
545.792	5.8
546.135	5.79
546.478	5.81
546.821	5.82
547.165	5.83
547.508	5.82
547.851	5.82
548.194	5.82
548.536	5.8
548.879	5.77
549.222	5.76
549.565	5.78
549.908	5.76
550.25	5.74
550.593	5.75
550.936	5.75
551.278	5.78
551.621	5.78
551.963	5.78
552.306	5.76
552.648	5.76
552.991	5.75
553.333	5.73
553.675	5.74
554.017	5.73
554.36	5.74
554.702	5.75
555.044	5.77
555.386	5.78
555.728	5.8
556.07	5.81
556.412	5.8
556.754	5.74
557.096	5.78
557.438	5.77
557.78	5.76
558.121	5.74
558.463	5.72
558.805	5.69
559.147	5.7
559.488	5.71
559.83	5.74
560.171	5.72
560.513	5.73
560.854	5.71
561.196	5.72
561.537	5.74
561.878	5.74
562.22	5.75
562.561	5.77
562.902	5.76
563.243	5.78
563.584	5.79
563.925	5.83
564.266	5.81
564.607	5.84
564.948	5.85
565.289	5.89
565.63	5.91
565.971	5.92
566.312	5.89
566.653	5.9
566.993	5.85
567.334	5.85
567.675	5.81
568.015	5.83
568.356	5.8
568.696	5.79
569.037	5.79
569.377	5.79
569.718	5.76
570.058	5.76
570.398	5.76
570.739	5.76
571.079	5.75
571.419	5.76
571.759	5.75
572.099	5.74
572.439	5.75
572.779	5.74
573.119	5.74
573.459	5.75
573.799	5.75
574.139	5.79
574.479	5.84
574.819	5.86
575.158	5.89
575.498	5.89
575.838	5.9
576.177	5.91
576.517	5.91
576.856	5.93
577.196	5.95
577.535	5.91
577.875	5.93
578.214	5.97
578.553	5.96
578.893	5.97
579.232	5.97
579.571	5.96
579.91	5.93
580.25	5.95
580.589	5.96
580.928	5.92
581.267	5.9
581.606	5.86
581.945	5.87
582.283	5.83
582.622	5.8
582.961	5.84
583.3	5.84
583.639	5.84
583.977	5.84
584.316	5.88
584.654	5.91
584.993	5.9
585.332	5.88
585.67	5.91
586.008	5.88
586.347	5.91
586.685	5.87
587.024	5.92
587.362	5.91
587.7	5.95
588.038	6.05
588.376	6.09
588.715	6.1
589.053	6.12
589.391	6.14
589.729	6.18
590.067	6.19
590.404	6.18
590.742	6.15
591.08	6.17
591.418	6.13
591.756	6.12
592.093	6.16
592.431	6.18
592.769	6.18
593.106	6.25
593.444	6.22
593.781	6.28
594.119	6.28
594.456	6.25
594.793	6.24
595.131	6.19
595.468	6.2
595.805	6.15
596.143	6.14
596.48	6.13
596.817	6.09
597.154	6.03
597.491	6.07
597.828	6.03
598.165	6
598.502	5.97
598.839	6.02
599.176	5.93
599.512	5.9
599.849	5.92
600.186	5.86
600.523	5.87
600.859	5.83
601.196	5.88
601.532	5.89
601.869	5.88
602.205	5.88
602.542	5.86
602.878	5.95
603.215	5.98
603.551	5.99
603.887	6.01
604.223	6.04
604.56	6.03
604.896	6.1
605.232	6.09
605.568	6.14
605.904	6.09
606.24	6.15
606.576	6.17
606.912	6.17
607.248	6.2
607.583	6.2
607.919	6.18
608.255	6.13
608.591	6.15
608.926	6.13
609.262	6.12
609.597	6.09
609.933	6.07
610.268	6.07
610.604	6.05
610.939	6.1
611.275	6.11
611.61	6.13
611.945	6.08
612.281	6.15
612.616	6.14
612.951	6.16
613.286	6.2
613.621	6.2
613.956	6.24
614.291	6.2
614.626	6.21
614.961	6.29
615.296	6.37
615.631	6.41
615.966	6.43
616.3	6.47
616.635	6.52
616.97	6.5
617.304	6.45
617.639	6.53
617.973	6.48
618.308	6.45
618.642	6.43
618.977	6.51
619.311	6.52
619.646	6.45
619.98	6.48
620.314	6.5
620.648	6.51
620.983	6.46
621.317	6.52
621.651	6.54
621.985	6.49
622.319	6.41
622.653	6.39
622.987	6.39
623.321	6.37
623.655	6.35
623.988	6.38
624.322	6.41
624.656	6.37
624.99	6.41
625.323	6.36
625.657	6.35
625.99	6.28
626.324	6.21
626.657	6.26
626.991	6.26
627.324	6.2
627.658	6.15
627.991	6.18
628.324	6.2
628.657	6.2
628.991	6.25
629.324	6.24
629.657	6.2
629.99	6.25
630.323	6.23
630.656	6.25
630.989	6.18
631.322	6.15
631.655	6.14
631.987	6.17
632.32	6.24
632.653	6.26
632.986	6.28
633.318	6.33
633.651	6.35
633.984	6.38
634.316	6.41
634.649	6.45
634.981	6.46
635.313	6.41
635.646	6.41
635.978	6.33
636.31	6.32
636.643	6.39
636.975	6.34
637.307	6.36
637.639	6.38
637.971	6.39
638.303	6.41
638.635	6.44
638.967	6.44
639.299	6.41
639.631	6.41
639.963	6.38
640.295	6.39
640.626	6.31
640.958	6.33
641.29	6.29
641.621	6.35
641.953	6.3
642.285	6.32
642.616	6.34
642.948	6.4
643.279	6.46
643.61	6.43
643.942	6.4
644.273	6.46
644.604	6.42
644.936	6.47
645.267	6.52
645.598	6.48
645.929	6.4
646.26	6.43
646.591	6.46
646.922	6.57
647.253	6.58
647.584	6.64
647.915	6.61
648.245	6.64
648.576	6.63
648.907	6.64
649.238	6.64
649.568	6.6
649.899	6.61
650.229	6.64
650.56	6.65
650.89	6.67
651.221	6.68
651.551	6.66
651.882	6.64
652.212	6.65
652.542	6.7
652.872	6.67
653.203	6.72
653.533	6.79
653.863	6.77
654.193	6.74
654.523	6.73
654.853	6.74
655.183	6.79
655.513	6.81
655.843	6.83
656.172	6.85
656.502	6.86
656.832	6.82
657.162	6.84
657.491	6.83
657.821	6.86
658.15	6.85
658.48	6.96
658.809	7.01
659.139	6.99
659.468	6.91
659.798	7.03
660.127	6.99
660.456	6.92
660.785	6.82
661.115	6.85
661.444	6.89
661.773	6.93
662.102	6.82
662.431	6.77
662.76	6.83
663.089	6.89
663.418	6.95
663.747	7.03
664.076	6.98
664.404	7.01
664.733	7.03
665.062	7.11
665.39	7
665.719	7.04
666.048	7.07
666.376	7.2
666.705	7.21
667.033	7.23
667.362	7.15
667.69	7.32
668.018	7.33
668.347	7.35
668.675	7.27
669.003	7.44
669.331	7.49
669.659	7.46
669.987	7.44
670.315	7.41
670.643	7.39
670.971	7.49
671.299	7.47
671.627	7.47
671.955	7.33
672.283	7.36
672.61	7.26
672.938	7.19
673.266	7.08
673.593	6.99
673.921	7.05
674.249	7.15
674.576	7.09
674.904	7.12
675.231	7.07
675.558	7.04
675.886	7.03
676.213	6.95
676.54	6.9
676.867	6.82
677.195	6.8
677.522	6.85
677.849	6.8
678.176	6.88
678.503	6.93
678.83	7.03
679.157	7.12
679.484	7.1
679.81	7.24
680.137	7.29
680.464	7.35
680.791	7.21
681.117	7.23
681.444	7.23
681.771	7.16
682.097	7.27
682.424	7.3
682.75	7.31
683.077	7.42
683.403	7.57
683.729	7.64
684.056	7.68
684.382	7.7
684.708	7.64
685.034	7.56
685.36	7.46
685.686	7.43
686.012	7.34
686.339	7.29
686.664	7.25
686.99	7.22
687.316	7.16
687.642	7.31
687.968	7.4
688.294	7.4
688.619	7.49
688.945	7.39
689.271	7.38
689.596	7.29
689.922	7.15
690.247	7.09
690.573	7.07
690.898	7.13
691.224	7.01
691.549	7.08
691.874	7.19
692.2	7.25
692.525	7.37
692.85	7.31
693.175	7.52
693.5	7.51
693.825	7.65
694.15	7.65
694.475	7.64
694.8	7.58
695.125	7.59
695.45	7.6
695.775	7.55
696.099	7.67
696.424	7.7
696.749	7.85
697.073	7.68
697.398	7.68
697.723	7.65
698.047	7.77
698.372	7.78
698.696	7.67
699.02	7.66
699.345	7.61
699.669	7.7
699.993	7.69
700.318	7.66
700.642	7.67
700.966	7.71
701.29	7.77
701.614	7.75
701.938	7.71
702.262	7.7
702.586	7.73
702.91	7.65
703.234	7.62
703.557	7.55
703.881	7.76
704.205	7.75
704.529	7.76
704.852	7.64
705.176	7.7
705.499	7.76
705.823	7.86
706.146	7.88
706.47	7.99
706.793	7.92
707.117	7.92
707.44	7.66
707.763	7.7
708.086	7.57
708.409	7.46
708.733	7.42
709.056	7.46
709.379	7.52
709.702	7.48
710.025	7.57
710.348	7.57
710.671	7.6
710.993	7.51
711.316	7.63
711.639	7.71
711.962	7.74
712.284	7.78
712.607	7.66
712.93	7.47
713.252	7.37
713.575	7.41
713.897	7.49
714.22	7.58
714.542	7.53
714.864	7.57
715.187	7.61
715.509	7.79
715.831	7.84
716.153	7.93
716.475	8.02
716.798	7.99
717.12	7.79
717.442	7.7
717.764	7.81
718.085	7.72
718.407	7.78
718.729	7.82
719.051	7.76
719.373	7.88
719.695	7.99
720.016	7.98
720.338	8.04
720.659	7.91
720.981	8.18
721.302	8.46
721.624	8.41
721.945	8.41
722.267	8.47
722.588	8.44
722.909	8.38
723.231	8.41
723.552	8.43
723.873	8.74
724.194	8.76
724.515	8.88
724.836	8.82
725.157	8.66
725.478	8.53
725.799	8.54
726.12	8.43
726.441	8.52
726.762	8.59
727.083	8.68
727.403	8.83
727.724	8.47
728.045	8.4
728.365	8.5
728.686	8.72
729.006	8.73
729.327	8.75
729.647	8.81
729.967	8.81
730.288	8.79
730.608	8.72
730.928	8.79
731.249	8.79
731.569	8.85
731.889	8.91
732.209	8.77
732.529	8.88
732.849	8.96
733.169	8.98
733.489	8.78
733.809	8.62
734.129	8.61
734.448	8.81
734.768	8.57
735.088	8.61
735.408	8.37
735.727	8.13
736.047	8.15
736.366	8.13
736.686	8
737.005	7.99
737.325	8.02
737.644	7.98
737.963	8.01
738.283	7.99
738.602	8.11
738.921	8.34
739.24	8.23
739.56	8.37
739.879	8.29
740.198	8.38
740.517	8.37
740.836	8.32
741.155	8.49
741.473	8.75
741.792	8.75
742.111	8.97
742.43	9.27
742.748	9.36
743.067	9.36
743.386	9.26
743.704	9.14
744.023	9.31
744.341	9.43
744.66	9.46
744.978	9.32
745.297	9.43
745.615	9.25
745.933	9.26
746.252	9.09
746.57	9.41
746.888	9.37
747.206	9.33
747.524	9.38
747.842	9.23
748.16	9.18
748.478	9.39
748.796	9.13
749.114	9.06
749.432	8.93
749.749	8.88
750.067	9.03
750.385	9.32
750.703	9.16
751.02	9.12
751.338	8.93
751.655	9
751.973	8.77
752.29	8.8
752.608	8.93
752.925	9.19
753.242	8.99
753.56	8.97
753.877	8.92
754.194	8.91
754.511	8.88
754.828	8.66
755.145	8.5
755.462	8.8
755.779	8.94
756.096	8.89
756.413	9.12
756.73	9.28
757.047	9.23
757.364	9.42
757.68	9.24
757.997	9.72
758.314	9.77
758.63	9.77
758.947	10.15
759.264	10.25
759.58	10.18
759.896	10.15
760.213	10.38
760.529	10.49
760.846	10.38
761.162	10.44
761.478	10.52
761.794	10.5
762.11	10.47
762.426	10.07
762.743	9.8
763.059	9.65
763.375	9.63
763.69	9.6
764.006	9.56
764.322	9.63
764.638	9.41
764.954	9.58
765.27	9.73
765.585	9.66
765.901	9.51
766.216	9.45
766.532	9.36
766.848	9.47
767.163	9.49
767.478	9.52
767.794	9.52
768.109	9.62
768.424	9.49
768.74	9.53
769.055	9.97
769.37	10.43
769.685	10.41
770	10.18
770.315	10.46
770.63	10.48
770.945	10.64
771.26	10.57
771.575	10.39
771.89	10
772.205	9.8
772.52	9.6
772.834	9.62
773.149	9.62
773.464	9.77
773.778	9.82
774.093	9.94
774.407	9.65
774.722	9.65
775.036	9.89
775.351	9.96
775.665	9.92
775.979	9.81
776.293	9.86
776.608	10.06
776.922	9.56
777.236	9.59
777.55	9.42
777.864	9.48
778.178	9.49
778.492	9.98
778.806	10.01
779.12	10.25
779.434	10.01
779.747	10.26
780.061	9.57
780.375	9.72
780.689	9.95
781.002	10.13
781.316	10.12
781.629	10.07
781.943	9.95
782.256	9.51
782.57	9.31
782.883	9.12
783.196	9.1
783.51	9.31
783.823	9.34
784.136	9.25
784.449	9.61
784.762	9.69
785.075	9.36
785.388	9.62
785.701	9.61
786.014	9.91
786.327	10.06
786.64	10.63
786.953	10.36
787.266	10.12
787.578	10.75
787.891	10.6
788.204	10.41
788.516	10.65
788.829	10.99
789.141	11.24
789.454	11.79
789.766	12.05
790.079	11.97
790.391	11.78
790.703	11.62
791.016	11.63
791.328	11.71
791.64	11.6
791.952	11.49
792.264	11.3
792.576	11.48
792.888	11.82
793.2	11.22
793.512	11.52
793.824	11.83
794.136	11.4
794.448	11.25
794.76	11.42
795.071	11.14
795.383	10.9
795.695	10.64
796.006	10.39
796.318	10.06
796.629	10.48
796.941	10.83
797.252	11.04
797.564	10.48
797.875	10.48
798.186	10.49
798.497	10.67
798.809	10.94
799.12	10.84
799.431	10.61
799.742	11.3
800.053	11.08
800.364	11.1
800.675	11.05
800.986	11.25
801.297	11.7
801.608	11.99
801.918	12.73
802.229	13.07
802.54	13.5
802.851	13.68
803.161	13.4
803.472	13.29
803.782	13.49
804.093	13.7
804.403	13.44
804.714	13.78
805.024	13.49
805.334	13.56
805.645	13.33
805.955	13.33
806.265	13.76
806.575	13.63
806.885	14.04
807.195	13.81
807.505	14.15
807.815	14.42
808.125	14.23
808.435	13.61
808.745	13.7
809.055	13.4
809.365	13.56
809.674	13.53
809.984	13.23
810.294	12.78
810.603	11.88
810.913	11.67
811.222	11.66
811.532	12.18
811.841	12.59
812.151	12.83
812.46	12.98
812.769	12.18
813.079	12.3
813.388	11.71
813.697	11.26
814.006	10.99
814.315	10.8
814.624	10.82
814.933	11.71
815.242	11.72
815.551	11.2
815.86	11.91
816.169	12
816.478	12.53
816.786	12.91
817.095	13.84
817.404	14.28
817.712	14.42
818.021	13.84
818.33	13.27
818.638	13.49
818.947	13.01
819.255	13.1
819.563	13.36
819.872	13.08
820.18	13.79
820.488	13.93
820.796	13.63
821.105	13.69
821.413	13.29
821.721	13.21
822.029	13.22
822.337	13.14
822.645	13.12
822.953	13.11
823.26	13.26
823.568	13.27
823.876	13.23
824.184	13.19
824.491	13.29
824.799	13.41
825.107	13.27
825.414	13.38
825.722	13.3
826.029	13.31
826.337	13.44
826.644	13.32
826.951	13.23
827.259	13.29
827.566	13.32
827.873	13.45
828.18	13.54
828.488	13.69
828.795	13.57
829.102	13.69
829.409	13.83
829.716	13.76
830.023	14.23
830.329	14.31
830.636	14.47
830.943	14.54
831.25	14.7
831.557	14.84
831.863	14.77
832.17	15.3
832.476	15.07
832.783	14.98
833.089	14.94
833.396	15.07
833.702	15.06
834.009	14.87
834.315	14.69
834.621	14.95
834.928	14.62
835.234	14.87
835.54	14.61
835.846	14.6
836.152	15.13
836.458	14.5
836.764	14.91
837.07	14.93
837.376	15.04
837.682	14.84
837.988	15.19
838.293	15.03
838.599	14.62
838.905	14.2
839.211	13.89
839.516	14.11
839.822	14.72
840.127	15.15
840.433	14.83
840.738	15.49
841.044	15.6
841.349	17.01
841.654	16.57
841.959	17.74
842.265	16.91
842.57	16.04
842.875	17.24
843.18	15.84
843.485	16.01
843.79	15.21
844.095	14.58
844.4	14.69
844.705	15.49
845.01	17.08
845.315	18.63
845.619	20.51
845.924	21.36
846.229	20.93
846.533	20.71
846.838	22.23
847.142	20.88
847.447	19.97
847.751	19.2
848.056	21
848.36	21.32
848.664	21.89
848.969	22.44
849.273	18.59
849.577	19.59
849.881	19.91
850.185	21.41
850.489	21.04
850.794	22.46
851.097	21.03
851.401	19.37
851.705	19.62
852.009	20.03
852.313	16.23
852.617	13.97
852.92	14.18
853.224	13.27
853.528	11.71
853.831	12.84
854.135	14.54
854.438	14.16
854.742	13.41
855.045	13.35
855.349	12.57
855.652	16
855.955	16.63
856.259	16.87
856.562	15.7
856.865	17.87
857.168	14.5
857.471	15.11
857.774	16.14
858.077	15.24
858.38	12.91
858.683	15.37
858.986	18.38
859.289	18.68
859.592	18.06
859.894	21.05
860.197	23.23
860.5	23.03
860.802	22.04
861.105	25.46
861.407	26.3
861.71	26.51
862.012	25.9
862.315	29.08
862.617	27.76
862.919	29.22
863.222	28.12
863.524	29.25
863.826	28.9
864.128	28.52
864.43	28.78
864.732	32.15
865.034	33.89
865.336	32.66
865.638	31.81
865.94	33.46
866.242	33.45
866.544	30.85
866.846	32.36
867.147	34.58
867.449	31.4
867.751	31.28
868.052	29.82
868.354	30.82
868.655	28.56
868.957	29.7
869.258	28.41
869.56	29.16
869.861	30.14
870.162	31.77
870.463	30.14
870.765	29.09
871.066	25.93
871.367	22.6
871.668	21.68
871.969	22.76
872.27	23.67
872.571	22.18
872.872	21.34
873.173	15.56
873.473	13.98
873.774	14.87
874.075	14.3
874.376	13.89
874.676	14.61
874.977	14.08
875.277	14.17
875.578	14.94
875.878	14.48
876.179	13.25
876.479	12.67
876.78	13.5
877.08	14.99
877.38	15.95
877.68	18.7
877.981	20.17
878.281	19.46
878.581	17.66
