Data from MVZ_BU136690_Reflection_00002.txt Node
Date: Tue Nov 19 12:07:50 EST 2019
User: vgr7
Spectrometer: USB2G7710
Scans to average: 3
Trigger mode: 4
Integration Time (sec): 2.000000E-2
Electric dark correction enabled: true
Boxcar width: 10
XAxis mode: Wavelengths
Number of Pixels in Spectrum: 2048
>>>>>Begin Spectral Data<<<<<
177.721	-41.61
178.105	67.15
178.488	1167.8
178.871	48.57
179.254	72.73
179.636	73.32
180.019	141.28
180.402	-0
180.785	-542.86
181.168	-257.48
181.55	-65.35
181.933	-52.84
182.316	-63.73
182.698	-18.71
183.081	-161.63
183.463	-0.75
183.846	44.95
184.228	132.61
184.611	-30.43
184.993	-50
185.376	63.41
185.758	-97.8
186.14	-11.43
186.522	204.65
186.904	-312.5
187.287	-119.51
187.669	-53.66
188.051	-339.02
188.433	-412.2
188.815	-779.31
189.197	-338.31
189.579	-115.8
189.961	-110.82
190.342	-87.23
190.724	-84.39
191.106	-111.48
191.488	-97.75
191.869	-75.35
192.251	-48.04
192.633	-77.31
193.014	-64.1
193.396	-98.61
193.777	-87.5
194.159	-113.39
194.54	-61.79
194.922	-63.56
195.303	-72.39
195.684	-60.39
196.065	-37.57
196.447	-30.43
196.828	-22.41
197.209	-27.08
197.59	-49.47
197.971	-45.16
198.352	-62.65
198.733	-66.39
199.114	-73.82
199.495	-86.02
199.876	-105.08
200.257	-115.16
200.638	-62.05
201.018	-112.53
201.399	-50.32
201.78	-42.6
202.16	-27.17
202.541	-57.07
202.922	-143.68
203.302	-149.08
203.683	-200
204.063	-148.28
204.444	-127.53
204.824	-213.04
205.204	-62.05
205.585	-48.71
205.965	-39.68
206.345	7.58
206.725	38.43
207.106	28.21
207.486	18.18
207.866	1.35
208.246	5.99
208.626	18.92
209.006	39.19
209.386	71.15
209.766	157.69
210.145	85.2
210.525	125.53
210.905	141.21
211.285	107.08
211.664	72.95
212.044	48.68
212.424	55.76
212.803	78.61
213.183	58.78
213.562	35.33
213.942	45.17
214.321	36.17
214.701	11
215.08	11.28
215.459	43.31
215.838	35.5
216.218	34.35
216.597	27.06
216.976	26.1
217.355	2.96
217.734	-16.14
218.113	-17.04
218.492	-15.22
218.871	-14.77
219.25	-19.08
219.629	-26.4
220.008	-37.73
220.387	-67.14
220.766	-48.95
221.144	-66.42
221.523	-73.84
221.902	-85.62
222.28	-71.43
222.659	-24.85
223.037	-31.17
223.416	-46.41
223.794	-42.92
224.173	-42.36
224.551	-39.51
224.929	-33.25
225.308	-29.9
225.686	-13.38
226.064	-19.83
226.442	-19.41
226.821	-14.89
227.199	-7.27
227.577	-12.98
227.955	-5.51
228.333	-4.55
228.711	-8.44
229.089	-7.56
229.467	-4.49
229.845	-2.68
230.222	-4.14
230.6	-4.9
230.978	-4.8
231.356	-0.71
231.733	2.37
232.111	0.5
232.488	2.39
232.866	2.79
233.243	2.64
233.621	0.99
233.998	1.52
234.376	2.09
234.753	1.06
235.13	-0.52
235.508	1.97
235.885	0.91
236.262	1.41
236.639	1.5
237.016	0.05
237.393	1.27
237.77	1.54
238.147	2.78
238.524	2.18
238.901	2.01
239.278	0.88
239.655	0.7
240.032	1.62
240.409	1.57
240.785	1.46
241.162	2.17
241.539	2.17
241.915	2.06
242.292	2.91
242.668	3.11
243.045	3.47
243.421	3.31
243.798	3.4
244.174	3.62
244.551	3.69
244.927	3.99
245.303	3.52
245.679	3.21
246.056	3.11
246.432	3.37
246.808	3.32
247.184	3.72
247.56	3.53
247.936	3.29
248.312	3.42
248.688	3.51
249.064	3.28
249.44	3.25
249.815	3.52
250.191	3.18
250.567	3.15
250.943	2.86
251.318	2.92
251.694	2.74
252.069	2.69
252.445	2.82
252.82	3.23
253.196	3.33
253.571	3.72
253.947	3.75
254.322	3.36
254.697	3.65
255.073	3.13
255.448	3.17
255.823	3.22
256.198	3.21
256.573	3.43
256.948	3.3
257.323	3.28
257.698	3.35
258.073	3.45
258.448	3.59
258.823	3.65
259.198	3.64
259.573	3.53
259.948	3.6
260.322	3.55
260.697	3.42
261.072	3.45
261.446	3.53
261.821	3.38
262.195	3.38
262.57	3.3
262.944	3.38
263.319	3.54
263.693	3.52
264.067	3.63
264.442	3.54
264.816	3.41
265.19	3.61
265.564	3.51
265.938	3.46
266.313	3.25
266.687	3.36
267.061	3.37
267.435	3.56
267.809	3.44
268.183	3.32
268.556	3.14
268.93	3.22
269.304	3.1
269.678	3.2
270.051	3.18
270.425	3.13
270.799	3.02
271.172	2.87
271.546	3.01
271.919	2.76
272.293	2.71
272.666	2.95
273.04	2.77
273.413	2.62
273.787	2.59
274.16	2.66
274.533	2.79
274.906	2.78
275.279	2.72
275.653	2.71
276.026	2.84
276.399	2.91
276.772	2.88
277.145	2.78
277.518	2.75
277.891	2.91
278.263	3.22
278.636	3.13
279.009	3.26
279.382	3.15
279.755	3.25
280.127	3.16
280.5	3.16
280.872	3.2
281.245	3.19
281.617	3.21
281.99	3.19
282.362	3.16
282.735	3.23
283.107	3.29
283.479	3.25
283.852	3.22
284.224	3.31
284.596	3.27
284.968	3.16
285.34	3.13
285.713	3.11
286.085	2.96
286.457	3.07
286.829	2.97
287.201	2.98
287.572	3.1
287.944	3.04
288.316	2.98
288.688	3.1
289.06	3.08
289.431	3.04
289.803	3.09
290.175	2.95
290.546	2.93
290.918	2.9
291.289	2.86
291.661	2.91
292.032	2.9
292.403	2.99
292.775	3.28
293.146	3.34
293.517	3.35
293.889	3.3
294.26	3.36
294.631	3.44
295.002	3.53
295.373	3.42
295.744	3.58
296.115	3.61
296.486	3.6
296.857	3.68
297.228	3.53
297.599	3.4
297.97	3.45
298.34	3.42
298.711	3.47
299.082	3.49
299.452	3.41
299.823	3.28
300.194	3.14
300.564	3.12
300.935	3.17
301.305	3.12
301.676	3.09
302.046	3.04
302.416	2.87
302.787	2.75
303.157	2.68
303.527	2.71
303.897	2.54
304.267	2.37
304.637	2.44
305.008	2.57
305.378	2.58
305.748	2.52
306.117	2.55
306.487	2.55
306.857	2.47
307.227	2.39
307.597	2.49
307.967	2.61
308.336	2.49
308.706	2.38
309.076	2.49
309.445	2.72
309.815	2.63
310.184	2.64
310.554	2.57
310.923	2.52
311.293	2.4
311.662	2.58
312.031	2.58
312.401	2.49
312.77	2.41
313.139	2.48
313.508	2.54
313.877	2.54
314.246	2.53
314.616	2.61
314.985	2.68
315.353	2.63
315.722	2.62
316.091	2.68
316.46	2.82
316.829	2.73
317.198	2.68
317.567	2.82
317.935	3.01
318.304	3.07
318.672	3.19
319.041	3.24
319.41	3.16
319.778	3.14
320.147	3.29
320.515	3.41
320.883	3.33
321.252	3.44
321.62	3.3
321.988	3.34
322.357	3.39
322.725	3.41
323.093	3.32
323.461	3.3
323.829	3.21
324.197	3.12
324.565	3.06
324.933	2.87
325.301	2.78
325.669	2.86
326.037	2.86
326.405	2.84
326.772	2.8
327.14	2.69
327.508	2.7
327.875	2.69
328.243	2.63
328.61	2.62
328.978	2.52
329.346	2.64
329.713	2.6
330.08	2.65
330.448	2.58
330.815	2.65
331.182	2.64
331.55	2.72
331.917	2.76
332.284	2.89
332.651	2.91
333.018	2.99
333.385	3.02
333.752	3.1
334.119	3.08
334.486	2.98
334.853	2.94
335.22	2.95
335.587	2.83
335.954	2.84
336.32	2.83
336.687	2.85
337.054	2.72
337.42	2.65
337.787	2.52
338.153	2.54
338.52	2.58
338.886	2.59
339.253	2.42
339.619	2.4
339.986	2.25
340.352	2.27
340.718	2.15
341.084	2.01
341.451	1.95
341.817	2
342.183	2.16
342.549	2.37
342.915	2.45
343.281	2.51
343.647	2.55
344.013	2.63
344.379	2.67
344.745	2.79
345.11	2.78
345.476	2.79
345.842	2.82
346.208	2.81
346.573	2.86
346.939	2.93
347.304	2.88
347.67	2.84
348.035	2.77
348.401	2.87
348.766	2.83
349.132	2.88
349.497	2.92
349.862	2.86
350.228	2.77
350.593	2.7
350.958	2.7
351.323	2.72
351.688	2.64
352.053	2.65
352.418	2.6
352.783	2.53
353.148	2.67
353.513	2.61
353.878	2.63
354.243	2.55
354.608	2.6
354.972	2.66
355.337	2.81
355.702	2.86
356.066	2.8
356.431	2.84
356.795	2.8
357.16	2.78
357.524	2.82
357.889	2.79
358.253	2.86
358.618	2.87
358.982	2.87
359.346	2.91
359.71	2.83
360.075	2.79
360.439	2.85
360.803	2.83
361.167	2.83
361.531	2.75
361.895	2.77
362.259	2.72
362.623	2.73
362.987	2.67
363.351	2.68
363.714	2.78
364.078	2.8
364.442	2.79
364.806	2.85
365.169	2.77
365.533	2.82
365.896	2.81
366.26	2.75
366.623	2.76
366.987	2.76
367.35	2.82
367.714	2.87
368.077	2.89
368.44	2.84
368.803	2.82
369.167	2.88
369.53	2.87
369.893	2.94
370.256	2.89
370.619	2.85
370.982	2.8
371.345	2.81
371.708	2.77
372.071	2.78
372.434	2.7
372.797	2.77
373.159	2.79
373.522	2.76
373.885	2.8
374.247	2.74
374.61	2.71
374.973	2.69
375.335	2.75
375.698	2.68
376.06	2.71
376.423	2.81
376.785	2.79
377.147	2.79
377.51	2.8
377.872	2.81
378.234	2.91
378.596	2.97
378.958	2.92
379.321	2.95
379.683	2.99
380.045	3.02
380.407	2.99
380.769	2.93
381.13	2.9
381.492	2.9
381.854	2.94
382.216	2.94
382.578	2.86
382.939	2.79
383.301	2.85
383.663	2.78
384.024	2.74
384.386	2.7
384.747	2.72
385.109	2.72
385.47	2.69
385.832	2.64
386.193	2.6
386.554	2.55
386.916	2.6
387.277	2.53
387.638	2.5
387.999	2.52
388.36	2.54
388.721	2.57
389.082	2.59
389.443	2.59
389.804	2.62
390.165	2.66
390.526	2.68
390.887	2.69
391.248	2.7
391.609	2.71
391.969	2.73
392.33	2.69
392.691	2.66
393.051	2.73
393.412	2.75
393.772	2.81
394.133	2.83
394.493	2.76
394.854	2.76
395.214	2.78
395.574	2.77
395.935	2.78
396.295	2.77
396.655	2.75
397.015	2.78
397.376	2.76
397.736	2.77
398.096	2.74
398.456	2.72
398.816	2.76
399.176	2.72
399.535	2.73
399.895	2.79
400.255	2.8
400.615	2.76
400.975	2.74
401.334	2.7
401.694	2.7
402.054	2.74
402.413	2.79
402.773	2.8
403.132	2.83
403.492	2.83
403.851	2.86
404.211	2.87
404.57	2.86
404.929	2.84
405.288	2.87
405.648	2.9
406.007	2.9
406.366	2.89
406.725	2.9
407.084	2.92
407.443	2.92
407.802	2.93
408.161	2.95
408.52	2.97
408.879	3.01
409.238	3
409.596	2.98
409.955	2.93
410.314	2.9
410.673	2.85
411.031	2.85
411.39	2.86
411.748	2.87
412.107	2.84
412.465	2.87
412.824	2.83
413.182	2.85
413.54	2.86
413.899	2.84
414.257	2.85
414.615	2.82
414.974	2.82
415.332	2.82
415.69	2.82
416.048	2.79
416.406	2.78
416.764	2.78
417.122	2.77
417.48	2.81
417.838	2.83
418.195	2.82
418.553	2.79
418.911	2.78
419.269	2.78
419.626	2.8
419.984	2.81
420.342	2.84
420.699	2.83
421.057	2.84
421.414	2.86
421.772	2.87
422.129	2.87
422.486	2.86
422.844	2.87
423.201	2.86
423.558	2.88
423.915	2.89
424.273	2.89
424.63	2.91
424.987	2.92
425.344	2.92
425.701	2.93
426.058	2.96
426.415	2.95
426.772	2.93
427.128	2.93
427.485	2.91
427.842	2.88
428.199	2.88
428.555	2.88
428.912	2.85
429.269	2.83
429.625	2.86
429.982	2.87
430.338	2.87
430.695	2.86
431.051	2.85
431.407	2.85
431.764	2.86
432.12	2.88
432.476	2.88
432.832	2.89
433.189	2.9
433.545	2.9
433.901	2.93
434.257	2.94
434.613	2.95
434.969	2.96
435.325	2.95
435.681	2.95
436.036	2.95
436.392	2.94
436.748	2.94
437.104	2.94
437.459	2.92
437.815	2.92
438.171	2.92
438.526	2.92
438.882	2.91
439.237	2.91
439.593	2.91
439.948	2.91
440.304	2.91
440.659	2.9
441.014	2.88
441.369	2.88
441.725	2.88
442.08	2.87
442.435	2.87
442.79	2.89
443.145	2.91
443.5	2.91
443.855	2.93
444.21	2.94
444.565	2.94
444.92	2.94
445.275	2.95
445.629	2.97
445.984	2.98
446.339	2.99
446.693	3
447.048	2.98
447.403	2.96
447.757	2.97
448.112	2.97
448.466	2.99
448.82	2.99
449.175	2.99
449.529	2.98
449.883	2.98
450.238	2.96
450.592	2.93
450.946	2.95
451.3	2.95
451.654	2.94
452.008	2.96
452.362	2.97
452.716	2.96
453.07	2.97
453.424	2.95
453.778	2.95
454.132	2.92
454.486	2.94
454.839	2.94
455.193	2.95
455.547	2.97
455.9	2.96
456.254	2.97
456.607	2.99
456.961	3.02
457.314	3.03
457.668	3.04
458.021	3.04
458.375	3.02
458.728	3.03
459.081	3.05
459.434	3.05
459.787	3.06
460.141	3.07
460.494	3.05
460.847	3.04
461.2	3.04
461.553	3.06
461.906	3.07
462.259	3.07
462.611	3.07
462.964	3.06
463.317	3.08
463.67	3.06
464.022	3.06
464.375	3.06
464.728	3.06
465.08	3.06
465.433	3.06
465.785	3.08
466.138	3.07
466.49	3.06
466.843	3.06
467.195	3.04
467.547	3.03
467.899	3.08
468.252	3.1
468.604	3.1
468.956	3.09
469.308	3.09
469.66	3.12
470.012	3.13
470.364	3.15
470.716	3.13
471.068	3.16
471.42	3.16
471.772	3.13
472.123	3.12
472.475	3.13
472.827	3.13
473.178	3.12
473.53	3.12
473.882	3.11
474.233	3.1
474.585	3.11
474.936	3.12
475.288	3.08
475.639	3.09
475.99	3.08
476.342	3.07
476.693	3.08
477.044	3.09
477.395	3.07
477.746	3.05
478.097	3.05
478.448	3.04
478.8	3.05
479.15	3.05
479.501	3.07
479.852	3.09
480.203	3.1
480.554	3.11
480.905	3.11
481.255	3.12
481.606	3.13
481.957	3.14
482.307	3.14
482.658	3.15
483.009	3.15
483.359	3.16
483.709	3.18
484.06	3.17
484.41	3.17
484.761	3.17
485.111	3.18
485.461	3.19
485.811	3.19
486.162	3.19
486.512	3.19
486.862	3.2
487.212	3.2
487.562	3.2
487.912	3.2
488.262	3.21
488.612	3.21
488.961	3.21
489.311	3.2
489.661	3.2
490.011	3.2
490.36	3.2
490.71	3.19
491.06	3.19
491.409	3.2
491.759	3.19
492.108	3.19
492.458	3.19
492.807	3.18
493.157	3.19
493.506	3.18
493.855	3.18
494.204	3.18
494.554	3.18
494.903	3.18
495.252	3.18
495.601	3.19
495.95	3.2
496.299	3.21
496.648	3.2
496.997	3.21
497.346	3.22
497.695	3.21
498.043	3.25
498.392	3.24
498.741	3.24
499.09	3.25
499.438	3.27
499.787	3.29
500.135	3.29
500.484	3.27
500.832	3.28
501.181	3.29
501.529	3.29
501.878	3.29
502.226	3.3
502.574	3.32
502.923	3.29
503.271	3.29
503.619	3.3
503.967	3.29
504.315	3.27
504.663	3.23
505.011	3.23
505.359	3.21
505.707	3.2
506.055	3.18
506.403	3.19
506.751	3.14
507.098	3.15
507.446	3.17
507.794	3.17
508.141	3.18
508.489	3.19
508.837	3.2
509.184	3.2
509.531	3.19
509.879	3.15
510.226	3.17
510.574	3.16
510.921	3.16
511.268	3.18
511.616	3.2
511.963	3.21
512.31	3.22
512.657	3.23
513.004	3.22
513.351	3.26
513.698	3.26
514.045	3.3
514.392	3.26
514.739	3.28
515.086	3.27
515.432	3.26
515.779	3.27
516.126	3.28
516.473	3.3
516.819	3.31
517.166	3.34
517.512	3.32
517.859	3.34
518.205	3.3
518.552	3.33
518.898	3.3
519.245	3.32
519.591	3.32
519.937	3.34
520.283	3.36
520.629	3.34
520.976	3.34
521.322	3.32
521.668	3.36
522.014	3.34
522.36	3.36
522.706	3.38
523.052	3.4
523.398	3.39
523.743	3.39
524.089	3.41
524.435	3.4
524.781	3.44
525.126	3.42
525.472	3.46
525.817	3.44
526.163	3.45
526.509	3.45
526.854	3.44
527.199	3.44
527.545	3.46
527.89	3.46
528.235	3.47
528.581	3.47
528.926	3.47
529.271	3.48
529.616	3.48
529.961	3.48
530.306	3.47
530.651	3.46
530.996	3.46
531.341	3.45
531.686	3.45
532.031	3.43
532.376	3.44
532.721	3.44
533.065	3.43
533.41	3.45
533.755	3.47
534.099	3.47
534.444	3.46
534.788	3.46
535.133	3.46
535.477	3.47
535.822	3.49
536.166	3.5
536.51	3.5
536.855	3.5
537.199	3.49
537.543	3.51
537.887	3.53
538.231	3.53
538.576	3.53
538.92	3.55
539.264	3.57
539.608	3.57
539.951	3.55
540.295	3.56
540.639	3.55
540.983	3.55
541.327	3.55
541.671	3.56
542.014	3.56
542.358	3.56
542.701	3.55
543.045	3.55
543.389	3.54
543.732	3.53
544.075	3.53
544.419	3.53
544.762	3.51
545.105	3.51
545.449	3.52
545.792	3.52
546.135	3.53
546.478	3.52
546.821	3.52
547.165	3.52
547.508	3.54
547.851	3.55
548.194	3.55
548.536	3.54
548.879	3.54
549.222	3.52
549.565	3.51
549.908	3.49
550.25	3.49
550.593	3.51
550.936	3.53
551.278	3.55
551.621	3.57
551.963	3.59
552.306	3.6
552.648	3.61
552.991	3.61
553.333	3.62
553.675	3.64
554.017	3.66
554.36	3.67
554.702	3.64
555.044	3.65
555.386	3.66
555.728	3.69
556.07	3.67
556.412	3.63
556.754	3.61
557.096	3.61
557.438	3.58
557.78	3.58
558.121	3.58
558.463	3.52
558.805	3.52
559.147	3.53
559.488	3.48
559.83	3.49
560.171	3.47
560.513	3.45
560.854	3.44
561.196	3.39
561.537	3.4
561.878	3.4
562.22	3.4
562.561	3.42
562.902	3.42
563.243	3.44
563.584	3.48
563.925	3.52
564.266	3.54
564.607	3.56
564.948	3.54
565.289	3.54
565.63	3.56
565.971	3.56
566.312	3.53
566.653	3.55
566.993	3.54
567.334	3.57
567.675	3.59
568.015	3.57
568.356	3.57
568.696	3.58
569.037	3.61
569.377	3.59
569.718	3.6
570.058	3.6
570.398	3.62
570.739	3.63
571.079	3.6
571.419	3.6
571.759	3.58
572.099	3.59
572.439	3.59
572.779	3.59
573.119	3.58
573.459	3.58
573.799	3.57
574.139	3.56
574.479	3.54
574.819	3.55
575.158	3.59
575.498	3.6
575.838	3.59
576.177	3.57
576.517	3.59
576.856	3.61
577.196	3.62
577.535	3.63
577.875	3.63
578.214	3.66
578.553	3.64
578.893	3.66
579.232	3.68
579.571	3.72
579.91	3.74
580.25	3.79
580.589	3.8
580.928	3.81
581.267	3.81
581.606	3.82
581.945	3.79
582.283	3.76
582.622	3.74
582.961	3.74
583.3	3.75
583.639	3.73
583.977	3.68
584.316	3.63
584.654	3.6
584.993	3.59
585.332	3.59
585.67	3.65
586.008	3.66
586.347	3.64
586.685	3.55
587.024	3.54
587.362	3.56
587.7	3.55
588.038	3.56
588.376	3.57
588.715	3.58
589.053	3.6
589.391	3.62
589.729	3.63
590.067	3.62
590.404	3.64
590.742	3.67
591.08	3.68
591.418	3.69
591.756	3.72
592.093	3.76
592.431	3.76
592.769	3.7
593.106	3.69
593.444	3.7
593.781	3.77
594.119	3.78
594.456	3.74
594.793	3.74
595.131	3.75
595.468	3.74
595.805	3.73
596.143	3.75
596.48	3.73
596.817	3.72
597.154	3.75
597.491	3.76
597.828	3.72
598.165	3.69
598.502	3.68
598.839	3.67
599.176	3.67
599.512	3.62
599.849	3.67
600.186	3.65
600.523	3.67
600.859	3.66
601.196	3.66
601.532	3.65
601.869	3.62
602.205	3.64
602.542	3.67
602.878	3.7
603.215	3.67
603.551	3.67
603.887	3.7
604.223	3.66
604.56	3.66
604.896	3.66
605.232	3.69
605.568	3.7
605.904	3.69
606.24	3.68
606.576	3.72
606.912	3.7
607.248	3.76
607.583	3.73
607.919	3.67
608.255	3.71
608.591	3.71
608.926	3.72
609.262	3.69
609.597	3.65
609.933	3.59
610.268	3.62
610.604	3.62
610.939	3.61
611.275	3.64
611.61	3.61
611.945	3.62
612.281	3.62
612.616	3.62
612.951	3.63
613.286	3.63
613.621	3.62
613.956	3.65
614.291	3.59
614.626	3.6
614.961	3.68
615.296	3.64
615.631	3.68
615.966	3.72
616.3	3.76
616.635	3.81
616.97	3.8
617.304	3.78
617.639	3.79
617.973	3.72
618.308	3.72
618.642	3.73
618.977	3.7
619.311	3.66
619.646	3.65
619.98	3.65
620.314	3.6
620.648	3.59
620.983	3.55
621.317	3.57
621.651	3.51
621.985	3.48
622.319	3.45
622.653	3.43
622.987	3.43
623.321	3.42
623.655	3.43
623.988	3.49
624.322	3.5
624.656	3.5
624.99	3.54
625.323	3.56
625.657	3.61
625.99	3.66
626.324	3.64
626.657	3.64
626.991	3.68
627.324	3.71
627.658	3.71
627.991	3.75
628.324	3.76
628.657	3.81
628.991	3.83
629.324	3.85
629.657	3.85
629.99	3.86
630.323	3.9
630.656	3.83
630.989	3.79
631.322	3.73
631.655	3.69
631.987	3.75
632.32	3.77
632.653	3.73
632.986	3.71
633.318	3.77
633.651	3.8
633.984	3.78
634.316	3.79
634.649	3.79
634.981	3.78
635.313	3.8
635.646	3.84
635.978	3.87
636.31	3.88
636.643	3.94
636.975	3.95
637.307	3.95
637.639	4
637.971	4.01
638.303	4.09
638.635	4.17
638.967	4.16
639.299	4.11
639.631	4.16
639.963	4.16
640.295	4.15
640.626	4.17
640.958	4.14
641.29	4.15
641.621	4.18
641.953	4.14
642.285	4.13
642.616	4.06
642.948	4.06
643.279	4.02
643.61	3.97
643.942	3.94
644.273	3.91
644.604	3.89
644.936	3.89
645.267	3.82
645.598	3.75
645.929	3.71
646.26	3.67
646.591	3.6
646.922	3.58
647.253	3.63
647.584	3.57
647.915	3.55
648.245	3.51
648.576	3.54
648.907	3.58
649.238	3.52
649.568	3.56
649.899	3.44
650.229	3.49
650.56	3.44
650.89	3.42
651.221	3.41
651.551	3.45
651.882	3.43
652.212	3.42
652.542	3.52
652.872	3.51
653.203	3.56
653.533	3.68
653.863	3.68
654.193	3.58
654.523	3.57
654.853	3.65
655.183	3.7
655.513	3.63
655.843	3.62
656.172	3.71
656.502	3.65
656.832	3.71
657.162	3.63
657.491	3.67
657.821	3.64
658.15	3.65
658.48	3.72
658.809	3.76
659.139	3.78
659.468	3.67
659.798	3.66
660.127	3.68
660.456	3.61
660.785	3.66
661.115	3.74
661.444	3.8
661.773	3.77
662.102	3.75
662.431	3.78
662.76	3.72
663.089	3.69
663.418	3.74
663.747	3.71
664.076	3.77
664.404	3.82
664.733	3.87
665.062	3.9
665.39	3.87
665.719	3.77
666.048	3.8
666.376	3.9
666.705	3.99
667.033	3.95
667.362	3.93
667.69	3.89
668.018	3.87
668.347	3.74
668.675	3.72
669.003	3.76
669.331	3.74
669.659	3.8
669.987	3.8
670.315	3.81
670.643	3.83
670.971	3.86
671.299	3.88
671.627	3.86
671.955	3.85
672.283	3.8
672.61	3.85
672.938	3.89
673.266	3.88
673.593	3.79
673.921	3.77
674.249	3.77
674.576	3.74
674.904	3.71
675.231	3.82
675.558	3.9
675.886	3.9
676.213	3.91
676.54	3.88
676.867	3.85
677.195	3.88
677.522	3.92
677.849	3.94
678.176	3.88
678.503	3.85
678.83	3.8
679.157	3.75
679.484	3.72
679.81	3.68
680.137	3.77
680.464	3.77
680.791	3.84
681.117	3.85
681.444	3.92
681.771	3.97
682.097	3.98
682.424	3.96
682.75	3.93
683.077	3.89
683.403	3.89
683.729	3.89
684.056	3.83
684.382	3.75
684.708	3.78
685.034	3.76
685.36	3.82
685.686	3.93
686.012	3.94
686.339	3.94
686.664	4.01
686.99	3.88
687.316	3.9
687.642	3.8
687.968	4
688.294	3.92
688.619	3.89
688.945	3.89
689.271	3.8
689.596	3.83
689.922	3.87
690.247	3.99
690.573	3.92
690.898	3.89
691.224	3.88
691.549	3.85
691.874	3.81
692.2	3.84
692.525	3.84
692.85	3.91
693.175	3.92
693.5	3.78
693.825	3.88
694.15	3.92
694.475	3.96
694.8	3.82
695.125	3.82
695.45	3.74
695.775	3.7
696.099	3.76
696.424	3.83
696.749	3.9
697.073	3.77
697.398	3.86
697.723	4
698.047	4.05
698.372	4.03
698.696	4.13
699.02	4.1
699.345	4.13
699.669	4.24
699.993	4.32
700.318	4.49
700.642	4.47
700.966	4.53
701.29	4.6
701.614	4.64
701.938	4.67
702.262	4.82
702.586	4.87
702.91	4.87
703.234	4.78
703.557	4.79
703.881	5
704.205	4.99
704.529	4.88
704.852	4.85
705.176	4.97
705.499	4.9
705.823	5.06
706.146	5.05
706.47	4.94
706.793	4.92
707.117	4.92
707.44	4.79
707.763	4.74
708.086	4.66
708.409	4.66
708.733	4.69
709.056	4.58
709.379	4.61
709.702	4.7
710.025	4.75
710.348	4.63
710.671	4.44
710.993	4.38
711.316	4.46
711.639	4.57
711.962	4.61
712.284	4.7
712.607	4.41
712.93	4.29
713.252	4.23
713.575	4.29
713.897	4.11
714.22	4.15
714.542	4.18
714.864	4.19
715.187	4.1
715.509	4.12
715.831	4.23
716.153	4.23
716.475	4.19
716.798	4.11
717.12	4.13
717.442	4.08
717.764	4.23
718.085	4.14
718.407	4.24
718.729	4.1
719.051	3.96
719.373	4.14
719.695	4.16
720.016	4.22
720.338	4.17
720.659	4.17
720.981	4.22
721.302	4.28
721.624	4.36
721.945	4.37
722.267	4.24
722.588	4.15
722.909	4.18
723.231	4.13
723.552	4.17
723.873	4.06
724.194	4.25
724.515	4.27
724.836	4.28
725.157	4.14
725.478	4.04
725.799	4.09
726.12	4.05
726.441	4
726.762	3.99
727.083	4.21
727.403	4.23
727.724	4.28
728.045	4.28
728.365	4.13
728.686	4.1
729.006	4.18
729.327	4.18
729.647	4.24
729.967	4.45
730.288	4.45
730.608	4.75
730.928	4.87
731.249	4.92
731.569	4.98
731.889	4.95
732.209	5.01
732.529	5.12
732.849	5.25
733.169	5.26
733.489	5.13
733.809	4.94
734.129	5
734.448	4.95
734.768	4.95
735.088	5.09
735.408	5.22
735.727	5.38
736.047	5.47
736.366	5.35
736.686	5.23
737.005	5.48
737.325	5.48
737.644	5.18
737.963	5.04
738.283	5.13
738.602	5.34
738.921	5.37
739.24	5.45
739.56	5.4
739.879	5.38
740.198	5.51
740.517	5.34
740.836	5.45
741.155	5.39
741.473	5.49
741.792	5.53
742.111	5.55
742.43	5.58
742.748	5.63
743.067	5.57
743.386	5.48
743.704	5.34
744.023	5.17
744.341	5.42
744.66	5.27
744.978	4.93
745.297	4.73
745.615	4.78
745.933	4.45
746.252	4.68
746.57	4.8
746.888	5.02
747.206	5.31
747.524	5.21
747.842	5.2
748.16	5.01
748.478	5.01
748.796	4.92
749.114	4.71
749.432	4.63
749.749	4.88
750.067	4.64
750.385	4.64
750.703	4.73
751.02	5.02
751.338	5.23
751.655	5.57
751.973	5.71
752.29	5.65
752.608	5.59
752.925	5.39
753.242	5.27
753.56	5.19
753.877	5.29
754.194	5.24
754.511	5.67
754.828	5.57
755.145	5.28
755.462	5.21
755.779	5.11
756.096	5.03
756.413	4.8
756.73	5.19
757.047	4.99
757.364	4.73
757.68	4.72
757.997	4.66
758.314	4.77
758.63	4.65
758.947	4.69
759.264	4.76
759.58	4.56
759.896	4.79
760.213	4.81
760.529	4.74
760.846	4.77
761.162	4.39
761.478	4.48
761.794	4.66
762.11	4.6
762.426	4.51
762.743	4.66
763.059	4.84
763.375	4.73
763.69	4.79
764.006	4.93
764.322	4.67
764.638	4.85
764.954	4.8
765.27	5.06
765.585	5.16
765.901	5.37
766.216	5.56
766.532	5.36
766.848	5.27
767.163	4.89
767.478	5.02
767.794	5.2
768.109	5.28
768.424	5.31
768.74	5.26
769.055	5.63
769.37	5.37
769.685	5.29
770	5.4
770.315	5.39
770.63	5.73
770.945	6.31
771.26	6.15
771.575	5.84
771.89	5.36
772.205	5.25
772.52	5.17
772.834	5.13
773.149	5.41
773.464	5.47
773.778	5.74
774.093	5.84
774.407	5.38
774.722	5.47
775.036	5.32
775.351	5.73
775.665	5.53
775.979	5.69
776.293	5.61
776.608	5.81
776.922	5.95
777.236	5.62
777.55	4.98
777.864	4.74
778.178	5.04
778.492	5.3
778.806	5.23
779.12	5.2
779.434	4.96
779.747	5.04
780.061	5.08
780.375	5.24
780.689	5.15
781.002	5.67
781.316	5.41
781.629	5.38
781.943	5.49
782.256	5.23
782.57	5.42
782.883	5.94
783.196	5.58
783.51	5.58
783.823	5.49
784.136	5.55
784.449	5.55
784.762	5.94
785.075	5.67
785.388	5.78
785.701	5.84
786.014	5.83
786.327	5.48
786.64	5.84
786.953	6.1
787.266	5.89
787.578	5.92
787.891	6.21
788.204	6.37
788.516	6.22
788.829	6.74
789.141	6.81
789.454	6.44
789.766	6.82
790.079	6.93
790.391	6.84
790.703	6.88
791.016	6.93
791.328	5.87
791.64	6.08
791.952	6.15
792.264	5.76
792.576	6.28
792.888	6.4
793.2	5.97
793.512	5.77
793.824	6.03
794.136	6.11
794.448	5.53
794.76	5.66
795.071	5.73
795.383	5.58
795.695	5.37
796.006	5.32
796.318	4.84
796.629	4.85
796.941	5.01
797.252	4.87
797.564	5.15
797.875	5.75
798.186	5.51
798.497	5.26
798.809	5.12
799.12	4.42
799.431	4.11
799.742	4.09
800.053	3.91
800.364	3.85
800.675	4.05
800.986	4.34
801.297	4.39
801.608	3.81
801.918	4.07
802.229	4.14
802.54	3.74
802.851	4.33
803.161	3.78
803.472	3.92
803.782	3.99
804.093	3.95
804.403	3.94
804.714	3.67
805.024	4.06
805.334	4.37
805.645	4.82
805.955	5.26
806.265	5.58
806.575	5.46
806.885	5.58
807.195	5.19
807.505	5.07
807.815	5.42
808.125	5.78
808.435	5.52
808.745	5.44
809.055	6.46
809.365	5.84
809.674	6.37
809.984	5.61
810.294	5.49
810.603	5.37
810.913	5.44
811.222	5.89
811.532	5.76
811.841	6.12
812.151	6.14
812.46	6.76
812.769	6.11
813.079	6.58
813.388	5.92
813.697	6
814.006	5.99
814.315	5.43
814.624	5.15
814.933	4.61
815.242	4.3
815.551	3.52
815.86	4.08
816.169	4.31
816.478	5.39
816.786	5.59
817.095	5.7
817.404	6.18
817.712	6.29
818.021	6.41
818.33	6.74
818.638	7.03
818.947	6.71
819.255	6.67
819.563	6.68
819.872	6.99
820.18	7.06
820.488	7.36
820.796	7.39
821.105	7.56
821.413	7.76
821.721	7.68
822.029	7.84
822.337	7.79
822.645	8.05
822.953	8.02
823.26	8.09
823.568	8.06
823.876	8
824.184	8.02
824.491	8.07
824.799	7.91
825.107	7.79
825.414	7.73
825.722	7.87
826.029	7.87
826.337	7.83
826.644	7.87
826.951	8.11
827.259	8.28
827.566	8.18
827.873	8.26
828.18	8.43
828.488	8.15
828.795	8.26
829.102	8.04
829.409	7.7
829.716	7.62
830.023	7.78
830.329	7.84
830.636	7.75
830.943	7.38
831.25	7.64
831.557	7.72
831.863	7.88
832.17	8.08
832.476	8.42
832.783	8.59
833.089	8
833.396	7.12
833.702	7
834.009	6.99
834.315	7.16
834.621	7.17
834.928	7.87
835.234	7.54
835.54	7.21
835.846	8.01
836.152	7.79
836.458	7.93
836.764	7.62
837.07	7.8
837.376	7.92
837.682	7.69
837.988	8.16
838.293	8.24
838.599	7.81
838.905	7.43
839.211	8.1
839.516	8.29
839.822	8.62
840.127	8.92
840.433	9.74
840.738	8.77
841.044	8.4
841.349	7.13
841.654	7.72
841.959	7.7
842.265	7.26
842.57	7.79
842.875	7.77
843.18	8.09
843.485	7.56
843.79	8.25
844.095	9.5
844.4	9.29
844.705	8.46
845.01	9.76
845.315	9.81
845.619	8.85
845.924	10.11
846.229	10.36
846.533	8.45
846.838	7.42
847.142	7.49
847.447	8.51
847.751	10.52
848.056	9.06
848.36	9.92
848.664	9.71
848.969	8.86
849.273	8.35
849.577	8.36
849.881	9.68
850.185	7.38
850.489	7.55
850.794	7.59
851.097	8.2
851.401	7.11
851.705	8.37
852.009	8.37
852.313	5.89
852.617	6.55
852.92	7.95
853.224	9.05
853.528	9.35
853.831	12.93
854.135	11.22
854.438	12.53
854.742	12.6
855.045	11.8
855.349	11.73
855.652	11.09
855.955	10.47
856.259	10.71
856.562	13.18
856.865	12.47
857.168	13.05
857.471	13.86
857.774	14.01
858.077	13.36
858.38	12.4
858.683	15.6
858.986	15.68
859.289	15.31
859.592	15.74
859.894	16.27
860.197	13.67
860.5	14.82
860.802	13.49
861.105	12.13
861.407	11.99
861.71	12.27
862.012	14.78
862.315	15.64
862.617	14.36
862.919	12.57
863.222	11.89
863.524	8.08
863.826	6.87
864.128	5.22
864.43	5.73
864.732	4.58
865.034	6.27
865.336	6.36
865.638	7.84
865.94	6.82
866.242	6.62
866.544	3.39
866.846	2.07
867.147	5.42
867.449	7.4
867.751	5.39
868.052	4.8
868.354	2.48
868.655	1.71
868.957	2.61
869.258	1.92
869.56	1.17
869.861	2.44
870.162	4.5
870.463	6.95
870.765	5.9
871.066	6.7
871.367	4.48
871.668	2.72
871.969	1.99
872.27	2.17
872.571	2.88
872.872	5.6
873.173	4.31
873.473	2.64
873.774	0.02
874.075	1.83
874.376	3.1
874.676	2.44
874.977	3.05
875.277	2.42
875.578	3.45
875.878	3.42
876.179	4.32
876.479	3.07
876.78	1.46
877.08	0.57
877.38	1.23
877.68	0.34
877.981	1.31
878.281	0.98
878.581	-0.07
