Data from MVZ_BU88648_Reflection_00006.txt Node
Date: Tue Nov 19 12:02:02 EST 2019
User: vgr7
Spectrometer: USB2G7710
Scans to average: 3
Trigger mode: 4
Integration Time (sec): 2.000000E-2
Electric dark correction enabled: true
Boxcar width: 10
XAxis mode: Wavelengths
Number of Pixels in Spectrum: 2048
>>>>>Begin Spectral Data<<<<<
177.721	-1650
178.105	-231.33
178.488	-106.98
178.871	-334.62
179.254	-57.69
179.636	-677.03
180.019	-85.6
180.402	112.5
180.785	97.67
181.168	-60.84
181.55	-230.36
181.933	196.15
182.316	-337.5
182.698	-374.03
183.081	-49.65
183.463	-84.89
183.846	-109.78
184.228	-116.71
184.611	-161
184.993	-130.85
185.376	-151.93
185.758	-112.58
186.14	-155.7
186.522	-136.9
186.904	-124.53
187.287	-204.22
187.669	-99.13
188.051	-156.64
188.433	-128.64
188.815	-148.8
189.197	-146.05
189.579	-165.31
189.961	-172.9
190.342	-174.19
190.724	-159.74
191.106	-241.12
191.488	-197.13
191.869	-180.44
192.251	-142.05
192.633	-152.96
193.014	-227.3
193.396	-158.35
193.777	-139.63
194.159	-133.6
194.54	-132.78
194.922	-150
195.303	-145.63
195.684	-220.54
196.065	-270.97
196.447	-257.73
196.828	-397.93
197.209	-340.51
197.59	-205.84
197.971	-155.22
198.352	-140.18
198.733	-163.67
199.114	-176.36
199.495	-216.8
199.876	-376.54
200.257	-455.73
200.638	-226.68
201.018	-176.52
201.399	-170.44
201.78	-195.62
202.16	-180.88
202.541	-197.74
202.922	-179.92
203.302	-180.93
203.683	-168.75
204.063	-129.65
204.444	-136.05
204.824	-117.51
205.204	-103.94
205.585	-115.46
205.965	-124.2
206.345	-132.06
206.725	-89.4
207.106	-90.39
207.486	-90.27
207.866	-78.43
208.246	-60.13
208.626	-72.93
209.006	-89.29
209.386	-95.58
209.766	-95.69
210.145	-103.25
210.525	-105.14
210.905	-92.52
211.285	-76.11
211.664	-58.93
212.044	-45.47
212.424	-45.41
212.803	-45.36
213.183	-46.78
213.562	-34.47
213.942	-30.54
214.321	-27.8
214.701	-42.72
215.08	-32.48
215.459	-23.28
215.838	-24.48
216.218	-27.59
216.597	-21.12
216.976	-24.68
217.355	-17.82
217.734	-31.41
218.113	-27.38
218.492	-21.26
218.871	-23.23
219.25	-22.8
219.629	-37.67
220.008	-44.92
220.387	-43.52
220.766	-34.26
221.144	-36.77
221.523	-43.82
221.902	-53.59
222.28	-40.09
222.659	-34.62
223.037	-47.28
223.416	-31.7
223.794	-19.93
224.173	-20.77
224.551	-20.84
224.929	-22
225.308	-16.23
225.686	-8.67
226.064	-9.07
226.442	-7.42
226.821	-7.96
227.199	-8.02
227.577	-3.81
227.955	-8.02
228.333	-13.3
228.711	-13.89
229.089	-11.48
229.467	-12.18
229.845	-13.93
230.222	-14.69
230.6	-13.84
230.978	-10.32
231.356	-14.78
231.733	-16.35
232.111	-14.94
232.488	-13.42
232.866	-9.77
233.243	-11.44
233.621	-10.57
233.998	-11.44
234.376	-11.71
234.753	-10.88
235.13	-10.79
235.508	-10.14
235.885	-9.06
236.262	-8.25
236.639	-8.45
237.016	-10.66
237.393	-8.89
237.77	-5.68
238.147	-5.89
238.524	-5.29
238.901	-4.55
239.278	-4.66
239.655	-2.89
240.032	-2.7
240.409	-2.72
240.785	-2.86
241.162	-2.51
241.539	-2.24
241.915	-1.61
242.292	-1.47
242.668	-0.87
243.045	-0.31
243.421	-0.06
243.798	0.36
244.174	0.95
244.551	1.39
244.927	2.17
245.303	2.06
245.679	2.07
246.056	2.56
246.432	3
246.808	3.05
247.184	3.51
247.56	3.5
247.936	3.61
248.312	3.69
248.688	3.85
249.064	3.8
249.44	3.79
249.815	3.9
250.191	4.04
250.567	3.87
250.943	4.08
251.318	3.76
251.694	3.5
252.069	3.39
252.445	3.43
252.82	3.62
253.196	3.92
253.571	3.67
253.947	3.52
254.322	3.33
254.697	3.26
255.073	3.06
255.448	2.97
255.823	2.83
256.198	3.07
256.573	2.94
256.948	3.04
257.323	3.17
257.698	3.05
258.073	3.07
258.448	3.08
258.823	2.94
259.198	3.17
259.573	3.04
259.948	3.06
260.322	2.96
260.697	2.81
261.072	2.61
261.446	2.63
261.821	2.51
262.195	2.31
262.57	2.29
262.944	2.32
263.319	2.21
263.693	2.3
264.067	2.15
264.442	2.31
264.816	2.39
265.19	2.52
265.564	2.56
265.938	2.54
266.313	2.31
266.687	2.2
267.061	2.28
267.435	2.52
267.809	2.64
268.183	2.94
268.556	2.89
268.93	3.07
269.304	3.19
269.678	3.49
270.051	3.68
270.425	3.62
270.799	3.45
271.172	3.48
271.546	3.49
271.919	3.61
272.293	3.62
272.666	3.56
273.04	3.35
273.413	3.45
273.787	3.45
274.16	3.47
274.533	3.34
274.906	3.27
275.279	3.25
275.653	3.16
276.026	2.89
276.399	3.03
276.772	3.12
277.145	3.01
277.518	2.61
277.891	2.48
278.263	2.68
278.636	2.8
279.009	2.93
279.382	2.8
279.755	2.66
280.127	2.59
280.5	2.51
280.872	2.59
281.245	2.51
281.617	2.58
281.99	2.64
282.362	2.93
282.735	2.86
283.107	2.94
283.479	2.95
283.852	3.07
284.224	2.93
284.596	2.86
284.968	2.87
285.34	3.14
285.713	3.25
286.085	3.08
286.457	3.29
286.829	3.25
287.201	3.24
287.572	3.37
287.944	3.54
288.316	3.62
288.688	3.62
289.06	3.58
289.431	3.51
289.803	3.53
290.175	3.34
290.546	3.33
290.918	3.2
291.289	3.14
291.661	3.24
292.032	3.29
292.403	3.13
292.775	3.06
293.146	2.9
293.517	2.89
293.889	2.87
294.26	2.77
294.631	2.8
295.002	2.81
295.373	2.69
295.744	2.5
296.115	2.47
296.486	2.51
296.857	2.51
297.228	2.51
297.599	2.59
297.97	2.77
298.34	2.83
298.711	3
299.082	3.07
299.452	2.98
299.823	2.96
300.194	3.08
300.564	3.14
300.935	3.19
301.305	3.19
301.676	3.24
302.046	3.13
302.416	3.02
302.787	3.08
303.157	3.11
303.527	3.25
303.897	3.18
304.267	3.07
304.637	3.14
305.008	3.07
305.378	2.91
305.748	2.83
306.117	3
306.487	2.98
306.857	3
307.227	2.93
307.597	2.94
307.967	3.01
308.336	2.99
308.706	2.97
309.076	2.97
309.445	2.98
309.815	2.9
310.184	2.9
310.554	2.88
310.923	2.88
311.293	2.8
311.662	2.86
312.031	3.01
312.401	2.96
312.77	2.89
313.139	3.04
313.508	2.93
313.877	2.77
314.246	2.62
314.616	2.67
314.985	2.64
315.353	2.68
315.722	2.74
316.091	2.6
316.46	2.7
316.829	2.62
317.198	2.69
317.567	2.94
317.935	2.97
318.304	3.08
318.672	2.98
319.041	2.97
319.41	3.03
319.778	2.96
320.147	2.95
320.515	3.12
320.883	3.03
321.252	3.06
321.62	3.24
321.988	3.25
322.357	3.15
322.725	3.18
323.093	3.04
323.461	2.98
323.829	3.18
324.197	3.02
324.565	2.94
324.933	2.87
325.301	2.76
325.669	2.76
326.037	2.75
326.405	2.73
326.772	2.62
327.14	2.58
327.508	2.53
327.875	2.46
328.243	2.34
328.61	2.35
328.978	2.46
329.346	2.38
329.713	2.58
330.08	2.55
330.448	2.6
330.815	2.71
331.182	2.46
331.55	2.46
331.917	2.57
332.284	2.62
332.651	2.64
333.018	2.68
333.385	2.75
333.752	2.72
334.119	2.88
334.486	3.1
334.853	3.21
335.22	3.26
335.587	3.5
335.954	3.56
336.32	3.62
336.687	3.54
337.054	3.55
337.42	3.42
337.787	3.62
338.153	3.58
338.52	3.58
338.886	3.73
339.253	3.6
339.619	3.67
339.986	3.66
340.352	3.7
340.718	3.75
341.084	3.65
341.451	3.76
341.817	3.73
342.183	3.63
342.549	3.57
342.915	3.53
343.281	3.46
343.647	3.49
344.013	3.6
344.379	3.67
344.745	3.64
345.11	3.59
345.476	3.53
345.842	3.47
346.208	3.41
346.573	3.43
346.939	3.41
347.304	3.43
347.67	3.49
348.035	3.42
348.401	3.36
348.766	3.41
349.132	3.34
349.497	3.32
349.862	3.35
350.228	3.33
350.593	3.31
350.958	3.4
351.323	3.38
351.688	3.25
352.053	3.17
352.418	3.18
352.783	3.26
353.148	3.18
353.513	3.19
353.878	3.21
354.243	3.23
354.608	3.32
354.972	3.25
355.337	3.24
355.702	3.22
356.066	3.23
356.431	3.22
356.795	3.23
357.16	3.22
357.524	3.2
357.889	3.21
358.253	3.29
358.618	3.23
358.982	3.24
359.346	3.32
359.71	3.29
360.075	3.34
360.439	3.31
360.803	3.4
361.167	3.45
361.531	3.43
361.895	3.37
362.259	3.37
362.623	3.42
362.987	3.38
363.351	3.4
363.714	3.39
364.078	3.41
364.442	3.32
364.806	3.34
365.169	3.34
365.533	3.4
365.896	3.36
366.26	3.31
366.623	3.3
366.987	3.26
367.35	3.3
367.714	3.23
368.077	3.29
368.44	3.26
368.803	3.22
369.167	3.24
369.53	3.28
369.893	3.37
370.256	3.26
370.619	3.29
370.982	3.21
371.345	3.23
371.708	3.23
372.071	3.25
372.434	3.15
372.797	3.25
373.159	3.23
373.522	3.2
373.885	3.3
374.247	3.27
374.61	3.29
374.973	3.3
375.335	3.31
375.698	3.27
376.06	3.27
376.423	3.31
376.785	3.39
377.147	3.37
377.51	3.3
377.872	3.34
378.234	3.33
378.596	3.46
378.958	3.47
379.321	3.43
379.683	3.5
380.045	3.54
380.407	3.47
380.769	3.44
381.13	3.45
381.492	3.38
381.854	3.48
382.216	3.5
382.578	3.52
382.939	3.52
383.301	3.53
383.663	3.52
384.024	3.49
384.386	3.43
384.747	3.41
385.109	3.44
385.47	3.49
385.832	3.49
386.193	3.47
386.554	3.42
386.916	3.44
387.277	3.39
387.638	3.43
387.999	3.5
388.36	3.55
388.721	3.57
389.082	3.6
389.443	3.59
389.804	3.57
390.165	3.55
390.526	3.53
390.887	3.56
391.248	3.56
391.609	3.64
391.969	3.66
392.33	3.69
392.691	3.72
393.051	3.7
393.412	3.72
393.772	3.69
394.133	3.75
394.493	3.71
394.854	3.75
395.214	3.76
395.574	3.78
395.935	3.75
396.295	3.76
396.655	3.73
397.015	3.7
397.376	3.69
397.736	3.73
398.096	3.76
398.456	3.74
398.816	3.72
399.176	3.66
399.535	3.63
399.895	3.66
400.255	3.66
400.615	3.66
400.975	3.66
401.334	3.69
401.694	3.65
402.054	3.72
402.413	3.72
402.773	3.71
403.132	3.66
403.492	3.64
403.851	3.64
404.211	3.64
404.57	3.66
404.929	3.65
405.288	3.64
405.648	3.65
406.007	3.67
406.366	3.7
406.725	3.67
407.084	3.68
407.443	3.66
407.802	3.63
408.161	3.64
408.52	3.65
408.879	3.63
409.238	3.64
409.596	3.63
409.955	3.59
410.314	3.6
410.673	3.61
411.031	3.63
411.39	3.59
411.748	3.6
412.107	3.58
412.465	3.59
412.824	3.56
413.182	3.5
413.54	3.54
413.899	3.55
414.257	3.61
414.615	3.63
414.974	3.64
415.332	3.65
415.69	3.66
416.048	3.64
416.406	3.63
416.764	3.63
417.122	3.63
417.48	3.66
417.838	3.67
418.195	3.63
418.553	3.61
418.911	3.64
419.269	3.66
419.626	3.67
419.984	3.67
420.342	3.69
420.699	3.72
421.057	3.7
421.414	3.68
421.772	3.69
422.129	3.68
422.486	3.67
422.844	3.67
423.201	3.66
423.558	3.66
423.915	3.68
424.273	3.69
424.63	3.69
424.987	3.68
425.344	3.66
425.701	3.69
426.058	3.71
426.415	3.69
426.772	3.68
427.128	3.7
427.485	3.7
427.842	3.7
428.199	3.7
428.555	3.71
428.912	3.7
429.269	3.68
429.625	3.68
429.982	3.7
430.338	3.69
430.695	3.69
431.051	3.71
431.407	3.7
431.764	3.7
432.12	3.71
432.476	3.73
432.832	3.75
433.189	3.75
433.545	3.74
433.901	3.77
434.257	3.78
434.613	3.76
434.969	3.76
435.325	3.75
435.681	3.76
436.036	3.76
436.392	3.76
436.748	3.77
437.104	3.77
437.459	3.77
437.815	3.78
438.171	3.78
438.526	3.8
438.882	3.81
439.237	3.81
439.593	3.8
439.948	3.78
440.304	3.79
440.659	3.81
441.014	3.81
441.369	3.81
441.725	3.81
442.08	3.82
442.435	3.8
442.79	3.82
443.145	3.8
443.5	3.79
443.855	3.8
444.21	3.81
444.565	3.82
444.92	3.81
445.275	3.81
445.629	3.8
445.984	3.79
446.339	3.8
446.693	3.78
447.048	3.77
447.403	3.77
447.757	3.75
448.112	3.75
448.466	3.74
448.82	3.75
449.175	3.74
449.529	3.73
449.883	3.74
450.238	3.73
450.592	3.73
450.946	3.72
451.3	3.72
451.654	3.71
452.008	3.7
452.362	3.7
452.716	3.71
453.07	3.69
453.424	3.67
453.778	3.67
454.132	3.68
454.486	3.7
454.839	3.71
455.193	3.71
455.547	3.7
455.9	3.7
456.254	3.7
456.607	3.71
456.961	3.72
457.314	3.71
457.668	3.73
458.021	3.74
458.375	3.74
458.728	3.73
459.081	3.73
459.434	3.71
459.787	3.73
460.141	3.71
460.494	3.73
460.847	3.72
461.2	3.69
461.553	3.69
461.906	3.69
462.259	3.68
462.611	3.71
462.964	3.7
463.317	3.71
463.67	3.69
464.022	3.68
464.375	3.66
464.728	3.68
465.08	3.66
465.433	3.66
465.785	3.68
466.138	3.68
466.49	3.71
466.843	3.74
467.195	3.75
467.547	3.78
467.899	3.79
468.252	3.81
468.604	3.83
468.956	3.86
469.308	3.84
469.66	3.86
470.012	3.86
470.364	3.88
470.716	3.86
471.068	3.87
471.42	3.9
471.772	3.92
472.123	3.93
472.475	3.92
472.827	3.93
473.178	3.92
473.53	3.92
473.882	3.93
474.233	3.92
474.585	3.91
474.936	3.91
475.288	3.91
475.639	3.92
475.99	3.91
476.342	3.9
476.693	3.93
477.044	3.92
477.395	3.91
477.746	3.91
478.097	3.92
478.448	3.92
478.8	3.92
479.15	3.93
479.501	3.92
479.852	3.92
480.203	3.91
480.554	3.91
480.905	3.94
481.255	3.93
481.606	3.95
481.957	3.96
482.307	3.95
482.658	3.96
483.009	3.97
483.359	3.97
483.709	3.98
484.06	3.97
484.41	3.97
484.761	3.98
485.111	3.99
485.461	4
485.811	4
486.162	4
486.512	4
486.862	4.01
487.212	4.02
487.562	4.03
487.912	4.04
488.262	4.03
488.612	4.03
488.961	4.02
489.311	4.02
489.661	4.01
490.011	4.01
490.36	4.01
490.71	4.01
491.06	4
491.409	4.01
491.759	4.01
492.108	4.01
492.458	4.01
492.807	3.99
493.157	3.99
493.506	3.99
493.855	3.99
494.204	3.99
494.554	3.99
494.903	4
495.252	3.99
495.601	3.99
495.95	3.99
496.299	3.99
496.648	4
496.997	4
497.346	4.01
497.695	4.02
498.043	4.01
498.392	4.02
498.741	4.01
499.09	4.01
499.438	4.01
499.787	4.04
500.135	4.06
500.484	4.05
500.832	4.04
501.181	4.04
501.529	4.04
501.878	4.04
502.226	4.05
502.574	4.05
502.923	4.06
503.271	4.06
503.619	4.07
503.967	4.06
504.315	4.08
504.663	4.06
505.011	4.06
505.359	4.08
505.707	4.07
506.055	4.08
506.403	4.06
506.751	4.07
507.098	4.07
507.446	4.06
507.794	4.06
508.141	4.08
508.489	4.09
508.837	4.1
509.184	4.08
509.531	4.07
509.879	4.08
510.226	4.08
510.574	4.08
510.921	4.08
511.268	4.08
511.616	4.09
511.963	4.13
512.31	4.14
512.657	4.15
513.004	4.16
513.351	4.15
513.698	4.16
514.045	4.15
514.392	4.14
514.739	4.15
515.086	4.16
515.432	4.15
515.779	4.14
516.126	4.16
516.473	4.19
516.819	4.19
517.166	4.2
517.512	4.19
517.859	4.19
518.205	4.18
518.552	4.18
518.898	4.17
519.245	4.15
519.591	4.15
519.937	4.15
520.283	4.15
520.629	4.17
520.976	4.16
521.322	4.19
521.668	4.17
522.014	4.18
522.36	4.18
522.706	4.2
523.052	4.18
523.398	4.16
523.743	4.17
524.089	4.19
524.435	4.19
524.781	4.21
525.126	4.22
525.472	4.24
525.817	4.25
526.163	4.24
526.509	4.25
526.854	4.27
527.199	4.29
527.545	4.29
527.89	4.31
528.235	4.31
528.581	4.3
528.926	4.3
529.271	4.3
529.616	4.3
529.961	4.3
530.306	4.32
530.651	4.32
530.996	4.33
531.341	4.34
531.686	4.35
532.031	4.35
532.376	4.35
532.721	4.35
533.065	4.35
533.41	4.35
533.755	4.34
534.099	4.33
534.444	4.31
534.788	4.31
535.133	4.3
535.477	4.31
535.822	4.31
536.166	4.34
536.51	4.35
536.855	4.36
537.199	4.34
537.543	4.32
537.887	4.33
538.231	4.33
538.576	4.31
538.92	4.31
539.264	4.32
539.608	4.33
539.951	4.33
540.295	4.34
540.639	4.35
540.983	4.35
541.327	4.36
541.671	4.36
542.014	4.36
542.358	4.36
542.701	4.36
543.045	4.36
543.389	4.35
543.732	4.33
544.075	4.34
544.419	4.34
544.762	4.35
545.105	4.35
545.449	4.34
545.792	4.35
546.135	4.34
546.478	4.33
546.821	4.35
547.165	4.33
547.508	4.33
547.851	4.35
548.194	4.32
548.536	4.3
548.879	4.32
549.222	4.32
549.565	4.31
549.908	4.32
550.25	4.32
550.593	4.31
550.936	4.32
551.278	4.3
551.621	4.31
551.963	4.3
552.306	4.31
552.648	4.29
552.991	4.27
553.333	4.24
553.675	4.27
554.017	4.24
554.36	4.26
554.702	4.24
555.044	4.21
555.386	4.22
555.728	4.25
556.07	4.22
556.412	4.25
556.754	4.25
557.096	4.21
557.438	4.21
557.78	4.22
558.121	4.24
558.463	4.23
558.805	4.25
559.147	4.23
559.488	4.21
559.83	4.24
560.171	4.25
560.513	4.28
560.854	4.24
561.196	4.24
561.537	4.25
561.878	4.3
562.22	4.31
562.561	4.34
562.902	4.31
563.243	4.33
563.584	4.3
563.925	4.34
564.266	4.36
564.607	4.38
564.948	4.34
565.289	4.34
565.63	4.36
565.971	4.36
566.312	4.37
566.653	4.36
566.993	4.33
567.334	4.33
567.675	4.33
568.015	4.36
568.356	4.37
568.696	4.36
569.037	4.36
569.377	4.36
569.718	4.35
570.058	4.35
570.398	4.34
570.739	4.35
571.079	4.32
571.419	4.31
571.759	4.29
572.099	4.3
572.439	4.31
572.779	4.31
573.119	4.32
573.459	4.31
573.799	4.34
574.139	4.33
574.479	4.33
574.819	4.33
575.158	4.34
575.498	4.31
575.838	4.34
576.177	4.28
576.517	4.29
576.856	4.28
577.196	4.32
577.535	4.32
577.875	4.32
578.214	4.35
578.553	4.38
578.893	4.38
579.232	4.36
579.571	4.34
579.91	4.35
580.25	4.32
580.589	4.34
580.928	4.35
581.267	4.39
581.606	4.4
581.945	4.39
582.283	4.35
582.622	4.34
582.961	4.34
583.3	4.38
583.639	4.33
583.977	4.36
584.316	4.35
584.654	4.36
584.993	4.38
585.332	4.35
585.67	4.32
586.008	4.4
586.347	4.41
586.685	4.41
587.024	4.39
587.362	4.38
587.7	4.39
588.038	4.38
588.376	4.37
588.715	4.36
589.053	4.36
589.391	4.36
589.729	4.38
590.067	4.36
590.404	4.39
590.742	4.43
591.08	4.46
591.418	4.47
591.756	4.46
592.093	4.48
592.431	4.52
592.769	4.54
593.106	4.51
593.444	4.54
593.781	4.59
594.119	4.6
594.456	4.6
594.793	4.6
595.131	4.61
595.468	4.63
595.805	4.65
596.143	4.66
596.48	4.68
596.817	4.71
597.154	4.7
597.491	4.65
597.828	4.65
598.165	4.6
598.502	4.58
598.839	4.57
599.176	4.53
599.512	4.52
599.849	4.48
600.186	4.44
600.523	4.42
600.859	4.41
601.196	4.41
601.532	4.45
601.869	4.44
602.205	4.44
602.542	4.42
602.878	4.42
603.215	4.4
603.551	4.39
603.887	4.35
604.223	4.34
604.56	4.36
604.896	4.37
605.232	4.38
605.568	4.42
605.904	4.41
606.24	4.44
606.576	4.47
606.912	4.46
607.248	4.49
607.583	4.53
607.919	4.51
608.255	4.53
608.591	4.55
608.926	4.56
609.262	4.54
609.597	4.58
609.933	4.57
610.268	4.61
610.604	4.65
610.939	4.7
611.275	4.7
611.61	4.7
611.945	4.66
612.281	4.63
612.616	4.63
612.951	4.67
613.286	4.65
613.621	4.61
613.956	4.63
614.291	4.62
614.626	4.63
614.961	4.63
615.296	4.6
615.631	4.57
615.966	4.52
616.3	4.56
616.635	4.54
616.97	4.57
617.304	4.55
617.639	4.51
617.973	4.46
618.308	4.5
618.642	4.49
618.977	4.51
619.311	4.58
619.646	4.57
619.98	4.58
620.314	4.6
620.648	4.58
620.983	4.57
621.317	4.59
621.651	4.54
621.985	4.58
622.319	4.59
622.653	4.62
622.987	4.64
623.321	4.58
623.655	4.54
623.988	4.56
624.322	4.55
624.656	4.54
624.99	4.57
625.323	4.56
625.657	4.59
625.99	4.58
626.324	4.51
626.657	4.51
626.991	4.56
627.324	4.53
627.658	4.57
627.991	4.61
628.324	4.59
628.657	4.62
628.991	4.61
629.324	4.59
629.657	4.54
629.99	4.54
630.323	4.56
630.656	4.56
630.989	4.56
631.322	4.55
631.655	4.57
631.987	4.56
632.32	4.61
632.653	4.6
632.986	4.61
633.318	4.66
633.651	4.64
633.984	4.53
634.316	4.56
634.649	4.52
634.981	4.52
635.313	4.56
635.646	4.58
635.978	4.62
636.31	4.62
636.643	4.61
636.975	4.56
637.307	4.62
637.639	4.6
637.971	4.54
638.303	4.53
638.635	4.55
638.967	4.57
639.299	4.47
639.631	4.47
639.963	4.47
640.295	4.46
640.626	4.51
640.958	4.51
641.29	4.52
641.621	4.55
641.953	4.5
642.285	4.46
642.616	4.44
642.948	4.4
643.279	4.4
643.61	4.42
643.942	4.41
644.273	4.38
644.604	4.38
644.936	4.39
645.267	4.45
645.598	4.47
645.929	4.43
646.26	4.48
646.591	4.5
646.922	4.53
647.253	4.54
647.584	4.54
647.915	4.62
648.245	4.61
648.576	4.58
648.907	4.62
649.238	4.61
649.568	4.64
649.899	4.61
650.229	4.68
650.56	4.7
650.89	4.78
651.221	4.75
651.551	4.81
651.882	4.76
652.212	4.71
652.542	4.73
652.872	4.71
653.203	4.75
653.533	4.77
653.863	4.74
654.193	4.67
654.523	4.63
654.853	4.67
655.183	4.69
655.513	4.73
655.843	4.73
656.172	4.75
656.502	4.69
656.832	4.73
657.162	4.65
657.491	4.76
657.821	4.79
658.15	4.83
658.48	4.81
658.809	4.88
659.139	4.89
659.468	4.93
659.798	5.02
660.127	4.96
660.456	4.9
660.785	4.93
661.115	5.01
661.444	5.03
661.773	4.97
662.102	5.01
662.431	4.96
662.76	4.96
663.089	4.94
663.418	4.98
663.747	4.9
664.076	4.92
664.404	4.82
664.733	4.8
665.062	4.81
665.39	4.82
665.719	4.78
666.048	4.77
666.376	4.67
666.705	4.59
667.033	4.65
667.362	4.65
667.69	4.56
668.018	4.61
668.347	4.56
668.675	4.58
669.003	4.44
669.331	4.45
669.659	4.45
669.987	4.47
670.315	4.45
670.643	4.44
670.971	4.5
671.299	4.46
671.627	4.43
671.955	4.46
672.283	4.44
672.61	4.51
672.938	4.56
673.266	4.55
673.593	4.55
673.921	4.57
674.249	4.64
674.576	4.72
674.904	4.64
675.231	4.71
675.558	4.79
675.886	4.95
676.213	5.02
676.54	5.02
676.867	4.96
677.195	5.02
677.522	5.09
677.849	5.11
678.176	5.06
678.503	5.12
678.83	5.07
679.157	5.06
679.484	5.02
679.81	5.02
680.137	5.06
680.464	5.1
680.791	5.09
681.117	5.04
681.444	5
681.771	5.03
682.097	5.01
682.424	4.9
682.75	4.87
683.077	4.87
683.403	4.86
683.729	4.88
684.056	4.85
684.382	4.81
684.708	4.72
685.034	4.7
685.36	4.66
685.686	4.7
686.012	4.72
686.339	4.71
686.664	4.72
686.99	4.65
687.316	4.59
687.642	4.58
687.968	4.6
688.294	4.55
688.619	4.58
688.945	4.51
689.271	4.56
689.596	4.61
689.922	4.5
690.247	4.54
690.573	4.63
690.898	4.67
691.224	4.56
691.549	4.61
691.874	4.76
692.2	4.76
692.525	4.67
692.85	4.71
693.175	4.81
693.5	4.67
693.825	4.71
694.15	4.67
694.475	4.7
694.8	4.68
695.125	4.75
695.45	4.62
695.775	4.68
696.099	4.72
696.424	4.63
696.749	4.76
697.073	4.68
697.398	4.69
697.723	4.62
698.047	4.77
698.372	4.78
698.696	4.64
699.02	4.57
699.345	4.67
699.669	4.64
699.993	4.61
700.318	4.75
700.642	4.74
700.966	4.77
701.29	4.75
701.614	4.81
701.938	4.78
702.262	4.88
702.586	4.93
702.91	4.87
703.234	4.9
703.557	4.83
703.881	4.99
704.205	4.9
704.529	5.02
704.852	5.02
705.176	5.1
705.499	5.2
705.823	5.29
706.146	5.34
706.47	5.44
706.793	5.48
707.117	5.49
707.44	5.56
707.763	5.64
708.086	5.64
708.409	5.62
708.733	5.66
709.056	5.72
709.379	5.68
709.702	5.68
710.025	5.77
710.348	5.82
710.671	5.64
710.993	5.72
711.316	5.79
711.639	5.67
711.962	5.7
712.284	5.82
712.607	5.81
712.93	5.74
713.252	5.71
713.575	5.69
713.897	5.63
714.22	5.54
714.542	5.55
714.864	5.5
715.187	5.45
715.509	5.3
715.831	5.12
716.153	5.12
716.475	5.2
716.798	5.08
717.12	5.07
717.442	5.18
717.764	5.08
718.085	4.98
718.407	5.02
718.729	4.93
719.051	4.86
719.373	4.95
719.695	4.94
720.016	4.77
720.338	4.77
720.659	4.73
720.981	4.76
721.302	4.95
721.624	4.88
721.945	4.95
722.267	5.13
722.588	5.27
722.909	5.17
723.231	5.05
723.552	5.08
723.873	4.97
724.194	4.82
724.515	5.04
724.836	4.85
725.157	4.88
725.478	4.66
725.799	4.56
726.12	4.5
726.441	4.44
726.762	4.56
727.083	4.5
727.403	4.46
727.724	4.42
728.045	4.29
728.365	4.49
728.686	4.49
729.006	4.63
729.327	4.66
729.647	4.9
729.967	4.87
730.288	4.8
730.608	5.02
730.928	5.18
731.249	5.26
731.569	5.4
731.889	5.44
732.209	5.61
732.529	5.75
732.849	5.74
733.169	5.67
733.489	5.55
733.809	5.54
734.129	5.75
734.448	5.92
734.768	5.84
735.088	5.74
735.408	5.91
735.727	5.87
736.047	5.95
736.366	5.77
736.686	5.77
737.005	5.95
737.325	5.78
737.644	5.7
737.963	5.6
738.283	5.57
738.602	5.55
738.921	5.68
739.24	5.65
739.56	5.56
739.879	5.51
740.198	5.63
740.517	5.81
740.836	5.72
741.155	5.58
741.473	5.46
741.792	5.52
742.111	5.36
742.43	5.43
742.748	5.48
743.067	5.41
743.386	5.42
743.704	5.39
744.023	5.31
744.341	5.33
744.66	5.03
744.978	5.04
745.297	5.1
745.615	4.85
745.933	4.91
746.252	5.16
746.57	5.33
746.888	5.33
747.206	5.11
747.524	4.94
747.842	4.86
748.16	4.93
748.478	4.77
748.796	4.8
749.114	4.53
749.432	4.4
749.749	4.54
750.067	4.63
750.385	4.74
750.703	4.87
751.02	4.94
751.338	4.84
751.655	4.64
751.973	4.52
752.29	4.55
752.608	4.45
752.925	4.33
753.242	4.4
753.56	4.56
753.877	4.75
754.194	4.76
754.511	4.78
754.828	4.81
755.145	5
755.462	5.16
755.779	5.53
756.096	5.47
756.413	5.5
756.73	5.54
757.047	5.46
757.364	5.48
757.68	5.39
757.997	5.68
758.314	6.26
758.63	6.23
758.947	6.46
759.264	6.3
759.58	6.37
759.896	6.55
760.213	6.67
760.529	6.47
760.846	6.48
761.162	6.34
761.478	6.42
761.794	6.54
762.11	6.38
762.426	6.2
762.743	6
763.059	5.93
763.375	5.87
763.69	6.06
764.006	5.96
764.322	6.09
764.638	6.36
764.954	6.22
765.27	6.23
765.585	6.27
765.901	6.32
766.216	6.35
766.532	6.02
766.848	5.61
767.163	5.55
767.478	5.38
767.794	5.7
768.109	5.7
768.424	5.35
768.74	5.34
769.055	5.48
769.37	5.74
769.685	5.85
770	5.87
770.315	5.51
770.63	5.26
770.945	5.26
771.26	4.71
771.575	4.36
771.89	4.14
772.205	3.83
772.52	3.83
772.834	3.72
773.149	3.9
773.464	4.07
773.778	4.22
774.093	4.41
774.407	4.37
774.722	4.2
775.036	4.33
775.351	4.45
775.665	4.08
775.979	3.89
776.293	3.75
776.608	3.9
776.922	3.64
777.236	3.88
777.55	3.86
777.864	3.89
778.178	4.24
778.492	4.46
778.806	4.73
779.12	5.16
779.434	5.13
779.747	5.45
780.061	5.47
780.375	5.58
780.689	5.69
781.002	5.51
781.316	5.58
781.629	5.35
781.943	5.05
782.256	5.31
782.57	5.5
782.883	5.72
783.196	5.53
783.51	5.77
783.823	6.06
784.136	5.77
784.449	5.98
784.762	5.91
785.075	6
785.388	6.04
785.701	5.67
786.014	5.58
786.327	5.44
786.64	5.46
786.953	5.52
787.266	5.42
787.578	5.27
787.891	5.02
788.204	5.04
788.516	5.34
788.829	5.29
789.141	5.72
789.454	5.33
789.766	5.49
790.079	5.4
790.391	5.44
790.703	5.66
791.016	5.73
791.328	5.34
791.64	5.62
791.952	5.34
792.264	5.44
792.576	5.65
792.888	5.55
793.2	5.34
793.512	5
793.824	5.09
794.136	4.73
794.448	4.74
794.76	5.42
795.071	5.21
795.383	4.93
795.695	4.42
796.006	4.73
796.318	4.93
796.629	4.8
796.941	4.75
797.252	4.49
797.564	4.56
797.875	4.16
798.186	3.69
798.497	3.63
798.809	3.52
799.12	3.34
799.431	3.25
799.742	3.86
800.053	3.82
800.364	4.05
800.675	4.84
800.986	5.56
801.297	4.71
801.608	4.94
801.918	5.02
802.229	4.91
802.54	4.28
802.851	3.84
803.161	4.04
803.472	3.55
803.782	3.72
804.093	3.21
804.403	3.42
804.714	3.73
805.024	4.08
805.334	4.07
805.645	4.11
805.955	4.67
806.265	4.36
806.575	4.88
806.885	4.35
807.195	4.63
807.505	3.89
807.815	4.07
808.125	4.1
808.435	4.53
808.745	4.22
809.055	5.2
809.365	5.22
809.674	4.93
809.984	5.06
810.294	5
810.603	5.42
810.913	5.52
811.222	4.45
811.532	3.96
811.841	4.48
812.151	4.58
812.46	3.73
812.769	3.91
813.079	3.39
813.388	3.71
813.697	2.65
814.006	3.4
814.315	4
814.624	3.91
814.933	4.18
815.242	4.31
815.551	3.78
815.86	4.48
816.169	4.6
816.478	5.43
816.786	4.81
817.095	4.7
817.404	5.42
817.712	6.34
818.021	6.74
818.33	6.62
818.638	6.09
818.947	6.45
819.255	6.43
819.563	6.89
819.872	6.71
820.18	7.44
820.488	7.53
820.796	7.68
821.105	7.72
821.413	7.73
821.721	7.88
822.029	7.72
822.337	7.71
822.645	7.89
822.953	7.8
823.26	7.96
823.568	8.04
823.876	7.86
824.184	7.98
824.491	7.95
824.799	7.95
825.107	8.13
825.414	8.12
825.722	8.02
826.029	7.85
826.337	8
826.644	7.8
826.951	7.73
827.259	7.57
827.566	7.7
827.873	7.45
828.18	7.63
828.488	7.62
828.795	7.32
829.102	6.92
829.409	6.59
829.716	6.71
830.023	6.74
830.329	7.01
830.636	6.47
830.943	6.29
831.25	6.26
831.557	5.95
831.863	5.71
832.17	6.02
832.476	6.34
832.783	5.96
833.089	5.54
833.396	5.66
833.702	5.74
834.009	5.46
834.315	5.8
834.621	5.16
834.928	5.74
835.234	5.71
835.54	6.11
835.846	6.52
836.152	6.31
836.458	6.1
836.764	6.33
837.07	6.45
837.376	6.63
837.682	6.59
837.988	6.94
838.293	7.71
838.599	7.84
838.905	7.84
839.211	8.4
839.516	8.96
839.822	9.01
840.127	8.71
840.433	8
840.738	7.03
841.044	7.66
841.349	6.8
841.654	7.26
841.959	7.85
842.265	7.75
842.57	7.55
842.875	7.49
843.18	6.53
843.485	7.59
843.79	7.46
844.095	6.58
844.4	6.34
844.705	5.76
845.01	4.85
845.315	4.42
845.619	5.36
845.924	4.93
846.229	5.13
846.533	4.59
846.838	5.15
847.142	4.64
847.447	3.01
847.751	4.26
848.056	3.96
848.36	2.38
848.664	2.67
848.969	3.28
849.273	1.48
849.577	1.07
849.881	0.81
850.185	1.24
850.489	0.86
850.794	1.99
851.097	0.88
851.401	-1.64
851.705	-0.98
852.009	-2.79
852.313	-3.49
852.617	-5.6
852.92	-3.41
853.224	-4.63
853.528	-3.09
853.831	-1.11
854.135	-0.87
854.438	-2.2
854.742	-3.52
855.045	-3.97
855.349	-4.2
855.652	-1.72
855.955	-0.68
856.259	-2
856.562	-2.52
856.865	-0.52
857.168	-1.2
857.471	-0.08
857.774	3.17
858.077	2.58
858.38	4.23
858.683	6.25
858.986	7.76
859.289	6.49
859.592	9.92
859.894	11.76
860.197	10.83
860.5	10.99
860.802	11.42
861.105	12.58
861.407	11.5
861.71	10.24
862.012	10.3
862.315	10.34
862.617	9.5
862.919	7.48
863.222	4.93
863.524	3.65
863.826	1.83
864.128	0.45
864.43	0.7
864.732	-2.37
865.034	-1
865.336	-0.94
865.638	-1.11
865.94	-3.62
866.242	-4.5
866.544	-2.04
866.846	-2.12
867.147	-1.49
867.449	1.01
867.751	2.16
868.052	1.91
868.354	1.56
868.655	2.96
868.957	4.96
869.258	7.19
869.56	7.25
869.861	8.46
870.162	8.22
870.463	7.94
870.765	5.65
871.066	6.09
871.367	2.97
871.668	0.27
871.969	-1.55
872.27	-0.49
872.571	-0.49
872.872	-0.45
873.173	-0.69
873.473	-1.13
873.774	-1.34
874.075	-3.8
874.376	-3.28
874.676	-1.84
874.977	-3.62
875.277	-3.5
875.578	-2.72
875.878	-0.99
876.179	-1.92
876.479	-0.6
876.78	0.69
877.08	3.36
877.38	4.08
877.68	5.47
877.981	8.12
878.281	13.17
878.581	13
