Data from MVZ_BU165823_Reflection_00009.txt Node
Date: Tue Nov 19 12:10:31 EST 2019
User: vgr7
Spectrometer: USB2G7710
Scans to average: 3
Trigger mode: 4
Integration Time (sec): 2.000000E-2
Electric dark correction enabled: true
Boxcar width: 10
XAxis mode: Wavelengths
Number of Pixels in Spectrum: 2048
>>>>>Begin Spectral Data<<<<<
177.721	-107.87
178.105	-155.76
178.488	-72.55
178.871	-33.88
179.254	4.26
179.636	111.08
180.019	-8.82
180.402	75
180.785	85.25
181.168	150.14
181.55	145.06
181.933	112.53
182.316	91.33
182.698	1872.73
183.081	264.23
183.463	-874.23
183.846	-1767.35
184.228	-269.18
184.611	-93.03
184.993	-75.13
185.376	-68.64
185.758	-46.16
186.14	-38.23
186.522	-10.26
186.904	19.32
187.287	28.5
187.669	29.7
188.051	28.91
188.433	34.34
188.815	29.7
189.197	38.24
189.579	33.5
189.961	38.56
190.342	51.19
190.724	42.46
191.106	53.66
191.488	62.48
191.869	49.02
192.251	56.39
192.633	59.32
193.014	68.34
193.396	67.19
193.777	63.51
194.159	51.92
194.54	57.08
194.922	52.5
195.303	40
195.684	85.66
196.065	73.89
196.447	40.35
196.828	60.58
197.209	50.46
197.59	68.27
197.971	47.14
198.352	-2.93
198.733	-7.47
199.114	3.67
199.495	2.15
199.876	-14.49
200.257	-45.96
200.638	-39.27
201.018	-63.67
201.399	-53.79
201.78	-21.71
202.16	-36.99
202.541	-40.04
202.922	-47.33
203.302	-35.46
203.683	-7.67
204.063	-13.73
204.444	-6.08
204.824	-16.98
205.204	-23.59
205.585	-31.79
205.965	-29.65
206.345	-24.93
206.725	-19.1
207.106	-30.74
207.486	-31.39
207.866	-16.55
208.246	-6.35
208.626	-14.87
209.006	-16.03
209.386	-25.85
209.766	-31.5
210.145	-33.23
210.525	-49.62
210.905	-34.02
211.285	-44.29
211.664	-46.76
212.044	-52.99
212.424	-45.39
212.803	-39.46
213.183	-34.61
213.562	-19.29
213.942	-18.89
214.321	-35.8
214.701	-51.06
215.08	-47.61
215.459	-45
215.838	-45.82
216.218	-43.42
216.597	-41.1
216.976	-61.85
217.355	-48.99
217.734	-94.42
218.113	-43.88
218.492	-22.06
218.871	-36.72
219.25	-27.46
219.629	-63.65
220.008	-71.4
220.387	-81.23
220.766	-69.83
221.144	-69.55
221.523	-99.35
221.902	-89.41
222.28	-84.68
222.659	-35.19
223.037	-37.04
223.416	-35.96
223.794	-31.4
224.173	-42.74
224.551	-42.22
224.929	-36.73
225.308	-28.45
225.686	-20.39
226.064	-25.62
226.442	-23.63
226.821	-22.67
227.199	-18.32
227.577	-12.61
227.955	-11.4
228.333	-12.05
228.711	-13.96
229.089	-9.51
229.467	-8.86
229.845	-8.64
230.222	-6.54
230.6	-6.36
230.978	-2.22
231.356	0.46
231.733	0.93
232.111	3.19
232.488	7.12
232.866	6.51
233.243	4.78
233.621	4.98
233.998	6.99
234.376	7.04
234.753	6.92
235.13	7.06
235.508	6.27
235.885	6.47
236.262	5.22
236.639	4.19
237.016	2.64
237.393	4.06
237.77	4.02
238.147	3.64
238.524	2.87
238.901	1.62
239.278	0.65
239.655	-0.13
240.032	0.27
240.409	-0.23
240.785	0.27
241.162	0.83
241.539	1.59
241.915	1.15
242.292	1.32
242.668	1.59
243.045	2.12
243.421	2.86
243.798	2.77
244.174	3.49
244.551	4.03
244.927	4.09
245.303	3.87
245.679	3.88
246.056	4.06
246.432	4.06
246.808	4.32
247.184	4.59
247.56	4.51
247.936	4.45
248.312	4.5
248.688	4.56
249.064	4.35
249.44	4.18
249.815	4.44
250.191	4.57
250.567	4.43
250.943	4.32
251.318	4.47
251.694	4.57
252.069	4.37
252.445	4.37
252.82	4.51
253.196	4.57
253.571	4.66
253.947	4.59
254.322	4.64
254.697	4.39
255.073	4.12
255.448	4.36
255.823	4.53
256.198	4.51
256.573	4.49
256.948	4.62
257.323	4.74
257.698	4.59
258.073	4.31
258.448	4.41
258.823	4.36
259.198	4.15
259.573	3.91
259.948	3.81
260.322	3.66
260.697	3.72
261.072	3.77
261.446	3.76
261.821	3.74
262.195	3.56
262.57	3.56
262.944	3.69
263.319	3.62
263.693	3.45
264.067	3.3
264.442	3.2
264.816	3.17
265.19	2.92
265.564	2.85
265.938	3
266.313	2.92
266.687	2.85
267.061	2.85
267.435	3.28
267.809	3.37
268.183	3.4
268.556	3.37
268.93	3.45
269.304	3.47
269.678	3.51
270.051	3.67
270.425	3.66
270.799	3.57
271.172	3.69
271.546	3.88
271.919	4.01
272.293	4.25
272.666	4.3
273.04	4.35
273.413	4.36
273.787	4.25
274.16	4.34
274.533	4.43
274.906	4.41
275.279	4.31
275.653	4.33
276.026	4.51
276.399	4.32
276.772	4.15
277.145	4.08
277.518	3.95
277.891	4.02
278.263	4.16
278.636	4.27
279.009	4.34
279.382	4.31
279.755	4.35
280.127	4.09
280.5	4.09
280.872	4.03
281.245	4.07
281.617	4.12
281.99	4.13
282.362	4.14
282.735	4.03
283.107	4.12
283.479	4.07
283.852	3.9
284.224	4.11
284.596	4.16
284.968	4.12
285.34	4.18
285.713	4.16
286.085	4.07
286.457	4.02
286.829	3.92
287.201	3.88
287.572	3.82
287.944	3.84
288.316	3.87
288.688	4.06
289.06	4.12
289.431	4.23
289.803	4.25
290.175	4.33
290.546	4.41
290.918	4.35
291.289	4.25
291.661	4.27
292.032	4.15
292.403	4.29
292.775	4.44
293.146	4.52
293.517	4.42
293.889	4.27
294.26	4.39
294.631	4.57
295.002	4.67
295.373	4.66
295.744	4.64
296.115	4.57
296.486	4.47
296.857	4.51
297.228	4.53
297.599	4.61
297.97	4.54
298.34	4.65
298.711	4.7
299.082	4.78
299.452	4.77
299.823	5
300.194	4.91
300.564	4.95
300.935	4.91
301.305	4.93
301.676	5.07
302.046	4.99
302.416	4.9
302.787	4.86
303.157	5
303.527	5.25
303.897	5.31
304.267	5.39
304.637	5.31
305.008	5.15
305.378	5.04
305.748	5.07
306.117	4.98
306.487	5
306.857	5.08
307.227	5.23
307.597	5.03
307.967	5.22
308.336	5.16
308.706	5.3
309.076	5.38
309.445	5.48
309.815	5.47
310.184	5.47
310.554	5.48
310.923	5.45
311.293	5.35
311.662	5.36
312.031	5.35
312.401	5.31
312.77	5.37
313.139	5.54
313.508	5.59
313.877	5.62
314.246	5.61
314.616	5.66
314.985	5.66
315.353	5.83
315.722	5.82
316.091	5.7
316.46	5.78
316.829	5.9
317.198	5.98
317.567	6.15
317.935	6.36
318.304	6.42
318.672	6.53
319.041	6.5
319.41	6.44
319.778	6.57
320.147	6.63
320.515	6.76
320.883	6.6
321.252	6.62
321.62	6.51
321.988	6.62
322.357	6.54
322.725	6.47
323.093	6.48
323.461	6.41
323.829	6.62
324.197	6.53
324.565	6.52
324.933	6.38
325.301	6.35
325.669	6.24
326.037	6.21
326.405	6.29
326.772	6.33
327.14	6.34
327.508	6.41
327.875	6.48
328.243	6.49
328.61	6.45
328.978	6.47
329.346	6.7
329.713	6.79
330.08	7.04
330.448	7.11
330.815	7.23
331.182	7.34
331.55	7.42
331.917	7.41
332.284	7.51
332.651	7.61
333.018	7.61
333.385	7.61
333.752	7.72
334.119	7.7
334.486	7.84
334.853	7.97
335.22	7.74
335.587	7.66
335.954	7.63
336.32	7.67
336.687	7.74
337.054	7.82
337.42	7.77
337.787	7.64
338.153	7.78
338.52	7.71
338.886	7.69
339.253	7.62
339.619	7.72
339.986	7.59
340.352	7.61
340.718	7.68
341.084	7.82
341.451	7.84
341.817	7.72
342.183	7.68
342.549	7.81
342.915	7.93
343.281	8
343.647	7.98
344.013	8
344.379	7.95
344.745	8
345.11	7.99
345.476	8.13
345.842	8.1
346.208	8.2
346.573	8.14
346.939	8.13
347.304	8.14
347.67	8.14
348.035	8.22
348.401	8.09
348.766	7.91
349.132	7.99
349.497	8.08
349.862	8.04
350.228	7.94
350.593	8.01
350.958	8.06
351.323	8.09
351.688	8.19
352.053	8.18
352.418	8.01
352.783	7.96
353.148	7.85
353.513	7.8
353.878	7.7
354.243	7.66
354.608	7.81
354.972	7.74
355.337	7.86
355.702	7.77
356.066	7.7
356.431	7.77
356.795	7.63
357.16	7.6
357.524	7.58
357.889	7.5
358.253	7.34
358.618	7.29
358.982	7.26
359.346	7.25
359.71	7.24
360.075	7.31
360.439	7.35
360.803	7.41
361.167	7.36
361.531	7.3
361.895	7.3
362.259	7.22
362.623	7.23
362.987	7.21
363.351	7.18
363.714	7.28
364.078	7.25
364.442	7.22
364.806	7.24
365.169	7.25
365.533	7.3
365.896	7.44
366.26	7.38
366.623	7.4
366.987	7.35
367.35	7.36
367.714	7.32
368.077	7.25
368.44	7.18
368.803	7.16
369.167	7.15
369.53	7.14
369.893	7.07
370.256	7.04
370.619	6.9
370.982	6.87
371.345	6.86
371.708	6.83
372.071	6.77
372.434	6.67
372.797	6.6
373.159	6.54
373.522	6.39
373.885	6.37
374.247	6.32
374.61	6.33
374.973	6.26
375.335	6.13
375.698	6.15
376.06	6.06
376.423	6
376.785	5.96
377.147	5.92
377.51	5.84
377.872	5.73
378.234	5.77
378.596	5.75
378.958	5.66
379.321	5.58
379.683	5.58
380.045	5.51
380.407	5.51
380.769	5.42
381.13	5.36
381.492	5.32
381.854	5.29
382.216	5.19
382.578	5.17
382.939	5.13
383.301	5.07
383.663	5.03
384.024	5.03
384.386	5
384.747	4.94
385.109	4.96
385.47	4.98
385.832	4.93
386.193	4.93
386.554	4.9
386.916	4.95
387.277	4.91
387.638	4.92
387.999	4.91
388.36	4.93
388.721	4.94
389.082	4.93
389.443	4.9
389.804	4.89
390.165	4.84
390.526	4.85
390.887	4.81
391.248	4.81
391.609	4.79
391.969	4.79
392.33	4.81
392.691	4.77
393.051	4.71
393.412	4.7
393.772	4.65
394.133	4.59
394.493	4.49
394.854	4.47
395.214	4.49
395.574	4.44
395.935	4.43
396.295	4.38
396.655	4.35
397.015	4.34
397.376	4.31
397.736	4.29
398.096	4.27
398.456	4.22
398.816	4.18
399.176	4.13
399.535	4.1
399.895	4.06
400.255	4.05
400.615	4.02
400.975	3.95
401.334	3.95
401.694	3.96
402.054	3.97
402.413	3.92
402.773	3.85
403.132	3.8
403.492	3.77
403.851	3.79
404.211	3.8
404.57	3.78
404.929	3.76
405.288	3.72
405.648	3.69
406.007	3.68
406.366	3.64
406.725	3.66
407.084	3.66
407.443	3.64
407.802	3.61
408.161	3.63
408.52	3.65
408.879	3.67
409.238	3.65
409.596	3.64
409.955	3.63
410.314	3.66
410.673	3.69
411.031	3.65
411.39	3.65
411.748	3.64
412.107	3.62
412.465	3.66
412.824	3.66
413.182	3.64
413.54	3.66
413.899	3.67
414.257	3.67
414.615	3.63
414.974	3.63
415.332	3.64
415.69	3.61
416.048	3.61
416.406	3.57
416.764	3.57
417.122	3.59
417.48	3.6
417.838	3.59
418.195	3.56
418.553	3.58
418.911	3.59
419.269	3.56
419.626	3.58
419.984	3.53
420.342	3.54
420.699	3.53
421.057	3.53
421.414	3.53
421.772	3.51
422.129	3.51
422.486	3.52
422.844	3.51
423.201	3.53
423.558	3.5
423.915	3.49
424.273	3.48
424.63	3.48
424.987	3.46
425.344	3.46
425.701	3.44
426.058	3.43
426.415	3.39
426.772	3.39
427.128	3.37
427.485	3.36
427.842	3.34
428.199	3.35
428.555	3.34
428.912	3.34
429.269	3.32
429.625	3.32
429.982	3.27
430.338	3.25
430.695	3.24
431.051	3.24
431.407	3.23
431.764	3.21
432.12	3.22
432.476	3.25
432.832	3.24
433.189	3.27
433.545	3.26
433.901	3.29
434.257	3.29
434.613	3.27
434.969	3.29
435.325	3.29
435.681	3.28
436.036	3.29
436.392	3.28
436.748	3.28
437.104	3.29
437.459	3.31
437.815	3.32
438.171	3.31
438.526	3.32
438.882	3.32
439.237	3.35
439.593	3.33
439.948	3.33
440.304	3.33
440.659	3.3
441.014	3.3
441.369	3.28
441.725	3.28
442.08	3.28
442.435	3.29
442.79	3.28
443.145	3.28
443.5	3.27
443.855	3.27
444.21	3.29
444.565	3.27
444.92	3.27
445.275	3.27
445.629	3.27
445.984	3.26
446.339	3.28
446.693	3.26
447.048	3.26
447.403	3.23
447.757	3.24
448.112	3.25
448.466	3.26
448.82	3.25
449.175	3.26
449.529	3.26
449.883	3.25
450.238	3.26
450.592	3.27
450.946	3.28
451.3	3.27
451.654	3.24
452.008	3.25
452.362	3.23
452.716	3.22
453.07	3.23
453.424	3.24
453.778	3.22
454.132	3.21
454.486	3.22
454.839	3.23
455.193	3.22
455.547	3.23
455.9	3.2
456.254	3.22
456.607	3.21
456.961	3.2
457.314	3.19
457.668	3.2
458.021	3.2
458.375	3.19
458.728	3.2
459.081	3.22
459.434	3.22
459.787	3.26
460.141	3.26
460.494	3.26
460.847	3.26
461.2	3.25
461.553	3.26
461.906	3.26
462.259	3.26
462.611	3.24
462.964	3.25
463.317	3.25
463.67	3.26
464.022	3.28
464.375	3.29
464.728	3.3
465.08	3.29
465.433	3.3
465.785	3.32
466.138	3.31
466.49	3.31
466.843	3.3
467.195	3.3
467.547	3.3
467.899	3.3
468.252	3.31
468.604	3.34
468.956	3.37
469.308	3.36
469.66	3.39
470.012	3.4
470.364	3.4
470.716	3.41
471.068	3.4
471.42	3.38
471.772	3.41
472.123	3.4
472.475	3.4
472.827	3.42
473.178	3.43
473.53	3.45
473.882	3.46
474.233	3.46
474.585	3.44
474.936	3.45
475.288	3.42
475.639	3.41
475.99	3.39
476.342	3.38
476.693	3.39
477.044	3.37
477.395	3.36
477.746	3.36
478.097	3.36
478.448	3.38
478.8	3.38
479.15	3.36
479.501	3.36
479.852	3.4
480.203	3.39
480.554	3.39
480.905	3.39
481.255	3.39
481.606	3.41
481.957	3.41
482.307	3.42
482.658	3.44
483.009	3.44
483.359	3.45
483.709	3.45
484.06	3.45
484.41	3.45
484.761	3.46
485.111	3.47
485.461	3.47
485.811	3.47
486.162	3.47
486.512	3.47
486.862	3.48
487.212	3.47
487.562	3.46
487.912	3.46
488.262	3.46
488.612	3.46
488.961	3.46
489.311	3.46
489.661	3.45
490.011	3.45
490.36	3.45
490.71	3.44
491.06	3.44
491.409	3.44
491.759	3.44
492.108	3.44
492.458	3.44
492.807	3.44
493.157	3.45
493.506	3.47
493.855	3.46
494.204	3.47
494.554	3.49
494.903	3.5
495.252	3.52
495.601	3.53
495.95	3.52
496.299	3.54
496.648	3.54
496.997	3.55
497.346	3.56
497.695	3.57
498.043	3.6
498.392	3.61
498.741	3.63
499.09	3.66
499.438	3.65
499.787	3.65
500.135	3.67
500.484	3.68
500.832	3.68
501.181	3.71
501.529	3.76
501.878	3.76
502.226	3.8
502.574	3.83
502.923	3.85
503.271	3.91
503.619	3.94
503.967	3.97
504.315	4.03
504.663	4.07
505.011	4.09
505.359	4.1
505.707	4.14
506.055	4.19
506.403	4.23
506.751	4.3
507.098	4.36
507.446	4.42
507.794	4.48
508.141	4.54
508.489	4.59
508.837	4.61
509.184	4.68
509.531	4.72
509.879	4.76
510.226	4.81
510.574	4.87
510.921	4.89
511.268	4.96
511.616	5.01
511.963	5.07
512.31	5.14
512.657	5.23
513.004	5.27
513.351	5.32
513.698	5.37
514.045	5.43
514.392	5.5
514.739	5.56
515.086	5.65
515.432	5.74
515.779	5.83
516.126	5.92
516.473	5.98
516.819	6.05
517.166	6.13
517.512	6.2
517.859	6.27
518.205	6.35
518.552	6.43
518.898	6.48
519.245	6.55
519.591	6.62
519.937	6.68
520.283	6.78
520.629	6.89
520.976	6.97
521.322	7.08
521.668	7.18
522.014	7.29
522.36	7.36
522.706	7.46
523.052	7.58
523.398	7.68
523.743	7.78
524.089	7.92
524.435	8.04
524.781	8.14
525.126	8.24
525.472	8.32
525.817	8.4
526.163	8.48
526.509	8.54
526.854	8.61
527.199	8.69
527.545	8.75
527.89	8.81
528.235	8.89
528.581	8.95
528.926	9.01
529.271	9.09
529.616	9.16
529.961	9.23
530.306	9.28
530.651	9.35
530.996	9.44
531.341	9.52
531.686	9.61
532.031	9.7
532.376	9.79
532.721	9.9
533.065	10
533.41	10.09
533.755	10.2
534.099	10.33
534.444	10.43
534.788	10.53
535.133	10.63
535.477	10.73
535.822	10.85
536.166	10.97
536.51	11.08
536.855	11.22
537.199	11.35
537.543	11.51
537.887	11.68
538.231	11.86
538.576	11.98
538.92	12.1
539.264	12.28
539.608	12.43
539.951	12.56
540.295	12.68
540.639	12.85
540.983	12.98
541.327	13.1
541.671	13.23
542.014	13.37
542.358	13.51
542.701	13.65
543.045	13.77
543.389	13.91
543.732	14.02
544.075	14.16
544.419	14.31
544.762	14.45
545.105	14.6
545.449	14.73
545.792	14.91
546.135	15.11
546.478	15.27
546.821	15.45
547.165	15.66
547.508	15.88
547.851	16.05
548.194	16.23
548.536	16.43
548.879	16.65
549.222	16.85
549.565	17.06
549.908	17.27
550.25	17.52
550.593	17.74
550.936	18.01
551.278	18.24
551.621	18.5
551.963	18.76
552.306	19.02
552.648	19.25
552.991	19.51
553.333	19.75
553.675	19.97
554.017	20.17
554.36	20.39
554.702	20.62
555.044	20.88
555.386	21.16
555.728	21.36
556.07	21.59
556.412	21.87
556.754	22.09
557.096	22.39
557.438	22.64
557.78	22.9
558.121	23.16
558.463	23.47
558.805	23.75
559.147	24.01
559.488	24.33
559.83	24.59
560.171	24.84
560.513	25.09
560.854	25.38
561.196	25.69
561.537	26.03
561.878	26.26
562.22	26.54
562.561	26.86
562.902	27.16
563.243	27.4
563.584	27.67
563.925	27.95
564.266	28.17
564.607	28.5
564.948	28.79
565.289	29.11
565.63	29.35
565.971	29.61
566.312	29.84
566.653	30.06
566.993	30.34
567.334	30.62
567.675	30.87
568.015	31.03
568.356	31.36
568.696	31.6
569.037	31.92
569.377	32.18
569.718	32.43
570.058	32.73
570.398	32.98
570.739	33.21
571.079	33.44
571.419	33.69
571.759	33.9
572.099	34.09
572.439	34.28
572.779	34.48
573.119	34.7
573.459	34.94
573.799	35.15
574.139	35.38
574.479	35.58
574.819	35.83
575.158	36.16
575.498	36.3
575.838	36.49
576.177	36.61
576.517	36.8
576.856	36.98
577.196	37.19
577.535	37.41
577.875	37.6
578.214	37.82
578.553	38.07
578.893	38.28
579.232	38.55
579.571	38.77
579.91	39.06
580.25	39.25
580.589	39.49
580.928	39.74
581.267	39.91
581.606	40.19
581.945	40.33
582.283	40.53
582.622	40.7
582.961	40.95
583.3	41.18
583.639	41.32
583.977	41.52
584.316	41.7
584.654	42.01
584.993	42.24
585.332	42.49
585.67	42.65
586.008	42.83
586.347	42.99
586.685	43.11
587.024	43.23
587.362	43.37
587.7	43.49
588.038	43.55
588.376	43.75
588.715	43.82
589.053	44
589.391	44.13
589.729	44.3
590.067	44.39
590.404	44.6
590.742	44.76
591.08	44.9
591.418	45.05
591.756	45.11
592.093	45.22
592.431	45.38
592.769	45.52
593.106	45.67
593.444	45.74
593.781	45.95
594.119	46.09
594.456	46.28
594.793	46.42
595.131	46.57
595.468	46.65
595.805	46.77
596.143	46.81
596.48	46.94
596.817	47.1
597.154	47.27
597.491	47.32
597.828	47.51
598.165	47.63
598.502	47.72
598.839	47.82
599.176	47.91
599.512	48.09
599.849	48.2
600.186	48.28
600.523	48.47
600.859	48.52
601.196	48.64
601.532	48.71
601.869	48.79
602.205	48.92
602.542	48.99
602.878	49.09
603.215	49.22
603.551	49.31
603.887	49.39
604.223	49.41
604.56	49.51
604.896	49.54
605.232	49.57
605.568	49.76
605.904	49.78
606.24	49.83
606.576	49.78
606.912	49.85
607.248	49.85
607.583	49.89
607.919	50.02
608.255	50.05
608.591	50.09
608.926	50.14
609.262	50.12
609.597	50.26
609.933	50.31
610.268	50.4
610.604	50.4
610.939	50.41
611.275	50.51
611.61	50.52
611.945	50.57
612.281	50.7
612.616	50.63
612.951	50.76
613.286	50.82
613.621	50.82
613.956	50.88
614.291	51
614.626	51.11
614.961	51.15
615.296	51.2
615.631	51.35
615.966	51.4
616.3	51.57
616.635	51.51
616.97	51.58
617.304	51.58
617.639	51.72
617.973	51.73
618.308	51.74
618.642	51.82
618.977	51.81
619.311	51.75
619.646	51.71
619.98	51.75
620.314	51.87
620.648	51.98
620.983	52.01
621.317	52.15
621.651	52.23
621.985	52.29
622.319	52.31
622.653	52.26
622.987	52.24
623.321	52.27
623.655	52.45
623.988	52.51
624.322	52.6
624.656	52.63
624.99	52.71
625.323	52.73
625.657	52.71
625.99	52.84
626.324	53
626.657	53.07
626.991	53.17
627.324	53.18
627.658	53.29
627.991	53.32
628.324	53.26
628.657	53.23
628.991	53.27
629.324	53.35
629.657	53.39
629.99	53.56
630.323	53.53
630.656	53.47
630.989	53.53
631.322	53.57
631.655	53.49
631.987	53.62
632.32	53.72
632.653	53.8
632.986	53.81
633.318	53.82
633.651	53.86
633.984	53.91
634.316	54
634.649	54.06
634.981	54.06
635.313	54.14
635.646	54.08
635.978	54.08
636.31	54.1
636.643	54.08
636.975	54.02
637.307	54.05
637.639	53.96
637.971	53.88
638.303	53.83
638.635	53.9
638.967	53.83
639.299	53.76
639.631	53.84
639.963	53.84
640.295	53.79
640.626	53.8
640.958	53.81
641.29	53.75
641.621	53.58
641.953	53.59
642.285	53.54
642.616	53.69
642.948	53.71
643.279	53.68
643.61	53.82
643.942	53.93
644.273	53.93
644.604	54.1
644.936	54.19
645.267	54.29
645.598	54.31
645.929	54.17
646.26	54.26
646.591	54.34
646.922	54.41
647.253	54.53
647.584	54.45
647.915	54.47
648.245	54.54
648.576	54.66
648.907	54.9
649.238	54.9
649.568	54.88
649.899	54.84
650.229	54.9
650.56	54.91
650.89	54.85
651.221	54.98
651.551	55.05
651.882	55.16
652.212	55.21
652.542	55.35
652.872	55.56
653.203	55.64
653.533	55.51
653.863	55.42
654.193	55.39
654.523	55.59
654.853	55.55
655.183	55.55
655.513	55.65
655.843	55.56
656.172	55.71
656.502	55.78
656.832	55.83
657.162	55.86
657.491	55.93
657.821	56.03
658.15	55.96
658.48	56.03
658.809	55.97
659.139	55.96
659.468	55.9
659.798	55.98
660.127	55.94
660.456	55.96
660.785	56.03
661.115	55.96
661.444	55.97
661.773	55.89
662.102	55.9
662.431	55.9
662.76	55.88
663.089	55.88
663.418	55.8
663.747	55.78
664.076	55.62
664.404	55.72
664.733	55.69
665.062	55.71
665.39	55.56
665.719	55.44
666.048	55.38
666.376	55.46
666.705	55.36
667.033	55.37
667.362	55.5
667.69	55.39
668.018	55.57
668.347	55.63
668.675	55.77
669.003	55.83
669.331	55.78
669.659	55.84
669.987	55.76
670.315	55.85
670.643	55.96
670.971	56.08
671.299	56.02
671.627	56.03
671.955	56.08
672.283	56.12
672.61	56.21
672.938	56.24
673.266	56.21
673.593	56.28
673.921	56.32
674.249	56.12
674.576	56.42
674.904	56.29
675.231	56.26
675.558	56.3
675.886	56.34
676.213	56.33
676.54	56.34
676.867	56.52
677.195	56.59
677.522	56.64
677.849	56.62
678.176	56.59
678.503	56.69
678.83	56.88
679.157	56.98
679.484	56.96
679.81	56.91
680.137	56.9
680.464	56.86
680.791	56.82
681.117	56.95
681.444	56.84
681.771	56.89
682.097	56.84
682.424	56.89
682.75	56.79
683.077	56.9
683.403	56.91
683.729	56.79
684.056	56.73
684.382	56.68
684.708	56.65
685.034	56.61
685.36	56.63
685.686	56.59
686.012	56.54
686.339	56.72
686.664	56.67
686.99	56.6
687.316	56.58
687.642	56.6
687.968	56.64
688.294	56.75
688.619	56.79
688.945	56.85
689.271	56.89
689.596	56.9
689.922	56.8
690.247	56.79
690.573	56.74
690.898	56.53
691.224	56.58
691.549	56.64
691.874	56.75
692.2	56.62
692.525	56.54
692.85	56.57
693.175	56.64
693.5	56.93
693.825	57.27
694.15	57.19
694.475	57.24
694.8	57.33
695.125	57.28
695.45	57.28
695.775	57.24
696.099	57.3
696.424	57.37
696.749	57.44
697.073	57.55
697.398	57.59
697.723	57.68
698.047	57.67
698.372	57.64
698.696	57.75
699.02	57.84
699.345	57.91
699.669	57.93
699.993	57.88
700.318	57.7
700.642	57.51
700.966	57.69
701.29	57.62
701.614	57.36
701.938	57.34
702.262	57.38
702.586	57.4
702.91	57.2
703.234	57.21
703.557	57.33
703.881	57.16
704.205	57.32
704.529	57.29
704.852	57.33
705.176	57.56
705.499	57.33
705.823	57.17
706.146	57.16
706.47	56.97
706.793	56.95
707.117	57.18
707.44	56.95
707.763	56.95
708.086	56.87
708.409	56.86
708.733	56.95
709.056	56.81
709.379	56.96
709.702	56.93
710.025	56.88
710.348	56.78
710.671	56.67
710.993	56.62
711.316	56.88
711.639	56.9
711.962	57.09
712.284	57.21
712.607	57.3
712.93	57.05
713.252	57.11
713.575	57.16
713.897	57.05
714.22	57.4
714.542	57.27
714.864	57.31
715.187	57.37
715.509	57.37
715.831	57.29
716.153	57.35
716.475	57.44
716.798	57.43
717.12	57.39
717.442	57.53
717.764	57.58
718.085	57.46
718.407	57.54
718.729	57.24
719.051	57
719.373	57.12
719.695	57.29
720.016	57.33
720.338	57.38
720.659	57.31
720.981	57.16
721.302	57.2
721.624	57.46
721.945	57.61
722.267	57.73
722.588	57.67
722.909	57.53
723.231	57.73
723.552	57.77
723.873	57.52
724.194	57.58
724.515	57.76
724.836	57.67
725.157	57.59
725.478	57.42
725.799	57.52
726.12	57.5
726.441	57.32
726.762	57.27
727.083	56.94
727.403	57.02
727.724	56.96
728.045	57.03
728.365	57.05
728.686	56.9
729.006	56.58
729.327	56.71
729.647	56.75
729.967	56.56
730.288	56.57
730.608	57.01
730.928	57.09
731.249	56.71
731.569	56.7
731.889	56.83
732.209	57.06
732.529	57.23
732.849	57.03
733.169	57.26
733.489	57.29
733.809	57.57
734.129	57.48
734.448	57.68
734.768	57.57
735.088	57.42
735.408	57.81
735.727	57.92
736.047	58.03
736.366	57.94
736.686	57.81
737.005	57.8
737.325	57.36
737.644	57.02
737.963	57.12
738.283	57.26
738.602	57.05
738.921	56.92
739.24	56.76
739.56	57.02
739.879	56.73
740.198	56.98
740.517	56.9
740.836	56.95
741.155	56.85
741.473	57.06
741.792	57.33
742.111	57.34
742.43	57.72
742.748	57.52
743.067	57.64
743.386	57.77
743.704	57.81
744.023	58.15
744.341	58.56
744.66	58.44
744.978	58.45
745.297	58.46
745.615	58.58
745.933	58.63
746.252	58.65
746.57	59.15
746.888	59.08
747.206	58.98
747.524	59.25
747.842	59.08
748.16	58.98
748.478	58.85
748.796	58.55
749.114	58.21
749.432	58.47
749.749	58.28
750.067	58.16
750.385	58.44
750.703	58.4
751.02	58.38
751.338	58.49
751.655	58.55
751.973	58.76
752.29	58.77
752.608	58.88
752.925	59.02
753.242	59.2
753.56	59.15
753.877	59.06
754.194	58.95
754.511	58.87
754.828	58.63
755.145	58.45
755.462	58.39
755.779	58.55
756.096	58.55
756.413	58.83
756.73	58.78
757.047	58.51
757.364	58.43
757.68	58.01
757.997	58.34
758.314	58.14
758.63	58
758.947	57.88
759.264	58.01
759.58	57.67
759.896	57.41
760.213	57.21
760.529	57.52
760.846	57.41
761.162	57.59
761.478	57.42
761.794	57.41
762.11	57.31
762.426	57.39
762.743	57.3
763.059	57.26
763.375	57.44
763.69	57.6
764.006	57.77
764.322	58.08
764.638	58.14
764.954	58.35
765.27	58.21
765.585	58.24
765.901	58.01
766.216	58.14
766.532	58.13
766.848	58.39
767.163	58.21
767.478	58.21
767.794	58.12
768.109	58.52
768.424	58.37
768.74	58.47
769.055	58.22
769.37	58.42
769.685	58.35
770	58.59
770.315	58.65
770.63	58.94
770.945	58.84
771.26	58.49
771.575	58.63
771.89	58.6
772.205	58.82
772.52	58.87
772.834	58.72
773.149	58.33
773.464	58.17
773.778	58.2
774.093	58.38
774.407	58.53
774.722	58.17
775.036	57.99
775.351	58.1
775.665	58.48
775.979	58.41
776.293	58.73
776.608	58.32
776.922	58.16
777.236	57.47
777.55	57.44
777.864	57.93
778.178	57.62
778.492	57.64
778.806	57.62
779.12	57.87
779.434	57.92
779.747	58.12
780.061	58
780.375	57.68
780.689	57.47
781.002	57.5
781.316	57.81
781.629	58.62
781.943	58.33
782.256	57.94
782.57	57.86
782.883	57.28
783.196	57.21
783.51	57.05
783.823	57.31
784.136	57.37
784.449	56.86
784.762	57.12
785.075	57.28
785.388	57.63
785.701	57.32
786.014	56.83
786.327	57.52
786.64	57.92
786.953	58.03
787.266	58.36
787.578	57.63
787.891	57.7
788.204	57.89
788.516	57.83
788.829	58.36
789.141	58.57
789.454	59
789.766	60.1
790.079	60.25
790.391	60.08
790.703	60.13
791.016	60.38
791.328	59.89
791.64	60.03
791.952	59.33
792.264	59.48
792.576	59.89
792.888	59.91
793.2	59.59
793.512	59.89
793.824	59.48
794.136	60.41
794.448	60.54
794.76	60.36
795.071	61.2
795.383	59.98
795.695	60.1
796.006	60.01
796.318	59.18
796.629	59.67
796.941	59.89
797.252	59.99
797.564	60.13
797.875	60.58
798.186	60.27
798.497	60.42
798.809	60.48
799.12	60.81
799.431	60.26
799.742	60.12
800.053	59.95
800.364	60.33
800.675	59.92
800.986	59.65
801.297	59.55
801.608	59.51
801.918	60.21
802.229	59.49
802.54	59.29
802.851	58.64
803.161	57.64
803.472	57.2
803.782	57.44
804.093	56.71
804.403	56.71
804.714	57.06
805.024	56.94
805.334	56.85
805.645	56.19
805.955	56.28
806.265	56.75
806.575	56.71
806.885	56.66
807.195	56.84
807.505	56.56
807.815	56.48
808.125	56.42
808.435	56.24
808.745	56.35
809.055	56.87
809.365	57.5
809.674	57.68
809.984	57.65
810.294	57.28
810.603	57.46
810.913	57.21
811.222	57.64
811.532	58.42
811.841	58.34
812.151	58.85
812.46	59.21
812.769	58.5
813.079	58.8
813.388	58.82
813.697	59.22
814.006	59.66
814.315	59.59
814.624	59.6
814.933	59.63
815.242	59.75
815.551	59.74
815.86	60.01
816.169	60.47
816.478	60.4
816.786	59.88
817.095	59.94
817.404	60.31
817.712	60.43
818.021	59.53
818.33	59.32
818.638	59.45
818.947	59.11
819.255	59.85
819.563	60.04
819.872	59.79
820.18	59.77
820.488	59.94
820.796	59.59
821.105	59.44
821.413	59.49
821.721	59.47
822.029	59.09
822.337	58.87
822.645	58.84
822.953	58.68
823.26	58.78
823.568	58.8
823.876	58.69
824.184	58.46
824.491	58.39
824.799	58.49
825.107	58.5
825.414	58.57
825.722	58.55
826.029	58.47
826.337	58.49
826.644	58.52
826.951	58.48
827.259	58.39
827.566	58.42
827.873	58.43
828.18	58.62
828.488	58.82
828.795	59.08
829.102	59
829.409	59.29
829.716	59.48
830.023	59.68
830.329	59.55
830.636	59.17
830.943	59.8
831.25	59.82
831.557	59.26
831.863	59.01
832.17	58.61
832.476	58.54
832.783	58.14
833.089	57.68
833.396	57.7
833.702	58.35
834.009	58.17
834.315	58.41
834.621	58.25
834.928	58.31
835.234	58.41
835.54	58.54
835.846	59.2
836.152	59.17
836.458	58.88
836.764	59.42
837.07	60.01
837.376	59.59
837.682	59.56
837.988	60.41
838.293	60.6
838.599	60.68
838.905	60.53
839.211	61.42
839.516	61.47
839.822	61.44
840.127	60.54
840.433	60.54
840.738	60.74
841.044	60.71
841.349	60.49
841.654	60.26
841.959	59.59
842.265	58.22
842.57	57.51
842.875	57.38
843.18	56.03
843.485	55.94
843.79	55.64
844.095	55.24
844.4	54.36
844.705	54.76
845.01	55.43
845.315	55.92
845.619	55.22
845.924	55.6
846.229	54.09
846.533	56.12
846.838	55.23
847.142	53.52
847.447	53.9
847.751	55.25
848.056	53.79
848.36	54.69
848.664	55.19
848.969	55.59
849.273	57.29
849.577	56.57
849.881	56.59
850.185	56.19
850.489	56.72
850.794	56.24
851.097	54.93
851.401	54.31
851.705	54.92
852.009	54.21
852.313	53.77
852.617	51.83
852.92	51.98
853.224	52.7
853.528	52.23
853.831	49.83
854.135	46.4
854.438	46.32
854.742	46.83
855.045	45.87
855.349	44.6
855.652	44.85
855.955	47.1
856.259	48.16
856.562	48.25
856.865	48.68
857.168	49.85
857.471	50.81
857.774	50.39
858.077	48.23
858.38	46.71
858.683	45.73
858.986	49.85
859.289	49.82
859.592	51.09
859.894	51.52
860.197	52.77
860.5	56.2
860.802	57.48
861.105	58.25
861.407	58.41
861.71	59.57
862.012	58.51
862.315	58.03
862.617	57.75
862.919	56.88
863.222	55.5
863.524	53.87
863.826	52.87
864.128	54.66
864.43	57.15
864.732	61.17
865.034	64.01
865.336	60.33
865.638	60.08
865.94	60.52
866.242	61.46
866.544	60.94
866.846	59.07
867.147	60.45
867.449	58.78
867.751	58.47
868.052	59.65
868.354	59.61
868.655	61.48
868.957	60.6
869.258	61.48
869.56	62.63
869.861	61.23
870.162	61.09
870.463	57.75
870.765	56.21
871.066	55.89
871.367	54.38
871.668	56.38
871.969	54.66
872.27	53.99
872.571	53.32
872.872	52.27
873.173	55.28
873.473	54.27
873.774	55.29
874.075	58.62
874.376	56.74
874.676	55.85
874.977	54.28
875.277	54.27
875.578	53.91
875.878	53.39
876.179	55.21
876.479	56.1
876.78	57.85
877.08	58.06
877.38	56.81
877.68	57.91
877.981	57.84
878.281	59.44
878.581	58.63
