Data from MVZ_BU5182_Reflection_00001.txt Node
Date: Tue Nov 19 12:19:04 EST 2019
User: vgr7
Spectrometer: USB2G7710
Scans to average: 3
Trigger mode: 4
Integration Time (sec): 2.000000E-2
Electric dark correction enabled: true
Boxcar width: 10
XAxis mode: Wavelengths
Number of Pixels in Spectrum: 2048
>>>>>Begin Spectral Data<<<<<
177.721	28.3
178.105	1.13
178.488	-7.65
178.871	-72.62
179.254	-177.78
179.636	-53.76
180.019	-46.13
180.402	-72.73
180.785	94.25
181.168	195.24
181.55	-158.17
181.933	134.59
182.316	-408.55
182.698	-112.91
183.081	-62.97
183.463	-48.8
183.846	-35.44
184.228	-43.66
184.611	-14.91
184.993	3.78
185.376	-14.53
185.758	-13.03
186.14	-15.69
186.522	-3.11
186.904	-8.96
187.287	-26.28
187.669	-10.3
188.051	-5.41
188.433	-1.06
188.815	-7.51
189.197	-3.39
189.579	-1.14
189.961	22.56
190.342	31.34
190.724	39.37
191.106	62.34
191.488	40.77
191.869	25.29
192.251	33.53
192.633	27.57
193.014	21.92
193.396	16.99
193.777	14.59
194.159	12.08
194.54	-2.28
194.922	-8.83
195.303	-3.64
195.684	-14.44
196.065	-8.36
196.447	-4.88
196.828	-11.44
197.209	-8.72
197.59	-15.13
197.971	-24.96
198.352	-18.96
198.733	-18.75
199.114	-26.05
199.495	-14.83
199.876	-28.37
200.257	-28.86
200.638	-32.52
201.018	-35.98
201.399	-27.13
201.78	-40.91
202.16	-49.3
202.541	-51.66
202.922	-47.02
203.302	-55.15
203.683	-39.53
204.063	-29.63
204.444	-39.35
204.824	-28.18
205.204	-26.03
205.585	-19.56
205.965	-11.03
206.345	-24.94
206.725	-12.39
207.106	3.11
207.486	0.73
207.866	17.77
208.246	23.09
208.626	24.71
209.006	17.26
209.386	19.68
209.766	23.42
210.145	23.24
210.525	24.8
210.905	37.95
211.285	42.94
211.664	45.53
212.044	37.09
212.424	42.62
212.803	49.04
213.183	56.57
213.562	56.51
213.942	48.95
214.321	70.25
214.701	76.26
215.08	67.07
215.459	76.34
215.838	60.6
216.218	47.46
216.597	42.3
216.976	41.03
217.355	34.09
217.734	33.03
218.113	29.85
218.492	29.25
218.871	22.43
219.25	18.6
219.629	15.58
220.008	13.74
220.387	16.91
220.766	16.45
221.144	14.64
221.523	16.73
221.902	19.03
222.28	14.99
222.659	12.42
223.037	10.54
223.416	8.92
223.794	11.35
224.173	9.71
224.551	5.59
224.929	2.3
225.308	1.28
225.686	0.03
226.064	-0.64
226.442	2.05
226.821	0.7
227.199	3.21
227.577	2.24
227.955	4.07
228.333	2.55
228.711	1.83
229.089	0.02
229.467	-3.22
229.845	-7.26
230.222	-10.14
230.6	-11.92
230.978	-10.64
231.356	-9.38
231.733	-8.55
232.111	-9.14
232.488	-7.41
232.866	-3.32
233.243	-1.36
233.621	-1.29
233.998	-1.77
234.376	-4.4
234.753	-5.6
235.13	-5.36
235.508	-4.02
235.885	-6.01
236.262	-6.49
236.639	-6.35
237.016	-5.21
237.393	-3.84
237.77	-2.56
238.147	-2.13
238.524	-0.52
238.901	0.2
239.278	0.2
239.655	0.34
240.032	0.63
240.409	0.02
240.785	-1.01
241.162	-0.97
241.539	-0.61
241.915	-0.32
242.292	0.13
242.668	0.23
243.045	0.88
243.421	1.02
243.798	1.6
244.174	1.77
244.551	1.68
244.927	1.57
245.303	1.51
245.679	1.76
246.056	2.04
246.432	1.87
246.808	1.76
247.184	1.9
247.56	1.43
247.936	1.75
248.312	1.64
248.688	1.91
249.064	1.86
249.44	1.87
249.815	1.77
250.191	1.61
250.567	1.75
250.943	1.41
251.318	1.12
251.694	1.03
252.069	0.89
252.445	0.82
252.82	1.15
253.196	1.15
253.571	1.08
253.947	0.82
254.322	0.93
254.697	0.77
255.073	0.39
255.448	1.13
255.823	1.03
256.198	1.17
256.573	1.36
256.948	1.45
257.323	1.51
257.698	1.77
258.073	1.74
258.448	1.73
258.823	1.72
259.198	1.93
259.573	1.72
259.948	1.88
260.322	1.98
260.697	1.89
261.072	2
261.446	2.08
261.821	2.03
262.195	1.83
262.57	2.04
262.944	2.41
263.319	2.33
263.693	2.27
264.067	2.43
264.442	2.24
264.816	2.23
265.19	2.24
265.564	2.32
265.938	2.37
266.313	2.21
266.687	2.2
267.061	2.21
267.435	2.4
267.809	2.03
268.183	1.94
268.556	1.96
268.93	1.9
269.304	1.77
269.678	1.91
270.051	1.94
270.425	1.83
270.799	1.45
271.172	1.31
271.546	1.33
271.919	1.29
272.293	1.55
272.666	1.57
273.04	1.51
273.413	1.28
273.787	1.32
274.16	1.28
274.533	1.32
274.906	1.35
275.279	1.27
275.653	1.34
276.026	1.29
276.399	1.33
276.772	1.28
277.145	1.1
277.518	0.92
277.891	0.99
278.263	1.16
278.636	1.28
279.009	1.46
279.382	1.49
279.755	1.51
280.127	1.21
280.5	1.29
280.872	1.31
281.245	1.36
281.617	1.25
281.99	1.39
282.362	1.36
282.735	1.23
283.107	1.16
283.479	1.34
283.852	1.48
284.224	1.32
284.596	1.27
284.968	1.36
285.34	1.43
285.713	1.55
286.085	1.49
286.457	1.52
286.829	1.51
287.201	1.46
287.572	1.36
287.944	1.56
288.316	1.52
288.688	1.51
289.06	1.7
289.431	2.04
289.803	2.06
290.175	2.06
290.546	2.07
290.918	2.22
291.289	2.18
291.661	2.16
292.032	2.26
292.403	2.3
292.775	2.43
293.146	2.46
293.517	2.39
293.889	2.29
294.26	2.32
294.631	2.23
295.002	2.35
295.373	2.43
295.744	2.36
296.115	2.28
296.486	2.3
296.857	2.23
297.228	2.07
297.599	2.08
297.97	2.12
298.34	2.18
298.711	2.11
299.082	2.15
299.452	2.17
299.823	2.16
300.194	2.25
300.564	2.14
300.935	2.29
301.305	2.29
301.676	2.21
302.046	2.14
302.416	2.06
302.787	2.03
303.157	1.99
303.527	1.99
303.897	1.82
304.267	1.88
304.637	1.71
305.008	1.64
305.378	1.66
305.748	1.64
306.117	1.68
306.487	1.8
306.857	1.77
307.227	1.68
307.597	1.56
307.967	1.49
308.336	1.36
308.706	1.27
309.076	1.29
309.445	1.4
309.815	1.41
310.184	1.46
310.554	1.3
310.923	1.24
311.293	1.23
311.662	1.5
312.031	1.38
312.401	1.5
312.77	1.51
313.139	1.47
313.508	1.38
313.877	1.26
314.246	1.18
314.616	1.18
314.985	1.12
315.353	1.18
315.722	1.38
316.091	1.5
316.46	1.57
316.829	1.64
317.198	1.71
317.567	1.8
317.935	1.83
318.304	2.07
318.672	2.21
319.041	2.23
319.41	2.18
319.778	2.19
320.147	2.11
320.515	2.22
320.883	2.08
321.252	2.19
321.62	2.21
321.988	2.16
322.357	2.08
322.725	2.16
323.093	2.16
323.461	1.91
323.829	1.98
324.197	1.74
324.565	1.66
324.933	1.64
325.301	1.53
325.669	1.53
326.037	1.56
326.405	1.47
326.772	1.41
327.14	1.39
327.508	1.39
327.875	1.32
328.243	1.38
328.61	1.56
328.978	1.55
329.346	1.57
329.713	1.69
330.08	1.77
330.448	1.71
330.815	1.67
331.182	1.68
331.55	1.75
331.917	1.84
332.284	1.88
332.651	1.83
333.018	1.7
333.385	1.83
333.752	1.7
334.119	1.8
334.486	1.9
334.853	1.94
335.22	1.97
335.587	2.03
335.954	1.9
336.32	1.85
336.687	1.86
337.054	1.89
337.42	1.78
337.787	1.66
338.153	1.71
338.52	1.91
338.886	1.88
339.253	1.84
339.619	1.83
339.986	1.74
340.352	1.86
340.718	1.94
341.084	1.82
341.451	1.92
341.817	1.79
342.183	1.69
342.549	1.71
342.915	1.72
343.281	1.81
343.647	1.8
344.013	1.74
344.379	1.71
344.745	1.71
345.11	1.72
345.476	1.81
345.842	1.73
346.208	1.62
346.573	1.68
346.939	1.61
347.304	1.66
347.67	1.67
348.035	1.58
348.401	1.59
348.766	1.49
349.132	1.41
349.497	1.45
349.862	1.51
350.228	1.51
350.593	1.48
350.958	1.3
351.323	1.26
351.688	1.33
352.053	1.32
352.418	1.37
352.783	1.33
353.148	1.35
353.513	1.44
353.878	1.42
354.243	1.33
354.608	1.42
354.972	1.34
355.337	1.36
355.702	1.31
356.066	1.36
356.431	1.47
356.795	1.46
357.16	1.4
357.524	1.39
357.889	1.3
358.253	1.3
358.618	1.38
358.982	1.41
359.346	1.45
359.71	1.42
360.075	1.46
360.439	1.57
360.803	1.57
361.167	1.59
361.531	1.58
361.895	1.66
362.259	1.66
362.623	1.7
362.987	1.67
363.351	1.71
363.714	1.69
364.078	1.67
364.442	1.77
364.806	1.88
365.169	1.92
365.533	1.93
365.896	1.99
366.26	1.98
366.623	1.97
366.987	1.95
367.35	2.03
367.714	1.93
368.077	1.9
368.44	1.98
368.803	1.96
369.167	1.99
369.53	2.02
369.893	2.01
370.256	1.99
370.619	2.01
370.982	1.92
371.345	1.97
371.708	1.98
372.071	1.91
372.434	1.89
372.797	1.92
373.159	1.94
373.522	1.91
373.885	1.91
374.247	1.95
374.61	1.92
374.973	1.86
375.335	1.92
375.698	1.9
376.06	1.84
376.423	1.85
376.785	1.81
377.147	1.74
377.51	1.74
377.872	1.77
378.234	1.79
378.596	1.89
378.958	1.89
379.321	1.81
379.683	1.86
380.045	1.83
380.407	1.8
380.769	1.81
381.13	1.79
381.492	1.8
381.854	1.82
382.216	1.92
382.578	1.94
382.939	1.93
383.301	1.92
383.663	1.94
384.024	1.97
384.386	2.01
384.747	2.05
385.109	2.03
385.47	2.09
385.832	2.08
386.193	2.08
386.554	2.04
386.916	2.12
387.277	2.08
387.638	2.15
387.999	2.2
388.36	2.17
388.721	2.2
389.082	2.24
389.443	2.24
389.804	2.19
390.165	2.22
390.526	2.21
390.887	2.2
391.248	2.16
391.609	2.17
391.969	2.19
392.33	2.18
392.691	2.19
393.051	2.19
393.412	2.21
393.772	2.22
394.133	2.21
394.493	2.18
394.854	2.19
395.214	2.15
395.574	2.12
395.935	2.14
396.295	2.15
396.655	2.13
397.015	2.13
397.376	2.11
397.736	2.08
398.096	2.1
398.456	2.1
398.816	2.13
399.176	2.06
399.535	2.05
399.895	2.02
400.255	2.02
400.615	1.99
400.975	1.99
401.334	1.97
401.694	1.98
402.054	2.02
402.413	1.99
402.773	1.97
403.132	1.95
403.492	1.96
403.851	1.95
404.211	1.96
404.57	1.98
404.929	1.99
405.288	2.03
405.648	2.06
406.007	2.09
406.366	2.09
406.725	2.1
407.084	2.06
407.443	2.07
407.802	2.08
408.161	2.06
408.52	2.04
408.879	2.09
409.238	2.14
409.596	2.12
409.955	2.18
410.314	2.2
410.673	2.21
411.031	2.19
411.39	2.22
411.748	2.23
412.107	2.21
412.465	2.21
412.824	2.18
413.182	2.12
413.54	2.15
413.899	2.14
414.257	2.18
414.615	2.21
414.974	2.22
415.332	2.21
415.69	2.2
416.048	2.2
416.406	2.15
416.764	2.14
417.122	2.14
417.48	2.13
417.838	2.14
418.195	2.15
418.553	2.16
418.911	2.15
419.269	2.15
419.626	2.15
419.984	2.17
420.342	2.16
420.699	2.18
421.057	2.16
421.414	2.17
421.772	2.17
422.129	2.16
422.486	2.16
422.844	2.17
423.201	2.18
423.558	2.2
423.915	2.2
424.273	2.19
424.63	2.19
424.987	2.19
425.344	2.17
425.701	2.17
426.058	2.18
426.415	2.17
426.772	2.15
427.128	2.15
427.485	2.14
427.842	2.14
428.199	2.16
428.555	2.15
428.912	2.14
429.269	2.12
429.625	2.15
429.982	2.15
430.338	2.17
430.695	2.15
431.051	2.15
431.407	2.16
431.764	2.18
432.12	2.19
432.476	2.19
432.832	2.21
433.189	2.21
433.545	2.21
433.901	2.23
434.257	2.25
434.613	2.23
434.969	2.23
435.325	2.24
435.681	2.22
436.036	2.22
436.392	2.22
436.748	2.22
437.104	2.22
437.459	2.21
437.815	2.19
438.171	2.21
438.526	2.2
438.882	2.22
439.237	2.21
439.593	2.21
439.948	2.2
440.304	2.2
440.659	2.21
441.014	2.18
441.369	2.19
441.725	2.2
442.08	2.2
442.435	2.2
442.79	2.21
443.145	2.21
443.5	2.2
443.855	2.19
444.21	2.2
444.565	2.19
444.92	2.18
445.275	2.18
445.629	2.2
445.984	2.19
446.339	2.17
446.693	2.17
447.048	2.17
447.403	2.17
447.757	2.15
448.112	2.15
448.466	2.17
448.82	2.18
449.175	2.17
449.529	2.18
449.883	2.16
450.238	2.16
450.592	2.16
450.946	2.18
451.3	2.17
451.654	2.17
452.008	2.2
452.362	2.22
452.716	2.23
453.07	2.21
453.424	2.21
453.778	2.19
454.132	2.19
454.486	2.19
454.839	2.19
455.193	2.21
455.547	2.24
455.9	2.24
456.254	2.24
456.607	2.23
456.961	2.25
457.314	2.26
457.668	2.26
458.021	2.26
458.375	2.29
458.728	2.29
459.081	2.3
459.434	2.29
459.787	2.29
460.141	2.29
460.494	2.3
460.847	2.3
461.2	2.31
461.553	2.31
461.906	2.32
462.259	2.31
462.611	2.32
462.964	2.31
463.317	2.31
463.67	2.32
464.022	2.34
464.375	2.32
464.728	2.3
465.08	2.3
465.433	2.29
465.785	2.29
466.138	2.29
466.49	2.29
466.843	2.29
467.195	2.3
467.547	2.32
467.899	2.31
468.252	2.34
468.604	2.37
468.956	2.38
469.308	2.38
469.66	2.4
470.012	2.39
470.364	2.4
470.716	2.42
471.068	2.42
471.42	2.41
471.772	2.43
472.123	2.44
472.475	2.45
472.827	2.45
473.178	2.45
473.53	2.45
473.882	2.43
474.233	2.45
474.585	2.43
474.936	2.41
475.288	2.41
475.639	2.41
475.99	2.4
476.342	2.4
476.693	2.38
477.044	2.39
477.395	2.4
477.746	2.39
478.097	2.39
478.448	2.38
478.8	2.37
479.15	2.36
479.501	2.36
479.852	2.35
480.203	2.36
480.554	2.34
480.905	2.34
481.255	2.35
481.606	2.36
481.957	2.36
482.307	2.36
482.658	2.37
483.009	2.36
483.359	2.37
483.709	2.38
484.06	2.39
484.41	2.38
484.761	2.39
485.111	2.39
485.461	2.39
485.811	2.39
486.162	2.4
486.512	2.4
486.862	2.41
487.212	2.42
487.562	2.42
487.912	2.43
488.262	2.44
488.612	2.44
488.961	2.43
489.311	2.44
489.661	2.45
490.011	2.44
490.36	2.44
490.71	2.45
491.06	2.44
491.409	2.44
491.759	2.44
492.108	2.44
492.458	2.43
492.807	2.43
493.157	2.43
493.506	2.42
493.855	2.44
494.204	2.42
494.554	2.41
494.903	2.42
495.252	2.41
495.601	2.42
495.95	2.42
496.299	2.43
496.648	2.44
496.997	2.44
497.346	2.46
497.695	2.47
498.043	2.47
498.392	2.47
498.741	2.46
499.09	2.47
499.438	2.48
499.787	2.49
500.135	2.49
500.484	2.51
500.832	2.52
501.181	2.49
501.529	2.52
501.878	2.53
502.226	2.55
502.574	2.55
502.923	2.56
503.271	2.57
503.619	2.56
503.967	2.54
504.315	2.54
504.663	2.53
505.011	2.53
505.359	2.5
505.707	2.5
506.055	2.51
506.403	2.52
506.751	2.51
507.098	2.53
507.446	2.52
507.794	2.5
508.141	2.52
508.489	2.53
508.837	2.51
509.184	2.5
509.531	2.48
509.879	2.49
510.226	2.48
510.574	2.47
510.921	2.49
511.268	2.51
511.616	2.54
511.963	2.53
512.31	2.52
512.657	2.55
513.004	2.53
513.351	2.52
513.698	2.52
514.045	2.51
514.392	2.5
514.739	2.51
515.086	2.53
515.432	2.55
515.779	2.56
516.126	2.59
516.473	2.62
516.819	2.63
517.166	2.61
517.512	2.61
517.859	2.6
518.205	2.59
518.552	2.58
518.898	2.56
519.245	2.56
519.591	2.58
519.937	2.59
520.283	2.62
520.629	2.64
520.976	2.64
521.322	2.65
521.668	2.64
522.014	2.62
522.36	2.61
522.706	2.61
523.052	2.61
523.398	2.59
523.743	2.57
524.089	2.58
524.435	2.59
524.781	2.61
525.126	2.61
525.472	2.63
525.817	2.63
526.163	2.64
526.509	2.66
526.854	2.64
527.199	2.64
527.545	2.65
527.89	2.63
528.235	2.64
528.581	2.65
528.926	2.65
529.271	2.67
529.616	2.67
529.961	2.66
530.306	2.66
530.651	2.67
530.996	2.68
531.341	2.69
531.686	2.69
532.031	2.68
532.376	2.68
532.721	2.68
533.065	2.68
533.41	2.67
533.755	2.67
534.099	2.69
534.444	2.69
534.788	2.69
535.133	2.7
535.477	2.7
535.822	2.7
536.166	2.7
536.51	2.7
536.855	2.7
537.199	2.67
537.543	2.68
537.887	2.69
538.231	2.7
538.576	2.68
538.92	2.7
539.264	2.69
539.608	2.69
539.951	2.68
540.295	2.68
540.639	2.7
540.983	2.7
541.327	2.7
541.671	2.71
542.014	2.71
542.358	2.71
542.701	2.72
543.045	2.72
543.389	2.74
543.732	2.75
544.075	2.76
544.419	2.79
544.762	2.78
545.105	2.78
545.449	2.77
545.792	2.78
546.135	2.77
546.478	2.78
546.821	2.8
547.165	2.81
547.508	2.81
547.851	2.8
548.194	2.78
548.536	2.76
548.879	2.75
549.222	2.74
549.565	2.71
549.908	2.7
550.25	2.66
550.593	2.62
550.936	2.61
551.278	2.6
551.621	2.59
551.963	2.62
552.306	2.65
552.648	2.65
552.991	2.65
553.333	2.66
553.675	2.68
554.017	2.68
554.36	2.68
554.702	2.67
555.044	2.65
555.386	2.66
555.728	2.67
556.07	2.68
556.412	2.72
556.754	2.74
557.096	2.75
557.438	2.78
557.78	2.78
558.121	2.77
558.463	2.79
558.805	2.79
559.147	2.79
559.488	2.77
559.83	2.74
560.171	2.72
560.513	2.7
560.854	2.71
561.196	2.72
561.537	2.74
561.878	2.73
562.22	2.73
562.561	2.75
562.902	2.77
563.243	2.77
563.584	2.77
563.925	2.77
564.266	2.76
564.607	2.79
564.948	2.8
565.289	2.8
565.63	2.79
565.971	2.78
566.312	2.76
566.653	2.75
566.993	2.74
567.334	2.76
567.675	2.8
568.015	2.78
568.356	2.77
568.696	2.77
569.037	2.77
569.377	2.77
569.718	2.78
570.058	2.76
570.398	2.76
570.739	2.73
571.079	2.72
571.419	2.73
571.759	2.71
572.099	2.7
572.439	2.71
572.779	2.73
573.119	2.73
573.459	2.71
573.799	2.74
574.139	2.77
574.479	2.76
574.819	2.76
575.158	2.77
575.498	2.77
575.838	2.76
576.177	2.74
576.517	2.78
576.856	2.78
577.196	2.79
577.535	2.77
577.875	2.78
578.214	2.81
578.553	2.78
578.893	2.8
579.232	2.81
579.571	2.84
579.91	2.79
580.25	2.79
580.589	2.8
580.928	2.78
581.267	2.76
581.606	2.76
581.945	2.75
582.283	2.81
582.622	2.79
582.961	2.79
583.3	2.77
583.639	2.73
583.977	2.72
584.316	2.68
584.654	2.68
584.993	2.68
585.332	2.7
585.67	2.72
586.008	2.71
586.347	2.74
586.685	2.74
587.024	2.77
587.362	2.78
587.7	2.79
588.038	2.79
588.376	2.82
588.715	2.84
589.053	2.8
589.391	2.74
589.729	2.79
590.067	2.84
590.404	2.95
590.742	2.99
591.08	2.99
591.418	3.02
591.756	3.04
592.093	3.02
592.431	3.03
592.769	3
593.106	3.03
593.444	3.01
593.781	2.98
594.119	2.98
594.456	2.97
594.793	2.96
595.131	2.95
595.468	2.94
595.805	2.95
596.143	2.98
596.48	3.02
596.817	3.01
597.154	3
597.491	2.92
597.828	2.88
598.165	2.88
598.502	2.87
598.839	2.87
599.176	2.92
599.512	2.9
599.849	2.95
600.186	2.91
600.523	2.88
600.859	2.89
601.196	2.87
601.532	2.86
601.869	2.86
602.205	2.86
602.542	2.82
602.878	2.84
603.215	2.87
603.551	2.83
603.887	2.82
604.223	2.8
604.56	2.83
604.896	2.92
605.232	2.91
605.568	2.94
605.904	2.93
606.24	2.9
606.576	2.93
606.912	2.9
607.248	2.93
607.583	2.99
607.919	2.97
608.255	2.99
608.591	3.04
608.926	3.04
609.262	3.05
609.597	3.09
609.933	3.11
610.268	3.08
610.604	3.08
610.939	3.13
611.275	3.15
611.61	3.12
611.945	3.06
612.281	3.04
612.616	3.06
612.951	3.08
613.286	3.07
613.621	3.05
613.956	3.07
614.291	3.03
614.626	3.02
614.961	3.07
615.296	3.1
615.631	3.08
615.966	3.08
616.3	3.12
616.635	3.09
616.97	2.98
617.304	2.93
617.639	2.89
617.973	2.82
618.308	2.8
618.642	2.85
618.977	2.84
619.311	2.9
619.646	2.85
619.98	2.85
620.314	2.86
620.648	2.84
620.983	2.79
621.317	2.81
621.651	2.82
621.985	2.82
622.319	2.79
622.653	2.81
622.987	2.85
623.321	2.84
623.655	2.88
623.988	2.97
624.322	3.05
624.656	3.09
624.99	3.09
625.323	3.12
625.657	3.16
625.99	3.15
626.324	3.09
626.657	3.1
626.991	3.15
627.324	3.1
627.658	3.13
627.991	3.2
628.324	3.21
628.657	3.18
628.991	3.22
629.324	3.23
629.657	3.19
629.99	3.19
630.323	3.2
630.656	3.19
630.989	3.2
631.322	3.09
631.655	3.08
631.987	3.09
632.32	3.06
632.653	2.94
632.986	2.95
633.318	3.01
633.651	3.05
633.984	3.02
634.316	3.07
634.649	3.05
634.981	3.01
635.313	3.01
635.646	3.06
635.978	2.99
636.31	2.98
636.643	2.96
636.975	2.97
637.307	2.99
637.639	2.96
637.971	2.92
638.303	3.03
638.635	3.08
638.967	3.07
639.299	3.06
639.631	3.17
639.963	3.14
640.295	3.16
640.626	3.15
640.958	3.08
641.29	3.05
641.621	3.01
641.953	2.98
642.285	2.98
642.616	2.92
642.948	2.94
643.279	2.93
643.61	2.98
643.942	3.01
644.273	2.94
644.604	2.98
644.936	3
645.267	2.99
645.598	2.95
645.929	2.93
646.26	2.95
646.591	2.92
646.922	3.02
647.253	2.94
647.584	2.89
647.915	2.96
648.245	3.04
648.576	3.02
648.907	3.14
649.238	3.03
649.568	3.05
649.899	3.05
650.229	3.04
650.56	3.02
650.89	3.03
651.221	3.05
651.551	3.08
651.882	3.12
652.212	3.14
652.542	3.22
652.872	3.26
653.203	3.24
653.533	3.23
653.863	3.16
654.193	3.11
654.523	3.07
654.853	3.08
655.183	3.05
655.513	3.12
655.843	3.07
656.172	3.18
656.502	3.07
656.832	3.09
657.162	3.07
657.491	3.12
657.821	3.05
658.15	3.12
658.48	3.09
658.809	3.05
659.139	3.02
659.468	3.02
659.798	3.06
660.127	3.07
660.456	3.06
660.785	3.09
661.115	3.2
661.444	3.28
661.773	3.33
662.102	3.32
662.431	3.32
662.76	3.29
663.089	3.31
663.418	3.44
663.747	3.46
664.076	3.5
664.404	3.42
664.733	3.44
665.062	3.32
665.39	3.33
665.719	3.37
666.048	3.31
666.376	3.21
666.705	3.21
667.033	3.24
667.362	3.21
667.69	3.31
668.018	3.35
668.347	3.35
668.675	3.28
669.003	3.31
669.331	3.3
669.659	3.32
669.987	3.31
670.315	3.27
670.643	3.26
670.971	3.32
671.299	3.33
671.627	3.38
671.955	3.4
672.283	3.38
672.61	3.39
672.938	3.53
673.266	3.57
673.593	3.5
673.921	3.48
674.249	3.5
674.576	3.45
674.904	3.34
675.231	3.28
675.558	3.25
675.886	3.22
676.213	3.19
676.54	3.28
676.867	3.22
677.195	3.27
677.522	3.24
677.849	3.28
678.176	3.39
678.503	3.35
678.83	3.36
679.157	3.36
679.484	3.33
679.81	3.31
680.137	3.41
680.464	3.49
680.791	3.49
681.117	3.55
681.444	3.45
681.771	3.51
682.097	3.58
682.424	3.61
682.75	3.65
683.077	3.68
683.403	3.65
683.729	3.72
684.056	3.65
684.382	3.69
684.708	3.61
685.034	3.51
685.36	3.5
685.686	3.62
686.012	3.67
686.339	3.66
686.664	3.6
686.99	3.41
687.316	3.36
687.642	3.42
687.968	3.48
688.294	3.66
688.619	3.71
688.945	3.72
689.271	3.73
689.596	3.7
689.922	3.73
690.247	3.67
690.573	3.64
690.898	3.74
691.224	3.77
691.549	3.85
691.874	3.96
692.2	3.91
692.525	3.83
692.85	3.74
693.175	3.8
693.5	3.78
693.825	3.9
694.15	3.88
694.475	3.88
694.8	3.74
695.125	3.57
695.45	3.52
695.775	3.43
696.099	3.47
696.424	3.45
696.749	3.48
697.073	3.53
697.398	3.54
697.723	3.5
698.047	3.6
698.372	3.59
698.696	3.55
699.02	3.66
699.345	3.64
699.669	3.71
699.993	3.69
700.318	3.74
700.642	3.71
700.966	3.69
701.29	3.63
701.614	3.82
701.938	3.86
702.262	3.85
702.586	3.92
702.91	3.95
703.234	4.02
703.557	4.05
703.881	4.14
704.205	4.22
704.529	4.2
704.852	3.99
705.176	3.97
705.499	3.99
705.823	3.92
706.146	3.91
706.47	3.83
706.793	3.85
707.117	3.81
707.44	3.83
707.763	3.98
708.086	4.04
708.409	4.01
708.733	3.93
709.056	4.04
709.379	4.11
709.702	4.05
710.025	4.09
710.348	3.93
710.671	3.82
710.993	3.7
711.316	3.73
711.639	3.82
711.962	3.8
712.284	3.8
712.607	3.76
712.93	3.87
713.252	3.89
713.575	3.94
713.897	3.86
714.22	3.83
714.542	3.79
714.864	3.85
715.187	3.66
715.509	3.71
715.831	3.55
716.153	3.36
716.475	3.32
716.798	3.24
717.12	3.25
717.442	3.2
717.764	3.18
718.085	3.29
718.407	3.3
718.729	3.34
719.051	3.26
719.373	3.39
719.695	3.3
720.016	3.39
720.338	3.49
720.659	3.75
720.981	3.71
721.302	3.57
721.624	3.51
721.945	3.63
722.267	3.61
722.588	3.66
722.909	3.87
723.231	3.81
723.552	3.77
723.873	3.9
724.194	3.79
724.515	3.74
724.836	3.71
725.157	3.74
725.478	3.58
725.799	3.59
726.12	3.67
726.441	3.7
726.762	3.81
727.083	3.65
727.403	3.51
727.724	3.49
728.045	3.79
728.365	3.79
728.686	3.62
729.006	3.58
729.327	3.55
729.647	3.49
729.967	3.48
730.288	3.7
730.608	3.66
730.928	3.77
731.249	3.93
731.569	3.76
731.889	3.67
732.209	3.78
732.529	3.78
732.849	3.66
733.169	3.55
733.489	3.42
733.809	3.33
734.129	3.36
734.448	3.44
734.768	3.28
735.088	3.09
735.408	3.29
735.727	3.67
736.047	3.64
736.366	3.54
736.686	3.75
737.005	3.59
737.325	3.55
737.644	3.61
737.963	3.64
738.283	3.64
738.602	3.78
738.921	3.96
739.24	4.24
739.56	4.25
739.879	4.26
740.198	4.41
740.517	4.52
740.836	4.52
741.155	4.68
741.473	4.66
741.792	4.76
742.111	4.81
742.43	4.56
742.748	4.74
743.067	4.93
743.386	4.76
743.704	4.68
744.023	4.78
744.341	4.77
744.66	4.64
744.978	4.9
745.297	4.81
745.615	4.71
745.933	4.4
746.252	4.61
746.57	4.9
746.888	4.74
747.206	4.89
747.524	4.76
747.842	4.37
748.16	4.47
748.478	4.68
748.796	4.61
749.114	4.37
749.432	4.26
749.749	4.11
750.067	4.18
750.385	4.33
750.703	4.45
751.02	4.56
751.338	4.53
751.655	4.25
751.973	4.17
752.29	4.02
752.608	4.08
752.925	3.83
753.242	3.53
753.56	3.35
753.877	3.17
754.194	3.34
754.511	3.78
754.828	3.61
755.145	3.46
755.462	3.38
755.779	3.69
756.096	3.86
756.413	3.66
756.73	3.87
757.047	3.84
757.364	3.68
757.68	3.72
757.997	3.95
758.314	4.11
758.63	4.38
758.947	4.49
759.264	4.82
759.58	4.87
759.896	5.05
760.213	5.47
760.529	5.59
760.846	5.75
761.162	5.56
761.478	5.54
761.794	5.55
762.11	5.35
762.426	5.17
762.743	5.12
763.059	5.31
763.375	5.23
763.69	5.29
764.006	5.47
764.322	5.45
764.638	5.53
764.954	5.54
765.27	5.56
765.585	5.67
765.901	5.51
766.216	5.54
766.532	5.52
766.848	5.33
767.163	5.14
767.478	5.01
767.794	5.1
768.109	5.37
768.424	5.35
768.74	5.48
769.055	6.08
769.37	6.04
769.685	6
770	6.02
770.315	6.06
770.63	5.88
770.945	5.82
771.26	5.2
771.575	4.88
771.89	4.98
772.205	4.72
772.52	4.34
772.834	4.33
773.149	3.9
773.464	3.54
773.778	3.74
774.093	3.48
774.407	3.71
774.722	3.39
775.036	3.6
775.351	3.84
775.665	3.56
775.979	3.65
776.293	4.05
776.608	4.11
776.922	4.14
777.236	4.49
777.55	4.38
777.864	4.64
778.178	5.05
778.492	4.72
778.806	5
779.12	5.23
779.434	5.28
779.747	5.8
780.061	6.18
780.375	6.38
780.689	6.75
781.002	6.34
781.316	6.57
781.629	6.33
781.943	5.94
782.256	5.2
782.57	5.15
782.883	5.07
783.196	4.89
783.51	4.85
783.823	4.66
784.136	4.74
784.449	4.7
784.762	5.03
785.075	4.87
785.388	4.88
785.701	5.25
786.014	5.35
786.327	4.97
786.64	5.12
786.953	4.9
787.266	4.81
787.578	5
787.891	4.81
788.204	4.99
788.516	5.21
788.829	5.32
789.141	5.77
789.454	5.27
789.766	5.65
790.079	5.35
790.391	4.69
790.703	4.79
791.016	5.18
791.328	4.79
791.64	4.95
791.952	5.15
792.264	4.83
792.576	5.04
792.888	4.96
793.2	4.59
793.512	4.37
793.824	4.39
794.136	4.25
794.448	4.38
794.76	4.76
795.071	4.31
795.383	4.73
795.695	4.24
796.006	4.43
796.318	4.43
796.629	4.88
796.941	5.24
797.252	5.47
797.564	5.36
797.875	5.23
798.186	5.47
798.497	4.87
798.809	4.98
799.12	4.42
799.431	5.22
799.742	5.65
800.053	5.59
800.364	5.7
800.675	6.22
800.986	6.2
801.297	5.67
801.608	5.69
801.918	5.88
802.229	5.9
802.54	6.09
802.851	5.73
803.161	5.61
803.472	6.15
803.782	6.15
804.093	5.96
804.403	6.28
804.714	6.51
805.024	6.65
805.334	6.38
805.645	6.6
805.955	6.58
806.265	6.21
806.575	6.77
806.885	6.94
807.195	6.36
807.505	6.43
807.815	6.8
808.125	7.65
808.435	7.29
808.745	7.63
809.055	7.86
809.365	8.64
809.674	8.26
809.984	8.11
810.294	7.74
810.603	8.05
810.913	7.68
811.222	7.11
811.532	6.84
811.841	7.87
812.151	7.91
812.46	7.6
812.769	7.49
813.079	7.52
813.388	6.59
813.697	6.31
814.006	5.98
814.315	6.18
814.624	6.1
814.933	6.82
815.242	6.56
815.551	6.15
815.86	5.61
816.169	6.02
816.478	6.05
816.786	6.5
817.095	5.87
817.404	6.25
817.712	6.79
818.021	7.65
818.33	7.08
818.638	7.53
818.947	7.16
819.255	7.53
819.563	7.2
819.872	7.51
820.18	7.48
820.488	7.44
820.796	7.39
821.105	7.29
821.413	6.99
821.721	6.92
822.029	7.04
822.337	6.92
822.645	7.09
822.953	7.2
823.26	7.1
823.568	7.19
823.876	7.16
824.184	6.93
824.491	6.79
824.799	6.67
825.107	6.63
825.414	6.58
825.722	6.48
826.029	6.54
826.337	6.45
826.644	6.62
826.951	6.72
827.259	6.66
827.566	6.67
827.873	6.71
828.18	6.75
828.488	6.57
828.795	6.84
829.102	6.68
829.409	6.38
829.716	6.66
830.023	6.63
830.329	6.62
830.636	6.85
830.943	6.53
831.25	6.45
831.557	6.18
831.863	6.44
832.17	6.32
832.476	6.36
832.783	6.54
833.089	6.07
833.396	5.66
833.702	5.3
834.009	5.34
834.315	5.26
834.621	5.45
834.928	5.2
835.234	4.76
835.54	4.4
835.846	4.55
836.152	3.96
836.458	3.77
836.764	3.55
837.07	3.54
837.376	4.02
837.682	4.22
837.988	3.97
838.293	3.57
838.599	3.89
838.905	3.86
839.211	3.5
839.516	3.79
839.822	4.49
840.127	4.36
840.433	3.95
840.738	3.76
841.044	2.93
841.349	3.88
841.654	2.84
841.959	3.16
842.265	3.03
842.57	3.4
842.875	3.05
843.18	3.53
843.485	3.56
843.79	2.68
844.095	3.79
844.4	2.99
844.705	3.68
845.01	3.99
845.315	3.33
845.619	4.97
845.924	5.36
846.229	4.6
846.533	5.09
846.838	5.24
847.142	4.72
847.447	5.43
847.751	5.66
848.056	7.84
848.36	7.04
848.664	6.48
848.969	6.23
849.273	5.29
849.577	5.29
849.881	5.84
850.185	8.36
850.489	7.21
850.794	9.88
851.097	10.61
851.401	8.17
851.705	8.02
852.009	5.31
852.313	3.77
852.617	2.16
852.92	3.31
853.224	4.4
853.528	4.34
853.831	3.94
854.135	4.3
854.438	3.63
854.742	6.66
855.045	7.64
855.349	7.65
855.652	10.98
855.955	10.78
856.259	11.53
856.562	9.63
856.865	7.8
857.168	7.58
857.471	6.13
857.774	7.85
858.077	5.2
858.38	6.71
858.683	9.3
858.986	10.16
859.289	10.06
859.592	11.81
859.894	12.38
860.197	10.97
860.5	10.78
860.802	9.24
861.105	7.27
861.407	6.55
861.71	5.44
862.012	5.47
862.315	5.49
862.617	2.75
862.919	4.71
863.222	6.74
863.524	4.62
863.826	3.1
864.128	5.66
864.43	8.79
864.732	9.61
865.034	9.47
865.336	10.1
865.638	7.76
865.94	6.46
866.242	7.51
866.544	9.3
866.846	9.17
867.147	11.78
867.449	14.48
867.751	15.3
868.052	16.42
868.354	17.13
868.655	16.91
868.957	18.4
869.258	15.31
869.56	14.23
869.861	15.89
870.162	18.1
870.463	15.76
870.765	17.31
871.066	15.35
871.367	13.11
871.668	11.73
871.969	13.54
872.27	11.71
872.571	11.13
872.872	9.53
873.173	7.75
873.473	5.42
873.774	2.34
874.075	3.62
874.376	1.53
874.676	-0.03
874.977	1.98
875.277	0.64
875.578	2.19
875.878	2.96
876.179	2.69
876.479	2.4
876.78	2.19
877.08	-0.29
877.38	-0.49
877.68	0.2
877.981	1.74
878.281	0.92
878.581	1.57
