Data from MVZ_BU5182_Reflection_00004.txt Node
Date: Tue Nov 19 12:19:10 EST 2019
User: vgr7
Spectrometer: USB2G7710
Scans to average: 3
Trigger mode: 4
Integration Time (sec): 2.000000E-2
Electric dark correction enabled: true
Boxcar width: 10
XAxis mode: Wavelengths
Number of Pixels in Spectrum: 2048
>>>>>Begin Spectral Data<<<<<
177.721	18.66
178.105	80.23
178.488	29.34
178.871	-2.38
179.254	-15.56
179.636	-3.29
180.019	44.71
180.402	181.82
180.785	-145.98
181.168	-3066.67
181.55	348.37
181.933	527.67
182.316	-865.81
182.698	-175.53
183.081	-79.13
183.463	-95.03
183.846	-90.57
184.228	-82.77
184.611	-51.36
184.993	-55.56
185.376	-72.49
185.758	-85
186.14	-64.15
186.522	-68.36
186.904	-84.31
187.287	-89.27
187.669	-78.32
188.051	-57.22
188.433	-96.16
188.815	-95.84
189.197	-67.65
189.579	-52.37
189.961	-38.23
190.342	-35.78
190.724	-50.03
191.106	-71.51
191.488	-47.17
191.869	-43.34
192.251	-52.59
192.633	-51.32
193.014	-37.74
193.396	-35.3
193.777	-30.4
194.159	-47.69
194.54	-49.36
194.922	-42.63
195.303	-40.62
195.684	-40.55
196.065	-50.33
196.447	-32.98
196.828	-32.43
197.209	-34.91
197.59	-28.7
197.971	-21.89
198.352	-14.95
198.733	-14.17
199.114	-13.72
199.495	-14.67
199.876	-14.52
200.257	-14.12
200.638	-17.19
201.018	-21.9
201.399	-13.19
201.78	0.94
202.16	3.08
202.541	4.94
202.922	-11.72
203.302	-8.23
203.683	-21.53
204.063	-13.96
204.444	-27.87
204.824	-14.91
205.204	-22.88
205.585	-36.83
205.965	-47.39
206.345	-59.48
206.725	-55.59
207.106	-63.51
207.486	-59.2
207.866	-49.2
208.246	-48.68
208.626	-48.35
209.006	-53.19
209.386	-57.14
209.766	-61.8
210.145	-51.52
210.525	-49.44
210.905	-38.23
211.285	-41.29
211.664	-32.36
212.044	-39.26
212.424	-32.24
212.803	-40.01
213.183	-40.2
213.562	-30.68
213.942	-36.67
214.321	-35.66
214.701	-36.34
215.08	-26.19
215.459	-7.92
215.838	-19.92
216.218	-33.62
216.597	-26.12
216.976	-21.35
217.355	-18.82
217.734	-12.58
218.113	-8.24
218.492	-6.05
218.871	4.58
219.25	7.63
219.629	3.66
220.008	8.2
220.387	6.54
220.766	2.79
221.144	9.75
221.523	1.13
221.902	7.68
222.28	11.65
222.659	11.88
223.037	11.92
223.416	15.7
223.794	18.74
224.173	20.17
224.551	24
224.929	17.09
225.308	14.89
225.686	14.56
226.064	9.08
226.442	6.96
226.821	-0.07
227.199	-3.26
227.577	-4.71
227.955	-2.85
228.333	-4.23
228.711	-2.8
229.089	-5.17
229.467	-3.17
229.845	-4.15
230.222	-4.19
230.6	-6.71
230.978	-5.92
231.356	-8.26
231.733	-6.93
232.111	-5.48
232.488	-6.63
232.866	-3.75
233.243	-4.53
233.621	-3.2
233.998	-1.95
234.376	-0.12
234.753	0.39
235.13	1.39
235.508	0.61
235.885	-0.7
236.262	0.42
236.639	0.53
237.016	3.03
237.393	3.52
237.77	4.85
238.147	4.64
238.524	5.51
238.901	4.67
239.278	3.59
239.655	2.99
240.032	2.37
240.409	2.43
240.785	2.84
241.162	3.17
241.539	3.26
241.915	3.67
242.292	3.49
242.668	3.66
243.045	4.1
243.421	4.77
243.798	4.62
244.174	4.91
244.551	5.07
244.927	4.8
245.303	4.44
245.679	4.29
246.056	4.69
246.432	4.71
246.808	4.55
247.184	4.87
247.56	5.09
247.936	5.21
248.312	5.49
248.688	5.41
249.064	5.3
249.44	5.17
249.815	5.11
250.191	5.11
250.567	5.01
250.943	4.8
251.318	4.88
251.694	4.93
252.069	4.72
252.445	4.94
252.82	5.25
253.196	5.41
253.571	5.46
253.947	5.2
254.322	5.21
254.697	5.44
255.073	5.29
255.448	4.75
255.823	4.81
256.198	4.66
256.573	4.59
256.948	4.63
257.323	4.8
257.698	4.78
258.073	4.65
258.448	4.58
258.823	4.5
259.198	4.49
259.573	4.49
259.948	4.42
260.322	4.06
260.697	3.83
261.072	3.99
261.446	3.88
261.821	3.86
262.195	3.77
262.57	3.78
262.944	3.72
263.319	3.99
263.693	3.95
264.067	3.86
264.442	3.81
264.816	3.81
265.19	3.63
265.564	3.41
265.938	3.45
266.313	3.46
266.687	3.59
267.061	3.42
267.435	3.66
267.809	3.65
268.183	3.68
268.556	3.61
268.93	3.68
269.304	4.02
269.678	3.88
270.051	3.99
270.425	4.15
270.799	4.04
271.172	3.8
271.546	4.01
271.919	4.07
272.293	4.12
272.666	4.19
273.04	4.16
273.413	4.14
273.787	4.07
274.16	4.02
274.533	3.85
274.906	3.98
275.279	3.7
275.653	3.81
276.026	3.88
276.399	3.89
276.772	3.74
277.145	3.54
277.518	3.37
277.891	3.24
278.263	3.25
278.636	3.37
279.009	3.48
279.382	3.2
279.755	3.19
280.127	3.14
280.5	3.06
280.872	3.06
281.245	3.25
281.617	3.2
281.99	3.17
282.362	3.29
282.735	3.15
283.107	3.46
283.479	3.32
283.852	3.29
284.224	3.46
284.596	3.4
284.968	3.38
285.34	3.47
285.713	3.62
286.085	3.35
286.457	3.29
286.829	3.37
287.201	3.42
287.572	3.32
287.944	3.47
288.316	3.5
288.688	3.56
289.06	3.44
289.431	3.54
289.803	3.58
290.175	3.51
290.546	3.54
290.918	3.32
291.289	3.42
291.661	3.53
292.032	3.48
292.403	3.58
292.775	3.69
293.146	3.87
293.517	3.74
293.889	3.9
294.26	3.96
294.631	3.96
295.002	4.03
295.373	4.12
295.744	4.06
296.115	4.11
296.486	4.18
296.857	4.31
297.228	4.22
297.599	4.3
297.97	4.44
298.34	4.43
298.711	4.44
299.082	4.49
299.452	4.46
299.823	4.46
300.194	4.51
300.564	4.44
300.935	4.38
301.305	4.42
301.676	4.55
302.046	4.62
302.416	4.55
302.787	4.44
303.157	4.45
303.527	4.49
303.897	4.33
304.267	4.21
304.637	4.11
305.008	4.32
305.378	4.33
305.748	4.26
306.117	4.4
306.487	4.52
306.857	4.56
307.227	4.65
307.597	4.6
307.967	4.61
308.336	4.59
308.706	4.64
309.076	4.74
309.445	4.62
309.815	4.59
310.184	4.82
310.554	5.01
310.923	5.02
311.293	5.01
311.662	5.03
312.031	5.05
312.401	5.1
312.77	5.07
313.139	5.13
313.508	5.12
313.877	5.05
314.246	4.93
314.616	4.91
314.985	4.82
315.353	4.78
315.722	4.9
316.091	4.96
316.46	4.97
316.829	4.87
317.198	5.04
317.567	5.11
317.935	4.96
318.304	4.85
318.672	4.86
319.041	4.83
319.41	4.98
319.778	4.97
320.147	5.03
320.515	4.92
320.883	4.69
321.252	4.69
321.62	4.72
321.988	4.97
322.357	4.86
322.725	4.84
323.093	4.91
323.461	4.76
323.829	4.57
324.197	4.6
324.565	4.65
324.933	4.38
325.301	4.19
325.669	4.13
326.037	4.12
326.405	4.09
326.772	4.09
327.14	3.88
327.508	3.97
327.875	3.85
328.243	3.82
328.61	3.97
328.978	4.01
329.346	3.9
329.713	3.69
330.08	3.79
330.448	3.82
330.815	3.96
331.182	3.91
331.55	4.03
331.917	4.05
332.284	4.08
332.651	4.19
333.018	4.37
333.385	4.47
333.752	4.47
334.119	4.6
334.486	4.64
334.853	4.78
335.22	4.68
335.587	4.7
335.954	4.68
336.32	4.66
336.687	4.64
337.054	4.74
337.42	4.8
337.787	4.88
338.153	5.04
338.52	5.06
338.886	5.16
339.253	5.1
339.619	5.02
339.986	5.12
340.352	5.14
340.718	5.17
341.084	5.03
341.451	5.14
341.817	5.12
342.183	4.95
342.549	5.06
342.915	5.17
343.281	5.26
343.647	5.27
344.013	5.28
344.379	5.17
344.745	5.12
345.11	5.07
345.476	5.06
345.842	4.87
346.208	4.81
346.573	4.75
346.939	4.74
347.304	4.83
347.67	4.63
348.035	4.69
348.401	4.71
348.766	4.66
349.132	4.56
349.497	4.51
349.862	4.65
350.228	4.61
350.593	4.53
350.958	4.53
351.323	4.59
351.688	4.71
352.053	4.74
352.418	4.73
352.783	4.86
353.148	4.73
353.513	4.71
353.878	4.65
354.243	4.61
354.608	4.75
354.972	4.75
355.337	4.9
355.702	4.91
356.066	4.92
356.431	5.05
356.795	5.12
357.16	5.16
357.524	5.15
357.889	5.08
358.253	5.05
358.618	5.08
358.982	5.09
359.346	4.96
359.71	4.99
360.075	5.04
360.439	5.01
360.803	5.12
361.167	5.19
361.531	5.18
361.895	5.25
362.259	5.22
362.623	5.19
362.987	5.18
363.351	5.1
363.714	5.07
364.078	5.05
364.442	5.01
364.806	5
365.169	4.98
365.533	5
365.896	5.1
366.26	4.98
366.623	4.96
366.987	5.03
367.35	5
367.714	5.03
368.077	5.02
368.44	5
368.803	5.01
369.167	5.03
369.53	4.97
369.893	4.89
370.256	4.87
370.619	4.78
370.982	4.82
371.345	4.84
371.708	4.82
372.071	4.8
372.434	4.75
372.797	4.8
373.159	4.87
373.522	4.75
373.885	4.79
374.247	4.79
374.61	4.78
374.973	4.89
375.335	4.85
375.698	4.8
376.06	4.69
376.423	4.67
376.785	4.64
377.147	4.66
377.51	4.77
377.872	4.75
378.234	4.85
378.596	4.87
378.958	4.9
379.321	4.93
379.683	4.95
380.045	4.92
380.407	4.85
380.769	4.83
381.13	4.84
381.492	4.86
381.854	4.89
382.216	4.96
382.578	4.92
382.939	4.91
383.301	4.94
383.663	5.03
384.024	5.06
384.386	5.11
384.747	5.09
385.109	5.08
385.47	5.09
385.832	4.99
386.193	5
386.554	4.88
386.916	4.91
387.277	4.9
387.638	4.97
387.999	5.02
388.36	4.99
388.721	4.98
389.082	5
389.443	5.04
389.804	5.02
390.165	5.01
390.526	5.03
390.887	5
391.248	4.98
391.609	4.96
391.969	4.92
392.33	4.97
392.691	4.98
393.051	5.03
393.412	5.08
393.772	5.11
394.133	5.15
394.493	5.09
394.854	5.09
395.214	5.09
395.574	5.06
395.935	5.09
396.295	5.11
396.655	5.09
397.015	5.04
397.376	5
397.736	5.04
398.096	5.03
398.456	5.05
398.816	5.06
399.176	5.01
399.535	5.03
399.895	5
400.255	4.92
400.615	4.89
400.975	4.85
401.334	4.87
401.694	4.91
402.054	4.95
402.413	4.94
402.773	4.9
403.132	4.93
403.492	4.89
403.851	4.84
404.211	4.85
404.57	4.88
404.929	4.89
405.288	4.89
405.648	4.89
406.007	4.91
406.366	4.87
406.725	4.9
407.084	4.91
407.443	4.94
407.802	4.99
408.161	5
408.52	5.04
408.879	5.03
409.238	5.02
409.596	5
409.955	4.99
410.314	4.99
410.673	4.98
411.031	4.99
411.39	5.03
411.748	5.03
412.107	5
412.465	5.01
412.824	5.01
413.182	5.01
413.54	4.98
413.899	5.02
414.257	5.01
414.615	5.01
414.974	5.02
415.332	5.01
415.69	5
416.048	5.01
416.406	4.96
416.764	4.98
417.122	5
417.48	5
417.838	5.04
418.195	5.03
418.553	5.02
418.911	5.03
419.269	5.02
419.626	5.01
419.984	5
420.342	4.99
420.699	4.99
421.057	5
421.414	4.99
421.772	5.01
422.129	5
422.486	4.99
422.844	4.97
423.201	4.98
423.558	4.96
423.915	4.99
424.273	4.97
424.63	4.97
424.987	4.97
425.344	4.96
425.701	4.97
426.058	4.98
426.415	4.97
426.772	4.97
427.128	4.98
427.485	4.97
427.842	4.97
428.199	4.96
428.555	4.95
428.912	4.95
429.269	4.93
429.625	4.95
429.982	4.92
430.338	4.94
430.695	4.92
431.051	4.94
431.407	4.94
431.764	4.93
432.12	4.92
432.476	4.92
432.832	4.92
433.189	4.91
433.545	4.92
433.901	4.91
434.257	4.89
434.613	4.89
434.969	4.91
435.325	4.92
435.681	4.91
436.036	4.92
436.392	4.92
436.748	4.93
437.104	4.92
437.459	4.91
437.815	4.93
438.171	4.93
438.526	4.93
438.882	4.92
439.237	4.93
439.593	4.94
439.948	4.93
440.304	4.94
440.659	4.94
441.014	4.93
441.369	4.96
441.725	4.98
442.08	5
442.435	5.01
442.79	5.01
443.145	5.03
443.5	5.04
443.855	5.04
444.21	5.05
444.565	5.06
444.92	5.08
445.275	5.06
445.629	5.07
445.984	5.05
446.339	5.05
446.693	5.06
447.048	5.04
447.403	5.04
447.757	5.01
448.112	5.03
448.466	5.02
448.82	5.02
449.175	5.03
449.529	5.02
449.883	4.98
450.238	4.98
450.592	5
450.946	5
451.3	5.01
451.654	4.99
452.008	4.98
452.362	4.99
452.716	5
453.07	4.99
453.424	5
453.778	5
454.132	4.99
454.486	5.02
454.839	5.03
455.193	5.04
455.547	5.04
455.9	5.05
456.254	5.03
456.607	5.01
456.961	5.04
457.314	5.05
457.668	5.04
458.021	5.01
458.375	5.01
458.728	5
459.081	5.03
459.434	5.03
459.787	5.02
460.141	5.01
460.494	5
460.847	5.01
461.2	5.02
461.553	5.02
461.906	5.02
462.259	5.01
462.611	5.03
462.964	5.04
463.317	5.03
463.67	5.05
464.022	5.06
464.375	5.04
464.728	5.04
465.08	5.05
465.433	5.07
465.785	5.05
466.138	5.08
466.49	5.05
466.843	5.06
467.195	5.06
467.547	5.09
467.899	5.1
468.252	5.1
468.604	5.11
468.956	5.11
469.308	5.12
469.66	5.13
470.012	5.13
470.364	5.11
470.716	5.13
471.068	5.15
471.42	5.16
471.772	5.18
472.123	5.22
472.475	5.23
472.827	5.22
473.178	5.25
473.53	5.23
473.882	5.22
474.233	5.2
474.585	5.22
474.936	5.22
475.288	5.23
475.639	5.23
475.99	5.22
476.342	5.22
476.693	5.23
477.044	5.23
477.395	5.22
477.746	5.21
478.097	5.19
478.448	5.16
478.8	5.17
479.15	5.14
479.501	5.11
479.852	5.1
480.203	5.12
480.554	5.14
480.905	5.17
481.255	5.2
481.606	5.22
481.957	5.22
482.307	5.24
482.658	5.25
483.009	5.26
483.359	5.27
483.709	5.27
484.06	5.28
484.41	5.28
484.761	5.29
485.111	5.31
485.461	5.32
485.811	5.32
486.162	5.33
486.512	5.35
486.862	5.37
487.212	5.38
487.562	5.38
487.912	5.37
488.262	5.36
488.612	5.35
488.961	5.37
489.311	5.36
489.661	5.35
490.011	5.35
490.36	5.35
490.71	5.37
491.06	5.37
491.409	5.35
491.759	5.36
492.108	5.36
492.458	5.35
492.807	5.35
493.157	5.38
493.506	5.38
493.855	5.37
494.204	5.36
494.554	5.35
494.903	5.36
495.252	5.37
495.601	5.38
495.95	5.38
496.299	5.37
496.648	5.39
496.997	5.39
497.346	5.39
497.695	5.36
498.043	5.36
498.392	5.38
498.741	5.42
499.09	5.43
499.438	5.45
499.787	5.45
500.135	5.45
500.484	5.45
500.832	5.45
501.181	5.46
501.529	5.47
501.878	5.5
502.226	5.52
502.574	5.54
502.923	5.54
503.271	5.56
503.619	5.6
503.967	5.6
504.315	5.61
504.663	5.61
505.011	5.63
505.359	5.63
505.707	5.63
506.055	5.61
506.403	5.61
506.751	5.61
507.098	5.65
507.446	5.65
507.794	5.65
508.141	5.65
508.489	5.68
508.837	5.69
509.184	5.72
509.531	5.73
509.879	5.74
510.226	5.76
510.574	5.78
510.921	5.79
511.268	5.8
511.616	5.81
511.963	5.83
512.31	5.86
512.657	5.86
513.004	5.84
513.351	5.89
513.698	5.91
514.045	5.93
514.392	5.92
514.739	5.95
515.086	5.98
515.432	5.98
515.779	5.98
516.126	6
516.473	5.98
516.819	5.98
517.166	6.01
517.512	6.01
517.859	6
518.205	5.98
518.552	5.97
518.898	5.97
519.245	5.99
519.591	5.99
519.937	6.01
520.283	6.04
520.629	6.02
520.976	6
521.322	6.02
521.668	6.02
522.014	6.02
522.36	6.04
522.706	6.06
523.052	6.1
523.398	6.08
523.743	6.08
524.089	6.1
524.435	6.09
524.781	6.13
525.126	6.14
525.472	6.16
525.817	6.17
526.163	6.18
526.509	6.18
526.854	6.2
527.199	6.2
527.545	6.21
527.89	6.21
528.235	6.22
528.581	6.22
528.926	6.23
529.271	6.23
529.616	6.22
529.961	6.21
530.306	6.19
530.651	6.2
530.996	6.22
531.341	6.22
531.686	6.23
532.031	6.23
532.376	6.22
532.721	6.22
533.065	6.23
533.41	6.24
533.755	6.24
534.099	6.24
534.444	6.25
534.788	6.25
535.133	6.26
535.477	6.26
535.822	6.28
536.166	6.25
536.51	6.26
536.855	6.27
537.199	6.29
537.543	6.3
537.887	6.3
538.231	6.29
538.576	6.29
538.92	6.3
539.264	6.31
539.608	6.33
539.951	6.32
540.295	6.32
540.639	6.32
540.983	6.33
541.327	6.36
541.671	6.35
542.014	6.36
542.358	6.37
542.701	6.36
543.045	6.35
543.389	6.37
543.732	6.35
544.075	6.36
544.419	6.38
544.762	6.37
545.105	6.38
545.449	6.4
545.792	6.41
546.135	6.41
546.478	6.39
546.821	6.41
547.165	6.42
547.508	6.44
547.851	6.45
548.194	6.41
548.536	6.37
548.879	6.36
549.222	6.34
549.565	6.31
549.908	6.31
550.25	6.31
550.593	6.31
550.936	6.35
551.278	6.34
551.621	6.34
551.963	6.38
552.306	6.41
552.648	6.4
552.991	6.37
553.333	6.35
553.675	6.33
554.017	6.3
554.36	6.3
554.702	6.27
555.044	6.25
555.386	6.27
555.728	6.29
556.07	6.31
556.412	6.35
556.754	6.37
557.096	6.39
557.438	6.39
557.78	6.4
558.121	6.41
558.463	6.42
558.805	6.41
559.147	6.41
559.488	6.37
559.83	6.37
560.171	6.37
560.513	6.38
560.854	6.4
561.196	6.44
561.537	6.45
561.878	6.44
562.22	6.45
562.561	6.47
562.902	6.45
563.243	6.45
563.584	6.44
563.925	6.49
564.266	6.49
564.607	6.48
564.948	6.46
565.289	6.48
565.63	6.43
565.971	6.43
566.312	6.4
566.653	6.4
566.993	6.4
567.334	6.42
567.675	6.41
568.015	6.41
568.356	6.39
568.696	6.41
569.037	6.41
569.377	6.45
569.718	6.45
570.058	6.47
570.398	6.49
570.739	6.5
571.079	6.49
571.419	6.46
571.759	6.49
572.099	6.48
572.439	6.45
572.779	6.5
573.119	6.52
573.459	6.54
573.799	6.54
574.139	6.51
574.479	6.52
574.819	6.55
575.158	6.55
575.498	6.59
575.838	6.59
576.177	6.58
576.517	6.56
576.856	6.54
577.196	6.51
577.535	6.5
577.875	6.47
578.214	6.46
578.553	6.49
578.893	6.51
579.232	6.55
579.571	6.58
579.91	6.57
580.25	6.53
580.589	6.51
580.928	6.5
581.267	6.54
581.606	6.53
581.945	6.5
582.283	6.49
582.622	6.41
582.961	6.42
583.3	6.48
583.639	6.48
583.977	6.5
584.316	6.53
584.654	6.53
584.993	6.55
585.332	6.58
585.67	6.58
586.008	6.56
586.347	6.58
586.685	6.57
587.024	6.53
587.362	6.56
587.7	6.64
588.038	6.68
588.376	6.69
588.715	6.69
589.053	6.71
589.391	6.75
589.729	6.78
590.067	6.78
590.404	6.75
590.742	6.74
591.08	6.74
591.418	6.77
591.756	6.79
592.093	6.75
592.431	6.74
592.769	6.73
593.106	6.74
593.444	6.77
593.781	6.78
594.119	6.84
594.456	6.83
594.793	6.82
595.131	6.84
595.468	6.86
595.805	6.86
596.143	6.84
596.48	6.84
596.817	6.85
597.154	6.83
597.491	6.82
597.828	6.84
598.165	6.82
598.502	6.81
598.839	6.79
599.176	6.82
599.512	6.76
599.849	6.82
600.186	6.77
600.523	6.7
600.859	6.72
601.196	6.68
601.532	6.69
601.869	6.65
602.205	6.62
602.542	6.62
602.878	6.64
603.215	6.65
603.551	6.66
603.887	6.63
604.223	6.63
604.56	6.64
604.896	6.67
605.232	6.69
605.568	6.7
605.904	6.72
606.24	6.79
606.576	6.86
606.912	6.84
607.248	6.89
607.583	6.92
607.919	6.88
608.255	6.92
608.591	6.89
608.926	6.9
609.262	6.9
609.597	6.85
609.933	6.84
610.268	6.85
610.604	6.83
610.939	6.91
611.275	6.91
611.61	6.91
611.945	6.89
612.281	6.92
612.616	6.92
612.951	6.95
613.286	6.87
613.621	6.82
613.956	6.82
614.291	6.82
614.626	6.8
614.961	6.85
615.296	6.86
615.631	6.93
615.966	6.95
616.3	6.97
616.635	7.04
616.97	7.04
617.304	7.02
617.639	7.09
617.973	7.02
618.308	7.04
618.642	7.1
618.977	7.06
619.311	7.06
619.646	7.08
619.98	7.02
620.314	7.02
620.648	7.03
620.983	7.04
621.317	7.04
621.651	7.08
621.985	7.08
622.319	7.05
622.653	7.01
622.987	7.03
623.321	7.03
623.655	6.97
623.988	7
624.322	7
624.656	6.94
624.99	6.97
625.323	6.95
625.657	6.92
625.99	6.98
626.324	6.99
626.657	6.99
626.991	7.07
627.324	7.06
627.658	7.07
627.991	7.07
628.324	7.06
628.657	6.99
628.991	6.97
629.324	7.01
629.657	7.02
629.99	6.97
630.323	7.01
630.656	7.01
630.989	6.99
631.322	7.05
631.655	7.04
631.987	7.06
632.32	7.1
632.653	7.07
632.986	7.04
633.318	7.04
633.651	7.02
633.984	6.98
634.316	6.98
634.649	6.98
634.981	6.96
635.313	7
635.646	7.04
635.978	7.08
636.31	7.09
636.643	7.12
636.975	7.14
637.307	7.11
637.639	7.12
637.971	7.15
638.303	7.1
638.635	7.16
638.967	7.18
639.299	7.14
639.631	7.21
639.963	7.18
640.295	7.14
640.626	7.14
640.958	7.1
641.29	7.13
641.621	7.18
641.953	7.12
642.285	6.99
642.616	7.01
642.948	7.04
643.279	7.01
643.61	7.01
643.942	7.1
644.273	7.11
644.604	7.14
644.936	7.19
645.267	7.23
645.598	7.2
645.929	7.05
646.26	7.07
646.591	7.05
646.922	7.12
647.253	7.16
647.584	7.17
647.915	7.29
648.245	7.3
648.576	7.26
648.907	7.38
649.238	7.41
649.568	7.39
649.899	7.44
650.229	7.48
650.56	7.48
650.89	7.43
651.221	7.38
651.551	7.36
651.882	7.33
652.212	7.25
652.542	7.23
652.872	7.3
653.203	7.36
653.533	7.43
653.863	7.34
654.193	7.28
654.523	7.22
654.853	7.25
655.183	7.24
655.513	7.25
655.843	7.21
656.172	7.33
656.502	7.32
656.832	7.29
657.162	7.26
657.491	7.33
657.821	7.37
658.15	7.43
658.48	7.49
658.809	7.44
659.139	7.52
659.468	7.47
659.798	7.48
660.127	7.41
660.456	7.39
660.785	7.41
661.115	7.46
661.444	7.57
661.773	7.53
662.102	7.55
662.431	7.6
662.76	7.63
663.089	7.65
663.418	7.69
663.747	7.68
664.076	7.65
664.404	7.57
664.733	7.45
665.062	7.35
665.39	7.34
665.719	7.41
666.048	7.4
666.376	7.46
666.705	7.64
667.033	7.7
667.362	7.71
667.69	7.84
668.018	7.86
668.347	7.79
668.675	7.77
669.003	7.71
669.331	7.69
669.659	7.62
669.987	7.54
670.315	7.52
670.643	7.49
670.971	7.55
671.299	7.5
671.627	7.58
671.955	7.59
672.283	7.52
672.61	7.49
672.938	7.53
673.266	7.56
673.593	7.31
673.921	7.33
674.249	7.24
674.576	7.14
674.904	7.23
675.231	7.31
675.558	7.3
675.886	7.41
676.213	7.39
676.54	7.57
676.867	7.59
677.195	7.66
677.522	7.7
677.849	7.72
678.176	7.83
678.503	7.9
678.83	7.96
679.157	8
679.484	8.04
679.81	8.08
680.137	8.17
680.464	8.23
680.791	8.21
681.117	8.31
681.444	8.36
681.771	8.28
682.097	8.27
682.424	8.31
682.75	8.27
683.077	8.28
683.403	8.16
683.729	8.15
684.056	8.17
684.382	8.16
684.708	8.13
685.034	8.12
685.36	8.01
685.686	7.99
686.012	8.04
686.339	8.06
686.664	7.97
686.99	7.78
687.316	7.85
687.642	7.85
687.968	7.86
688.294	7.88
688.619	7.82
688.945	7.77
689.271	7.78
689.596	7.71
689.922	7.7
690.247	7.74
690.573	7.82
690.898	7.85
691.224	7.85
691.549	7.84
691.874	7.73
692.2	7.83
692.525	7.84
692.85	7.93
693.175	7.87
693.5	7.84
693.825	7.99
694.15	7.92
694.475	7.93
694.8	7.89
695.125	7.84
695.45	7.94
695.775	8
696.099	7.99
696.424	8.16
696.749	8.26
697.073	8.23
697.398	8.27
697.723	8.2
698.047	8.28
698.372	8.31
698.696	8.37
699.02	8.35
699.345	8.37
699.669	8.38
699.993	8.39
700.318	8.31
700.642	8.34
700.966	8.47
701.29	8.54
701.614	8.59
701.938	8.47
702.262	8.43
702.586	8.44
702.91	8.37
703.234	8.16
703.557	8.16
703.881	8.23
704.205	8.2
704.529	8.14
704.852	8.07
705.176	8.13
705.499	8.13
705.823	8.09
706.146	8.23
706.47	8.16
706.793	8.31
707.117	8.57
707.44	8.49
707.763	8.3
708.086	8.23
708.409	8.15
708.733	8.38
709.056	8.45
709.379	8.42
709.702	8.54
710.025	8.72
710.348	8.69
710.671	8.77
710.993	8.72
711.316	9
711.639	8.85
711.962	8.81
712.284	8.91
712.607	8.97
712.93	8.84
713.252	8.78
713.575	8.58
713.897	8.34
714.22	8.33
714.542	8.44
714.864	8.37
715.187	8.23
715.509	8.22
715.831	8.29
716.153	8.34
716.475	8.41
716.798	8.35
717.12	8.37
717.442	8.21
717.764	8.22
718.085	7.97
718.407	8.13
718.729	8.12
719.051	8.01
719.373	7.97
719.695	8.04
720.016	8.02
720.338	8.01
720.659	8.11
720.981	7.98
721.302	8.08
721.624	8.21
721.945	8.34
722.267	8.25
722.588	8.18
722.909	8.12
723.231	7.96
723.552	7.76
723.873	7.66
724.194	7.85
724.515	7.74
724.836	7.69
725.157	7.63
725.478	7.5
725.799	7.59
726.12	7.67
726.441	7.57
726.762	7.7
727.083	7.82
727.403	8.08
727.724	8.42
728.045	8.47
728.365	8.49
728.686	8.5
729.006	8.55
729.327	8.57
729.647	8.53
729.967	8.39
730.288	8.69
730.608	8.8
730.928	8.74
731.249	8.74
731.569	8.96
731.889	9.09
732.209	9.2
732.529	9.04
732.849	9.01
733.169	9.19
733.489	9.13
733.809	9.2
734.129	9.08
734.448	9.1
734.768	9.02
735.088	9.05
735.408	9.17
735.727	9.22
736.047	9.32
736.366	9.37
736.686	9.43
737.005	9.4
737.325	9.21
737.644	9.2
737.963	9.27
738.283	9.26
738.602	9.13
738.921	9.09
739.24	9.26
739.56	9.36
739.879	9.21
740.198	9.38
740.517	9.41
740.836	9.54
741.155	9.18
741.473	9.02
741.792	8.97
742.111	8.93
742.43	8.93
742.748	8.79
743.067	8.83
743.386	8.94
743.704	8.93
744.023	9.38
744.341	9.32
744.66	9.35
744.978	9.2
745.297	9.43
745.615	9.53
745.933	9.53
746.252	9.64
746.57	9.81
746.888	9.82
747.206	9.54
747.524	9.26
747.842	9.38
748.16	9.54
748.478	9.46
748.796	9.64
749.114	9.53
749.432	9.87
749.749	9.62
750.067	9.61
750.385	9.58
750.703	9.31
751.02	9.49
751.338	9.65
751.655	9.5
751.973	9.23
752.29	9.28
752.608	9.48
752.925	9.27
753.242	9.41
753.56	9.07
753.877	9.28
754.194	9.38
754.511	9.38
754.828	9.32
755.145	9.59
755.462	9.78
755.779	10.03
756.096	9.8
756.413	10.17
756.73	10.29
757.047	10.23
757.364	10.1
757.68	10.05
757.997	10.01
758.314	10.33
758.63	10.4
758.947	10.82
759.264	10.7
759.58	10.82
759.896	10.5
760.213	10.89
760.529	10.81
760.846	10.95
761.162	11.11
761.478	11.06
761.794	10.98
762.11	10.78
762.426	10.57
762.743	10.57
763.059	10.63
763.375	10.6
763.69	10.77
764.006	10.96
764.322	11.05
764.638	11.17
764.954	10.96
765.27	11.2
765.585	10.76
765.901	10.71
766.216	10.83
766.532	11.1
766.848	10.95
767.163	11.04
767.478	10.92
767.794	11
768.109	11.45
768.424	11.35
768.74	11.23
769.055	11.62
769.37	11.51
769.685	11.58
770	11.57
770.315	11.54
770.63	11.48
770.945	11.29
771.26	10.98
771.575	11.16
771.89	10.96
772.205	10.77
772.52	10.93
772.834	10.89
773.149	10.47
773.464	10.51
773.778	10.82
774.093	11.01
774.407	10.97
774.722	10.25
775.036	10.37
775.351	10.73
775.665	10.38
775.979	10.31
776.293	10.38
776.608	10.55
776.922	10.73
777.236	10.62
777.55	10.7
777.864	11.05
778.178	11.18
778.492	11.09
778.806	11.71
779.12	11.52
779.434	11.58
779.747	11.92
780.061	11.47
780.375	11.3
780.689	11.24
781.002	11.22
781.316	11.47
781.629	11.94
781.943	11.71
782.256	11.72
782.57	11.9
782.883	11.95
783.196	12.01
783.51	11.66
783.823	11.26
784.136	11.3
784.449	11.29
784.762	11.46
785.075	11.47
785.388	11.64
785.701	11.9
786.014	11.13
786.327	11.05
786.64	11.61
786.953	11.47
787.266	11.46
787.578	11.28
787.891	11.39
788.204	11.18
788.516	10.91
788.829	11.11
789.141	11.29
789.454	11.06
789.766	11.47
790.079	11.34
790.391	11.67
790.703	11.89
791.016	11.95
791.328	11.8
791.64	12.12
791.952	12.09
792.264	11.7
792.576	12.3
792.888	12.34
793.2	12.28
793.512	12.26
793.824	12.27
794.136	12.33
794.448	12.18
794.76	11.86
795.071	12.64
795.383	12.37
795.695	12.3
796.006	12.29
796.318	11.8
796.629	11.83
796.941	11.74
797.252	11.66
797.564	11.22
797.875	10.8
798.186	10.37
798.497	9.47
798.809	9.77
799.12	9.84
799.431	9.9
799.742	10
800.053	10.07
800.364	10.15
800.675	10.69
800.986	11.14
801.297	11.11
801.608	11.04
801.918	11.55
802.229	11.4
802.54	11.08
802.851	11.28
803.161	11.18
803.472	11.94
803.782	12.15
804.093	12.56
804.403	13.27
804.714	13.94
805.024	14.05
805.334	14.08
805.645	14.21
805.955	14.11
806.265	14.17
806.575	14.55
806.885	14.48
807.195	14.11
807.505	14.23
807.815	14.47
808.125	14.51
808.435	13.91
808.745	14.53
809.055	14.79
809.365	15.11
809.674	16.24
809.984	16.03
810.294	15.7
810.603	15.12
810.913	14.5
811.222	13.7
811.532	14.22
811.841	14.95
812.151	14.31
812.46	14.2
812.769	13.75
813.079	13.8
813.388	14.06
813.697	13.69
814.006	13.43
814.315	12.99
814.624	12.24
814.933	12.92
815.242	12.54
815.551	12.76
815.86	12.53
816.169	11.23
816.478	11.32
816.786	10.93
817.095	11.1
817.404	11.26
817.712	11.67
818.021	11.94
818.33	10.98
818.638	11.73
818.947	12
819.255	12.36
819.563	12.33
819.872	12.03
820.18	12.05
820.488	12.16
820.796	12.64
821.105	13
821.413	12.69
821.721	12.8
822.029	12.93
822.337	12.9
822.645	13.16
822.953	13.21
823.26	13.3
823.568	13.25
823.876	13.35
824.184	13.37
824.491	13.38
824.799	13.35
825.107	13.23
825.414	13.37
825.722	13.29
826.029	13.34
826.337	13.37
826.644	13.54
826.951	13.49
827.259	13.38
827.566	13.26
827.873	13.38
828.18	13.22
828.488	13
828.795	12.99
829.102	12.75
829.409	12.55
829.716	12.54
830.023	12.68
830.329	12.79
830.636	12.71
830.943	12.61
831.25	12.89
831.557	12.58
831.863	11.97
832.17	12.09
832.476	12.39
832.783	12.74
833.089	12.69
833.396	13.32
833.702	13.18
834.009	13.07
834.315	13.3
834.621	13.45
834.928	13.51
835.234	13.08
835.54	13.04
835.846	13.17
836.152	13.02
836.458	13.09
836.764	13.18
837.07	13.13
837.376	13.36
837.682	13.02
837.988	13.27
838.293	13.89
838.599	13.91
838.905	13.07
839.211	12.64
839.516	12.4
839.822	11.44
840.127	11.85
840.433	12.18
840.738	11.91
841.044	12.46
841.349	12.22
841.654	11.95
841.959	12.56
842.265	13.14
842.57	12.59
842.875	12.86
843.18	11.37
843.485	12.26
843.79	12.76
844.095	13.5
844.4	13.98
844.705	14.6
845.01	13.91
845.315	14.81
845.619	15.99
845.924	16.17
846.229	17.47
846.533	15.91
846.838	14.94
847.142	14.93
847.447	15.43
847.751	15
848.056	16.09
848.36	17.51
848.664	14.94
848.969	16.74
849.273	16.02
849.577	16.77
849.881	16.33
850.185	12.4
850.489	12.28
850.794	12.53
851.097	11.71
851.401	12
851.705	11.18
852.009	10.79
852.313	9.88
852.617	8.04
852.92	10.64
853.224	10.71
853.528	10.38
853.831	8.92
854.135	10.66
854.438	9.57
854.742	6.9
855.045	7.06
855.349	3.68
855.652	3.93
855.955	3.78
856.259	3.04
856.562	3.68
856.865	4.79
857.168	5.68
857.471	5.75
857.774	6.61
858.077	7.13
858.38	6.31
858.683	7.86
858.986	7.25
859.289	5.39
859.592	5.05
859.894	3.46
860.197	3.09
860.5	4.81
860.802	6.51
861.105	8.78
861.407	10.36
861.71	13.67
862.012	13.17
862.315	13.65
862.617	13.24
862.919	15.4
863.222	14.34
863.524	11.96
863.826	11.06
864.128	11.83
864.43	12.33
864.732	10.76
865.034	10.17
865.336	9.92
865.638	9.82
865.94	10.31
866.242	12.65
866.544	14.09
866.846	12.27
867.147	11.82
867.449	10.25
867.751	10.15
868.052	7.05
868.354	11.15
868.655	11.08
868.957	11.29
869.258	8.64
869.56	10.4
869.861	11.12
870.162	10.81
870.463	12.33
870.765	11.3
871.066	14.47
871.367	12.92
871.668	14.89
871.969	14.3
872.27	14.12
872.571	10.94
872.872	9.34
873.173	9.21
873.473	9.26
873.774	9.59
874.075	10.21
874.376	11.04
874.676	8.35
874.977	9.67
875.277	8.18
875.578	11.14
875.878	8.98
876.179	10.07
876.479	10.31
876.78	7.37
877.08	6.67
877.38	4.84
877.68	7.77
877.981	5.89
878.281	7.24
878.581	7.96
