Data from MVZ_BU34099_Reflection_00002.txt Node
Date: Tue Nov 19 12:15:23 EST 2019
User: vgr7
Spectrometer: USB2G7710
Scans to average: 3
Trigger mode: 4
Integration Time (sec): 2.000000E-2
Electric dark correction enabled: true
Boxcar width: 10
XAxis mode: Wavelengths
Number of Pixels in Spectrum: 2048
>>>>>Begin Spectral Data<<<<<
177.721	183.66
178.105	117.24
178.488	-259.81
178.871	103.77
179.254	-454.55
179.636	327.72
180.019	-102.55
180.402	50
180.785	74.82
181.168	173.3
181.55	-1553.85
181.933	-277.55
182.316	-400
182.698	-184.53
183.081	-86.57
183.463	1215.38
183.846	156.29
184.228	-155.1
184.611	-3169.23
184.993	457.14
185.376	40.27
185.758	21.25
186.14	-105.45
186.522	-45.01
186.904	-19.31
187.287	0.64
187.669	-17.18
188.051	-51.16
188.433	-71.56
188.815	-111.76
189.197	-104.23
189.579	-89.94
189.961	-86.98
190.342	-68.31
190.724	-85.94
191.106	-58.85
191.488	-51.23
191.869	-50.53
192.251	-57.06
192.633	-61.63
193.014	-56.5
193.396	-64.19
193.777	-60.01
194.159	-63.83
194.54	-40.89
194.922	-48
195.303	-45.84
195.684	-42.89
196.065	-42.56
196.447	-34.98
196.828	-33.2
197.209	-33.42
197.59	-29.66
197.971	-23.47
198.352	-13.53
198.733	-11.22
199.114	-10.39
199.495	-18.46
199.876	-19.13
200.257	-27.32
200.638	-25.94
201.018	-35.94
201.399	-29.08
201.78	-17.92
202.16	-8.41
202.541	-26.86
202.922	-18.93
203.302	-27.86
203.683	-39.68
204.063	-36.01
204.444	-39.88
204.824	-38.69
205.204	-19.13
205.585	-14.1
205.965	-26.29
206.345	-18.27
206.725	-17.56
207.106	-17.92
207.486	-12.01
207.866	-17.02
208.246	-19.46
208.626	-18.74
209.006	-17.09
209.386	-14.27
209.766	-17.38
210.145	-22.53
210.525	-30.25
210.905	-34.49
211.285	-27.9
211.664	-18.18
212.044	-14.03
212.424	-6.9
212.803	-7.15
213.183	-18.82
213.562	-9.77
213.942	0.61
214.321	-8.57
214.701	-9.4
215.08	-20.29
215.459	-23.98
215.838	-22.83
216.218	-25.53
216.597	-23.44
216.976	-37.22
217.355	-44
217.734	-45.64
218.113	-33.71
218.492	-17.56
218.871	-3.37
219.25	-22.44
219.629	-40.52
220.008	-39.76
220.387	-47.65
220.766	-32.54
221.144	-29.85
221.523	-61.09
221.902	-64.21
222.28	-38.95
222.659	-22.89
223.037	-19.15
223.416	-11.87
223.794	-5.37
224.173	-6.45
224.551	-2.01
224.929	3.78
225.308	5.05
225.686	12.45
226.064	5.24
226.442	4.61
226.821	-0.27
227.199	0.19
227.577	3.26
227.955	2
228.333	5.32
228.711	3.34
229.089	1.37
229.467	4.92
229.845	4.02
230.222	0.34
230.6	-2.3
230.978	-0.26
231.356	-1.75
231.733	-1.74
232.111	-0.35
232.488	-1.28
232.866	0.73
233.243	-0.24
233.621	-3.19
233.998	-0.85
234.376	-0.01
234.753	1.13
235.13	0.41
235.508	0.26
235.885	0.49
236.262	-0.36
236.639	0.08
237.016	1.12
237.393	1.24
237.77	1.11
238.147	1.42
238.524	2.21
238.901	1.88
239.278	2.35
239.655	2.15
240.032	2.34
240.409	2.49
240.785	1.75
241.162	2.65
241.539	2.72
241.915	1.83
242.292	1.85
242.668	1.67
243.045	2.12
243.421	2.4
243.798	2.32
244.174	2.43
244.551	2.54
244.927	2.55
245.303	2.25
245.679	2.44
246.056	2.63
246.432	2.56
246.808	2.58
247.184	2.5
247.56	2.3
247.936	2.24
248.312	2.26
248.688	2.25
249.064	2.08
249.44	2.03
249.815	2.36
250.191	2.54
250.567	2.66
250.943	2.89
251.318	2.71
251.694	2.61
252.069	2.58
252.445	2.7
252.82	2.72
253.196	2.88
253.571	2.83
253.947	2.56
254.322	2.46
254.697	2.37
255.073	2.42
255.448	2.57
255.823	2.52
256.198	2.52
256.573	2.6
256.948	2.65
257.323	2.73
257.698	2.74
258.073	2.48
258.448	2.56
258.823	2.24
259.198	2.28
259.573	2.35
259.948	2.32
260.322	2.17
260.697	2.37
261.072	2.34
261.446	2.28
261.821	2.2
262.195	2.33
262.57	2.31
262.944	2.25
263.319	2.41
263.693	2.51
264.067	2.47
264.442	2.43
264.816	2.29
265.19	2.3
265.564	2.08
265.938	2.03
266.313	1.94
266.687	1.96
267.061	1.91
267.435	1.97
267.809	1.99
268.183	2.06
268.556	1.77
268.93	1.87
269.304	1.97
269.678	2.17
270.051	2.23
270.425	2.27
270.799	2.13
271.172	2.06
271.546	2.08
271.919	2.07
272.293	2.24
272.666	2.31
273.04	2.32
273.413	2.28
273.787	2.2
274.16	2.16
274.533	2.43
274.906	2.51
275.279	2.46
275.653	2.42
276.026	2.4
276.399	2.46
276.772	2.5
277.145	2.52
277.518	2.46
277.891	2.4
278.263	2.54
278.636	2.77
279.009	2.86
279.382	2.81
279.755	2.75
280.127	2.62
280.5	2.52
280.872	2.62
281.245	2.85
281.617	2.99
281.99	3.1
282.362	3.04
282.735	2.92
283.107	2.86
283.479	2.91
283.852	2.89
284.224	2.92
284.596	2.93
284.968	2.85
285.34	2.73
285.713	2.77
286.085	2.54
286.457	2.4
286.829	2.16
287.201	2.22
287.572	2.35
287.944	2.41
288.316	2.46
288.688	2.37
289.06	2.34
289.431	2.43
289.803	2.39
290.175	2.32
290.546	2.19
290.918	2.17
291.289	2.02
291.661	2.12
292.032	2.03
292.403	2.08
292.775	2.24
293.146	2.32
293.517	2.18
293.889	2.29
294.26	2.4
294.631	2.64
295.002	2.65
295.373	2.63
295.744	2.59
296.115	2.7
296.486	2.79
296.857	2.75
297.228	2.69
297.599	2.71
297.97	2.74
298.34	2.94
298.711	2.9
299.082	3.04
299.452	2.9
299.823	2.95
300.194	2.97
300.564	2.82
300.935	2.91
301.305	3.09
301.676	3.16
302.046	3.07
302.416	3.07
302.787	3.08
303.157	2.97
303.527	2.97
303.897	2.96
304.267	2.77
304.637	2.75
305.008	2.79
305.378	2.65
305.748	2.68
306.117	2.59
306.487	2.77
306.857	2.66
307.227	2.81
307.597	2.88
307.967	2.84
308.336	2.86
308.706	2.8
309.076	2.76
309.445	2.86
309.815	2.91
310.184	2.88
310.554	2.78
310.923	2.88
311.293	2.84
311.662	2.83
312.031	2.91
312.401	2.89
312.77	2.86
313.139	2.91
313.508	2.89
313.877	2.98
314.246	3.01
314.616	3.07
314.985	3.04
315.353	3.09
315.722	3.11
316.091	3.1
316.46	3.02
316.829	3
317.198	3.02
317.567	3.16
317.935	3.07
318.304	3.27
318.672	3.14
319.041	3.16
319.41	3.07
319.778	3.17
320.147	3.32
320.515	3.34
320.883	3.22
321.252	3.23
321.62	3.13
321.988	3.08
322.357	3.07
322.725	3.19
323.093	3.09
323.461	3.08
323.829	3.08
324.197	3.17
324.565	3.18
324.933	3.07
325.301	2.83
325.669	2.87
326.037	2.85
326.405	3.02
326.772	3.05
327.14	3.03
327.508	2.94
327.875	2.93
328.243	2.81
328.61	2.94
328.978	2.97
329.346	3.01
329.713	3.11
330.08	3.24
330.448	3.13
330.815	3.24
331.182	3.27
331.55	3.35
331.917	3.22
332.284	3.14
332.651	3.06
333.018	3.33
333.385	3.22
333.752	3.1
334.119	2.94
334.486	2.97
334.853	3.07
335.22	3.05
335.587	2.98
335.954	2.93
336.32	2.92
336.687	2.9
337.054	2.82
337.42	2.81
337.787	2.66
338.153	2.72
338.52	2.71
338.886	2.73
339.253	2.75
339.619	2.94
339.986	2.98
340.352	3.01
340.718	2.95
341.084	2.96
341.451	3.06
341.817	3.14
342.183	3.11
342.549	3.1
342.915	3.13
343.281	3.06
343.647	3.12
344.013	3.08
344.379	3.21
344.745	3.26
345.11	3.19
345.476	3.22
345.842	3.09
346.208	3.09
346.573	3
346.939	2.95
347.304	2.99
347.67	2.93
348.035	2.9
348.401	2.9
348.766	2.96
349.132	2.9
349.497	2.88
349.862	2.95
350.228	2.91
350.593	2.96
350.958	3.12
351.323	3.12
351.688	3.18
352.053	3
352.418	3.08
352.783	3.1
353.148	3.1
353.513	3.12
353.878	3.09
354.243	3.05
354.608	3.12
354.972	3.01
355.337	3.05
355.702	3.06
356.066	3.07
356.431	3.08
356.795	3.12
357.16	3.13
357.524	3.11
357.889	3.11
358.253	3.04
358.618	2.98
358.982	3.02
359.346	2.98
359.71	3.06
360.075	2.95
360.439	2.96
360.803	3.01
361.167	3.04
361.531	3
361.895	3.07
362.259	3.09
362.623	3.07
362.987	3.14
363.351	3.14
363.714	3.1
364.078	3.19
364.442	3.16
364.806	3.2
365.169	3.12
365.533	3.14
365.896	3.24
366.26	3.26
366.623	3.21
366.987	3.23
367.35	3.3
367.714	3.43
368.077	3.46
368.44	3.47
368.803	3.43
369.167	3.42
369.53	3.45
369.893	3.39
370.256	3.41
370.619	3.39
370.982	3.32
371.345	3.33
371.708	3.25
372.071	3.19
372.434	3.17
372.797	3.29
373.159	3.27
373.522	3.25
373.885	3.25
374.247	3.27
374.61	3.27
374.973	3.21
375.335	3.21
375.698	3.1
376.06	3.04
376.423	3.12
376.785	3.19
377.147	3.12
377.51	3.07
377.872	3.07
378.234	3.1
378.596	3.23
378.958	3.24
379.321	3.22
379.683	3.25
380.045	3.26
380.407	3.21
380.769	3.21
381.13	3.19
381.492	3.18
381.854	3.17
382.216	3.22
382.578	3.22
382.939	3.26
383.301	3.3
383.663	3.34
384.024	3.31
384.386	3.31
384.747	3.28
385.109	3.34
385.47	3.35
385.832	3.29
386.193	3.25
386.554	3.24
386.916	3.27
387.277	3.25
387.638	3.22
387.999	3.23
388.36	3.24
388.721	3.26
389.082	3.27
389.443	3.33
389.804	3.31
390.165	3.34
390.526	3.28
390.887	3.3
391.248	3.31
391.609	3.35
391.969	3.35
392.33	3.38
392.691	3.38
393.051	3.39
393.412	3.41
393.772	3.46
394.133	3.48
394.493	3.47
394.854	3.52
395.214	3.56
395.574	3.58
395.935	3.54
396.295	3.54
396.655	3.54
397.015	3.54
397.376	3.5
397.736	3.51
398.096	3.5
398.456	3.49
398.816	3.53
399.176	3.48
399.535	3.45
399.895	3.41
400.255	3.4
400.615	3.45
400.975	3.44
401.334	3.4
401.694	3.44
402.054	3.45
402.413	3.43
402.773	3.42
403.132	3.42
403.492	3.45
403.851	3.45
404.211	3.46
404.57	3.46
404.929	3.5
405.288	3.48
405.648	3.49
406.007	3.51
406.366	3.5
406.725	3.54
407.084	3.56
407.443	3.61
407.802	3.62
408.161	3.59
408.52	3.58
408.879	3.58
409.238	3.55
409.596	3.56
409.955	3.57
410.314	3.56
410.673	3.55
411.031	3.58
411.39	3.57
411.748	3.56
412.107	3.52
412.465	3.51
412.824	3.5
413.182	3.5
413.54	3.48
413.899	3.46
414.257	3.45
414.615	3.42
414.974	3.43
415.332	3.47
415.69	3.47
416.048	3.5
416.406	3.49
416.764	3.5
417.122	3.52
417.48	3.51
417.838	3.52
418.195	3.52
418.553	3.52
418.911	3.53
419.269	3.54
419.626	3.55
419.984	3.56
420.342	3.57
420.699	3.57
421.057	3.59
421.414	3.59
421.772	3.6
422.129	3.6
422.486	3.61
422.844	3.59
423.201	3.6
423.558	3.6
423.915	3.62
424.273	3.63
424.63	3.62
424.987	3.64
425.344	3.64
425.701	3.66
426.058	3.66
426.415	3.66
426.772	3.65
427.128	3.65
427.485	3.65
427.842	3.64
428.199	3.64
428.555	3.62
428.912	3.61
429.269	3.61
429.625	3.62
429.982	3.62
430.338	3.62
430.695	3.61
431.051	3.6
431.407	3.59
431.764	3.56
432.12	3.57
432.476	3.59
432.832	3.59
433.189	3.57
433.545	3.59
433.901	3.59
434.257	3.6
434.613	3.6
434.969	3.59
435.325	3.61
435.681	3.62
436.036	3.63
436.392	3.65
436.748	3.66
437.104	3.67
437.459	3.66
437.815	3.67
438.171	3.68
438.526	3.69
438.882	3.7
439.237	3.71
439.593	3.7
439.948	3.67
440.304	3.66
440.659	3.66
441.014	3.66
441.369	3.66
441.725	3.67
442.08	3.69
442.435	3.7
442.79	3.67
443.145	3.68
443.5	3.69
443.855	3.68
444.21	3.69
444.565	3.68
444.92	3.7
445.275	3.7
445.629	3.69
445.984	3.69
446.339	3.69
446.693	3.7
447.048	3.69
447.403	3.69
447.757	3.71
448.112	3.7
448.466	3.7
448.82	3.7
449.175	3.69
449.529	3.69
449.883	3.68
450.238	3.7
450.592	3.7
450.946	3.71
451.3	3.71
451.654	3.7
452.008	3.68
452.362	3.64
452.716	3.63
453.07	3.65
453.424	3.65
453.778	3.63
454.132	3.62
454.486	3.64
454.839	3.65
455.193	3.67
455.547	3.68
455.9	3.67
456.254	3.67
456.607	3.67
456.961	3.67
457.314	3.67
457.668	3.65
458.021	3.64
458.375	3.61
458.728	3.61
459.081	3.64
459.434	3.64
459.787	3.68
460.141	3.69
460.494	3.68
460.847	3.69
461.2	3.69
461.553	3.71
461.906	3.7
462.259	3.7
462.611	3.7
462.964	3.7
463.317	3.71
463.67	3.71
464.022	3.7
464.375	3.71
464.728	3.73
465.08	3.75
465.433	3.76
465.785	3.8
466.138	3.79
466.49	3.78
466.843	3.81
467.195	3.82
467.547	3.82
467.899	3.82
468.252	3.82
468.604	3.82
468.956	3.82
469.308	3.84
469.66	3.86
470.012	3.83
470.364	3.84
470.716	3.86
471.068	3.84
471.42	3.84
471.772	3.84
472.123	3.83
472.475	3.83
472.827	3.84
473.178	3.83
473.53	3.86
473.882	3.87
474.233	3.85
474.585	3.85
474.936	3.86
475.288	3.88
475.639	3.86
475.99	3.86
476.342	3.86
476.693	3.86
477.044	3.84
477.395	3.87
477.746	3.87
478.097	3.86
478.448	3.88
478.8	3.89
479.15	3.9
479.501	3.89
479.852	3.88
480.203	3.89
480.554	3.91
480.905	3.89
481.255	3.9
481.606	3.92
481.957	3.91
482.307	3.9
482.658	3.91
483.009	3.92
483.359	3.92
483.709	3.92
484.06	3.92
484.41	3.93
484.761	3.94
485.111	3.94
485.461	3.94
485.811	3.94
486.162	3.96
486.512	3.95
486.862	3.97
487.212	3.97
487.562	3.97
487.912	3.96
488.262	3.96
488.612	3.95
488.961	3.95
489.311	3.95
489.661	3.96
490.011	3.94
490.36	3.94
490.71	3.94
491.06	3.94
491.409	3.94
491.759	3.95
492.108	3.94
492.458	3.94
492.807	3.93
493.157	3.93
493.506	3.93
493.855	3.94
494.204	3.93
494.554	3.95
494.903	3.95
495.252	3.96
495.601	3.99
495.95	3.98
496.299	3.98
496.648	3.98
496.997	3.98
497.346	3.99
497.695	4.03
498.043	4.04
498.392	4.05
498.741	4.05
499.09	4.04
499.438	4.04
499.787	4.05
500.135	4.06
500.484	4.06
500.832	4.06
501.181	4.06
501.529	4.08
501.878	4.08
502.226	4.08
502.574	4.11
502.923	4.11
503.271	4.13
503.619	4.13
503.967	4.12
504.315	4.14
504.663	4.15
505.011	4.13
505.359	4.13
505.707	4.13
506.055	4.14
506.403	4.15
506.751	4.17
507.098	4.2
507.446	4.22
507.794	4.22
508.141	4.22
508.489	4.25
508.837	4.24
509.184	4.21
509.531	4.23
509.879	4.22
510.226	4.22
510.574	4.24
510.921	4.25
511.268	4.28
511.616	4.29
511.963	4.31
512.31	4.34
512.657	4.34
513.004	4.33
513.351	4.33
513.698	4.33
514.045	4.34
514.392	4.35
514.739	4.36
515.086	4.39
515.432	4.39
515.779	4.39
516.126	4.41
516.473	4.43
516.819	4.44
517.166	4.46
517.512	4.45
517.859	4.47
518.205	4.46
518.552	4.47
518.898	4.46
519.245	4.46
519.591	4.45
519.937	4.47
520.283	4.48
520.629	4.48
520.976	4.48
521.322	4.48
521.668	4.47
522.014	4.47
522.36	4.47
522.706	4.47
523.052	4.48
523.398	4.47
523.743	4.49
524.089	4.49
524.435	4.48
524.781	4.49
525.126	4.48
525.472	4.5
525.817	4.5
526.163	4.5
526.509	4.5
526.854	4.52
527.199	4.53
527.545	4.55
527.89	4.55
528.235	4.56
528.581	4.56
528.926	4.57
529.271	4.58
529.616	4.57
529.961	4.58
530.306	4.58
530.651	4.59
530.996	4.59
531.341	4.59
531.686	4.61
532.031	4.62
532.376	4.64
532.721	4.65
533.065	4.66
533.41	4.67
533.755	4.69
534.099	4.67
534.444	4.66
534.788	4.65
535.133	4.66
535.477	4.66
535.822	4.66
536.166	4.67
536.51	4.67
536.855	4.69
537.199	4.69
537.543	4.7
537.887	4.72
538.231	4.72
538.576	4.74
538.92	4.74
539.264	4.74
539.608	4.73
539.951	4.72
540.295	4.72
540.639	4.73
540.983	4.72
541.327	4.74
541.671	4.77
542.014	4.79
542.358	4.8
542.701	4.81
543.045	4.83
543.389	4.83
543.732	4.84
544.075	4.85
544.419	4.85
544.762	4.86
545.105	4.86
545.449	4.87
545.792	4.88
546.135	4.89
546.478	4.9
546.821	4.89
547.165	4.9
547.508	4.9
547.851	4.91
548.194	4.91
548.536	4.9
548.879	4.86
549.222	4.86
549.565	4.85
549.908	4.83
550.25	4.8
550.593	4.79
550.936	4.8
551.278	4.77
551.621	4.75
551.963	4.75
552.306	4.75
552.648	4.74
552.991	4.72
553.333	4.72
553.675	4.73
554.017	4.72
554.36	4.72
554.702	4.71
555.044	4.72
555.386	4.75
555.728	4.77
556.07	4.8
556.412	4.79
556.754	4.79
557.096	4.81
557.438	4.83
557.78	4.84
558.121	4.84
558.463	4.88
558.805	4.92
559.147	4.92
559.488	4.87
559.83	4.87
560.171	4.85
560.513	4.84
560.854	4.87
561.196	4.91
561.537	4.94
561.878	4.97
562.22	4.97
562.561	4.93
562.902	4.92
563.243	4.94
563.584	4.92
563.925	4.96
564.266	4.96
564.607	4.98
564.948	4.99
565.289	4.98
565.63	4.96
565.971	4.96
566.312	4.94
566.653	4.97
566.993	4.99
567.334	5.03
567.675	5.06
568.015	5.05
568.356	5.04
568.696	5.06
569.037	5.04
569.377	5.04
569.718	5.02
570.058	5.02
570.398	4.98
570.739	4.99
571.079	4.96
571.419	4.98
571.759	4.95
572.099	4.95
572.439	4.95
572.779	4.94
573.119	4.92
573.459	4.93
573.799	4.91
574.139	4.88
574.479	4.91
574.819	4.89
575.158	4.91
575.498	4.89
575.838	4.87
576.177	4.87
576.517	4.88
576.856	4.94
577.196	4.96
577.535	4.98
577.875	4.99
578.214	4.99
578.553	4.91
578.893	4.92
579.232	4.93
579.571	4.95
579.91	4.96
580.25	4.96
580.589	4.99
580.928	5.02
581.267	5.03
581.606	5
581.945	5.03
582.283	5.02
582.622	5.02
582.961	5.03
583.3	5.03
583.639	5.03
583.977	5.01
584.316	5.01
584.654	5
584.993	4.99
585.332	4.99
585.67	5.03
586.008	5.05
586.347	5.05
586.685	5.04
587.024	5.1
587.362	5.1
587.7	5.15
588.038	5.17
588.376	5.22
588.715	5.2
589.053	5.16
589.391	5.19
589.729	5.23
590.067	5.24
590.404	5.23
590.742	5.22
591.08	5.24
591.418	5.26
591.756	5.31
592.093	5.35
592.431	5.39
592.769	5.42
593.106	5.43
593.444	5.42
593.781	5.49
594.119	5.49
594.456	5.47
594.793	5.44
595.131	5.44
595.468	5.42
595.805	5.47
596.143	5.46
596.48	5.44
596.817	5.43
597.154	5.4
597.491	5.44
597.828	5.45
598.165	5.47
598.502	5.46
598.839	5.42
599.176	5.4
599.512	5.42
599.849	5.43
600.186	5.41
600.523	5.45
600.859	5.38
601.196	5.38
601.532	5.44
601.869	5.44
602.205	5.42
602.542	5.43
602.878	5.41
603.215	5.43
603.551	5.44
603.887	5.45
604.223	5.49
604.56	5.46
604.896	5.5
605.232	5.47
605.568	5.49
605.904	5.48
606.24	5.5
606.576	5.52
606.912	5.52
607.248	5.54
607.583	5.54
607.919	5.59
608.255	5.56
608.591	5.58
608.926	5.56
609.262	5.55
609.597	5.55
609.933	5.56
610.268	5.59
610.604	5.59
610.939	5.58
611.275	5.58
611.61	5.62
611.945	5.56
612.281	5.58
612.616	5.57
612.951	5.58
613.286	5.58
613.621	5.53
613.956	5.56
614.291	5.62
614.626	5.62
614.961	5.62
615.296	5.66
615.631	5.65
615.966	5.68
616.3	5.74
616.635	5.79
616.97	5.77
617.304	5.75
617.639	5.76
617.973	5.74
618.308	5.72
618.642	5.72
618.977	5.75
619.311	5.77
619.646	5.81
619.98	5.79
620.314	5.78
620.648	5.85
620.983	5.8
621.317	5.79
621.651	5.82
621.985	5.82
622.319	5.82
622.653	5.8
622.987	5.77
623.321	5.78
623.655	5.76
623.988	5.8
624.322	5.84
624.656	5.82
624.99	5.85
625.323	5.9
625.657	5.92
625.99	5.92
626.324	5.91
626.657	5.86
626.991	5.94
627.324	5.97
627.658	5.95
627.991	5.97
628.324	5.96
628.657	5.93
628.991	5.92
629.324	5.94
629.657	5.93
629.99	5.96
630.323	5.91
630.656	5.88
630.989	5.83
631.322	5.75
631.655	5.77
631.987	5.76
632.32	5.69
632.653	5.64
632.986	5.67
633.318	5.66
633.651	5.73
633.984	5.69
634.316	5.64
634.649	5.65
634.981	5.64
635.313	5.65
635.646	5.63
635.978	5.59
636.31	5.61
636.643	5.59
636.975	5.61
637.307	5.68
637.639	5.66
637.971	5.75
638.303	5.85
638.635	5.87
638.967	5.92
639.299	5.98
639.631	5.96
639.963	5.86
640.295	5.89
640.626	5.9
640.958	5.89
641.29	5.95
641.621	5.91
641.953	5.87
642.285	5.88
642.616	5.94
642.948	5.94
643.279	5.89
643.61	5.92
643.942	5.88
644.273	5.85
644.604	5.89
644.936	5.82
645.267	5.73
645.598	5.66
645.929	5.69
646.26	5.65
646.591	5.72
646.922	5.83
647.253	5.78
647.584	5.72
647.915	5.72
648.245	5.68
648.576	5.69
648.907	5.71
649.238	5.67
649.568	5.67
649.899	5.75
650.229	5.77
650.56	5.82
650.89	5.91
651.221	5.93
651.551	5.98
651.882	6.01
652.212	6.04
652.542	6.11
652.872	6.08
653.203	6.18
653.533	6.23
653.863	6.3
654.193	6.32
654.523	6.35
654.853	6.37
655.183	6.5
655.513	6.53
655.843	6.58
656.172	6.64
656.502	6.57
656.832	6.56
657.162	6.55
657.491	6.53
657.821	6.42
658.15	6.43
658.48	6.4
658.809	6.39
659.139	6.42
659.468	6.43
659.798	6.46
660.127	6.39
660.456	6.39
660.785	6.3
661.115	6.34
661.444	6.35
661.773	6.35
662.102	6.23
662.431	6.21
662.76	6.23
663.089	6.22
663.418	6.25
663.747	6.29
664.076	6.25
664.404	6.3
664.733	6.36
665.062	6.36
665.39	6.31
665.719	6.35
666.048	6.31
666.376	6.23
666.705	6.18
667.033	6.21
667.362	6.17
667.69	6.18
668.018	6.17
668.347	6.19
668.675	6.22
669.003	6.28
669.331	6.36
669.659	6.35
669.987	6.33
670.315	6.34
670.643	6.24
670.971	6.32
671.299	6.38
671.627	6.44
671.955	6.42
672.283	6.42
672.61	6.36
672.938	6.46
673.266	6.49
673.593	6.48
673.921	6.47
674.249	6.49
674.576	6.55
674.904	6.58
675.231	6.6
675.558	6.65
675.886	6.64
676.213	6.6
676.54	6.67
676.867	6.66
677.195	6.69
677.522	6.73
677.849	6.74
678.176	6.66
678.503	6.61
678.83	6.64
679.157	6.71
679.484	6.79
679.81	6.83
680.137	6.86
680.464	6.86
680.791	6.9
681.117	6.97
681.444	6.98
681.771	6.98
682.097	7.04
682.424	6.96
682.75	6.94
683.077	7.01
683.403	6.98
683.729	7.08
684.056	6.97
684.382	7.05
684.708	7.05
685.034	6.96
685.36	6.96
685.686	6.9
686.012	6.9
686.339	6.82
686.664	6.78
686.99	6.8
687.316	6.91
687.642	6.9
687.968	6.83
688.294	6.72
688.619	6.68
688.945	6.62
689.271	6.59
689.596	6.65
689.922	6.64
690.247	6.59
690.573	6.57
690.898	6.73
691.224	6.66
691.549	6.64
691.874	6.73
692.2	6.79
692.525	6.89
692.85	6.87
693.175	7
693.5	6.96
693.825	6.95
694.15	6.8
694.475	6.82
694.8	6.83
695.125	6.97
695.45	7
695.775	6.95
696.099	7.16
696.424	7.19
696.749	7.22
697.073	7.22
697.398	7.2
697.723	7.16
698.047	7.14
698.372	7.2
698.696	7.23
699.02	7.29
699.345	7.38
699.669	7.41
699.993	7.37
700.318	7.39
700.642	7.44
700.966	7.43
701.29	7.41
701.614	7.5
701.938	7.47
702.262	7.45
702.586	7.58
702.91	7.44
703.234	7.46
703.557	7.36
703.881	7.59
704.205	7.64
704.529	7.76
704.852	7.82
705.176	7.89
705.499	7.89
705.823	7.87
706.146	7.7
706.47	7.67
706.793	7.7
707.117	7.62
707.44	7.53
707.763	7.59
708.086	7.59
708.409	7.44
708.733	7.3
709.056	7.4
709.379	7.38
709.702	7.48
710.025	7.57
710.348	7.59
710.671	7.4
710.993	7.23
711.316	7.15
711.639	7.11
711.962	7.07
712.284	7.12
712.607	7.13
712.93	7.09
713.252	7.12
713.575	7.2
713.897	7.24
714.22	7.25
714.542	7.39
714.864	7.36
715.187	7.37
715.509	7.53
715.831	7.56
716.153	7.48
716.475	7.49
716.798	7.33
717.12	7.38
717.442	7.34
717.764	7.65
718.085	7.73
718.407	7.72
718.729	7.77
719.051	7.8
719.373	7.76
719.695	7.87
720.016	7.85
720.338	7.79
720.659	7.89
720.981	7.94
721.302	7.89
721.624	7.98
721.945	8.08
722.267	8.12
722.588	8.04
722.909	8.06
723.231	7.99
723.552	8.05
723.873	7.89
724.194	7.84
724.515	7.63
724.836	7.46
725.157	7.59
725.478	7.56
725.799	7.5
726.12	7.46
726.441	7.4
726.762	7.51
727.083	7.52
727.403	7.43
727.724	7.6
728.045	7.47
728.365	7.44
728.686	7.43
729.006	7.3
729.327	7.36
729.647	7.45
729.967	7.49
730.288	7.42
730.608	7.57
730.928	7.64
731.249	7.75
731.569	7.83
731.889	7.86
732.209	7.78
732.529	7.74
732.849	7.75
733.169	7.81
733.489	7.72
733.809	7.7
734.129	7.81
734.448	7.82
734.768	7.87
735.088	7.93
735.408	7.85
735.727	7.98
736.047	8.04
736.366	8.09
736.686	8.07
737.005	8.27
737.325	8.25
737.644	8.23
737.963	8.17
738.283	8.28
738.602	8.46
738.921	8.38
739.24	8.52
739.56	8.61
739.879	8.65
740.198	8.8
740.517	8.98
740.836	8.97
741.155	8.88
741.473	9.02
741.792	9.06
742.111	9.26
742.43	9.21
742.748	8.91
743.067	8.83
743.386	8.86
743.704	8.82
744.023	8.86
744.341	8.86
744.66	8.81
744.978	8.65
745.297	8.4
745.615	8.57
745.933	8.72
746.252	8.55
746.57	8.52
746.888	8.79
747.206	8.67
747.524	8.52
747.842	8.37
748.16	8.3
748.478	8.15
748.796	8.16
749.114	8.07
749.432	8.4
749.749	8.39
750.067	8.48
750.385	8.37
750.703	8.38
751.02	8.33
751.338	8.35
751.655	8.19
751.973	8.32
752.29	8.2
752.608	8.11
752.925	8.21
753.242	8.25
753.56	7.81
753.877	7.64
754.194	7.74
754.511	7.7
754.828	7.61
755.145	7.96
755.462	7.8
755.779	8.01
756.096	8.05
756.413	8.17
756.73	8.16
757.047	8.15
757.364	7.99
757.68	8.14
757.997	8.11
758.314	8.35
758.63	8.42
758.947	8.43
759.264	8.3
759.58	8.48
759.896	8.55
760.213	8.75
760.529	8.87
760.846	8.92
761.162	9.05
761.478	9.06
761.794	9.01
762.11	9.04
762.426	8.96
762.743	8.83
763.059	8.71
763.375	8.72
763.69	8.74
764.006	8.87
764.322	8.96
764.638	9.23
764.954	9.38
765.27	9.47
765.585	9.64
765.901	9.54
766.216	9.29
766.532	9.17
766.848	9.1
767.163	8.96
767.478	8.9
767.794	8.96
768.109	9.01
768.424	8.74
768.74	8.83
769.055	8.95
769.37	8.94
769.685	8.91
770	8.93
770.315	8.89
770.63	8.93
770.945	9.08
771.26	8.87
771.575	8.88
771.89	8.37
772.205	8.27
772.52	8.43
772.834	8.66
773.149	8.68
773.464	8.93
773.778	8.9
774.093	9.26
774.407	9.25
774.722	9.5
775.036	9.92
775.351	9.94
775.665	9.75
775.979	9.83
776.293	10.17
776.608	9.97
776.922	10.33
777.236	10.13
777.55	9.68
777.864	9.63
778.178	9.28
778.492	9.53
778.806	9.6
779.12	9.63
779.434	9.57
779.747	9.83
780.061	9.53
780.375	10.09
780.689	9.93
781.002	9.7
781.316	9.62
781.629	9.8
781.943	9.82
782.256	10.12
782.57	10.39
782.883	10.29
783.196	10.19
783.51	9.87
783.823	10.07
784.136	10.43
784.449	10.47
784.762	10.87
785.075	10.78
785.388	10.83
785.701	10.69
786.014	10.76
786.327	11.01
786.64	11.02
786.953	10.99
787.266	10.92
787.578	10.95
787.891	10.88
788.204	10.52
788.516	10.7
788.829	10.61
789.141	10.73
789.454	10.44
789.766	10.97
790.079	11.05
790.391	11.19
790.703	10.9
791.016	10.78
791.328	10.89
791.64	10.82
791.952	11.03
792.264	11.33
792.576	11.59
792.888	10.99
793.2	11.4
793.512	11.28
793.824	11.39
794.136	11.48
794.448	11.71
794.76	12.06
795.071	11.93
795.383	11.74
795.695	11.01
796.006	10.91
796.318	10.8
796.629	10.79
796.941	10.61
797.252	10.53
797.564	10.51
797.875	10.3
798.186	10.27
798.497	9.88
798.809	9.85
799.12	10.01
799.431	10.09
799.742	10.47
800.053	10.15
800.364	10.54
800.675	10.84
800.986	11.26
801.297	10.8
801.608	10.61
801.918	10.68
802.229	11.02
802.54	11.22
802.851	10.89
803.161	10.91
803.472	10.9
803.782	11.31
804.093	11.17
804.403	11.69
804.714	12.4
805.024	12.4
805.334	12.45
805.645	11.72
805.955	12.19
806.265	11.28
806.575	11.26
806.885	10.96
807.195	11.25
807.505	11.12
807.815	11.88
808.125	11.77
808.435	12.12
808.745	11.73
809.055	12.23
809.365	12.52
809.674	12.43
809.984	12.33
810.294	12.23
810.603	12.23
810.913	11.36
811.222	10.75
811.532	11.11
811.841	11.27
812.151	11.9
812.46	11.8
812.769	12.07
813.079	11.91
813.388	11.58
813.697	10.81
814.006	10.61
814.315	9.99
814.624	9.99
814.933	9.46
815.242	10.45
815.551	10.32
815.86	10.47
816.169	10.95
816.478	11.69
816.786	11.36
817.095	11.47
817.404	12.52
817.712	12.89
818.021	12.57
818.33	12.52
818.638	12.04
818.947	12.14
819.255	12.16
819.563	12.7
819.872	12.93
820.18	13.02
820.488	12.92
820.796	12.97
821.105	13.21
821.413	13.28
821.721	13.11
822.029	13.14
822.337	13.08
822.645	13.13
822.953	13.12
823.26	13.19
823.568	13.18
823.876	13.09
824.184	12.91
824.491	12.87
824.799	12.78
825.107	13.01
825.414	12.86
825.722	12.89
826.029	12.84
826.337	12.68
826.644	12.76
826.951	12.72
827.259	12.71
827.566	12.69
827.873	12.76
828.18	12.65
828.488	12.61
828.795	12.63
829.102	12.38
829.409	12.2
829.716	12.55
830.023	12.64
830.329	12.62
830.636	12.85
830.943	12.98
831.25	13.32
831.557	12.94
831.863	13.27
832.17	13.32
832.476	13.48
832.783	13.8
833.089	13.84
833.396	14.07
833.702	14.06
834.009	14.1
834.315	13.95
834.621	14.21
834.928	13.95
835.234	14.06
835.54	14.27
835.846	14.14
836.152	13.52
836.458	13.43
836.764	13.28
837.07	13.3
837.376	13.19
837.682	13.09
837.988	13.5
838.293	13.48
838.599	13.25
838.905	13.53
839.211	12.9
839.516	12.26
839.822	12.28
840.127	11.93
840.433	11.67
840.738	11.73
841.044	11.58
841.349	11.6
841.654	11.27
841.959	11.08
842.265	11.52
842.57	11.53
842.875	11.99
843.18	11.92
843.485	12.05
843.79	13.16
844.095	12.81
844.4	12.28
844.705	11.98
845.01	11.9
845.315	11.14
845.619	13.14
845.924	12.54
846.229	11.98
846.533	12.93
846.838	12.82
847.142	13.05
847.447	13.78
847.751	15.95
848.056	16.31
848.36	16.51
848.664	16.37
848.969	16.59
849.273	16.22
849.577	15.59
849.881	15.62
850.185	14.81
850.489	16.42
850.794	17.25
851.097	17.42
851.401	17.38
851.705	16.82
852.009	15.85
852.313	15.77
852.617	16.8
852.92	16.48
853.224	15.18
853.528	15.2
853.831	14.99
854.135	13.49
854.438	12.03
854.742	11.49
855.045	10.57
855.349	10.82
855.652	10.26
855.955	12.31
856.259	12.68
856.562	12.25
856.865	11.08
857.168	11.51
857.471	11.41
857.774	13.01
858.077	13.56
858.38	13.71
858.683	17.27
858.986	16.87
859.289	15.44
859.592	18.27
859.894	17.65
860.197	15.37
860.5	15.91
860.802	16.78
861.105	15.97
861.407	16.66
861.71	16.87
862.012	17.65
862.315	16.75
862.617	17.49
862.919	18.16
863.222	17.31
863.524	14.47
863.826	12.49
864.128	13.54
864.43	15.63
864.732	14.46
865.034	12.81
865.336	12.74
865.638	12.64
865.94	11.65
866.242	11.1
866.544	13.56
866.846	13
867.147	15.02
867.449	16.45
867.751	15.53
868.052	15.57
868.354	16.18
868.655	16.17
868.957	13.8
869.258	10.93
869.56	11.34
869.861	13.31
870.162	16.42
870.463	14.07
870.765	13.72
871.066	14.45
871.367	11.87
871.668	10.21
871.969	11.2
872.27	10.79
872.571	12.02
872.872	12.57
873.173	11.81
873.473	8.32
873.774	7.8
874.075	8.73
874.376	9.55
874.676	9.51
874.977	8.85
875.277	9.9
875.578	10.9
875.878	10.87
876.179	10.58
876.479	9.91
876.78	10.08
877.08	6.66
877.38	6.76
877.68	10.63
877.981	12.17
878.281	13.05
878.581	12.83
