Data from MVZ_BU95633_Reflection_00014.txt Node
Date: Tue Nov 19 12:21:21 EST 2019
User: vgr7
Spectrometer: USB2G7710
Scans to average: 3
Trigger mode: 4
Integration Time (sec): 2.000000E-2
Electric dark correction enabled: true
Boxcar width: 10
XAxis mode: Wavelengths
Number of Pixels in Spectrum: 2048
>>>>>Begin Spectral Data<<<<<
177.721	74.93
178.105	121.74
178.488	112.46
178.871	380
179.254	-181.82
179.636	137.31
180.019	193.41
180.402	57.14
180.785	-431.58
181.168	-116.78
181.55	-7.73
181.933	-1.09
182.316	32.62
182.698	29.15
183.081	27.67
183.463	25.41
183.846	34.17
184.228	35.64
184.611	59.63
184.993	45.16
185.376	138.46
185.758	123.81
186.14	-28.57
186.522	-28.87
186.904	13.79
187.287	-27.91
187.669	-32.43
188.051	-22.95
188.433	-55.74
188.815	-60.65
189.197	-47.84
189.579	-13.29
189.961	-13.55
190.342	-30.54
190.724	-6.06
191.106	-11.81
191.488	-0.58
191.869	-18.44
192.251	-24.81
192.633	-36.74
193.014	-22.3
193.396	-38.95
193.777	-40.8
194.159	-37.6
194.54	-87.29
194.922	-150.99
195.303	-142.86
195.684	-158.84
196.065	-157.26
196.447	-160.81
196.828	-234.98
197.209	-165.17
197.59	-143.27
197.971	-152.4
198.352	-143.88
198.733	-171.99
199.114	-158.91
199.495	-157.07
199.876	-139.89
200.257	-184.22
200.638	-159.06
201.018	-155.69
201.399	-104.92
201.78	-92.42
202.16	-97.96
202.541	-83.48
202.922	-78.62
203.302	-83.36
203.683	-88.89
204.063	-93.81
204.444	-89
204.824	-73.55
205.204	-85.49
205.585	-70.72
205.965	-65.48
206.345	-56.15
206.725	-41.1
207.106	-38.47
207.486	-38.1
207.866	-45.13
208.246	-36.98
208.626	-48.44
209.006	-59.59
209.386	-63.43
209.766	-78.92
210.145	-69.92
210.525	-62.57
210.905	-60.36
211.285	-48.88
211.664	-29.33
212.044	-22.49
212.424	-19.58
212.803	-24.11
213.183	-29.85
213.562	-32.49
213.942	-26.9
214.321	-27.82
214.701	-40.92
215.08	-42.75
215.459	-31.8
215.838	-30.4
216.218	-38.43
216.597	-30.47
216.976	-42.72
217.355	-56.5
217.734	-59.05
218.113	-55.5
218.492	-80.78
218.871	-48.06
219.25	-61.49
219.629	-93.84
220.008	-82.37
220.387	-77.52
220.766	-67.14
221.144	-55.44
221.523	-64.97
221.902	-59.12
222.28	-37.99
222.659	-19.79
223.037	-19.4
223.416	-23.04
223.794	-26.12
224.173	-26.73
224.551	-31.33
224.929	-28.15
225.308	-22.03
225.686	-11.01
226.064	-12.39
226.442	-10.03
226.821	-17.05
227.199	-16.44
227.577	-12.02
227.955	-14.65
228.333	-11.74
228.711	-6.94
229.089	-7.74
229.467	-5.66
229.845	-6.3
230.222	-7.11
230.6	-9
230.978	-6.2
231.356	-8.28
231.733	-4.91
232.111	-2.4
232.488	-0.41
232.866	3.07
233.243	4.76
233.621	3.14
233.998	5.05
234.376	6.09
234.753	6.6
235.13	7.79
235.508	6.58
235.885	6.4
236.262	5.64
236.639	4.37
237.016	3.7
237.393	2.76
237.77	5.09
238.147	5.76
238.524	5.47
238.901	3.8
239.278	4.56
239.655	4.12
240.032	4
240.409	4.23
240.785	4.17
241.162	4.02
241.539	4.09
241.915	3.35
242.292	4.18
242.668	4.27
243.045	4.24
243.421	4.6
243.798	4.8
244.174	4.82
244.551	4.91
244.927	5.04
245.303	5.08
245.679	4.55
246.056	4.42
246.432	4.6
246.808	5.08
247.184	4.95
247.56	4.85
247.936	4.97
248.312	5.04
248.688	5.1
249.064	5.12
249.44	4.91
249.815	5.14
250.191	4.77
250.567	4.62
250.943	4.81
251.318	4.45
251.694	4.41
252.069	4.56
252.445	4.59
252.82	4.62
253.196	4.64
253.571	4.77
253.947	4.85
254.322	4.44
254.697	4.13
255.073	3.85
255.448	3.59
255.823	3.65
256.198	3.7
256.573	3.61
256.948	3.47
257.323	3.6
257.698	3.72
258.073	3.67
258.448	3.76
258.823	3.5
259.198	3.7
259.573	3.6
259.948	3.49
260.322	3.39
260.697	3.5
261.072	3.52
261.446	3.64
261.821	3.42
262.195	3.58
262.57	3.54
262.944	3.69
263.319	3.95
263.693	3.71
264.067	3.56
264.442	3.64
264.816	3.53
265.19	3.49
265.564	3.47
265.938	3.46
266.313	3.31
266.687	3.36
267.061	3.34
267.435	3.59
267.809	3.49
268.183	3.39
268.556	3.14
268.93	3.36
269.304	3.26
269.678	3.37
270.051	3.3
270.425	3.42
270.799	3.33
271.172	3.39
271.546	3.71
271.919	3.78
272.293	3.74
272.666	3.8
273.04	3.84
273.413	3.67
273.787	3.59
274.16	3.68
274.533	3.84
274.906	3.79
275.279	3.73
275.653	3.79
276.026	4.04
276.399	4.13
276.772	4.04
277.145	4
277.518	4.05
277.891	4.22
278.263	4.06
278.636	4.27
279.009	4.3
279.382	4.27
279.755	4.22
280.127	4.15
280.5	4.16
280.872	4.19
281.245	4.29
281.617	4.51
281.99	4.59
282.362	4.51
282.735	4.61
283.107	4.54
283.479	4.62
283.852	4.49
284.224	4.44
284.596	4.32
284.968	4.31
285.34	4.23
285.713	4.23
286.085	4.23
286.457	4.01
286.829	4.03
287.201	3.82
287.572	3.83
287.944	3.87
288.316	4.01
288.688	3.99
289.06	3.92
289.431	3.95
289.803	4.01
290.175	3.91
290.546	3.88
290.918	3.9
291.289	3.73
291.661	3.86
292.032	4.02
292.403	4.13
292.775	4.35
293.146	4.52
293.517	4.44
293.889	4.5
294.26	4.63
294.631	4.6
295.002	4.71
295.373	4.68
295.744	4.71
296.115	4.65
296.486	4.68
296.857	4.81
297.228	4.63
297.599	4.5
297.97	4.58
298.34	4.54
298.711	4.56
299.082	4.64
299.452	4.44
299.823	4.46
300.194	4.45
300.564	4.32
300.935	4.35
301.305	4.41
301.676	4.44
302.046	4.37
302.416	4.33
302.787	4.44
303.157	4.56
303.527	4.45
303.897	4.49
304.267	4.71
304.637	4.71
305.008	4.78
305.378	4.87
305.748	4.97
306.117	5.21
306.487	5.35
306.857	5.46
307.227	5.57
307.597	5.62
307.967	5.72
308.336	5.87
308.706	5.83
309.076	5.96
309.445	6.09
309.815	6.28
310.184	6.32
310.554	6.35
310.923	6.4
311.293	6.47
311.662	6.5
312.031	6.39
312.401	6.45
312.77	6.55
313.139	6.76
313.508	6.69
313.877	6.6
314.246	6.58
314.616	6.63
314.985	6.69
315.353	6.74
315.722	6.8
316.091	6.71
316.46	6.68
316.829	6.63
317.198	6.73
317.567	6.77
317.935	6.87
318.304	7.04
318.672	7.11
319.041	7.23
319.41	7.34
319.778	7.4
320.147	7.39
320.515	7.55
320.883	7.31
321.252	7.53
321.62	7.68
321.988	7.75
322.357	7.83
322.725	7.92
323.093	7.89
323.461	8.01
323.829	8.12
324.197	8.17
324.565	8.21
324.933	8.02
325.301	7.98
325.669	7.95
326.037	7.92
326.405	7.99
326.772	8.03
327.14	7.99
327.508	7.97
327.875	8.06
328.243	7.86
328.61	7.97
328.978	7.86
329.346	7.83
329.713	7.9
330.08	7.91
330.448	7.88
330.815	8.01
331.182	7.86
331.55	7.81
331.917	7.77
332.284	7.91
332.651	8.14
333.018	8.27
333.385	8.34
333.752	8.35
334.119	8.38
334.486	8.47
334.853	8.37
335.22	8.47
335.587	8.35
335.954	8.52
336.32	8.65
336.687	8.6
337.054	8.6
337.42	8.64
337.787	8.61
338.153	8.65
338.52	8.48
338.886	8.54
339.253	8.52
339.619	8.69
339.986	8.49
340.352	8.5
340.718	8.33
341.084	8.26
341.451	8.2
341.817	8.22
342.183	8.15
342.549	8.18
342.915	8.04
343.281	7.98
343.647	7.9
344.013	7.73
344.379	7.68
344.745	7.65
345.11	7.5
345.476	7.62
345.842	7.66
346.208	7.75
346.573	7.75
346.939	7.8
347.304	7.78
347.67	7.81
348.035	7.64
348.401	7.82
348.766	7.8
349.132	7.82
349.497	7.8
349.862	7.76
350.228	7.85
350.593	7.97
350.958	8.17
351.323	8.3
351.688	8.33
352.053	8.43
352.418	8.52
352.783	8.54
353.148	8.5
353.513	8.51
353.878	8.33
354.243	8.26
354.608	8.37
354.972	8.35
355.337	8.32
355.702	8.33
356.066	8.27
356.431	8.25
356.795	8.29
357.16	8.25
357.524	8.36
357.889	8.28
358.253	8.18
358.618	8.08
358.982	8
359.346	7.99
359.71	8.01
360.075	7.91
360.439	8.01
360.803	8.01
361.167	7.94
361.531	7.96
361.895	7.94
362.259	7.88
362.623	7.84
362.987	7.88
363.351	7.92
363.714	7.84
364.078	7.86
364.442	7.71
364.806	7.71
365.169	7.57
365.533	7.58
365.896	7.64
366.26	7.64
366.623	7.65
366.987	7.61
367.35	7.53
367.714	7.48
368.077	7.38
368.44	7.27
368.803	7.25
369.167	7.22
369.53	7.26
369.893	7.19
370.256	7.12
370.619	7.03
370.982	6.86
371.345	6.87
371.708	6.84
372.071	6.87
372.434	6.84
372.797	6.77
373.159	6.7
373.522	6.59
373.885	6.54
374.247	6.53
374.61	6.48
374.973	6.47
375.335	6.48
375.698	6.34
376.06	6.23
376.423	6.16
376.785	6.2
377.147	6.12
377.51	6.06
377.872	6.06
378.234	6
378.596	6.06
378.958	6.02
379.321	5.93
379.683	5.94
380.045	5.86
380.407	5.85
380.769	5.79
381.13	5.84
381.492	5.68
381.854	5.59
382.216	5.55
382.578	5.51
382.939	5.48
383.301	5.49
383.663	5.52
384.024	5.45
384.386	5.39
384.747	5.32
385.109	5.3
385.47	5.27
385.832	5.28
386.193	5.23
386.554	5.21
386.916	5.22
387.277	5.15
387.638	5.13
387.999	5.09
388.36	5.06
388.721	4.98
389.082	4.99
389.443	4.99
389.804	5
390.165	4.96
390.526	4.94
390.887	4.93
391.248	4.9
391.609	4.95
391.969	4.9
392.33	4.91
392.691	4.88
393.051	4.81
393.412	4.81
393.772	4.78
394.133	4.72
394.493	4.68
394.854	4.64
395.214	4.63
395.574	4.63
395.935	4.64
396.295	4.63
396.655	4.63
397.015	4.59
397.376	4.55
397.736	4.5
398.096	4.44
398.456	4.47
398.816	4.46
399.176	4.37
399.535	4.33
399.895	4.28
400.255	4.24
400.615	4.29
400.975	4.23
401.334	4.18
401.694	4.21
402.054	4.16
402.413	4.14
402.773	4.11
403.132	4.08
403.492	4.05
403.851	3.99
404.211	3.97
404.57	3.99
404.929	3.96
405.288	3.99
405.648	3.98
406.007	3.92
406.366	3.91
406.725	3.95
407.084	3.97
407.443	3.97
407.802	3.95
408.161	3.92
408.52	3.96
408.879	3.98
409.238	3.97
409.596	4.01
409.955	4
410.314	3.97
410.673	3.99
411.031	3.98
411.39	4.03
411.748	4.03
412.107	3.97
412.465	3.95
412.824	3.94
413.182	3.95
413.54	3.94
413.899	3.93
414.257	3.92
414.615	3.88
414.974	3.88
415.332	3.9
415.69	3.87
416.048	3.85
416.406	3.81
416.764	3.78
417.122	3.77
417.48	3.77
417.838	3.78
418.195	3.73
418.553	3.72
418.911	3.69
419.269	3.67
419.626	3.67
419.984	3.66
420.342	3.63
420.699	3.61
421.057	3.62
421.414	3.6
421.772	3.59
422.129	3.58
422.486	3.57
422.844	3.55
423.201	3.57
423.558	3.56
423.915	3.56
424.273	3.55
424.63	3.52
424.987	3.51
425.344	3.48
425.701	3.48
426.058	3.46
426.415	3.45
426.772	3.44
427.128	3.44
427.485	3.45
427.842	3.47
428.199	3.47
428.555	3.46
428.912	3.45
429.269	3.46
429.625	3.46
429.982	3.45
430.338	3.46
430.695	3.44
431.051	3.42
431.407	3.42
431.764	3.42
432.12	3.47
432.476	3.49
432.832	3.52
433.189	3.53
433.545	3.55
433.901	3.55
434.257	3.56
434.613	3.57
434.969	3.56
435.325	3.57
435.681	3.56
436.036	3.54
436.392	3.56
436.748	3.56
437.104	3.57
437.459	3.57
437.815	3.57
438.171	3.57
438.526	3.59
438.882	3.6
439.237	3.61
439.593	3.6
439.948	3.57
440.304	3.56
440.659	3.56
441.014	3.57
441.369	3.57
441.725	3.57
442.08	3.53
442.435	3.53
442.79	3.51
443.145	3.51
443.5	3.51
443.855	3.49
444.21	3.49
444.565	3.48
444.92	3.47
445.275	3.47
445.629	3.47
445.984	3.46
446.339	3.45
446.693	3.44
447.048	3.4
447.403	3.4
447.757	3.4
448.112	3.4
448.466	3.39
448.82	3.38
449.175	3.38
449.529	3.41
449.883	3.39
450.238	3.4
450.592	3.39
450.946	3.37
451.3	3.37
451.654	3.36
452.008	3.33
452.362	3.33
452.716	3.31
453.07	3.31
453.424	3.28
453.778	3.28
454.132	3.27
454.486	3.32
454.839	3.32
455.193	3.33
455.547	3.33
455.9	3.35
456.254	3.37
456.607	3.36
456.961	3.34
457.314	3.37
457.668	3.38
458.021	3.39
458.375	3.4
458.728	3.41
459.081	3.41
459.434	3.42
459.787	3.43
460.141	3.45
460.494	3.45
460.847	3.47
461.2	3.48
461.553	3.5
461.906	3.5
462.259	3.48
462.611	3.47
462.964	3.47
463.317	3.46
463.67	3.45
464.022	3.47
464.375	3.47
464.728	3.47
465.08	3.49
465.433	3.49
465.785	3.5
466.138	3.49
466.49	3.49
466.843	3.53
467.195	3.55
467.547	3.54
467.899	3.55
468.252	3.56
468.604	3.58
468.956	3.62
469.308	3.62
469.66	3.69
470.012	3.72
470.364	3.76
470.716	3.78
471.068	3.8
471.42	3.81
471.772	3.82
472.123	3.83
472.475	3.81
472.827	3.83
473.178	3.87
473.53	3.87
473.882	3.89
474.233	3.89
474.585	3.88
474.936	3.88
475.288	3.89
475.639	3.87
475.99	3.84
476.342	3.8
476.693	3.8
477.044	3.78
477.395	3.76
477.746	3.73
478.097	3.73
478.448	3.72
478.8	3.72
479.15	3.7
479.501	3.7
479.852	3.71
480.203	3.7
480.554	3.69
480.905	3.69
481.255	3.69
481.606	3.68
481.957	3.69
482.307	3.69
482.658	3.7
483.009	3.7
483.359	3.7
483.709	3.69
484.06	3.7
484.41	3.69
484.761	3.69
485.111	3.68
485.461	3.68
485.811	3.67
486.162	3.67
486.512	3.68
486.862	3.67
487.212	3.67
487.562	3.67
487.912	3.66
488.262	3.67
488.612	3.67
488.961	3.68
489.311	3.67
489.661	3.68
490.011	3.67
490.36	3.67
490.71	3.68
491.06	3.67
491.409	3.67
491.759	3.68
492.108	3.7
492.458	3.72
492.807	3.73
493.157	3.75
493.506	3.78
493.855	3.78
494.204	3.8
494.554	3.82
494.903	3.85
495.252	3.88
495.601	3.89
495.95	3.91
496.299	3.93
496.648	3.96
496.997	3.99
497.346	4.04
497.695	4.09
498.043	4.14
498.392	4.21
498.741	4.27
499.09	4.31
499.438	4.36
499.787	4.4
500.135	4.46
500.484	4.51
500.832	4.55
501.181	4.6
501.529	4.68
501.878	4.74
502.226	4.79
502.574	4.88
502.923	4.95
503.271	5.04
503.619	5.14
503.967	5.25
504.315	5.35
504.663	5.47
505.011	5.58
505.359	5.65
505.707	5.76
506.055	5.87
506.403	6.02
506.751	6.15
507.098	6.3
507.446	6.45
507.794	6.61
508.141	6.76
508.489	6.91
508.837	7.08
509.184	7.24
509.531	7.41
509.879	7.56
510.226	7.75
510.574	7.94
510.921	8.13
511.268	8.29
511.616	8.47
511.963	8.65
512.31	8.87
512.657	9.14
513.004	9.36
513.351	9.63
513.698	9.87
514.045	10.17
514.392	10.45
514.739	10.72
515.086	11
515.432	11.3
515.779	11.58
516.126	11.87
516.473	12.15
516.819	12.4
517.166	12.71
517.512	12.98
517.859	13.21
518.205	13.48
518.552	13.73
518.898	13.97
519.245	14.24
519.591	14.46
519.937	14.71
520.283	15.01
520.629	15.23
520.976	15.5
521.322	15.8
521.668	16.09
522.014	16.38
522.36	16.7
522.706	17.01
523.052	17.36
523.398	17.71
523.743	18.09
524.089	18.51
524.435	18.81
524.781	19.13
525.126	19.46
525.472	19.74
525.817	19.99
526.163	20.23
526.509	20.47
526.854	20.69
527.199	20.9
527.545	21.09
527.89	21.29
528.235	21.52
528.581	21.7
528.926	21.9
529.271	22.1
529.616	22.3
529.961	22.52
530.306	22.7
530.651	22.9
530.996	23.12
531.341	23.31
531.686	23.56
532.031	23.8
532.376	24.04
532.721	24.28
533.065	24.52
533.41	24.77
533.755	24.98
534.099	25.24
534.444	25.47
534.788	25.68
535.133	25.94
535.477	26.16
535.822	26.41
536.166	26.67
536.51	26.92
536.855	27.19
537.199	27.47
537.543	27.76
537.887	28.08
538.231	28.4
538.576	28.71
538.92	29.01
539.264	29.3
539.608	29.52
539.951	29.79
540.295	30.01
540.639	30.26
540.983	30.51
541.327	30.73
541.671	30.96
542.014	31.18
542.358	31.35
542.701	31.56
543.045	31.73
543.389	31.93
543.732	32.13
544.075	32.32
544.419	32.48
544.762	32.74
545.105	32.95
545.449	33.14
545.792	33.34
546.135	33.52
546.478	33.7
546.821	33.94
547.165	34.13
547.508	34.39
547.851	34.61
548.194	34.83
548.536	35.03
548.879	35.22
549.222	35.48
549.565	35.72
549.908	35.9
550.25	36.19
550.593	36.39
550.936	36.55
551.278	36.77
551.621	37.04
551.963	37.21
552.306	37.4
552.648	37.59
552.991	37.8
553.333	37.97
553.675	38.2
554.017	38.41
554.36	38.57
554.702	38.77
555.044	38.86
555.386	39.06
555.728	39.26
556.07	39.4
556.412	39.55
556.754	39.72
557.096	39.88
557.438	39.99
557.78	40.16
558.121	40.41
558.463	40.65
558.805	40.8
559.147	40.98
559.488	41.09
559.83	41.28
560.171	41.44
560.513	41.66
560.854	41.81
561.196	41.94
561.537	42.08
561.878	42.2
562.22	42.42
562.561	42.5
562.902	42.62
563.243	42.76
563.584	42.89
563.925	43.05
564.266	43.14
564.607	43.23
564.948	43.34
565.289	43.42
565.63	43.54
565.971	43.63
566.312	43.75
566.653	43.86
566.993	43.99
567.334	44.1
567.675	44.21
568.015	44.3
568.356	44.41
568.696	44.54
569.037	44.63
569.377	44.7
569.718	44.78
570.058	44.85
570.398	44.94
570.739	44.98
571.079	45.04
571.419	45.19
571.759	45.3
572.099	45.36
572.439	45.44
572.779	45.47
573.119	45.56
573.459	45.62
573.799	45.74
574.139	45.8
574.479	45.9
574.819	45.98
575.158	46.05
575.498	46.11
575.838	46.13
576.177	46.21
576.517	46.3
576.856	46.41
577.196	46.61
577.535	46.72
577.875	46.87
578.214	46.96
578.553	47.01
578.893	47.09
579.232	47.23
579.571	47.35
579.91	47.43
580.25	47.5
580.589	47.54
580.928	47.65
581.267	47.72
581.606	47.69
581.945	47.74
582.283	47.82
582.622	47.88
582.961	48
583.3	48.09
583.639	48.13
583.977	48.16
584.316	48.11
584.654	48.19
584.993	48.19
585.332	48.24
585.67	48.35
586.008	48.43
586.347	48.47
586.685	48.51
587.024	48.62
587.362	48.6
587.7	48.72
588.038	48.76
588.376	48.84
588.715	48.95
589.053	48.97
589.391	49.08
589.729	49.22
590.067	49.22
590.404	49.32
590.742	49.39
591.08	49.45
591.418	49.62
591.756	49.67
592.093	49.75
592.431	49.9
592.769	49.91
593.106	49.94
593.444	50.05
593.781	50.15
594.119	50.17
594.456	50.35
594.793	50.46
595.131	50.48
595.468	50.52
595.805	50.56
596.143	50.68
596.48	50.66
596.817	50.69
597.154	50.75
597.491	50.79
597.828	50.86
598.165	50.92
598.502	50.92
598.839	50.9
599.176	51.03
599.512	51.02
599.849	51.13
600.186	51.15
600.523	51.18
600.859	51.28
601.196	51.39
601.532	51.36
601.869	51.36
602.205	51.38
602.542	51.48
602.878	51.57
603.215	51.58
603.551	51.56
603.887	51.48
604.223	51.55
604.56	51.51
604.896	51.52
605.232	51.56
605.568	51.62
605.904	51.76
606.24	51.75
606.576	51.84
606.912	51.89
607.248	51.99
607.583	52
607.919	51.93
608.255	51.93
608.591	51.98
608.926	52.01
609.262	52.04
609.597	52.03
609.933	52.05
610.268	52.03
610.604	52.22
610.939	52.33
611.275	52.4
611.61	52.49
611.945	52.51
612.281	52.58
612.616	52.47
612.951	52.38
613.286	52.37
613.621	52.23
613.956	52.22
614.291	52.2
614.626	52.31
614.961	52.43
615.296	52.47
615.631	52.58
615.966	52.58
616.3	52.6
616.635	52.6
616.97	52.56
617.304	52.68
617.639	52.65
617.973	52.7
618.308	52.77
618.642	52.92
618.977	53.04
619.311	53.02
619.646	53.07
619.98	53.19
620.314	53.29
620.648	53.52
620.983	53.55
621.317	53.66
621.651	53.63
621.985	53.56
622.319	53.56
622.653	53.55
622.987	53.67
623.321	53.68
623.655	53.66
623.988	53.75
624.322	53.8
624.656	53.88
624.99	53.79
625.323	53.73
625.657	53.64
625.99	53.63
626.324	53.65
626.657	53.72
626.991	53.76
627.324	53.7
627.658	53.63
627.991	53.75
628.324	53.78
628.657	53.77
628.991	53.87
629.324	53.93
629.657	53.92
629.99	53.83
630.323	53.82
630.656	53.89
630.989	53.84
631.322	53.78
631.655	53.82
631.987	54.04
632.32	54.13
632.653	54.14
632.986	54.13
633.318	54.18
633.651	54.24
633.984	54.19
634.316	54.27
634.649	54.23
634.981	54.15
635.313	54.2
635.646	54.28
635.978	54.26
636.31	54.3
636.643	54.36
636.975	54.48
637.307	54.6
637.639	54.52
637.971	54.52
638.303	54.51
638.635	54.4
638.967	54.32
639.299	54.28
639.631	54.28
639.963	54.23
640.295	54.22
640.626	54.18
640.958	54.25
641.29	54.2
641.621	54.35
641.953	54.26
642.285	54.24
642.616	54.38
642.948	54.4
643.279	54.44
643.61	54.51
643.942	54.48
644.273	54.43
644.604	54.6
644.936	54.66
645.267	54.72
645.598	54.84
645.929	54.74
646.26	54.63
646.591	54.59
646.922	54.63
647.253	54.7
647.584	54.75
647.915	54.7
648.245	54.77
648.576	54.77
648.907	54.84
649.238	54.7
649.568	54.65
649.899	54.76
650.229	54.73
650.56	54.79
650.89	54.74
651.221	54.82
651.551	54.83
651.882	54.87
652.212	54.85
652.542	54.84
652.872	54.9
653.203	54.99
653.533	55.17
653.863	55.2
654.193	55.16
654.523	55.09
654.853	55.06
655.183	55.11
655.513	55.07
655.843	55.23
656.172	55.35
656.502	55.33
656.832	55.24
657.162	55.19
657.491	55.11
657.821	55.17
658.15	55.2
658.48	55.28
658.809	55.29
659.139	55.33
659.468	55.31
659.798	55.39
660.127	55.41
660.456	55.34
660.785	55.45
661.115	55.45
661.444	55.59
661.773	55.74
662.102	55.76
662.431	55.81
662.76	55.68
663.089	55.68
663.418	55.68
663.747	55.73
664.076	55.79
664.404	55.7
664.733	55.67
665.062	55.6
665.39	55.49
665.719	55.45
666.048	55.48
666.376	55.56
666.705	55.61
667.033	55.64
667.362	55.64
667.69	55.57
668.018	55.56
668.347	55.45
668.675	55.39
669.003	55.35
669.331	55.31
669.659	55.33
669.987	55.37
670.315	55.31
670.643	55.31
670.971	55.46
671.299	55.51
671.627	55.67
671.955	55.71
672.283	55.64
672.61	55.67
672.938	55.67
673.266	55.74
673.593	55.64
673.921	55.64
674.249	55.61
674.576	55.73
674.904	55.86
675.231	55.99
675.558	56.05
675.886	56.16
676.213	56.34
676.54	56.31
676.867	56.35
677.195	56.34
677.522	56.43
677.849	56.32
678.176	56.47
678.503	56.44
678.83	56.46
679.157	56.54
679.484	56.59
679.81	56.6
680.137	56.52
680.464	56.56
680.791	56.67
681.117	56.76
681.444	56.82
681.771	56.76
682.097	56.72
682.424	56.67
682.75	56.73
683.077	56.59
683.403	56.6
683.729	56.63
684.056	56.71
684.382	56.71
684.708	56.73
685.034	56.66
685.36	56.64
685.686	56.66
686.012	56.65
686.339	56.72
686.664	56.73
686.99	56.73
687.316	56.88
687.642	56.81
687.968	56.98
688.294	56.81
688.619	56.86
688.945	56.92
689.271	57.1
689.596	57.08
689.922	57.07
690.247	57.18
690.573	57.19
690.898	57.15
691.224	57.07
691.549	56.94
691.874	57.1
692.2	56.98
692.525	56.99
692.85	57.21
693.175	57.23
693.5	57.18
693.825	57.23
694.15	57.14
694.475	57.01
694.8	56.87
695.125	56.99
695.45	56.88
695.775	56.81
696.099	56.94
696.424	56.86
696.749	56.94
697.073	56.95
697.398	56.92
697.723	56.98
698.047	56.94
698.372	56.99
698.696	56.92
699.02	57.02
699.345	56.97
699.669	56.81
699.993	56.78
700.318	56.75
700.642	56.71
700.966	56.7
701.29	56.76
701.614	56.74
701.938	56.73
702.262	56.88
702.586	56.83
702.91	56.63
703.234	56.58
703.557	56.57
703.881	56.67
704.205	56.71
704.529	56.68
704.852	56.81
705.176	56.94
705.499	56.96
705.823	56.91
706.146	56.95
706.47	57.05
706.793	57.16
707.117	57.23
707.44	57.13
707.763	57.29
708.086	57.41
708.409	57.59
708.733	57.26
709.056	57.39
709.379	57.58
709.702	57.63
710.025	57.67
710.348	57.64
710.671	57.28
710.993	57.15
711.316	57.08
711.639	57.14
711.962	57.06
712.284	57.16
712.607	57.22
712.93	57.15
713.252	57.25
713.575	57.2
713.897	57.34
714.22	57.46
714.542	57.4
714.864	57.32
715.187	57.06
715.509	57.28
715.831	57
716.153	56.9
716.475	56.79
716.798	56.8
717.12	56.85
717.442	57.09
717.764	57.33
718.085	57.38
718.407	57.43
718.729	57.56
719.051	57.26
719.373	57.28
719.695	57.39
720.016	57.2
720.338	57.09
720.659	56.88
720.981	56.58
721.302	56.56
721.624	56.61
721.945	56.73
722.267	56.67
722.588	56.84
722.909	56.84
723.231	57.29
723.552	57.46
723.873	57.77
724.194	57.92
724.515	57.69
724.836	57.67
725.157	57.5
725.478	57.23
725.799	57.31
726.12	57.36
726.441	57.21
726.762	57.19
727.083	57.35
727.403	57.31
727.724	57.54
728.045	57.69
728.365	57.62
728.686	57.8
729.006	57.97
729.327	58.14
729.647	58.1
729.967	57.65
730.288	57.59
730.608	57.44
730.928	57.27
731.249	57.57
731.569	57.53
731.889	57.51
732.209	57.78
732.529	58.05
732.849	57.96
733.169	58.21
733.489	58.21
733.809	57.88
734.129	57.88
734.448	58.14
734.768	57.94
735.088	57.88
735.408	57.73
735.727	57.64
736.047	57.56
736.366	57.66
736.686	57.94
737.005	58.06
737.325	57.84
737.644	57.94
737.963	57.55
738.283	57.77
738.602	57.75
738.921	57.9
739.24	57.53
739.56	57.54
739.879	57.25
740.198	57.28
740.517	57.72
740.836	58.06
741.155	58.08
741.473	57.84
741.792	58.03
742.111	58.04
742.43	58.02
742.748	58.1
743.067	58.24
743.386	58.14
743.704	57.97
744.023	58.3
744.341	57.72
744.66	57.68
744.978	57.91
745.297	58.3
745.615	58.17
745.933	58.26
746.252	58.38
746.57	58.36
746.888	58.22
747.206	58.34
747.524	58.22
747.842	57.79
748.16	58.09
748.478	58.33
748.796	58.64
749.114	58.68
749.432	58.5
749.749	58.31
750.067	58.48
750.385	58.29
750.703	58.4
751.02	58.73
751.338	58.89
751.655	58.7
751.973	58.51
752.29	58.21
752.608	58.35
752.925	58.49
753.242	58.91
753.56	58.96
753.877	58.26
754.194	58.43
754.511	58.76
754.828	58.81
755.145	58.6
755.462	58.35
755.779	58.69
756.096	58.95
756.413	58.89
756.73	58.32
757.047	58.51
757.364	58.38
757.68	58.78
757.997	59.15
758.314	59
758.63	58.58
758.947	58.48
759.264	58.93
759.58	58.94
759.896	58.96
760.213	59.14
760.529	59.67
760.846	59.57
761.162	59.65
761.478	59.63
761.794	59.8
762.11	59.88
762.426	60.07
762.743	59.84
763.059	59.94
763.375	60.08
763.69	60.12
764.006	59.97
764.322	59.95
764.638	59.75
764.954	59.81
765.27	60.16
765.585	60.34
765.901	59.99
766.216	59.87
766.532	59.85
766.848	59.93
767.163	59.93
767.478	59.8
767.794	59.88
768.109	59.93
768.424	59.41
768.74	59.27
769.055	58.89
769.37	58.99
769.685	58.75
770	58.96
770.315	58.95
770.63	58.89
770.945	58.87
771.26	58.95
771.575	59.02
771.89	59.09
772.205	58.88
772.52	58.69
772.834	58.6
773.149	58.61
773.464	58.37
773.778	58.19
774.093	57.92
774.407	57.58
774.722	57.57
775.036	58.45
775.351	58.65
775.665	58.75
775.979	58.5
776.293	58.8
776.608	58.39
776.922	58.2
777.236	58
777.55	57.4
777.864	57.39
778.178	57.03
778.492	56.82
778.806	57.23
779.12	57.74
779.434	58.02
779.747	57.63
780.061	58.17
780.375	57.88
780.689	58.03
781.002	58.22
781.316	58.05
781.629	57.83
781.943	57.4
782.256	57.58
782.57	58.08
782.883	57.91
783.196	58.54
783.51	58.7
783.823	59.24
784.136	59.98
784.449	60.02
784.762	60.2
785.075	60.27
785.388	60.36
785.701	59.71
786.014	59.42
786.327	59.25
786.64	58.83
786.953	59.06
787.266	59.09
787.578	58.77
787.891	59.35
788.204	59.06
788.516	59.54
788.829	59.44
789.141	59.35
789.454	59.24
789.766	59.26
790.079	59.04
790.391	58.9
790.703	58.65
791.016	58.86
791.328	59.02
791.64	59.02
791.952	59.15
792.264	59.21
792.576	59.64
792.888	60.37
793.2	60.35
793.512	60.88
793.824	61.05
794.136	60.98
794.448	60.56
794.76	60.57
795.071	60.25
795.383	59.79
795.695	59.73
796.006	59.72
796.318	59.27
796.629	59.72
796.941	59.78
797.252	59.64
797.564	59.26
797.875	58.87
798.186	58.42
798.497	57.87
798.809	58.54
799.12	58.2
799.431	57.61
799.742	57.43
800.053	56.46
800.364	56.76
800.675	57.3
800.986	57.12
801.297	56.77
801.608	56.66
801.918	56.83
802.229	57.23
802.54	57.21
802.851	58.14
803.161	57.59
803.472	57.11
803.782	57.14
804.093	56.82
804.403	56.47
804.714	56.69
805.024	57.06
805.334	56.68
805.645	56.94
805.955	57.51
806.265	57.92
806.575	58.47
806.885	57.96
807.195	57.94
807.505	57.67
807.815	57.66
808.125	57.89
808.435	57.86
808.745	57.32
809.055	58.27
809.365	57.62
809.674	58.31
809.984	58.68
810.294	58.96
810.603	58.83
810.913	59.69
811.222	60.23
811.532	59.7
811.841	59.41
812.151	58.36
812.46	57.68
812.769	57.28
813.079	58.04
813.388	58.27
813.697	57.48
814.006	57.96
814.315	58.56
814.624	58.66
814.933	59.6
815.242	59.5
815.551	58.28
815.86	57.27
816.169	56.91
816.478	57.11
816.786	57.37
817.095	57.85
817.404	57.58
817.712	57.09
818.021	57.26
818.33	57.59
818.638	58.98
818.947	59.41
819.255	59.65
819.563	59.55
819.872	59.88
820.18	60.4
820.488	60.26
820.796	60.33
821.105	60.43
821.413	60.28
821.721	60.4
822.029	60.32
822.337	60.48
822.645	60.62
822.953	60.34
823.26	60.4
823.568	60.46
823.876	60.48
824.184	60.43
824.491	60.46
824.799	60.55
825.107	60.61
825.414	60.53
825.722	60.53
826.029	60.3
826.337	60.2
826.644	60.03
826.951	59.98
827.259	59.95
827.566	59.8
827.873	59.58
828.18	59.46
828.488	59.71
828.795	59.61
829.102	59.24
829.409	59.25
829.716	59.04
830.023	58.62
830.329	59.03
830.636	59.47
830.943	59.2
831.25	58.94
831.557	58.46
831.863	58.82
832.17	58.91
832.476	59.53
832.783	59.68
833.089	59.52
833.396	59.69
833.702	59.9
834.009	60.17
834.315	60.25
834.621	60.23
834.928	59.84
835.234	60.03
835.54	60.11
835.846	60.72
836.152	60.7
836.458	60.81
836.764	59.59
837.07	59.65
837.376	59.7
837.682	60.08
837.988	59.81
838.293	59.49
838.599	58.74
838.905	58.35
839.211	58.26
839.516	58.05
839.822	58.23
840.127	57.31
840.433	57.03
840.738	56.99
841.044	57.73
841.349	57.83
841.654	57
841.959	56.44
842.265	56.28
842.57	56.17
842.875	56.84
843.18	57.93
843.485	57.44
843.79	58.33
844.095	57.22
844.4	57.7
844.705	57.31
845.01	57.86
845.315	57.22
845.619	57.62
845.924	58.77
846.229	57.6
846.533	57.06
846.838	57.22
847.142	56.77
847.447	55.76
847.751	56.53
848.056	58.59
848.36	60.29
848.664	59.58
848.969	60.16
849.273	60.5
849.577	60.67
849.881	59.1
850.185	57.46
850.489	58.47
850.794	58.41
851.097	58.65
851.401	60.09
851.705	61.67
852.009	60.47
852.313	61.52
852.617	61.51
852.92	61.68
853.224	60.3
853.528	61.27
853.831	59.77
854.135	59.37
854.438	58.78
854.742	58.2
855.045	57.91
855.349	56.89
855.652	57.06
855.955	56.99
856.259	57.7
856.562	58.36
856.865	59.26
857.168	59.05
857.471	57.08
857.774	54.95
858.077	55.12
858.38	55.19
858.683	54.23
858.986	55.55
859.289	56.82
859.592	59.98
859.894	58.26
860.197	57.6
860.5	57.55
860.802	57.81
861.105	56.08
861.407	58.29
861.71	57.44
862.012	57.39
862.315	55.19
862.617	55.47
862.919	56.7
863.222	55.42
863.524	55.93
863.826	60.11
864.128	62.1
864.43	60.99
864.732	60.16
865.034	56.92
865.336	55.01
865.638	54.17
865.94	53.21
866.242	51.83
866.544	53.86
866.846	55.63
867.147	55.52
867.449	58.48
867.751	54.95
868.052	56.18
868.354	57.9
868.655	58.46
868.957	55.9
869.258	55.1
869.56	54.49
869.861	52.3
870.162	49.24
870.463	47.97
870.765	47.17
871.066	47.25
871.367	49.34
871.668	50.53
871.969	50.39
872.27	48.6
872.571	50.94
872.872	51.08
873.173	50.17
873.473	48.35
873.774	48.16
874.075	49.58
874.376	49.23
874.676	47.47
874.977	48.31
875.277	49.38
875.578	49.32
875.878	49.03
876.179	50.4
876.479	51.63
876.78	52.66
877.08	52.48
877.38	52.11
877.68	52.41
877.981	52.84
878.281	54.38
878.581	54.75
