Data from MVZ_BU147395_Reflection_00014.txt Node
Date: Tue Nov 19 12:05:17 EST 2019
User: vgr7
Spectrometer: USB2G7710
Scans to average: 3
Trigger mode: 4
Integration Time (sec): 2.000000E-2
Electric dark correction enabled: true
Boxcar width: 10
XAxis mode: Wavelengths
Number of Pixels in Spectrum: 2048
>>>>>Begin Spectral Data<<<<<
177.721	40.58
178.105	-17.41
178.488	-14.53
178.871	-23.58
179.254	-19.8
179.636	24.86
180.019	4676.92
180.402	290.91
180.785	28.57
181.168	-40.17
181.55	-534.33
181.933	193.83
182.316	345.66
182.698	-3557.89
183.081	1259.57
183.463	720.48
183.846	-703.8
184.228	-465.93
184.611	-145.93
184.993	-19.8
185.376	10.58
185.758	-10.56
186.14	-33.47
186.522	-6.02
186.904	7.93
187.287	9.16
187.669	26.63
188.051	26
188.433	6.59
188.815	-6.39
189.197	0.53
189.579	17.57
189.961	26.24
190.342	26.91
190.724	16
191.106	13.75
191.488	12.98
191.869	17.26
192.251	19.3
192.633	24.43
193.014	14.67
193.396	12.6
193.777	25.73
194.159	25.12
194.54	16.29
194.922	11.82
195.303	2.57
195.684	-1.07
196.065	16.46
196.447	13.14
196.828	30.62
197.209	32.9
197.59	30.23
197.971	39.65
198.352	37.48
198.733	54.35
199.114	52.04
199.495	62.85
199.876	64.94
200.257	49.33
200.638	46.09
201.018	53.46
201.399	65.08
201.78	37.15
202.16	55.5
202.541	50.61
202.922	31.79
203.302	75.67
203.683	57.34
204.063	23.95
204.444	60.95
204.824	33.55
205.204	3.31
205.585	27.64
205.965	-27.26
206.345	-3.19
206.725	8.18
207.106	22.74
207.486	-8.87
207.866	-12.9
208.246	14.69
208.626	0.45
209.006	8.75
209.386	-1.55
209.766	0.85
210.145	-2.13
210.525	-1.78
210.905	-7.5
211.285	-8.95
211.664	4.97
212.044	5.29
212.424	-7.81
212.803	-12.38
213.183	-6.39
213.562	-7.13
213.942	-5.45
214.321	-0.91
214.701	-7.99
215.08	-25.87
215.459	-18.75
215.838	-11.64
216.218	-13.55
216.597	-0.91
216.976	-18.66
217.355	-6.71
217.734	-18.83
218.113	-6.36
218.492	8.03
218.871	16.27
219.25	10.58
219.629	-17.02
220.008	-16.78
220.387	-13.58
220.766	6.59
221.144	7.26
221.523	4.64
221.902	11.36
222.28	10.07
222.659	11.34
223.037	16
223.416	20.57
223.794	22.04
224.173	11.57
224.551	13.65
224.929	13.68
225.308	10.14
225.686	13.12
226.064	9.91
226.442	11.12
226.821	10.57
227.199	11.22
227.577	14.78
227.955	17.33
228.333	20.55
228.711	15.52
229.089	14.38
229.467	12.64
229.845	10.26
230.222	7.98
230.6	4.85
230.978	6.73
231.356	5.28
231.733	5.4
232.111	8.46
232.488	7.29
232.866	8.76
233.243	10.09
233.621	11.36
233.998	11.67
234.376	10.62
234.753	9.64
235.13	9.24
235.508	7.72
235.885	7.47
236.262	6.37
236.639	6.51
237.016	7.26
237.393	8.03
237.77	9.17
238.147	9.39
238.524	9.32
238.901	7.04
239.278	6.92
239.655	5.98
240.032	5.4
240.409	5.34
240.785	4.86
241.162	4.53
241.539	3.86
241.915	3.6
242.292	3.5
242.668	3.66
243.045	3.73
243.421	4.24
243.798	3.97
244.174	3.73
244.551	3.64
244.927	3.5
245.303	3.23
245.679	3.02
246.056	3.06
246.432	3.06
246.808	3.33
247.184	3.32
247.56	3.4
247.936	3.29
248.312	3.25
248.688	3.3
249.064	3.2
249.44	3.36
249.815	3.39
250.191	3.29
250.567	3.26
250.943	3.36
251.318	2.94
251.694	3.02
252.069	3.17
252.445	3.41
252.82	3.58
253.196	3.76
253.571	3.81
253.947	3.92
254.322	3.89
254.697	4.04
255.073	4.14
255.448	4.1
255.823	4.37
256.198	4.36
256.573	4.3
256.948	4.59
257.323	4.35
257.698	4.21
258.073	4.25
258.448	4.18
258.823	3.91
259.198	4.11
259.573	4.04
259.948	4.01
260.322	3.67
260.697	3.63
261.072	3.58
261.446	3.55
261.821	3.53
262.195	3.44
262.57	3.36
262.944	3.23
263.319	3.13
263.693	3.01
264.067	2.94
264.442	2.99
264.816	2.77
265.19	2.76
265.564	2.84
265.938	2.8
266.313	2.84
266.687	3.1
267.061	2.93
267.435	3
267.809	2.97
268.183	3.13
268.556	2.99
268.93	3
269.304	3
269.678	3.02
270.051	3.14
270.425	3.08
270.799	3.01
271.172	3.15
271.546	3.29
271.919	3.37
272.293	3.38
272.666	3.41
273.04	3.48
273.413	3.42
273.787	3.33
274.16	3.26
274.533	3.24
274.906	3.21
275.279	3.06
275.653	3.12
276.026	3.09
276.399	3.18
276.772	3.19
277.145	3.12
277.518	2.94
277.891	2.86
278.263	3.05
278.636	3.28
279.009	3.27
279.382	3.17
279.755	3.15
280.127	3.19
280.5	3.09
280.872	3.03
281.245	3.07
281.617	3.15
281.99	3.41
282.362	3.32
282.735	3.39
283.107	3.56
283.479	3.58
283.852	3.57
284.224	3.6
284.596	3.57
284.968	3.59
285.34	3.59
285.713	3.83
286.085	3.69
286.457	3.6
286.829	3.46
287.201	3.36
287.572	3.4
287.944	3.35
288.316	3.47
288.688	3.53
289.06	3.7
289.431	3.75
289.803	3.63
290.175	3.71
290.546	3.74
290.918	3.65
291.289	3.57
291.661	3.67
292.032	3.7
292.403	3.73
292.775	3.88
293.146	3.93
293.517	3.75
293.889	3.93
294.26	3.92
294.631	4.05
295.002	4.08
295.373	4.09
295.744	4.03
296.115	4.09
296.486	4.17
296.857	4.05
297.228	3.94
297.599	3.89
297.97	3.88
298.34	3.91
298.711	3.95
299.082	4.04
299.452	3.92
299.823	3.87
300.194	3.94
300.564	3.95
300.935	3.88
301.305	3.95
301.676	3.79
302.046	3.87
302.416	3.9
302.787	4.06
303.157	4.02
303.527	4.17
303.897	4.03
304.267	4.03
304.637	4.01
305.008	4.12
305.378	4.17
305.748	4.14
306.117	4.15
306.487	4.38
306.857	4.39
307.227	4.62
307.597	4.65
307.967	4.61
308.336	4.5
308.706	4.71
309.076	4.72
309.445	4.82
309.815	4.83
310.184	4.78
310.554	4.84
310.923	4.84
311.293	4.82
311.662	4.87
312.031	4.84
312.401	4.89
312.77	4.94
313.139	4.97
313.508	5.02
313.877	4.96
314.246	4.81
314.616	4.8
314.985	4.69
315.353	4.6
315.722	4.64
316.091	4.74
316.46	4.78
316.829	4.7
317.198	4.68
317.567	4.81
317.935	4.99
318.304	4.86
318.672	4.92
319.041	4.97
319.41	5
319.778	4.97
320.147	5.04
320.515	5.03
320.883	5.19
321.252	5.28
321.62	5.46
321.988	5.55
322.357	5.61
322.725	5.73
323.093	5.8
323.461	5.91
323.829	5.94
324.197	5.86
324.565	6
324.933	6.09
325.301	5.95
325.669	5.88
326.037	6.03
326.405	6.04
326.772	6.07
327.14	6.01
327.508	6.08
327.875	6.08
328.243	6.14
328.61	6.12
328.978	6.11
329.346	6.09
329.713	6.05
330.08	6.11
330.448	6.13
330.815	6.35
331.182	6.3
331.55	6.31
331.917	6.42
332.284	6.45
332.651	6.5
333.018	6.51
333.385	6.56
333.752	6.46
334.119	6.53
334.486	6.56
334.853	6.58
335.22	6.56
335.587	6.71
335.954	6.72
336.32	6.67
336.687	6.68
337.054	6.67
337.42	6.76
337.787	6.73
338.153	6.82
338.52	6.76
338.886	6.78
339.253	6.76
339.619	6.73
339.986	6.68
340.352	6.66
340.718	6.67
341.084	6.64
341.451	6.68
341.817	6.71
342.183	6.69
342.549	6.79
342.915	6.83
343.281	6.78
343.647	6.83
344.013	6.86
344.379	6.86
344.745	6.86
345.11	6.81
345.476	6.91
345.842	6.87
346.208	6.8
346.573	6.82
346.939	6.81
347.304	6.89
347.67	6.84
348.035	6.79
348.401	6.81
348.766	6.87
349.132	6.92
349.497	6.93
349.862	7.01
350.228	7.03
350.593	7.05
350.958	7.01
351.323	7.03
351.688	7.04
352.053	7.05
352.418	7.19
352.783	7.12
353.148	7.12
353.513	7.01
353.878	7.01
354.243	6.99
354.608	7.12
354.972	7.01
355.337	7.09
355.702	7.15
356.066	7.19
356.431	7.18
356.795	7.12
357.16	7.07
357.524	7.04
357.889	7.01
358.253	7.01
358.618	6.98
358.982	6.93
359.346	6.89
359.71	6.89
360.075	6.83
360.439	6.9
360.803	6.89
361.167	6.95
361.531	6.98
361.895	7.01
362.259	6.93
362.623	6.95
362.987	6.89
363.351	6.82
363.714	6.8
364.078	6.76
364.442	6.71
364.806	6.73
365.169	6.7
365.533	6.67
365.896	6.63
366.26	6.6
366.623	6.61
366.987	6.62
367.35	6.58
367.714	6.58
368.077	6.54
368.44	6.44
368.803	6.35
369.167	6.35
369.53	6.3
369.893	6.21
370.256	6.19
370.619	6.23
370.982	6.21
371.345	6.24
371.708	6.24
372.071	6.24
372.434	6.23
372.797	6.16
373.159	6.16
373.522	6.17
373.885	6.18
374.247	6.13
374.61	6.09
374.973	6.1
375.335	6.02
375.698	5.99
376.06	5.98
376.423	6
376.785	5.9
377.147	5.82
377.51	5.79
377.872	5.75
378.234	5.75
378.596	5.75
378.958	5.69
379.321	5.64
379.683	5.67
380.045	5.56
380.407	5.56
380.769	5.51
381.13	5.43
381.492	5.33
381.854	5.27
382.216	5.25
382.578	5.17
382.939	5.14
383.301	5.13
383.663	5.11
384.024	5.05
384.386	5.08
384.747	5.1
385.109	5.09
385.47	5.07
385.832	4.97
386.193	4.94
386.554	4.83
386.916	4.81
387.277	4.74
387.638	4.78
387.999	4.76
388.36	4.76
388.721	4.79
389.082	4.85
389.443	4.86
389.804	4.84
390.165	4.88
390.526	4.83
390.887	4.78
391.248	4.77
391.609	4.78
391.969	4.76
392.33	4.7
392.691	4.69
393.051	4.68
393.412	4.68
393.772	4.67
394.133	4.67
394.493	4.62
394.854	4.62
395.214	4.58
395.574	4.56
395.935	4.55
396.295	4.5
396.655	4.47
397.015	4.46
397.376	4.42
397.736	4.35
398.096	4.33
398.456	4.29
398.816	4.27
399.176	4.22
399.535	4.18
399.895	4.17
400.255	4.17
400.615	4.15
400.975	4.15
401.334	4.14
401.694	4.13
402.054	4.14
402.413	4.09
402.773	4.1
403.132	4.08
403.492	4.06
403.851	4.03
404.211	4
404.57	3.96
404.929	3.93
405.288	3.91
405.648	3.91
406.007	3.92
406.366	3.89
406.725	3.91
407.084	3.9
407.443	3.91
407.802	3.88
408.161	3.84
408.52	3.83
408.879	3.83
409.238	3.84
409.596	3.84
409.955	3.84
410.314	3.81
410.673	3.79
411.031	3.77
411.39	3.78
411.748	3.77
412.107	3.77
412.465	3.78
412.824	3.77
413.182	3.75
413.54	3.74
413.899	3.75
414.257	3.73
414.615	3.71
414.974	3.69
415.332	3.7
415.69	3.71
416.048	3.68
416.406	3.65
416.764	3.64
417.122	3.63
417.48	3.59
417.838	3.59
418.195	3.58
418.553	3.58
418.911	3.56
419.269	3.55
419.626	3.56
419.984	3.54
420.342	3.54
420.699	3.56
421.057	3.55
421.414	3.54
421.772	3.53
422.129	3.53
422.486	3.53
422.844	3.52
423.201	3.5
423.558	3.49
423.915	3.48
424.273	3.48
424.63	3.49
424.987	3.49
425.344	3.49
425.701	3.48
426.058	3.49
426.415	3.49
426.772	3.49
427.128	3.46
427.485	3.47
427.842	3.46
428.199	3.44
428.555	3.4
428.912	3.39
429.269	3.37
429.625	3.36
429.982	3.36
430.338	3.35
430.695	3.35
431.051	3.35
431.407	3.36
431.764	3.34
432.12	3.34
432.476	3.34
432.832	3.33
433.189	3.32
433.545	3.31
433.901	3.3
434.257	3.31
434.613	3.3
434.969	3.29
435.325	3.27
435.681	3.28
436.036	3.31
436.392	3.3
436.748	3.32
437.104	3.35
437.459	3.33
437.815	3.35
438.171	3.34
438.526	3.35
438.882	3.34
439.237	3.34
439.593	3.32
439.948	3.32
440.304	3.33
440.659	3.34
441.014	3.32
441.369	3.32
441.725	3.33
442.08	3.35
442.435	3.36
442.79	3.37
443.145	3.37
443.5	3.36
443.855	3.37
444.21	3.36
444.565	3.33
444.92	3.32
445.275	3.31
445.629	3.31
445.984	3.31
446.339	3.32
446.693	3.33
447.048	3.32
447.403	3.32
447.757	3.31
448.112	3.31
448.466	3.32
448.82	3.31
449.175	3.29
449.529	3.28
449.883	3.27
450.238	3.25
450.592	3.24
450.946	3.24
451.3	3.23
451.654	3.23
452.008	3.23
452.362	3.23
452.716	3.22
453.07	3.21
453.424	3.19
453.778	3.18
454.132	3.16
454.486	3.19
454.839	3.21
455.193	3.19
455.547	3.18
455.9	3.19
456.254	3.19
456.607	3.2
456.961	3.2
457.314	3.2
457.668	3.2
458.021	3.19
458.375	3.18
458.728	3.19
459.081	3.19
459.434	3.2
459.787	3.22
460.141	3.23
460.494	3.24
460.847	3.25
461.2	3.25
461.553	3.25
461.906	3.24
462.259	3.21
462.611	3.24
462.964	3.26
463.317	3.25
463.67	3.27
464.022	3.28
464.375	3.28
464.728	3.28
465.08	3.29
465.433	3.31
465.785	3.34
466.138	3.34
466.49	3.35
466.843	3.37
467.195	3.39
467.547	3.37
467.899	3.39
468.252	3.42
468.604	3.42
468.956	3.46
469.308	3.46
469.66	3.49
470.012	3.49
470.364	3.5
470.716	3.53
471.068	3.52
471.42	3.55
471.772	3.57
472.123	3.59
472.475	3.63
472.827	3.63
473.178	3.62
473.53	3.64
473.882	3.64
474.233	3.64
474.585	3.62
474.936	3.64
475.288	3.63
475.639	3.62
475.99	3.61
476.342	3.59
476.693	3.59
477.044	3.58
477.395	3.57
477.746	3.56
478.097	3.55
478.448	3.55
478.8	3.53
479.15	3.51
479.501	3.5
479.852	3.5
480.203	3.5
480.554	3.51
480.905	3.51
481.255	3.51
481.606	3.51
481.957	3.51
482.307	3.5
482.658	3.5
483.009	3.49
483.359	3.49
483.709	3.49
484.06	3.49
484.41	3.49
484.761	3.49
485.111	3.48
485.461	3.48
485.811	3.49
486.162	3.48
486.512	3.48
486.862	3.48
487.212	3.48
487.562	3.47
487.912	3.47
488.262	3.46
488.612	3.45
488.961	3.45
489.311	3.44
489.661	3.45
490.011	3.45
490.36	3.45
490.71	3.46
491.06	3.46
491.409	3.46
491.759	3.47
492.108	3.48
492.458	3.48
492.807	3.48
493.157	3.48
493.506	3.48
493.855	3.48
494.204	3.5
494.554	3.5
494.903	3.52
495.252	3.53
495.601	3.55
495.95	3.57
496.299	3.59
496.648	3.63
496.997	3.65
497.346	3.68
497.695	3.72
498.043	3.74
498.392	3.78
498.741	3.82
499.09	3.85
499.438	3.88
499.787	3.91
500.135	3.93
500.484	3.98
500.832	4.05
501.181	4.13
501.529	4.18
501.878	4.25
502.226	4.31
502.574	4.37
502.923	4.46
503.271	4.53
503.619	4.6
503.967	4.65
504.315	4.73
504.663	4.8
505.011	4.88
505.359	4.92
505.707	5
506.055	5.08
506.403	5.17
506.751	5.24
507.098	5.34
507.446	5.44
507.794	5.53
508.141	5.63
508.489	5.7
508.837	5.78
509.184	5.87
509.531	5.97
509.879	6.05
510.226	6.12
510.574	6.21
510.921	6.32
511.268	6.45
511.616	6.57
511.963	6.69
512.31	6.82
512.657	6.95
513.004	7.05
513.351	7.18
513.698	7.3
514.045	7.48
514.392	7.66
514.739	7.84
515.086	8
515.432	8.12
515.779	8.3
516.126	8.46
516.473	8.61
516.819	8.74
517.166	8.89
517.512	9.05
517.859	9.19
518.205	9.33
518.552	9.45
518.898	9.57
519.245	9.72
519.591	9.86
519.937	10.01
520.283	10.19
520.629	10.34
520.976	10.54
521.322	10.69
521.668	10.84
522.014	11
522.36	11.18
522.706	11.39
523.052	11.57
523.398	11.77
523.743	12.01
524.089	12.25
524.435	12.48
524.781	12.7
525.126	12.9
525.472	13.08
525.817	13.24
526.163	13.41
526.509	13.57
526.854	13.7
527.199	13.83
527.545	13.97
527.89	14.1
528.235	14.22
528.581	14.37
528.926	14.51
529.271	14.66
529.616	14.78
529.961	14.93
530.306	15.09
530.651	15.25
530.996	15.4
531.341	15.57
531.686	15.73
532.031	15.88
532.376	16.06
532.721	16.24
533.065	16.44
533.41	16.65
533.755	16.85
534.099	17.07
534.444	17.29
534.788	17.5
535.133	17.71
535.477	17.95
535.822	18.19
536.166	18.42
536.51	18.66
536.855	18.96
537.199	19.26
537.543	19.55
537.887	19.83
538.231	20.1
538.576	20.4
538.92	20.7
539.264	20.97
539.608	21.25
539.951	21.49
540.295	21.73
540.639	21.96
540.983	22.16
541.327	22.36
541.671	22.58
542.014	22.77
542.358	22.98
542.701	23.18
543.045	23.36
543.389	23.59
543.732	23.83
544.075	24.04
544.419	24.25
544.762	24.44
545.105	24.71
545.449	24.98
545.792	25.24
546.135	25.5
546.478	25.8
546.821	26.09
547.165	26.4
547.508	26.68
547.851	26.94
548.194	27.24
548.536	27.56
548.879	27.85
549.222	28.17
549.565	28.47
549.908	28.76
550.25	29.06
550.593	29.35
550.936	29.6
551.278	29.9
551.621	30.15
551.963	30.53
552.306	30.78
552.648	31.05
552.991	31.29
553.333	31.58
553.675	31.83
554.017	32.08
554.36	32.31
554.702	32.53
555.044	32.79
555.386	33.03
555.728	33.25
556.07	33.52
556.412	33.76
556.754	33.98
557.096	34.21
557.438	34.44
557.78	34.68
558.121	34.98
558.463	35.18
558.805	35.49
559.147	35.66
559.488	35.88
559.83	36.08
560.171	36.32
560.513	36.53
560.854	36.76
561.196	37.03
561.537	37.19
561.878	37.48
562.22	37.68
562.561	37.87
562.902	38.09
563.243	38.28
563.584	38.44
563.925	38.65
564.266	38.85
564.607	39.01
564.948	39.2
565.289	39.33
565.63	39.55
565.971	39.69
566.312	39.82
566.653	39.97
566.993	40.11
567.334	40.27
567.675	40.4
568.015	40.54
568.356	40.61
568.696	40.78
569.037	40.85
569.377	40.99
569.718	41.15
570.058	41.3
570.398	41.36
570.739	41.52
571.079	41.64
571.419	41.8
571.759	41.98
572.099	42.06
572.439	42.18
572.779	42.26
573.119	42.38
573.459	42.54
573.799	42.66
574.139	42.79
574.479	42.85
574.819	43.02
575.158	43.11
575.498	43.24
575.838	43.37
576.177	43.5
576.517	43.64
576.856	43.72
577.196	43.85
577.535	44
577.875	44.14
578.214	44.27
578.553	44.39
578.893	44.47
579.232	44.65
579.571	44.78
579.91	44.91
580.25	45.05
580.589	45.18
580.928	45.3
581.267	45.42
581.606	45.62
581.945	45.66
582.283	45.73
582.622	45.83
582.961	45.94
583.3	46.08
583.639	46.24
583.977	46.36
584.316	46.44
584.654	46.57
584.993	46.59
585.332	46.74
585.67	46.73
586.008	46.8
586.347	46.85
586.685	46.83
587.024	46.97
587.362	47.02
587.7	47.13
588.038	47.22
588.376	47.28
588.715	47.29
589.053	47.39
589.391	47.51
589.729	47.63
590.067	47.72
590.404	47.77
590.742	47.82
591.08	47.91
591.418	48.06
591.756	48.11
592.093	48.2
592.431	48.28
592.769	48.46
593.106	48.51
593.444	48.57
593.781	48.69
594.119	48.72
594.456	48.73
594.793	48.68
595.131	48.74
595.468	48.78
595.805	48.86
596.143	48.87
596.48	48.99
596.817	49
597.154	49.06
597.491	49.12
597.828	49.2
598.165	49.24
598.502	49.22
598.839	49.25
599.176	49.37
599.512	49.39
599.849	49.32
600.186	49.41
600.523	49.46
600.859	49.56
601.196	49.59
601.532	49.73
601.869	49.85
602.205	49.91
602.542	49.97
602.878	49.98
603.215	50.02
603.551	50.02
603.887	50.11
604.223	50.09
604.56	50.06
604.896	50.04
605.232	50.05
605.568	50.13
605.904	50.22
606.24	50.25
606.576	50.29
606.912	50.42
607.248	50.52
607.583	50.54
607.919	50.57
608.255	50.66
608.591	50.63
608.926	50.67
609.262	50.68
609.597	50.77
609.933	50.86
610.268	50.94
610.604	50.93
610.939	50.97
611.275	51.1
611.61	51.22
611.945	51.32
612.281	51.45
612.616	51.54
612.951	51.6
613.286	51.61
613.621	51.75
613.956	51.89
614.291	51.89
614.626	52
614.961	52.09
615.296	52.11
615.631	52.23
615.966	52.29
616.3	52.39
616.635	52.46
616.97	52.53
617.304	52.61
617.639	52.65
617.973	52.68
618.308	52.7
618.642	52.65
618.977	52.66
619.311	52.73
619.646	52.72
619.98	52.6
620.314	52.67
620.648	52.57
620.983	52.37
621.317	52.38
621.651	52.45
621.985	52.39
622.319	52.5
622.653	52.55
622.987	52.5
623.321	52.48
623.655	52.39
623.988	52.39
624.322	52.39
624.656	52.46
624.99	52.49
625.323	52.52
625.657	52.58
625.99	52.6
626.324	52.51
626.657	52.43
626.991	52.58
627.324	52.56
627.658	52.68
627.991	52.78
628.324	52.78
628.657	52.78
628.991	52.87
629.324	52.84
629.657	52.75
629.99	52.77
630.323	52.82
630.656	52.87
630.989	52.86
631.322	52.93
631.655	53.02
631.987	52.99
632.32	52.98
632.653	52.95
632.986	52.93
633.318	53.04
633.651	53.13
633.984	53.08
634.316	53.12
634.649	53.09
634.981	53.19
635.313	53.2
635.646	53.17
635.978	53.22
636.31	53.25
636.643	53.36
636.975	53.44
637.307	53.44
637.639	53.5
637.971	53.53
638.303	53.51
638.635	53.32
638.967	53.36
639.299	53.34
639.631	53.34
639.963	53.39
640.295	53.32
640.626	53.36
640.958	53.37
641.29	53.46
641.621	53.52
641.953	53.45
642.285	53.56
642.616	53.66
642.948	53.7
643.279	53.71
643.61	53.63
643.942	53.62
644.273	53.73
644.604	53.61
644.936	53.6
645.267	53.56
645.598	53.68
645.929	53.65
646.26	53.78
646.591	53.83
646.922	53.84
647.253	53.89
647.584	53.94
647.915	53.94
648.245	53.86
648.576	53.89
648.907	53.9
649.238	53.86
649.568	53.68
649.899	53.54
650.229	53.51
650.56	53.62
650.89	53.7
651.221	53.69
651.551	53.92
651.882	53.96
652.212	54.06
652.542	54.13
652.872	54.18
653.203	54.19
653.533	54.23
653.863	54.18
654.193	54.25
654.523	54.27
654.853	54.37
655.183	54.47
655.513	54.44
655.843	54.48
656.172	54.63
656.502	54.84
656.832	54.96
657.162	54.98
657.491	55
657.821	54.97
658.15	54.96
658.48	54.9
658.809	54.93
659.139	54.95
659.468	54.9
659.798	54.96
660.127	54.99
660.456	55.07
660.785	55.12
661.115	55.08
661.444	54.99
661.773	55.05
662.102	55.01
662.431	55.06
662.76	55.09
663.089	55.07
663.418	55.04
663.747	55.1
664.076	55.07
664.404	55
664.733	55.06
665.062	54.99
665.39	54.96
665.719	54.92
666.048	54.92
666.376	54.95
666.705	54.94
667.033	54.88
667.362	54.84
667.69	54.87
668.018	54.87
668.347	55.06
668.675	55.01
669.003	54.98
669.331	54.93
669.659	54.93
669.987	54.88
670.315	54.94
670.643	54.9
670.971	55.07
671.299	55.12
671.627	55.23
671.955	55.19
672.283	55.1
672.61	55.11
672.938	55.02
673.266	54.94
673.593	54.91
673.921	55.04
674.249	55.05
674.576	55.17
674.904	55.13
675.231	55.09
675.558	55.15
675.886	55.24
676.213	55.31
676.54	55.26
676.867	55.21
677.195	55.06
677.522	55.1
677.849	55.12
678.176	55.25
678.503	55.25
678.83	55.49
679.157	55.66
679.484	55.82
679.81	55.95
680.137	56.05
680.464	56.06
680.791	56.08
681.117	56.08
681.444	56.07
681.771	56.12
682.097	56.16
682.424	56.18
682.75	56.15
683.077	56.14
683.403	56.29
683.729	56.27
684.056	56.33
684.382	56.39
684.708	56.35
685.034	56.26
685.36	56.1
685.686	55.94
686.012	55.91
686.339	55.89
686.664	55.77
686.99	55.84
687.316	55.93
687.642	55.85
687.968	55.87
688.294	55.91
688.619	55.97
688.945	55.83
689.271	55.84
689.596	55.98
689.922	55.95
690.247	55.78
690.573	55.88
690.898	55.92
691.224	55.67
691.549	55.78
691.874	55.7
692.2	55.91
692.525	55.94
692.85	55.9
693.175	55.84
693.5	55.92
693.825	55.92
694.15	55.87
694.475	55.81
694.8	55.75
695.125	55.68
695.45	55.77
695.775	55.89
696.099	55.81
696.424	55.77
696.749	55.89
697.073	55.94
697.398	56.04
697.723	56.06
698.047	56.2
698.372	56.1
698.696	56.09
699.02	56.09
699.345	56.11
699.669	56.07
699.993	56.1
700.318	56.06
700.642	56.02
700.966	56
701.29	55.88
701.614	55.91
701.938	55.96
702.262	55.99
702.586	56.13
702.91	56.15
703.234	56.12
703.557	55.97
703.881	56.01
704.205	55.95
704.529	55.95
704.852	55.88
705.176	55.96
705.499	56.2
705.823	56.1
706.146	56.21
706.47	56.37
706.793	56.26
707.117	56.18
707.44	56.08
707.763	56.11
708.086	56.26
708.409	56.36
708.733	56.18
709.056	56.05
709.379	55.88
709.702	55.89
710.025	55.96
710.348	55.81
710.671	55.87
710.993	55.85
711.316	55.89
711.639	55.88
711.962	55.73
712.284	55.71
712.607	55.67
712.93	55.58
713.252	55.63
713.575	55.7
713.897	55.77
714.22	55.95
714.542	56.05
714.864	56.15
715.187	56.04
715.509	56.18
715.831	56.18
716.153	56.23
716.475	56.18
716.798	56.04
717.12	56.26
717.442	56.26
717.764	56.37
718.085	56.38
718.407	56.38
718.729	56.33
719.051	56.26
719.373	56.31
719.695	56.26
720.016	56.19
720.338	56.37
720.659	56.28
720.981	56.27
721.302	56.35
721.624	56.25
721.945	56.52
722.267	56.41
722.588	56.45
722.909	56.27
723.231	56.11
723.552	56.27
723.873	56.21
724.194	56.14
724.515	56.16
724.836	56.26
725.157	56.64
725.478	56.88
725.799	56.85
726.12	56.83
726.441	57.09
726.762	57.02
727.083	56.81
727.403	56.95
727.724	56.98
728.045	56.88
728.365	57.15
728.686	56.93
729.006	56.93
729.327	56.9
729.647	57.03
729.967	57.35
730.288	57.34
730.608	57.36
730.928	57.52
731.249	57.54
731.569	57.44
731.889	56.86
732.209	57.01
732.529	57.09
732.849	57.12
733.169	57.02
733.489	57.17
733.809	57.24
734.129	57.25
734.448	57.29
734.768	57.09
735.088	56.84
735.408	56.85
735.727	56.99
736.047	57.13
736.366	57.03
736.686	56.95
737.005	56.93
737.325	56.82
737.644	56.7
737.963	56.45
738.283	56.33
738.602	56.91
738.921	56.79
739.24	56.75
739.56	56.83
739.879	56.26
740.198	56.03
740.517	55.98
740.836	55.98
741.155	56.07
741.473	56.14
741.792	56.33
742.111	56.39
742.43	56.54
742.748	56.5
743.067	56.66
743.386	56.73
743.704	56.92
744.023	57.29
744.341	57.09
744.66	57.45
744.978	57.48
745.297	57.5
745.615	57.35
745.933	57.18
746.252	57.16
746.57	57.73
746.888	57.82
747.206	57.88
747.524	57.89
747.842	57.64
748.16	57.93
748.478	57.86
748.796	57.91
749.114	57.7
749.432	57.69
749.749	57.52
750.067	57.29
750.385	57.18
750.703	56.94
751.02	57.04
751.338	56.77
751.655	56.54
751.973	56.59
752.29	56.63
752.608	56.84
752.925	57.02
753.242	57.09
753.56	57.19
753.877	56.81
754.194	56.96
754.511	57.05
754.828	57.23
755.145	57.15
755.462	57.35
755.779	57.51
756.096	57.37
756.413	57.59
756.73	57.67
757.047	57.65
757.364	57.75
757.68	57.74
757.997	57.96
758.314	58.47
758.63	58.38
758.947	58.59
759.264	58.64
759.58	58.66
759.896	58.51
760.213	58.37
760.529	58.49
760.846	58.57
761.162	58.61
761.478	58.29
761.794	58.28
762.11	58.09
762.426	58.09
762.743	58.37
763.059	58.6
763.375	58.84
763.69	58.76
764.006	58.79
764.322	58.91
764.638	58.89
764.954	58.81
765.27	58.73
765.585	58.46
765.901	58.36
766.216	58.1
766.532	58.37
766.848	58.38
767.163	58.61
767.478	58.39
767.794	58.2
768.109	58.43
768.424	58.39
768.74	58.57
769.055	58.73
769.37	58.4
769.685	57.88
770	57.64
770.315	57.8
770.63	57.8
770.945	57.76
771.26	57.35
771.575	57.38
771.89	57.1
772.205	57.21
772.52	57.2
772.834	57.14
773.149	56.88
773.464	56.91
773.778	57.02
774.093	57.76
774.407	58.08
774.722	57.79
775.036	58.14
775.351	58.05
775.665	58.06
775.979	58.08
776.293	58.53
776.608	58.65
776.922	58.49
777.236	58.29
777.55	58.27
777.864	58.66
778.178	58.44
778.492	59
778.806	58.8
779.12	58.88
779.434	58.88
779.747	59.18
780.061	59.71
780.375	59.4
780.689	58.82
781.002	59.09
781.316	59.07
781.629	58.92
781.943	58.74
782.256	58.26
782.57	58.57
782.883	58.4
783.196	58
783.51	57.82
783.823	57.91
784.136	57.38
784.449	57.34
784.762	57.79
785.075	57.66
785.388	57.92
785.701	58.05
786.014	58.49
786.327	58.85
786.64	58.29
786.953	58.19
787.266	57.84
787.578	57.19
787.891	57.31
788.204	56.96
788.516	56.85
788.829	56.85
789.141	57.07
789.454	57.09
789.766	57.03
790.079	56.82
790.391	56.81
790.703	57.29
791.016	57.54
791.328	57.42
791.64	57.86
791.952	57.89
792.264	57.85
792.576	57.5
792.888	56.94
793.2	57.41
793.512	57.56
793.824	58.06
794.136	57.96
794.448	58.51
794.76	58.72
795.071	58.6
795.383	58.92
795.695	58.46
796.006	58.22
796.318	58.55
796.629	58.77
796.941	58.48
797.252	58.42
797.564	58.31
797.875	58.2
798.186	57.29
798.497	56.94
798.809	56.49
799.12	56.67
799.431	56.47
799.742	56.28
800.053	56.99
800.364	56.85
800.675	57.62
800.986	57.33
801.297	57.64
801.608	58.35
801.918	58.07
802.229	58.34
802.54	58.84
802.851	58.97
803.161	59.03
803.472	58.95
803.782	59.11
804.093	58.99
804.403	59.61
804.714	59.52
805.024	59.72
805.334	59.99
805.645	59.51
805.955	59.55
806.265	59.39
806.575	58.34
806.885	58.5
807.195	58.34
807.505	58.36
807.815	58.37
808.125	57.55
808.435	57.99
808.745	57.62
809.055	57.33
809.365	57.27
809.674	57.66
809.984	57.99
810.294	57.72
810.603	57.51
810.913	56.53
811.222	57.45
811.532	58.23
811.841	58.86
812.151	59.32
812.46	59.02
812.769	59.22
813.079	58.97
813.388	58.82
813.697	58.4
814.006	57.77
814.315	57.22
814.624	58.4
814.933	57.63
815.242	57.93
815.551	57.66
815.86	57.93
816.169	57.71
816.478	58.49
816.786	58.48
817.095	58.61
817.404	58.91
817.712	59.01
818.021	58.76
818.33	57.66
818.638	57.49
818.947	57.92
819.255	58.37
819.563	59.13
819.872	58.85
820.18	59.62
820.488	59.44
820.796	59.63
821.105	59.81
821.413	59.91
821.721	59.81
822.029	59.83
822.337	59.68
822.645	59.81
822.953	59.61
823.26	59.42
823.568	59.41
823.876	59.36
824.184	59.3
824.491	59.16
824.799	59.47
825.107	59.55
825.414	59.54
825.722	59.4
826.029	59.41
826.337	59.56
826.644	59.36
826.951	59.48
827.259	59.42
827.566	59.04
827.873	58.87
828.18	58.72
828.488	58.96
828.795	59
829.102	58.79
829.409	58.55
829.716	59.09
830.023	59.18
830.329	59.6
830.636	59.34
830.943	59.49
831.25	59.36
831.557	59.3
831.863	59
832.17	59.11
832.476	58.68
832.783	58.59
833.089	58.36
833.396	58.37
833.702	58.34
834.009	58.26
834.315	58.63
834.621	59.16
834.928	58.53
835.234	58.23
835.54	58.01
835.846	58.4
836.152	58.05
836.458	58
836.764	57.86
837.07	58.31
837.376	58.67
837.682	58.65
837.988	58.81
838.293	59.32
838.599	58.41
838.905	59
839.211	59.08
839.516	59.47
839.822	59.49
840.127	59.58
840.433	60.33
840.738	60.51
841.044	60.16
841.349	59.81
841.654	60.3
841.959	61.42
842.265	62.27
842.57	63.18
842.875	63.01
843.18	61.82
843.485	61.51
843.79	61.44
844.095	62.29
844.4	62.71
844.705	63.58
845.01	65.36
845.315	63.75
845.619	64.76
845.924	64.27
846.229	64.76
846.533	65.2
846.838	65.24
847.142	65.13
847.447	66.34
847.751	67.86
848.056	68.64
848.36	68.39
848.664	67.11
848.969	65.34
849.273	65.5
849.577	67.82
849.881	67.86
850.185	68.71
850.489	66.67
850.794	64.96
851.097	64.33
851.401	64.08
851.705	65.9
852.009	66.11
852.313	64.77
852.617	64.63
852.92	64.92
853.224	63.17
853.528	64.28
853.831	63.84
854.135	64.26
854.438	63.61
854.742	62.99
855.045	61.41
855.349	60.77
855.652	60.83
855.955	58.8
856.259	59.45
856.562	58.39
856.865	58.11
857.168	59.89
857.471	57.7
857.774	59.52
858.077	59.26
858.38	58.06
858.683	59.87
858.986	56.65
859.289	57.44
859.592	61.21
859.894	59.88
860.197	58.6
860.5	56.25
860.802	55.96
861.105	56.12
861.407	56.88
861.71	58.43
862.012	58.65
862.315	58.22
862.617	58.14
862.919	57.99
863.222	58.59
863.524	55.74
863.826	56.46
864.128	55.39
864.43	56.11
864.732	54.35
865.034	54.15
865.336	56.01
865.638	53.71
865.94	50.17
866.242	48.5
866.544	50.87
866.846	53.83
867.147	55.02
867.449	54.61
867.751	56.38
868.052	55.96
868.354	56.53
868.655	59.4
868.957	58.4
869.258	59.69
869.56	60.67
869.861	62.6
870.162	64.13
870.463	64.76
870.765	62.72
871.066	63.42
871.367	62.17
871.668	64.97
871.969	63.89
872.27	65.64
872.571	68.76
872.872	68.12
873.173	66.83
873.473	65.63
873.774	64.25
874.075	63.77
874.376	64.27
874.676	63.97
874.977	61.87
875.277	62.05
875.578	61.22
875.878	60.64
876.179	60.91
876.479	60.12
876.78	59.01
877.08	60.19
877.38	60.33
877.68	61.78
877.981	60.07
878.281	63.95
878.581	62.51
