Data from MVZ_BU163024_Reflection_00007.txt Node
Date: Tue Nov 19 12:11:35 EST 2019
User: vgr7
Spectrometer: USB2G7710
Scans to average: 3
Trigger mode: 4
Integration Time (sec): 2.000000E-2
Electric dark correction enabled: true
Boxcar width: 10
XAxis mode: Wavelengths
Number of Pixels in Spectrum: 2048
>>>>>Begin Spectral Data<<<<<
177.721	-577.66
178.105	-53.51
178.488	-43.99
178.871	-102.15
179.254	69.7
179.636	27.08
180.019	-228.64
180.402	200
180.785	79.05
181.168	132.49
181.55	22.54
181.933	34.12
182.316	33.57
182.698	23.34
183.081	16.11
183.463	29.14
183.846	19.77
184.228	13.64
184.611	22.15
184.993	4.31
185.376	-30.62
185.758	-34.24
186.14	23.98
186.522	62.8
186.904	-8.84
187.287	28.5
187.669	-4.4
188.051	42.92
188.433	36.26
188.815	-4.66
189.197	-43.56
189.579	-41.95
189.961	-25.15
190.342	-14.33
190.724	-3.08
191.106	-53.71
191.488	-82.8
191.869	-50.39
192.251	-102.58
192.633	-221.32
193.014	-174.51
193.396	-94.82
193.777	-165.12
194.159	-132.35
194.54	-154.31
194.922	-118.06
195.303	-176.77
195.684	-1164.37
196.065	556.93
196.447	463.14
196.828	436.57
197.209	228.98
197.59	148.16
197.971	141.52
198.352	134.3
198.733	127.86
199.114	128.99
199.495	82.85
199.876	41.74
200.257	19.62
200.638	14.37
201.018	-26.84
201.399	-1.22
201.78	-32.9
202.16	-75.89
202.541	-65.88
202.922	-114.16
203.302	-121.29
203.683	713.33
204.063	596.97
204.444	897.98
204.824	709.52
205.204	-945.98
205.585	2719.05
205.965	-465.89
206.345	1306.35
206.725	-252.8
207.106	-93.39
207.486	-64.5
207.866	-14.27
208.246	10.67
208.626	-7.04
209.006	7.08
209.386	4.17
209.766	-16.85
210.145	3.46
210.525	13.92
210.905	16.29
211.285	22.46
211.664	20.07
212.044	33.12
212.424	24.89
212.803	24.61
213.183	23.71
213.562	25.81
213.942	31.92
214.321	35.73
214.701	48.35
215.08	48.36
215.459	71.64
215.838	56.1
216.218	52.95
216.597	78.38
216.976	65.54
217.355	59.98
217.734	40.29
218.113	48.09
218.492	45.63
218.871	54.19
219.25	47.96
219.629	58.4
220.008	52.92
220.387	49.87
220.766	41.83
221.144	30.8
221.523	20.18
221.902	12.05
222.28	13.87
222.659	21.84
223.037	22
223.416	21.34
223.794	36.07
224.173	42.63
224.551	37.61
224.929	33.57
225.308	35.53
225.686	38
226.064	37.08
226.442	38.44
226.821	33.1
227.199	31.71
227.577	23.37
227.955	23.59
228.333	23.66
228.711	19.95
229.089	20.4
229.467	21.4
229.845	22.6
230.222	22.15
230.6	15.65
230.978	14.04
231.356	11.28
231.733	10.84
232.111	8.5
232.488	7.59
232.866	11.28
233.243	12.45
233.621	13.47
233.998	11.46
234.376	9.64
234.753	9.65
235.13	9.4
235.508	6.59
235.885	4.28
236.262	3.99
236.639	4.13
237.016	4.95
237.393	6.35
237.77	7.1
238.147	6.22
238.524	6.76
238.901	6.65
239.278	6.26
239.655	5.38
240.032	5.7
240.409	5.14
240.785	4.6
241.162	4.51
241.539	4.88
241.915	5.04
242.292	5.59
242.668	5.44
243.045	5.47
243.421	6.63
243.798	6.92
244.174	6.97
244.551	7.33
244.927	7.09
245.303	6.44
245.679	6.04
246.056	6.38
246.432	6.43
246.808	6.58
247.184	6.78
247.56	6.54
247.936	6.63
248.312	6.84
248.688	6.87
249.064	6.74
249.44	6.48
249.815	6.64
250.191	6.45
250.567	6.29
250.943	6.46
251.318	6.04
251.694	5.8
252.069	5.9
252.445	5.83
252.82	6.01
253.196	6.41
253.571	6.65
253.947	6.08
254.322	6.23
254.697	5.93
255.073	5.85
255.448	6.15
255.823	5.96
256.198	5.41
256.573	5.11
256.948	5.02
257.323	4.92
257.698	4.61
258.073	4.57
258.448	4.65
258.823	4.55
259.198	4.69
259.573	4.8
259.948	4.86
260.322	4.59
260.697	4.68
261.072	4.66
261.446	4.5
261.821	4.4
262.195	4.19
262.57	4.37
262.944	4.21
263.319	4.18
263.693	4.02
264.067	4.09
264.442	4.05
264.816	3.97
265.19	3.95
265.564	4.03
265.938	4.13
266.313	4.14
266.687	4.15
267.061	3.96
267.435	3.94
267.809	3.71
268.183	3.71
268.556	3.4
268.93	3.45
269.304	3.67
269.678	4.02
270.051	4.18
270.425	3.99
270.799	3.7
271.172	3.57
271.546	3.71
271.919	3.91
272.293	4.03
272.666	4.07
273.04	4.22
273.413	4.38
273.787	4.38
274.16	4.46
274.533	4.53
274.906	4.5
275.279	4.45
275.653	4.42
276.026	4.52
276.399	4.72
276.772	4.74
277.145	4.68
277.518	4.43
277.891	4.31
278.263	4.55
278.636	4.86
279.009	5.07
279.382	4.87
279.755	4.89
280.127	4.83
280.5	4.88
280.872	4.86
281.245	4.54
281.617	4.5
281.99	4.34
282.362	4.46
282.735	4.59
283.107	4.6
283.479	4.75
283.852	4.86
284.224	4.86
284.596	4.88
284.968	4.87
285.34	4.84
285.713	5
286.085	4.79
286.457	4.8
286.829	4.71
287.201	4.76
287.572	4.66
287.944	4.84
288.316	4.8
288.688	4.8
289.06	5.03
289.431	5.09
289.803	5.2
290.175	5.01
290.546	4.99
290.918	5.14
291.289	5.1
291.661	5.15
292.032	5.07
292.403	5.05
292.775	5.18
293.146	5.42
293.517	5.37
293.889	5.37
294.26	5.53
294.631	5.52
295.002	5.66
295.373	5.65
295.744	5.67
296.115	5.88
296.486	5.79
296.857	5.68
297.228	5.65
297.599	5.53
297.97	5.79
298.34	5.76
298.711	5.86
299.082	5.84
299.452	5.76
299.823	5.79
300.194	5.87
300.564	5.65
300.935	5.66
301.305	5.7
301.676	5.82
302.046	5.8
302.416	5.94
302.787	5.93
303.157	5.98
303.527	6.11
303.897	6.2
304.267	6.4
304.637	6.59
305.008	6.68
305.378	6.79
305.748	6.63
306.117	6.73
306.487	6.64
306.857	6.7
307.227	6.86
307.597	7.11
307.967	7.07
308.336	7.46
308.706	7.47
309.076	7.73
309.445	7.89
309.815	7.98
310.184	7.94
310.554	7.94
310.923	8.06
311.293	8.11
311.662	8.1
312.031	8.15
312.401	8.18
312.77	8.11
313.139	8.39
313.508	8.5
313.877	8.55
314.246	8.55
314.616	8.81
314.985	8.92
315.353	8.95
315.722	9.18
316.091	9.13
316.46	9.24
316.829	9.21
317.198	9.2
317.567	9.22
317.935	9.47
318.304	9.61
318.672	9.74
319.041	9.82
319.41	9.8
319.778	10
320.147	10.04
320.515	10.23
320.883	10.05
321.252	10.1
321.62	10.2
321.988	10.29
322.357	10.27
322.725	10.34
323.093	10.4
323.461	10.32
323.829	10.3
324.197	10.39
324.565	10.51
324.933	10.49
325.301	10.5
325.669	10.41
326.037	10.69
326.405	10.82
326.772	10.85
327.14	10.9
327.508	10.91
327.875	10.86
328.243	10.91
328.61	11.07
328.978	11.06
329.346	11.11
329.713	11.33
330.08	11.53
330.448	11.53
330.815	11.46
331.182	11.39
331.55	11.57
331.917	11.41
332.284	11.35
332.651	11.41
333.018	11.43
333.385	11.59
333.752	11.5
334.119	11.48
334.486	11.37
334.853	11.34
335.22	11.23
335.587	11.4
335.954	11.32
336.32	11.27
336.687	11.3
337.054	11.42
337.42	11.4
337.787	11.29
338.153	11.43
338.52	11.5
338.886	11.77
339.253	11.72
339.619	11.82
339.986	11.87
340.352	11.97
340.718	12.09
341.084	12.11
341.451	12.26
341.817	12.38
342.183	12.46
342.549	12.5
342.915	12.65
343.281	12.68
343.647	12.89
344.013	13.01
344.379	13.08
344.745	13.12
345.11	13.05
345.476	13.13
345.842	13.02
346.208	13.09
346.573	13.06
346.939	13.1
347.304	13.18
347.67	13.13
348.035	13.21
348.401	13.23
348.766	13.22
349.132	13.13
349.497	12.99
349.862	12.98
350.228	13.08
350.593	13
350.958	13.06
351.323	12.96
351.688	12.97
352.053	13.01
352.418	13.01
352.783	13.17
353.148	13.28
353.513	13.38
353.878	13.31
354.243	13.12
354.608	13.05
354.972	12.98
355.337	13.05
355.702	12.99
356.066	12.97
356.431	12.99
356.795	12.95
357.16	12.97
357.524	12.98
357.889	12.94
358.253	12.98
358.618	12.94
358.982	12.96
359.346	12.96
359.71	12.91
360.075	12.83
360.439	12.76
360.803	12.7
361.167	12.55
361.531	12.58
361.895	12.67
362.259	12.71
362.623	12.74
362.987	12.68
363.351	12.66
363.714	12.66
364.078	12.67
364.442	12.68
364.806	12.68
365.169	12.67
365.533	12.62
365.896	12.59
366.26	12.47
366.623	12.39
366.987	12.35
367.35	12.38
367.714	12.45
368.077	12.45
368.44	12.39
368.803	12.43
369.167	12.32
369.53	12.31
369.893	12.29
370.256	12.17
370.619	12.14
370.982	12.04
371.345	11.94
371.708	11.85
372.071	11.67
372.434	11.57
372.797	11.52
373.159	11.45
373.522	11.4
373.885	11.42
374.247	11.28
374.61	11.22
374.973	11.06
375.335	10.86
375.698	10.76
376.06	10.64
376.423	10.5
376.785	10.51
377.147	10.48
377.51	10.37
377.872	10.36
378.234	10.24
378.596	10.22
378.958	10.2
379.321	10.08
379.683	10.11
380.045	9.96
380.407	9.9
380.769	9.83
381.13	9.72
381.492	9.59
381.854	9.59
382.216	9.46
382.578	9.46
382.939	9.41
383.301	9.35
383.663	9.29
384.024	9.31
384.386	9.22
384.747	9.07
385.109	8.99
385.47	8.92
385.832	8.82
386.193	8.73
386.554	8.59
386.916	8.53
387.277	8.47
387.638	8.48
387.999	8.44
388.36	8.39
388.721	8.31
389.082	8.34
389.443	8.3
389.804	8.29
390.165	8.23
390.526	8.19
390.887	8.08
391.248	7.97
391.609	7.93
391.969	7.83
392.33	7.85
392.691	7.83
393.051	7.75
393.412	7.8
393.772	7.76
394.133	7.69
394.493	7.66
394.854	7.59
395.214	7.5
395.574	7.41
395.935	7.35
396.295	7.33
396.655	7.18
397.015	7.12
397.376	7.02
397.736	6.91
398.096	6.84
398.456	6.79
398.816	6.75
399.176	6.68
399.535	6.62
399.895	6.54
400.255	6.44
400.615	6.38
400.975	6.27
401.334	6.21
401.694	6.2
402.054	6.13
402.413	6.09
402.773	6.11
403.132	6.08
403.492	6.07
403.851	6
404.211	5.99
404.57	5.97
404.929	5.92
405.288	5.93
405.648	5.92
406.007	5.92
406.366	5.89
406.725	5.82
407.084	5.84
407.443	5.8
407.802	5.83
408.161	5.82
408.52	5.8
408.879	5.77
409.238	5.77
409.596	5.78
409.955	5.77
410.314	5.73
410.673	5.68
411.031	5.63
411.39	5.65
411.748	5.66
412.107	5.59
412.465	5.58
412.824	5.54
413.182	5.49
413.54	5.48
413.899	5.49
414.257	5.49
414.615	5.42
414.974	5.42
415.332	5.37
415.69	5.34
416.048	5.31
416.406	5.27
416.764	5.24
417.122	5.2
417.48	5.18
417.838	5.13
418.195	5.1
418.553	5.08
418.911	5.04
419.269	5.02
419.626	5.01
419.984	4.99
420.342	4.97
420.699	4.94
421.057	4.91
421.414	4.88
421.772	4.86
422.129	4.84
422.486	4.81
422.844	4.81
423.201	4.81
423.558	4.79
423.915	4.77
424.273	4.73
424.63	4.7
424.987	4.68
425.344	4.68
425.701	4.66
426.058	4.65
426.415	4.64
426.772	4.59
427.128	4.58
427.485	4.57
427.842	4.54
428.199	4.53
428.555	4.5
428.912	4.46
429.269	4.44
429.625	4.44
429.982	4.41
430.338	4.38
430.695	4.35
431.051	4.35
431.407	4.35
431.764	4.38
432.12	4.39
432.476	4.4
432.832	4.38
433.189	4.38
433.545	4.36
433.901	4.35
434.257	4.36
434.613	4.36
434.969	4.35
435.325	4.34
435.681	4.36
436.036	4.38
436.392	4.4
436.748	4.41
437.104	4.42
437.459	4.43
437.815	4.43
438.171	4.45
438.526	4.44
438.882	4.46
439.237	4.44
439.593	4.44
439.948	4.44
440.304	4.43
440.659	4.44
441.014	4.46
441.369	4.48
441.725	4.48
442.08	4.49
442.435	4.47
442.79	4.48
443.145	4.48
443.5	4.46
443.855	4.44
444.21	4.45
444.565	4.44
444.92	4.42
445.275	4.41
445.629	4.39
445.984	4.37
446.339	4.35
446.693	4.34
447.048	4.33
447.403	4.31
447.757	4.29
448.112	4.27
448.466	4.26
448.82	4.23
449.175	4.21
449.529	4.2
449.883	4.2
450.238	4.18
450.592	4.17
450.946	4.16
451.3	4.14
451.654	4.11
452.008	4.07
452.362	4.05
452.716	4.05
453.07	4.03
453.424	4.04
453.778	4.02
454.132	4
454.486	3.99
454.839	3.99
455.193	3.99
455.547	3.97
455.9	3.97
456.254	3.97
456.607	3.97
456.961	3.95
457.314	3.95
457.668	3.96
458.021	3.96
458.375	3.95
458.728	3.98
459.081	3.98
459.434	3.98
459.787	3.99
460.141	3.99
460.494	4.01
460.847	4.02
461.2	4.02
461.553	4.04
461.906	4.05
462.259	4.03
462.611	4.06
462.964	4.08
463.317	4.08
463.67	4.1
464.022	4.12
464.375	4.12
464.728	4.14
465.08	4.18
465.433	4.18
465.785	4.2
466.138	4.2
466.49	4.25
466.843	4.29
467.195	4.28
467.547	4.28
467.899	4.29
468.252	4.33
468.604	4.37
468.956	4.42
469.308	4.45
469.66	4.5
470.012	4.51
470.364	4.54
470.716	4.59
471.068	4.61
471.42	4.63
471.772	4.67
472.123	4.68
472.475	4.69
472.827	4.72
473.178	4.74
473.53	4.75
473.882	4.76
474.233	4.77
474.585	4.8
474.936	4.82
475.288	4.85
475.639	4.84
475.99	4.84
476.342	4.83
476.693	4.83
477.044	4.81
477.395	4.79
477.746	4.76
478.097	4.74
478.448	4.73
478.8	4.7
479.15	4.7
479.501	4.69
479.852	4.67
480.203	4.65
480.554	4.64
480.905	4.63
481.255	4.62
481.606	4.61
481.957	4.61
482.307	4.6
482.658	4.58
483.009	4.57
483.359	4.56
483.709	4.56
484.06	4.55
484.41	4.55
484.761	4.55
485.111	4.54
485.461	4.53
485.811	4.51
486.162	4.5
486.512	4.49
486.862	4.48
487.212	4.47
487.562	4.46
487.912	4.46
488.262	4.46
488.612	4.46
488.961	4.45
489.311	4.44
489.661	4.43
490.011	4.43
490.36	4.43
490.71	4.44
491.06	4.43
491.409	4.43
491.759	4.43
492.108	4.44
492.458	4.45
492.807	4.48
493.157	4.52
493.506	4.56
493.855	4.59
494.204	4.63
494.554	4.66
494.903	4.7
495.252	4.72
495.601	4.77
495.95	4.82
496.299	4.89
496.648	4.93
496.997	5.03
497.346	5.09
497.695	5.14
498.043	5.2
498.392	5.26
498.741	5.34
499.09	5.43
499.438	5.53
499.787	5.6
500.135	5.69
500.484	5.77
500.832	5.84
501.181	5.94
501.529	6.07
501.878	6.17
502.226	6.26
502.574	6.39
502.923	6.51
503.271	6.59
503.619	6.71
503.967	6.85
504.315	6.97
504.663	7.11
505.011	7.28
505.359	7.43
505.707	7.57
506.055	7.72
506.403	7.87
506.751	8.02
507.098	8.22
507.446	8.39
507.794	8.57
508.141	8.77
508.489	8.93
508.837	9.1
509.184	9.31
509.531	9.52
509.879	9.7
510.226	9.9
510.574	10.1
510.921	10.29
511.268	10.48
511.616	10.71
511.963	10.89
512.31	11.09
512.657	11.32
513.004	11.54
513.351	11.79
513.698	12.04
514.045	12.3
514.392	12.49
514.739	12.73
515.086	13.01
515.432	13.27
515.779	13.53
516.126	13.77
516.473	14
516.819	14.22
517.166	14.44
517.512	14.64
517.859	14.87
518.205	15.07
518.552	15.3
518.898	15.49
519.245	15.71
519.591	15.93
519.937	16.14
520.283	16.35
520.629	16.55
520.976	16.8
521.322	17.07
521.668	17.35
522.014	17.59
522.36	17.83
522.706	18.1
523.052	18.4
523.398	18.69
523.743	19
524.089	19.31
524.435	19.64
524.781	19.94
525.126	20.21
525.472	20.48
525.817	20.7
526.163	20.92
526.509	21.11
526.854	21.28
527.199	21.49
527.545	21.71
527.89	21.9
528.235	22.09
528.581	22.28
528.926	22.47
529.271	22.69
529.616	22.89
529.961	23.1
530.306	23.32
530.651	23.53
530.996	23.75
531.341	24
531.686	24.23
532.031	24.49
532.376	24.73
532.721	24.98
533.065	25.25
533.41	25.52
533.755	25.82
534.099	26.14
534.444	26.42
534.788	26.67
535.133	26.93
535.477	27.2
535.822	27.49
536.166	27.82
536.51	28.17
536.855	28.53
537.199	28.86
537.543	29.19
537.887	29.57
538.231	29.99
538.576	30.39
538.92	30.72
539.264	31.06
539.608	31.39
539.951	31.69
540.295	32.04
540.639	32.35
540.983	32.64
541.327	32.89
541.671	33.16
542.014	33.43
542.358	33.72
542.701	33.96
543.045	34.23
543.389	34.48
543.732	34.7
544.075	34.96
544.419	35.24
544.762	35.56
545.105	35.85
545.449	36.1
545.792	36.37
546.135	36.72
546.478	37.06
546.821	37.41
547.165	37.79
547.508	38.07
547.851	38.34
548.194	38.68
548.536	39.08
548.879	39.38
549.222	39.73
549.565	40.08
549.908	40.49
550.25	40.8
550.593	41.17
550.936	41.57
551.278	41.88
551.621	42.22
551.963	42.48
552.306	42.8
552.648	43.12
552.991	43.37
553.333	43.69
553.675	43.96
554.017	44.28
554.36	44.58
554.702	44.85
555.044	45.21
555.386	45.42
555.728	45.65
556.07	45.99
556.412	46.28
556.754	46.61
557.096	46.88
557.438	47.12
557.78	47.35
558.121	47.55
558.463	47.85
558.805	48.11
559.147	48.38
559.488	48.63
559.83	48.92
560.171	49.19
560.513	49.38
560.854	49.61
561.196	49.81
561.537	49.9
561.878	50.19
562.22	50.44
562.561	50.7
562.902	50.89
563.243	51.15
563.584	51.32
563.925	51.47
564.266	51.68
564.607	51.88
564.948	52.06
565.289	52.25
565.63	52.38
565.971	52.53
566.312	52.7
566.653	52.87
566.993	52.97
567.334	53.12
567.675	53.29
568.015	53.52
568.356	53.67
568.696	54
569.037	54.14
569.377	54.22
569.718	54.4
570.058	54.6
570.398	54.67
570.739	54.88
571.079	55.01
571.419	55.14
571.759	55.31
572.099	55.48
572.439	55.63
572.779	55.84
573.119	55.98
573.459	56.19
573.799	56.33
574.139	56.46
574.479	56.63
574.819	56.75
575.158	56.78
575.498	56.94
575.838	56.96
576.177	57.08
576.517	57.22
576.856	57.32
577.196	57.45
577.535	57.53
577.875	57.63
578.214	57.74
578.553	57.83
578.893	57.96
579.232	58
579.571	58.1
579.91	58.19
580.25	58.32
580.589	58.34
580.928	58.46
581.267	58.57
581.606	58.65
581.945	58.71
582.283	58.83
582.622	58.95
582.961	59.05
583.3	59.08
583.639	59.2
583.977	59.22
584.316	59.3
584.654	59.46
584.993	59.5
585.332	59.57
585.67	59.65
586.008	59.61
586.347	59.83
586.685	59.92
587.024	60.03
587.362	60.17
587.7	60.34
588.038	60.42
588.376	60.47
588.715	60.57
589.053	60.69
589.391	60.81
589.729	60.77
590.067	60.97
590.404	61.08
590.742	61.15
591.08	61.23
591.418	61.31
591.756	61.33
592.093	61.43
592.431	61.56
592.769	61.58
593.106	61.76
593.444	61.79
593.781	61.88
594.119	61.9
594.456	61.9
594.793	61.84
595.131	61.93
595.468	62.01
595.805	61.99
596.143	62.06
596.48	62.12
596.817	62.2
597.154	62.16
597.491	62.22
597.828	62.21
598.165	62.28
598.502	62.32
598.839	62.42
599.176	62.4
599.512	62.36
599.849	62.46
600.186	62.43
600.523	62.5
600.859	62.44
601.196	62.48
601.532	62.52
601.869	62.56
602.205	62.56
602.542	62.63
602.878	62.76
603.215	62.7
603.551	62.72
603.887	62.74
604.223	62.67
604.56	62.68
604.896	62.76
605.232	62.84
605.568	62.91
605.904	62.88
606.24	63.05
606.576	63.14
606.912	63.25
607.248	63.32
607.583	63.24
607.919	63.34
608.255	63.43
608.591	63.51
608.926	63.56
609.262	63.59
609.597	63.64
609.933	63.67
610.268	63.79
610.604	63.81
610.939	63.86
611.275	63.98
611.61	64.03
611.945	64.13
612.281	64.18
612.616	64.2
612.951	64.38
613.286	64.29
613.621	64.26
613.956	64.15
614.291	64.19
614.626	64.32
614.961	64.25
615.296	64.18
615.631	64.16
615.966	64.25
616.3	64.31
616.635	64.34
616.97	64.42
617.304	64.48
617.639	64.46
617.973	64.52
618.308	64.65
618.642	64.76
618.977	64.71
619.311	64.67
619.646	64.66
619.98	64.55
620.314	64.61
620.648	64.71
620.983	64.8
621.317	64.75
621.651	64.75
621.985	64.74
622.319	64.84
622.653	64.75
622.987	64.74
623.321	64.78
623.655	64.71
623.988	64.67
624.322	64.62
624.656	64.73
624.99	64.68
625.323	64.67
625.657	64.71
625.99	64.71
626.324	64.73
626.657	64.65
626.991	64.63
627.324	64.59
627.658	64.51
627.991	64.61
628.324	64.61
628.657	64.6
628.991	64.7
629.324	64.65
629.657	64.76
629.99	64.74
630.323	64.61
630.656	64.7
630.989	64.72
631.322	64.74
631.655	64.72
631.987	64.85
632.32	64.94
632.653	64.85
632.986	64.9
633.318	64.84
633.651	64.88
633.984	64.99
634.316	65.01
634.649	65.15
634.981	65.03
635.313	65.2
635.646	65.22
635.978	65.25
636.31	65.32
636.643	65.28
636.975	65.32
637.307	65.51
637.639	65.48
637.971	65.45
638.303	65.48
638.635	65.55
638.967	65.63
639.299	65.43
639.631	65.52
639.963	65.54
640.295	65.67
640.626	65.7
640.958	65.63
641.29	65.77
641.621	65.7
641.953	65.69
642.285	65.59
642.616	65.76
642.948	65.72
643.279	65.67
643.61	65.71
643.942	65.75
644.273	65.73
644.604	65.77
644.936	65.79
645.267	65.64
645.598	65.61
645.929	65.48
646.26	65.58
646.591	65.48
646.922	65.44
647.253	65.47
647.584	65.66
647.915	65.75
648.245	65.76
648.576	65.72
648.907	65.76
649.238	65.9
649.568	65.84
649.899	65.84
650.229	65.95
650.56	66.07
650.89	66.1
651.221	66.04
651.551	66.11
651.882	66.09
652.212	66.28
652.542	66.31
652.872	66.34
653.203	66.39
653.533	66.27
653.863	66.29
654.193	66.17
654.523	66.1
654.853	66.23
655.183	66.29
655.513	66.4
655.843	66.52
656.172	66.42
656.502	66.44
656.832	66.54
657.162	66.56
657.491	66.53
657.821	66.51
658.15	66.54
658.48	66.46
658.809	66.58
659.139	66.51
659.468	66.47
659.798	66.43
660.127	66.63
660.456	66.73
660.785	66.72
661.115	66.7
661.444	66.7
661.773	66.63
662.102	66.55
662.431	66.53
662.76	66.46
663.089	66.5
663.418	66.37
663.747	66.37
664.076	66.29
664.404	66.42
664.733	66.47
665.062	66.52
665.39	66.56
665.719	66.54
666.048	66.58
666.376	66.56
666.705	66.68
667.033	66.51
667.362	66.65
667.69	66.71
668.018	66.94
668.347	66.88
668.675	66.84
669.003	66.96
669.331	67.12
669.659	67.02
669.987	67.07
670.315	67.09
670.643	67.2
670.971	67.29
671.299	67.2
671.627	67.19
671.955	67.14
672.283	67.06
672.61	67.03
672.938	67.02
673.266	67.05
673.593	66.8
673.921	66.64
674.249	66.69
674.576	66.62
674.904	66.63
675.231	66.62
675.558	66.85
675.886	66.72
676.213	66.5
676.54	66.6
676.867	66.62
677.195	66.74
677.522	66.68
677.849	66.54
678.176	66.41
678.503	66.45
678.83	66.58
679.157	66.65
679.484	66.53
679.81	66.7
680.137	66.77
680.464	67.01
680.791	67.12
681.117	67.09
681.444	67.15
681.771	67.19
682.097	67.37
682.424	67.07
682.75	66.94
683.077	67.22
683.403	67.14
683.729	67.05
684.056	66.93
684.382	66.91
684.708	67.04
685.034	67.3
685.36	67.27
685.686	67.25
686.012	67.34
686.339	67.53
686.664	67.33
686.99	67.35
687.316	67.38
687.642	67.37
687.968	67.39
688.294	67.45
688.619	67.34
688.945	67.21
689.271	67.62
689.596	67.73
689.922	67.36
690.247	67.36
690.573	67.41
690.898	67.54
691.224	67.44
691.549	67.53
691.874	67.23
692.2	67.21
692.525	67.08
692.85	67.02
693.175	66.98
693.5	67.14
693.825	67.2
694.15	67.14
694.475	67.22
694.8	67.28
695.125	67.24
695.45	67.43
695.775	67.35
696.099	67.24
696.424	67.3
696.749	67.48
697.073	67.55
697.398	67.69
697.723	67.75
698.047	67.62
698.372	67.7
698.696	67.89
699.02	68.05
699.345	68.1
699.669	68.07
699.993	68.11
700.318	68.1
700.642	67.92
700.966	67.88
701.29	67.74
701.614	67.7
701.938	67.85
702.262	67.6
702.586	67.77
702.91	67.78
703.234	67.66
703.557	67.76
703.881	67.71
704.205	67.57
704.529	67.49
704.852	67.81
705.176	67.65
705.499	67.67
705.823	67.51
706.146	67.45
706.47	67.35
706.793	67.39
707.117	67.21
707.44	67.11
707.763	67.1
708.086	67.42
708.409	67.4
708.733	67.33
709.056	67.47
709.379	67.53
709.702	67.18
710.025	67.33
710.348	67.38
710.671	67.45
710.993	67.56
711.316	67.34
711.639	67.27
711.962	67.36
712.284	67.32
712.607	67.51
712.93	67.63
713.252	67.73
713.575	67.67
713.897	67.64
714.22	67.89
714.542	67.8
714.864	67.62
715.187	67.56
715.509	67.33
715.831	67.38
716.153	67.14
716.475	67.27
716.798	67.37
717.12	67.21
717.442	67.35
717.764	67.46
718.085	67.77
718.407	67.89
718.729	67.91
719.051	67.92
719.373	67.67
719.695	67.59
720.016	67.6
720.338	67.76
720.659	68.08
720.981	68.11
721.302	68.29
721.624	68.08
721.945	68.2
722.267	68.58
722.588	68.53
722.909	68.41
723.231	68.66
723.552	68.81
723.873	68.66
724.194	68.7
724.515	68.56
724.836	68.48
725.157	68.52
725.478	68.31
725.799	68.23
726.12	68.13
726.441	68.07
726.762	68.05
727.083	68.04
727.403	67.91
727.724	67.95
728.045	67.99
728.365	68.35
728.686	68.52
729.006	68.38
729.327	68.21
729.647	68.36
729.967	68.02
730.288	68.01
730.608	68.04
730.928	67.9
731.249	67.87
731.569	68.04
731.889	68.01
732.209	67.98
732.529	67.98
732.849	68.23
733.169	68.17
733.489	68.2
733.809	67.96
734.129	67.96
734.448	67.69
734.768	67.78
735.088	67.99
735.408	67.74
735.727	67.8
736.047	67.77
736.366	67.84
736.686	68.25
737.005	68.06
737.325	68.23
737.644	68.19
737.963	68.2
738.283	67.78
738.602	67.65
738.921	68.07
739.24	68.25
739.56	68.23
739.879	68.61
740.198	68.71
740.517	68.61
740.836	68.87
741.155	69.06
741.473	68.94
741.792	68.57
742.111	68.39
742.43	68.52
742.748	68.68
743.067	68.57
743.386	68.17
743.704	68.4
744.023	68.35
744.341	68.4
744.66	68.46
744.978	68.71
745.297	68.85
745.615	68.56
745.933	68.31
746.252	68.21
746.57	67.66
746.888	67.71
747.206	68.02
747.524	68.18
747.842	68.17
748.16	68.41
748.478	68.34
748.796	68.94
749.114	69.06
749.432	69.15
749.749	69.38
750.067	69.51
750.385	69.62
750.703	69.84
751.02	70.06
751.338	69.99
751.655	69.88
751.973	69.81
752.29	69.46
752.608	69.6
752.925	69.67
753.242	69.94
753.56	69.79
753.877	69.46
754.194	69.05
754.511	69.17
754.828	69.04
755.145	68.66
755.462	68.03
755.779	67.82
756.096	67.99
756.413	68.31
756.73	68.74
757.047	68.05
757.364	68.05
757.68	67.96
757.997	67.94
758.314	68.22
758.63	68.27
758.947	68.61
759.264	68.61
759.58	68.57
759.896	68.86
760.213	68.78
760.529	69.1
760.846	69.1
761.162	69.26
761.478	69.56
761.794	69.62
762.11	69.86
762.426	69.72
762.743	69.62
763.059	69.77
763.375	70.08
763.69	70.46
764.006	70.22
764.322	69.96
764.638	70.1
764.954	70.1
765.27	70.29
765.585	70.26
765.901	70.14
766.216	70.18
766.532	70.14
766.848	70.13
767.163	70.24
767.478	70.28
767.794	70.08
768.109	69.48
768.424	69.61
768.74	69.69
769.055	69.68
769.37	69.88
769.685	69.28
770	68.55
770.315	68.23
770.63	68.4
770.945	68.13
771.26	67.74
771.575	67.59
771.89	67.37
772.205	67.61
772.52	67.48
772.834	67.51
773.149	67.51
773.464	67.78
773.778	67.75
774.093	67.56
774.407	67.31
774.722	67.92
775.036	68.19
775.351	67.92
775.665	67.97
775.979	67.73
776.293	67.14
776.608	67.33
776.922	67.29
777.236	67.69
777.55	68.25
777.864	68.65
778.178	68.32
778.492	67.83
778.806	67.6
779.12	67.61
779.434	67.64
779.747	67.45
780.061	67.33
780.375	66.98
780.689	67.55
781.002	68.03
781.316	68.14
781.629	67.75
781.943	67.94
782.256	68.13
782.57	68.32
782.883	69.21
783.196	69.2
783.51	69.69
783.823	69.19
784.136	69.55
784.449	69.73
784.762	70.05
785.075	70.11
785.388	70.51
785.701	70.19
786.014	69.6
786.327	69.68
786.64	69.98
786.953	70.19
787.266	70.08
787.578	69.67
787.891	69.43
788.204	70.04
788.516	69.87
788.829	70.09
789.141	70.37
789.454	70.09
789.766	70.29
790.079	70.63
790.391	70.8
790.703	70.71
791.016	70.45
791.328	70.24
791.64	70.93
791.952	70.28
792.264	70.99
792.576	71.6
792.888	71.63
793.2	71.59
793.512	70.75
793.824	70.26
794.136	70.94
794.448	70.8
794.76	70.75
795.071	70.68
795.383	70.27
795.695	69.97
796.006	70.02
796.318	70.11
796.629	70.02
796.941	70.25
797.252	69.71
797.564	69.13
797.875	69.46
798.186	68.92
798.497	69.38
798.809	68.85
799.12	68.31
799.431	67.67
799.742	67.35
800.053	67.89
800.364	68.65
800.675	68.57
800.986	68.49
801.297	68.06
801.608	68.16
801.918	68.37
802.229	68.51
802.54	68.94
802.851	68.14
803.161	67.35
803.472	67.32
803.782	68.39
804.093	68.87
804.403	68.99
804.714	69.37
805.024	69.67
805.334	70.18
805.645	70.67
805.955	71.41
806.265	71.83
806.575	71.95
806.885	71.92
807.195	71.59
807.505	72.34
807.815	73.51
808.125	74.26
808.435	73.62
808.745	73.47
809.055	73.39
809.365	73.82
809.674	73.49
809.984	73.51
810.294	73.16
810.603	73.63
810.913	73.33
811.222	72.98
811.532	72.49
811.841	72.3
812.151	72.8
812.46	73.55
812.769	73.23
813.079	74
813.388	73.23
813.697	72.74
814.006	71.73
814.315	70.74
814.624	70.02
814.933	70.78
815.242	70.06
815.551	70.13
815.86	69.95
816.169	70.53
816.478	69.78
816.786	69.66
817.095	69.74
817.404	69.85
817.712	70.46
818.021	70.47
818.33	71.3
818.638	71.3
818.947	70.52
819.255	69.98
819.563	69.93
819.872	69.58
820.18	70.46
820.488	70.94
820.796	71.18
821.105	71.37
821.413	71.32
821.721	71.35
822.029	71.19
822.337	71.34
822.645	71.24
822.953	71.45
823.26	71.34
823.568	71.5
823.876	71.48
824.184	71.5
824.491	71.5
824.799	71.07
825.107	70.89
825.414	71.11
825.722	71.43
826.029	71.6
826.337	72.04
826.644	71.91
826.951	71.85
827.259	71.6
827.566	71.27
827.873	71.17
828.18	71.35
828.488	71.55
828.795	71.4
829.102	71.5
829.409	71.55
829.716	71.74
830.023	71.34
830.329	71.35
830.636	71.14
830.943	70.96
831.25	72.33
831.557	72.7
831.863	72.18
832.17	71.76
832.476	71.14
832.783	71.07
833.089	70.1
833.396	70.24
833.702	70.02
834.009	70.11
834.315	70.56
834.621	70.17
834.928	69.84
835.234	69.93
835.54	70.49
835.846	70.4
836.152	70.63
836.458	70.82
836.764	70.83
837.07	70.9
837.376	70.71
837.682	69.42
837.988	69.18
838.293	69.69
838.599	70.48
838.905	71.11
839.211	70.56
839.516	71.77
839.822	71.85
840.127	72.74
840.433	73.1
840.738	72.23
841.044	73.78
841.349	74.98
841.654	73.68
841.959	73.21
842.265	72.82
842.57	72.01
842.875	71.72
843.18	70.93
843.485	70.87
843.79	72.23
844.095	71.62
844.4	71.26
844.705	70.97
845.01	70.39
845.315	70.88
845.619	71.47
845.924	71.31
846.229	71.01
846.533	70.37
846.838	70.14
847.142	70.5
847.447	70.38
847.751	69.04
848.056	71.73
848.36	71.34
848.664	71.49
848.969	71.2
849.273	70.9
849.577	70.95
849.881	71.28
850.185	69.41
850.489	68.93
850.794	68.26
851.097	68.54
851.401	68.33
851.705	67.26
852.009	66.8
852.313	67.16
852.617	66.15
852.92	67.83
853.224	69.8
853.528	70.99
853.831	69.37
854.135	69.72
854.438	70.88
854.742	71.03
855.045	70.94
855.349	69.98
855.652	69.96
855.955	74.77
856.259	74.93
856.562	78.81
856.865	81.33
857.168	83.08
857.471	83.56
857.774	81.73
858.077	80.29
858.38	79.32
858.683	79.79
858.986	78.14
859.289	75.74
859.592	73.19
859.894	71.02
860.197	71.8
860.5	72.09
860.802	71.69
861.105	69.7
861.407	71.36
861.71	73.95
862.012	73.87
862.315	71.12
862.617	72.4
862.919	71.18
863.222	71.38
863.524	69.99
863.826	67.48
864.128	69.5
864.43	69.94
864.732	70.42
865.034	68.86
865.336	73.37
865.638	77.85
865.94	80.97
866.242	83.11
866.544	83
866.846	83.28
867.147	82.46
867.449	84.56
867.751	81.9
868.052	80.36
868.354	81.86
868.655	85.04
868.957	81.7
869.258	78.89
869.56	78.84
869.861	81.63
870.162	84.96
870.463	83.54
870.765	81.61
871.066	80.7
871.367	80.51
871.668	74.9
871.969	71.66
872.27	69.87
872.571	68.65
872.872	68.27
873.173	66.79
873.473	66.64
873.774	68.46
874.075	70.37
874.376	69.73
874.676	70.77
874.977	68.78
875.277	70.68
875.578	72.47
875.878	72.43
876.179	71.37
876.479	69.57
876.78	70.67
877.08	72.44
877.38	75.1
877.68	76.67
877.981	80.72
878.281	83.87
878.581	85.15
