Data from MVZ_BU28167_Reflection_00008.txt Node
Date: Tue Nov 19 12:17:33 EST 2019
User: vgr7
Spectrometer: USB2G7710
Scans to average: 3
Trigger mode: 4
Integration Time (sec): 2.000000E-2
Electric dark correction enabled: true
Boxcar width: 10
XAxis mode: Wavelengths
Number of Pixels in Spectrum: 2048
>>>>>Begin Spectral Data<<<<<
177.721	165.32
178.105	-38.89
178.488	-81.24
178.871	-80.21
179.254	-105.56
179.636	39.39
180.019	-147.72
180.402	105
180.785	-18.33
181.168	-0.38
181.55	-7.43
181.933	3.9
182.316	36.9
182.698	27.59
183.081	26.65
183.463	9.76
183.846	48.41
184.228	55.05
184.611	57.44
184.993	37.07
185.376	30.73
185.758	46.06
186.14	47.81
186.522	55.05
186.904	67.75
187.287	47.3
187.669	36.34
188.051	65.99
188.433	49.04
188.815	45.28
189.197	45.37
189.579	52.12
189.961	56.68
190.342	40.71
190.724	82.09
191.106	74.1
191.488	87.09
191.869	-86.51
192.251	330.39
192.633	-764.58
193.014	-1358.33
193.396	-38.02
193.777	-3358.33
194.159	-1504.17
194.54	142.93
194.922	183.33
195.303	147.22
195.684	-35.42
196.065	801.39
196.447	701.19
196.828	379.76
197.209	121.83
197.59	86.74
197.971	95.37
198.352	31.29
198.733	8.26
199.114	3.55
199.495	22.39
199.876	106.63
200.257	125.33
200.638	257.99
201.018	191.53
201.399	1897.62
201.78	1447.22
202.16	-302.38
202.541	-465.97
202.922	1863.89
203.302	-108.33
203.683	-38.89
204.063	-44.67
204.444	-5.43
204.824	-0.56
205.204	21.03
205.585	32.33
205.965	54.28
206.345	54.33
206.725	49.79
207.106	47.8
207.486	53.81
207.866	90.63
208.246	83.64
208.626	99.4
209.006	79.58
209.386	219.95
209.766	153.7
210.145	85.16
210.525	29.49
210.905	17.52
211.285	34.83
211.664	48.81
212.044	-86.21
212.424	-183.82
212.803	-119.49
213.183	-224.36
213.562	-247.44
213.942	-262.27
214.321	-380.9
214.701	-281.84
215.08	-401.41
215.459	-260.33
215.838	-382.7
216.218	-639.04
216.597	-152.8
216.976	-130.19
217.355	-70.53
217.734	-66.21
218.113	-26.79
218.492	-11.95
218.871	-3.65
219.25	12.31
219.629	14.57
220.008	41.85
220.387	47.7
220.766	76.43
221.144	44.58
221.523	40.48
221.902	56.64
222.28	45.83
222.659	65.15
223.037	78.47
223.416	70.51
223.794	60.82
224.173	66.52
224.551	63.56
224.929	66.13
225.308	63.68
225.686	42.49
226.064	22.27
226.442	16.79
226.821	12.15
227.199	6.34
227.577	0.13
227.955	3.62
228.333	7.4
228.711	3.25
229.089	8.58
229.467	6.65
229.845	4.07
230.222	8.15
230.6	4.72
230.978	3.71
231.356	2.12
231.733	1.58
232.111	1.54
232.488	-0.56
232.866	-1.12
233.243	-3.92
233.621	-1.91
233.998	1.86
234.376	3.48
234.753	3.26
235.13	2.02
235.508	4.3
235.885	4.68
236.262	1.39
236.639	2.69
237.016	0.83
237.393	3.19
237.77	2.06
238.147	1.66
238.524	2.14
238.901	1.28
239.278	1.39
239.655	2.19
240.032	2.18
240.409	2.22
240.785	2.05
241.162	2.6
241.539	2.72
241.915	2.82
242.292	2.99
242.668	3.5
243.045	3.92
243.421	3.87
243.798	4.26
244.174	4.36
244.551	4.02
244.927	4.05
245.303	3.82
245.679	4.27
246.056	3.75
246.432	3.87
246.808	4.16
247.184	4.31
247.56	4.09
247.936	4.37
248.312	4.42
248.688	4.67
249.064	4.68
249.44	4.69
249.815	4.7
250.191	4.61
250.567	4.39
250.943	4.48
251.318	4.31
251.694	4.22
252.069	4.33
252.445	4.58
252.82	4.79
253.196	4.75
253.571	4.57
253.947	5.19
254.322	4.82
254.697	4.47
255.073	4.07
255.448	4.04
255.823	3.64
256.198	3.66
256.573	3.28
256.948	3.21
257.323	3.09
257.698	3.04
258.073	3.02
258.448	3.09
258.823	2.92
259.198	3.15
259.573	2.95
259.948	3.08
260.322	3.07
260.697	3.07
261.072	3.21
261.446	3.1
261.821	2.96
262.195	2.93
262.57	2.99
262.944	3.17
263.319	3.27
263.693	3.41
264.067	3.53
264.442	3.57
264.816	3.58
265.19	3.69
265.564	3.71
265.938	3.61
266.313	3.5
266.687	3.52
267.061	3.44
267.435	3.71
267.809	3.6
268.183	3.52
268.556	3.37
268.93	3.17
269.304	3.11
269.678	3.13
270.051	3.08
270.425	3.29
270.799	3.13
271.172	3.09
271.546	3.15
271.919	3.03
272.293	3.21
272.666	3.34
273.04	3.38
273.413	3.3
273.787	3.36
274.16	3.5
274.533	3.74
274.906	3.65
275.279	3.42
275.653	3.41
276.026	3.51
276.399	3.45
276.772	3.5
277.145	3.69
277.518	3.53
277.891	3.71
278.263	3.75
278.636	4.02
279.009	3.95
279.382	3.87
279.755	3.95
280.127	3.82
280.5	3.5
280.872	3.51
281.245	3.4
281.617	3.43
281.99	3.45
282.362	3.25
282.735	3.29
283.107	3.27
283.479	3.35
283.852	3.43
284.224	3.55
284.596	3.54
284.968	3.46
285.34	3.58
285.713	3.57
286.085	3.38
286.457	3.24
286.829	3.14
287.201	3.18
287.572	3.18
287.944	3.33
288.316	3.55
288.688	3.58
289.06	3.82
289.431	3.91
289.803	3.93
290.175	3.92
290.546	3.9
290.918	4.1
291.289	4.04
291.661	3.95
292.032	3.97
292.403	4.08
292.775	4.22
293.146	4.26
293.517	4.31
293.889	4.4
294.26	4.49
294.631	4.74
295.002	4.75
295.373	4.77
295.744	4.81
296.115	4.9
296.486	4.85
296.857	4.78
297.228	4.58
297.599	4.53
297.97	4.7
298.34	4.84
298.711	4.76
299.082	4.82
299.452	4.8
299.823	4.76
300.194	4.76
300.564	4.59
300.935	4.74
301.305	4.67
301.676	4.75
302.046	4.7
302.416	4.74
302.787	4.91
303.157	5.02
303.527	4.99
303.897	4.96
304.267	5.07
304.637	5.21
305.008	5.51
305.378	5.61
305.748	5.52
306.117	5.49
306.487	5.67
306.857	5.77
307.227	5.99
307.597	6.13
307.967	6.28
308.336	6.4
308.706	6.45
309.076	6.7
309.445	6.85
309.815	7.02
310.184	7.06
310.554	6.94
310.923	6.99
311.293	6.92
311.662	6.88
312.031	6.92
312.401	7.02
312.77	7.02
313.139	7.24
313.508	7.41
313.877	7.55
314.246	7.53
314.616	7.66
314.985	7.64
315.353	7.72
315.722	7.75
316.091	7.97
316.46	8.06
316.829	8.14
317.198	8.02
317.567	8.12
317.935	8.26
318.304	8.56
318.672	8.57
319.041	8.65
319.41	8.86
319.778	8.95
320.147	8.87
320.515	9.02
320.883	9
321.252	9.17
321.62	9.19
321.988	9.42
322.357	9.31
322.725	9.46
323.093	9.48
323.461	9.53
323.829	9.68
324.197	9.72
324.565	9.68
324.933	9.82
325.301	9.8
325.669	9.72
326.037	9.7
326.405	9.69
326.772	9.81
327.14	9.93
327.508	10.15
327.875	10.36
328.243	10.46
328.61	10.55
328.978	10.44
329.346	10.49
329.713	10.53
330.08	10.75
330.448	10.77
330.815	10.88
331.182	11.01
331.55	10.97
331.917	10.84
332.284	10.95
332.651	10.87
333.018	10.91
333.385	11.07
333.752	11.03
334.119	11.1
334.486	11.13
334.853	11.09
335.22	11.02
335.587	10.94
335.954	10.82
336.32	10.92
336.687	11.07
337.054	11.08
337.42	11.13
337.787	11.08
338.153	11.11
338.52	11.25
338.886	11.08
339.253	11.03
339.619	11.23
339.986	11.25
340.352	11.25
340.718	11.37
341.084	11.25
341.451	11.36
341.817	11.41
342.183	11.41
342.549	11.45
342.915	11.37
343.281	11.47
343.647	11.51
344.013	11.33
344.379	11.22
344.745	11.25
345.11	11.04
345.476	11.07
345.842	11.01
346.208	10.96
346.573	11.2
346.939	11.18
347.304	11.17
347.67	11.16
348.035	11.19
348.401	11.14
348.766	11.18
349.132	11.16
349.497	11.24
349.862	11.36
350.228	11.39
350.593	11.49
350.958	11.53
351.323	11.47
351.688	11.52
352.053	11.51
352.418	11.56
352.783	11.77
353.148	11.81
353.513	11.92
353.878	11.91
354.243	11.81
354.608	11.95
354.972	11.89
355.337	11.88
355.702	11.88
356.066	11.84
356.431	11.87
356.795	11.86
357.16	11.74
357.524	11.66
357.889	11.63
358.253	11.58
358.618	11.48
358.982	11.6
359.346	11.64
359.71	11.64
360.075	11.69
360.439	11.62
360.803	11.58
361.167	11.45
361.531	11.36
361.895	11.34
362.259	11.23
362.623	11.18
362.987	11.13
363.351	11.17
363.714	11.19
364.078	11.18
364.442	11.11
364.806	11.16
365.169	11.18
365.533	11.15
365.896	11.19
366.26	11.15
366.623	11.02
366.987	11.04
367.35	11.05
367.714	10.99
368.077	11
368.44	11.04
368.803	11.03
369.167	11.04
369.53	10.95
369.893	10.9
370.256	10.91
370.619	10.84
370.982	10.71
371.345	10.59
371.708	10.51
372.071	10.41
372.434	10.23
372.797	10.14
373.159	10.11
373.522	9.96
373.885	9.92
374.247	9.94
374.61	9.83
374.973	9.71
375.335	9.61
375.698	9.5
376.06	9.37
376.423	9.33
376.785	9.27
377.147	9.25
377.51	9.22
377.872	9.16
378.234	9.12
378.596	9.06
378.958	9.04
379.321	8.94
379.683	8.95
380.045	8.99
380.407	8.88
380.769	8.79
381.13	8.72
381.492	8.64
381.854	8.58
382.216	8.54
382.578	8.49
382.939	8.42
383.301	8.42
383.663	8.3
384.024	8.2
384.386	8.14
384.747	8.05
385.109	7.99
385.47	7.99
385.832	7.91
386.193	7.9
386.554	7.84
386.916	7.84
387.277	7.69
387.638	7.63
387.999	7.57
388.36	7.53
388.721	7.5
389.082	7.44
389.443	7.41
389.804	7.28
390.165	7.26
390.526	7.24
390.887	7.21
391.248	7.18
391.609	7.18
391.969	7.17
392.33	7.11
392.691	7.06
393.051	6.96
393.412	6.96
393.772	6.92
394.133	6.85
394.493	6.79
394.854	6.8
395.214	6.76
395.574	6.75
395.935	6.66
396.295	6.6
396.655	6.57
397.015	6.47
397.376	6.45
397.736	6.37
398.096	6.28
398.456	6.2
398.816	6.18
399.176	6.11
399.535	6
399.895	6.02
400.255	5.96
400.615	5.9
400.975	5.84
401.334	5.83
401.694	5.79
402.054	5.74
402.413	5.73
402.773	5.69
403.132	5.62
403.492	5.59
403.851	5.57
404.211	5.52
404.57	5.49
404.929	5.42
405.288	5.41
405.648	5.41
406.007	5.38
406.366	5.38
406.725	5.37
407.084	5.36
407.443	5.34
407.802	5.31
408.161	5.32
408.52	5.32
408.879	5.28
409.238	5.28
409.596	5.24
409.955	5.22
410.314	5.18
410.673	5.19
411.031	5.18
411.39	5.19
411.748	5.21
412.107	5.22
412.465	5.23
412.824	5.23
413.182	5.21
413.54	5.16
413.899	5.13
414.257	5.13
414.615	5.08
414.974	5.05
415.332	5.07
415.69	5.03
416.048	4.99
416.406	4.94
416.764	4.91
417.122	4.88
417.48	4.85
417.838	4.81
418.195	4.79
418.553	4.77
418.911	4.73
419.269	4.68
419.626	4.63
419.984	4.62
420.342	4.6
420.699	4.56
421.057	4.54
421.414	4.52
421.772	4.48
422.129	4.46
422.486	4.44
422.844	4.41
423.201	4.38
423.558	4.37
423.915	4.37
424.273	4.35
424.63	4.35
424.987	4.35
425.344	4.34
425.701	4.32
426.058	4.3
426.415	4.28
426.772	4.27
427.128	4.29
427.485	4.25
427.842	4.23
428.199	4.22
428.555	4.19
428.912	4.17
429.269	4.18
429.625	4.18
429.982	4.18
430.338	4.18
430.695	4.18
431.051	4.16
431.407	4.15
431.764	4.13
432.12	4.12
432.476	4.09
432.832	4.09
433.189	4.09
433.545	4.07
433.901	4.08
434.257	4.12
434.613	4.08
434.969	4.11
435.325	4.12
435.681	4.14
436.036	4.16
436.392	4.16
436.748	4.18
437.104	4.17
437.459	4.15
437.815	4.16
438.171	4.16
438.526	4.17
438.882	4.18
439.237	4.19
439.593	4.19
439.948	4.21
440.304	4.19
440.659	4.18
441.014	4.2
441.369	4.19
441.725	4.18
442.08	4.18
442.435	4.16
442.79	4.15
443.145	4.15
443.5	4.15
443.855	4.14
444.21	4.11
444.565	4.1
444.92	4.12
445.275	4.1
445.629	4.09
445.984	4.1
446.339	4.08
446.693	4.07
447.048	4.04
447.403	4.01
447.757	4
448.112	4.02
448.466	4.01
448.82	3.99
449.175	3.99
449.529	3.99
449.883	3.98
450.238	3.97
450.592	3.92
450.946	3.93
451.3	3.91
451.654	3.9
452.008	3.91
452.362	3.88
452.716	3.87
453.07	3.86
453.424	3.84
453.778	3.83
454.132	3.82
454.486	3.83
454.839	3.85
455.193	3.86
455.547	3.84
455.9	3.83
456.254	3.85
456.607	3.84
456.961	3.84
457.314	3.86
457.668	3.85
458.021	3.87
458.375	3.86
458.728	3.86
459.081	3.89
459.434	3.86
459.787	3.89
460.141	3.89
460.494	3.91
460.847	3.91
461.2	3.91
461.553	3.93
461.906	3.95
462.259	3.96
462.611	3.97
462.964	3.98
463.317	4
463.67	4
464.022	4.01
464.375	4.01
464.728	4.03
465.08	4.05
465.433	4.09
465.785	4.12
466.138	4.17
466.49	4.18
466.843	4.25
467.195	4.26
467.547	4.26
467.899	4.28
468.252	4.35
468.604	4.35
468.956	4.35
469.308	4.37
469.66	4.4
470.012	4.45
470.364	4.48
470.716	4.5
471.068	4.51
471.42	4.56
471.772	4.59
472.123	4.62
472.475	4.66
472.827	4.67
473.178	4.67
473.53	4.67
473.882	4.68
474.233	4.64
474.585	4.64
474.936	4.66
475.288	4.66
475.639	4.63
475.99	4.64
476.342	4.64
476.693	4.62
477.044	4.59
477.395	4.57
477.746	4.54
478.097	4.53
478.448	4.52
478.8	4.47
479.15	4.44
479.501	4.41
479.852	4.37
480.203	4.36
480.554	4.35
480.905	4.32
481.255	4.31
481.606	4.31
481.957	4.31
482.307	4.3
482.658	4.29
483.009	4.28
483.359	4.28
483.709	4.28
484.06	4.29
484.41	4.3
484.761	4.29
485.111	4.29
485.461	4.29
485.811	4.28
486.162	4.29
486.512	4.29
486.862	4.28
487.212	4.28
487.562	4.27
487.912	4.26
488.262	4.27
488.612	4.28
488.961	4.28
489.311	4.27
489.661	4.27
490.011	4.28
490.36	4.28
490.71	4.29
491.06	4.29
491.409	4.28
491.759	4.28
492.108	4.3
492.458	4.31
492.807	4.33
493.157	4.36
493.506	4.38
493.855	4.4
494.204	4.44
494.554	4.47
494.903	4.52
495.252	4.58
495.601	4.64
495.95	4.69
496.299	4.74
496.648	4.81
496.997	4.85
497.346	4.92
497.695	5
498.043	5.05
498.392	5.12
498.741	5.22
499.09	5.28
499.438	5.37
499.787	5.46
500.135	5.54
500.484	5.64
500.832	5.75
501.181	5.9
501.529	6.05
501.878	6.19
502.226	6.31
502.574	6.42
502.923	6.56
503.271	6.71
503.619	6.9
503.967	7.04
504.315	7.23
504.663	7.4
505.011	7.58
505.359	7.77
505.707	7.97
506.055	8.15
506.403	8.38
506.751	8.6
507.098	8.84
507.446	9.07
507.794	9.31
508.141	9.53
508.489	9.76
508.837	10.01
509.184	10.23
509.531	10.49
509.879	10.76
510.226	11.02
510.574	11.28
510.921	11.51
511.268	11.79
511.616	12.07
511.963	12.36
512.31	12.66
512.657	12.97
513.004	13.26
513.351	13.6
513.698	13.94
514.045	14.27
514.392	14.61
514.739	14.97
515.086	15.33
515.432	15.67
515.779	15.97
516.126	16.29
516.473	16.65
516.819	16.98
517.166	17.29
517.512	17.59
517.859	17.88
518.205	18.15
518.552	18.46
518.898	18.74
519.245	19.03
519.591	19.31
519.937	19.58
520.283	19.87
520.629	20.17
520.976	20.51
521.322	20.83
521.668	21.15
522.014	21.46
522.36	21.78
522.706	22.09
523.052	22.51
523.398	22.9
523.743	23.29
524.089	23.73
524.435	24.06
524.781	24.41
525.126	24.73
525.472	25.05
525.817	25.33
526.163	25.58
526.509	25.83
526.854	26.08
527.199	26.31
527.545	26.56
527.89	26.75
528.235	26.96
528.581	27.15
528.926	27.35
529.271	27.57
529.616	27.78
529.961	28.02
530.306	28.23
530.651	28.45
530.996	28.68
531.341	28.88
531.686	29.15
532.031	29.41
532.376	29.67
532.721	29.92
533.065	30.19
533.41	30.45
533.755	30.75
534.099	31.03
534.444	31.31
534.788	31.55
535.133	31.85
535.477	32.08
535.822	32.41
536.166	32.71
536.51	33.02
536.855	33.35
537.199	33.71
537.543	34.08
537.887	34.41
538.231	34.73
538.576	35.06
538.92	35.38
539.264	35.67
539.608	35.98
539.951	36.25
540.295	36.51
540.639	36.8
540.983	36.99
541.327	37.19
541.671	37.4
542.014	37.63
542.358	37.82
542.701	38.09
543.045	38.3
543.389	38.5
543.732	38.73
544.075	38.96
544.419	39.16
544.762	39.32
545.105	39.57
545.449	39.81
545.792	40.03
546.135	40.28
546.478	40.52
546.821	40.75
547.165	41.02
547.508	41.21
547.851	41.42
548.194	41.72
548.536	41.96
548.879	42.23
549.222	42.46
549.565	42.72
549.908	42.95
550.25	43.18
550.593	43.43
550.936	43.65
551.278	43.88
551.621	44.13
551.963	44.35
552.306	44.49
552.648	44.69
552.991	44.91
553.333	45.11
553.675	45.35
554.017	45.47
554.36	45.66
554.702	45.87
555.044	46.07
555.386	46.26
555.728	46.42
556.07	46.55
556.412	46.73
556.754	46.94
557.096	47.06
557.438	47.22
557.78	47.39
558.121	47.56
558.463	47.61
558.805	47.81
559.147	48.03
559.488	48.18
559.83	48.37
560.171	48.51
560.513	48.62
560.854	48.69
561.196	48.97
561.537	49.12
561.878	49.29
562.22	49.43
562.561	49.57
562.902	49.71
563.243	49.83
563.584	49.88
563.925	49.98
564.266	50.1
564.607	50.17
564.948	50.25
565.289	50.35
565.63	50.49
565.971	50.54
566.312	50.6
566.653	50.7
566.993	50.76
567.334	50.87
567.675	51
568.015	51.12
568.356	51.15
568.696	51.19
569.037	51.27
569.377	51.37
569.718	51.43
570.058	51.53
570.398	51.68
570.739	51.78
571.079	51.78
571.419	51.81
571.759	51.91
572.099	52.02
572.439	52.05
572.779	52.17
573.119	52.28
573.459	52.34
573.799	52.4
574.139	52.48
574.479	52.62
574.819	52.7
575.158	52.76
575.498	52.78
575.838	52.86
576.177	52.99
576.517	53.07
576.856	53.09
577.196	53.11
577.535	53.18
577.875	53.3
578.214	53.38
578.553	53.49
578.893	53.58
579.232	53.7
579.571	53.81
579.91	53.83
580.25	53.94
580.589	53.95
580.928	54.09
581.267	54.19
581.606	54.12
581.945	54.18
582.283	54.28
582.622	54.45
582.961	54.55
583.3	54.52
583.639	54.56
583.977	54.72
584.316	54.85
584.654	54.89
584.993	55
585.332	55.22
585.67	55.33
586.008	55.35
586.347	55.39
586.685	55.41
587.024	55.47
587.362	55.45
587.7	55.57
588.038	55.65
588.376	55.66
588.715	55.8
589.053	55.92
589.391	55.88
589.729	55.91
590.067	55.96
590.404	56.02
590.742	55.98
591.08	55.9
591.418	55.91
591.756	55.94
592.093	55.97
592.431	55.96
592.769	55.93
593.106	56
593.444	56.01
593.781	56.08
594.119	56.13
594.456	56.16
594.793	56.14
595.131	56.06
595.468	56.08
595.805	56.04
596.143	56.05
596.48	56.12
596.817	56.12
597.154	56.09
597.491	56.1
597.828	56.17
598.165	56.29
598.502	56.35
598.839	56.42
599.176	56.38
599.512	56.41
599.849	56.51
600.186	56.54
600.523	56.7
600.859	56.66
601.196	56.71
601.532	56.7
601.869	56.76
602.205	56.87
602.542	56.9
602.878	57.04
603.215	57.1
603.551	57.16
603.887	57.28
604.223	57.31
604.56	57.31
604.896	57.34
605.232	57.24
605.568	57.25
605.904	57.21
606.24	57.26
606.576	57.21
606.912	57.17
607.248	57.17
607.583	57.11
607.919	57.22
608.255	57.2
608.591	57.23
608.926	57.27
609.262	57.25
609.597	57.22
609.933	57.19
610.268	57.19
610.604	57.17
610.939	57.13
611.275	57.1
611.61	57.16
611.945	57.13
612.281	57.25
612.616	57.27
612.951	57.35
613.286	57.39
613.621	57.45
613.956	57.5
614.291	57.45
614.626	57.42
614.961	57.42
615.296	57.42
615.631	57.48
615.966	57.44
616.3	57.45
616.635	57.51
616.97	57.45
617.304	57.32
617.639	57.22
617.973	57.18
618.308	57.31
618.642	57.45
618.977	57.51
619.311	57.52
619.646	57.46
619.98	57.57
620.314	57.58
620.648	57.62
620.983	57.66
621.317	57.8
621.651	57.86
621.985	57.88
622.319	58
622.653	57.92
622.987	57.94
623.321	57.98
623.655	57.99
623.988	58.05
624.322	58.08
624.656	58.24
624.99	58.23
625.323	58.27
625.657	58.19
625.99	58.2
626.324	58.17
626.657	58.24
626.991	58.16
627.324	58.17
627.658	58.14
627.991	58.21
628.324	58.17
628.657	58.21
628.991	58.3
629.324	58.23
629.657	58.31
629.99	58.31
630.323	58.38
630.656	58.52
630.989	58.52
631.322	58.61
631.655	58.67
631.987	58.82
632.32	58.81
632.653	58.82
632.986	58.77
633.318	58.82
633.651	58.81
633.984	58.85
634.316	58.84
634.649	58.75
634.981	58.66
635.313	58.62
635.646	58.53
635.978	58.32
636.31	58.48
636.643	58.55
636.975	58.55
637.307	58.59
637.639	58.59
637.971	58.58
638.303	58.59
638.635	58.46
638.967	58.36
639.299	58.31
639.631	58.43
639.963	58.45
640.295	58.58
640.626	58.69
640.958	58.64
641.29	58.69
641.621	58.93
641.953	59
642.285	59.17
642.616	59.35
642.948	59.39
643.279	59.22
643.61	59.23
643.942	59.29
644.273	59.2
644.604	59.12
644.936	59.22
645.267	59.23
645.598	59.28
645.929	59.33
646.26	59.42
646.591	59.38
646.922	59.5
647.253	59.32
647.584	59.33
647.915	59.46
648.245	59.53
648.576	59.44
648.907	59.42
649.238	59.32
649.568	59.17
649.899	59.32
650.229	59.46
650.56	59.4
650.89	59.46
651.221	59.47
651.551	59.47
651.882	59.38
652.212	59.34
652.542	59.35
652.872	59.35
653.203	59.28
653.533	59.24
653.863	59.17
654.193	59.35
654.523	59.26
654.853	59.07
655.183	59.08
655.513	59.11
655.843	59.11
656.172	59.09
656.502	59.05
656.832	59.09
657.162	59.03
657.491	59.15
657.821	59.06
658.15	59.12
658.48	59.13
658.809	59.16
659.139	59.11
659.468	59.21
659.798	59.21
660.127	59.3
660.456	59.31
660.785	59.25
661.115	59.34
661.444	59.44
661.773	59.42
662.102	59.27
662.431	59.18
662.76	59.23
663.089	59.29
663.418	59.39
663.747	59.5
664.076	59.57
664.404	59.49
664.733	59.52
665.062	59.48
665.39	59.5
665.719	59.53
666.048	59.68
666.376	59.45
666.705	59.44
667.033	59.33
667.362	59.3
667.69	59.42
668.018	59.18
668.347	58.98
668.675	59.08
669.003	59.19
669.331	59.35
669.659	59.37
669.987	59.42
670.315	59.54
670.643	59.36
670.971	59.38
671.299	59.23
671.627	59.24
671.955	59.3
672.283	59.37
672.61	59.28
672.938	59.3
673.266	59.49
673.593	59.57
673.921	59.71
674.249	59.71
674.576	59.64
674.904	59.5
675.231	59.61
675.558	59.52
675.886	59.57
676.213	59.55
676.54	59.6
676.867	59.49
677.195	59.38
677.522	59.36
677.849	59.29
678.176	59.42
678.503	59.43
678.83	59.49
679.157	59.39
679.484	59.45
679.81	59.47
680.137	59.53
680.464	59.62
680.791	59.55
681.117	59.54
681.444	59.65
681.771	59.82
682.097	59.86
682.424	59.98
682.75	60.04
683.077	60.13
683.403	59.97
683.729	59.97
684.056	60.16
684.382	60.13
684.708	60.14
685.034	60.22
685.36	60.35
685.686	60.23
686.012	60.25
686.339	60.23
686.664	60.33
686.99	60.28
687.316	60.28
687.642	60.25
687.968	60.24
688.294	60.26
688.619	60.41
688.945	60.51
689.271	60.63
689.596	60.4
689.922	60.32
690.247	60.46
690.573	60.53
690.898	60.31
691.224	60.36
691.549	60.28
691.874	60.31
692.2	60.26
692.525	60.37
692.85	60.25
693.175	60.33
693.5	60.15
693.825	60.04
694.15	59.75
694.475	59.93
694.8	59.94
695.125	59.94
695.45	59.8
695.775	59.73
696.099	59.58
696.424	59.82
696.749	59.84
697.073	59.89
697.398	59.87
697.723	59.96
698.047	60.11
698.372	60.2
698.696	60.23
699.02	60.21
699.345	60.21
699.669	60.23
699.993	60.24
700.318	60.21
700.642	60.35
700.966	60.51
701.29	60.4
701.614	60.49
701.938	60.45
702.262	60.5
702.586	60.52
702.91	60.58
703.234	60.35
703.557	60.46
703.881	60.5
704.205	60.54
704.529	60.31
704.852	60.24
705.176	60.26
705.499	59.94
705.823	59.9
706.146	59.88
706.47	60.06
706.793	59.89
707.117	59.95
707.44	59.87
707.763	59.96
708.086	59.87
708.409	59.77
708.733	59.68
709.056	59.82
709.379	59.77
709.702	59.88
710.025	59.95
710.348	60.15
710.671	60.13
710.993	60.15
711.316	60.36
711.639	60.26
711.962	60.22
712.284	60.47
712.607	60.46
712.93	60.42
713.252	60.55
713.575	60.48
713.897	60.71
714.22	60.69
714.542	60.56
714.864	60.59
715.187	60.67
715.509	60.75
715.831	60.64
716.153	60.6
716.475	60.62
716.798	60.63
717.12	60.28
717.442	60.02
717.764	60.07
718.085	60.07
718.407	60.19
718.729	60.26
719.051	60.21
719.373	60.25
719.695	60.31
720.016	59.99
720.338	60.42
720.659	59.81
720.981	59.85
721.302	59.75
721.624	59.96
721.945	59.87
722.267	59.91
722.588	59.67
722.909	59.71
723.231	59.54
723.552	59.57
723.873	59.39
724.194	59.74
724.515	59.69
724.836	59.73
725.157	59.45
725.478	59.56
725.799	59.55
726.12	59.33
726.441	59.3
726.762	59.25
727.083	58.99
727.403	59.39
727.724	59.3
728.045	59.48
728.365	59.41
728.686	59.34
729.006	59.2
729.327	59.29
729.647	59.01
729.967	59.17
730.288	59.35
730.608	59.64
730.928	59.64
731.249	59.85
731.569	59.91
731.889	59.99
732.209	60.02
732.529	60.24
732.849	60.41
733.169	60.41
733.489	60.57
733.809	60.61
734.129	60.73
734.448	60.98
734.768	61.1
735.088	61.19
735.408	61.44
735.727	61.45
736.047	61.77
736.366	62.37
736.686	62.15
737.005	62.38
737.325	62.33
737.644	62.25
737.963	62.17
738.283	62.14
738.602	62.28
738.921	62.42
739.24	62.36
739.56	62.87
739.879	63.19
740.198	63.33
740.517	63.16
740.836	62.95
741.155	62.8
741.473	62.52
741.792	62.42
742.111	62.41
742.43	62.68
742.748	62.8
743.067	62.68
743.386	62.77
743.704	62.19
744.023	62.11
744.341	62.07
744.66	61.73
744.978	61.7
745.297	61.58
745.615	61.17
745.933	61.1
746.252	60.5
746.57	60.26
746.888	60.54
747.206	60.5
747.524	60.78
747.842	60.92
748.16	60.96
748.478	61.17
748.796	61.18
749.114	61.13
749.432	60.67
749.749	60.71
750.067	60.78
750.385	61.18
750.703	61.03
751.02	61.28
751.338	61.45
751.655	61.47
751.973	61.82
752.29	62.18
752.608	62.1
752.925	62.45
753.242	62.32
753.56	61.93
753.877	62.23
754.194	61.8
754.511	61.82
754.828	61.86
755.145	61.54
755.462	61.62
755.779	61.71
756.096	61.69
756.413	61.86
756.73	61.84
757.047	61.58
757.364	61.83
757.68	61.25
757.997	61.21
758.314	61.03
758.63	60.7
758.947	60.58
759.264	60.68
759.58	60.59
759.896	60.44
760.213	60.54
760.529	60.74
760.846	60.84
761.162	60.71
761.478	60.74
761.794	60.75
762.11	60.73
762.426	60.66
762.743	60.94
763.059	60.52
763.375	60.44
763.69	60.59
764.006	60.72
764.322	61.2
764.638	61.44
764.954	61.69
765.27	61.94
765.585	61.9
765.901	61.94
766.216	61.96
766.532	62.04
766.848	62.31
767.163	62.44
767.478	62.31
767.794	62.59
768.109	62.55
768.424	62.64
768.74	62.47
769.055	62.62
769.37	62.55
769.685	62.82
770	62.95
770.315	62.89
770.63	62.31
770.945	62.09
771.26	62.27
771.575	62.46
771.89	62.55
772.205	62.56
772.52	62.23
772.834	61.73
773.149	62.16
773.464	61.87
773.778	61.41
774.093	61.47
774.407	61.2
774.722	61.49
775.036	61.69
775.351	62.08
775.665	62.08
775.979	62.28
776.293	62.18
776.608	62.23
776.922	62.41
777.236	62.9
777.55	62.39
777.864	62.15
778.178	61.5
778.492	61.34
778.806	61.29
779.12	61.71
779.434	62.21
779.747	61.95
780.061	61.65
780.375	62.01
780.689	62.79
781.002	62.21
781.316	61.91
781.629	61.62
781.943	61.91
782.256	61.97
782.57	61.89
782.883	62.48
783.196	62.54
783.51	62.84
783.823	62.84
784.136	63.98
784.449	63.7
784.762	64.22
785.075	64.08
785.388	63.8
785.701	63.27
786.014	63.42
786.327	63.63
786.64	63.3
786.953	63.61
787.266	62.97
787.578	63.49
787.891	63.7
788.204	64.3
788.516	64.18
788.829	64.19
789.141	63.99
789.454	63.39
789.766	63.61
790.079	62.98
790.391	62.19
790.703	61.35
791.016	61.77
791.328	60.92
791.64	60.76
791.952	61.17
792.264	61.96
792.576	61.83
792.888	61.96
793.2	63.19
793.512	62.35
793.824	62.08
794.136	62.44
794.448	62.3
794.76	61.53
795.071	61.71
795.383	62.24
795.695	62.68
796.006	62.89
796.318	62.5
796.629	62.66
796.941	63.25
797.252	63.74
797.564	64.33
797.875	64.72
798.186	65.15
798.497	65.15
798.809	64.95
799.12	65.04
799.431	65.23
799.742	63.79
800.053	64.26
800.364	64.83
800.675	64.28
800.986	64.49
801.297	65.13
801.608	64.08
801.918	62.99
802.229	62.81
802.54	63.4
802.851	63.48
803.161	63.35
803.472	63.38
803.782	63.13
804.093	61.79
804.403	61.64
804.714	61.77
805.024	61.7
805.334	61.63
805.645	61.34
805.955	61.16
806.265	62.3
806.575	61.61
806.885	61.74
807.195	62.35
807.505	61.88
807.815	61.69
808.125	62.44
808.435	62.58
808.745	61.49
809.055	60.36
809.365	60.87
809.674	61.17
809.984	61.44
810.294	60.07
810.603	60.74
810.913	60.63
811.222	59.86
811.532	59.75
811.841	59.93
812.151	59.77
812.46	59.31
812.769	58.76
813.079	59.73
813.388	60.01
813.697	59.51
814.006	59.61
814.315	59.75
814.624	59.51
814.933	60.51
815.242	60.76
815.551	60.91
815.86	60.98
816.169	61.34
816.478	62.34
816.786	64.26
817.095	64.14
817.404	64.46
817.712	65.71
818.021	65.74
818.33	65.45
818.638	65.44
818.947	64.94
819.255	64.37
819.563	64.46
819.872	63.9
820.18	64.14
820.488	64.31
820.796	63.99
821.105	64.06
821.413	63.76
821.721	64.19
822.029	63.97
822.337	64.07
822.645	63.99
822.953	63.64
823.26	63.71
823.568	63.53
823.876	63.55
824.184	63.17
824.491	63.22
824.799	63.1
825.107	63.2
825.414	63.24
825.722	63.51
826.029	63.38
826.337	63.49
826.644	63.24
826.951	63.32
827.259	63.42
827.566	63.41
827.873	63.44
828.18	63.15
828.488	63.61
828.795	63.2
829.102	62.76
829.409	62.58
829.716	62.29
830.023	62.6
830.329	62.81
830.636	63
830.943	62.94
831.25	63.32
831.557	62.91
831.863	63.05
832.17	62.75
832.476	62.54
832.783	62.57
833.089	62.48
833.396	62.25
833.702	62.48
834.009	61.98
834.315	61.91
834.621	61.62
834.928	61.68
835.234	61.64
835.54	61.64
835.846	61.89
836.152	62.03
836.458	61.73
836.764	62.02
837.07	61.55
837.376	61.1
837.682	60.76
837.988	61.7
838.293	61.24
838.599	61.14
838.905	61.58
839.211	61.69
839.516	61.96
839.822	61.39
840.127	61
840.433	61.28
840.738	61.27
841.044	63.21
841.349	62.21
841.654	63.52
841.959	64.93
842.265	65.96
842.57	66.37
842.875	66.6
843.18	65.11
843.485	65.68
843.79	65.96
844.095	65.14
844.4	63.77
844.705	65.49
845.01	67.82
845.315	67.61
845.619	66.73
845.924	68.28
846.229	68.6
846.533	68.9
846.838	71.27
847.142	70.68
847.447	68.93
847.751	69.55
848.056	68.98
848.36	68.11
848.664	67.43
848.969	66.88
849.273	66.4
849.577	67.58
849.881	70.71
850.185	70.57
850.489	71.47
850.794	71.53
851.097	69.34
851.401	67.78
851.705	66.82
852.009	68.58
852.313	67.46
852.617	65.29
852.92	65.38
853.224	64.15
853.528	64.22
853.831	66.65
854.135	69.19
854.438	69.19
854.742	69.85
855.045	71.88
855.349	71.63
855.652	70.65
855.955	69.87
856.259	67.94
856.562	70.52
856.865	73.35
857.168	72.3
857.471	75.06
857.774	75.71
858.077	78.85
858.38	77.64
858.683	75.11
858.986	79.14
859.289	79.02
859.592	77.66
859.894	81.43
860.197	79.76
860.5	79.32
860.802	80.36
861.105	81.15
861.407	77.8
861.71	79.13
862.012	81.58
862.315	81.99
862.617	81.09
862.919	81
863.222	78.75
863.524	78.46
863.826	76.82
864.128	76.33
864.43	73.47
864.732	73.26
865.034	74.32
865.336	75.13
865.638	74.81
865.94	73.85
866.242	71.4
866.544	68.14
866.846	70.83
867.147	71.03
867.449	72.15
867.751	72.15
868.052	70.21
868.354	70.38
868.655	69.85
868.957	71.15
869.258	70.36
869.56	69.93
869.861	70.2
870.162	71.56
870.463	69.06
870.765	71.78
871.066	71.92
871.367	72.33
871.668	68.56
871.969	69.58
872.27	71.6
872.571	70.54
872.872	76.6
873.173	68.39
873.473	64.52
873.774	64.05
874.075	65.82
874.376	65.13
874.676	65.88
874.977	67.18
875.277	68.71
875.578	69.86
875.878	70.34
876.179	72.57
876.479	71.88
876.78	73.29
877.08	71.12
877.38	70.69
877.68	71.8
877.981	76.06
878.281	75.64
878.581	75.03
