Data from MVZ_BU57658_Reflection_00006.txt Node
Date: Tue Nov 19 12:13:28 EST 2019
User: vgr7
Spectrometer: USB2G7710
Scans to average: 3
Trigger mode: 4
Integration Time (sec): 2.000000E-2
Electric dark correction enabled: true
Boxcar width: 10
XAxis mode: Wavelengths
Number of Pixels in Spectrum: 2048
>>>>>Begin Spectral Data<<<<<
177.721	597.18
178.105	222.81
178.488	170.64
178.871	136.67
179.254	513.33
179.636	1001.96
180.019	-29.25
180.402	87.5
180.785	-179.67
181.168	-71.68
181.55	-38.31
181.933	-11.11
182.316	-37.76
182.698	-38.95
183.081	-54.06
183.463	-54.36
183.846	-64.22
184.228	-76.29
184.611	-100.42
184.993	-185.93
185.376	-163.84
185.758	-179.39
186.14	-194.57
186.522	-325.47
186.904	-1793.33
187.287	-511.68
187.669	-438.67
188.051	-291.22
188.433	-1179.28
188.815	287.74
189.197	334.43
189.579	74.53
189.961	135.76
190.342	53.07
190.724	27.81
191.106	9.47
191.488	10.82
191.869	2.43
192.251	1.65
192.633	13.31
193.014	6.24
193.396	-3.2
193.777	5.27
194.159	3.95
194.54	6.32
194.922	2.9
195.303	15.02
195.684	1.03
196.065	-9.68
196.447	22.92
196.828	41.11
197.209	10.46
197.59	36.63
197.971	57.64
198.352	-1270.37
198.733	362.41
199.114	-214.55
199.495	857.58
199.876	696.49
200.257	12433.33
200.638	-58.73
201.018	-44.14
201.399	-27.34
201.78	4.76
202.16	406.67
202.541	786.27
202.922	-1874.36
203.302	-169.68
203.683	-107.11
204.063	-90.88
204.444	-106.08
204.824	-95.64
205.204	-74.72
205.585	-118.21
205.965	-152.07
206.345	-142.13
206.725	-157.16
207.106	-124.55
207.486	-127.25
207.866	-121.82
208.246	-129.95
208.626	-147.36
209.006	-190.11
209.386	-309.48
209.766	-512.35
210.145	-492.29
210.525	-588.89
210.905	-230.97
211.285	-152.59
211.664	-213.73
212.044	-327.86
212.424	1195.24
212.803	78.14
213.183	261.9
213.562	-1.23
213.942	30.46
214.321	21.92
214.701	1.17
215.08	-7.81
215.459	43.44
215.838	-7.79
216.218	-2.35
216.597	1.65
216.976	9.87
217.355	5.04
217.734	1.21
218.113	6.33
218.492	-20.63
218.871	-28.82
219.25	-42.13
219.629	-29.48
220.008	-5.32
220.387	-10.19
220.766	-18.01
221.144	-8.69
221.523	-6.61
221.902	-10.52
222.28	4.43
222.659	13.28
223.037	20.76
223.416	4.76
223.794	17.44
224.173	14.98
224.551	1.71
224.929	-7.85
225.308	-11.59
225.686	-8.1
226.064	-13.26
226.442	-6.05
226.821	-1.85
227.199	1.11
227.577	-2.99
227.955	-8.04
228.333	-6.76
228.711	-7.74
229.089	-9
229.467	-8.33
229.845	-8.83
230.222	-10.35
230.6	-14.53
230.978	-11.88
231.356	-7.64
231.733	-8.58
232.111	-8.34
232.488	-5.63
232.866	-3.08
233.243	-3.23
233.621	-1.55
233.998	-1.54
234.376	0.09
234.753	1
235.13	0.77
235.508	0.01
235.885	0.08
236.262	-0.5
236.639	-0.86
237.016	-1.57
237.393	-1.53
237.77	0.54
238.147	1.09
238.524	2.3
238.901	2.22
239.278	1.29
239.655	2.36
240.032	1.75
240.409	2
240.785	2.25
241.162	2.85
241.539	3
241.915	3.14
242.292	2.98
242.668	3.04
243.045	3.8
243.421	3.65
243.798	3.83
244.174	3.76
244.551	4.06
244.927	4.11
245.303	4.06
245.679	4.13
246.056	4.2
246.432	4.04
246.808	4.39
247.184	4.8
247.56	4.46
247.936	4.76
248.312	4.81
248.688	5.08
249.064	5.21
249.44	5.07
249.815	4.97
250.191	4.77
250.567	4.44
250.943	4.18
251.318	4.38
251.694	4.38
252.069	4.28
252.445	4.12
252.82	4.55
253.196	4.74
253.571	4.86
253.947	4.78
254.322	4.61
254.697	4.21
255.073	3.93
255.448	4.14
255.823	4.08
256.198	4
256.573	3.48
256.948	3.39
257.323	3.36
257.698	3.48
258.073	3.59
258.448	3.66
258.823	3.54
259.198	3.47
259.573	3.25
259.948	3.38
260.322	3.37
260.697	3.48
261.072	3.5
261.446	3.45
261.821	3.45
262.195	3.52
262.57	3.3
262.944	3.37
263.319	3.29
263.693	3.33
264.067	3.31
264.442	3.37
264.816	3.26
265.19	3.45
265.564	3.36
265.938	3.42
266.313	3.25
266.687	3.1
267.061	3.1
267.435	3.4
267.809	3.17
268.183	3.2
268.556	3.09
268.93	3.06
269.304	2.93
269.678	2.93
270.051	3.08
270.425	3.3
270.799	3.03
271.172	3.13
271.546	3.18
271.919	3.29
272.293	3.46
272.666	3.47
273.04	3.4
273.413	3.42
273.787	3.17
274.16	3.27
274.533	3.31
274.906	3.48
275.279	3.34
275.653	3.54
276.026	3.66
276.399	3.51
276.772	3.57
277.145	3.63
277.518	3.62
277.891	3.56
278.263	3.58
278.636	4.03
279.009	3.75
279.382	3.68
279.755	3.52
280.127	3.46
280.5	3.47
280.872	3.31
281.245	3.38
281.617	3.61
281.99	3.74
282.362	3.89
282.735	3.68
283.107	3.81
283.479	3.71
283.852	3.74
284.224	3.73
284.596	3.56
284.968	3.46
285.34	3.53
285.713	3.65
286.085	3.66
286.457	3.53
286.829	3.62
287.201	3.6
287.572	3.73
287.944	3.66
288.316	3.72
288.688	3.7
289.06	3.86
289.431	3.82
289.803	3.89
290.175	3.91
290.546	4.07
290.918	4.01
291.289	3.95
291.661	3.96
292.032	3.97
292.403	4.04
292.775	4.13
293.146	4.13
293.517	4.06
293.889	3.94
294.26	3.87
294.631	3.99
295.002	4.08
295.373	4.13
295.744	4.09
296.115	4.11
296.486	4.22
296.857	4.05
297.228	4
297.599	3.92
297.97	3.96
298.34	3.93
298.711	3.84
299.082	3.99
299.452	3.89
299.823	3.85
300.194	3.85
300.564	3.89
300.935	3.9
301.305	3.86
301.676	3.9
302.046	3.83
302.416	3.84
302.787	3.77
303.157	3.72
303.527	3.86
303.897	3.64
304.267	3.66
304.637	3.72
305.008	3.75
305.378	3.87
305.748	3.78
306.117	3.82
306.487	4.13
306.857	4.3
307.227	4.36
307.597	4.45
307.967	4.44
308.336	4.35
308.706	4.23
309.076	4.22
309.445	4.24
309.815	4.38
310.184	4.22
310.554	4.26
310.923	4.18
311.293	4.12
311.662	4.34
312.031	4.5
312.401	4.49
312.77	4.46
313.139	4.18
313.508	4.13
313.877	3.99
314.246	3.8
314.616	3.57
314.985	3.54
315.353	3.61
315.722	3.58
316.091	3.57
316.46	3.71
316.829	3.62
317.198	3.68
317.567	3.74
317.935	3.75
318.304	3.68
318.672	3.81
319.041	3.86
319.41	3.88
319.778	3.73
320.147	3.8
320.515	3.8
320.883	4.13
321.252	4.41
321.62	4.53
321.988	4.69
322.357	4.67
322.725	4.54
323.093	4.46
323.461	4.47
323.829	4.52
324.197	4.53
324.565	4.69
324.933	4.57
325.301	4.45
325.669	4.49
326.037	4.61
326.405	4.55
326.772	4.54
327.14	4.3
327.508	4.15
327.875	4.11
328.243	4.15
328.61	4.12
328.978	3.95
329.346	3.85
329.713	3.81
330.08	3.86
330.448	4
330.815	4.03
331.182	3.92
331.55	4.02
331.917	3.94
332.284	3.98
332.651	3.98
333.018	4.05
333.385	4.16
333.752	4.11
334.119	4.15
334.486	4.04
334.853	4.21
335.22	4.26
335.587	4.25
335.954	4.34
336.32	4.18
336.687	4.14
337.054	4.14
337.42	4.06
337.787	4.1
338.153	4.19
338.52	4.33
338.886	4.53
339.253	4.49
339.619	4.63
339.986	4.46
340.352	4.48
340.718	4.44
341.084	4.4
341.451	4.39
341.817	4.38
342.183	4.44
342.549	4.41
342.915	4.51
343.281	4.54
343.647	4.53
344.013	4.62
344.379	4.66
344.745	4.76
345.11	4.86
345.476	4.86
345.842	4.76
346.208	4.68
346.573	4.56
346.939	4.53
347.304	4.45
347.67	4.48
348.035	4.41
348.401	4.38
348.766	4.39
349.132	4.48
349.497	4.49
349.862	4.48
350.228	4.56
350.593	4.53
350.958	4.69
351.323	4.68
351.688	4.74
352.053	4.78
352.418	4.77
352.783	4.69
353.148	4.63
353.513	4.7
353.878	4.66
354.243	4.69
354.608	4.78
354.972	4.82
355.337	4.9
355.702	4.99
356.066	5.01
356.431	5.01
356.795	5.03
357.16	4.97
357.524	4.96
357.889	4.92
358.253	4.84
358.618	4.69
358.982	4.64
359.346	4.65
359.71	4.61
360.075	4.62
360.439	4.66
360.803	4.71
361.167	4.67
361.531	4.66
361.895	4.69
362.259	4.65
362.623	4.62
362.987	4.62
363.351	4.62
363.714	4.67
364.078	4.69
364.442	4.62
364.806	4.67
365.169	4.73
365.533	4.78
365.896	4.87
366.26	4.82
366.623	4.8
366.987	4.76
367.35	4.77
367.714	4.74
368.077	4.78
368.44	4.78
368.803	4.73
369.167	4.73
369.53	4.68
369.893	4.64
370.256	4.64
370.619	4.48
370.982	4.47
371.345	4.43
371.708	4.4
372.071	4.35
372.434	4.3
372.797	4.3
373.159	4.17
373.522	4.12
373.885	4.18
374.247	4.22
374.61	4.24
374.973	4.25
375.335	4.25
375.698	4.16
376.06	4.17
376.423	4.22
376.785	4.23
377.147	4.24
377.51	4.21
377.872	4.19
378.234	4.29
378.596	4.25
378.958	4.26
379.321	4.24
379.683	4.3
380.045	4.3
380.407	4.31
380.769	4.31
381.13	4.37
381.492	4.34
381.854	4.39
382.216	4.42
382.578	4.4
382.939	4.37
383.301	4.43
383.663	4.38
384.024	4.38
384.386	4.42
384.747	4.45
385.109	4.45
385.47	4.5
385.832	4.5
386.193	4.51
386.554	4.46
386.916	4.52
387.277	4.52
387.638	4.56
387.999	4.52
388.36	4.6
388.721	4.56
389.082	4.59
389.443	4.56
389.804	4.58
390.165	4.61
390.526	4.63
390.887	4.59
391.248	4.66
391.609	4.7
391.969	4.68
392.33	4.62
392.691	4.64
393.051	4.61
393.412	4.62
393.772	4.62
394.133	4.63
394.493	4.56
394.854	4.53
395.214	4.51
395.574	4.5
395.935	4.48
396.295	4.46
396.655	4.47
397.015	4.44
397.376	4.4
397.736	4.35
398.096	4.32
398.456	4.32
398.816	4.25
399.176	4.17
399.535	4.18
399.895	4.15
400.255	4.17
400.615	4.22
400.975	4.16
401.334	4.21
401.694	4.23
402.054	4.27
402.413	4.25
402.773	4.28
403.132	4.28
403.492	4.29
403.851	4.29
404.211	4.27
404.57	4.29
404.929	4.26
405.288	4.28
405.648	4.28
406.007	4.28
406.366	4.31
406.725	4.34
407.084	4.3
407.443	4.35
407.802	4.32
408.161	4.33
408.52	4.33
408.879	4.28
409.238	4.25
409.596	4.25
409.955	4.26
410.314	4.2
410.673	4.17
411.031	4.17
411.39	4.17
411.748	4.2
412.107	4.18
412.465	4.2
412.824	4.2
413.182	4.22
413.54	4.24
413.899	4.21
414.257	4.17
414.615	4.17
414.974	4.15
415.332	4.11
415.69	4.05
416.048	4.06
416.406	4.09
416.764	4.09
417.122	4.06
417.48	4.07
417.838	4.05
418.195	4.06
418.553	4.05
418.911	4.06
419.269	4.03
419.626	4.02
419.984	3.99
420.342	3.97
420.699	3.94
421.057	3.93
421.414	3.94
421.772	3.93
422.129	3.93
422.486	3.93
422.844	3.94
423.201	3.95
423.558	3.96
423.915	3.94
424.273	3.93
424.63	3.93
424.987	3.92
425.344	3.95
425.701	3.93
426.058	3.94
426.415	3.92
426.772	3.9
427.128	3.92
427.485	3.94
427.842	3.96
428.199	3.97
428.555	3.97
428.912	3.97
429.269	3.97
429.625	3.99
429.982	3.98
430.338	3.97
430.695	3.94
431.051	3.93
431.407	3.91
431.764	3.93
432.12	3.97
432.476	3.96
432.832	3.95
433.189	3.96
433.545	3.95
433.901	3.95
434.257	3.96
434.613	3.94
434.969	3.95
435.325	3.93
435.681	3.91
436.036	3.91
436.392	3.91
436.748	3.92
437.104	3.92
437.459	3.92
437.815	3.95
438.171	3.95
438.526	3.95
438.882	3.98
439.237	3.96
439.593	3.94
439.948	3.94
440.304	3.94
440.659	3.95
441.014	3.94
441.369	3.95
441.725	3.95
442.08	3.95
442.435	3.94
442.79	3.96
443.145	4
443.5	3.99
443.855	3.98
444.21	3.99
444.565	3.97
444.92	3.98
445.275	3.97
445.629	3.97
445.984	3.96
446.339	3.94
446.693	3.95
447.048	3.94
447.403	3.94
447.757	3.92
448.112	3.9
448.466	3.9
448.82	3.89
449.175	3.9
449.529	3.91
449.883	3.89
450.238	3.89
450.592	3.86
450.946	3.85
451.3	3.84
451.654	3.82
452.008	3.81
452.362	3.79
452.716	3.79
453.07	3.79
453.424	3.79
453.778	3.77
454.132	3.75
454.486	3.77
454.839	3.76
455.193	3.77
455.547	3.79
455.9	3.77
456.254	3.77
456.607	3.75
456.961	3.76
457.314	3.76
457.668	3.75
458.021	3.74
458.375	3.75
458.728	3.78
459.081	3.79
459.434	3.8
459.787	3.8
460.141	3.81
460.494	3.82
460.847	3.83
461.2	3.85
461.553	3.87
461.906	3.87
462.259	3.86
462.611	3.86
462.964	3.86
463.317	3.86
463.67	3.88
464.022	3.91
464.375	3.89
464.728	3.89
465.08	3.89
465.433	3.92
465.785	3.92
466.138	3.9
466.49	3.91
466.843	3.93
467.195	3.95
467.547	3.96
467.899	3.97
468.252	3.98
468.604	4.01
468.956	4
469.308	4
469.66	4.05
470.012	4.07
470.364	4.1
470.716	4.16
471.068	4.16
471.42	4.15
471.772	4.18
472.123	4.23
472.475	4.25
472.827	4.24
473.178	4.25
473.53	4.3
473.882	4.29
474.233	4.26
474.585	4.24
474.936	4.24
475.288	4.25
475.639	4.24
475.99	4.2
476.342	4.22
476.693	4.22
477.044	4.23
477.395	4.22
477.746	4.18
478.097	4.16
478.448	4.15
478.8	4.15
479.15	4.13
479.501	4.12
479.852	4.1
480.203	4.1
480.554	4.11
480.905	4.1
481.255	4.11
481.606	4.1
481.957	4.11
482.307	4.12
482.658	4.12
483.009	4.11
483.359	4.11
483.709	4.11
484.06	4.11
484.41	4.1
484.761	4.1
485.111	4.11
485.461	4.09
485.811	4.09
486.162	4.09
486.512	4.09
486.862	4.09
487.212	4.09
487.562	4.1
487.912	4.1
488.262	4.1
488.612	4.1
488.961	4.1
489.311	4.1
489.661	4.08
490.011	4.08
490.36	4.08
490.71	4.09
491.06	4.09
491.409	4.08
491.759	4.1
492.108	4.09
492.458	4.09
492.807	4.11
493.157	4.12
493.506	4.12
493.855	4.11
494.204	4.12
494.554	4.13
494.903	4.14
495.252	4.13
495.601	4.15
495.95	4.17
496.299	4.19
496.648	4.23
496.997	4.25
497.346	4.29
497.695	4.3
498.043	4.33
498.392	4.34
498.741	4.37
499.09	4.37
499.438	4.41
499.787	4.43
500.135	4.46
500.484	4.5
500.832	4.52
501.181	4.59
501.529	4.64
501.878	4.66
502.226	4.68
502.574	4.71
502.923	4.75
503.271	4.76
503.619	4.8
503.967	4.8
504.315	4.8
504.663	4.83
505.011	4.84
505.359	4.88
505.707	4.92
506.055	4.95
506.403	4.97
506.751	4.99
507.098	5.02
507.446	5.05
507.794	5.08
508.141	5.12
508.489	5.15
508.837	5.15
509.184	5.2
509.531	5.21
509.879	5.22
510.226	5.27
510.574	5.31
510.921	5.3
511.268	5.35
511.616	5.4
511.963	5.42
512.31	5.47
512.657	5.46
513.004	5.49
513.351	5.5
513.698	5.53
514.045	5.54
514.392	5.57
514.739	5.59
515.086	5.62
515.432	5.64
515.779	5.64
516.126	5.68
516.473	5.69
516.819	5.73
517.166	5.75
517.512	5.75
517.859	5.76
518.205	5.79
518.552	5.79
518.898	5.8
519.245	5.82
519.591	5.83
519.937	5.86
520.283	5.87
520.629	5.89
520.976	5.91
521.322	5.94
521.668	5.96
522.014	5.95
522.36	5.97
522.706	5.99
523.052	6.03
523.398	6.03
523.743	6.05
524.089	6.07
524.435	6.09
524.781	6.11
525.126	6.13
525.472	6.13
525.817	6.15
526.163	6.15
526.509	6.15
526.854	6.17
527.199	6.18
527.545	6.2
527.89	6.2
528.235	6.21
528.581	6.23
528.926	6.22
529.271	6.24
529.616	6.22
529.961	6.22
530.306	6.22
530.651	6.21
530.996	6.22
531.341	6.23
531.686	6.25
532.031	6.26
532.376	6.26
532.721	6.27
533.065	6.28
533.41	6.3
533.755	6.32
534.099	6.32
534.444	6.34
534.788	6.32
535.133	6.33
535.477	6.33
535.822	6.34
536.166	6.35
536.51	6.36
536.855	6.38
537.199	6.4
537.543	6.42
537.887	6.44
538.231	6.43
538.576	6.42
538.92	6.43
539.264	6.44
539.608	6.45
539.951	6.47
540.295	6.47
540.639	6.47
540.983	6.47
541.327	6.48
541.671	6.5
542.014	6.52
542.358	6.53
542.701	6.54
543.045	6.55
543.389	6.56
543.732	6.59
544.075	6.6
544.419	6.61
544.762	6.62
545.105	6.65
545.449	6.66
545.792	6.69
546.135	6.71
546.478	6.71
546.821	6.72
547.165	6.74
547.508	6.77
547.851	6.8
548.194	6.79
548.536	6.79
548.879	6.79
549.222	6.79
549.565	6.8
549.908	6.79
550.25	6.76
550.593	6.75
550.936	6.74
551.278	6.76
551.621	6.74
551.963	6.76
552.306	6.71
552.648	6.7
552.991	6.69
553.333	6.71
553.675	6.73
554.017	6.72
554.36	6.68
554.702	6.64
555.044	6.64
555.386	6.66
555.728	6.67
556.07	6.63
556.412	6.63
556.754	6.64
557.096	6.62
557.438	6.65
557.78	6.69
558.121	6.68
558.463	6.67
558.805	6.71
559.147	6.7
559.488	6.71
559.83	6.74
560.171	6.7
560.513	6.66
560.854	6.65
561.196	6.66
561.537	6.68
561.878	6.72
562.22	6.73
562.561	6.71
562.902	6.72
563.243	6.74
563.584	6.73
563.925	6.77
564.266	6.8
564.607	6.8
564.948	6.81
565.289	6.82
565.63	6.81
565.971	6.8
566.312	6.8
566.653	6.82
566.993	6.82
567.334	6.86
567.675	6.91
568.015	6.9
568.356	6.9
568.696	6.91
569.037	6.92
569.377	6.86
569.718	6.87
570.058	6.88
570.398	6.88
570.739	6.87
571.079	6.86
571.419	6.86
571.759	6.83
572.099	6.81
572.439	6.81
572.779	6.83
573.119	6.84
573.459	6.87
573.799	6.86
574.139	6.87
574.479	6.9
574.819	6.85
575.158	6.85
575.498	6.86
575.838	6.83
576.177	6.83
576.517	6.88
576.856	6.87
577.196	6.87
577.535	6.88
577.875	6.89
578.214	6.89
578.553	6.93
578.893	6.98
579.232	6.99
579.571	6.98
579.91	7
580.25	7
580.589	6.99
580.928	7
581.267	7.01
581.606	6.97
581.945	6.96
582.283	6.99
582.622	6.97
582.961	6.95
583.3	6.97
583.639	6.92
583.977	6.91
584.316	6.94
584.654	6.95
584.993	6.95
585.332	6.95
585.67	6.91
586.008	6.89
586.347	6.85
586.685	6.87
587.024	6.82
587.362	6.82
587.7	6.85
588.038	6.84
588.376	6.87
588.715	6.84
589.053	6.84
589.391	6.83
589.729	6.88
590.067	6.93
590.404	6.92
590.742	6.98
591.08	6.97
591.418	7.01
591.756	6.99
592.093	7.01
592.431	7.04
592.769	7.07
593.106	7.07
593.444	7.12
593.781	7.16
594.119	7.21
594.456	7.21
594.793	7.14
595.131	7.15
595.468	7.14
595.805	7.22
596.143	7.27
596.48	7.27
596.817	7.25
597.154	7.27
597.491	7.28
597.828	7.26
598.165	7.34
598.502	7.32
598.839	7.37
599.176	7.36
599.512	7.37
599.849	7.38
600.186	7.38
600.523	7.36
600.859	7.36
601.196	7.34
601.532	7.37
601.869	7.4
602.205	7.41
602.542	7.37
602.878	7.35
603.215	7.36
603.551	7.34
603.887	7.33
604.223	7.29
604.56	7.25
604.896	7.28
605.232	7.24
605.568	7.22
605.904	7.2
606.24	7.22
606.576	7.24
606.912	7.24
607.248	7.24
607.583	7.24
607.919	7.24
608.255	7.26
608.591	7.23
608.926	7.19
609.262	7.17
609.597	7.19
609.933	7.2
610.268	7.21
610.604	7.24
610.939	7.27
611.275	7.32
611.61	7.36
611.945	7.33
612.281	7.35
612.616	7.35
612.951	7.33
613.286	7.35
613.621	7.26
613.956	7.25
614.291	7.23
614.626	7.23
614.961	7.22
615.296	7.18
615.631	7.22
615.966	7.25
616.3	7.24
616.635	7.25
616.97	7.3
617.304	7.26
617.639	7.22
617.973	7.22
618.308	7.24
618.642	7.24
618.977	7.19
619.311	7.22
619.646	7.26
619.98	7.23
620.314	7.2
620.648	7.22
620.983	7.22
621.317	7.25
621.651	7.22
621.985	7.22
622.319	7.2
622.653	7.19
622.987	7.18
623.321	7.21
623.655	7.27
623.988	7.25
624.322	7.27
624.656	7.29
624.99	7.32
625.323	7.32
625.657	7.38
625.99	7.49
626.324	7.44
626.657	7.42
626.991	7.47
627.324	7.48
627.658	7.48
627.991	7.49
628.324	7.44
628.657	7.45
628.991	7.45
629.324	7.51
629.657	7.5
629.99	7.59
630.323	7.59
630.656	7.55
630.989	7.51
631.322	7.5
631.655	7.53
631.987	7.49
632.32	7.52
632.653	7.38
632.986	7.33
633.318	7.33
633.651	7.38
633.984	7.4
634.316	7.46
634.649	7.43
634.981	7.42
635.313	7.5
635.646	7.53
635.978	7.57
636.31	7.55
636.643	7.54
636.975	7.47
637.307	7.51
637.639	7.55
637.971	7.55
638.303	7.56
638.635	7.57
638.967	7.59
639.299	7.55
639.631	7.68
639.963	7.64
640.295	7.7
640.626	7.68
640.958	7.63
641.29	7.6
641.621	7.65
641.953	7.68
642.285	7.65
642.616	7.66
642.948	7.64
643.279	7.65
643.61	7.66
643.942	7.69
644.273	7.64
644.604	7.57
644.936	7.59
645.267	7.66
645.598	7.64
645.929	7.6
646.26	7.66
646.591	7.68
646.922	7.79
647.253	7.7
647.584	7.68
647.915	7.8
648.245	7.85
648.576	7.87
648.907	7.87
649.238	7.83
649.568	7.82
649.899	7.9
650.229	7.94
650.56	7.93
650.89	8.04
651.221	8.06
651.551	8.12
651.882	8.12
652.212	8.09
652.542	8.12
652.872	8.13
653.203	8.12
653.533	8.06
653.863	8.04
654.193	8.07
654.523	8.02
654.853	8
655.183	7.94
655.513	7.94
655.843	7.92
656.172	8.03
656.502	7.92
656.832	7.83
657.162	7.77
657.491	7.84
657.821	7.76
658.15	7.76
658.48	7.79
658.809	7.8
659.139	7.82
659.468	7.86
659.798	7.91
660.127	7.86
660.456	7.85
660.785	7.85
661.115	7.89
661.444	8.01
661.773	7.98
662.102	8.02
662.431	8.07
662.76	7.99
663.089	7.95
663.418	8.02
663.747	8.03
664.076	8.1
664.404	8.17
664.733	8.14
665.062	8.22
665.39	8.18
665.719	8.16
666.048	8.07
666.376	8.04
666.705	7.97
667.033	8.01
667.362	8.04
667.69	8.01
668.018	8.04
668.347	7.93
668.675	7.95
669.003	7.87
669.331	7.81
669.659	7.91
669.987	7.96
670.315	8.04
670.643	8.09
670.971	8.08
671.299	8.01
671.627	8.01
671.955	8
672.283	8.03
672.61	8.06
672.938	8.18
673.266	8.12
673.593	8.15
673.921	8.1
674.249	8.2
674.576	8.14
674.904	8.15
675.231	8.2
675.558	8.2
675.886	8.23
676.213	8.32
676.54	8.33
676.867	8.28
677.195	8.28
677.522	8.29
677.849	8.29
678.176	8.3
678.503	8.35
678.83	8.24
679.157	8.27
679.484	8.21
679.81	8.16
680.137	8.19
680.464	8.26
680.791	8.33
681.117	8.27
681.444	8.35
681.771	8.33
682.097	8.29
682.424	8.28
682.75	8.32
683.077	8.31
683.403	8.26
683.729	8.28
684.056	8.26
684.382	8.21
684.708	8.25
685.034	8.23
685.36	8.24
685.686	8.37
686.012	8.36
686.339	8.45
686.664	8.53
686.99	8.52
687.316	8.44
687.642	8.44
687.968	8.49
688.294	8.44
688.619	8.48
688.945	8.57
689.271	8.51
689.596	8.6
689.922	8.51
690.247	8.62
690.573	8.54
690.898	8.62
691.224	8.82
691.549	8.88
691.874	8.9
692.2	8.9
692.525	8.86
692.85	8.92
693.175	8.91
693.5	8.76
693.825	8.83
694.15	8.88
694.475	8.99
694.8	8.99
695.125	9.09
695.45	9.06
695.775	9.04
696.099	9.27
696.424	9.23
696.749	9.28
697.073	9.23
697.398	9.32
697.723	9.23
698.047	9.12
698.372	9.08
698.696	9.08
699.02	9.2
699.345	9.13
699.669	9.12
699.993	9.17
700.318	9.24
700.642	9.2
700.966	9.22
701.29	9.22
701.614	9.19
701.938	9.07
702.262	9
702.586	9.03
702.91	8.93
703.234	8.83
703.557	8.95
703.881	9.08
704.205	9.14
704.529	9.21
704.852	9.07
705.176	9.15
705.499	9.23
705.823	9.07
706.146	9.35
706.47	9.31
706.793	9.24
707.117	9.15
707.44	9.37
707.763	9.35
708.086	9.24
708.409	9.3
708.733	9.32
709.056	9.41
709.379	9.44
709.702	9.47
710.025	9.67
710.348	9.61
710.671	9.54
710.993	9.54
711.316	9.53
711.639	9.63
711.962	9.63
712.284	9.48
712.607	9.51
712.93	9.26
713.252	9.26
713.575	9.37
713.897	9.41
714.22	9.2
714.542	9.4
714.864	9.39
715.187	9.24
715.509	9.42
715.831	9.39
716.153	9.2
716.475	9.16
716.798	9.05
717.12	8.91
717.442	8.91
717.764	8.81
718.085	8.8
718.407	8.87
718.729	8.85
719.051	9.05
719.373	9.13
719.695	9.21
720.016	9.23
720.338	9.21
720.659	9.36
720.981	9.33
721.302	9.11
721.624	9.17
721.945	9.34
722.267	9.28
722.588	9.27
722.909	9.62
723.231	9.57
723.552	9.61
723.873	9.78
724.194	9.78
724.515	9.85
724.836	9.9
725.157	9.99
725.478	10.02
725.799	9.72
726.12	9.66
726.441	9.8
726.762	9.84
727.083	9.79
727.403	9.73
727.724	9.93
728.045	10.13
728.365	10.15
728.686	10.18
729.006	10.11
729.327	10.16
729.647	10.21
729.967	10.21
730.288	10.24
730.608	10.17
730.928	10.17
731.249	10.15
731.569	10.26
731.889	10.26
732.209	10.14
732.529	10.2
732.849	10.04
733.169	9.95
733.489	9.7
733.809	9.67
734.129	9.65
734.448	9.44
734.768	9.27
735.088	9.16
735.408	9.17
735.727	9.33
736.047	9.47
736.366	9.33
736.686	9.34
737.005	9.42
737.325	9.42
737.644	9.55
737.963	9.54
738.283	9.48
738.602	9.57
738.921	9.77
739.24	9.99
739.56	10.12
739.879	10.02
740.198	10.31
740.517	10.41
740.836	10.43
741.155	10.81
741.473	10.69
741.792	10.79
742.111	10.81
742.43	10.86
742.748	10.68
743.067	10.69
743.386	10.51
743.704	10.55
744.023	10.83
744.341	10.92
744.66	10.9
744.978	10.84
745.297	10.42
745.615	10.04
745.933	10.14
746.252	10.39
746.57	10.43
746.888	10.6
747.206	10.53
747.524	10.55
747.842	10.25
748.16	10.54
748.478	10.33
748.796	10.56
749.114	10.46
749.432	10.82
749.749	10.65
750.067	10.81
750.385	10.71
750.703	10.6
751.02	10.58
751.338	10.56
751.655	10.55
751.973	10.76
752.29	11.3
752.608	10.84
752.925	10.56
753.242	11
753.56	10.76
753.877	10.79
754.194	10.89
754.511	10.93
754.828	10.85
755.145	11.09
755.462	10.8
755.779	10.75
756.096	10.54
756.413	10.76
756.73	10.94
757.047	10.69
757.364	11.03
757.68	10.72
757.997	10.7
758.314	11.08
758.63	11.12
758.947	10.94
759.264	11.05
759.58	11.28
759.896	11.14
760.213	11.31
760.529	11.26
760.846	11.3
761.162	11.34
761.478	11.43
761.794	11.64
762.11	11.53
762.426	11.61
762.743	11.62
763.059	11.49
763.375	11.35
763.69	11.45
764.006	11.22
764.322	11.46
764.638	11.85
764.954	11.45
765.27	11.5
765.585	11.6
765.901	11.69
766.216	11.61
766.532	11.36
766.848	11.06
767.163	11.16
767.478	11.08
767.794	11.09
768.109	11
768.424	10.8
768.74	10.65
769.055	10.76
769.37	10.62
769.685	10.86
770	11.21
770.315	11.64
770.63	11.66
770.945	11.59
771.26	11.57
771.575	11.85
771.89	11.76
772.205	11.74
772.52	11.8
772.834	11.84
773.149	12.09
773.464	12.69
773.778	12.23
774.093	12.21
774.407	12.47
774.722	12.56
775.036	12.71
775.351	13.53
775.665	13.34
775.979	13.53
776.293	13.33
776.608	13.35
776.922	12.97
777.236	13.43
777.55	13.38
777.864	13.22
778.178	13.09
778.492	12.99
778.806	13.05
779.12	13.3
779.434	13.25
779.747	13.47
780.061	13.36
780.375	14.08
780.689	14.24
781.002	14.46
781.316	14.47
781.629	14.56
781.943	14.24
782.256	14.13
782.57	13.88
782.883	14.36
783.196	14.29
783.51	14.54
783.823	13.75
784.136	13.69
784.449	13.4
784.762	13.91
785.075	14.16
785.388	14.18
785.701	13.85
786.014	14.25
786.327	14.06
786.64	13.9
786.953	13.86
787.266	13.47
787.578	12.9
787.891	13.03
788.204	12.47
788.516	12.53
788.829	12.23
789.141	12.56
789.454	12.19
789.766	12.34
790.079	12.25
790.391	12.38
790.703	12.61
791.016	12.56
791.328	12.47
791.64	12.27
791.952	12.01
792.264	11.57
792.576	10.99
792.888	11.19
793.2	11.3
793.512	11.21
793.824	11.77
794.136	11.74
794.448	11.98
794.76	12.29
795.071	12.16
795.383	12.54
795.695	12.43
796.006	12.55
796.318	11.9
796.629	11.96
796.941	11.96
797.252	11.75
797.564	11.86
797.875	11.84
798.186	12.28
798.497	12.45
798.809	13.5
799.12	14.07
799.431	14.3
799.742	14.58
800.053	14.47
800.364	14.69
800.675	15.17
800.986	14.55
801.297	14.86
801.608	14.6
801.918	14.58
802.229	14.64
802.54	14.56
802.851	14.58
803.161	14.52
803.472	15.02
803.782	15.56
804.093	15.55
804.403	15.45
804.714	15.81
805.024	15.85
805.334	15.51
805.645	15.04
805.955	14.63
806.265	13.65
806.575	13.66
806.885	12.86
807.195	12.18
807.505	12
807.815	11.85
808.125	12.36
808.435	12.32
808.745	12.02
809.055	11.84
809.365	12.42
809.674	12.64
809.984	12.41
810.294	11.36
810.603	10.96
810.913	11.04
811.222	10.39
811.532	10.8
811.841	10.95
812.151	11.17
812.46	11.03
812.769	11.68
813.079	11.63
813.388	11.74
813.697	11.81
814.006	12.62
814.315	12.95
814.624	12.89
814.933	12.86
815.242	13.27
815.551	13.47
815.86	13.35
816.169	13.04
816.478	13.36
816.786	13.76
817.095	14.31
817.404	14.06
817.712	14.22
818.021	13.68
818.33	13.39
818.638	13.68
818.947	14.01
819.255	14.24
819.563	14.46
819.872	14.83
820.18	15.12
820.488	15.18
820.796	14.87
821.105	14.74
821.413	14.91
821.721	14.89
822.029	14.91
822.337	14.69
822.645	14.79
822.953	14.83
823.26	15
823.568	15.09
823.876	15.06
824.184	14.91
824.491	14.95
824.799	15.06
825.107	15.08
825.414	14.89
825.722	14.8
826.029	14.98
826.337	14.95
826.644	14.92
826.951	14.73
827.259	14.95
827.566	15.07
827.873	15.3
828.18	15.49
828.488	15.44
828.795	15.82
829.102	15.77
829.409	15.48
829.716	15.42
830.023	15.11
830.329	14.93
830.636	15.08
830.943	14.91
831.25	14.75
831.557	14.73
831.863	15.34
832.17	15.37
832.476	14.54
832.783	14.44
833.089	14.25
833.396	14.92
833.702	14.54
834.009	14.29
834.315	14.24
834.621	14.38
834.928	14.84
835.234	14.5
835.54	14.51
835.846	14.8
836.152	14.83
836.458	15.35
836.764	16.12
837.07	16.02
837.376	16.41
837.682	16.44
837.988	16.16
838.293	16.52
838.599	16.83
838.905	18.32
839.211	18.87
839.516	19.53
839.822	18.66
840.127	19.09
840.433	19.43
840.738	18.99
841.044	18.03
841.349	16.52
841.654	16.97
841.959	17.03
842.265	17
842.57	16.45
842.875	15.04
843.18	14.41
843.485	15.38
843.79	14.63
844.095	15.09
844.4	15.24
844.705	13.77
845.01	15.28
845.315	13.3
845.619	13.53
845.924	13.19
846.229	13.01
846.533	12.59
846.838	12.92
847.142	12.94
847.447	13.96
847.751	15.4
848.056	14.36
848.36	15.53
848.664	15.25
848.969	16.62
849.273	16.98
849.577	17.73
849.881	17.3
850.185	18.2
850.489	19.65
850.794	20.26
851.097	20.19
851.401	15.6
851.705	14.63
852.009	14.05
852.313	10.82
852.617	12.31
852.92	13.28
853.224	15.58
853.528	14.11
853.831	13.55
854.135	12.69
854.438	14.37
854.742	13.94
855.045	14.54
855.349	13.18
855.652	14.43
855.955	14.31
856.259	15.23
856.562	16.26
856.865	15.28
857.168	13.76
857.471	14.71
857.774	18.28
858.077	19.99
858.38	19.01
858.683	22.52
858.986	23.25
859.289	24.19
859.592	21.97
859.894	22.73
860.197	22.49
860.5	23.54
860.802	23.84
861.105	24.27
861.407	23.52
861.71	24.18
862.012	24.68
862.315	21.91
862.617	22.02
862.919	20.99
863.222	19.93
863.524	21.78
863.826	21.3
864.128	21.03
864.43	21.36
864.732	21.05
865.034	19.23
865.336	18.56
865.638	18.92
865.94	19.19
866.242	18.24
866.544	19.49
866.846	20.38
867.147	20.47
867.449	19.21
867.751	19.18
868.052	18.72
868.354	19.17
868.655	20.02
868.957	16.61
869.258	16.24
869.56	17.06
869.861	13.17
870.162	12.35
870.463	12.06
870.765	11.18
871.066	11.75
871.367	12.31
871.668	9.47
871.969	7.91
872.27	8.99
872.571	9.51
872.872	9.52
873.173	9.62
873.473	8.31
873.774	10.53
874.075	10.25
874.376	9.93
874.676	9.77
874.977	9.76
875.277	12.87
875.578	14.74
875.878	14.26
876.179	17.36
876.479	18.36
876.78	17.16
877.08	17.46
877.38	18.29
877.68	20.02
877.981	23.64
878.281	24.22
878.581	23.32
