Data from MVZ_BU8940_Reflection_00002.txt Node
Date: Tue Nov 19 12:16:20 EST 2019
User: vgr7
Spectrometer: USB2G7710
Scans to average: 3
Trigger mode: 4
Integration Time (sec): 2.000000E-2
Electric dark correction enabled: true
Boxcar width: 10
XAxis mode: Wavelengths
Number of Pixels in Spectrum: 2048
>>>>>Begin Spectral Data<<<<<
177.721	-295.44
178.105	-246.59
178.488	-278.17
178.871	-228.57
179.254	-78.05
179.636	510.71
180.019	50.87
180.402	520
180.785	1160
181.168	-429.7
181.55	299.48
181.933	147.09
182.316	273.47
182.698	170.07
183.081	63.27
183.463	50.15
183.846	53.86
184.228	77.34
184.611	58.66
184.993	-6.72
185.376	-10.05
185.758	7.27
186.14	9.35
186.522	293.47
186.904	302.86
187.287	143.81
187.669	189.83
188.051	148.69
188.433	275.28
188.815	191.7
189.197	127.69
189.579	572.97
189.961	-51.56
190.342	22.82
190.724	33.16
191.106	1494.74
191.488	-503.45
191.869	41600
192.251	292.31
192.633	-190.7
193.014	113.37
193.396	98.37
193.777	329.73
194.159	-58.23
194.54	-423.62
194.922	-100.77
195.303	-76.11
195.684	-118.97
196.065	-150.99
196.447	-63.2
196.828	-100.83
197.209	-184.75
197.59	-256.09
197.971	-133.08
198.352	-190.55
198.733	-306.57
199.114	-251.59
199.495	503.61
199.876	-400
200.257	-132.48
200.638	-28.98
201.018	-91.03
201.399	208.39
201.78	116.75
202.16	54.05
202.541	534.43
202.922	-298.88
203.302	-154.86
203.683	-214.55
204.063	-778.95
204.444	-607.92
204.824	976.47
205.204	6523.08
205.585	2019.35
205.965	-1061.02
206.345	-507.78
206.725	-756.44
207.106	-224.51
207.486	695.65
207.866	-2675.86
208.246	-249.37
208.626	-459.11
209.006	-176.45
209.386	-411.95
209.766	-3914.29
210.145	18457.14
210.525	-3057.14
210.905	-438.63
211.285	-196.84
211.664	-91.74
212.044	-45.2
212.424	-42.96
212.803	-90.24
213.183	-213.11
213.562	-235.16
213.942	-153.89
214.321	-126.13
214.701	-159.24
215.08	-157.8
215.459	-78.49
215.838	-97.65
216.218	-149.66
216.597	-132.96
216.976	-582.74
217.355	-324.79
217.734	1017.58
218.113	4494.74
218.492	-345.7
218.871	-344.19
219.25	2739.53
219.629	963.64
220.008	410.43
220.387	941.18
220.766	-166.54
221.144	-64.05
221.523	-34.03
221.902	-33.38
222.28	-8.7
222.659	59.66
223.037	71.47
223.416	49.36
223.794	48.62
224.173	35.56
224.551	34.99
224.929	39.87
225.308	22.26
225.686	14.76
226.064	15.01
226.442	16.53
226.821	13.93
227.199	15.44
227.577	13.74
227.955	10.28
228.333	7.95
228.711	8.53
229.089	10.39
229.467	7.36
229.845	8.38
230.222	6.12
230.6	1.46
230.978	2.38
231.356	1.86
231.733	-0.27
232.111	-1.36
232.488	0.48
232.866	1.99
233.243	6.13
233.621	6.91
233.998	6.94
234.376	6.61
234.753	7.4
235.13	9.32
235.508	6.46
235.885	5.08
236.262	4.95
236.639	3.39
237.016	1.17
237.393	2.11
237.77	1.18
238.147	2.03
238.524	2.66
238.901	2.36
239.278	2.47
239.655	2.09
240.032	3.58
240.409	2.08
240.785	1.87
241.162	1.46
241.539	1.67
241.915	1.78
242.292	2.45
242.668	2.17
243.045	2.32
243.421	2.51
243.798	2.98
244.174	2.83
244.551	3.05
244.927	3.2
245.303	3.15
245.679	3.34
246.056	3.33
246.432	3.3
246.808	3.36
247.184	3.45
247.56	3.69
247.936	3.43
248.312	4.01
248.688	3.76
249.064	3.75
249.44	3.69
249.815	3.54
250.191	3.2
250.567	3.35
250.943	3.21
251.318	3.01
251.694	2.57
252.069	2.8
252.445	2.89
252.82	3.07
253.196	3.08
253.571	3.03
253.947	3
254.322	2.31
254.697	2.34
255.073	2.17
255.448	1.95
255.823	2.03
256.198	1.71
256.573	1.94
256.948	1.95
257.323	1.84
257.698	1.77
258.073	1.76
258.448	1.62
258.823	1.46
259.198	1.74
259.573	1.91
259.948	2.02
260.322	1.68
260.697	1.61
261.072	1.61
261.446	1.87
261.821	1.85
262.195	2.17
262.57	2.2
262.944	2.18
263.319	2.24
263.693	2.24
264.067	2.18
264.442	2.23
264.816	1.93
265.19	2.06
265.564	2.11
265.938	2.22
266.313	2.14
266.687	2.34
267.061	2.44
267.435	2.51
267.809	2.14
268.183	2.48
268.556	2.61
268.93	2.61
269.304	2.3
269.678	2.37
270.051	2.54
270.425	2.46
270.799	2.46
271.172	2.45
271.546	2.54
271.919	2.67
272.293	2.67
272.666	2.87
273.04	2.81
273.413	2.81
273.787	2.74
274.16	2.9
274.533	2.86
274.906	2.89
275.279	2.87
275.653	3.05
276.026	3.22
276.399	3.3
276.772	3.31
277.145	3.35
277.518	3.24
277.891	3.05
278.263	3.09
278.636	3.11
279.009	3.07
279.382	2.94
279.755	2.78
280.127	2.86
280.5	2.92
280.872	3.02
281.245	3.03
281.617	2.84
281.99	2.85
282.362	2.76
282.735	2.66
283.107	2.48
283.479	2.54
283.852	2.39
284.224	2.2
284.596	2.21
284.968	2.15
285.34	2.26
285.713	2.28
286.085	2.18
286.457	2.15
286.829	2.28
287.201	2.3
287.572	2.38
287.944	2.35
288.316	2.32
288.688	2.34
289.06	2.36
289.431	2.57
289.803	2.61
290.175	2.68
290.546	2.72
290.918	2.79
291.289	2.55
291.661	2.62
292.032	2.64
292.403	2.66
292.775	2.73
293.146	2.67
293.517	2.57
293.889	2.76
294.26	2.76
294.631	2.67
295.002	2.8
295.373	2.81
295.744	2.74
296.115	2.86
296.486	2.78
296.857	2.67
297.228	2.57
297.599	2.52
297.97	2.68
298.34	2.66
298.711	2.67
299.082	2.83
299.452	2.75
299.823	2.81
300.194	2.98
300.564	3
300.935	3.01
301.305	3.06
301.676	2.84
302.046	2.94
302.416	2.99
302.787	2.82
303.157	2.88
303.527	2.99
303.897	2.86
304.267	2.88
304.637	2.89
305.008	2.8
305.378	2.85
305.748	2.54
306.117	2.48
306.487	2.63
306.857	2.57
307.227	2.82
307.597	2.75
307.967	2.6
308.336	2.61
308.706	2.54
309.076	2.6
309.445	2.74
309.815	2.74
310.184	2.74
310.554	2.88
310.923	2.77
311.293	2.79
311.662	2.79
312.031	2.84
312.401	2.89
312.77	3.11
313.139	3
313.508	3.1
313.877	3.24
314.246	3.05
314.616	3.19
314.985	3.01
315.353	3.05
315.722	3.1
316.091	3.3
316.46	3.37
316.829	3.5
317.198	3.59
317.567	3.6
317.935	3.58
318.304	3.67
318.672	3.9
319.041	3.84
319.41	4.01
319.778	3.96
320.147	3.84
320.515	3.77
320.883	3.83
321.252	3.85
321.62	3.75
321.988	3.89
322.357	3.76
322.725	3.67
323.093	3.57
323.461	3.46
323.829	3.31
324.197	3.3
324.565	3.21
324.933	2.98
325.301	2.82
325.669	2.81
326.037	2.69
326.405	2.41
326.772	2.51
327.14	2.36
327.508	2.2
327.875	2.36
328.243	2.1
328.61	2.11
328.978	2.22
329.346	2.27
329.713	2.34
330.08	2.44
330.448	2.62
330.815	2.54
331.182	2.55
331.55	2.56
331.917	2.51
332.284	2.56
332.651	2.74
333.018	2.86
333.385	2.99
333.752	2.92
334.119	3.1
334.486	3.04
334.853	2.98
335.22	3.1
335.587	3.06
335.954	3.14
336.32	3.1
336.687	3.23
337.054	3.13
337.42	2.96
337.787	2.87
338.153	2.85
338.52	3.06
338.886	3.25
339.253	3.22
339.619	3.39
339.986	3.29
340.352	3.34
340.718	3.35
341.084	3.36
341.451	3.47
341.817	3.54
342.183	3.51
342.549	3.75
342.915	3.8
343.281	3.9
343.647	4.05
344.013	4.11
344.379	4.03
344.745	4.18
345.11	4.24
345.476	4.32
345.842	4.29
346.208	4.26
346.573	4.14
346.939	4.15
347.304	4
347.67	4
348.035	3.96
348.401	3.96
348.766	3.87
349.132	3.87
349.497	3.92
349.862	3.93
350.228	3.84
350.593	3.92
350.958	3.86
351.323	3.78
351.688	3.88
352.053	3.8
352.418	3.72
352.783	3.82
353.148	3.84
353.513	3.92
353.878	3.87
354.243	3.79
354.608	3.78
354.972	3.83
355.337	3.93
355.702	3.91
356.066	3.91
356.431	3.94
356.795	3.93
357.16	3.86
357.524	3.87
357.889	3.82
358.253	3.75
358.618	3.77
358.982	3.85
359.346	3.83
359.71	3.81
360.075	3.84
360.439	3.83
360.803	3.83
361.167	3.83
361.531	3.82
361.895	3.93
362.259	3.96
362.623	3.96
362.987	3.96
363.351	4.01
363.714	4.02
364.078	3.99
364.442	3.93
364.806	3.92
365.169	3.94
365.533	4.01
365.896	4.05
366.26	4.02
366.623	3.98
366.987	3.99
367.35	4.05
367.714	4.01
368.077	4.06
368.44	3.96
368.803	3.94
369.167	3.86
369.53	3.82
369.893	3.76
370.256	3.78
370.619	3.78
370.982	3.75
371.345	3.79
371.708	3.82
372.071	3.87
372.434	3.85
372.797	3.83
373.159	3.84
373.522	3.84
373.885	3.88
374.247	3.89
374.61	3.87
374.973	3.92
375.335	3.94
375.698	3.88
376.06	3.94
376.423	3.89
376.785	4.03
377.147	4.02
377.51	4.11
377.872	4.1
378.234	4.08
378.596	4.13
378.958	4.07
379.321	4.08
379.683	4.09
380.045	4.16
380.407	4.15
380.769	4.17
381.13	4.14
381.492	4.14
381.854	4.16
382.216	4.15
382.578	4.09
382.939	4.08
383.301	4.1
383.663	4.14
384.024	4.21
384.386	4.16
384.747	4.15
385.109	4.13
385.47	4.14
385.832	4.18
386.193	4.14
386.554	4.11
386.916	4.12
387.277	4.02
387.638	4
387.999	4.03
388.36	4.01
388.721	4.05
389.082	4.06
389.443	4.05
389.804	4.05
390.165	4.03
390.526	4.06
390.887	4.06
391.248	4.05
391.609	4.03
391.969	4.05
392.33	4.04
392.691	4.05
393.051	4.04
393.412	4.07
393.772	4.07
394.133	4.13
394.493	4.11
394.854	4.21
395.214	4.22
395.574	4.22
395.935	4.23
396.295	4.21
396.655	4.19
397.015	4.22
397.376	4.25
397.736	4.26
398.096	4.26
398.456	4.27
398.816	4.24
399.176	4.21
399.535	4.21
399.895	4.23
400.255	4.2
400.615	4.22
400.975	4.18
401.334	4.17
401.694	4.15
402.054	4.16
402.413	4.17
402.773	4.2
403.132	4.18
403.492	4.17
403.851	4.15
404.211	4.17
404.57	4.15
404.929	4.15
405.288	4.14
405.648	4.12
406.007	4.12
406.366	4.16
406.725	4.16
407.084	4.19
407.443	4.2
407.802	4.23
408.161	4.24
408.52	4.26
408.879	4.28
409.238	4.31
409.596	4.29
409.955	4.28
410.314	4.24
410.673	4.27
411.031	4.28
411.39	4.34
411.748	4.34
412.107	4.35
412.465	4.32
412.824	4.34
413.182	4.4
413.54	4.41
413.899	4.39
414.257	4.42
414.615	4.41
414.974	4.42
415.332	4.44
415.69	4.44
416.048	4.46
416.406	4.42
416.764	4.42
417.122	4.45
417.48	4.43
417.838	4.45
418.195	4.44
418.553	4.44
418.911	4.42
419.269	4.43
419.626	4.43
419.984	4.44
420.342	4.45
420.699	4.44
421.057	4.45
421.414	4.45
421.772	4.46
422.129	4.46
422.486	4.45
422.844	4.42
423.201	4.42
423.558	4.41
423.915	4.42
424.273	4.42
424.63	4.43
424.987	4.44
425.344	4.43
425.701	4.43
426.058	4.42
426.415	4.42
426.772	4.41
427.128	4.44
427.485	4.46
427.842	4.44
428.199	4.42
428.555	4.42
428.912	4.42
429.269	4.41
429.625	4.41
429.982	4.43
430.338	4.47
430.695	4.46
431.051	4.46
431.407	4.46
431.764	4.49
432.12	4.47
432.476	4.46
432.832	4.47
433.189	4.47
433.545	4.5
433.901	4.51
434.257	4.49
434.613	4.48
434.969	4.47
435.325	4.49
435.681	4.51
436.036	4.49
436.392	4.5
436.748	4.51
437.104	4.54
437.459	4.54
437.815	4.53
438.171	4.54
438.526	4.53
438.882	4.54
439.237	4.54
439.593	4.56
439.948	4.58
440.304	4.56
440.659	4.57
441.014	4.56
441.369	4.56
441.725	4.58
442.08	4.58
442.435	4.58
442.79	4.58
443.145	4.58
443.5	4.59
443.855	4.6
444.21	4.6
444.565	4.58
444.92	4.59
445.275	4.6
445.629	4.59
445.984	4.6
446.339	4.61
446.693	4.61
447.048	4.61
447.403	4.58
447.757	4.6
448.112	4.62
448.466	4.63
448.82	4.64
449.175	4.65
449.529	4.64
449.883	4.65
450.238	4.67
450.592	4.65
450.946	4.64
451.3	4.66
451.654	4.65
452.008	4.65
452.362	4.65
452.716	4.65
453.07	4.65
453.424	4.67
453.778	4.67
454.132	4.66
454.486	4.67
454.839	4.68
455.193	4.71
455.547	4.71
455.9	4.71
456.254	4.69
456.607	4.68
456.961	4.69
457.314	4.69
457.668	4.7
458.021	4.7
458.375	4.71
458.728	4.68
459.081	4.71
459.434	4.69
459.787	4.7
460.141	4.71
460.494	4.73
460.847	4.72
461.2	4.72
461.553	4.74
461.906	4.73
462.259	4.74
462.611	4.74
462.964	4.74
463.317	4.74
463.67	4.78
464.022	4.79
464.375	4.78
464.728	4.76
465.08	4.79
465.433	4.82
465.785	4.82
466.138	4.84
466.49	4.82
466.843	4.87
467.195	4.87
467.547	4.88
467.899	4.87
468.252	4.87
468.604	4.87
468.956	4.87
469.308	4.86
469.66	4.86
470.012	4.87
470.364	4.86
470.716	4.86
471.068	4.85
471.42	4.87
471.772	4.89
472.123	4.93
472.475	4.93
472.827	4.91
473.178	4.92
473.53	4.9
473.882	4.92
474.233	4.91
474.585	4.91
474.936	4.88
475.288	4.88
475.639	4.9
475.99	4.91
476.342	4.93
476.693	4.94
477.044	4.94
477.395	4.93
477.746	4.92
478.097	4.93
478.448	4.9
478.8	4.88
479.15	4.86
479.501	4.84
479.852	4.84
480.203	4.87
480.554	4.88
480.905	4.89
481.255	4.91
481.606	4.91
481.957	4.9
482.307	4.92
482.658	4.93
483.009	4.92
483.359	4.93
483.709	4.92
484.06	4.93
484.41	4.94
484.761	4.95
485.111	4.95
485.461	4.96
485.811	4.97
486.162	4.99
486.512	5
486.862	5.01
487.212	5.02
487.562	5.01
487.912	5.01
488.262	5.01
488.612	5
488.961	5.01
489.311	5.01
489.661	5.02
490.011	5.02
490.36	5.02
490.71	5.02
491.06	5.03
491.409	5.02
491.759	5.02
492.108	5.02
492.458	5.04
492.807	5.04
493.157	5.05
493.506	5.04
493.855	5.04
494.204	5.06
494.554	5.05
494.903	5.07
495.252	5.08
495.601	5.11
495.95	5.13
496.299	5.14
496.648	5.16
496.997	5.17
497.346	5.17
497.695	5.18
498.043	5.22
498.392	5.21
498.741	5.23
499.09	5.24
499.438	5.24
499.787	5.23
500.135	5.24
500.484	5.21
500.832	5.21
501.181	5.21
501.529	5.21
501.878	5.21
502.226	5.21
502.574	5.21
502.923	5.19
503.271	5.19
503.619	5.2
503.967	5.19
504.315	5.18
504.663	5.2
505.011	5.18
505.359	5.16
505.707	5.15
506.055	5.15
506.403	5.15
506.751	5.16
507.098	5.16
507.446	5.17
507.794	5.2
508.141	5.22
508.489	5.22
508.837	5.19
509.184	5.22
509.531	5.22
509.879	5.21
510.226	5.22
510.574	5.22
510.921	5.2
511.268	5.22
511.616	5.24
511.963	5.21
512.31	5.23
512.657	5.23
513.004	5.26
513.351	5.26
513.698	5.28
514.045	5.26
514.392	5.25
514.739	5.24
515.086	5.23
515.432	5.23
515.779	5.25
516.126	5.28
516.473	5.25
516.819	5.25
517.166	5.23
517.512	5.23
517.859	5.23
518.205	5.24
518.552	5.24
518.898	5.24
519.245	5.24
519.591	5.25
519.937	5.25
520.283	5.25
520.629	5.24
520.976	5.24
521.322	5.24
521.668	5.26
522.014	5.27
522.36	5.3
522.706	5.32
523.052	5.33
523.398	5.32
523.743	5.33
524.089	5.31
524.435	5.35
524.781	5.35
525.126	5.38
525.472	5.39
525.817	5.38
526.163	5.38
526.509	5.39
526.854	5.39
527.199	5.41
527.545	5.43
527.89	5.44
528.235	5.43
528.581	5.44
528.926	5.44
529.271	5.44
529.616	5.43
529.961	5.42
530.306	5.43
530.651	5.44
530.996	5.46
531.341	5.49
531.686	5.47
532.031	5.48
532.376	5.47
532.721	5.47
533.065	5.48
533.41	5.48
533.755	5.49
534.099	5.5
534.444	5.49
534.788	5.46
535.133	5.46
535.477	5.47
535.822	5.48
536.166	5.5
536.51	5.49
536.855	5.5
537.199	5.51
537.543	5.51
537.887	5.49
538.231	5.47
538.576	5.47
538.92	5.49
539.264	5.5
539.608	5.51
539.951	5.51
540.295	5.5
540.639	5.52
540.983	5.5
541.327	5.49
541.671	5.48
542.014	5.5
542.358	5.51
542.701	5.52
543.045	5.52
543.389	5.53
543.732	5.53
544.075	5.52
544.419	5.52
544.762	5.52
545.105	5.53
545.449	5.55
545.792	5.55
546.135	5.56
546.478	5.58
546.821	5.59
547.165	5.61
547.508	5.63
547.851	5.62
548.194	5.63
548.536	5.64
548.879	5.65
549.222	5.66
549.565	5.66
549.908	5.66
550.25	5.64
550.593	5.65
550.936	5.66
551.278	5.67
551.621	5.66
551.963	5.66
552.306	5.68
552.648	5.66
552.991	5.62
553.333	5.63
553.675	5.62
554.017	5.59
554.36	5.61
554.702	5.59
555.044	5.65
555.386	5.66
555.728	5.65
556.07	5.64
556.412	5.62
556.754	5.63
557.096	5.62
557.438	5.63
557.78	5.61
558.121	5.61
558.463	5.65
558.805	5.67
559.147	5.69
559.488	5.67
559.83	5.67
560.171	5.64
560.513	5.63
560.854	5.62
561.196	5.66
561.537	5.67
561.878	5.7
562.22	5.66
562.561	5.68
562.902	5.7
563.243	5.71
563.584	5.73
563.925	5.76
564.266	5.72
564.607	5.71
564.948	5.74
565.289	5.73
565.63	5.69
565.971	5.68
566.312	5.65
566.653	5.67
566.993	5.65
567.334	5.73
567.675	5.7
568.015	5.73
568.356	5.72
568.696	5.68
569.037	5.67
569.377	5.67
569.718	5.66
570.058	5.67
570.398	5.7
570.739	5.66
571.079	5.62
571.419	5.62
571.759	5.63
572.099	5.62
572.439	5.63
572.779	5.65
573.119	5.66
573.459	5.66
573.799	5.66
574.139	5.66
574.479	5.64
574.819	5.65
575.158	5.65
575.498	5.63
575.838	5.65
576.177	5.64
576.517	5.67
576.856	5.65
577.196	5.63
577.535	5.62
577.875	5.66
578.214	5.69
578.553	5.69
578.893	5.69
579.232	5.69
579.571	5.72
579.91	5.69
580.25	5.67
580.589	5.67
580.928	5.66
581.267	5.69
581.606	5.69
581.945	5.7
582.283	5.71
582.622	5.71
582.961	5.72
583.3	5.71
583.639	5.66
583.977	5.68
584.316	5.68
584.654	5.62
584.993	5.64
585.332	5.66
585.67	5.71
586.008	5.73
586.347	5.76
586.685	5.67
587.024	5.65
587.362	5.69
587.7	5.73
588.038	5.78
588.376	5.77
588.715	5.77
589.053	5.74
589.391	5.68
589.729	5.7
590.067	5.7
590.404	5.75
590.742	5.75
591.08	5.74
591.418	5.73
591.756	5.8
592.093	5.77
592.431	5.81
592.769	5.8
593.106	5.82
593.444	5.81
593.781	5.85
594.119	5.9
594.456	5.87
594.793	5.85
595.131	5.81
595.468	5.83
595.805	5.82
596.143	5.85
596.48	5.86
596.817	5.85
597.154	5.86
597.491	5.86
597.828	5.92
598.165	5.97
598.502	6
598.839	6.01
599.176	6.06
599.512	6
599.849	5.99
600.186	5.96
600.523	5.95
600.859	6
601.196	6.01
601.532	6.03
601.869	6.05
602.205	6.07
602.542	6.07
602.878	6.08
603.215	6.09
603.551	6.14
603.887	6.15
604.223	6.13
604.56	6.15
604.896	6.15
605.232	6.08
605.568	6.08
605.904	6.07
606.24	6.06
606.576	6.1
606.912	6.09
607.248	6.13
607.583	6.15
607.919	6.11
608.255	6.13
608.591	6.16
608.926	6.18
609.262	6.16
609.597	6.16
609.933	6.18
610.268	6.2
610.604	6.15
610.939	6.21
611.275	6.2
611.61	6.19
611.945	6.14
612.281	6.22
612.616	6.24
612.951	6.28
613.286	6.22
613.621	6.2
613.956	6.27
614.291	6.23
614.626	6.24
614.961	6.28
615.296	6.25
615.631	6.22
615.966	6.13
616.3	6.14
616.635	6.16
616.97	6.13
617.304	6.13
617.639	6.15
617.973	6.05
618.308	6.08
618.642	6.1
618.977	6.08
619.311	6.06
619.646	6.03
619.98	5.94
620.314	5.99
620.648	6.01
620.983	5.96
621.317	5.97
621.651	5.95
621.985	5.93
622.319	5.95
622.653	5.96
622.987	5.99
623.321	6.06
623.655	6.08
623.988	6.14
624.322	6.13
624.656	6.13
624.99	6.19
625.323	6.17
625.657	6.16
625.99	6.23
626.324	6.21
626.657	6.24
626.991	6.28
627.324	6.23
627.658	6.23
627.991	6.25
628.324	6.24
628.657	6.26
628.991	6.25
629.324	6.26
629.657	6.2
629.99	6.23
630.323	6.16
630.656	6.17
630.989	6.12
631.322	6.15
631.655	6.16
631.987	6.13
632.32	6.14
632.653	6.14
632.986	6.07
633.318	6.13
633.651	6.11
633.984	6.14
634.316	6.21
634.649	6.22
634.981	6.23
635.313	6.22
635.646	6.21
635.978	6.25
636.31	6.23
636.643	6.29
636.975	6.27
637.307	6.31
637.639	6.33
637.971	6.3
638.303	6.26
638.635	6.27
638.967	6.31
639.299	6.32
639.631	6.25
639.963	6.33
640.295	6.29
640.626	6.32
640.958	6.28
641.29	6.21
641.621	6.21
641.953	6.19
642.285	6.21
642.616	6.2
642.948	6.14
643.279	6.12
643.61	6.14
643.942	6.15
644.273	6.17
644.604	6.12
644.936	6.18
645.267	6.18
645.598	6.17
645.929	6.15
646.26	6.09
646.591	6.22
646.922	6.22
647.253	6.24
647.584	6.21
647.915	6.23
648.245	6.29
648.576	6.3
648.907	6.28
649.238	6.25
649.568	6.31
649.899	6.29
650.229	6.32
650.56	6.33
650.89	6.31
651.221	6.31
651.551	6.32
651.882	6.32
652.212	6.31
652.542	6.38
652.872	6.39
653.203	6.41
653.533	6.39
653.863	6.39
654.193	6.38
654.523	6.35
654.853	6.41
655.183	6.33
655.513	6.34
655.843	6.32
656.172	6.42
656.502	6.35
656.832	6.46
657.162	6.46
657.491	6.48
657.821	6.55
658.15	6.51
658.48	6.53
658.809	6.49
659.139	6.5
659.468	6.43
659.798	6.43
660.127	6.47
660.456	6.45
660.785	6.42
661.115	6.44
661.444	6.5
661.773	6.43
662.102	6.51
662.431	6.54
662.76	6.55
663.089	6.53
663.418	6.62
663.747	6.57
664.076	6.57
664.404	6.57
664.733	6.58
665.062	6.57
665.39	6.55
665.719	6.68
666.048	6.71
666.376	6.79
666.705	6.82
667.033	6.83
667.362	6.81
667.69	6.8
668.018	6.86
668.347	6.82
668.675	6.91
669.003	6.9
669.331	6.82
669.659	6.81
669.987	6.75
670.315	6.69
670.643	6.72
670.971	6.77
671.299	6.67
671.627	6.64
671.955	6.62
672.283	6.64
672.61	6.59
672.938	6.66
673.266	6.65
673.593	6.5
673.921	6.54
674.249	6.58
674.576	6.66
674.904	6.62
675.231	6.53
675.558	6.46
675.886	6.41
676.213	6.42
676.54	6.47
676.867	6.52
677.195	6.6
677.522	6.59
677.849	6.55
678.176	6.68
678.503	6.69
678.83	6.77
679.157	6.73
679.484	6.73
679.81	6.65
680.137	6.63
680.464	6.85
680.791	6.84
681.117	6.83
681.444	6.79
681.771	6.77
682.097	6.86
682.424	6.87
682.75	6.95
683.077	7.09
683.403	7.16
683.729	7.18
684.056	7.07
684.382	7.03
684.708	7.09
685.034	7.07
685.36	6.98
685.686	7.03
686.012	7.11
686.339	7.01
686.664	7.03
686.99	6.99
687.316	6.84
687.642	6.79
687.968	6.79
688.294	6.83
688.619	6.87
688.945	7.01
689.271	7
689.596	6.95
689.922	6.93
690.247	6.8
690.573	6.74
690.898	6.82
691.224	6.87
691.549	6.86
691.874	6.83
692.2	6.92
692.525	6.86
692.85	6.85
693.175	6.92
693.5	6.89
693.825	6.89
694.15	6.98
694.475	7.03
694.8	7.03
695.125	6.98
695.45	6.89
695.775	6.87
696.099	7.01
696.424	7.07
696.749	6.92
697.073	7.01
697.398	7.03
697.723	7.05
698.047	7.08
698.372	7.04
698.696	7.08
699.02	7.13
699.345	7.15
699.669	7.12
699.993	7.15
700.318	7.23
700.642	7.28
700.966	7.27
701.29	7.31
701.614	7.26
701.938	7.25
702.262	7.29
702.586	7.33
702.91	7.26
703.234	7.24
703.557	7.47
703.881	7.51
704.205	7.6
704.529	7.63
704.852	7.66
705.176	7.78
705.499	7.87
705.823	7.97
706.146	7.94
706.47	8
706.793	8.16
707.117	8.13
707.44	8.13
707.763	8.05
708.086	8.01
708.409	8.19
708.733	8.15
709.056	8.12
709.379	7.99
709.702	8.03
710.025	8.17
710.348	8.06
710.671	8.08
710.993	8.14
711.316	8.18
711.639	8.14
711.962	8.2
712.284	8.01
712.607	7.9
712.93	7.91
713.252	7.91
713.575	7.9
713.897	7.81
714.22	7.84
714.542	7.87
714.864	7.81
715.187	7.62
715.509	7.77
715.831	7.87
716.153	7.87
716.475	7.87
716.798	7.75
717.12	7.86
717.442	7.83
717.764	7.62
718.085	7.56
718.407	7.53
718.729	7.37
719.051	7.56
719.373	7.69
719.695	7.73
720.016	7.83
720.338	7.74
720.659	7.77
720.981	7.68
721.302	7.73
721.624	7.8
721.945	7.86
722.267	7.81
722.588	7.83
722.909	7.78
723.231	7.61
723.552	7.68
723.873	7.35
724.194	7.38
724.515	7.6
724.836	7.39
725.157	7.48
725.478	7.5
725.799	7.53
726.12	7.46
726.441	7.56
726.762	7.53
727.083	7.59
727.403	7.72
727.724	7.82
728.045	7.75
728.365	7.66
728.686	7.65
729.006	7.56
729.327	7.65
729.647	7.71
729.967	7.77
730.288	7.63
730.608	7.93
730.928	7.94
731.249	8.05
731.569	8.27
731.889	8.15
732.209	8.13
732.529	8.14
732.849	8.18
733.169	8.07
733.489	7.88
733.809	7.85
734.129	8
734.448	7.96
734.768	8.11
735.088	8.32
735.408	8.45
735.727	8.5
736.047	8.49
736.366	8.49
736.686	8.48
737.005	8.47
737.325	8.36
737.644	8.19
737.963	8.08
738.283	8.01
738.602	8.05
738.921	8.24
739.24	8.1
739.56	8.17
739.879	8.07
740.198	8.27
740.517	8.26
740.836	8.06
741.155	8.37
741.473	8.24
741.792	7.84
742.111	7.62
742.43	7.71
742.748	7.59
743.067	7.45
743.386	7.41
743.704	7.59
744.023	7.54
744.341	7.68
744.66	7.58
744.978	7.66
745.297	7.6
745.615	7.36
745.933	7.5
746.252	7.18
746.57	7.3
746.888	7.46
747.206	7.56
747.524	7.46
747.842	7.03
748.16	7.3
748.478	7.36
748.796	7.65
749.114	7.53
749.432	7.53
749.749	7.73
750.067	8.18
750.385	8.37
750.703	8.15
751.02	7.98
751.338	8.02
751.655	8.03
751.973	8.12
752.29	8.25
752.608	8.08
752.925	8.2
753.242	8.52
753.56	8.2
753.877	8.1
754.194	8.22
754.511	8.15
754.828	7.61
755.145	7.68
755.462	7.62
755.779	7.77
756.096	7.85
756.413	8.06
756.73	7.68
757.047	7.35
757.364	7.56
757.68	7.66
757.997	7.45
758.314	7.46
758.63	7.5
758.947	7.64
759.264	7.51
759.58	7.71
759.896	7.43
760.213	7.65
760.529	7.73
760.846	7.64
761.162	7.68
761.478	7.95
761.794	8.25
762.11	8.28
762.426	7.97
762.743	8.06
763.059	7.99
763.375	8.16
763.69	8.24
764.006	8.09
764.322	8.36
764.638	8.62
764.954	8.61
765.27	8.73
765.585	8.64
765.901	8.78
766.216	8.47
766.532	8.48
766.848	8.41
767.163	8.24
767.478	8.55
767.794	8.63
768.109	8.72
768.424	8.33
768.74	8.25
769.055	8.68
769.37	8.43
769.685	8.39
770	8.34
770.315	8.19
770.63	8.41
770.945	8.37
771.26	8.12
771.575	7.87
771.89	7.8
772.205	7.9
772.52	7.85
772.834	8.09
773.149	8.13
773.464	8.17
773.778	8.36
774.093	8.15
774.407	8.19
774.722	7.83
775.036	8.05
775.351	8.47
775.665	8.61
775.979	8.96
776.293	8.9
776.608	8.77
776.922	9
777.236	9.04
777.55	8.66
777.864	8.94
778.178	9.02
778.492	8.67
778.806	8.38
779.12	8.27
779.434	8.26
779.747	8.16
780.061	8.31
780.375	8.3
780.689	8.34
781.002	8.39
781.316	8.74
781.629	8.71
781.943	8.85
782.256	8.11
782.57	8.19
782.883	8.12
783.196	7.94
783.51	7.92
783.823	7.96
784.136	7.81
784.449	7.21
784.762	7.87
785.075	8.22
785.388	8.32
785.701	8.38
786.014	8.27
786.327	7.85
786.64	7.43
786.953	7.3
787.266	7.25
787.578	7.19
787.891	7.44
788.204	7.53
788.516	7.11
788.829	7.76
789.141	7.91
789.454	7.78
789.766	8.12
790.079	7.96
790.391	8.02
790.703	8.23
791.016	8.34
791.328	8.4
791.64	8.33
791.952	8.85
792.264	8.83
792.576	9.28
792.888	10.28
793.2	10.2
793.512	10.72
793.824	10.97
794.136	10.98
794.448	10.39
794.76	10.82
795.071	10.61
795.383	10.36
795.695	9.94
796.006	10.21
796.318	10.22
796.629	11.11
796.941	11.47
797.252	11.53
797.564	12.19
797.875	11.65
798.186	11.83
798.497	11.32
798.809	11.4
799.12	11.07
799.431	10.53
799.742	11.24
800.053	10.86
800.364	10.5
800.675	10.86
800.986	11.08
801.297	11.15
801.608	11.34
801.918	11.5
802.229	11.49
802.54	11.45
802.851	11.51
803.161	10.91
803.472	10.76
803.782	11.3
804.093	10.93
804.403	10.64
804.714	10.87
805.024	10.9
805.334	10.86
805.645	11.15
805.955	11.61
806.265	11.48
806.575	11.48
806.885	11.27
807.195	11.21
807.505	11.43
807.815	11.41
808.125	11.52
808.435	11.53
808.745	11.69
809.055	12.02
809.365	12.36
809.674	12.33
809.984	12
810.294	11
810.603	10.8
810.913	11.31
811.222	11.24
811.532	11.73
811.841	12.47
812.151	12.33
812.46	11.97
812.769	11.24
813.079	11.46
813.388	11.16
813.697	10.81
814.006	10.99
814.315	10.71
814.624	11.41
814.933	11.25
815.242	11.2
815.551	10.97
815.86	10.58
816.169	10.7
816.478	10.8
816.786	11.16
817.095	11.15
817.404	10.69
817.712	10.64
818.021	9.96
818.33	9.23
818.638	9.91
818.947	10.47
819.255	10.71
819.563	10.79
819.872	10.97
820.18	11.19
820.488	11
820.796	11.06
821.105	11.14
821.413	11.15
821.721	11.09
822.029	11.06
822.337	10.98
822.645	10.86
822.953	10.94
823.26	11.05
823.568	11.2
823.876	11.29
824.184	11.23
824.491	11.49
824.799	11.61
825.107	11.4
825.414	11.34
825.722	11.52
826.029	11.51
826.337	11.65
826.644	11.71
826.951	11.88
827.259	11.98
827.566	11.71
827.873	11.81
828.18	11.81
828.488	11.85
828.795	12.01
829.102	12.25
829.409	12
829.716	12.08
830.023	12.32
830.329	12.42
830.636	12.54
830.943	12.13
831.25	11.92
831.557	12.08
831.863	11.92
832.17	11.49
832.476	11.56
832.783	11.55
833.089	11.44
833.396	10.88
833.702	10.79
834.009	10.86
834.315	10.92
834.621	10.98
834.928	10.73
835.234	10.81
835.54	10.42
835.846	10.55
836.152	10.5
836.458	9.84
836.764	9.85
837.07	9.77
837.376	9.69
837.682	10
837.988	10.22
838.293	10.51
838.599	10.72
838.905	10.65
839.211	10.9
839.516	10.23
839.822	11.25
840.127	11.24
840.433	11.03
840.738	11.09
841.044	11.43
841.349	11.59
841.654	10.76
841.959	11.9
842.265	11.97
842.57	11.53
842.875	11.18
843.18	10.89
843.485	10.46
843.79	11.57
844.095	12.14
844.4	11.38
844.705	11.03
845.01	11.99
845.315	10.94
845.619	11.19
845.924	12.07
846.229	12.56
846.533	11.31
846.838	11.96
847.142	10.77
847.447	10.75
847.751	10.84
848.056	12.1
848.36	10.06
848.664	11.02
848.969	11.51
849.273	13.34
849.577	13.37
849.881	14.37
850.185	13.75
850.489	12.01
850.794	12.67
851.097	12.62
851.401	9.03
851.705	11.18
852.009	10.07
852.313	9.77
852.617	8.25
852.92	8.85
853.224	7.69
853.528	8.78
853.831	10.86
854.135	12.56
854.438	12.02
854.742	14.47
855.045	14.63
855.349	13.58
855.652	12.3
855.955	11.98
856.259	12.8
856.562	13.23
856.865	12.82
857.168	13.37
857.471	13.46
857.774	17.78
858.077	15.75
858.38	16.99
858.683	18.67
858.986	18.76
859.289	20.62
859.592	23.55
859.894	22.91
860.197	21.43
860.5	21.38
860.802	21.35
861.105	19.49
861.407	19.05
861.71	18.29
862.012	19.08
862.315	19.7
862.617	17.86
862.919	17.07
863.222	16.31
863.524	13.9
863.826	11.84
864.128	11.48
864.43	13.58
864.732	11.56
865.034	10.31
865.336	10.01
865.638	8.84
865.94	7.96
866.242	9.32
866.544	9.62
866.846	10.46
867.147	11.35
867.449	12.98
867.751	12.36
868.052	13.36
868.354	14.01
868.655	12.84
868.957	13.27
869.258	13.82
869.56	18.15
869.861	19.28
870.162	20.6
870.463	21.19
870.765	19.43
871.066	18.8
871.367	18.79
871.668	18.29
871.969	19.2
872.27	19.43
872.571	16.93
872.872	16.46
873.173	15.16
873.473	13.83
873.774	13.31
874.075	12.57
874.376	10.98
874.676	9.83
874.977	12.89
875.277	13.34
875.578	12.63
875.878	10.17
876.179	10.28
876.479	10.47
876.78	8.08
877.08	8.7
877.38	9.49
877.68	8.35
877.981	8.89
878.281	7.4
878.581	5.58
