Data from MVZ_BU5182_Reflection_00009.txt Node
Date: Tue Nov 19 12:19:21 EST 2019
User: vgr7
Spectrometer: USB2G7710
Scans to average: 3
Trigger mode: 4
Integration Time (sec): 2.000000E-2
Electric dark correction enabled: true
Boxcar width: 10
XAxis mode: Wavelengths
Number of Pixels in Spectrum: 2048
>>>>>Begin Spectral Data<<<<<
177.721	36.3
178.105	88.7
178.488	102.91
178.871	79.76
179.254	44.44
179.636	53.05
180.019	4.42
180.402	109.09
180.785	188.51
181.168	-209.52
181.55	201.31
181.933	140.88
182.316	172.65
182.698	70.13
183.081	41.37
183.463	11.03
183.846	27.02
184.228	48.39
184.611	52.98
184.993	47.28
185.376	53.13
185.758	66.89
186.14	69.47
186.522	61.91
186.904	67.79
187.287	78
187.669	93.22
188.051	76.77
188.433	89.73
188.815	109.19
189.197	117.29
189.579	113.78
189.961	88.67
190.342	102.81
190.724	101.41
191.106	162.27
191.488	176.89
191.869	160.51
192.251	154.68
192.633	140.12
193.014	136.61
193.396	116.43
193.777	104.56
194.159	112.04
194.54	128.69
194.922	109.18
195.303	94.35
195.684	72.49
196.065	80.86
196.447	77.79
196.828	64.36
197.209	62.98
197.59	62.34
197.971	72.68
198.352	75.82
198.733	74.12
199.114	65.91
199.495	74.4
199.876	95.26
200.257	79.01
200.638	80.02
201.018	75.83
201.399	63.59
201.78	78.95
202.16	87.96
202.541	101.56
202.922	94.17
203.302	96.26
203.683	115.63
204.063	108.26
204.444	107.14
204.824	94.85
205.204	91.05
205.585	87.66
205.965	86.58
206.345	78.91
206.725	78.06
207.106	74.57
207.486	59.38
207.866	53.03
208.246	52.55
208.626	50.98
209.006	44.56
209.386	48.46
209.766	40.36
210.145	31.9
210.525	31.24
210.905	36.69
211.285	42.61
211.664	37.4
212.044	34.68
212.424	41.25
212.803	43.24
213.183	51.31
213.562	57.4
213.942	55.7
214.321	43.61
214.701	32.06
215.08	28.86
215.459	51.89
215.838	30.74
216.218	38.42
216.597	41.94
216.976	36.1
217.355	35.9
217.734	27.6
218.113	39.85
218.492	41.07
218.871	32.54
219.25	22.92
219.629	20.28
220.008	31.47
220.387	24.24
220.766	28.24
221.144	24.42
221.523	14.9
221.902	11.12
222.28	19.61
222.659	30.26
223.037	32.71
223.416	26.95
223.794	36.68
224.173	35.43
224.551	29.02
224.929	35.46
225.308	32.31
225.686	30.81
226.064	25.22
226.442	19.49
226.821	21.94
227.199	21.47
227.577	20.94
227.955	16.52
228.333	17.15
228.711	18.15
229.089	19.26
229.467	19.55
229.845	19.85
230.222	19.89
230.6	13.82
230.978	13.99
231.356	14.82
231.733	13.18
232.111	11.99
232.488	11.82
232.866	10.65
233.243	9.57
233.621	9.71
233.998	10.7
234.376	11.02
234.753	10.91
235.13	11.87
235.508	13.09
235.885	12.7
236.262	9.62
236.639	8.89
237.016	8.2
237.393	9.86
237.77	9.66
238.147	9.54
238.524	9.04
238.901	8.65
239.278	7.79
239.655	7.33
240.032	7.44
240.409	7.73
240.785	7.65
241.162	7.13
241.539	7.47
241.915	6.65
242.292	6.92
242.668	6.75
243.045	6.57
243.421	6.29
243.798	6.63
244.174	7
244.551	6.53
244.927	6.69
245.303	6.05
245.679	5.97
246.056	5.56
246.432	5.47
246.808	5.41
247.184	5.56
247.56	5.37
247.936	5.22
248.312	5.04
248.688	4.78
249.064	5.06
249.44	4.8
249.815	4.92
250.191	4.72
250.567	4.66
250.943	4.6
251.318	4.66
251.694	4.09
252.069	4.08
252.445	4.34
252.82	4.08
253.196	4.5
253.571	4.79
253.947	4.68
254.322	4.96
254.697	4.81
255.073	4.61
255.448	4.63
255.823	4.62
256.198	4.7
256.573	4.61
256.948	4.54
257.323	4.81
257.698	4.84
258.073	4.9
258.448	4.78
258.823	4.59
259.198	4.48
259.573	4.37
259.948	4.5
260.322	4.27
260.697	4.27
261.072	4.3
261.446	4.19
261.821	4.12
262.195	4.09
262.57	4.21
262.944	4.15
263.319	4.3
263.693	4.32
264.067	4.27
264.442	4.51
264.816	4.51
265.19	4.34
265.564	4.24
265.938	4.26
266.313	4.14
266.687	4.35
267.061	4.09
267.435	4.37
267.809	4.06
268.183	4.23
268.556	4.2
268.93	4.2
269.304	4.08
269.678	4.22
270.051	4.24
270.425	3.94
270.799	3.84
271.172	3.83
271.546	3.96
271.919	4.16
272.293	4.02
272.666	4.1
273.04	4.07
273.413	4.19
273.787	4.15
274.16	4.33
274.533	4.26
274.906	4.48
275.279	4.49
275.653	4.56
276.026	4.6
276.399	4.55
276.772	4.55
277.145	4.64
277.518	4.53
277.891	4.53
278.263	4.85
278.636	5.39
279.009	5.52
279.382	5.34
279.755	5.08
280.127	5.12
280.5	5.03
280.872	5.11
281.245	5.06
281.617	5.04
281.99	4.96
282.362	4.87
282.735	4.77
283.107	4.82
283.479	4.85
283.852	4.77
284.224	4.89
284.596	4.79
284.968	4.73
285.34	4.73
285.713	4.65
286.085	4.5
286.457	4.29
286.829	4.01
287.201	4.04
287.572	4.07
287.944	4.19
288.316	4.19
288.688	4.38
289.06	4.17
289.431	4.21
289.803	4.3
290.175	4.42
290.546	4.4
290.918	4.46
291.289	4.39
291.661	4.38
292.032	4.23
292.403	4.28
292.775	4.45
293.146	4.62
293.517	4.69
293.889	4.77
294.26	4.72
294.631	5
295.002	5.03
295.373	4.95
295.744	4.88
296.115	4.8
296.486	4.66
296.857	4.82
297.228	4.75
297.599	4.65
297.97	4.61
298.34	4.65
298.711	4.69
299.082	4.91
299.452	4.85
299.823	4.84
300.194	4.71
300.564	4.57
300.935	4.55
301.305	4.64
301.676	4.55
302.046	4.53
302.416	4.36
302.787	4.45
303.157	4.65
303.527	4.88
303.897	4.86
304.267	4.84
304.637	4.91
305.008	4.92
305.378	5.02
305.748	5.1
306.117	5.18
306.487	5.19
306.857	5.15
307.227	5.37
307.597	5.44
307.967	5.61
308.336	5.58
308.706	5.63
309.076	5.73
309.445	5.92
309.815	5.93
310.184	5.91
310.554	5.92
310.923	5.94
311.293	5.85
311.662	6.16
312.031	6.16
312.401	6.11
312.77	6.1
313.139	6.11
313.508	6.13
313.877	6.27
314.246	6.14
314.616	6.12
314.985	6.19
315.353	6.3
315.722	6.47
316.091	6.73
316.46	6.72
316.829	6.73
317.198	6.86
317.567	7.08
317.935	7.38
318.304	7.56
318.672	7.56
319.041	7.38
319.41	7.01
319.778	7.25
320.147	7.44
320.515	7.72
320.883	7.81
321.252	7.88
321.62	8.03
321.988	8.14
322.357	8.21
322.725	8.02
323.093	7.96
323.461	7.88
323.829	7.84
324.197	7.9
324.565	7.81
324.933	7.7
325.301	7.36
325.669	7.13
326.037	7.1
326.405	7.24
326.772	7.52
327.14	7.64
327.508	7.63
327.875	7.67
328.243	7.54
328.61	7.48
328.978	7.51
329.346	7.34
329.713	7.3
330.08	7.33
330.448	7.37
330.815	7.46
331.182	7.48
331.55	7.53
331.917	7.54
332.284	7.55
332.651	7.57
333.018	7.88
333.385	8.08
333.752	8.09
334.119	8.09
334.486	7.99
334.853	8.04
335.22	8.01
335.587	8.05
335.954	8.11
336.32	8.23
336.687	8.17
337.054	8.31
337.42	8.41
337.787	8.47
338.153	8.56
338.52	8.68
338.886	8.59
339.253	8.56
339.619	8.51
339.986	8.55
340.352	8.5
340.718	8.51
341.084	8.59
341.451	8.52
341.817	8.56
342.183	8.5
342.549	8.58
342.915	8.6
343.281	8.64
343.647	8.76
344.013	8.77
344.379	8.9
344.745	8.88
345.11	8.98
345.476	9.03
345.842	9.01
346.208	9.01
346.573	9.03
346.939	9.04
347.304	9.19
347.67	9.13
348.035	9.13
348.401	9.07
348.766	9.02
349.132	9.18
349.497	9.06
349.862	9.13
350.228	9.12
350.593	9.02
350.958	8.96
351.323	8.8
351.688	8.85
352.053	8.71
352.418	8.66
352.783	8.58
353.148	8.51
353.513	8.47
353.878	8.25
354.243	8.25
354.608	8.2
354.972	8.08
355.337	8.17
355.702	8.2
356.066	8.3
356.431	8.26
356.795	8.16
357.16	8.28
357.524	8.28
357.889	8.29
358.253	8.36
358.618	8.36
358.982	8.34
359.346	8.31
359.71	8.33
360.075	8.36
360.439	8.35
360.803	8.31
361.167	8.29
361.531	8.41
361.895	8.43
362.259	8.49
362.623	8.54
362.987	8.47
363.351	8.46
363.714	8.39
364.078	8.42
364.442	8.37
364.806	8.29
365.169	8.24
365.533	8.24
365.896	8.22
366.26	8.21
366.623	8.22
366.987	8.22
367.35	8.27
367.714	8.15
368.077	8.13
368.44	8.18
368.803	8.17
369.167	8.07
369.53	8.11
369.893	7.97
370.256	7.94
370.619	7.96
370.982	7.74
371.345	7.79
371.708	7.74
372.071	7.72
372.434	7.7
372.797	7.63
373.159	7.5
373.522	7.43
373.885	7.31
374.247	7.31
374.61	7.27
374.973	7.28
375.335	7.35
375.698	7.26
376.06	7.1
376.423	7.12
376.785	7.19
377.147	7.12
377.51	7.23
377.872	7.22
378.234	7.17
378.596	7.27
378.958	7.19
379.321	7.16
379.683	7.2
380.045	7.2
380.407	7.18
380.769	7.16
381.13	7.1
381.492	7.12
381.854	7.08
382.216	7.05
382.578	6.93
382.939	6.85
383.301	6.83
383.663	6.84
384.024	6.77
384.386	6.7
384.747	6.6
385.109	6.47
385.47	6.45
385.832	6.42
386.193	6.38
386.554	6.35
386.916	6.3
387.277	6.2
387.638	6.11
387.999	6.09
388.36	6.11
388.721	6.14
389.082	6.12
389.443	6.09
389.804	6.06
390.165	6.05
390.526	6.05
390.887	6.03
391.248	6.04
391.609	6.05
391.969	6.03
392.33	6.04
392.691	6.01
393.051	5.93
393.412	5.92
393.772	5.88
394.133	5.81
394.493	5.8
394.854	5.77
395.214	5.74
395.574	5.72
395.935	5.69
396.295	5.65
396.655	5.59
397.015	5.57
397.376	5.51
397.736	5.46
398.096	5.42
398.456	5.37
398.816	5.31
399.176	5.27
399.535	5.26
399.895	5.22
400.255	5.22
400.615	5.2
400.975	5.15
401.334	5.16
401.694	5.15
402.054	5.13
402.413	5.12
402.773	5.13
403.132	5.14
403.492	5.07
403.851	5.01
404.211	5.01
404.57	5.01
404.929	5.03
405.288	5.02
405.648	5.01
406.007	5.03
406.366	4.99
406.725	4.94
407.084	4.89
407.443	4.91
407.802	4.87
408.161	4.84
408.52	4.84
408.879	4.81
409.238	4.84
409.596	4.84
409.955	4.83
410.314	4.79
410.673	4.78
411.031	4.76
411.39	4.79
411.748	4.77
412.107	4.73
412.465	4.73
412.824	4.71
413.182	4.7
413.54	4.67
413.899	4.66
414.257	4.68
414.615	4.69
414.974	4.66
415.332	4.67
415.69	4.69
416.048	4.66
416.406	4.65
416.764	4.62
417.122	4.58
417.48	4.55
417.838	4.54
418.195	4.53
418.553	4.52
418.911	4.46
419.269	4.45
419.626	4.43
419.984	4.41
420.342	4.39
420.699	4.39
421.057	4.37
421.414	4.38
421.772	4.37
422.129	4.35
422.486	4.37
422.844	4.36
423.201	4.34
423.558	4.35
423.915	4.34
424.273	4.32
424.63	4.31
424.987	4.31
425.344	4.31
425.701	4.29
426.058	4.3
426.415	4.34
426.772	4.34
427.128	4.34
427.485	4.33
427.842	4.33
428.199	4.32
428.555	4.32
428.912	4.28
429.269	4.27
429.625	4.26
429.982	4.23
430.338	4.21
430.695	4.21
431.051	4.21
431.407	4.21
431.764	4.22
432.12	4.25
432.476	4.24
432.832	4.23
433.189	4.22
433.545	4.23
433.901	4.22
434.257	4.2
434.613	4.21
434.969	4.21
435.325	4.19
435.681	4.19
436.036	4.19
436.392	4.21
436.748	4.21
437.104	4.22
437.459	4.2
437.815	4.21
438.171	4.21
438.526	4.2
438.882	4.19
439.237	4.2
439.593	4.21
439.948	4.21
440.304	4.23
440.659	4.24
441.014	4.22
441.369	4.22
441.725	4.23
442.08	4.22
442.435	4.22
442.79	4.24
443.145	4.24
443.5	4.22
443.855	4.21
444.21	4.2
444.565	4.21
444.92	4.21
445.275	4.21
445.629	4.2
445.984	4.19
446.339	4.2
446.693	4.19
447.048	4.16
447.403	4.18
447.757	4.15
448.112	4.14
448.466	4.14
448.82	4.14
449.175	4.14
449.529	4.14
449.883	4.12
450.238	4.11
450.592	4.1
450.946	4.11
451.3	4.11
451.654	4.11
452.008	4.08
452.362	4.08
452.716	4.07
453.07	4.08
453.424	4.08
453.778	4.07
454.132	4.06
454.486	4.05
454.839	4.04
455.193	4.04
455.547	4.07
455.9	4.06
456.254	4.05
456.607	4.04
456.961	4.03
457.314	4.05
457.668	4.06
458.021	4.06
458.375	4.05
458.728	4.06
459.081	4.08
459.434	4.08
459.787	4.09
460.141	4.11
460.494	4.12
460.847	4.14
461.2	4.13
461.553	4.15
461.906	4.15
462.259	4.15
462.611	4.16
462.964	4.15
463.317	4.18
463.67	4.19
464.022	4.22
464.375	4.23
464.728	4.23
465.08	4.21
465.433	4.22
465.785	4.24
466.138	4.25
466.49	4.27
466.843	4.27
467.195	4.28
467.547	4.27
467.899	4.26
468.252	4.27
468.604	4.29
468.956	4.29
469.308	4.29
469.66	4.31
470.012	4.33
470.364	4.34
470.716	4.36
471.068	4.39
471.42	4.4
471.772	4.41
472.123	4.44
472.475	4.48
472.827	4.48
473.178	4.5
473.53	4.49
473.882	4.47
474.233	4.47
474.585	4.48
474.936	4.5
475.288	4.52
475.639	4.53
475.99	4.56
476.342	4.58
476.693	4.61
477.044	4.62
477.395	4.61
477.746	4.59
478.097	4.56
478.448	4.51
478.8	4.51
479.15	4.5
479.501	4.48
479.852	4.45
480.203	4.46
480.554	4.45
480.905	4.44
481.255	4.44
481.606	4.43
481.957	4.42
482.307	4.42
482.658	4.4
483.009	4.39
483.359	4.37
483.709	4.37
484.06	4.36
484.41	4.36
484.761	4.37
485.111	4.37
485.461	4.37
485.811	4.38
486.162	4.37
486.512	4.37
486.862	4.37
487.212	4.38
487.562	4.37
487.912	4.38
488.262	4.38
488.612	4.38
488.961	4.38
489.311	4.38
489.661	4.4
490.011	4.4
490.36	4.41
490.71	4.43
491.06	4.43
491.409	4.43
491.759	4.43
492.108	4.43
492.458	4.43
492.807	4.45
493.157	4.47
493.506	4.48
493.855	4.51
494.204	4.52
494.554	4.54
494.903	4.56
495.252	4.58
495.601	4.62
495.95	4.65
496.299	4.68
496.648	4.71
496.997	4.73
497.346	4.79
497.695	4.83
498.043	4.85
498.392	4.88
498.741	4.93
499.09	4.96
499.438	5
499.787	5.05
500.135	5.06
500.484	5.11
500.832	5.17
501.181	5.25
501.529	5.32
501.878	5.38
502.226	5.45
502.574	5.55
502.923	5.6
503.271	5.69
503.619	5.78
503.967	5.85
504.315	5.93
504.663	6.02
505.011	6.09
505.359	6.19
505.707	6.31
506.055	6.41
506.403	6.56
506.751	6.67
507.098	6.78
507.446	6.92
507.794	7.04
508.141	7.14
508.489	7.27
508.837	7.41
509.184	7.53
509.531	7.68
509.879	7.77
510.226	7.89
510.574	8.02
510.921	8.16
511.268	8.31
511.616	8.47
511.963	8.6
512.31	8.77
512.657	8.93
513.004	9.07
513.351	9.25
513.698	9.41
514.045	9.6
514.392	9.8
514.739	9.98
515.086	10.16
515.432	10.37
515.779	10.53
516.126	10.73
516.473	10.91
516.819	11.05
517.166	11.22
517.512	11.38
517.859	11.52
518.205	11.66
518.552	11.79
518.898	11.93
519.245	12.04
519.591	12.2
519.937	12.33
520.283	12.49
520.629	12.64
520.976	12.78
521.322	12.95
521.668	13.1
522.014	13.28
522.36	13.45
522.706	13.63
523.052	13.81
523.398	13.99
523.743	14.18
524.089	14.38
524.435	14.57
524.781	14.75
525.126	14.93
525.472	15.1
525.817	15.22
526.163	15.35
526.509	15.49
526.854	15.6
527.199	15.73
527.545	15.84
527.89	15.97
528.235	16.09
528.581	16.2
528.926	16.32
529.271	16.44
529.616	16.55
529.961	16.67
530.306	16.78
530.651	16.87
530.996	17.01
531.341	17.15
531.686	17.33
532.031	17.49
532.376	17.64
532.721	17.79
533.065	17.97
533.41	18.16
533.755	18.34
534.099	18.53
534.444	18.72
534.788	18.89
535.133	19.04
535.477	19.23
535.822	19.43
536.166	19.66
536.51	19.89
536.855	20.17
537.199	20.4
537.543	20.68
537.887	20.95
538.231	21.17
538.576	21.45
538.92	21.65
539.264	21.87
539.608	22.09
539.951	22.32
540.295	22.55
540.639	22.74
540.983	22.93
541.327	23.08
541.671	23.27
542.014	23.49
542.358	23.72
542.701	23.89
543.045	24.08
543.389	24.24
543.732	24.38
544.075	24.53
544.419	24.75
544.762	24.95
545.105	25.19
545.449	25.42
545.792	25.65
546.135	25.9
546.478	26.16
546.821	26.46
547.165	26.73
547.508	27.02
547.851	27.27
548.194	27.54
548.536	27.86
548.879	28.13
549.222	28.4
549.565	28.59
549.908	28.87
550.25	29.14
550.593	29.43
550.936	29.74
551.278	30.02
551.621	30.28
551.963	30.51
552.306	30.77
552.648	31.07
552.991	31.27
553.333	31.49
553.675	31.72
554.017	31.93
554.36	32.12
554.702	32.26
555.044	32.49
555.386	32.7
555.728	32.87
556.07	33.05
556.412	33.24
556.754	33.53
557.096	33.71
557.438	33.89
557.78	34.1
558.121	34.35
558.463	34.57
558.805	34.78
559.147	35.01
559.488	35.21
559.83	35.39
560.171	35.65
560.513	35.8
560.854	35.97
561.196	36.16
561.537	36.39
561.878	36.59
562.22	36.78
562.561	37.01
562.902	37.2
563.243	37.41
563.584	37.49
563.925	37.64
564.266	37.84
564.607	38
564.948	38.16
565.289	38.29
565.63	38.39
565.971	38.54
566.312	38.69
566.653	38.8
566.993	38.94
567.334	38.98
567.675	39.13
568.015	39.29
568.356	39.46
568.696	39.56
569.037	39.69
569.377	39.79
569.718	39.94
570.058	40.07
570.398	40.16
570.739	40.4
571.079	40.5
571.419	40.64
571.759	40.75
572.099	40.8
572.439	40.88
572.779	40.94
573.119	41.04
573.459	41.13
573.799	41.28
574.139	41.37
574.479	41.52
574.819	41.68
575.158	41.77
575.498	41.82
575.838	41.86
576.177	41.93
576.517	42.12
576.856	42.17
577.196	42.27
577.535	42.4
577.875	42.46
578.214	42.52
578.553	42.57
578.893	42.69
579.232	42.87
579.571	42.95
579.91	43.07
580.25	43.17
580.589	43.17
580.928	43.24
581.267	43.34
581.606	43.37
581.945	43.28
582.283	43.42
582.622	43.54
582.961	43.7
583.3	43.81
583.639	43.85
583.977	43.9
584.316	44.04
584.654	44.12
584.993	44.18
585.332	44.32
585.67	44.41
586.008	44.45
586.347	44.48
586.685	44.64
587.024	44.75
587.362	44.82
587.7	44.95
588.038	45.04
588.376	45.08
588.715	45.21
589.053	45.39
589.391	45.37
589.729	45.46
590.067	45.47
590.404	45.53
590.742	45.55
591.08	45.56
591.418	45.52
591.756	45.59
592.093	45.62
592.431	45.66
592.769	45.68
593.106	45.76
593.444	45.82
593.781	45.9
594.119	45.95
594.456	45.99
594.793	46.04
595.131	46.04
595.468	46.06
595.805	46.08
596.143	46.17
596.48	46.22
596.817	46.23
597.154	46.34
597.491	46.42
597.828	46.4
598.165	46.53
598.502	46.59
598.839	46.53
599.176	46.62
599.512	46.67
599.849	46.71
600.186	46.75
600.523	46.8
600.859	46.74
601.196	46.84
601.532	46.82
601.869	46.84
602.205	46.86
602.542	46.95
602.878	47
603.215	46.92
603.551	47.03
603.887	47
604.223	47.01
604.56	46.99
604.896	47.11
605.232	47.13
605.568	47.13
605.904	47.26
606.24	47.3
606.576	47.3
606.912	47.4
607.248	47.44
607.583	47.51
607.919	47.5
608.255	47.47
608.591	47.58
608.926	47.59
609.262	47.62
609.597	47.6
609.933	47.64
610.268	47.81
610.604	47.71
610.939	47.77
611.275	47.7
611.61	47.78
611.945	47.74
612.281	47.72
612.616	47.77
612.951	47.74
613.286	47.78
613.621	47.84
613.956	47.88
614.291	47.77
614.626	47.74
614.961	47.89
615.296	48
615.631	47.97
615.966	48.02
616.3	48.1
616.635	48.14
616.97	48.07
617.304	47.98
617.639	47.96
617.973	48.02
618.308	48.13
618.642	48.1
618.977	48.09
619.311	48.13
619.646	48.23
619.98	48.23
620.314	48.15
620.648	48.19
620.983	48.14
621.317	48.24
621.651	48.29
621.985	48.29
622.319	48.25
622.653	48.33
622.987	48.36
623.321	48.39
623.655	48.51
623.988	48.57
624.322	48.63
624.656	48.73
624.99	48.73
625.323	48.71
625.657	48.79
625.99	48.89
626.324	48.97
626.657	48.9
626.991	48.97
627.324	48.97
627.658	48.94
627.991	48.99
628.324	49.01
628.657	49
628.991	48.99
629.324	48.95
629.657	48.92
629.99	49
630.323	48.96
630.656	48.9
630.989	48.9
631.322	48.86
631.655	48.84
631.987	48.82
632.32	48.84
632.653	48.79
632.986	48.77
633.318	48.71
633.651	48.78
633.984	48.72
634.316	48.76
634.649	48.82
634.981	48.77
635.313	48.8
635.646	48.79
635.978	48.81
636.31	48.93
636.643	48.88
636.975	48.8
637.307	48.87
637.639	48.88
637.971	48.88
638.303	48.98
638.635	49
638.967	49.11
639.299	49.09
639.631	49.06
639.963	49.11
640.295	49.08
640.626	49.07
640.958	49.11
641.29	49.09
641.621	49.2
641.953	49.18
642.285	49.31
642.616	49.3
642.948	49.38
643.279	49.38
643.61	49.46
643.942	49.66
644.273	49.66
644.604	49.66
644.936	49.75
645.267	49.82
645.598	49.88
645.929	49.8
646.26	49.86
646.591	49.92
646.922	49.82
647.253	49.87
647.584	49.86
647.915	50.04
648.245	50.13
648.576	50
648.907	50.13
649.238	50.04
649.568	50.07
649.899	50.05
650.229	49.94
650.56	49.92
650.89	49.71
651.221	49.69
651.551	49.68
651.882	49.63
652.212	49.51
652.542	49.46
652.872	49.49
653.203	49.63
653.533	49.53
653.863	49.61
654.193	49.64
654.523	49.69
654.853	49.69
655.183	49.69
655.513	49.75
655.843	49.65
656.172	49.75
656.502	49.68
656.832	49.67
657.162	49.79
657.491	49.92
657.821	50.11
658.15	50.14
658.48	50.26
658.809	50.3
659.139	50.26
659.468	50.41
659.798	50.39
660.127	50.18
660.456	50.24
660.785	50.34
661.115	50.33
661.444	50.32
661.773	50.21
662.102	50.28
662.431	50.22
662.76	50.36
663.089	50.32
663.418	50.39
663.747	50.45
664.076	50.4
664.404	50.33
664.733	50.19
665.062	50.18
665.39	49.95
665.719	50
666.048	50.01
666.376	50.04
666.705	49.98
667.033	50.16
667.362	50.1
667.69	50.13
668.018	50.1
668.347	50.18
668.675	50.37
669.003	50.39
669.331	50.49
669.659	50.49
669.987	50.47
670.315	50.5
670.643	50.46
670.971	50.47
671.299	50.46
671.627	50.56
671.955	50.64
672.283	50.85
672.61	50.94
672.938	51.03
673.266	50.88
673.593	51.02
673.921	51.03
674.249	51.28
674.576	51.15
674.904	51.19
675.231	51.17
675.558	51.08
675.886	51.1
676.213	50.97
676.54	51
676.867	50.92
677.195	51.04
677.522	51.04
677.849	51.01
678.176	51.04
678.503	51.05
678.83	50.94
679.157	50.92
679.484	50.96
679.81	51
680.137	51.13
680.464	51.05
680.791	51.12
681.117	50.95
681.444	50.85
681.771	50.84
682.097	50.79
682.424	50.81
682.75	50.71
683.077	50.7
683.403	50.6
683.729	50.63
684.056	50.48
684.382	50.58
684.708	50.75
685.034	50.84
685.36	50.66
685.686	50.84
686.012	50.99
686.339	50.78
686.664	50.71
686.99	50.67
687.316	50.82
687.642	50.67
687.968	50.7
688.294	50.97
688.619	50.96
688.945	50.94
689.271	50.83
689.596	50.78
689.922	51
690.247	51.08
690.573	51.15
690.898	51.28
691.224	51.29
691.549	51.21
691.874	51.09
692.2	51.25
692.525	51.04
692.85	50.84
693.175	50.89
693.5	50.99
693.825	51.05
694.15	51.01
694.475	51.1
694.8	51.1
695.125	50.98
695.45	51.11
695.775	51.05
696.099	51.13
696.424	51.31
696.749	51.35
697.073	51.38
697.398	51.37
697.723	51.27
698.047	51.23
698.372	51.23
698.696	51.28
699.02	51.26
699.345	51.43
699.669	51.48
699.993	51.65
700.318	51.55
700.642	51.33
700.966	51.38
701.29	51.42
701.614	51.38
701.938	51.46
702.262	51.45
702.586	51.68
702.91	51.75
703.234	51.51
703.557	51.4
703.881	51.29
704.205	51.21
704.529	51.39
704.852	51.46
705.176	51.28
705.499	51.24
705.823	51.32
706.146	51.28
706.47	51.13
706.793	51.05
707.117	51.07
707.44	51.08
707.763	50.98
708.086	50.77
708.409	51
708.733	50.91
709.056	50.85
709.379	50.73
709.702	50.65
710.025	50.84
710.348	50.95
710.671	51
710.993	51.03
711.316	50.84
711.639	50.88
711.962	51.17
712.284	51.14
712.607	51.26
712.93	51.28
713.252	51.52
713.575	51.51
713.897	51.47
714.22	51.65
714.542	51.67
714.864	51.85
715.187	51.96
715.509	52.09
715.831	52.07
716.153	51.96
716.475	51.97
716.798	51.98
717.12	51.89
717.442	51.87
717.764	51.96
718.085	52.22
718.407	52.24
718.729	52.06
719.051	52.21
719.373	52.01
719.695	51.9
720.016	51.76
720.338	51.61
720.659	51.79
720.981	51.75
721.302	51.83
721.624	51.75
721.945	51.28
722.267	51.26
722.588	51.33
722.909	51.39
723.231	51.56
723.552	51.57
723.873	51.61
724.194	51.55
724.515	51.65
724.836	51.25
725.157	51.19
725.478	51.27
725.799	51.33
726.12	51.37
726.441	51.56
726.762	51.53
727.083	51.57
727.403	51.76
727.724	52.09
728.045	51.94
728.365	52.05
728.686	52.13
729.006	52.24
729.327	52.42
729.647	52.46
729.967	52.25
730.288	52.33
730.608	52.4
730.928	52.47
731.249	52.3
731.569	52.55
731.889	52.42
732.209	52.34
732.529	52.14
732.849	52.5
733.169	52.34
733.489	52.31
733.809	52.37
734.129	52.14
734.448	51.69
734.768	51.88
735.088	51.77
735.408	52.04
735.727	51.89
736.047	51.95
736.366	51.67
736.686	51.61
737.005	51.42
737.325	51.23
737.644	51.41
737.963	51.61
738.283	51.79
738.602	52.13
738.921	52.29
739.24	52.55
739.56	52.42
739.879	52.43
740.198	52.6
740.517	52.68
740.836	52.67
741.155	52.99
741.473	52.82
741.792	52.94
742.111	53.21
742.43	53.36
742.748	53.16
743.067	53.36
743.386	53.44
743.704	53.74
744.023	54
744.341	53.73
744.66	53.54
744.978	53.4
745.297	53.11
745.615	53.2
745.933	52.95
746.252	52.75
746.57	53.05
746.888	53.18
747.206	53.16
747.524	53.25
747.842	53.03
748.16	53.09
748.478	53.23
748.796	52.93
749.114	52.85
749.432	52.95
749.749	53.18
750.067	53.31
750.385	53.17
750.703	53.05
751.02	53.3
751.338	53.29
751.655	53.14
751.973	53.1
752.29	52.8
752.608	52.56
752.925	52.53
753.242	52.4
753.56	52.11
753.877	51.92
754.194	51.91
754.511	52
754.828	52.02
755.145	51.74
755.462	51.59
755.779	51.79
756.096	51.82
756.413	52.03
756.73	52.06
757.047	51.73
757.364	51.7
757.68	51.58
757.997	51.92
758.314	52.09
758.63	52.02
758.947	52.21
759.264	52.44
759.58	52.6
759.896	52.52
760.213	52.5
760.529	52.79
760.846	52.69
761.162	52.68
761.478	52.83
761.794	52.93
762.11	53.01
762.426	52.87
762.743	52.58
763.059	52.45
763.375	52.65
763.69	52.85
764.006	52.69
764.322	52.88
764.638	52.83
764.954	52.95
765.27	52.94
765.585	53.21
765.901	53.56
766.216	53.59
766.532	53.55
766.848	53.67
767.163	53.65
767.478	53.9
767.794	54.03
768.109	53.92
768.424	54.14
768.74	54.21
769.055	54.29
769.37	54.37
769.685	54.31
770	54.21
770.315	54.32
770.63	54.55
770.945	54.07
771.26	54.15
771.575	53.87
771.89	54.11
772.205	53.55
772.52	53.24
772.834	53.09
773.149	53.19
773.464	53.31
773.778	53.62
774.093	53.16
774.407	53.2
774.722	53.4
775.036	53.08
775.351	52.84
775.665	53.18
775.979	53.6
776.293	53.37
776.608	52.88
776.922	52.5
777.236	52.75
777.55	52.92
777.864	52.77
778.178	53.02
778.492	53.03
778.806	53.32
779.12	53.04
779.434	52.84
779.747	52.81
780.061	52.69
780.375	52.06
780.689	52.47
781.002	52.28
781.316	52.64
781.629	53.24
781.943	53.38
782.256	52.75
782.57	52.75
782.883	53.54
783.196	54
783.51	54.43
783.823	54.71
784.136	54.15
784.449	53.98
784.762	53.29
785.075	53.21
785.388	53.05
785.701	53.36
786.014	53.17
786.327	53.11
786.64	53.73
786.953	53.93
787.266	54.14
787.578	54.29
787.891	54.02
788.204	53.91
788.516	54.15
788.829	54.04
789.141	53.68
789.454	53.32
789.766	53.38
790.079	53.11
790.391	52.4
790.703	53.1
791.016	53.17
791.328	53.75
791.64	54.11
791.952	54.15
792.264	54.66
792.576	54.6
792.888	54.78
793.2	54.96
793.512	55.1
793.824	54.95
794.136	55.46
794.448	55.2
794.76	54.67
795.071	54.32
795.383	54.65
795.695	54.79
796.006	54.77
796.318	54.92
796.629	54.96
796.941	55.85
797.252	55.55
797.564	55.43
797.875	55.69
798.186	55.17
798.497	55.11
798.809	54.14
799.12	54.54
799.431	54.93
799.742	54.29
800.053	54.22
800.364	54.73
800.675	54.27
800.986	54.11
801.297	54.03
801.608	54.7
801.918	55.36
802.229	55.33
802.54	55.84
802.851	55.95
803.161	56.59
803.472	56.01
803.782	56.17
804.093	56.63
804.403	56.11
804.714	56.47
805.024	56.81
805.334	57.51
805.645	57.74
805.955	57.26
806.265	57.12
806.575	57.14
806.885	56.64
807.195	57.41
807.505	57.1
807.815	57.42
808.125	56.36
808.435	55.77
808.745	56.53
809.055	55.92
809.365	55.11
809.674	54.14
809.984	53.98
810.294	53.79
810.603	53.86
810.913	53.45
811.222	52.6
811.532	52.65
811.841	52
812.151	52.09
812.46	52.59
812.769	53.2
813.079	52.81
813.388	52.27
813.697	51.18
814.006	51.47
814.315	51.66
814.624	51.69
814.933	51.73
815.242	50.52
815.551	51.37
815.86	52.41
816.169	52.58
816.478	52.97
816.786	52.77
817.095	52.46
817.404	53.08
817.712	54
818.021	53.69
818.33	53.5
818.638	53.14
818.947	52.77
819.255	52.04
819.563	51.97
819.872	52.48
820.18	52.44
820.488	52.75
820.796	52.83
821.105	53.19
821.413	53.17
821.721	53.2
822.029	53.04
822.337	52.81
822.645	53.03
822.953	52.99
823.26	53.19
823.568	53.13
823.876	53.25
824.184	53.22
824.491	53.22
824.799	53.32
825.107	53.24
825.414	53.11
825.722	53.15
826.029	53.33
826.337	53.26
826.644	53.33
826.951	53.29
827.259	53.3
827.566	53.21
827.873	53.13
828.18	53.42
828.488	53.55
828.795	53.47
829.102	53.43
829.409	53.85
829.716	53.98
830.023	54.11
830.329	53.83
830.636	53.95
830.943	54.05
831.25	54.16
831.557	54.32
831.863	54.63
832.17	55.05
832.476	55.37
832.783	55.36
833.089	55.8
833.396	56.32
833.702	56.22
834.009	56.31
834.315	56.46
834.621	56.32
834.928	56.2
835.234	56.48
835.54	56.77
835.846	56.08
836.152	56.09
836.458	56.34
836.764	56.46
837.07	56.93
837.376	57.48
837.682	57.18
837.988	56.99
838.293	57.39
838.599	57.22
838.905	56.75
839.211	56.74
839.516	56.7
839.822	56.21
840.127	56.65
840.433	58.1
840.738	58.43
841.044	58.68
841.349	58.97
841.654	59.33
841.959	60.08
842.265	60.83
842.57	60.75
842.875	59.8
843.18	60.24
843.485	59.43
843.79	59.29
844.095	60.21
844.4	61.63
844.705	61.47
845.01	62.35
845.315	62.59
845.619	62.61
845.924	62.57
846.229	62
846.533	61.55
846.838	59.66
847.142	58.46
847.447	58.05
847.751	57.84
848.056	57.75
848.36	56.71
848.664	56.32
848.969	57.04
849.273	59.59
849.577	60.53
849.881	59.5
850.185	59.98
850.489	60.34
850.794	60.39
851.097	63.03
851.401	62.64
851.705	64.75
852.009	66.89
852.313	66.36
852.617	68.38
852.92	71.37
853.224	74.1
853.528	75.54
853.831	75
854.135	77.31
854.438	78
854.742	78.76
855.045	78.11
855.349	76.76
855.652	74.73
855.955	73.67
856.259	78.64
856.562	78.38
856.865	79.73
857.168	77.17
857.471	73.14
857.774	72.93
858.077	71.72
858.38	72.48
858.683	72.95
858.986	73.44
859.289	69.4
859.592	67.3
859.894	68.61
860.197	70.93
860.5	70.14
860.802	69.13
861.105	67.07
861.407	67.69
861.71	67.8
862.012	68.23
862.315	67.45
862.617	63.69
862.919	60.72
863.222	61.51
863.524	63.66
863.826	65.99
864.128	65.81
864.43	67.28
864.732	66.19
865.034	65.06
865.336	62.02
865.638	62.83
865.94	62.58
866.242	61.13
866.544	60
866.846	59.89
867.147	60.89
867.449	63.36
867.751	63.9
868.052	65.22
868.354	64.97
868.655	65.85
868.957	66.73
869.258	66.2
869.56	64.77
869.861	64.97
870.162	64.03
870.463	60.83
870.765	59.52
871.066	59.11
871.367	60.43
871.668	63.48
871.969	62.45
872.27	62.78
872.571	62.19
872.872	60.57
873.173	55.83
873.473	54.67
873.774	53.21
874.075	54.09
874.376	51.42
874.676	53.26
874.977	56.19
875.277	55.22
875.578	57.06
875.878	57.13
876.179	56.91
876.479	56.11
876.78	60.82
877.08	59.77
877.38	59.61
877.68	59.39
877.981	57.03
878.281	59.34
878.581	57.08
