Data from MVZ_BU95633_Reflection_00005.txt Node
Date: Tue Nov 19 12:21:04 EST 2019
User: vgr7
Spectrometer: USB2G7710
Scans to average: 3
Trigger mode: 4
Integration Time (sec): 2.000000E-2
Electric dark correction enabled: true
Boxcar width: 10
XAxis mode: Wavelengths
Number of Pixels in Spectrum: 2048
>>>>>Begin Spectral Data<<<<<
177.721	209.06
178.105	162.8
178.488	244.72
178.871	833.33
179.254	-306.06
179.636	306.47
180.019	37.73
180.402	60.71
180.785	-219.3
181.168	-7.23
181.55	-39.96
181.933	-32.97
182.316	-129.31
182.698	-99.73
183.081	-229.14
183.463	-205.71
183.846	-83.01
184.228	-85.92
184.611	-243.69
184.993	-276.34
185.376	-1241.88
185.758	-2773.02
186.14	1509.52
186.522	587.97
186.904	398.85
187.287	1037.98
187.669	209.91
188.051	129.14
188.433	140.07
188.815	75.93
189.197	51.27
189.579	4.33
189.961	-10.23
190.342	-31.36
190.724	-58.73
191.106	-88.47
191.488	-53.55
191.869	-24.17
192.251	-7.13
192.633	-26.65
193.014	-32.56
193.396	-63.1
193.777	-69.99
194.159	-89.83
194.54	-115.35
194.922	-88.41
195.303	-35.45
195.684	-14.68
196.065	0.62
196.447	-16.2
196.828	-27.61
197.209	27
197.59	40.65
197.971	27.7
198.352	14
198.733	7.24
199.114	-6.4
199.495	2.38
199.876	3.93
200.257	-17.56
200.638	-1.63
201.018	24.09
201.399	23
201.78	33.63
202.16	40.59
202.541	29.8
202.922	31.39
203.302	13.6
203.683	-9.14
204.063	-19.76
204.444	-14.3
204.824	-11.83
205.204	-15.1
205.585	-23.53
205.965	-14.67
206.345	-6.27
206.725	4.95
207.106	14.74
207.486	4.06
207.866	-0.4
208.246	12.23
208.626	5.12
209.006	-11.54
209.386	-17.22
209.766	-22.88
210.145	-22.33
210.525	-33.71
210.905	-38.45
211.285	-27.71
211.664	-20.59
212.044	-20.02
212.424	-26.19
212.803	-33.47
213.183	-42.95
213.562	-34.69
213.942	-33.13
214.321	-52.99
214.701	-91.23
215.08	-97.17
215.459	-83.64
215.838	-85.79
216.218	-96.17
216.597	-88.03
216.976	-118.65
217.355	-95.29
217.734	-100.11
218.113	-98.83
218.492	-86.36
218.871	-68.48
219.25	-85.95
219.629	-80.25
220.008	-68.7
220.387	-59.17
220.766	-43.39
221.144	-32.72
221.523	-33.11
221.902	-24
222.28	3.17
222.659	25.64
223.037	25.28
223.416	21.97
223.794	18.64
224.173	13.07
224.551	7.51
224.929	11.77
225.308	8.3
225.686	6.65
226.064	3.85
226.442	6.93
226.821	3.53
227.199	5.21
227.577	8.08
227.955	10.63
228.333	11.91
228.711	9.39
229.089	10.12
229.467	9.45
229.845	8.36
230.222	5.44
230.6	2.76
230.978	4.69
231.356	4.61
231.733	5.89
232.111	8.77
232.488	9.43
232.866	6.74
233.243	9.86
233.621	10.6
233.998	10.29
234.376	8.7
234.753	7.63
235.13	5.56
235.508	2.58
235.885	1.99
236.262	1.53
236.639	1.74
237.016	1.38
237.393	2.28
237.77	3.41
238.147	2.83
238.524	2.36
238.901	1.37
239.278	1.37
239.655	1.66
240.032	0.88
240.409	0.64
240.785	1.8
241.162	1.46
241.539	1.68
241.915	2.05
242.292	2.18
242.668	2.43
243.045	2.81
243.421	3.42
243.798	3.75
244.174	4.19
244.551	4.32
244.927	3.87
245.303	3.69
245.679	3.99
246.056	4.67
246.432	4.79
246.808	5.02
247.184	5.15
247.56	5.27
247.936	5.33
248.312	5.68
248.688	5.56
249.064	5.29
249.44	5.11
249.815	5.11
250.191	5.22
250.567	5.4
250.943	5.5
251.318	5.33
251.694	5.11
252.069	4.86
252.445	4.73
252.82	5.06
253.196	4.88
253.571	4.64
253.947	3.92
254.322	3.53
254.697	3.22
255.073	3.26
255.448	3.12
255.823	3.41
256.198	3.22
256.573	3.18
256.948	3.56
257.323	3.95
257.698	3.92
258.073	3.73
258.448	3.74
258.823	3.66
259.198	3.68
259.573	3.65
259.948	3.92
260.322	4.16
260.697	4.15
261.072	4.17
261.446	4.23
261.821	4.25
262.195	4.54
262.57	4.72
262.944	4.66
263.319	4.61
263.693	4.53
264.067	4.51
264.442	4.67
264.816	4.61
265.19	4.47
265.564	4.47
265.938	4.71
266.313	4.69
266.687	4.89
267.061	4.8
267.435	4.93
267.809	4.54
268.183	4.24
268.556	4.31
268.93	4.33
269.304	3.99
269.678	4.22
270.051	4.1
270.425	3.92
270.799	3.81
271.172	3.95
271.546	3.93
271.919	4
272.293	3.81
272.666	3.76
273.04	3.77
273.413	3.82
273.787	3.67
274.16	3.56
274.533	3.57
274.906	3.51
275.279	3.41
275.653	3.5
276.026	3.57
276.399	3.45
276.772	3.53
277.145	3.75
277.518	3.55
277.891	3.37
278.263	3.46
278.636	3.71
279.009	3.63
279.382	3.57
279.755	3.52
280.127	3.67
280.5	3.62
280.872	3.6
281.245	3.47
281.617	3.51
281.99	3.66
282.362	3.51
282.735	3.52
283.107	3.58
283.479	3.62
283.852	3.61
284.224	3.68
284.596	3.5
284.968	3.4
285.34	3.35
285.713	3.52
286.085	3.42
286.457	3.35
286.829	3.33
287.201	3.33
287.572	3.37
287.944	3.37
288.316	3.5
288.688	3.47
289.06	3.49
289.431	3.53
289.803	3.56
290.175	3.52
290.546	3.56
290.918	3.48
291.289	3.35
291.661	3.29
292.032	3.28
292.403	3.39
292.775	3.5
293.146	3.64
293.517	3.64
293.889	3.63
294.26	3.69
294.631	3.73
295.002	3.85
295.373	3.78
295.744	3.94
296.115	3.96
296.486	4.07
296.857	4.02
297.228	3.96
297.599	3.96
297.97	4.1
298.34	4.18
298.711	4.24
299.082	4.34
299.452	4.5
299.823	4.49
300.194	4.52
300.564	4.38
300.935	4.41
301.305	4.38
301.676	4.51
302.046	4.36
302.416	4.44
302.787	4.33
303.157	4.42
303.527	4.42
303.897	4.4
304.267	4.35
304.637	4.44
305.008	4.32
305.378	4.3
305.748	4.07
306.117	4.03
306.487	4.01
306.857	4.17
307.227	4.17
307.597	4.21
307.967	4.26
308.336	4.2
308.706	4.08
309.076	4.18
309.445	4.11
309.815	4.18
310.184	4.12
310.554	4.19
310.923	4.19
311.293	4.05
311.662	4.14
312.031	4.15
312.401	4.07
312.77	4.09
313.139	4.1
313.508	4.26
313.877	4.28
314.246	4.29
314.616	4.08
314.985	3.97
315.353	4.02
315.722	4.04
316.091	4.05
316.46	4.06
316.829	3.9
317.198	3.98
317.567	4.2
317.935	4.11
318.304	4.14
318.672	4.04
319.041	4.02
319.41	3.95
319.778	3.8
320.147	3.87
320.515	3.95
320.883	3.81
321.252	3.86
321.62	3.73
321.988	3.72
322.357	3.89
322.725	3.9
323.093	3.84
323.461	3.84
323.829	3.99
324.197	3.99
324.565	4.04
324.933	4.04
325.301	3.75
325.669	3.73
326.037	3.7
326.405	3.73
326.772	3.95
327.14	3.84
327.508	3.94
327.875	3.87
328.243	3.89
328.61	3.91
328.978	3.96
329.346	4.1
329.713	4.18
330.08	4.13
330.448	4.04
330.815	3.92
331.182	3.79
331.55	3.71
331.917	3.67
332.284	3.7
332.651	3.77
333.018	3.71
333.385	3.86
333.752	3.9
334.119	3.98
334.486	3.72
334.853	3.64
335.22	3.51
335.587	3.55
335.954	3.51
336.32	3.67
336.687	3.56
337.054	3.48
337.42	3.43
337.787	3.43
338.153	3.54
338.52	3.68
338.886	3.71
339.253	3.65
339.619	3.81
339.986	3.67
340.352	3.54
340.718	3.66
341.084	3.63
341.451	3.64
341.817	3.61
342.183	3.64
342.549	3.68
342.915	3.77
343.281	3.83
343.647	3.85
344.013	3.65
344.379	3.64
344.745	3.74
345.11	3.62
345.476	3.69
345.842	3.75
346.208	3.72
346.573	3.83
346.939	4
347.304	3.99
347.67	3.99
348.035	4.01
348.401	4.03
348.766	3.87
349.132	3.81
349.497	3.84
349.862	3.9
350.228	3.95
350.593	3.94
350.958	3.98
351.323	4.01
351.688	4.12
352.053	4.18
352.418	4.06
352.783	4.08
353.148	4.01
353.513	3.91
353.878	3.83
354.243	3.62
354.608	3.56
354.972	3.37
355.337	3.42
355.702	3.39
356.066	3.39
356.431	3.41
356.795	3.4
357.16	3.4
357.524	3.32
357.889	3.36
358.253	3.33
358.618	3.27
358.982	3.22
359.346	3.24
359.71	3.17
360.075	3.15
360.439	3.25
360.803	3.3
361.167	3.37
361.531	3.4
361.895	3.5
362.259	3.48
362.623	3.59
362.987	3.58
363.351	3.52
363.714	3.56
364.078	3.61
364.442	3.59
364.806	3.62
365.169	3.6
365.533	3.56
365.896	3.59
366.26	3.55
366.623	3.62
366.987	3.59
367.35	3.64
367.714	3.72
368.077	3.72
368.44	3.69
368.803	3.57
369.167	3.58
369.53	3.62
369.893	3.66
370.256	3.62
370.619	3.61
370.982	3.69
371.345	3.71
371.708	3.78
372.071	3.77
372.434	3.67
372.797	3.78
373.159	3.79
373.522	3.77
373.885	3.84
374.247	3.8
374.61	3.78
374.973	3.73
375.335	3.8
375.698	3.78
376.06	3.76
376.423	3.82
376.785	3.76
377.147	3.75
377.51	3.71
377.872	3.7
378.234	3.76
378.596	3.75
378.958	3.71
379.321	3.64
379.683	3.67
380.045	3.69
380.407	3.67
380.769	3.65
381.13	3.63
381.492	3.6
381.854	3.63
382.216	3.69
382.578	3.7
382.939	3.65
383.301	3.66
383.663	3.65
384.024	3.66
384.386	3.67
384.747	3.64
385.109	3.67
385.47	3.7
385.832	3.65
386.193	3.63
386.554	3.56
386.916	3.6
387.277	3.58
387.638	3.6
387.999	3.57
388.36	3.58
388.721	3.61
389.082	3.63
389.443	3.6
389.804	3.61
390.165	3.62
390.526	3.6
390.887	3.58
391.248	3.59
391.609	3.6
391.969	3.61
392.33	3.61
392.691	3.61
393.051	3.59
393.412	3.62
393.772	3.7
394.133	3.74
394.493	3.67
394.854	3.68
395.214	3.67
395.574	3.66
395.935	3.67
396.295	3.64
396.655	3.62
397.015	3.64
397.376	3.6
397.736	3.61
398.096	3.65
398.456	3.65
398.816	3.62
399.176	3.58
399.535	3.57
399.895	3.57
400.255	3.55
400.615	3.55
400.975	3.52
401.334	3.42
401.694	3.44
402.054	3.48
402.413	3.46
402.773	3.48
403.132	3.51
403.492	3.5
403.851	3.53
404.211	3.52
404.57	3.51
404.929	3.49
405.288	3.47
405.648	3.46
406.007	3.45
406.366	3.47
406.725	3.46
407.084	3.5
407.443	3.52
407.802	3.53
408.161	3.56
408.52	3.59
408.879	3.63
409.238	3.63
409.596	3.64
409.955	3.65
410.314	3.63
410.673	3.63
411.031	3.62
411.39	3.62
411.748	3.65
412.107	3.62
412.465	3.63
412.824	3.64
413.182	3.62
413.54	3.64
413.899	3.66
414.257	3.71
414.615	3.7
414.974	3.68
415.332	3.68
415.69	3.64
416.048	3.66
416.406	3.64
416.764	3.61
417.122	3.58
417.48	3.6
417.838	3.62
418.195	3.6
418.553	3.61
418.911	3.58
419.269	3.58
419.626	3.59
419.984	3.59
420.342	3.6
420.699	3.6
421.057	3.59
421.414	3.59
421.772	3.59
422.129	3.57
422.486	3.56
422.844	3.56
423.201	3.57
423.558	3.54
423.915	3.57
424.273	3.58
424.63	3.59
424.987	3.59
425.344	3.57
425.701	3.58
426.058	3.58
426.415	3.6
426.772	3.59
427.128	3.59
427.485	3.59
427.842	3.57
428.199	3.58
428.555	3.59
428.912	3.58
429.269	3.56
429.625	3.57
429.982	3.58
430.338	3.58
430.695	3.57
431.051	3.59
431.407	3.58
431.764	3.58
432.12	3.57
432.476	3.57
432.832	3.57
433.189	3.58
433.545	3.59
433.901	3.58
434.257	3.59
434.613	3.6
434.969	3.59
435.325	3.59
435.681	3.59
436.036	3.56
436.392	3.57
436.748	3.58
437.104	3.57
437.459	3.58
437.815	3.58
438.171	3.6
438.526	3.59
438.882	3.59
439.237	3.58
439.593	3.58
439.948	3.58
440.304	3.59
440.659	3.57
441.014	3.56
441.369	3.54
441.725	3.54
442.08	3.54
442.435	3.55
442.79	3.55
443.145	3.53
443.5	3.54
443.855	3.54
444.21	3.54
444.565	3.55
444.92	3.54
445.275	3.54
445.629	3.52
445.984	3.53
446.339	3.52
446.693	3.53
447.048	3.53
447.403	3.53
447.757	3.53
448.112	3.55
448.466	3.54
448.82	3.54
449.175	3.56
449.529	3.57
449.883	3.57
450.238	3.56
450.592	3.57
450.946	3.58
451.3	3.58
451.654	3.58
452.008	3.58
452.362	3.59
452.716	3.59
453.07	3.6
453.424	3.59
453.778	3.58
454.132	3.58
454.486	3.6
454.839	3.61
455.193	3.64
455.547	3.65
455.9	3.67
456.254	3.68
456.607	3.66
456.961	3.63
457.314	3.63
457.668	3.64
458.021	3.64
458.375	3.63
458.728	3.62
459.081	3.64
459.434	3.63
459.787	3.62
460.141	3.62
460.494	3.62
460.847	3.64
461.2	3.65
461.553	3.65
461.906	3.65
462.259	3.64
462.611	3.6
462.964	3.61
463.317	3.61
463.67	3.59
464.022	3.61
464.375	3.65
464.728	3.66
465.08	3.62
465.433	3.64
465.785	3.65
466.138	3.67
466.49	3.66
466.843	3.67
467.195	3.69
467.547	3.68
467.899	3.69
468.252	3.7
468.604	3.71
468.956	3.75
469.308	3.74
469.66	3.74
470.012	3.76
470.364	3.74
470.716	3.74
471.068	3.79
471.42	3.79
471.772	3.77
472.123	3.75
472.475	3.79
472.827	3.78
473.178	3.79
473.53	3.77
473.882	3.77
474.233	3.76
474.585	3.74
474.936	3.75
475.288	3.74
475.639	3.74
475.99	3.71
476.342	3.71
476.693	3.73
477.044	3.73
477.395	3.74
477.746	3.74
478.097	3.74
478.448	3.7
478.8	3.68
479.15	3.67
479.501	3.7
479.852	3.7
480.203	3.7
480.554	3.69
480.905	3.69
481.255	3.7
481.606	3.7
481.957	3.72
482.307	3.72
482.658	3.73
483.009	3.72
483.359	3.73
483.709	3.72
484.06	3.71
484.41	3.72
484.761	3.73
485.111	3.72
485.461	3.72
485.811	3.73
486.162	3.73
486.512	3.74
486.862	3.74
487.212	3.74
487.562	3.74
487.912	3.73
488.262	3.73
488.612	3.73
488.961	3.73
489.311	3.71
489.661	3.72
490.011	3.71
490.36	3.72
490.71	3.71
491.06	3.72
491.409	3.71
491.759	3.71
492.108	3.69
492.458	3.68
492.807	3.68
493.157	3.7
493.506	3.7
493.855	3.69
494.204	3.69
494.554	3.7
494.903	3.7
495.252	3.72
495.601	3.72
495.95	3.74
496.299	3.73
496.648	3.75
496.997	3.74
497.346	3.75
497.695	3.77
498.043	3.78
498.392	3.78
498.741	3.8
499.09	3.81
499.438	3.83
499.787	3.84
500.135	3.84
500.484	3.84
500.832	3.84
501.181	3.86
501.529	3.87
501.878	3.89
502.226	3.91
502.574	3.93
502.923	3.95
503.271	3.95
503.619	3.96
503.967	3.95
504.315	3.96
504.663	3.95
505.011	3.93
505.359	3.93
505.707	3.92
506.055	3.92
506.403	3.92
506.751	3.91
507.098	3.94
507.446	3.95
507.794	3.97
508.141	3.99
508.489	3.98
508.837	3.99
509.184	3.99
509.531	3.95
509.879	3.93
510.226	3.92
510.574	3.95
510.921	3.96
511.268	3.99
511.616	4
511.963	4
512.31	4.03
512.657	4.05
513.004	4.05
513.351	4.05
513.698	4.07
514.045	4.07
514.392	4.07
514.739	4.09
515.086	4.07
515.432	4.06
515.779	4.07
516.126	4.08
516.473	4.07
516.819	4.07
517.166	4.1
517.512	4.1
517.859	4.12
518.205	4.13
518.552	4.11
518.898	4.1
519.245	4.11
519.591	4.1
519.937	4.11
520.283	4.12
520.629	4.11
520.976	4.12
521.322	4.14
521.668	4.15
522.014	4.15
522.36	4.18
522.706	4.18
523.052	4.2
523.398	4.2
523.743	4.22
524.089	4.23
524.435	4.21
524.781	4.22
525.126	4.2
525.472	4.21
525.817	4.21
526.163	4.23
526.509	4.22
526.854	4.23
527.199	4.23
527.545	4.22
527.89	4.23
528.235	4.24
528.581	4.23
528.926	4.22
529.271	4.21
529.616	4.2
529.961	4.2
530.306	4.2
530.651	4.2
530.996	4.2
531.341	4.22
531.686	4.23
532.031	4.24
532.376	4.24
532.721	4.24
533.065	4.24
533.41	4.23
533.755	4.23
534.099	4.23
534.444	4.23
534.788	4.22
535.133	4.23
535.477	4.21
535.822	4.22
536.166	4.23
536.51	4.23
536.855	4.23
537.199	4.22
537.543	4.23
537.887	4.21
538.231	4.21
538.576	4.18
538.92	4.18
539.264	4.18
539.608	4.16
539.951	4.15
540.295	4.16
540.639	4.17
540.983	4.16
541.327	4.16
541.671	4.16
542.014	4.19
542.358	4.19
542.701	4.21
543.045	4.22
543.389	4.24
543.732	4.23
544.075	4.24
544.419	4.25
544.762	4.25
545.105	4.27
545.449	4.27
545.792	4.29
546.135	4.28
546.478	4.29
546.821	4.31
547.165	4.32
547.508	4.32
547.851	4.34
548.194	4.34
548.536	4.34
548.879	4.33
549.222	4.32
549.565	4.3
549.908	4.27
550.25	4.25
550.593	4.21
550.936	4.22
551.278	4.24
551.621	4.24
551.963	4.23
552.306	4.22
552.648	4.21
552.991	4.24
553.333	4.24
553.675	4.21
554.017	4.22
554.36	4.26
554.702	4.25
555.044	4.23
555.386	4.24
555.728	4.24
556.07	4.25
556.412	4.27
556.754	4.28
557.096	4.28
557.438	4.29
557.78	4.32
558.121	4.33
558.463	4.29
558.805	4.29
559.147	4.27
559.488	4.26
559.83	4.29
560.171	4.28
560.513	4.31
560.854	4.36
561.196	4.33
561.537	4.31
561.878	4.35
562.22	4.32
562.561	4.32
562.902	4.33
563.243	4.32
563.584	4.33
563.925	4.34
564.266	4.32
564.607	4.33
564.948	4.32
565.289	4.31
565.63	4.32
565.971	4.33
566.312	4.34
566.653	4.31
566.993	4.31
567.334	4.33
567.675	4.33
568.015	4.29
568.356	4.27
568.696	4.32
569.037	4.3
569.377	4.31
569.718	4.3
570.058	4.3
570.398	4.3
570.739	4.29
571.079	4.29
571.419	4.29
571.759	4.24
572.099	4.23
572.439	4.25
572.779	4.25
573.119	4.27
573.459	4.29
573.799	4.35
574.139	4.33
574.479	4.31
574.819	4.33
575.158	4.33
575.498	4.33
575.838	4.29
576.177	4.27
576.517	4.25
576.856	4.26
577.196	4.27
577.535	4.26
577.875	4.23
578.214	4.22
578.553	4.24
578.893	4.31
579.232	4.31
579.571	4.3
579.91	4.31
580.25	4.26
580.589	4.21
580.928	4.16
581.267	4.14
581.606	4.14
581.945	4.12
582.283	4.19
582.622	4.18
582.961	4.18
583.3	4.2
583.639	4.2
583.977	4.23
584.316	4.21
584.654	4.25
584.993	4.27
585.332	4.25
585.67	4.24
586.008	4.24
586.347	4.26
586.685	4.23
587.024	4.24
587.362	4.22
587.7	4.27
588.038	4.3
588.376	4.35
588.715	4.36
589.053	4.35
589.391	4.31
589.729	4.35
590.067	4.33
590.404	4.33
590.742	4.36
591.08	4.35
591.418	4.38
591.756	4.37
592.093	4.38
592.431	4.36
592.769	4.42
593.106	4.41
593.444	4.44
593.781	4.44
594.119	4.42
594.456	4.43
594.793	4.4
595.131	4.39
595.468	4.4
595.805	4.39
596.143	4.39
596.48	4.43
596.817	4.41
597.154	4.44
597.491	4.44
597.828	4.44
598.165	4.4
598.502	4.39
598.839	4.36
599.176	4.39
599.512	4.39
599.849	4.39
600.186	4.37
600.523	4.35
600.859	4.35
601.196	4.37
601.532	4.41
601.869	4.43
602.205	4.42
602.542	4.37
602.878	4.37
603.215	4.37
603.551	4.34
603.887	4.33
604.223	4.31
604.56	4.32
604.896	4.36
605.232	4.38
605.568	4.37
605.904	4.39
606.24	4.36
606.576	4.43
606.912	4.39
607.248	4.47
607.583	4.48
607.919	4.46
608.255	4.47
608.591	4.47
608.926	4.45
609.262	4.46
609.597	4.47
609.933	4.51
610.268	4.5
610.604	4.51
610.939	4.52
611.275	4.49
611.61	4.52
611.945	4.46
612.281	4.45
612.616	4.46
612.951	4.46
613.286	4.46
613.621	4.43
613.956	4.49
614.291	4.41
614.626	4.41
614.961	4.47
615.296	4.45
615.631	4.47
615.966	4.48
616.3	4.49
616.635	4.5
616.97	4.43
617.304	4.45
617.639	4.45
617.973	4.48
618.308	4.51
618.642	4.46
618.977	4.46
619.311	4.47
619.646	4.53
619.98	4.6
620.314	4.57
620.648	4.55
620.983	4.51
621.317	4.5
621.651	4.49
621.985	4.44
622.319	4.45
622.653	4.45
622.987	4.42
623.321	4.46
623.655	4.45
623.988	4.51
624.322	4.54
624.656	4.56
624.99	4.6
625.323	4.57
625.657	4.63
625.99	4.63
626.324	4.66
626.657	4.6
626.991	4.54
627.324	4.58
627.658	4.57
627.991	4.6
628.324	4.64
628.657	4.65
628.991	4.69
629.324	4.68
629.657	4.7
629.99	4.71
630.323	4.64
630.656	4.62
630.989	4.59
631.322	4.58
631.655	4.51
631.987	4.48
632.32	4.53
632.653	4.48
632.986	4.51
633.318	4.52
633.651	4.54
633.984	4.53
634.316	4.5
634.649	4.49
634.981	4.51
635.313	4.55
635.646	4.58
635.978	4.57
636.31	4.6
636.643	4.61
636.975	4.66
637.307	4.76
637.639	4.81
637.971	4.79
638.303	4.73
638.635	4.8
638.967	4.8
639.299	4.8
639.631	4.77
639.963	4.71
640.295	4.72
640.626	4.74
640.958	4.78
641.29	4.76
641.621	4.82
641.953	4.72
642.285	4.66
642.616	4.68
642.948	4.63
643.279	4.56
643.61	4.49
643.942	4.53
644.273	4.46
644.604	4.44
644.936	4.53
645.267	4.61
645.598	4.61
645.929	4.56
646.26	4.59
646.591	4.68
646.922	4.77
647.253	4.75
647.584	4.69
647.915	4.67
648.245	4.73
648.576	4.7
648.907	4.79
649.238	4.81
649.568	4.78
649.899	4.85
650.229	4.89
650.56	4.89
650.89	4.82
651.221	4.83
651.551	4.93
651.882	4.93
652.212	4.9
652.542	4.93
652.872	4.93
653.203	4.94
653.533	4.97
653.863	5
654.193	4.93
654.523	4.91
654.853	4.99
655.183	4.98
655.513	5.02
655.843	4.94
656.172	4.97
656.502	4.91
656.832	4.93
657.162	4.96
657.491	5.02
657.821	5.01
658.15	5.02
658.48	5
658.809	4.91
659.139	4.91
659.468	4.9
659.798	4.95
660.127	4.88
660.456	4.78
660.785	4.79
661.115	4.83
661.444	4.87
661.773	4.78
662.102	4.82
662.431	4.73
662.76	4.78
663.089	4.8
663.418	4.9
663.747	4.85
664.076	4.83
664.404	4.78
664.733	4.86
665.062	4.89
665.39	4.89
665.719	4.98
666.048	4.93
666.376	4.94
666.705	4.96
667.033	5.12
667.362	5.19
667.69	5.12
668.018	5.17
668.347	5.24
668.675	5.24
669.003	5.24
669.331	5.42
669.659	5.34
669.987	5.27
670.315	5.26
670.643	5.28
670.971	5.27
671.299	5.32
671.627	5.33
671.955	5.32
672.283	5.23
672.61	5.26
672.938	5.36
673.266	5.36
673.593	5.26
673.921	5.16
674.249	5.16
674.576	5.18
674.904	5.19
675.231	5.09
675.558	5.13
675.886	5.12
676.213	5.02
676.54	5.07
676.867	5.11
677.195	5.15
677.522	5.25
677.849	5.3
678.176	5.34
678.503	5.23
678.83	5.25
679.157	5.28
679.484	5.2
679.81	5.16
680.137	5.22
680.464	5.26
680.791	5.29
681.117	5.3
681.444	5.24
681.771	5.22
682.097	5.28
682.424	5.3
682.75	5.33
683.077	5.29
683.403	5.35
683.729	5.35
684.056	5.35
684.382	5.29
684.708	5.3
685.034	5.3
685.36	5.38
685.686	5.3
686.012	5.35
686.339	5.34
686.664	5.38
686.99	5.18
687.316	5.23
687.642	5.16
687.968	5.19
688.294	5.32
688.619	5.36
688.945	5.32
689.271	5.41
689.596	5.37
689.922	5.36
690.247	5.27
690.573	5.2
690.898	5.15
691.224	5.04
691.549	4.95
691.874	4.81
692.2	4.88
692.525	5
692.85	4.98
693.175	5.07
693.5	5
693.825	5.17
694.15	5.17
694.475	5.28
694.8	5.25
695.125	5.23
695.45	5.16
695.775	5.24
696.099	5.2
696.424	5.25
696.749	5.29
697.073	5.38
697.398	5.43
697.723	5.41
698.047	5.57
698.372	5.61
698.696	5.71
699.02	5.7
699.345	5.65
699.669	5.74
699.993	5.66
700.318	5.75
700.642	5.7
700.966	5.71
701.29	5.7
701.614	5.76
701.938	5.75
702.262	5.66
702.586	5.74
702.91	5.73
703.234	5.76
703.557	5.83
703.881	5.85
704.205	5.95
704.529	6.12
704.852	6.09
705.176	6.04
705.499	6.02
705.823	6.01
706.146	5.99
706.47	5.95
706.793	6.03
707.117	6.06
707.44	6.18
707.763	6.17
708.086	6.12
708.409	5.99
708.733	6.01
709.056	6.28
709.379	6.22
709.702	6.25
710.025	6.14
710.348	6.04
710.671	6.21
710.993	6.21
711.316	6.08
711.639	5.97
711.962	6.15
712.284	6.16
712.607	6.13
712.93	6.16
713.252	6.18
713.575	6.07
713.897	5.96
714.22	5.91
714.542	5.91
714.864	5.87
715.187	5.85
715.509	5.81
715.831	5.72
716.153	5.72
716.475	5.81
716.798	5.94
717.12	6.03
717.442	5.74
717.764	5.61
718.085	5.76
718.407	5.83
718.729	5.68
719.051	5.79
719.373	5.84
719.695	5.91
720.016	5.95
720.338	6.2
720.659	6.22
720.981	6.18
721.302	6.27
721.624	6.4
721.945	6.46
722.267	6.42
722.588	6.58
722.909	6.48
723.231	6.18
723.552	6.19
723.873	6.02
724.194	6.17
724.515	6.22
724.836	6.14
725.157	6.28
725.478	6.33
725.799	6.26
726.12	6.38
726.441	6.27
726.762	6.22
727.083	6.25
727.403	6.34
727.724	6.62
728.045	6.55
728.365	6.54
728.686	6.62
729.006	6.56
729.327	6.53
729.647	6.49
729.967	6.56
730.288	6.45
730.608	6.75
730.928	6.68
731.249	6.65
731.569	6.51
731.889	6.27
732.209	6.27
732.529	6.33
732.849	6.29
733.169	6.21
733.489	6.08
733.809	6.12
734.129	6.29
734.448	6.27
734.768	6.19
735.088	6.26
735.408	6.28
735.727	6.43
736.047	6.44
736.366	6.5
736.686	6.58
737.005	6.86
737.325	6.8
737.644	6.89
737.963	6.86
738.283	6.75
738.602	6.86
738.921	7.08
739.24	7.24
739.56	7.22
739.879	7.4
740.198	7.58
740.517	7.4
740.836	7.22
741.155	7.22
741.473	7.31
741.792	7.17
742.111	7.31
742.43	7.35
742.748	7.32
743.067	7.4
743.386	7.33
743.704	7.04
744.023	7
744.341	7.02
744.66	6.91
744.978	7.19
745.297	6.99
745.615	6.68
745.933	6.69
746.252	6.79
746.57	6.57
746.888	6.34
747.206	6.45
747.524	6.51
747.842	6.21
748.16	6.46
748.478	6.58
748.796	6.39
749.114	6.42
749.432	6.58
749.749	6.27
750.067	6.6
750.385	6.74
750.703	6.32
751.02	6.14
751.338	6.28
751.655	6.26
751.973	6.4
752.29	6.49
752.608	5.85
752.925	5.63
753.242	5.86
753.56	6.1
753.877	5.86
754.194	5.69
754.511	5.86
754.828	5.71
755.145	5.87
755.462	5.93
755.779	5.84
756.096	5.78
756.413	6.15
756.73	5.92
757.047	5.9
757.364	6.36
757.68	6.65
757.997	6.7
758.314	6.75
758.63	6.74
758.947	6.67
759.264	7.16
759.58	7.13
759.896	7.27
760.213	7.36
760.529	7.5
760.846	7.9
761.162	7.76
761.478	7.73
761.794	7.6
762.11	7.55
762.426	7.64
762.743	7.28
763.059	7.48
763.375	7.46
763.69	7.52
764.006	7.57
764.322	7.53
764.638	7.67
764.954	7.64
765.27	7.8
765.585	7.9
765.901	7.84
766.216	7.9
766.532	7.68
766.848	7.51
767.163	7.58
767.478	7.26
767.794	7.41
768.109	7.49
768.424	7.48
768.74	7.47
769.055	7.61
769.37	7.71
769.685	7.32
770	7.24
770.315	7.24
770.63	6.91
770.945	6.83
771.26	6.83
771.575	7.02
771.89	6.79
772.205	6.59
772.52	6.5
772.834	6.48
773.149	6.5
773.464	6.63
773.778	6.31
774.093	6.86
774.407	6.96
774.722	6.98
775.036	7.2
775.351	7.46
775.665	7.43
775.979	7.73
776.293	8.14
776.608	8.51
776.922	8.32
777.236	8.4
777.55	8.08
777.864	8.16
778.178	8.18
778.492	8.35
778.806	8.44
779.12	8.27
779.434	8.47
779.747	8.78
780.061	8.96
780.375	9.35
780.689	8.99
781.002	8.81
781.316	8.77
781.629	8.91
781.943	8.63
782.256	8.5
782.57	8.39
782.883	8.42
783.196	8.07
783.51	8.6
783.823	8.84
784.136	9.09
784.449	9.16
784.762	8.99
785.075	8.8
785.388	9.05
785.701	8.87
786.014	8.49
786.327	8.7
786.64	8.54
786.953	8.54
787.266	8.57
787.578	8.55
787.891	8.64
788.204	8.02
788.516	7.83
788.829	7.75
789.141	8.04
789.454	7.2
789.766	7.55
790.079	6.97
790.391	6.8
790.703	6.93
791.016	6.69
791.328	6.92
791.64	6.96
791.952	6.93
792.264	6.87
792.576	7.55
792.888	7.01
793.2	6.87
793.512	6.61
793.824	6.72
794.136	6.16
794.448	5.94
794.76	6.02
795.071	6.13
795.383	6.21
795.695	5.67
796.006	6.71
796.318	6.47
796.629	6.7
796.941	6.95
797.252	7.16
797.564	7.27
797.875	6.57
798.186	6.68
798.497	6.5
798.809	6.85
799.12	6.37
799.431	6.76
799.742	7.04
800.053	7.02
800.364	6.61
800.675	7.14
800.986	7.57
801.297	7.99
801.608	7.91
801.918	8.12
802.229	9.03
802.54	8.64
802.851	9.06
803.161	9.17
803.472	9.27
803.782	9.02
804.093	8.83
804.403	9.52
804.714	9.36
805.024	9.64
805.334	9.54
805.645	9.77
805.955	9.57
806.265	9.61
806.575	9.88
806.885	10.76
807.195	11.07
807.505	10.2
807.815	10.56
808.125	10.68
808.435	9.88
808.745	9.48
809.055	9.52
809.365	9.35
809.674	8.79
809.984	8.03
810.294	7.87
810.603	8.19
810.913	8.13
811.222	8.39
811.532	8.36
811.841	9.65
812.151	9.56
812.46	10.1
812.769	9.3
813.079	9.7
813.388	9.01
813.697	8.27
814.006	8.86
814.315	8.37
814.624	8.52
814.933	8.79
815.242	8.49
815.551	8.24
815.86	8.13
816.169	8.12
816.478	9.02
816.786	8.81
817.095	8.41
817.404	8.27
817.712	8.69
818.021	8.98
818.33	8.58
818.638	8.37
818.947	8.16
819.255	8.52
819.563	8.29
819.872	8.02
820.18	8.6
820.488	8.76
820.796	8.83
821.105	9.1
821.413	9.32
821.721	9.19
822.029	9.08
822.337	9.44
822.645	9.69
822.953	9.73
823.26	9.78
823.568	9.84
823.876	9.89
824.184	9.77
824.491	9.63
824.799	9.44
825.107	9.69
825.414	9.63
825.722	9.55
826.029	9.55
826.337	9.62
826.644	9.59
826.951	9.49
827.259	9.51
827.566	9.44
827.873	9.52
828.18	9.73
828.488	9.98
828.795	9.6
829.102	9.36
829.409	9.08
829.716	9.28
830.023	9.4
830.329	9.5
830.636	9.44
830.943	9.45
831.25	9.78
831.557	9.52
831.863	9.61
832.17	10.2
832.476	9.99
832.783	10.3
833.089	10.22
833.396	10.29
833.702	10.3
834.009	9.92
834.315	9.77
834.621	9.5
834.928	9.84
835.234	9.95
835.54	10
835.846	10.28
836.152	9.95
836.458	9.74
836.764	9.49
837.07	9.29
837.376	9.84
837.682	9.85
837.988	9.72
838.293	10.35
838.599	9.69
838.905	10.13
839.211	10.31
839.516	10.4
839.822	10.66
840.127	10.33
840.433	11.5
840.738	11.7
841.044	13.15
841.349	13.11
841.654	12.42
841.959	12.63
842.265	12.96
842.57	13.53
842.875	14
843.18	14.97
843.485	15.97
843.79	14.85
844.095	15.59
844.4	16.24
844.705	16.44
845.01	17.79
845.315	17.93
845.619	18.29
845.924	17.98
846.229	16.86
846.533	17.48
846.838	16.2
847.142	16.83
847.447	16.68
847.751	15.69
848.056	16.45
848.36	18.09
848.664	16.93
848.969	17.71
849.273	17.28
849.577	16.54
849.881	17.92
850.185	19.15
850.489	18.07
850.794	17.6
851.097	14.34
851.401	13.19
851.705	11.94
852.009	10.54
852.313	10.44
852.617	10.91
852.92	11.57
853.224	12.82
853.528	10.82
853.831	10.37
854.135	11.87
854.438	12.32
854.742	10.77
855.045	10.54
855.349	9.26
855.652	8.12
855.955	7.8
856.259	6.6
856.562	5.05
856.865	5.62
857.168	4.17
857.471	7.64
857.774	9.38
858.077	9.92
858.38	10.24
858.683	11.77
858.986	13.23
859.289	13.92
859.592	14.59
859.894	15.36
860.197	15.06
860.5	14.55
860.802	14.02
861.105	14.32
861.407	15.59
861.71	16.86
862.012	20.37
862.315	21.58
862.617	20.14
862.919	20.81
863.222	19.11
863.524	20.73
863.826	17.93
864.128	15.68
864.43	18.66
864.732	19.75
865.034	19.52
865.336	18.04
865.638	16.06
865.94	15.5
866.242	14.66
866.544	14.49
866.846	15.11
867.147	16.58
867.449	16.83
867.751	15.67
868.052	14.25
868.354	13.6
868.655	12.02
868.957	12.28
869.258	10.91
869.56	11.42
869.861	11.82
870.162	12.71
870.463	14.31
870.765	11.36
871.066	10.03
871.367	10.85
871.668	11.78
871.969	11.23
872.27	8.72
872.571	10.75
872.872	8.86
873.173	7.33
873.473	5.79
873.774	5.32
874.075	7.01
874.376	6.85
874.676	7.95
874.977	8.47
875.277	8.72
875.578	12.3
875.878	12.61
876.179	11.73
876.479	12.42
876.78	11.18
877.08	12.79
877.38	13.66
877.68	11.07
877.981	10.99
878.281	13.33
878.581	15.82
