Data from MVZ_BU34099_Reflection_00015.txt Node
Date: Tue Nov 19 12:15:49 EST 2019
User: vgr7
Spectrometer: USB2G7710
Scans to average: 3
Trigger mode: 4
Integration Time (sec): 2.000000E-2
Electric dark correction enabled: true
Boxcar width: 10
XAxis mode: Wavelengths
Number of Pixels in Spectrum: 2048
>>>>>Begin Spectral Data<<<<<
177.721	201.17
178.105	-167.24
178.488	-554.21
178.871	69.81
179.254	-700
179.636	639.6
180.019	139.66
180.402	-83.33
180.785	107.19
181.168	31.94
181.55	-2130.77
181.933	-246.94
182.316	-574.42
182.698	-292.27
183.081	-556.72
183.463	-976.92
183.846	-171.52
184.228	-246.94
184.611	-284.62
184.993	-14.29
185.376	24.91
185.758	7.02
186.14	-12.73
186.522	-6.73
186.904	-17.24
187.287	22.1
187.669	32.52
188.051	4.95
188.433	-41.52
188.815	-45.39
189.197	-11.59
189.579	-36.9
189.961	-12.72
190.342	6.73
190.724	9.92
191.106	16.88
191.488	25.89
191.869	26.91
192.251	32.92
192.633	29.71
193.014	36.9
193.396	34.05
193.777	35.44
194.159	35.01
194.54	34.32
194.922	30.42
195.303	25.35
195.684	16.43
196.065	8.26
196.447	0.67
196.828	-11.15
197.209	-19.15
197.59	-19.55
197.971	-27.37
198.352	-38.61
198.733	-42.63
199.114	-58.78
199.495	-57.32
199.876	-57.35
200.257	-62.61
200.638	-83.78
201.018	-76.93
201.399	-46.6
201.78	-45.04
202.16	-31.99
202.541	-47.81
202.922	-37.32
203.302	-31.67
203.683	-42.09
204.063	-40.17
204.444	-4.47
204.824	3
205.204	3
205.585	18.06
205.965	20.06
206.345	12.25
206.725	10.97
207.106	28.49
207.486	16.3
207.866	18.7
208.246	36.75
208.626	38.75
209.006	43.62
209.386	38.95
209.766	35.3
210.145	36.21
210.525	31.57
210.905	30.81
211.285	23.6
211.664	37.62
212.044	40.07
212.424	34.78
212.803	26.81
213.183	34.12
213.562	36.49
213.942	31.98
214.321	25.94
214.701	29.66
215.08	24.35
215.459	21.12
215.838	16.63
216.218	10.5
216.597	6.44
216.976	-3.92
217.355	-4.37
217.734	4.38
218.113	-1.07
218.492	-2.39
218.871	-12.84
219.25	-9.07
219.629	-32.18
220.008	-32.76
220.387	-20.22
220.766	7.02
221.144	-1.71
221.523	-17.04
221.902	-13.77
222.28	3.72
222.659	13.33
223.037	9.76
223.416	16.35
223.794	25.64
224.173	16.77
224.551	25.62
224.929	16.65
225.308	7.23
225.686	4.72
226.064	4.48
226.442	4.39
226.821	5.17
227.199	5.42
227.577	6.44
227.955	8.17
228.333	7.65
228.711	5.9
229.089	7.01
229.467	6.74
229.845	6.03
230.222	8.35
230.6	5.6
230.978	7.52
231.356	7.26
231.733	3.02
232.111	5.05
232.488	1.07
232.866	3.75
233.243	6.28
233.621	5.95
233.998	6.85
234.376	6.32
234.753	6.21
235.13	5.09
235.508	5.01
235.885	4.41
236.262	3.24
236.639	3.16
237.016	2.6
237.393	2.21
237.77	3.2
238.147	2.36
238.524	2.36
238.901	1.65
239.278	0.95
239.655	1.1
240.032	1.22
240.409	1.38
240.785	1.15
241.162	1.3
241.539	1.5
241.915	1.16
242.292	1.88
242.668	1.83
243.045	2.22
243.421	2.53
243.798	2.37
244.174	2.61
244.551	2.58
244.927	2.79
245.303	2.95
245.679	2.75
246.056	2.47
246.432	2.49
246.808	2.83
247.184	2.92
247.56	3
247.936	3.05
248.312	3.27
248.688	3.32
249.064	3.1
249.44	3.04
249.815	3.3
250.191	3.05
250.567	3.01
250.943	3.16
251.318	2.89
251.694	2.9
252.069	2.85
252.445	2.92
252.82	3.14
253.196	3.21
253.571	3.37
253.947	3.65
254.322	3.38
254.697	3.24
255.073	3.14
255.448	3.31
255.823	3.18
256.198	3.16
256.573	3.3
256.948	3.46
257.323	3.69
257.698	3.56
258.073	3.56
258.448	3.79
258.823	3.3
259.198	3.3
259.573	3.33
259.948	3.31
260.322	3.27
260.697	3.25
261.072	3.24
261.446	3.12
261.821	3.07
262.195	3.29
262.57	3.24
262.944	3.25
263.319	3.19
263.693	3.27
264.067	3.16
264.442	3.06
264.816	2.92
265.19	2.81
265.564	2.71
265.938	2.7
266.313	2.54
266.687	2.74
267.061	2.85
267.435	2.79
267.809	2.83
268.183	2.71
268.556	2.6
268.93	2.66
269.304	2.78
269.678	2.93
270.051	2.87
270.425	2.93
270.799	2.89
271.172	2.97
271.546	2.95
271.919	3.03
272.293	3.11
272.666	3.16
273.04	3.25
273.413	3.28
273.787	3.29
274.16	3.28
274.533	3.43
274.906	3.46
275.279	3.58
275.653	3.61
276.026	3.81
276.399	3.67
276.772	3.6
277.145	3.64
277.518	3.52
277.891	3.46
278.263	3.44
278.636	3.57
279.009	3.44
279.382	3.43
279.755	3.5
280.127	3.32
280.5	3.3
280.872	3.23
281.245	3.33
281.617	3.37
281.99	3.41
282.362	3.22
282.735	3.18
283.107	2.96
283.479	2.95
283.852	2.92
284.224	3.14
284.596	3.18
284.968	3.04
285.34	3.14
285.713	3.33
286.085	3.41
286.457	3.4
286.829	3.36
287.201	3.34
287.572	3.36
287.944	3.45
288.316	3.56
288.688	3.52
289.06	3.53
289.431	3.62
289.803	3.58
290.175	3.79
290.546	3.82
290.918	3.98
291.289	3.89
291.661	4
292.032	3.91
292.403	3.82
292.775	3.99
293.146	3.97
293.517	3.96
293.889	3.9
294.26	3.94
294.631	4
295.002	4
295.373	3.94
295.744	3.95
296.115	3.88
296.486	3.83
296.857	3.9
297.228	3.82
297.599	3.83
297.97	3.81
298.34	3.77
298.711	3.76
299.082	3.84
299.452	3.75
299.823	3.83
300.194	3.92
300.564	3.83
300.935	4.01
301.305	3.85
301.676	3.84
302.046	3.92
302.416	3.97
302.787	4.12
303.157	4.08
303.527	4.21
303.897	4.33
304.267	4.44
304.637	4.49
305.008	4.56
305.378	4.56
305.748	4.63
306.117	4.66
306.487	4.9
306.857	5.03
307.227	5.16
307.597	5.12
307.967	5.07
308.336	5.11
308.706	4.99
309.076	5.08
309.445	5.07
309.815	5.04
310.184	5.09
310.554	4.98
310.923	4.97
311.293	4.91
311.662	4.88
312.031	4.88
312.401	4.75
312.77	4.82
313.139	4.83
313.508	4.79
313.877	4.87
314.246	4.82
314.616	4.86
314.985	4.77
315.353	4.72
315.722	4.83
316.091	4.96
316.46	4.99
316.829	5.02
317.198	4.97
317.567	5.17
317.935	5.23
318.304	5.39
318.672	5.64
319.041	5.74
319.41	5.75
319.778	5.87
320.147	6.03
320.515	6
320.883	6.12
321.252	6.38
321.62	6.46
321.988	6.43
322.357	6.38
322.725	6.63
323.093	6.76
323.461	6.77
323.829	6.74
324.197	6.67
324.565	6.83
324.933	7
325.301	6.68
325.669	6.63
326.037	6.75
326.405	6.83
326.772	6.83
327.14	6.85
327.508	6.85
327.875	6.71
328.243	6.81
328.61	6.84
328.978	6.75
329.346	6.74
329.713	6.8
330.08	6.85
330.448	6.76
330.815	6.74
331.182	6.81
331.55	6.92
331.917	6.96
332.284	6.94
332.651	6.95
333.018	7.12
333.385	7.16
333.752	7.14
334.119	7.1
334.486	7.17
334.853	7.14
335.22	7.27
335.587	7.52
335.954	7.52
336.32	7.52
336.687	7.5
337.054	7.41
337.42	7.42
337.787	7.43
338.153	7.41
338.52	7.45
338.886	7.49
339.253	7.46
339.619	7.54
339.986	7.53
340.352	7.5
340.718	7.55
341.084	7.65
341.451	7.67
341.817	7.61
342.183	7.54
342.549	7.78
342.915	7.74
343.281	7.62
343.647	7.56
344.013	7.52
344.379	7.56
344.745	7.69
345.11	7.68
345.476	7.66
345.842	7.74
346.208	7.66
346.573	7.66
346.939	7.7
347.304	7.77
347.67	7.77
348.035	7.8
348.401	7.86
348.766	7.81
349.132	7.72
349.497	7.72
349.862	7.8
350.228	7.7
350.593	7.7
350.958	7.8
351.323	7.97
351.688	8.04
352.053	7.97
352.418	7.87
352.783	7.91
353.148	7.89
353.513	7.87
353.878	7.95
354.243	7.81
354.608	7.69
354.972	7.7
355.337	7.66
355.702	7.62
356.066	7.57
356.431	7.64
356.795	7.62
357.16	7.69
357.524	7.68
357.889	7.62
358.253	7.52
358.618	7.53
358.982	7.4
359.346	7.35
359.71	7.33
360.075	7.38
360.439	7.34
360.803	7.42
361.167	7.38
361.531	7.36
361.895	7.41
362.259	7.47
362.623	7.36
362.987	7.39
363.351	7.39
363.714	7.34
364.078	7.24
364.442	7.27
364.806	7.27
365.169	7.18
365.533	7.19
365.896	7.3
366.26	7.13
366.623	7.15
366.987	7.21
367.35	7.29
367.714	7.33
368.077	7.29
368.44	7.17
368.803	7.12
369.167	7.09
369.53	7.06
369.893	7.01
370.256	7.02
370.619	6.91
370.982	6.85
371.345	6.8
371.708	6.75
372.071	6.68
372.434	6.65
372.797	6.61
373.159	6.58
373.522	6.47
373.885	6.5
374.247	6.42
374.61	6.31
374.973	6.25
375.335	6.15
375.698	6.11
376.06	6.16
376.423	6.15
376.785	6.14
377.147	6.09
377.51	6
377.872	5.99
378.234	6
378.596	6.02
378.958	6.05
379.321	6.06
379.683	6.07
380.045	5.98
380.407	5.95
380.769	5.9
381.13	5.83
381.492	5.81
381.854	5.78
382.216	5.79
382.578	5.73
382.939	5.74
383.301	5.66
383.663	5.54
384.024	5.52
384.386	5.47
384.747	5.49
385.109	5.53
385.47	5.48
385.832	5.44
386.193	5.39
386.554	5.32
386.916	5.27
387.277	5.21
387.638	5.17
387.999	5.14
388.36	5.1
388.721	5.09
389.082	5.06
389.443	5.06
389.804	5.06
390.165	5.02
390.526	4.92
390.887	4.95
391.248	4.97
391.609	4.92
391.969	4.88
392.33	4.8
392.691	4.75
393.051	4.73
393.412	4.74
393.772	4.72
394.133	4.72
394.493	4.65
394.854	4.6
395.214	4.62
395.574	4.6
395.935	4.6
396.295	4.57
396.655	4.51
397.015	4.43
397.376	4.35
397.736	4.31
398.096	4.3
398.456	4.25
398.816	4.2
399.176	4.15
399.535	4.13
399.895	4.08
400.255	4.03
400.615	4
400.975	3.94
401.334	3.86
401.694	3.79
402.054	3.81
402.413	3.79
402.773	3.74
403.132	3.72
403.492	3.7
403.851	3.67
404.211	3.65
404.57	3.68
404.929	3.65
405.288	3.66
405.648	3.65
406.007	3.64
406.366	3.66
406.725	3.65
407.084	3.64
407.443	3.69
407.802	3.71
408.161	3.69
408.52	3.67
408.879	3.7
409.238	3.74
409.596	3.72
409.955	3.71
410.314	3.69
410.673	3.68
411.031	3.66
411.39	3.67
411.748	3.7
412.107	3.66
412.465	3.65
412.824	3.62
413.182	3.6
413.54	3.6
413.899	3.56
414.257	3.58
414.615	3.55
414.974	3.52
415.332	3.5
415.69	3.5
416.048	3.48
416.406	3.47
416.764	3.43
417.122	3.4
417.48	3.41
417.838	3.4
418.195	3.39
418.553	3.37
418.911	3.33
419.269	3.3
419.626	3.3
419.984	3.29
420.342	3.28
420.699	3.27
421.057	3.25
421.414	3.24
421.772	3.22
422.129	3.21
422.486	3.2
422.844	3.19
423.201	3.17
423.558	3.16
423.915	3.15
424.273	3.15
424.63	3.15
424.987	3.15
425.344	3.14
425.701	3.13
426.058	3.13
426.415	3.12
426.772	3.1
427.128	3.09
427.485	3.1
427.842	3.06
428.199	3.05
428.555	3.03
428.912	3
429.269	2.99
429.625	2.99
429.982	2.97
430.338	2.97
430.695	2.96
431.051	2.97
431.407	2.95
431.764	2.94
432.12	2.95
432.476	2.95
432.832	2.91
433.189	2.9
433.545	2.91
433.901	2.94
434.257	2.96
434.613	2.96
434.969	2.96
435.325	2.98
435.681	2.98
436.036	2.96
436.392	2.97
436.748	2.98
437.104	2.98
437.459	2.97
437.815	2.97
438.171	2.97
438.526	2.97
438.882	2.98
439.237	2.96
439.593	2.96
439.948	2.94
440.304	2.95
440.659	2.95
441.014	2.95
441.369	2.92
441.725	2.9
442.08	2.91
442.435	2.89
442.79	2.88
443.145	2.87
443.5	2.88
443.855	2.89
444.21	2.89
444.565	2.89
444.92	2.91
445.275	2.91
445.629	2.9
445.984	2.9
446.339	2.9
446.693	2.91
447.048	2.88
447.403	2.87
447.757	2.87
448.112	2.88
448.466	2.85
448.82	2.85
449.175	2.86
449.529	2.85
449.883	2.85
450.238	2.85
450.592	2.85
450.946	2.84
451.3	2.83
451.654	2.8
452.008	2.79
452.362	2.77
452.716	2.76
453.07	2.74
453.424	2.74
453.778	2.73
454.132	2.73
454.486	2.77
454.839	2.78
455.193	2.79
455.547	2.8
455.9	2.82
456.254	2.82
456.607	2.82
456.961	2.82
457.314	2.82
457.668	2.82
458.021	2.81
458.375	2.8
458.728	2.79
459.081	2.81
459.434	2.81
459.787	2.83
460.141	2.84
460.494	2.87
460.847	2.86
461.2	2.87
461.553	2.86
461.906	2.86
462.259	2.85
462.611	2.85
462.964	2.84
463.317	2.84
463.67	2.84
464.022	2.85
464.375	2.88
464.728	2.89
465.08	2.9
465.433	2.92
465.785	2.96
466.138	2.98
466.49	2.99
466.843	2.99
467.195	2.99
467.547	2.99
467.899	2.97
468.252	3.01
468.604	3.01
468.956	3.03
469.308	3.05
469.66	3.08
470.012	3.1
470.364	3.11
470.716	3.13
471.068	3.13
471.42	3.14
471.772	3.15
472.123	3.16
472.475	3.17
472.827	3.18
473.178	3.17
473.53	3.15
473.882	3.15
474.233	3.15
474.585	3.16
474.936	3.16
475.288	3.17
475.639	3.16
475.99	3.16
476.342	3.15
476.693	3.15
477.044	3.15
477.395	3.15
477.746	3.13
478.097	3.11
478.448	3.1
478.8	3.11
479.15	3.08
479.501	3.07
479.852	3.06
480.203	3.07
480.554	3.09
480.905	3.09
481.255	3.08
481.606	3.08
481.957	3.07
482.307	3.07
482.658	3.07
483.009	3.06
483.359	3.05
483.709	3.06
484.06	3.05
484.41	3.05
484.761	3.04
485.111	3.05
485.461	3.05
485.811	3.06
486.162	3.05
486.512	3.06
486.862	3.06
487.212	3.06
487.562	3.06
487.912	3.05
488.262	3.06
488.612	3.06
488.961	3.06
489.311	3.07
489.661	3.07
490.011	3.06
490.36	3.07
490.71	3.08
491.06	3.08
491.409	3.08
491.759	3.1
492.108	3.1
492.458	3.1
492.807	3.1
493.157	3.12
493.506	3.13
493.855	3.13
494.204	3.13
494.554	3.16
494.903	3.17
495.252	3.19
495.601	3.21
495.95	3.21
496.299	3.22
496.648	3.25
496.997	3.27
497.346	3.3
497.695	3.32
498.043	3.35
498.392	3.37
498.741	3.4
499.09	3.43
499.438	3.46
499.787	3.49
500.135	3.54
500.484	3.55
500.832	3.58
501.181	3.64
501.529	3.7
501.878	3.72
502.226	3.77
502.574	3.79
502.923	3.83
503.271	3.88
503.619	3.94
503.967	3.97
504.315	4.02
504.663	4.06
505.011	4.11
505.359	4.15
505.707	4.2
506.055	4.25
506.403	4.3
506.751	4.34
507.098	4.4
507.446	4.46
507.794	4.51
508.141	4.55
508.489	4.58
508.837	4.6
509.184	4.64
509.531	4.68
509.879	4.72
510.226	4.79
510.574	4.86
510.921	4.89
511.268	4.94
511.616	4.99
511.963	5.03
512.31	5.1
512.657	5.14
513.004	5.19
513.351	5.22
513.698	5.28
514.045	5.36
514.392	5.41
514.739	5.47
515.086	5.52
515.432	5.6
515.779	5.67
516.126	5.77
516.473	5.84
516.819	5.91
517.166	5.97
517.512	6
517.859	6.04
518.205	6.1
518.552	6.17
518.898	6.22
519.245	6.26
519.591	6.31
519.937	6.38
520.283	6.44
520.629	6.53
520.976	6.59
521.322	6.64
521.668	6.69
522.014	6.74
522.36	6.83
522.706	6.91
523.052	7.01
523.398	7.08
523.743	7.18
524.089	7.28
524.435	7.37
524.781	7.49
525.126	7.57
525.472	7.65
525.817	7.71
526.163	7.78
526.509	7.85
526.854	7.92
527.199	7.98
527.545	8.06
527.89	8.11
528.235	8.17
528.581	8.24
528.926	8.32
529.271	8.39
529.616	8.44
529.961	8.52
530.306	8.57
530.651	8.64
530.996	8.71
531.341	8.79
531.686	8.88
532.031	8.97
532.376	9.07
532.721	9.17
533.065	9.28
533.41	9.39
533.755	9.49
534.099	9.59
534.444	9.71
534.788	9.8
535.133	9.89
535.477	10
535.822	10.14
536.166	10.27
536.51	10.43
536.855	10.58
537.199	10.73
537.543	10.9
537.887	11.08
538.231	11.25
538.576	11.41
538.92	11.57
539.264	11.71
539.608	11.87
539.951	12.01
540.295	12.13
540.639	12.27
540.983	12.42
541.327	12.54
541.671	12.67
542.014	12.83
542.358	12.99
542.701	13.13
543.045	13.26
543.389	13.38
543.732	13.52
544.075	13.69
544.419	13.83
544.762	13.97
545.105	14.16
545.449	14.34
545.792	14.53
546.135	14.75
546.478	14.96
546.821	15.16
547.165	15.39
547.508	15.65
547.851	15.86
548.194	16.11
548.536	16.36
548.879	16.62
549.222	16.87
549.565	17.12
549.908	17.37
550.25	17.63
550.593	17.9
550.936	18.17
551.278	18.41
551.621	18.69
551.963	19.02
552.306	19.25
552.648	19.48
552.991	19.73
553.333	19.94
553.675	20.2
554.017	20.46
554.36	20.74
554.702	20.98
555.044	21.25
555.386	21.53
555.728	21.82
556.07	22.09
556.412	22.34
556.754	22.62
557.096	22.88
557.438	23.14
557.78	23.44
558.121	23.72
558.463	23.97
558.805	24.25
559.147	24.49
559.488	24.76
559.83	25.09
560.171	25.36
560.513	25.64
560.854	25.88
561.196	26.12
561.537	26.35
561.878	26.67
562.22	26.96
562.561	27.2
562.902	27.49
563.243	27.75
563.584	28.02
563.925	28.26
564.266	28.52
564.607	28.82
564.948	29.02
565.289	29.25
565.63	29.54
565.971	29.82
566.312	30.06
566.653	30.29
566.993	30.5
567.334	30.73
567.675	31
568.015	31.24
568.356	31.49
568.696	31.71
569.037	31.9
569.377	32.1
569.718	32.28
570.058	32.45
570.398	32.66
570.739	32.84
571.079	33
571.419	33.2
571.759	33.3
572.099	33.52
572.439	33.71
572.779	33.87
573.119	34.05
573.459	34.25
573.799	34.42
574.139	34.59
574.479	34.75
574.819	34.9
575.158	35.04
575.498	35.17
575.838	35.33
576.177	35.5
576.517	35.68
576.856	35.88
577.196	36.09
577.535	36.28
577.875	36.41
578.214	36.61
578.553	36.77
578.893	37.01
579.232	37.15
579.571	37.37
579.91	37.5
580.25	37.63
580.589	37.74
580.928	37.9
581.267	38.01
581.606	38.14
581.945	38.27
582.283	38.44
582.622	38.63
582.961	38.79
583.3	38.95
583.639	39.05
583.977	39.16
584.316	39.28
584.654	39.38
584.993	39.5
585.332	39.68
585.67	39.88
586.008	39.97
586.347	40.16
586.685	40.22
587.024	40.34
587.362	40.45
587.7	40.55
588.038	40.66
588.376	40.83
588.715	41
589.053	41.09
589.391	41.15
589.729	41.27
590.067	41.39
590.404	41.49
590.742	41.65
591.08	41.83
591.418	41.88
591.756	42.02
592.093	42.19
592.431	42.32
592.769	42.43
593.106	42.58
593.444	42.63
593.781	42.71
594.119	42.81
594.456	42.9
594.793	42.99
595.131	43.06
595.468	43.09
595.805	43.05
596.143	43.14
596.48	43.24
596.817	43.21
597.154	43.26
597.491	43.31
597.828	43.35
598.165	43.33
598.502	43.43
598.839	43.47
599.176	43.51
599.512	43.48
599.849	43.47
600.186	43.49
600.523	43.61
600.859	43.71
601.196	43.82
601.532	43.9
601.869	43.95
602.205	44.02
602.542	44.07
602.878	44.17
603.215	44.24
603.551	44.28
603.887	44.42
604.223	44.49
604.56	44.52
604.896	44.53
605.232	44.68
605.568	44.76
605.904	44.8
606.24	44.87
606.576	44.95
606.912	45.04
607.248	45.11
607.583	45.16
607.919	45.24
608.255	45.28
608.591	45.32
608.926	45.42
609.262	45.52
609.597	45.58
609.933	45.64
610.268	45.69
610.604	45.75
610.939	45.75
611.275	45.79
611.61	45.84
611.945	45.9
612.281	45.87
612.616	45.8
612.951	45.81
613.286	45.83
613.621	45.89
613.956	45.98
614.291	45.96
614.626	46.02
614.961	45.96
615.296	46.02
615.631	46.04
615.966	46.1
616.3	46.09
616.635	46.16
616.97	46.14
617.304	46.13
617.639	46.18
617.973	46.24
618.308	46.27
618.642	46.33
618.977	46.4
619.311	46.42
619.646	46.56
619.98	46.67
620.314	46.67
620.648	46.73
620.983	46.71
621.317	46.79
621.651	46.8
621.985	46.88
622.319	46.89
622.653	46.91
622.987	46.9
623.321	47.01
623.655	47.04
623.988	47.05
624.322	47.13
624.656	47.2
624.99	47.23
625.323	47.29
625.657	47.35
625.99	47.37
626.324	47.44
626.657	47.39
626.991	47.43
627.324	47.46
627.658	47.5
627.991	47.53
628.324	47.53
628.657	47.58
628.991	47.6
629.324	47.59
629.657	47.71
629.99	47.74
630.323	47.68
630.656	47.73
630.989	47.92
631.322	47.92
631.655	47.93
631.987	47.98
632.32	47.94
632.653	47.92
632.986	47.88
633.318	47.83
633.651	47.95
633.984	47.93
634.316	48.04
634.649	48.02
634.981	48.06
635.313	48.13
635.646	48.16
635.978	48.23
636.31	48.31
636.643	48.25
636.975	48.33
637.307	48.4
637.639	48.42
637.971	48.38
638.303	48.39
638.635	48.51
638.967	48.41
639.299	48.37
639.631	48.49
639.963	48.63
640.295	48.67
640.626	48.59
640.958	48.63
641.29	48.6
641.621	48.56
641.953	48.53
642.285	48.51
642.616	48.49
642.948	48.41
643.279	48.43
643.61	48.46
643.942	48.45
644.273	48.45
644.604	48.48
644.936	48.51
645.267	48.6
645.598	48.54
645.929	48.69
646.26	48.73
646.591	48.68
646.922	48.62
647.253	48.71
647.584	48.84
647.915	48.84
648.245	48.83
648.576	48.97
648.907	49.04
649.238	49.03
649.568	48.97
649.899	49.08
650.229	48.91
650.56	48.85
650.89	48.84
651.221	48.93
651.551	48.96
651.882	48.88
652.212	48.87
652.542	48.94
652.872	48.92
653.203	49.04
653.533	48.96
653.863	49.07
654.193	49.04
654.523	49.03
654.853	49.09
655.183	49.16
655.513	49.1
655.843	49.12
656.172	49.17
656.502	49.23
656.832	49.19
657.162	49.37
657.491	49.49
657.821	49.48
658.15	49.42
658.48	49.32
658.809	49.42
659.139	49.44
659.468	49.43
659.798	49.47
660.127	49.48
660.456	49.55
660.785	49.48
661.115	49.49
661.444	49.49
661.773	49.54
662.102	49.53
662.431	49.62
662.76	49.57
663.089	49.71
663.418	49.78
663.747	49.73
664.076	49.77
664.404	49.67
664.733	49.67
665.062	49.78
665.39	49.78
665.719	49.82
666.048	49.87
666.376	49.86
666.705	49.88
667.033	49.85
667.362	49.93
667.69	49.91
668.018	49.96
668.347	49.93
668.675	49.83
669.003	49.88
669.331	49.89
669.659	50.01
669.987	49.9
670.315	49.86
670.643	49.92
670.971	50
671.299	50.03
671.627	50.12
671.955	50.01
672.283	50.14
672.61	50.15
672.938	50.07
673.266	50.17
673.593	50.13
673.921	50.27
674.249	50.23
674.576	50.18
674.904	50.17
675.231	50.24
675.558	50.39
675.886	50.32
676.213	50.33
676.54	50.34
676.867	50.34
677.195	50.35
677.522	50.38
677.849	50.39
678.176	50.48
678.503	50.43
678.83	50.48
679.157	50.36
679.484	50.37
679.81	50.41
680.137	50.34
680.464	50.33
680.791	50.25
681.117	50.31
681.444	50.52
681.771	50.58
682.097	50.63
682.424	50.49
682.75	50.63
683.077	50.65
683.403	50.67
683.729	50.69
684.056	50.94
684.382	51.06
684.708	50.9
685.034	50.94
685.36	51.02
685.686	51.05
686.012	51.28
686.339	51.24
686.664	51.12
686.99	51.08
687.316	51.09
687.642	51.05
687.968	50.99
688.294	50.86
688.619	50.87
688.945	50.86
689.271	50.96
689.596	50.87
689.922	50.85
690.247	50.81
690.573	50.94
690.898	50.82
691.224	50.79
691.549	50.85
691.874	50.8
692.2	50.8
692.525	50.93
692.85	50.79
693.175	50.77
693.5	50.97
693.825	51.13
694.15	51.22
694.475	51.23
694.8	51.15
695.125	51.2
695.45	51.14
695.775	51.05
696.099	50.97
696.424	51.05
696.749	51.11
697.073	51.23
697.398	51.2
697.723	51.15
698.047	51.2
698.372	51.28
698.696	51.37
699.02	51.26
699.345	51.36
699.669	51.45
699.993	51.51
700.318	51.51
700.642	51.45
700.966	51.51
701.29	51.55
701.614	51.78
701.938	51.85
702.262	51.93
702.586	51.97
702.91	52.19
703.234	52.2
703.557	52.16
703.881	52
704.205	51.98
704.529	52.13
704.852	52
705.176	52.09
705.499	52.12
705.823	52.28
706.146	52.04
706.47	52.11
706.793	52.1
707.117	51.99
707.44	51.99
707.763	51.85
708.086	51.86
708.409	51.75
708.733	51.61
709.056	51.53
709.379	51.7
709.702	51.55
710.025	51.59
710.348	51.71
710.671	51.82
710.993	51.67
711.316	51.71
711.639	51.62
711.962	51.62
712.284	51.61
712.607	51.64
712.93	51.65
713.252	51.56
713.575	51.61
713.897	51.77
714.22	51.81
714.542	52.02
714.864	52.18
715.187	52.05
715.509	52.15
715.831	52.13
716.153	52.06
716.475	52.1
716.798	52.05
717.12	51.98
717.442	51.94
717.764	52.07
718.085	51.82
718.407	52.1
718.729	51.88
719.051	51.83
719.373	51.79
719.695	51.75
720.016	51.85
720.338	51.83
720.659	51.65
720.981	51.56
721.302	51.52
721.624	51.38
721.945	51.51
722.267	51.61
722.588	52.08
722.909	52.03
723.231	52.06
723.552	52.13
723.873	51.93
724.194	52.02
724.515	51.88
724.836	51.82
725.157	52
725.478	52.27
725.799	52.21
726.12	52.14
726.441	52.11
726.762	51.95
727.083	51.87
727.403	51.76
727.724	51.82
728.045	51.46
728.365	51.41
728.686	51.37
729.006	51.43
729.327	50.94
729.647	51.02
729.967	50.98
730.288	50.87
730.608	51.1
730.928	51.16
731.249	51.28
731.569	51.36
731.889	51.21
732.209	50.96
732.529	51.1
732.849	51.12
733.169	51.14
733.489	51.04
733.809	51.24
734.129	51.43
734.448	51.21
734.768	51.43
735.088	51.56
735.408	51.72
735.727	51.55
736.047	51.89
736.366	52.02
736.686	52.11
737.005	52.17
737.325	51.91
737.644	51.88
737.963	51.76
738.283	51.7
738.602	51.72
738.921	51.86
739.24	51.78
739.56	51.72
739.879	51.72
740.198	51.88
740.517	51.7
740.836	51.83
741.155	52.07
741.473	52.27
741.792	52.14
742.111	52.17
742.43	52.1
742.748	51.82
743.067	51.52
743.386	51.36
743.704	51.3
744.023	51.62
744.341	51.42
744.66	51.56
744.978	51.82
745.297	51.69
745.615	51.73
745.933	51.54
746.252	51.7
746.57	51.99
746.888	52.41
747.206	52.49
747.524	52.36
747.842	52.5
748.16	52.11
748.478	52.09
748.796	52.1
749.114	52.22
749.432	52.22
749.749	52.23
750.067	52.54
750.385	52.86
750.703	52.8
751.02	52.86
751.338	53
751.655	52.63
751.973	52.74
752.29	52.4
752.608	52.6
752.925	52.34
753.242	51.98
753.56	51.44
753.877	51.58
754.194	51.61
754.511	51.5
754.828	51.52
755.145	51.6
755.462	51.16
755.779	51.22
756.096	51.53
756.413	51.55
756.73	51.44
757.047	51.42
757.364	51.5
757.68	51.93
757.997	51.91
758.314	52.38
758.63	52.35
758.947	52.72
759.264	52.86
759.58	53.2
759.896	53.4
760.213	53.62
760.529	53.8
760.846	53.83
761.162	54.02
761.478	54.18
761.794	54.43
762.11	54.61
762.426	54.44
762.743	54.43
763.059	54.72
763.375	54.81
763.69	54.72
764.006	54.53
764.322	54.03
764.638	54.11
764.954	53.98
765.27	53.89
765.585	53.87
765.901	53.79
766.216	53.73
766.532	53.57
766.848	53.53
767.163	52.97
767.478	52.98
767.794	53.07
768.109	52.9
768.424	52.48
768.74	52.76
769.055	52.96
769.37	53.02
769.685	52.72
770	52.41
770.315	52.31
770.63	52.59
770.945	52.86
771.26	52.79
771.575	52.86
771.89	53.02
772.205	52.76
772.52	52.85
772.834	52.75
773.149	52.86
773.464	52.97
773.778	53.42
774.093	53.73
774.407	53.51
774.722	53.93
775.036	54.37
775.351	54.27
775.665	54.43
775.979	54.33
776.293	54.54
776.608	54.43
776.922	54.26
777.236	53.76
777.55	53.25
777.864	52.99
778.178	52.8
778.492	53.02
778.806	53.12
779.12	52.98
779.434	53.11
779.747	53.19
780.061	53.03
780.375	53.34
780.689	52.7
781.002	52.26
781.316	51.98
781.629	51.81
781.943	51.39
782.256	50.95
782.57	50.74
782.883	50.95
783.196	51.15
783.51	51.21
783.823	51.78
784.136	52.76
784.449	52.92
784.762	53.12
785.075	52.62
785.388	52.73
785.701	52.83
786.014	52.51
786.327	52.66
786.64	52.73
786.953	52.4
787.266	52.87
787.578	53.22
787.891	53.46
788.204	53.45
788.516	54.11
788.829	54.18
789.141	54.18
789.454	53.94
789.766	54.09
790.079	53.79
790.391	53.55
790.703	53.68
791.016	54.08
791.328	54.19
791.64	54.64
791.952	54.68
792.264	54.05
792.576	54.42
792.888	54.34
793.2	54.43
793.512	54.59
793.824	54.66
794.136	54.61
794.448	54.73
794.76	54.75
795.071	54.23
795.383	54.73
795.695	54.65
796.006	54.8
796.318	54.33
796.629	54.41
796.941	54.57
797.252	53.93
797.564	53.5
797.875	53.24
798.186	52.73
798.497	52.76
798.809	53.54
799.12	53.3
799.431	53.07
799.742	52.6
800.053	52.6
800.364	52.67
800.675	52.88
800.986	52.41
801.297	52.65
801.608	53.11
801.918	52.58
802.229	52.73
802.54	52.31
802.851	52.48
803.161	53.07
803.472	53.55
803.782	54.21
804.093	54.05
804.403	53.84
804.714	54.23
805.024	54.94
805.334	55.09
805.645	55.34
805.955	55.33
806.265	55.67
806.575	55.13
806.885	54.8
807.195	55.24
807.505	55.17
807.815	55.37
808.125	54.67
808.435	55.07
808.745	54.59
809.055	54.92
809.365	54.75
809.674	54.35
809.984	53.83
810.294	53.69
810.603	53.6
810.913	54.29
811.222	54.28
811.532	53.37
811.841	53.6
812.151	53.49
812.46	53.78
812.769	53.84
813.079	53.89
813.388	53.59
813.697	52.54
814.006	52.93
814.315	52.52
814.624	52.94
814.933	52.64
815.242	53.06
815.551	53.11
815.86	54.41
816.169	54.23
816.478	53.78
816.786	54.01
817.095	54.15
817.404	54.02
817.712	53.56
818.021	54.01
818.33	53.46
818.638	53.34
818.947	53.67
819.255	53.95
819.563	54.31
819.872	54.56
820.18	54.48
820.488	54.69
820.796	54.79
821.105	55.15
821.413	55.21
821.721	55.04
822.029	54.94
822.337	54.85
822.645	55.23
822.953	55.26
823.26	55.02
823.568	55.13
823.876	55.14
824.184	55.07
824.491	54.91
824.799	54.84
825.107	54.96
825.414	54.9
825.722	54.83
826.029	54.96
826.337	54.91
826.644	54.99
826.951	54.96
827.259	54.87
827.566	54.52
827.873	54.45
828.18	54.7
828.488	54.83
828.795	54.81
829.102	54.4
829.409	54.42
829.716	54.88
830.023	54.79
830.329	54.74
830.636	54.95
830.943	55.32
831.25	55.67
831.557	55.36
831.863	55.35
832.17	55.16
832.476	55.31
832.783	55.63
833.089	55.34
833.396	55.34
833.702	55.4
834.009	55.42
834.315	55.49
834.621	55.17
834.928	54.69
835.234	54.26
835.54	54.45
835.846	54.35
836.152	53.98
836.458	53.72
836.764	53.62
837.07	53.19
837.376	52.99
837.682	52.85
837.988	53.12
838.293	53.03
838.599	52.62
838.905	52.09
839.211	51.24
839.516	51.73
839.822	51.23
840.127	50.59
840.433	49.81
840.738	50.14
841.044	50.68
841.349	50.96
841.654	50.7
841.959	50.43
842.265	50.67
842.57	50.42
842.875	50.37
843.18	50.39
843.485	51.23
843.79	50.73
844.095	50.71
844.4	50.98
844.705	51.93
845.01	53.12
845.315	52.9
845.619	53.66
845.924	52.83
846.229	52.59
846.533	52.76
846.838	54.37
847.142	53.72
847.447	52.29
847.751	52.06
848.056	54.2
848.36	53.68
848.664	52.66
848.969	50.94
849.273	49.34
849.577	48.74
849.881	47.72
850.185	49.56
850.489	49.73
850.794	49.67
851.097	47.88
851.401	47.98
851.705	47.43
852.009	47.95
852.313	47.7
852.617	45.38
852.92	45.05
853.224	44.3
853.528	42.14
853.831	42.77
854.135	44.19
854.438	43.19
854.742	43.58
855.045	44.68
855.349	46.62
855.652	49.44
855.955	49.3
856.259	49.21
856.562	48
856.865	47.06
857.168	46.14
857.471	47.85
857.774	46.7
858.077	47.65
858.38	48.18
858.683	50.95
858.986	54.93
859.289	54
859.592	52.85
859.894	54.37
860.197	53.22
860.5	53.63
860.802	53.27
861.105	52.45
861.407	50.98
861.71	50.15
862.012	49.78
862.315	50.92
862.617	52.37
862.919	52.02
863.222	52.47
863.524	52.01
863.826	50.77
864.128	50.34
864.43	49.81
864.732	47.84
865.034	46.21
865.336	44.34
865.638	47.18
865.94	49.51
866.242	49.51
866.544	50.36
866.846	49.06
867.147	47.4
867.449	47.93
867.751	49.79
868.052	51.14
868.354	51.89
868.655	51.93
868.957	52.43
869.258	53.43
869.56	55.48
869.861	53.87
870.162	54.21
870.463	57.15
870.765	56.98
871.066	58.82
871.367	57.12
871.668	56.31
871.969	55.4
872.27	54.36
872.571	53.89
872.872	56.74
873.173	56.15
873.473	56.95
873.774	58.85
874.075	58.5
874.376	56.84
874.676	56.78
874.977	54.33
875.277	54.22
875.578	55.89
875.878	54.23
876.179	57.67
876.479	57.69
876.78	56.35
877.08	55.99
877.38	54.84
877.68	57.65
877.981	60.66
878.281	61.01
878.581	61.51
