Data from MVZ_BU78245_Reflection_00014.txt Node
Date: Tue Nov 19 12:01:25 EST 2019
User: vgr7
Spectrometer: USB2G7710
Scans to average: 3
Trigger mode: 4
Integration Time (sec): 2.000000E-2
Electric dark correction enabled: true
Boxcar width: 10
XAxis mode: Wavelengths
Number of Pixels in Spectrum: 2048
>>>>>Begin Spectral Data<<<<<
177.721	179.55
178.105	-177.78
178.488	66.46
178.871	200
179.254	-18.75
179.636	76.64
180.019	-10.9
180.402	-200
180.785	-1.56
181.168	5.74
181.55	-364.29
181.933	-196.88
182.316	502.78
182.698	-594.44
183.081	-103.13
183.463	-13.64
183.846	-7.46
184.228	20.96
184.611	32.74
184.993	13.75
185.376	55.08
185.758	38.03
186.14	47.73
186.522	97.09
186.904	60.42
187.287	31.21
187.669	53.03
188.051	16.29
188.433	31.56
188.815	33.23
189.197	4.93
189.579	13.09
189.961	8.8
190.342	8.81
190.724	-6.36
191.106	-14.54
191.488	-45.83
191.869	-31.41
192.251	-12.35
192.633	-28.23
193.014	-22.9
193.396	-38.18
193.777	-30.29
194.159	-36.86
194.54	-45.67
194.922	-39.18
195.303	-36.42
195.684	-39.03
196.065	-26.08
196.447	-24.04
196.828	-28.05
197.209	-18.46
197.59	-20.17
197.971	-23.45
198.352	-15.69
198.733	-14.27
199.114	-17.48
199.495	-4.04
199.876	-12.28
200.257	-20.71
200.638	-21.7
201.018	-26.53
201.399	-23.74
201.78	-4.64
202.16	-0.72
202.541	5.75
202.922	12.27
203.302	19.47
203.683	11.33
204.063	6.34
204.444	-6.3
204.824	0.72
205.204	14.04
205.585	16.14
205.965	20.25
206.345	22.71
206.725	43.18
207.106	54.3
207.486	30
207.866	48.25
208.246	39.45
208.626	45.47
209.006	33.29
209.386	37.33
209.766	46.23
210.145	37.31
210.525	23.85
210.905	23.55
211.285	25.95
211.664	33.97
212.044	32.88
212.424	50.53
212.803	65.73
213.183	52.27
213.562	67.46
213.942	78.22
214.321	82.38
214.701	66.06
215.08	73.54
215.459	97.33
215.838	103.69
216.218	138.34
216.597	127.51
216.976	197.13
217.355	179.02
217.734	152.84
218.113	178.73
218.492	197.76
218.871	231.67
219.25	189.29
219.629	199.03
220.008	166.57
220.387	101.11
220.766	70.65
221.144	74.14
221.523	68.66
221.902	55.34
222.28	48.3
222.659	51.45
223.037	45.48
223.416	39.06
223.794	36.92
224.173	31.82
224.551	24.09
224.929	24.66
225.308	24.89
225.686	22.46
226.064	15.62
226.442	19.64
226.821	12.14
227.199	14.65
227.577	14.83
227.955	16.8
228.333	22.58
228.711	22.77
229.089	19.64
229.467	16.78
229.845	14.49
230.222	16.56
230.6	16.99
230.978	19.16
231.356	17.24
231.733	18.83
232.111	19.55
232.488	22.7
232.866	22.45
233.243	22.41
233.621	20.87
233.998	20.78
234.376	20.08
234.753	18.52
235.13	17.68
235.508	16.97
235.885	17.06
236.262	13.15
236.639	11.07
237.016	9.96
237.393	10.82
237.77	10.95
238.147	9.53
238.524	9.16
238.901	8.24
239.278	7.72
239.655	7.76
240.032	6.67
240.409	5.58
240.785	4.95
241.162	4.23
241.539	4.1
241.915	3.5
242.292	3.58
242.668	3.95
243.045	4.04
243.421	4.49
243.798	4.27
244.174	4.69
244.551	4.95
244.927	5.32
245.303	4.82
245.679	4.79
246.056	5
246.432	4.76
246.808	5.01
247.184	5.21
247.56	4.71
247.936	4.96
248.312	4.96
248.688	5.02
249.064	5.18
249.44	5.41
249.815	5.74
250.191	5.72
250.567	5.66
250.943	5.43
251.318	5.05
251.694	5.07
252.069	5.16
252.445	5.26
252.82	5.38
253.196	5.56
253.571	5.63
253.947	5.82
254.322	5.4
254.697	5.1
255.073	4.92
255.448	5.08
255.823	5.16
256.198	4.89
256.573	4.71
256.948	4.64
257.323	4.36
257.698	4.16
258.073	4.01
258.448	4.08
258.823	3.95
259.198	4.24
259.573	4.04
259.948	3.95
260.322	3.84
260.697	3.63
261.072	3.78
261.446	3.83
261.821	3.61
262.195	3.89
262.57	3.77
262.944	3.9
263.319	3.94
263.693	3.78
264.067	4.06
264.442	3.96
264.816	4.04
265.19	4.05
265.564	3.93
265.938	4.26
266.313	4.13
266.687	4.32
267.061	4.05
267.435	4.39
267.809	4.21
268.183	3.98
268.556	4
268.93	4.04
269.304	3.91
269.678	3.96
270.051	3.73
270.425	3.78
270.799	3.46
271.172	3.51
271.546	3.52
271.919	3.42
272.293	3.6
272.666	3.29
273.04	3.32
273.413	3.46
273.787	3.29
274.16	3.45
274.533	3.54
274.906	3.6
275.279	3.58
275.653	3.64
276.026	3.68
276.399	3.64
276.772	3.42
277.145	3.42
277.518	3.4
277.891	3.6
278.263	3.59
278.636	3.76
279.009	3.75
279.382	3.69
279.755	3.66
280.127	3.58
280.5	3.74
280.872	3.79
281.245	3.74
281.617	3.61
281.99	3.58
282.362	3.5
282.735	3.47
283.107	3.46
283.479	3.59
283.852	3.78
284.224	3.99
284.596	4.08
284.968	4.09
285.34	4.1
285.713	4.14
286.085	3.98
286.457	4
286.829	4.09
287.201	4.07
287.572	4.11
287.944	4.13
288.316	4.16
288.688	4.18
289.06	4.17
289.431	4.36
289.803	4.42
290.175	4.32
290.546	4.45
290.918	4.32
291.289	4.32
291.661	4.47
292.032	4.3
292.403	4.21
292.775	4.27
293.146	4.4
293.517	4.3
293.889	4.46
294.26	4.4
294.631	4.26
295.002	4.36
295.373	4.26
295.744	4.23
296.115	4.27
296.486	4.2
296.857	4.31
297.228	4.16
297.599	4.09
297.97	4.34
298.34	4.4
298.711	4.49
299.082	4.52
299.452	4.39
299.823	4.52
300.194	4.63
300.564	4.52
300.935	4.38
301.305	4.39
301.676	4.36
302.046	4.37
302.416	4.45
302.787	4.45
303.157	4.46
303.527	4.69
303.897	4.59
304.267	4.69
304.637	4.77
305.008	4.78
305.378	4.73
305.748	4.62
306.117	4.55
306.487	4.71
306.857	4.8
307.227	4.78
307.597	4.76
307.967	4.71
308.336	4.8
308.706	4.96
309.076	5.1
309.445	5.08
309.815	5.14
310.184	5.23
310.554	5.17
310.923	5.13
311.293	5.02
311.662	5.2
312.031	5.22
312.401	5.05
312.77	5.15
313.139	5.23
313.508	5.11
313.877	5.25
314.246	5.18
314.616	5.23
314.985	5.23
315.353	5.07
315.722	5.28
316.091	5.29
316.46	5.11
316.829	5.11
317.198	5.27
317.567	5.47
317.935	5.42
318.304	5.71
318.672	5.9
319.041	6
319.41	5.88
319.778	5.89
320.147	6.12
320.515	6.19
320.883	6.23
321.252	6.45
321.62	6.26
321.988	6.35
322.357	6.34
322.725	6.5
323.093	6.66
323.461	6.51
323.829	6.59
324.197	6.73
324.565	6.73
324.933	6.72
325.301	6.48
325.669	6.47
326.037	6.38
326.405	6.43
326.772	6.46
327.14	6.4
327.508	6.45
327.875	6.37
328.243	6.43
328.61	6.5
328.978	6.56
329.346	6.54
329.713	6.62
330.08	6.5
330.448	6.5
330.815	6.55
331.182	6.65
331.55	6.57
331.917	6.62
332.284	6.67
332.651	6.62
333.018	6.78
333.385	6.9
333.752	6.86
334.119	6.79
334.486	6.73
334.853	6.83
335.22	6.79
335.587	6.78
335.954	6.66
336.32	6.6
336.687	6.53
337.054	6.53
337.42	6.38
337.787	6.43
338.153	6.39
338.52	6.52
338.886	6.48
339.253	6.44
339.619	6.41
339.986	6.39
340.352	6.41
340.718	6.32
341.084	6.21
341.451	6.31
341.817	6.4
342.183	6.36
342.549	6.38
342.915	6.39
343.281	6.46
343.647	6.49
344.013	6.44
344.379	6.54
344.745	6.69
345.11	6.66
345.476	6.75
345.842	6.65
346.208	6.66
346.573	6.71
346.939	6.76
347.304	6.8
347.67	6.73
348.035	6.72
348.401	6.76
348.766	6.74
349.132	6.67
349.497	6.7
349.862	6.71
350.228	6.69
350.593	6.76
350.958	6.73
351.323	6.72
351.688	6.73
352.053	6.58
352.418	6.53
352.783	6.58
353.148	6.46
353.513	6.49
353.878	6.33
354.243	6.25
354.608	6.35
354.972	6.3
355.337	6.35
355.702	6.38
356.066	6.44
356.431	6.41
356.795	6.4
357.16	6.35
357.524	6.36
357.889	6.27
358.253	6.23
358.618	6.2
358.982	6.15
359.346	6.23
359.71	6.28
360.075	6.26
360.439	6.3
360.803	6.34
361.167	6.37
361.531	6.37
361.895	6.38
362.259	6.37
362.623	6.36
362.987	6.37
363.351	6.35
363.714	6.33
364.078	6.3
364.442	6.25
364.806	6.24
365.169	6.22
365.533	6.23
365.896	6.27
366.26	6.22
366.623	6.25
366.987	6.11
367.35	6.15
367.714	6.08
368.077	6.02
368.44	6.02
368.803	5.89
369.167	5.79
369.53	5.79
369.893	5.73
370.256	5.7
370.619	5.65
370.982	5.62
371.345	5.6
371.708	5.68
372.071	5.62
372.434	5.64
372.797	5.61
373.159	5.54
373.522	5.44
373.885	5.5
374.247	5.38
374.61	5.39
374.973	5.27
375.335	5.29
375.698	5.28
376.06	5.22
376.423	5.29
376.785	5.27
377.147	5.18
377.51	5.1
377.872	5.17
378.234	5.14
378.596	5.13
378.958	5.17
379.321	5.07
379.683	5.17
380.045	5.06
380.407	5.02
380.769	5.07
381.13	5.05
381.492	4.92
381.854	4.95
382.216	4.98
382.578	4.98
382.939	4.95
383.301	4.85
383.663	4.81
384.024	4.78
384.386	4.82
384.747	4.81
385.109	4.8
385.47	4.73
385.832	4.73
386.193	4.69
386.554	4.57
386.916	4.61
387.277	4.51
387.638	4.53
387.999	4.48
388.36	4.4
388.721	4.37
389.082	4.4
389.443	4.41
389.804	4.37
390.165	4.35
390.526	4.3
390.887	4.31
391.248	4.26
391.609	4.22
391.969	4.23
392.33	4.19
392.691	4.17
393.051	4.12
393.412	4.07
393.772	4.05
394.133	4.03
394.493	3.96
394.854	3.97
395.214	3.94
395.574	3.92
395.935	3.97
396.295	3.99
396.655	3.95
397.015	3.9
397.376	3.88
397.736	3.85
398.096	3.85
398.456	3.82
398.816	3.83
399.176	3.81
399.535	3.73
399.895	3.73
400.255	3.75
400.615	3.71
400.975	3.66
401.334	3.65
401.694	3.67
402.054	3.67
402.413	3.64
402.773	3.64
403.132	3.66
403.492	3.65
403.851	3.63
404.211	3.64
404.57	3.63
404.929	3.6
405.288	3.57
405.648	3.57
406.007	3.54
406.366	3.53
406.725	3.54
407.084	3.56
407.443	3.54
407.802	3.5
408.161	3.55
408.52	3.57
408.879	3.58
409.238	3.59
409.596	3.58
409.955	3.56
410.314	3.54
410.673	3.51
411.031	3.49
411.39	3.46
411.748	3.47
412.107	3.44
412.465	3.45
412.824	3.44
413.182	3.43
413.54	3.45
413.899	3.41
414.257	3.39
414.615	3.37
414.974	3.37
415.332	3.35
415.69	3.33
416.048	3.33
416.406	3.28
416.764	3.25
417.122	3.24
417.48	3.25
417.838	3.23
418.195	3.22
418.553	3.2
418.911	3.19
419.269	3.18
419.626	3.19
419.984	3.18
420.342	3.19
420.699	3.19
421.057	3.18
421.414	3.17
421.772	3.18
422.129	3.17
422.486	3.17
422.844	3.18
423.201	3.17
423.558	3.16
423.915	3.17
424.273	3.17
424.63	3.18
424.987	3.16
425.344	3.17
425.701	3.18
426.058	3.18
426.415	3.17
426.772	3.17
427.128	3.17
427.485	3.19
427.842	3.18
428.199	3.17
428.555	3.16
428.912	3.16
429.269	3.13
429.625	3.13
429.982	3.12
430.338	3.11
430.695	3.09
431.051	3.09
431.407	3.07
431.764	3.05
432.12	3.04
432.476	3.04
432.832	3.04
433.189	3.03
433.545	3.02
433.901	3.04
434.257	3.02
434.613	3.02
434.969	2.99
435.325	3
435.681	3.01
436.036	3.02
436.392	3.03
436.748	3.05
437.104	3.04
437.459	3.04
437.815	3.04
438.171	3.04
438.526	3.04
438.882	3.06
439.237	3.08
439.593	3.09
439.948	3.08
440.304	3.07
440.659	3.06
441.014	3.07
441.369	3.06
441.725	3.06
442.08	3.05
442.435	3.06
442.79	3.04
443.145	3.02
443.5	3.01
443.855	3.01
444.21	3.01
444.565	3.01
444.92	3
445.275	2.99
445.629	2.99
445.984	2.98
446.339	2.96
446.693	2.95
447.048	2.94
447.403	2.94
447.757	2.93
448.112	2.94
448.466	2.93
448.82	2.94
449.175	2.95
449.529	2.94
449.883	2.93
450.238	2.92
450.592	2.92
450.946	2.92
451.3	2.91
451.654	2.9
452.008	2.9
452.362	2.89
452.716	2.9
453.07	2.9
453.424	2.91
453.778	2.92
454.132	2.94
454.486	2.93
454.839	2.92
455.193	2.92
455.547	2.91
455.9	2.92
456.254	2.91
456.607	2.91
456.961	2.92
457.314	2.94
457.668	2.94
458.021	2.94
458.375	2.96
458.728	2.96
459.081	2.96
459.434	2.97
459.787	3
460.141	3
460.494	3.02
460.847	3.03
461.2	3.02
461.553	3
461.906	3.01
462.259	3.01
462.611	3.02
462.964	3.04
463.317	3.02
463.67	3.06
464.022	3.06
464.375	3.06
464.728	3.06
465.08	3.06
465.433	3.09
465.785	3.07
466.138	3.09
466.49	3.11
466.843	3.12
467.195	3.12
467.547	3.11
467.899	3.12
468.252	3.09
468.604	3.09
468.956	3.13
469.308	3.13
469.66	3.16
470.012	3.17
470.364	3.17
470.716	3.2
471.068	3.18
471.42	3.16
471.772	3.18
472.123	3.18
472.475	3.21
472.827	3.2
473.178	3.24
473.53	3.23
473.882	3.23
474.233	3.2
474.585	3.19
474.936	3.19
475.288	3.17
475.639	3.19
475.99	3.19
476.342	3.18
476.693	3.17
477.044	3.16
477.395	3.18
477.746	3.16
478.097	3.17
478.448	3.15
478.8	3.18
479.15	3.14
479.501	3.12
479.852	3.1
480.203	3.1
480.554	3.08
480.905	3.08
481.255	3.07
481.606	3.08
481.957	3.09
482.307	3.09
482.658	3.1
483.009	3.09
483.359	3.09
483.709	3.09
484.06	3.11
484.41	3.1
484.761	3.11
485.111	3.12
485.461	3.11
485.811	3.12
486.162	3.11
486.512	3.13
486.862	3.13
487.212	3.13
487.562	3.13
487.912	3.14
488.262	3.14
488.612	3.15
488.961	3.14
489.311	3.12
489.661	3.14
490.011	3.13
490.36	3.13
490.71	3.12
491.06	3.12
491.409	3.11
491.759	3.11
492.108	3.1
492.458	3.08
492.807	3.07
493.157	3.07
493.506	3.08
493.855	3.07
494.204	3.07
494.554	3.1
494.903	3.11
495.252	3.1
495.601	3.13
495.95	3.14
496.299	3.16
496.648	3.19
496.997	3.2
497.346	3.23
497.695	3.25
498.043	3.31
498.392	3.32
498.741	3.36
499.09	3.39
499.438	3.41
499.787	3.47
500.135	3.5
500.484	3.52
500.832	3.54
501.181	3.59
501.529	3.63
501.878	3.65
502.226	3.7
502.574	3.74
502.923	3.76
503.271	3.8
503.619	3.84
503.967	3.89
504.315	3.92
504.663	3.94
505.011	3.98
505.359	3.99
505.707	4.03
506.055	4.07
506.403	4.1
506.751	4.15
507.098	4.17
507.446	4.22
507.794	4.28
508.141	4.31
508.489	4.36
508.837	4.41
509.184	4.45
509.531	4.48
509.879	4.52
510.226	4.56
510.574	4.61
510.921	4.67
511.268	4.69
511.616	4.76
511.963	4.81
512.31	4.86
512.657	4.91
513.004	4.96
513.351	5.01
513.698	5.06
514.045	5.11
514.392	5.19
514.739	5.25
515.086	5.31
515.432	5.4
515.779	5.46
516.126	5.55
516.473	5.61
516.819	5.67
517.166	5.75
517.512	5.84
517.859	5.89
518.205	5.92
518.552	6
518.898	6.04
519.245	6.12
519.591	6.2
519.937	6.27
520.283	6.34
520.629	6.39
520.976	6.48
521.322	6.57
521.668	6.63
522.014	6.73
522.36	6.82
522.706	6.88
523.052	6.98
523.398	7.06
523.743	7.17
524.089	7.28
524.435	7.35
524.781	7.44
525.126	7.53
525.472	7.65
525.817	7.71
526.163	7.79
526.509	7.83
526.854	7.89
527.199	7.95
527.545	8.01
527.89	8.08
528.235	8.14
528.581	8.2
528.926	8.26
529.271	8.31
529.616	8.37
529.961	8.44
530.306	8.49
530.651	8.55
530.996	8.63
531.341	8.71
531.686	8.78
532.031	8.87
532.376	8.94
532.721	9.01
533.065	9.1
533.41	9.2
533.755	9.31
534.099	9.4
534.444	9.49
534.788	9.59
535.133	9.69
535.477	9.79
535.822	9.9
536.166	10.04
536.51	10.18
536.855	10.31
537.199	10.46
537.543	10.6
537.887	10.77
538.231	10.92
538.576	11.08
538.92	11.25
539.264	11.39
539.608	11.53
539.951	11.66
540.295	11.8
540.639	11.96
540.983	12.1
541.327	12.24
541.671	12.37
542.014	12.52
542.358	12.65
542.701	12.78
543.045	12.91
543.389	13.05
543.732	13.19
544.075	13.34
544.419	13.48
544.762	13.65
545.105	13.8
545.449	13.96
545.792	14.11
546.135	14.29
546.478	14.46
546.821	14.69
547.165	14.91
547.508	15.12
547.851	15.32
548.194	15.51
548.536	15.73
548.879	15.94
549.222	16.13
549.565	16.35
549.908	16.57
550.25	16.79
550.593	16.97
550.936	17.18
551.278	17.41
551.621	17.65
551.963	17.9
552.306	18.13
552.648	18.36
552.991	18.6
553.333	18.83
553.675	19.08
554.017	19.23
554.36	19.44
554.702	19.63
555.044	19.83
555.386	20.06
555.728	20.26
556.07	20.47
556.412	20.75
556.754	20.96
557.096	21.21
557.438	21.48
557.78	21.78
558.121	22.08
558.463	22.29
558.805	22.58
559.147	22.81
559.488	23.06
559.83	23.34
560.171	23.64
560.513	23.82
560.854	24
561.196	24.27
561.537	24.52
561.878	24.77
562.22	25.03
562.561	25.27
562.902	25.52
563.243	25.76
563.584	25.97
563.925	26.22
564.266	26.41
564.607	26.6
564.948	26.77
565.289	26.94
565.63	27.15
565.971	27.31
566.312	27.42
566.653	27.59
566.993	27.75
567.334	27.86
567.675	28.07
568.015	28.27
568.356	28.45
568.696	28.65
569.037	28.81
569.377	28.94
569.718	29.1
570.058	29.21
570.398	29.39
570.739	29.56
571.079	29.69
571.419	29.87
571.759	30.01
572.099	30.15
572.439	30.29
572.779	30.47
573.119	30.61
573.459	30.8
573.799	30.93
574.139	31.05
574.479	31.24
574.819	31.39
575.158	31.52
575.498	31.61
575.838	31.71
576.177	31.84
576.517	32
576.856	32.13
577.196	32.26
577.535	32.46
577.875	32.54
578.214	32.68
578.553	32.85
578.893	32.97
579.232	33.07
579.571	33.22
579.91	33.29
580.25	33.44
580.589	33.52
580.928	33.63
581.267	33.77
581.606	33.88
581.945	34
582.283	34.15
582.622	34.31
582.961	34.41
583.3	34.55
583.639	34.61
583.977	34.72
584.316	34.92
584.654	34.97
584.993	35.09
585.332	35.21
585.67	35.23
586.008	35.35
586.347	35.54
586.685	35.6
587.024	35.71
587.362	35.78
587.7	35.85
588.038	35.96
588.376	36.05
588.715	36.15
589.053	36.19
589.391	36.19
589.729	36.25
590.067	36.3
590.404	36.37
590.742	36.45
591.08	36.54
591.418	36.58
591.756	36.64
592.093	36.68
592.431	36.74
592.769	36.88
593.106	36.96
593.444	36.95
593.781	37.07
594.119	37.15
594.456	37.23
594.793	37.33
595.131	37.32
595.468	37.39
595.805	37.38
596.143	37.48
596.48	37.62
596.817	37.75
597.154	37.92
597.491	37.93
597.828	37.98
598.165	38.01
598.502	38.08
598.839	38.12
599.176	38.24
599.512	38.29
599.849	38.37
600.186	38.39
600.523	38.48
600.859	38.5
601.196	38.53
601.532	38.6
601.869	38.67
602.205	38.77
602.542	38.8
602.878	38.89
603.215	38.93
603.551	38.97
603.887	39
604.223	38.94
604.56	39.07
604.896	39.15
605.232	39.21
605.568	39.26
605.904	39.25
606.24	39.3
606.576	39.35
606.912	39.34
607.248	39.43
607.583	39.47
607.919	39.46
608.255	39.55
608.591	39.57
608.926	39.62
609.262	39.65
609.597	39.71
609.933	39.73
610.268	39.76
610.604	39.79
610.939	39.83
611.275	39.87
611.61	39.88
611.945	39.9
612.281	39.92
612.616	39.93
612.951	40.05
613.286	40.02
613.621	40.07
613.956	40.12
614.291	40.17
614.626	40.25
614.961	40.35
615.296	40.29
615.631	40.26
615.966	40.27
616.3	40.38
616.635	40.34
616.97	40.4
617.304	40.42
617.639	40.48
617.973	40.48
618.308	40.49
618.642	40.4
618.977	40.37
619.311	40.47
619.646	40.6
619.98	40.66
620.314	40.75
620.648	40.74
620.983	40.74
621.317	40.76
621.651	40.84
621.985	40.78
622.319	40.97
622.653	41.16
622.987	41.22
623.321	41.21
623.655	41.33
623.988	41.39
624.322	41.37
624.656	41.43
624.99	41.44
625.323	41.45
625.657	41.53
625.99	41.56
626.324	41.52
626.657	41.49
626.991	41.53
627.324	41.59
627.658	41.67
627.991	41.74
628.324	41.7
628.657	41.59
628.991	41.68
629.324	41.66
629.657	41.55
629.99	41.51
630.323	41.59
630.656	41.5
630.989	41.52
631.322	41.61
631.655	41.53
631.987	41.51
632.32	41.61
632.653	41.68
632.986	41.68
633.318	41.7
633.651	41.69
633.984	41.63
634.316	41.59
634.649	41.59
634.981	41.62
635.313	41.61
635.646	41.68
635.978	41.72
636.31	41.69
636.643	41.76
636.975	41.88
637.307	41.82
637.639	41.95
637.971	41.9
638.303	41.93
638.635	41.95
638.967	42.01
639.299	42.03
639.631	41.95
639.963	42.05
640.295	42.01
640.626	41.94
640.958	41.93
641.29	41.91
641.621	41.9
641.953	41.77
642.285	41.79
642.616	41.8
642.948	41.86
643.279	41.82
643.61	41.84
643.942	41.77
644.273	41.87
644.604	41.85
644.936	41.94
645.267	41.86
645.598	41.86
645.929	41.9
646.26	41.91
646.591	42
646.922	41.96
647.253	42.06
647.584	42.22
647.915	42.32
648.245	42.33
648.576	42.33
648.907	42.47
649.238	42.61
649.568	42.63
649.899	42.64
650.229	42.78
650.56	42.67
650.89	42.77
651.221	42.64
651.551	42.68
651.882	42.74
652.212	42.76
652.542	42.82
652.872	42.81
653.203	42.97
653.533	43
653.863	43.02
654.193	43.12
654.523	42.96
654.853	43.03
655.183	43.06
655.513	43.15
655.843	43.13
656.172	43.11
656.502	43.15
656.832	43.2
657.162	43.06
657.491	43.13
657.821	42.98
658.15	43.04
658.48	43.09
658.809	43.03
659.139	43.1
659.468	43.12
659.798	43.22
660.127	43.07
660.456	43.06
660.785	43.08
661.115	43.09
661.444	43.18
661.773	43.16
662.102	43.21
662.431	43.11
662.76	43.06
663.089	43.13
663.418	43.1
663.747	43.02
664.076	43.06
664.404	43.08
664.733	43.22
665.062	43.18
665.39	43.06
665.719	43.05
666.048	42.96
666.376	42.92
666.705	42.85
667.033	42.94
667.362	42.86
667.69	42.95
668.018	42.89
668.347	42.91
668.675	42.88
669.003	42.92
669.331	43.03
669.659	43.17
669.987	43.15
670.315	43.15
670.643	43.19
670.971	43.24
671.299	43.19
671.627	43.19
671.955	43.34
672.283	43.44
672.61	43.4
672.938	43.6
673.266	43.73
673.593	43.68
673.921	43.65
674.249	43.74
674.576	43.7
674.904	43.68
675.231	43.79
675.558	43.81
675.886	43.87
676.213	43.92
676.54	43.83
676.867	43.77
677.195	43.95
677.522	43.96
677.849	44.01
678.176	44.09
678.503	44.04
678.83	43.96
679.157	43.85
679.484	43.95
679.81	43.87
680.137	43.86
680.464	44.07
680.791	44.08
681.117	44.04
681.444	44.01
681.771	43.99
682.097	43.88
682.424	43.86
682.75	43.79
683.077	43.65
683.403	43.74
683.729	43.79
684.056	43.68
684.382	43.69
684.708	43.65
685.034	43.7
685.36	43.82
685.686	43.87
686.012	44.04
686.339	44.04
686.664	43.91
686.99	43.91
687.316	43.87
687.642	43.84
687.968	44.01
688.294	44.09
688.619	44.03
688.945	44.22
689.271	44.3
689.596	44.25
689.922	44.44
690.247	44.49
690.573	44.54
690.898	44.56
691.224	44.53
691.549	44.58
691.874	44.55
692.2	44.59
692.525	44.58
692.85	44.54
693.175	44.47
693.5	44.52
693.825	44.58
694.15	44.5
694.475	44.59
694.8	44.35
695.125	44.52
695.45	44.66
695.775	44.46
696.099	44.43
696.424	44.43
696.749	44.34
697.073	44.25
697.398	44.21
697.723	44.3
698.047	44.38
698.372	44.35
698.696	44.35
699.02	44.41
699.345	44.45
699.669	44.36
699.993	44.39
700.318	44.5
700.642	44.46
700.966	44.41
701.29	44.27
701.614	44.39
701.938	44.23
702.262	44.14
702.586	44.2
702.91	44.21
703.234	44.18
703.557	44.24
703.881	44.35
704.205	44.27
704.529	44.14
704.852	44.05
705.176	44.1
705.499	44.14
705.823	44
706.146	43.83
706.47	43.97
706.793	43.97
707.117	43.92
707.44	44.04
707.763	44.15
708.086	44.31
708.409	44.24
708.733	44.21
709.056	44.33
709.379	44.43
709.702	44.6
710.025	44.72
710.348	44.58
710.671	44.58
710.993	44.68
711.316	44.68
711.639	44.65
711.962	44.57
712.284	44.5
712.607	44.2
712.93	44.49
713.252	44.36
713.575	44.4
713.897	44.48
714.22	44.26
714.542	44.06
714.864	44.09
715.187	44.03
715.509	44
715.831	44.01
716.153	43.94
716.475	43.75
716.798	43.62
717.12	43.86
717.442	43.8
717.764	43.83
718.085	43.81
718.407	43.81
718.729	43.7
719.051	43.69
719.373	43.91
719.695	43.63
720.016	43.84
720.338	43.83
720.659	43.66
720.981	43.86
721.302	43.86
721.624	43.68
721.945	43.83
722.267	43.9
722.588	43.72
722.909	43.55
723.231	43.44
723.552	43.6
723.873	43.42
724.194	43.46
724.515	43.38
724.836	43.34
725.157	43.41
725.478	43.76
725.799	43.79
726.12	43.98
726.441	44.09
726.762	44.09
727.083	44.19
727.403	44.3
727.724	44.32
728.045	44.47
728.365	44.54
728.686	44.64
729.006	44.81
729.327	44.9
729.647	45.08
729.967	44.95
730.288	44.87
730.608	44.9
730.928	44.95
731.249	44.9
731.569	44.94
731.889	44.85
732.209	44.63
732.529	44.79
732.849	44.82
733.169	45.03
733.489	44.98
733.809	44.82
734.129	44.74
734.448	44.58
734.768	44.44
735.088	44.33
735.408	44.05
735.727	43.76
736.047	43.72
736.366	43.77
736.686	43.8
737.005	43.79
737.325	43.78
737.644	43.63
737.963	43.74
738.283	44.1
738.602	44.04
738.921	43.93
739.24	43.77
739.56	43.39
739.879	43.17
740.198	42.99
740.517	43.08
740.836	43.23
741.155	43.15
741.473	43.29
741.792	43.44
742.111	43.81
742.43	43.93
742.748	44.08
743.067	44.29
743.386	44.6
743.704	44.68
744.023	44.9
744.341	45.07
744.66	45.1
744.978	44.71
745.297	44.94
745.615	45.04
745.933	45.24
746.252	45.75
746.57	45.84
746.888	46.12
747.206	45.76
747.524	45.74
747.842	46.19
748.16	46.1
748.478	45.88
748.796	45.83
749.114	45.9
749.432	45.55
749.749	44.97
750.067	45.06
750.385	45.16
750.703	44.76
751.02	44.66
751.338	44.75
751.655	44.97
751.973	44.76
752.29	45.09
752.608	44.96
752.925	44.79
753.242	44.74
753.56	44.15
753.877	44.75
754.194	44.81
754.511	44.25
754.828	44.35
755.145	44.4
755.462	44.33
755.779	44.31
756.096	44.48
756.413	44.72
756.73	44.72
757.047	44.59
757.364	44.82
757.68	44.74
757.997	44.63
758.314	44.27
758.63	44.26
758.947	44.04
759.264	44.18
759.58	43.9
759.896	44.12
760.213	44.55
760.529	44.19
760.846	44.18
761.162	44.72
761.478	44.81
761.794	45.16
762.11	45.32
762.426	45.33
762.743	45.5
763.059	45.57
763.375	45.67
763.69	45.72
764.006	45.77
764.322	46.04
764.638	46
764.954	45.96
765.27	46.3
765.585	46.48
765.901	46.43
766.216	46.45
766.532	46.23
766.848	46.35
767.163	46.64
767.478	46.43
767.794	46.25
768.109	46.42
768.424	46.39
768.74	46.18
769.055	46.41
769.37	46.12
769.685	46.02
770	45.77
770.315	45.99
770.63	46.09
770.945	45.74
771.26	45.84
771.575	46.04
771.89	46.08
772.205	45.93
772.52	45.38
772.834	45.67
773.149	45.9
773.464	45.85
773.778	45.85
774.093	46.11
774.407	46.31
774.722	46.43
775.036	46.15
775.351	46.43
775.665	46.04
775.979	46.57
776.293	46.72
776.608	46.75
776.922	46.69
777.236	46.77
777.55	46.77
777.864	46.78
778.178	46.52
778.492	46.37
778.806	46.57
779.12	47.33
779.434	47.15
779.747	47.28
780.061	47.51
780.375	47.34
780.689	47.52
781.002	47.4
781.316	46.76
781.629	46.99
781.943	47.21
782.256	47.19
782.57	47.2
782.883	47.2
783.196	47.45
783.51	47.28
783.823	47.14
784.136	47.19
784.449	46.95
784.762	47.57
785.075	47.09
785.388	46.99
785.701	47.01
786.014	47.38
786.327	47.26
786.64	46.84
786.953	46.8
787.266	46.46
787.578	46.55
787.891	46.87
788.204	47
788.516	46.78
788.829	47.09
789.141	47.07
789.454	46.64
789.766	46.95
790.079	46.77
790.391	46.82
790.703	46.69
791.016	47.2
791.328	47.08
791.64	47.34
791.952	47.32
792.264	47.06
792.576	47.11
792.888	46.74
793.2	47.34
793.512	47.12
793.824	47.95
794.136	47.68
794.448	47.41
794.76	47.56
795.071	47.35
795.383	47.28
795.695	47.35
796.006	47.23
796.318	46.4
796.629	46.73
796.941	46.53
797.252	46.87
797.564	46.85
797.875	46.35
798.186	46.06
798.497	45.75
798.809	46.05
799.12	45.74
799.431	45.57
799.742	44.91
800.053	44.83
800.364	44.55
800.675	45.13
800.986	45.33
801.297	44.77
801.608	44.79
801.918	45
802.229	44.86
802.54	45.49
802.851	45.48
803.161	44.89
803.472	45.04
803.782	44.6
804.093	44.39
804.403	44.82
804.714	45.38
805.024	45.47
805.334	45.35
805.645	45.68
805.955	46.52
806.265	46.89
806.575	47.55
806.885	47.62
807.195	46.75
807.505	46.74
807.815	46.7
808.125	45.75
808.435	45.41
808.745	45.69
809.055	45.66
809.365	45.68
809.674	45.79
809.984	45.53
810.294	45.45
810.603	45.24
810.913	44.9
811.222	44.25
811.532	45.19
811.841	45.49
812.151	44.99
812.46	44.43
812.769	44.43
813.079	44.32
813.388	43.7
813.697	43.52
814.006	43.1
814.315	43.21
814.624	44.39
814.933	44.46
815.242	44.59
815.551	44.75
815.86	44.56
816.169	45.26
816.478	45.38
816.786	45.95
817.095	46.34
817.404	47.11
817.712	47.32
818.021	47.26
818.33	47.17
818.638	47.31
818.947	47.27
819.255	46.44
819.563	46.49
819.872	46.54
820.18	46.98
820.488	47.15
820.796	47.43
821.105	47.58
821.413	47.55
821.721	47.11
822.029	47.04
822.337	47.12
822.645	46.89
822.953	47.03
823.26	46.97
823.568	47.1
823.876	47.02
824.184	47.09
824.491	46.92
824.799	46.81
825.107	46.89
825.414	46.79
825.722	47.16
826.029	47.16
826.337	47.25
826.644	46.97
826.951	47.11
827.259	46.97
827.566	46.9
827.873	46.88
828.18	47.16
828.488	47.33
828.795	47.37
829.102	47.71
829.409	47.59
829.716	47.83
830.023	47.47
830.329	47.33
830.636	47.26
830.943	47.44
831.25	47.46
831.557	47.88
831.863	48.46
832.17	48.04
832.476	48.01
832.783	47.86
833.089	48.22
833.396	47.75
833.702	47.86
834.009	47.94
834.315	48.23
834.621	48.29
834.928	48.12
835.234	48.27
835.54	48.05
835.846	47.87
836.152	47.82
836.458	47.75
836.764	48.31
837.07	48.54
837.376	48.66
837.682	48.66
837.988	48.4
838.293	48.58
838.599	49.16
838.905	48.94
839.211	49.75
839.516	49.57
839.822	51.42
840.127	51.63
840.433	51.55
840.738	50.72
841.044	50.26
841.349	50.76
841.654	50.8
841.959	51.4
842.265	51.87
842.57	51.05
842.875	51.79
843.18	51.72
843.485	52.67
843.79	51.97
844.095	52.82
844.4	52.36
844.705	53.31
845.01	52.42
845.315	53.16
845.619	52.54
845.924	54.76
846.229	53.03
846.533	53.22
846.838	53.79
847.142	54.68
847.447	55.54
847.751	53.52
848.056	56.19
848.36	56.51
848.664	56.7
848.969	58.7
849.273	59.5
849.577	57.69
849.881	57.14
850.185	57.8
850.489	57.52
850.794	56.31
851.097	55.62
851.401	57.18
851.705	58
852.009	57.68
852.313	56.04
852.617	56.98
852.92	56.43
853.224	53.71
853.528	54.39
853.831	53.49
854.135	57.03
854.438	53.73
854.742	53.63
855.045	52.06
855.349	50.06
855.652	49.42
855.955	50.42
856.259	49.56
856.562	49.38
856.865	46.98
857.168	47.24
857.471	46.93
857.774	47.18
858.077	45.62
858.38	46.29
858.683	45.87
858.986	44.62
859.289	44.91
859.592	47.48
859.894	46.71
860.197	48.44
860.5	46.83
860.802	48.1
861.105	47.71
861.407	49.2
861.71	49.54
862.012	48.68
862.315	49.33
862.617	50.4
862.919	50.61
863.222	53.73
863.524	53.62
863.826	51.55
864.128	51.07
864.43	53.64
864.732	52.49
865.034	52.39
865.336	52.73
865.638	53
865.94	51.8
866.242	54.26
866.544	53.03
866.846	52.3
867.147	52.67
867.449	51.35
867.751	50.32
868.052	50.96
868.354	53.06
868.655	54.65
868.957	51.5
869.258	53.11
869.56	52.13
869.861	53.97
870.162	53.76
870.463	54.69
870.765	53.21
871.066	52.74
871.367	51.68
871.668	48.92
871.969	49.33
872.27	50.65
872.571	49.87
872.872	50.23
873.173	50.47
873.473	46.94
873.774	47.34
874.075	47.82
874.376	46.53
874.676	45.94
874.977	43.2
875.277	43.45
875.578	41.81
875.878	41.77
876.179	40.43
876.479	41.22
876.78	38.66
877.08	37.81
877.38	38.7
877.68	41.53
877.981	44.56
878.281	43.74
878.581	41.33
