Data from MVZ_BU34099_Reflection_00004.txt Node
Date: Tue Nov 19 12:15:27 EST 2019
User: vgr7
Spectrometer: USB2G7710
Scans to average: 3
Trigger mode: 4
Integration Time (sec): 2.000000E-2
Electric dark correction enabled: true
Boxcar width: 10
XAxis mode: Wavelengths
Number of Pixels in Spectrum: 2048
>>>>>Begin Spectral Data<<<<<
177.721	670.04
178.105	-331.03
178.488	-1250.47
178.871	107.55
179.254	-0
179.636	243.56
180.019	90.08
180.402	-283.33
180.785	-47.48
181.168	34.55
181.55	369.23
181.933	477.55
182.316	1297.67
182.698	235.36
183.081	465.67
183.463	4292.31
183.846	321.85
184.228	355.1
184.611	-92.31
184.993	1200
185.376	159.73
185.758	87.67
186.14	174.55
186.522	105.8
186.904	37.24
187.287	37.2
187.669	22.09
188.051	26.69
188.433	7.21
188.815	50.06
189.197	8.45
189.579	20.67
189.961	40.21
190.342	40.4
190.724	30.31
191.106	26.31
191.488	19.18
191.869	35.36
192.251	18.99
192.633	22.56
193.014	28.33
193.396	20.34
193.777	27.31
194.159	19.09
194.54	25.18
194.922	31.86
195.303	20.69
195.684	31.31
196.065	26.72
196.447	37.03
196.828	29.9
197.209	46.14
197.59	40.23
197.971	43
198.352	41.09
198.733	32.24
199.114	21.87
199.495	36.18
199.876	23.33
200.257	29.22
200.638	54.68
201.018	62.25
201.399	70.8
201.78	84.13
202.16	66.91
202.541	93.01
202.922	85.04
203.302	95.17
203.683	82.04
204.063	79.78
204.444	69.61
204.824	76.84
205.204	36.75
205.585	41.16
205.965	29.13
206.345	31.59
206.725	48.81
207.106	58.82
207.486	42.2
207.866	36.96
208.246	42.08
208.626	19.26
209.006	8.51
209.386	10.53
209.766	-9.98
210.145	8.71
210.525	-1.13
210.905	2.63
211.285	2.41
211.664	22.66
212.044	27.44
212.424	31.41
212.803	26.98
213.183	47.39
213.562	45.8
213.942	43.82
214.321	52.57
214.701	42
215.08	30.98
215.459	48.26
215.838	47.61
216.218	44.65
216.597	59.47
216.976	58.67
217.355	54.31
217.734	63.64
218.113	56.66
218.492	52.45
218.871	58.11
219.25	60.41
219.629	45.95
220.008	55.64
220.387	41.55
220.766	39.43
221.144	22.26
221.523	22.5
221.902	12.71
222.28	13.13
222.659	25.41
223.037	31.02
223.416	22.58
223.794	26.58
224.173	18.42
224.551	11.05
224.929	9.5
225.308	1.74
225.686	3.67
226.064	5.58
226.442	8.03
226.821	8.06
227.199	11.97
227.577	14.2
227.955	12.65
228.333	8.01
228.711	10.75
229.089	11.69
229.467	12.4
229.845	14.15
230.222	15.77
230.6	13.68
230.978	14.23
231.356	13.38
231.733	12.15
232.111	11.22
232.488	11.93
232.866	12.56
233.243	14.05
233.621	13
233.998	8.69
234.376	7.06
234.753	6.42
235.13	5.48
235.508	3.31
235.885	2.77
236.262	2.79
236.639	1.23
237.016	0.93
237.393	1.32
237.77	1.55
238.147	-0.04
238.524	0.88
238.901	0.29
239.278	0.71
239.655	1.58
240.032	2.75
240.409	2.81
240.785	2.49
241.162	3.23
241.539	2.92
241.915	4.05
242.292	4.54
242.668	4.83
243.045	4.97
243.421	5.48
243.798	5.95
244.174	6.05
244.551	6.35
244.927	6.38
245.303	6.02
245.679	6.17
246.056	6.22
246.432	6.24
246.808	6.57
247.184	6.61
247.56	6.58
247.936	6.49
248.312	6.7
248.688	6.53
249.064	6.37
249.44	6.53
249.815	6.6
250.191	6.8
250.567	6.7
250.943	6.89
251.318	6.77
251.694	6.66
252.069	6.89
252.445	6.77
252.82	7.06
253.196	7.21
253.571	7.09
253.947	7.17
254.322	7.09
254.697	7.21
255.073	7.03
255.448	6.58
255.823	6.68
256.198	6.33
256.573	6.37
256.948	6.43
257.323	6.18
257.698	5.89
258.073	5.75
258.448	5.82
258.823	5.54
259.198	5.58
259.573	5.37
259.948	5.32
260.322	5.16
260.697	5.17
261.072	5.15
261.446	5.11
261.821	5.13
262.195	5.19
262.57	5.14
262.944	5.15
263.319	5.04
263.693	4.99
264.067	5.12
264.442	5.18
264.816	5.04
265.19	5.1
265.564	5.22
265.938	5.12
266.313	4.95
266.687	5.06
267.061	5.03
267.435	5.03
267.809	4.86
268.183	5.04
268.556	4.9
268.93	4.92
269.304	4.97
269.678	4.98
270.051	4.99
270.425	4.87
270.799	4.8
271.172	5.01
271.546	5.08
271.919	5.14
272.293	5.14
272.666	5.26
273.04	5.37
273.413	5.14
273.787	5.14
274.16	5.27
274.533	5.38
274.906	5.42
275.279	5.47
275.653	5.65
276.026	5.57
276.399	5.59
276.772	5.78
277.145	5.75
277.518	5.58
277.891	5.39
278.263	5.4
278.636	5.66
279.009	5.75
279.382	5.63
279.755	5.48
280.127	5.44
280.5	5.37
280.872	5.21
281.245	5.39
281.617	5.43
281.99	5.33
282.362	5.22
282.735	5.06
283.107	5.06
283.479	5.09
283.852	5.18
284.224	5.23
284.596	5.03
284.968	5.03
285.34	5.27
285.713	5.45
286.085	5.49
286.457	5.3
286.829	5.35
287.201	5.43
287.572	5.43
287.944	5.5
288.316	5.47
288.688	5.4
289.06	5.36
289.431	5.43
289.803	5.56
290.175	5.36
290.546	5.62
290.918	5.71
291.289	5.65
291.661	5.66
292.032	5.65
292.403	5.83
292.775	5.94
293.146	5.91
293.517	5.83
293.889	5.83
294.26	5.89
294.631	6.03
295.002	6.09
295.373	6.06
295.744	6.07
296.115	6.11
296.486	6.3
296.857	6.39
297.228	6.29
297.599	6.29
297.97	6.51
298.34	6.34
298.711	6.23
299.082	6.24
299.452	6.29
299.823	6.3
300.194	6.33
300.564	6.3
300.935	6.32
301.305	6.33
301.676	6.37
302.046	6.42
302.416	6.3
302.787	6.27
303.157	6.29
303.527	6.32
303.897	6.29
304.267	6.19
304.637	6.19
305.008	6.16
305.378	6.14
305.748	6.09
306.117	6.14
306.487	6.23
306.857	6.29
307.227	6.33
307.597	6.23
307.967	6.14
308.336	6.09
308.706	6.14
309.076	6.22
309.445	6.28
309.815	6.35
310.184	6.28
310.554	6.13
310.923	6.12
311.293	6.05
311.662	6.11
312.031	6.1
312.401	6.07
312.77	6.17
313.139	6.15
313.508	6.17
313.877	6.11
314.246	6.18
314.616	6.22
314.985	6.16
315.353	6.31
315.722	6.47
316.091	6.46
316.46	6.22
316.829	6.04
317.198	5.99
317.567	5.85
317.935	6
318.304	6.14
318.672	6.32
319.041	6.52
319.41	6.51
319.778	6.45
320.147	6.52
320.515	6.64
320.883	6.59
321.252	6.56
321.62	6.63
321.988	6.47
322.357	6.46
322.725	6.42
323.093	6.27
323.461	6.09
323.829	6.25
324.197	6.45
324.565	6.6
324.933	6.53
325.301	6.45
325.669	6.33
326.037	6.3
326.405	6.18
326.772	6.22
327.14	6.12
327.508	6.28
327.875	6.16
328.243	6.02
328.61	6.02
328.978	6.11
329.346	6.05
329.713	6.29
330.08	6.28
330.448	6.35
330.815	6.35
331.182	6.35
331.55	6.2
331.917	6.04
332.284	6.02
332.651	6.01
333.018	6.04
333.385	6.22
333.752	6.14
334.119	6.19
334.486	5.94
334.853	6.1
335.22	5.99
335.587	5.99
335.954	6.03
336.32	6.1
336.687	6.13
337.054	6.19
337.42	6.13
337.787	6.16
338.153	6.19
338.52	6.49
338.886	6.61
339.253	6.58
339.619	6.77
339.986	6.7
340.352	6.81
340.718	6.85
341.084	6.78
341.451	6.94
341.817	6.83
342.183	7.08
342.549	6.99
342.915	7.09
343.281	7.14
343.647	7.07
344.013	6.98
344.379	6.98
344.745	6.93
345.11	6.88
345.476	6.86
345.842	6.8
346.208	6.53
346.573	6.47
346.939	6.52
347.304	6.5
347.67	6.56
348.035	6.5
348.401	6.56
348.766	6.4
349.132	6.39
349.497	6.42
349.862	6.31
350.228	6.38
350.593	6.26
350.958	6.3
351.323	6.25
351.688	6.2
352.053	6.19
352.418	6.24
352.783	6.24
353.148	6.22
353.513	6.19
353.878	6.22
354.243	6.16
354.608	6.22
354.972	6.22
355.337	6.18
355.702	6.19
356.066	6.17
356.431	6.27
356.795	6.22
357.16	6.18
357.524	6.13
357.889	6
358.253	6.02
358.618	5.97
358.982	6.04
359.346	6.06
359.71	5.98
360.075	5.98
360.439	5.95
360.803	5.97
361.167	6.04
361.531	6.05
361.895	6.05
362.259	6.04
362.623	6
362.987	6.02
363.351	5.93
363.714	5.97
364.078	5.94
364.442	5.94
364.806	6
365.169	6.04
365.533	6.14
365.896	6.15
366.26	6.13
366.623	6.09
366.987	6.12
367.35	6.21
367.714	6.17
368.077	6.19
368.44	6.15
368.803	6.07
369.167	6.05
369.53	6.14
369.893	6.1
370.256	6.11
370.619	6.05
370.982	6.1
371.345	6.02
371.708	6.06
372.071	6.06
372.434	6.04
372.797	6.06
373.159	6.01
373.522	5.97
373.885	6.01
374.247	6.05
374.61	6.06
374.973	5.98
375.335	6
375.698	5.98
376.06	5.97
376.423	6
376.785	6
377.147	5.97
377.51	5.95
377.872	5.95
378.234	6.04
378.596	6.01
378.958	6.03
379.321	5.99
379.683	6.03
380.045	6.02
380.407	6.01
380.769	6.07
381.13	6.1
381.492	6.05
381.854	6.07
382.216	6.04
382.578	6.11
382.939	6.1
383.301	6.13
383.663	6.17
384.024	6.23
384.386	6.26
384.747	6.21
385.109	6.18
385.47	6.19
385.832	6.13
386.193	6.13
386.554	6.14
386.916	6.15
387.277	6.07
387.638	6.09
387.999	6.1
388.36	6.02
388.721	6.01
389.082	6.04
389.443	6.04
389.804	6.04
390.165	6
390.526	6.02
390.887	5.99
391.248	5.98
391.609	5.93
391.969	5.9
392.33	5.92
392.691	5.97
393.051	5.93
393.412	5.96
393.772	6
394.133	5.99
394.493	6.02
394.854	6.03
395.214	6.01
395.574	6
395.935	6.03
396.295	6.03
396.655	6
397.015	5.97
397.376	5.98
397.736	5.94
398.096	5.92
398.456	5.93
398.816	5.95
399.176	5.95
399.535	5.91
399.895	5.87
400.255	5.86
400.615	5.9
400.975	5.9
401.334	5.86
401.694	5.87
402.054	5.83
402.413	5.83
402.773	5.81
403.132	5.8
403.492	5.8
403.851	5.8
404.211	5.8
404.57	5.85
404.929	5.83
405.288	5.86
405.648	5.85
406.007	5.85
406.366	5.84
406.725	5.86
407.084	5.9
407.443	5.94
407.802	5.91
408.161	5.91
408.52	5.88
408.879	5.87
409.238	5.85
409.596	5.86
409.955	5.86
410.314	5.9
410.673	5.88
411.031	5.85
411.39	5.86
411.748	5.89
412.107	5.86
412.465	5.9
412.824	5.87
413.182	5.88
413.54	5.84
413.899	5.77
414.257	5.77
414.615	5.77
414.974	5.76
415.332	5.78
415.69	5.77
416.048	5.77
416.406	5.77
416.764	5.79
417.122	5.77
417.48	5.76
417.838	5.73
418.195	5.72
418.553	5.73
418.911	5.74
419.269	5.73
419.626	5.71
419.984	5.7
420.342	5.7
420.699	5.69
421.057	5.7
421.414	5.72
421.772	5.71
422.129	5.7
422.486	5.68
422.844	5.67
423.201	5.65
423.558	5.66
423.915	5.67
424.273	5.65
424.63	5.66
424.987	5.66
425.344	5.67
425.701	5.66
426.058	5.66
426.415	5.65
426.772	5.62
427.128	5.63
427.485	5.62
427.842	5.62
428.199	5.61
428.555	5.59
428.912	5.61
429.269	5.6
429.625	5.57
429.982	5.57
430.338	5.59
430.695	5.58
431.051	5.56
431.407	5.56
431.764	5.53
432.12	5.52
432.476	5.53
432.832	5.53
433.189	5.53
433.545	5.52
433.901	5.51
434.257	5.52
434.613	5.51
434.969	5.49
435.325	5.48
435.681	5.49
436.036	5.5
436.392	5.49
436.748	5.5
437.104	5.53
437.459	5.52
437.815	5.51
438.171	5.52
438.526	5.54
438.882	5.53
439.237	5.55
439.593	5.55
439.948	5.54
440.304	5.53
440.659	5.54
441.014	5.54
441.369	5.56
441.725	5.56
442.08	5.55
442.435	5.56
442.79	5.56
443.145	5.56
443.5	5.55
443.855	5.53
444.21	5.54
444.565	5.55
444.92	5.56
445.275	5.55
445.629	5.55
445.984	5.54
446.339	5.54
446.693	5.54
447.048	5.52
447.403	5.52
447.757	5.52
448.112	5.49
448.466	5.5
448.82	5.48
449.175	5.48
449.529	5.49
449.883	5.49
450.238	5.48
450.592	5.48
450.946	5.47
451.3	5.49
451.654	5.47
452.008	5.43
452.362	5.42
452.716	5.43
453.07	5.43
453.424	5.4
453.778	5.38
454.132	5.38
454.486	5.38
454.839	5.37
455.193	5.36
455.547	5.38
455.9	5.37
456.254	5.37
456.607	5.36
456.961	5.35
457.314	5.38
457.668	5.37
458.021	5.36
458.375	5.36
458.728	5.33
459.081	5.36
459.434	5.37
459.787	5.36
460.141	5.37
460.494	5.38
460.847	5.37
461.2	5.38
461.553	5.4
461.906	5.4
462.259	5.38
462.611	5.39
462.964	5.4
463.317	5.41
463.67	5.41
464.022	5.44
464.375	5.45
464.728	5.45
465.08	5.47
465.433	5.47
465.785	5.49
466.138	5.54
466.49	5.52
466.843	5.54
467.195	5.57
467.547	5.54
467.899	5.52
468.252	5.55
468.604	5.56
468.956	5.57
469.308	5.57
469.66	5.62
470.012	5.62
470.364	5.63
470.716	5.67
471.068	5.68
471.42	5.67
471.772	5.69
472.123	5.66
472.475	5.7
472.827	5.7
473.178	5.71
473.53	5.69
473.882	5.69
474.233	5.67
474.585	5.65
474.936	5.69
475.288	5.72
475.639	5.73
475.99	5.73
476.342	5.72
476.693	5.74
477.044	5.73
477.395	5.75
477.746	5.73
478.097	5.7
478.448	5.71
478.8	5.72
479.15	5.69
479.501	5.7
479.852	5.69
480.203	5.7
480.554	5.71
480.905	5.71
481.255	5.73
481.606	5.74
481.957	5.75
482.307	5.73
482.658	5.73
483.009	5.73
483.359	5.73
483.709	5.74
484.06	5.74
484.41	5.74
484.761	5.74
485.111	5.74
485.461	5.74
485.811	5.74
486.162	5.73
486.512	5.74
486.862	5.75
487.212	5.75
487.562	5.74
487.912	5.74
488.262	5.74
488.612	5.73
488.961	5.72
489.311	5.72
489.661	5.73
490.011	5.73
490.36	5.72
490.71	5.72
491.06	5.72
491.409	5.71
491.759	5.72
492.108	5.73
492.458	5.74
492.807	5.74
493.157	5.75
493.506	5.75
493.855	5.74
494.204	5.74
494.554	5.75
494.903	5.74
495.252	5.75
495.601	5.76
495.95	5.78
496.299	5.79
496.648	5.82
496.997	5.83
497.346	5.85
497.695	5.88
498.043	5.9
498.392	5.91
498.741	5.92
499.09	5.93
499.438	5.92
499.787	5.93
500.135	5.95
500.484	5.96
500.832	5.99
501.181	6.02
501.529	6.02
501.878	6.04
502.226	6.07
502.574	6.09
502.923	6.1
503.271	6.11
503.619	6.14
503.967	6.16
504.315	6.16
504.663	6.16
505.011	6.17
505.359	6.16
505.707	6.18
506.055	6.18
506.403	6.2
506.751	6.2
507.098	6.23
507.446	6.24
507.794	6.26
508.141	6.26
508.489	6.3
508.837	6.3
509.184	6.31
509.531	6.33
509.879	6.33
510.226	6.35
510.574	6.37
510.921	6.37
511.268	6.36
511.616	6.38
511.963	6.39
512.31	6.39
512.657	6.41
513.004	6.41
513.351	6.42
513.698	6.44
514.045	6.47
514.392	6.48
514.739	6.49
515.086	6.48
515.432	6.5
515.779	6.49
516.126	6.54
516.473	6.55
516.819	6.57
517.166	6.59
517.512	6.58
517.859	6.58
518.205	6.59
518.552	6.62
518.898	6.64
519.245	6.66
519.591	6.67
519.937	6.7
520.283	6.71
520.629	6.73
520.976	6.73
521.322	6.72
521.668	6.7
522.014	6.71
522.36	6.75
522.706	6.76
523.052	6.78
523.398	6.78
523.743	6.8
524.089	6.81
524.435	6.82
524.781	6.84
525.126	6.85
525.472	6.85
525.817	6.85
526.163	6.84
526.509	6.84
526.854	6.85
527.199	6.85
527.545	6.86
527.89	6.87
528.235	6.88
528.581	6.89
528.926	6.9
529.271	6.9
529.616	6.9
529.961	6.9
530.306	6.9
530.651	6.9
530.996	6.9
531.341	6.9
531.686	6.91
532.031	6.91
532.376	6.91
532.721	6.92
533.065	6.94
533.41	6.95
533.755	6.97
534.099	6.99
534.444	7
534.788	7
535.133	7
535.477	7.01
535.822	7.01
536.166	7.03
536.51	7.05
536.855	7.06
537.199	7.05
537.543	7.05
537.887	7.04
538.231	7.03
538.576	7.03
538.92	7.04
539.264	7.05
539.608	7.05
539.951	7.05
540.295	7.05
540.639	7.08
540.983	7.07
541.327	7.04
541.671	7.05
542.014	7.05
542.358	7.06
542.701	7.06
543.045	7.08
543.389	7.09
543.732	7.08
544.075	7.1
544.419	7.13
544.762	7.14
545.105	7.18
545.449	7.2
545.792	7.2
546.135	7.2
546.478	7.2
546.821	7.22
547.165	7.22
547.508	7.22
547.851	7.23
548.194	7.23
548.536	7.24
548.879	7.26
549.222	7.26
549.565	7.25
549.908	7.24
550.25	7.22
550.593	7.21
550.936	7.22
551.278	7.21
551.621	7.21
551.963	7.22
552.306	7.18
552.648	7.19
552.991	7.18
553.333	7.19
553.675	7.23
554.017	7.25
554.36	7.31
554.702	7.29
555.044	7.27
555.386	7.27
555.728	7.29
556.07	7.31
556.412	7.33
556.754	7.33
557.096	7.34
557.438	7.39
557.78	7.38
558.121	7.37
558.463	7.36
558.805	7.38
559.147	7.38
559.488	7.39
559.83	7.39
560.171	7.4
560.513	7.41
560.854	7.41
561.196	7.38
561.537	7.37
561.878	7.43
562.22	7.48
562.561	7.48
562.902	7.47
563.243	7.46
563.584	7.48
563.925	7.5
564.266	7.49
564.607	7.45
564.948	7.48
565.289	7.49
565.63	7.48
565.971	7.48
566.312	7.48
566.653	7.5
566.993	7.49
567.334	7.5
567.675	7.49
568.015	7.46
568.356	7.47
568.696	7.44
569.037	7.41
569.377	7.37
569.718	7.37
570.058	7.39
570.398	7.4
570.739	7.38
571.079	7.37
571.419	7.4
571.759	7.38
572.099	7.37
572.439	7.4
572.779	7.43
573.119	7.45
573.459	7.44
573.799	7.44
574.139	7.46
574.479	7.45
574.819	7.49
575.158	7.49
575.498	7.49
575.838	7.52
576.177	7.52
576.517	7.52
576.856	7.53
577.196	7.53
577.535	7.5
577.875	7.52
578.214	7.54
578.553	7.52
578.893	7.6
579.232	7.61
579.571	7.58
579.91	7.6
580.25	7.61
580.589	7.61
580.928	7.6
581.267	7.58
581.606	7.58
581.945	7.57
582.283	7.59
582.622	7.52
582.961	7.57
583.3	7.61
583.639	7.66
583.977	7.66
584.316	7.66
584.654	7.67
584.993	7.65
585.332	7.63
585.67	7.66
586.008	7.66
586.347	7.69
586.685	7.68
587.024	7.66
587.362	7.6
587.7	7.66
588.038	7.71
588.376	7.69
588.715	7.73
589.053	7.73
589.391	7.7
589.729	7.81
590.067	7.75
590.404	7.76
590.742	7.72
591.08	7.72
591.418	7.7
591.756	7.69
592.093	7.68
592.431	7.72
592.769	7.7
593.106	7.67
593.444	7.67
593.781	7.68
594.119	7.67
594.456	7.75
594.793	7.73
595.131	7.69
595.468	7.72
595.805	7.73
596.143	7.74
596.48	7.75
596.817	7.71
597.154	7.73
597.491	7.7
597.828	7.71
598.165	7.73
598.502	7.74
598.839	7.77
599.176	7.78
599.512	7.73
599.849	7.75
600.186	7.78
600.523	7.8
600.859	7.8
601.196	7.83
601.532	7.77
601.869	7.78
602.205	7.79
602.542	7.75
602.878	7.74
603.215	7.7
603.551	7.69
603.887	7.69
604.223	7.68
604.56	7.69
604.896	7.72
605.232	7.73
605.568	7.75
605.904	7.74
606.24	7.76
606.576	7.8
606.912	7.79
607.248	7.77
607.583	7.75
607.919	7.72
608.255	7.73
608.591	7.76
608.926	7.75
609.262	7.76
609.597	7.76
609.933	7.73
610.268	7.79
610.604	7.8
610.939	7.82
611.275	7.82
611.61	7.85
611.945	7.76
612.281	7.76
612.616	7.8
612.951	7.86
613.286	7.88
613.621	7.87
613.956	7.9
614.291	7.92
614.626	7.95
614.961	8
615.296	8.05
615.631	8.02
615.966	8.02
616.3	8.06
616.635	8.17
616.97	8.17
617.304	8.16
617.639	8.19
617.973	8.19
618.308	8.21
618.642	8.21
618.977	8.24
619.311	8.21
619.646	8.15
619.98	8.12
620.314	8.1
620.648	8.15
620.983	8.09
621.317	8.15
621.651	8.13
621.985	8.09
622.319	8.05
622.653	8.1
622.987	8.15
623.321	8.11
623.655	8.05
623.988	8.06
624.322	8.06
624.656	8.05
624.99	8.04
625.323	8.05
625.657	8.04
625.99	8.05
626.324	8.04
626.657	8.06
626.991	8.05
627.324	8.07
627.658	8.07
627.991	8.08
628.324	8.03
628.657	8.04
628.991	8.08
629.324	8.05
629.657	8.01
629.99	8.02
630.323	8.06
630.656	8.05
630.989	8.05
631.322	8.08
631.655	8.11
631.987	8.16
632.32	8.15
632.653	8.14
632.986	8.15
633.318	8.21
633.651	8.23
633.984	8.25
634.316	8.24
634.649	8.19
634.981	8.2
635.313	8.22
635.646	8.27
635.978	8.27
636.31	8.25
636.643	8.29
636.975	8.25
637.307	8.25
637.639	8.33
637.971	8.34
638.303	8.34
638.635	8.31
638.967	8.29
639.299	8.35
639.631	8.37
639.963	8.37
640.295	8.33
640.626	8.37
640.958	8.38
641.29	8.39
641.621	8.43
641.953	8.4
642.285	8.44
642.616	8.44
642.948	8.39
643.279	8.43
643.61	8.44
643.942	8.46
644.273	8.37
644.604	8.32
644.936	8.39
645.267	8.4
645.598	8.41
645.929	8.43
646.26	8.36
646.591	8.36
646.922	8.33
647.253	8.37
647.584	8.3
647.915	8.29
648.245	8.31
648.576	8.32
648.907	8.44
649.238	8.38
649.568	8.38
649.899	8.42
650.229	8.49
650.56	8.52
650.89	8.57
651.221	8.67
651.551	8.72
651.882	8.66
652.212	8.63
652.542	8.71
652.872	8.68
653.203	8.77
653.533	8.75
653.863	8.81
654.193	8.74
654.523	8.77
654.853	8.78
655.183	8.83
655.513	8.86
655.843	8.78
656.172	8.76
656.502	8.69
656.832	8.73
657.162	8.67
657.491	8.62
657.821	8.57
658.15	8.59
658.48	8.56
658.809	8.54
659.139	8.59
659.468	8.54
659.798	8.52
660.127	8.45
660.456	8.37
660.785	8.37
661.115	8.41
661.444	8.46
661.773	8.49
662.102	8.38
662.431	8.42
662.76	8.44
663.089	8.56
663.418	8.61
663.747	8.54
664.076	8.52
664.404	8.58
664.733	8.63
665.062	8.54
665.39	8.59
665.719	8.67
666.048	8.58
666.376	8.57
666.705	8.61
667.033	8.67
667.362	8.63
667.69	8.65
668.018	8.67
668.347	8.64
668.675	8.64
669.003	8.74
669.331	8.72
669.659	8.74
669.987	8.65
670.315	8.62
670.643	8.61
670.971	8.62
671.299	8.55
671.627	8.58
671.955	8.64
672.283	8.6
672.61	8.59
672.938	8.67
673.266	8.69
673.593	8.71
673.921	8.64
674.249	8.83
674.576	8.85
674.904	8.82
675.231	8.85
675.558	8.83
675.886	8.77
676.213	8.72
676.54	8.76
676.867	8.73
677.195	8.8
677.522	8.84
677.849	8.93
678.176	8.96
678.503	8.87
678.83	8.92
679.157	8.95
679.484	8.9
679.81	8.93
680.137	8.97
680.464	9
680.791	8.99
681.117	8.98
681.444	8.99
681.771	9.06
682.097	9.05
682.424	9.07
682.75	9.12
683.077	9.1
683.403	9.07
683.729	9.17
684.056	9.1
684.382	9.19
684.708	9.1
685.034	9.11
685.36	9.1
685.686	9.08
686.012	9.11
686.339	9.13
686.664	9.14
686.99	9.03
687.316	9.01
687.642	9.09
687.968	9.11
688.294	9.12
688.619	9.09
688.945	9.04
689.271	9.04
689.596	9
689.922	9
690.247	9.04
690.573	8.95
690.898	9.05
691.224	9.03
691.549	9.18
691.874	9.15
692.2	9.18
692.525	9.13
692.85	9.07
693.175	9.09
693.5	9.07
693.825	9.21
694.15	9.17
694.475	9.17
694.8	9.1
695.125	9.1
695.45	9.01
695.775	9.01
696.099	9.07
696.424	9.18
696.749	9.26
697.073	9.23
697.398	9.34
697.723	9.37
698.047	9.35
698.372	9.24
698.696	9.3
699.02	9.36
699.345	9.4
699.669	9.37
699.993	9.42
700.318	9.53
700.642	9.57
700.966	9.68
701.29	9.65
701.614	9.64
701.938	9.65
702.262	9.73
702.586	9.92
702.91	9.92
703.234	9.8
703.557	9.77
703.881	9.83
704.205	9.86
704.529	9.81
704.852	9.69
705.176	9.81
705.499	9.82
705.823	9.72
706.146	9.79
706.47	9.96
706.793	9.88
707.117	9.65
707.44	9.62
707.763	9.55
708.086	9.61
708.409	9.61
708.733	9.5
709.056	9.51
709.379	9.43
709.702	9.34
710.025	9.49
710.348	9.41
710.671	9.42
710.993	9.34
711.316	9.3
711.639	9.32
711.962	9.34
712.284	9.3
712.607	9.3
712.93	9.33
713.252	9.18
713.575	9.21
713.897	9.29
714.22	9.47
714.542	9.42
714.864	9.42
715.187	9.43
715.509	9.47
715.831	9.54
716.153	9.43
716.475	9.5
716.798	9.47
717.12	9.64
717.442	9.62
717.764	9.66
718.085	9.84
718.407	10.05
718.729	10.01
719.051	10.12
719.373	10.24
719.695	10.36
720.016	10.34
720.338	10.49
720.659	10.45
720.981	10.21
721.302	10.32
721.624	10.39
721.945	10.5
722.267	10.75
722.588	10.78
722.909	10.87
723.231	10.78
723.552	10.78
723.873	10.88
724.194	10.91
724.515	10.91
724.836	10.69
725.157	10.55
725.478	10.71
725.799	10.62
726.12	10.56
726.441	10.22
726.762	10.45
727.083	10.54
727.403	10.5
727.724	10.52
728.045	10.37
728.365	10.42
728.686	10.32
729.006	10.16
729.327	10.16
729.647	10.2
729.967	10.26
730.288	10.31
730.608	10.27
730.928	10.3
731.249	10.33
731.569	10.41
731.889	10.43
732.209	10.35
732.529	10.5
732.849	10.59
733.169	10.75
733.489	10.74
733.809	10.72
734.129	10.69
734.448	10.7
734.768	10.87
735.088	10.73
735.408	10.78
735.727	10.94
736.047	10.98
736.366	10.98
736.686	10.86
737.005	10.85
737.325	10.7
737.644	10.66
737.963	10.54
738.283	10.47
738.602	10.67
738.921	10.74
739.24	10.6
739.56	10.5
739.879	10.61
740.198	10.75
740.517	10.55
740.836	10.65
741.155	10.77
741.473	10.75
741.792	10.79
742.111	10.95
742.43	10.86
742.748	10.88
743.067	10.89
743.386	11.01
743.704	10.93
744.023	11.1
744.341	11.25
744.66	11.35
744.978	11.44
745.297	11.15
745.615	11.09
745.933	11.1
746.252	11.33
746.57	11.15
746.888	11.12
747.206	11.18
747.524	11.21
747.842	11.34
748.16	11.47
748.478	11.52
748.796	11.52
749.114	11.4
749.432	11.52
749.749	11.39
750.067	11.43
750.385	11.41
750.703	11.39
751.02	11.21
751.338	10.99
751.655	11.06
751.973	11.16
752.29	11.16
752.608	11.34
752.925	11.11
753.242	11.28
753.56	11.03
753.877	11.05
754.194	11.12
754.511	11.09
754.828	10.89
755.145	11.15
755.462	11.11
755.779	11.25
756.096	11.04
756.413	11.42
756.73	11.43
757.047	11.36
757.364	11.36
757.68	11.44
757.997	11.74
758.314	11.63
758.63	11.65
758.947	11.37
759.264	11.23
759.58	11.22
759.896	11.22
760.213	11.33
760.529	11.55
760.846	11.5
761.162	11.35
761.478	11.6
761.794	11.6
762.11	11.75
762.426	11.69
762.743	11.91
763.059	11.99
763.375	12.18
763.69	12.22
764.006	12.31
764.322	12.42
764.638	12.35
764.954	12.57
765.27	12.67
765.585	12.86
765.901	12.85
766.216	12.91
766.532	12.83
766.848	13.05
767.163	12.81
767.478	12.78
767.794	12.66
768.109	12.47
768.424	12.4
768.74	12.41
769.055	12.53
769.37	12.37
769.685	12.11
770	12.02
770.315	12.19
770.63	12.2
770.945	12.06
771.26	12
771.575	11.6
771.89	11.42
772.205	11.27
772.52	11.67
772.834	11.94
773.149	11.99
773.464	11.53
773.778	11.99
774.093	12.3
774.407	12.68
774.722	12.71
775.036	12.61
775.351	12.45
775.665	12.47
775.979	12.31
776.293	12.12
776.608	12.12
776.922	12.01
777.236	11.74
777.55	11.85
777.864	11.55
778.178	11.56
778.492	12
778.806	12.41
779.12	12.03
779.434	11.95
779.747	11.82
780.061	12.28
780.375	11.82
780.689	11.71
781.002	11.52
781.316	11.53
781.629	11.45
781.943	11.46
782.256	11.49
782.57	11.9
782.883	12.11
783.196	12.39
783.51	12.63
783.823	12.98
784.136	12.8
784.449	13.65
784.762	14.35
785.075	14.22
785.388	14.15
785.701	14.38
786.014	14.6
786.327	14.89
786.64	15.1
786.953	15.45
787.266	15.71
787.578	15.52
787.891	15.74
788.204	15.62
788.516	15.83
788.829	15.5
789.141	15.43
789.454	15.56
789.766	15.43
790.079	15.42
790.391	15.09
790.703	15.48
791.016	15.39
791.328	15.21
791.64	15.28
791.952	15.18
792.264	15.03
792.576	15.09
792.888	15.34
793.2	14.61
793.512	14.59
793.824	14.53
794.136	14.91
794.448	15.11
794.76	15.35
795.071	15.28
795.383	15.64
795.695	15.13
796.006	14.99
796.318	14.79
796.629	15.05
796.941	15.33
797.252	14.6
797.564	14.87
797.875	14.85
798.186	14.73
798.497	14.89
798.809	15.09
799.12	14.7
799.431	14.47
799.742	14.89
800.053	14.64
800.364	14.88
800.675	15.03
800.986	14.72
801.297	14.52
801.608	14.53
801.918	14.66
802.229	15.08
802.54	14.95
802.851	15.17
803.161	14.71
803.472	14.59
803.782	15.02
804.093	14.22
804.403	14.07
804.714	14.01
805.024	14.22
805.334	14.27
805.645	14.48
805.955	14.11
806.265	13.62
806.575	13.76
806.885	13.68
807.195	13.7
807.505	13.64
807.815	13.69
808.125	13.57
808.435	13.37
808.745	13.57
809.055	14.03
809.365	14.01
809.674	14.31
809.984	14.71
810.294	14.73
810.603	14.64
810.913	14.35
811.222	14.58
811.532	14.39
811.841	14.17
812.151	13.96
812.46	14.35
812.769	14.86
813.079	15.15
813.388	14.92
813.697	14.21
814.006	14.45
814.315	15.1
814.624	15.59
814.933	15.84
815.242	15.26
815.551	14.84
815.86	14.74
816.169	14.32
816.478	14.16
816.786	14.23
817.095	14.7
817.404	15.35
817.712	15.07
818.021	15.04
818.33	14.67
818.638	14.78
818.947	15.07
819.255	15.05
819.563	15.07
819.872	15.33
820.18	15.64
820.488	15.67
820.796	15.36
821.105	15.24
821.413	15.21
821.721	15.25
822.029	15.2
822.337	15.18
822.645	15.35
822.953	15.31
823.26	15.41
823.568	15.29
823.876	15.25
824.184	15.22
824.491	15.19
824.799	15.25
825.107	15.25
825.414	15.06
825.722	14.99
826.029	14.89
826.337	14.68
826.644	14.62
826.951	14.54
827.259	14.68
827.566	14.6
827.873	14.59
828.18	14.54
828.488	14.63
828.795	14.87
829.102	14.59
829.409	14.48
829.716	14.29
830.023	14.46
830.329	14.57
830.636	14.54
830.943	14.43
831.25	14.63
831.557	14.54
831.863	14.81
832.17	14.93
832.476	15.07
832.783	15.02
833.089	15.13
833.396	15.3
833.702	15.13
834.009	15.52
834.315	15.42
834.621	15.85
834.928	15.78
835.234	15.31
835.54	15.38
835.846	15.56
836.152	15.76
836.458	15.67
836.764	15.39
837.07	15.38
837.376	15.15
837.682	15.31
837.988	15.21
838.293	14.87
838.599	14.8
838.905	15.09
839.211	15.13
839.516	14.78
839.822	14.67
840.127	13.99
840.433	13.51
840.738	13.3
841.044	12.93
841.349	12.18
841.654	11.88
841.959	12.45
842.265	12
842.57	11.5
842.875	12.41
843.18	11.89
843.485	11.83
843.79	12.46
844.095	11.51
844.4	11.94
844.705	12.05
845.01	12.39
845.315	11
845.619	11.11
845.924	11.26
846.229	11.71
846.533	13.37
846.838	13.15
847.142	13.51
847.447	13.22
847.751	13.56
848.056	14.55
848.36	13.94
848.664	13.62
848.969	13.68
849.273	11.06
849.577	10.8
849.881	10.42
850.185	10.56
850.489	11.19
850.794	12.1
851.097	13.54
851.401	11.67
851.705	13.86
852.009	13.97
852.313	13.37
852.617	12.69
852.92	11.14
853.224	11.1
853.528	9.61
853.831	11.05
854.135	11.83
854.438	10.99
854.742	11.61
855.045	12.2
855.349	12.46
855.652	14.53
855.955	15.73
856.259	16.63
856.562	17.9
856.865	17.21
857.168	16.78
857.471	14.64
857.774	17.44
858.077	16.41
858.38	17.69
858.683	20.54
858.986	20.68
859.289	21.62
859.592	21.71
859.894	23.38
860.197	23.92
860.5	25.8
860.802	26.09
861.105	23.8
861.407	25.47
861.71	24.75
862.012	24.38
862.315	24.95
862.617	26.48
862.919	25.18
863.222	24.69
863.524	23.11
863.826	24.5
864.128	24.38
864.43	23.95
864.732	23.99
865.034	21.53
865.336	22.24
865.638	23.23
865.94	26.07
866.242	24.97
866.544	25.98
866.846	24.02
867.147	24.08
867.449	27.15
867.751	26.49
868.052	27.33
868.354	27.61
868.655	28.84
868.957	26.71
869.258	25.68
869.56	26.71
869.861	26.72
870.162	28.91
870.463	29.99
870.765	32.12
871.066	32.93
871.367	32.24
871.668	31.63
871.969	29.25
872.27	25.7
872.571	27.15
872.872	26.09
873.173	28.21
873.473	27.07
873.774	26.12
874.075	26.5
874.376	23.99
874.676	25.3
874.977	23.47
875.277	25.63
875.578	26.21
875.878	26.61
876.179	28.5
876.479	26.58
876.78	24.7
877.08	22.7
877.38	20.47
877.68	22.24
877.981	21.5
878.281	24.56
878.581	26.13
