Data from MVZ_BU147395_Reflection_00007.txt Node
Date: Tue Nov 19 12:05:03 EST 2019
User: vgr7
Spectrometer: USB2G7710
Scans to average: 3
Trigger mode: 4
Integration Time (sec): 2.000000E-2
Electric dark correction enabled: true
Boxcar width: 10
XAxis mode: Wavelengths
Number of Pixels in Spectrum: 2048
>>>>>Begin Spectral Data<<<<<
177.721	55.11
178.105	71.66
178.488	22.98
178.871	25.47
179.254	17.82
179.636	23.41
180.019	-553.85
180.402	118.18
180.785	89.44
181.168	114.45
181.55	465.67
181.933	-16.97
182.316	114.45
182.698	284.21
183.081	-485.11
183.463	-412.05
183.846	258.23
184.228	336.26
184.611	150.49
184.993	136.63
185.376	96.11
185.758	60.16
186.14	67.78
186.522	34.98
186.904	47.59
187.287	53.52
187.669	66.29
188.051	71.54
188.433	81.32
188.815	77.91
189.197	70.59
189.579	59.21
189.961	49.84
190.342	60.9
190.724	50.54
191.106	54.66
191.488	54.32
191.869	47.75
192.251	48.54
192.633	51.49
193.014	37.15
193.396	38.69
193.777	52.64
194.159	45.04
194.54	52.31
194.922	44.39
195.303	49.36
195.684	43.25
196.065	36.29
196.447	32.4
196.828	20.62
197.209	20.7
197.59	21.64
197.971	21.52
198.352	21.09
198.733	18.43
199.114	11.79
199.495	10.79
199.876	14.87
200.257	11.27
200.638	2.15
201.018	18.47
201.399	40.52
201.78	47.56
202.16	75.39
202.541	76.32
202.922	44.31
203.302	30.14
203.683	-25.17
204.063	-7.19
204.444	-10.76
204.824	15.48
205.204	35.37
205.585	41.78
205.965	64.41
206.345	66.36
206.725	46.24
207.106	49.96
207.486	30.72
207.866	37.13
208.246	36.09
208.626	21.2
209.006	12.23
209.386	12.6
209.766	11.42
210.145	1.96
210.525	-0
210.905	19.1
211.285	16.89
211.664	36.23
212.044	37.16
212.424	32.04
212.803	30.41
213.183	32.43
213.562	24.05
213.942	17.17
214.321	11.94
214.701	22.09
215.08	9.49
215.459	24.56
215.838	14.45
216.218	4.04
216.597	18.42
216.976	25.17
217.355	31.92
217.734	29.23
218.113	40.29
218.492	42.72
218.871	28.27
219.25	26.76
219.629	22.82
220.008	23.32
220.387	26.42
220.766	26.48
221.144	18.69
221.523	10.23
221.902	18.19
222.28	27.81
222.659	16.45
223.037	16.23
223.416	22.04
223.794	22.25
224.173	26.5
224.551	25.61
224.929	24.07
225.308	17.06
225.686	12.83
226.064	10.05
226.442	9.24
226.821	10.31
227.199	7.11
227.577	9.19
227.955	10.2
228.333	9.18
228.711	9.04
229.089	9.39
229.467	12.45
229.845	8.37
230.222	5.65
230.6	6.78
230.978	8.29
231.356	3.19
231.733	4.33
232.111	3.72
232.488	5.22
232.866	5.71
233.243	7.34
233.621	8.68
233.998	6.89
234.376	7.34
234.753	6.29
235.13	7.55
235.508	6.6
235.885	4.94
236.262	5.49
236.639	5.37
237.016	4.53
237.393	3.98
237.77	4.31
238.147	4.59
238.524	5.15
238.901	3.99
239.278	4.62
239.655	4.75
240.032	4.33
240.409	3.5
240.785	3.26
241.162	2.81
241.539	2.35
241.915	2.42
242.292	3.01
242.668	2.96
243.045	3.31
243.421	3.02
243.798	3.31
244.174	3.21
244.551	3.16
244.927	3.27
245.303	3.19
245.679	3.42
246.056	3.49
246.432	3.52
246.808	3.79
247.184	3.93
247.56	3.83
247.936	4.04
248.312	4.05
248.688	4.01
249.064	3.99
249.44	4.1
249.815	4.32
250.191	4.04
250.567	4.22
250.943	4.27
251.318	4.46
251.694	4.39
252.069	4.55
252.445	4.55
252.82	5.05
253.196	5.44
253.571	5.52
253.947	5.54
254.322	5.33
254.697	5
255.073	4.61
255.448	4.29
255.823	4.18
256.198	4.44
256.573	4.55
256.948	4.6
257.323	4.41
257.698	4.46
258.073	4.46
258.448	4.35
258.823	4.15
259.198	4.1
259.573	4
259.948	3.84
260.322	3.86
260.697	3.72
261.072	3.64
261.446	3.55
261.821	3.54
262.195	3.61
262.57	3.81
262.944	3.96
263.319	3.93
263.693	3.9
264.067	3.62
264.442	3.4
264.816	3.32
265.19	3.35
265.564	3.16
265.938	3.24
266.313	3.29
266.687	3.23
267.061	3.21
267.435	3.32
267.809	3.32
268.183	3.37
268.556	3.29
268.93	3.23
269.304	3.12
269.678	3.11
270.051	3.11
270.425	3.05
270.799	2.84
271.172	3.2
271.546	3.37
271.919	3.62
272.293	3.75
272.666	3.79
273.04	3.82
273.413	3.96
273.787	3.96
274.16	3.96
274.533	3.99
274.906	4.09
275.279	4.01
275.653	4.29
276.026	4.16
276.399	4.14
276.772	4.25
277.145	4.28
277.518	4.24
277.891	4.15
278.263	4.18
278.636	4.48
279.009	4.17
279.382	4.03
279.755	3.83
280.127	3.72
280.5	3.67
280.872	3.76
281.245	3.74
281.617	3.63
281.99	3.57
282.362	3.56
282.735	3.45
283.107	3.56
283.479	3.3
283.852	3.43
284.224	3.43
284.596	3.39
284.968	3.46
285.34	3.38
285.713	3.44
286.085	3.51
286.457	3.45
286.829	3.58
287.201	3.69
287.572	3.74
287.944	3.9
288.316	3.94
288.688	4
289.06	4.07
289.431	4.11
289.803	4.18
290.175	4.22
290.546	4.25
290.918	4.18
291.289	4.26
291.661	4.29
292.032	4.3
292.403	4.34
292.775	4.5
293.146	4.69
293.517	4.68
293.889	4.64
294.26	4.77
294.631	4.69
295.002	4.55
295.373	4.59
295.744	4.53
296.115	4.56
296.486	4.49
296.857	4.36
297.228	4.34
297.599	4.31
297.97	4.43
298.34	4.54
298.711	4.56
299.082	4.65
299.452	4.6
299.823	4.71
300.194	4.79
300.564	4.78
300.935	4.86
301.305	4.94
301.676	4.78
302.046	4.79
302.416	4.96
302.787	4.94
303.157	5.08
303.527	5.28
303.897	5.34
304.267	5.41
304.637	5.57
305.008	5.68
305.378	5.73
305.748	5.69
306.117	5.69
306.487	5.83
306.857	5.66
307.227	5.86
307.597	5.88
307.967	5.95
308.336	5.77
308.706	5.67
309.076	5.8
309.445	6.15
309.815	6.15
310.184	6.16
310.554	6.41
310.923	6.35
311.293	6.29
311.662	6.31
312.031	6.39
312.401	6.4
312.77	6.43
313.139	6.45
313.508	6.54
313.877	6.46
314.246	6.58
314.616	6.86
314.985	6.85
315.353	6.91
315.722	7.08
316.091	7.25
316.46	7.35
316.829	7.39
317.198	7.33
317.567	7.45
317.935	7.48
318.304	7.54
318.672	7.57
319.041	7.57
319.41	7.59
319.778	7.62
320.147	7.7
320.515	7.72
320.883	7.8
321.252	7.79
321.62	7.96
321.988	7.94
322.357	7.82
322.725	7.95
323.093	7.91
323.461	7.93
323.829	8.02
324.197	8.14
324.565	8.28
324.933	8.15
325.301	8.08
325.669	8.12
326.037	8.2
326.405	8.29
326.772	8.44
327.14	8.41
327.508	8.48
327.875	8.39
328.243	8.43
328.61	8.57
328.978	8.61
329.346	8.59
329.713	8.75
330.08	8.95
330.448	9.05
330.815	9.14
331.182	8.99
331.55	9.13
331.917	9.05
332.284	8.98
332.651	9.18
333.018	9.23
333.385	9.29
333.752	9.23
334.119	9.16
334.486	9.13
334.853	9.28
335.22	9.18
335.587	9.24
335.954	9.28
336.32	9.2
336.687	9.26
337.054	9.4
337.42	9.29
337.787	9.21
338.153	9.21
338.52	9.32
338.886	9.45
339.253	9.35
339.619	9.44
339.986	9.44
340.352	9.45
340.718	9.46
341.084	9.53
341.451	9.55
341.817	9.63
342.183	9.69
342.549	9.76
342.915	9.91
343.281	10.01
343.647	9.99
344.013	10.08
344.379	10.07
344.745	10.15
345.11	10.24
345.476	10.33
345.842	10.28
346.208	10.27
346.573	10.23
346.939	10.24
347.304	10.37
347.67	10.37
348.035	10.3
348.401	10.35
348.766	10.26
349.132	10.29
349.497	10.33
349.862	10.31
350.228	10.26
350.593	10.27
350.958	10.34
351.323	10.34
351.688	10.33
352.053	10.41
352.418	10.35
352.783	10.21
353.148	10.19
353.513	10.15
353.878	10.17
354.243	10.23
354.608	10.29
354.972	10.2
355.337	10.26
355.702	10.35
356.066	10.35
356.431	10.42
356.795	10.42
357.16	10.38
357.524	10.38
357.889	10.46
358.253	10.38
358.618	10.29
358.982	10.28
359.346	10.27
359.71	10.21
360.075	10.3
360.439	10.38
360.803	10.46
361.167	10.49
361.531	10.47
361.895	10.48
362.259	10.5
362.623	10.5
362.987	10.48
363.351	10.45
363.714	10.43
364.078	10.4
364.442	10.35
364.806	10.43
365.169	10.42
365.533	10.38
365.896	10.44
366.26	10.44
366.623	10.45
366.987	10.46
367.35	10.44
367.714	10.33
368.077	10.35
368.44	10.29
368.803	10.3
369.167	10.2
369.53	10.16
369.893	10.11
370.256	10.07
370.619	10.08
370.982	9.92
371.345	9.97
371.708	9.97
372.071	9.97
372.434	9.88
372.797	9.85
373.159	9.76
373.522	9.68
373.885	9.71
374.247	9.65
374.61	9.61
374.973	9.61
375.335	9.6
375.698	9.53
376.06	9.49
376.423	9.45
376.785	9.46
377.147	9.4
377.51	9.38
377.872	9.36
378.234	9.34
378.596	9.44
378.958	9.37
379.321	9.32
379.683	9.32
380.045	9.26
380.407	9.22
380.769	9.17
381.13	9.11
381.492	9.1
381.854	9.03
382.216	9.01
382.578	8.98
382.939	8.84
383.301	8.77
383.663	8.67
384.024	8.62
384.386	8.54
384.747	8.5
385.109	8.41
385.47	8.36
385.832	8.24
386.193	8.18
386.554	8.07
386.916	8.04
387.277	7.94
387.638	7.9
387.999	7.91
388.36	7.9
388.721	7.89
389.082	7.86
389.443	7.89
389.804	7.84
390.165	7.81
390.526	7.78
390.887	7.74
391.248	7.71
391.609	7.69
391.969	7.67
392.33	7.6
392.691	7.56
393.051	7.48
393.412	7.43
393.772	7.38
394.133	7.37
394.493	7.3
394.854	7.26
395.214	7.24
395.574	7.17
395.935	7.1
396.295	7.05
396.655	6.96
397.015	6.9
397.376	6.9
397.736	6.79
398.096	6.8
398.456	6.76
398.816	6.72
399.176	6.59
399.535	6.54
399.895	6.5
400.255	6.48
400.615	6.48
400.975	6.49
401.334	6.43
401.694	6.41
402.054	6.39
402.413	6.33
402.773	6.31
403.132	6.29
403.492	6.25
403.851	6.21
404.211	6.17
404.57	6.14
404.929	6.03
405.288	6.01
405.648	5.97
406.007	5.93
406.366	5.87
406.725	5.85
407.084	5.83
407.443	5.81
407.802	5.78
408.161	5.74
408.52	5.71
408.879	5.7
409.238	5.68
409.596	5.66
409.955	5.67
410.314	5.62
410.673	5.57
411.031	5.55
411.39	5.52
411.748	5.53
412.107	5.5
412.465	5.47
412.824	5.42
413.182	5.38
413.54	5.4
413.899	5.41
414.257	5.42
414.615	5.45
414.974	5.44
415.332	5.4
415.69	5.35
416.048	5.33
416.406	5.27
416.764	5.22
417.122	5.19
417.48	5.14
417.838	5.14
418.195	5.11
418.553	5.11
418.911	5.11
419.269	5.08
419.626	5.06
419.984	5.06
420.342	5.07
420.699	5.04
421.057	5.02
421.414	5.01
421.772	4.98
422.129	4.92
422.486	4.89
422.844	4.87
423.201	4.87
423.558	4.84
423.915	4.84
424.273	4.83
424.63	4.83
424.987	4.82
425.344	4.79
425.701	4.77
426.058	4.75
426.415	4.7
426.772	4.67
427.128	4.65
427.485	4.63
427.842	4.6
428.199	4.59
428.555	4.57
428.912	4.53
429.269	4.52
429.625	4.53
429.982	4.51
430.338	4.5
430.695	4.46
431.051	4.46
431.407	4.46
431.764	4.45
432.12	4.45
432.476	4.44
432.832	4.45
433.189	4.45
433.545	4.42
433.901	4.43
434.257	4.43
434.613	4.43
434.969	4.42
435.325	4.42
435.681	4.42
436.036	4.42
436.392	4.41
436.748	4.43
437.104	4.41
437.459	4.43
437.815	4.45
438.171	4.45
438.526	4.45
438.882	4.46
439.237	4.47
439.593	4.46
439.948	4.47
440.304	4.45
440.659	4.47
441.014	4.49
441.369	4.47
441.725	4.48
442.08	4.47
442.435	4.48
442.79	4.46
443.145	4.45
443.5	4.44
443.855	4.44
444.21	4.42
444.565	4.42
444.92	4.41
445.275	4.4
445.629	4.4
445.984	4.39
446.339	4.37
446.693	4.37
447.048	4.35
447.403	4.33
447.757	4.34
448.112	4.31
448.466	4.31
448.82	4.31
449.175	4.3
449.529	4.3
449.883	4.28
450.238	4.27
450.592	4.28
450.946	4.26
451.3	4.25
451.654	4.22
452.008	4.21
452.362	4.2
452.716	4.19
453.07	4.16
453.424	4.14
453.778	4.14
454.132	4.11
454.486	4.12
454.839	4.13
455.193	4.12
455.547	4.13
455.9	4.11
456.254	4.1
456.607	4.11
456.961	4.11
457.314	4.11
457.668	4.11
458.021	4.11
458.375	4.11
458.728	4.12
459.081	4.14
459.434	4.14
459.787	4.13
460.141	4.15
460.494	4.17
460.847	4.18
461.2	4.17
461.553	4.2
461.906	4.21
462.259	4.2
462.611	4.21
462.964	4.22
463.317	4.24
463.67	4.27
464.022	4.28
464.375	4.28
464.728	4.29
465.08	4.33
465.433	4.35
465.785	4.36
466.138	4.36
466.49	4.38
466.843	4.41
467.195	4.45
467.547	4.46
467.899	4.49
468.252	4.52
468.604	4.56
468.956	4.56
469.308	4.57
469.66	4.6
470.012	4.6
470.364	4.63
470.716	4.65
471.068	4.67
471.42	4.69
471.772	4.72
472.123	4.75
472.475	4.76
472.827	4.78
473.178	4.81
473.53	4.86
473.882	4.88
474.233	4.88
474.585	4.87
474.936	4.91
475.288	4.92
475.639	4.92
475.99	4.9
476.342	4.91
476.693	4.9
477.044	4.9
477.395	4.9
477.746	4.89
478.097	4.89
478.448	4.88
478.8	4.9
479.15	4.88
479.501	4.87
479.852	4.86
480.203	4.85
480.554	4.84
480.905	4.82
481.255	4.81
481.606	4.8
481.957	4.81
482.307	4.79
482.658	4.78
483.009	4.77
483.359	4.77
483.709	4.77
484.06	4.78
484.41	4.77
484.761	4.77
485.111	4.77
485.461	4.76
485.811	4.75
486.162	4.74
486.512	4.74
486.862	4.73
487.212	4.73
487.562	4.72
487.912	4.71
488.262	4.71
488.612	4.71
488.961	4.72
489.311	4.7
489.661	4.7
490.011	4.71
490.36	4.7
490.71	4.69
491.06	4.69
491.409	4.69
491.759	4.69
492.108	4.7
492.458	4.7
492.807	4.71
493.157	4.73
493.506	4.75
493.855	4.77
494.204	4.8
494.554	4.83
494.903	4.86
495.252	4.91
495.601	4.95
495.95	4.99
496.299	5.03
496.648	5.08
496.997	5.13
497.346	5.19
497.695	5.26
498.043	5.35
498.392	5.4
498.741	5.46
499.09	5.52
499.438	5.59
499.787	5.67
500.135	5.75
500.484	5.81
500.832	5.89
501.181	5.99
501.529	6.08
501.878	6.17
502.226	6.3
502.574	6.38
502.923	6.48
503.271	6.59
503.619	6.71
503.967	6.83
504.315	6.99
504.663	7.13
505.011	7.26
505.359	7.37
505.707	7.52
506.055	7.68
506.403	7.85
506.751	8.01
507.098	8.16
507.446	8.33
507.794	8.49
508.141	8.68
508.489	8.86
508.837	9.02
509.184	9.2
509.531	9.35
509.879	9.53
510.226	9.7
510.574	9.9
510.921	10.08
511.268	10.29
511.616	10.46
511.963	10.66
512.31	10.87
512.657	11.11
513.004	11.31
513.351	11.54
513.698	11.75
514.045	12.02
514.392	12.29
514.739	12.55
515.086	12.83
515.432	13.07
515.779	13.32
516.126	13.59
516.473	13.84
516.819	14.07
517.166	14.31
517.512	14.54
517.859	14.75
518.205	14.98
518.552	15.2
518.898	15.41
519.245	15.61
519.591	15.82
519.937	16.03
520.283	16.28
520.629	16.53
520.976	16.77
521.322	17.02
521.668	17.26
522.014	17.54
522.36	17.79
522.706	18.06
523.052	18.34
523.398	18.63
523.743	18.93
524.089	19.25
524.435	19.55
524.781	19.87
525.126	20.11
525.472	20.35
525.817	20.57
526.163	20.79
526.509	20.99
526.854	21.14
527.199	21.33
527.545	21.48
527.89	21.66
528.235	21.83
528.581	22.02
528.926	22.19
529.271	22.36
529.616	22.51
529.961	22.71
530.306	22.88
530.651	23.05
530.996	23.25
531.341	23.44
531.686	23.65
532.031	23.84
532.376	24.08
532.721	24.29
533.065	24.52
533.41	24.72
533.755	24.95
534.099	25.2
534.444	25.41
534.788	25.64
535.133	25.86
535.477	26.1
535.822	26.3
536.166	26.57
536.51	26.81
536.855	27.13
537.199	27.4
537.543	27.69
537.887	28
538.231	28.3
538.576	28.6
538.92	28.87
539.264	29.13
539.608	29.38
539.951	29.58
540.295	29.81
540.639	30.04
540.983	30.27
541.327	30.51
541.671	30.71
542.014	30.92
542.358	31.1
542.701	31.27
543.045	31.45
543.389	31.63
543.732	31.82
544.075	31.97
544.419	32.16
544.762	32.37
545.105	32.57
545.449	32.8
545.792	32.99
546.135	33.21
546.478	33.43
546.821	33.66
547.165	33.96
547.508	34.21
547.851	34.44
548.194	34.69
548.536	34.9
548.879	35.21
549.222	35.43
549.565	35.66
549.908	35.93
550.25	36.2
550.593	36.45
550.936	36.73
551.278	37.04
551.621	37.26
551.963	37.57
552.306	37.82
552.648	38.03
552.991	38.27
553.333	38.53
553.675	38.74
554.017	38.94
554.36	39.1
554.702	39.32
555.044	39.51
555.386	39.72
555.728	39.96
556.07	40.13
556.412	40.28
556.754	40.5
557.096	40.71
557.438	40.96
557.78	41.14
558.121	41.28
558.463	41.41
558.805	41.59
559.147	41.76
559.488	41.88
559.83	41.99
560.171	42.23
560.513	42.31
560.854	42.45
561.196	42.61
561.537	42.71
561.878	42.87
562.22	43.07
562.561	43.19
562.902	43.29
563.243	43.41
563.584	43.55
563.925	43.67
564.266	43.74
564.607	43.8
564.948	43.93
565.289	44.09
565.63	44.2
565.971	44.34
566.312	44.4
566.653	44.56
566.993	44.7
567.334	44.83
567.675	44.96
568.015	45.08
568.356	45.2
568.696	45.36
569.037	45.42
569.377	45.44
569.718	45.56
570.058	45.69
570.398	45.79
570.739	45.99
571.079	46.15
571.419	46.3
571.759	46.43
572.099	46.55
572.439	46.6
572.779	46.68
573.119	46.79
573.459	46.88
573.799	46.91
574.139	47.01
574.479	47.04
574.819	47.2
575.158	47.29
575.498	47.38
575.838	47.48
576.177	47.55
576.517	47.7
576.856	47.74
577.196	47.83
577.535	47.91
577.875	47.97
578.214	48
578.553	48.08
578.893	48.13
579.232	48.23
579.571	48.35
579.91	48.5
580.25	48.56
580.589	48.69
580.928	48.8
581.267	48.85
581.606	48.91
581.945	48.95
582.283	49.01
582.622	49.04
582.961	49.07
583.3	49.16
583.639	49.25
583.977	49.31
584.316	49.36
584.654	49.52
584.993	49.55
585.332	49.64
585.67	49.65
586.008	49.76
586.347	49.77
586.685	49.84
587.024	49.88
587.362	49.89
587.7	49.94
588.038	50.01
588.376	50.09
588.715	50.12
589.053	50.15
589.391	50.21
589.729	50.27
590.067	50.32
590.404	50.4
590.742	50.48
591.08	50.54
591.418	50.63
591.756	50.61
592.093	50.62
592.431	50.66
592.769	50.77
593.106	50.74
593.444	50.83
593.781	50.84
594.119	50.84
594.456	50.89
594.793	50.86
595.131	50.86
595.468	50.94
595.805	51.01
596.143	51.04
596.48	51.11
596.817	51.15
597.154	51.17
597.491	51.2
597.828	51.2
598.165	51.27
598.502	51.21
598.839	51.26
599.176	51.36
599.512	51.37
599.849	51.38
600.186	51.4
600.523	51.37
600.859	51.43
601.196	51.48
601.532	51.55
601.869	51.59
602.205	51.68
602.542	51.64
602.878	51.64
603.215	51.63
603.551	51.59
603.887	51.65
604.223	51.71
604.56	51.71
604.896	51.76
605.232	51.77
605.568	51.87
605.904	51.85
606.24	51.89
606.576	51.96
606.912	51.98
607.248	52.1
607.583	52.17
607.919	52.19
608.255	52.2
608.591	52.2
608.926	52.27
609.262	52.34
609.597	52.36
609.933	52.43
610.268	52.48
610.604	52.55
610.939	52.62
611.275	52.67
611.61	52.69
611.945	52.71
612.281	52.77
612.616	52.76
612.951	52.88
613.286	52.88
613.621	52.93
613.956	53
614.291	52.97
614.626	53.06
614.961	53.13
615.296	53.22
615.631	53.37
615.966	53.35
616.3	53.32
616.635	53.37
616.97	53.38
617.304	53.49
617.639	53.5
617.973	53.46
618.308	53.43
618.642	53.44
618.977	53.42
619.311	53.44
619.646	53.44
619.98	53.47
620.314	53.45
620.648	53.4
620.983	53.36
621.317	53.41
621.651	53.38
621.985	53.45
622.319	53.45
622.653	53.43
622.987	53.49
623.321	53.56
623.655	53.63
623.988	53.71
624.322	53.69
624.656	53.78
624.99	53.81
625.323	53.87
625.657	54.01
625.99	54
626.324	54.03
626.657	53.94
626.991	53.88
627.324	53.87
627.658	53.92
627.991	53.94
628.324	53.91
628.657	53.92
628.991	53.93
629.324	53.89
629.657	53.82
629.99	53.77
630.323	53.76
630.656	53.77
630.989	53.74
631.322	53.74
631.655	53.82
631.987	53.86
632.32	53.85
632.653	53.82
632.986	53.82
633.318	53.86
633.651	53.98
633.984	54.02
634.316	54.14
634.649	54.14
634.981	54.11
635.313	54.19
635.646	54.14
635.978	54.15
636.31	54.2
636.643	54.28
636.975	54.39
637.307	54.38
637.639	54.35
637.971	54.28
638.303	54.29
638.635	54.06
638.967	53.99
639.299	53.93
639.631	53.96
639.963	54.04
640.295	54.01
640.626	54.13
640.958	54.14
641.29	54.08
641.621	54.09
641.953	54.07
642.285	54.11
642.616	54.28
642.948	54.37
643.279	54.41
643.61	54.46
643.942	54.35
644.273	54.48
644.604	54.55
644.936	54.66
645.267	54.72
645.598	54.82
645.929	54.82
646.26	54.96
646.591	54.95
646.922	54.9
647.253	54.87
647.584	54.89
647.915	54.87
648.245	54.93
648.576	54.95
648.907	55.07
649.238	55.02
649.568	54.92
649.899	54.81
650.229	54.88
650.56	54.91
650.89	54.99
651.221	54.98
651.551	55.05
651.882	54.99
652.212	55.01
652.542	55.1
652.872	55.11
653.203	54.98
653.533	54.98
653.863	55.01
654.193	55.08
654.523	55.01
654.853	55.15
655.183	55.12
655.513	55.1
655.843	55.07
656.172	55.2
656.502	55.36
656.832	55.35
657.162	55.38
657.491	55.4
657.821	55.47
658.15	55.46
658.48	55.37
658.809	55.43
659.139	55.4
659.468	55.3
659.798	55.33
660.127	55.45
660.456	55.44
660.785	55.42
661.115	55.37
661.444	55.24
661.773	55.24
662.102	55.24
662.431	55.3
662.76	55.35
663.089	55.28
663.418	55.12
663.747	55.18
664.076	55.12
664.404	55.02
664.733	54.97
665.062	54.97
665.39	54.9
665.719	55.03
666.048	55.09
666.376	55.16
666.705	55.22
667.033	55.18
667.362	55.14
667.69	55.14
668.018	55.16
668.347	55.43
668.675	55.38
669.003	55.49
669.331	55.55
669.659	55.57
669.987	55.57
670.315	55.5
670.643	55.44
670.971	55.47
671.299	55.49
671.627	55.45
671.955	55.37
672.283	55.52
672.61	55.33
672.938	55.42
673.266	55.38
673.593	55.33
673.921	55.52
674.249	55.59
674.576	55.64
674.904	55.59
675.231	55.52
675.558	55.51
675.886	55.47
676.213	55.42
676.54	55.38
676.867	55.23
677.195	55.29
677.522	55.33
677.849	55.32
678.176	55.5
678.503	55.55
678.83	55.61
679.157	55.56
679.484	55.64
679.81	55.6
680.137	55.65
680.464	55.62
680.791	55.57
681.117	55.61
681.444	55.55
681.771	55.65
682.097	55.71
682.424	55.63
682.75	55.67
683.077	55.73
683.403	55.72
683.729	55.83
684.056	55.94
684.382	55.98
684.708	55.94
685.034	55.85
685.36	55.83
685.686	55.7
686.012	55.65
686.339	55.66
686.664	55.57
686.99	55.53
687.316	55.69
687.642	55.51
687.968	55.42
688.294	55.43
688.619	55.34
688.945	55.25
689.271	55.45
689.596	55.47
689.922	55.45
690.247	55.5
690.573	55.65
690.898	55.57
691.224	55.54
691.549	55.66
691.874	55.6
692.2	55.76
692.525	55.96
692.85	56.06
693.175	56.01
693.5	56.07
693.825	56.12
694.15	55.85
694.475	55.93
694.8	56
695.125	56.03
695.45	56.04
695.775	56.14
696.099	56.08
696.424	56.01
696.749	56.05
697.073	55.85
697.398	55.84
697.723	55.92
698.047	55.89
698.372	55.84
698.696	55.85
699.02	55.74
699.345	55.56
699.669	55.51
699.993	55.56
700.318	55.54
700.642	55.59
700.966	55.76
701.29	55.78
701.614	55.93
701.938	56.06
702.262	56.11
702.586	56.16
702.91	56.2
703.234	56.24
703.557	56.1
703.881	56.39
704.205	56.3
704.529	56.24
704.852	56.37
705.176	56.3
705.499	56.33
705.823	56.16
706.146	56.4
706.47	56.6
706.793	56.49
707.117	56.49
707.44	56.38
707.763	56.4
708.086	56.56
708.409	56.42
708.733	56.15
709.056	56.2
709.379	56.12
709.702	56.07
710.025	56.09
710.348	55.91
710.671	55.99
710.993	56.07
711.316	56.13
711.639	56.09
711.962	56.13
712.284	56.31
712.607	56.54
712.93	56.56
713.252	56.46
713.575	56.6
713.897	56.63
714.22	56.82
714.542	56.87
714.864	56.73
715.187	56.66
715.509	56.87
715.831	56.86
716.153	56.8
716.475	56.64
716.798	56.66
717.12	56.94
717.442	56.74
717.764	56.71
718.085	56.71
718.407	56.83
718.729	56.77
719.051	56.61
719.373	56.69
719.695	56.79
720.016	56.81
720.338	56.82
720.659	56.68
720.981	56.66
721.302	56.66
721.624	56.7
721.945	56.75
722.267	56.6
722.588	56.6
722.909	56.59
723.231	56.64
723.552	56.54
723.873	56.44
724.194	56.63
724.515	56.74
724.836	56.55
725.157	56.48
725.478	56.57
725.799	56.53
726.12	56.45
726.441	56.38
726.762	56.31
727.083	56.24
727.403	56.39
727.724	56.4
728.045	56.26
728.365	56.36
728.686	56.37
729.006	56.5
729.327	56.48
729.647	56.58
729.967	56.96
730.288	56.9
730.608	56.83
730.928	56.98
731.249	57.03
731.569	57.35
731.889	57.24
732.209	57.28
732.529	57.28
732.849	57.16
733.169	56.87
733.489	56.97
733.809	56.84
734.129	56.99
734.448	56.85
734.768	56.97
735.088	57.06
735.408	57.01
735.727	56.92
736.047	56.95
736.366	56.96
736.686	56.74
737.005	57.11
737.325	57.29
737.644	57.26
737.963	57.18
738.283	57.1
738.602	57.3
738.921	57.41
739.24	57.47
739.56	57.62
739.879	57.62
740.198	57.6
740.517	57.46
740.836	57.16
741.155	57.27
741.473	57.1
741.792	56.88
742.111	56.94
742.43	57.26
742.748	57.21
743.067	57.26
743.386	57.15
743.704	56.85
744.023	56.84
744.341	56.37
744.66	56.31
744.978	56.07
745.297	55.99
745.615	56.05
745.933	55.91
746.252	55.92
746.57	56.24
746.888	56.25
747.206	56.74
747.524	56.64
747.842	56.67
748.16	57
748.478	57.11
748.796	57.24
749.114	57.2
749.432	57.44
749.749	57.35
750.067	57.48
750.385	57.49
750.703	57.49
751.02	57.89
751.338	57.9
751.655	58.02
751.973	58.16
752.29	57.95
752.608	57.88
752.925	57.73
753.242	58.03
753.56	58.18
753.877	57.89
754.194	58.37
754.511	58.35
754.828	58.4
755.145	58.18
755.462	58
755.779	57.74
756.096	57.49
756.413	57.55
756.73	57.43
757.047	57.2
757.364	57.28
757.68	57.06
757.997	56.94
758.314	57.07
758.63	56.97
758.947	57.04
759.264	57.08
759.58	57.35
759.896	56.8
760.213	56.47
760.529	56.69
760.846	56.65
761.162	56.5
761.478	56.49
761.794	56.8
762.11	57.04
762.426	56.96
762.743	57.24
763.059	57.4
763.375	57.53
763.69	57.74
764.006	57.89
764.322	57.8
764.638	58.01
764.954	57.87
765.27	57.81
765.585	57.56
765.901	57.66
766.216	57.54
766.532	57.95
766.848	57.89
767.163	57.83
767.478	57.68
767.794	57.71
768.109	57.67
768.424	57.29
768.74	57.14
769.055	57.55
769.37	57.09
769.685	56.76
770	56.64
770.315	56.46
770.63	56.13
770.945	56.56
771.26	56.11
771.575	56.03
771.89	56.03
772.205	56.12
772.52	56.29
772.834	56.24
773.149	56.03
773.464	56.34
773.778	56.24
774.093	56.35
774.407	56.83
774.722	56.96
775.036	56.99
775.351	56.89
775.665	56.81
775.979	56.84
776.293	56.99
776.608	56.85
776.922	57
777.236	57.66
777.55	57.57
777.864	57.83
778.178	58.25
778.492	58.51
778.806	59.05
779.12	58.63
779.434	58.59
779.747	58.75
780.061	58.91
780.375	59.18
780.689	59
781.002	59.13
781.316	59.01
781.629	59.04
781.943	58.93
782.256	58.88
782.57	59.31
782.883	59.38
783.196	59.46
783.51	59.58
783.823	58.58
784.136	58.34
784.449	58.16
784.762	58.13
785.075	57.93
785.388	57.6
785.701	57.88
786.014	57.59
786.327	57.73
786.64	57.39
786.953	57.43
787.266	56.87
787.578	56.19
787.891	56.49
788.204	57.08
788.516	57.22
788.829	57.11
789.141	56.87
789.454	56.67
789.766	56.76
790.079	56.61
790.391	57.03
790.703	57.23
791.016	57.59
791.328	57.76
791.64	57.91
791.952	58.47
792.264	58.47
792.576	58.89
792.888	58.5
793.2	58.95
793.512	58.84
793.824	59.6
794.136	59.66
794.448	59.37
794.76	58.97
795.071	59.22
795.383	59.1
795.695	58.76
796.006	58.85
796.318	58.69
796.629	59.12
796.941	59.08
797.252	59.26
797.564	59.12
797.875	58.21
798.186	58.09
798.497	57.21
798.809	57.25
799.12	57.26
799.431	57.23
799.742	56.96
800.053	57.01
800.364	57.63
800.675	57.98
800.986	57.82
801.297	58.1
801.608	58.68
801.918	58.71
802.229	59.68
802.54	60.05
802.851	60.6
803.161	60.34
803.472	60.14
803.782	59.78
804.093	60.05
804.403	60.97
804.714	61.04
805.024	61.4
805.334	61.13
805.645	60.9
805.955	61.09
806.265	61.43
806.575	61.17
806.885	60.3
807.195	59.79
807.505	59.52
807.815	59.63
808.125	58.55
808.435	58.55
808.745	58.04
809.055	57.6
809.365	57.13
809.674	56.86
809.984	57.08
810.294	57.11
810.603	56.84
810.913	56.5
811.222	56.55
811.532	57.27
811.841	57.72
812.151	57.68
812.46	57.14
812.769	56.46
813.079	56.38
813.388	57.17
813.697	57.72
814.006	58.55
814.315	57.71
814.624	58.01
814.933	58.12
815.242	58.25
815.551	58.38
815.86	58.54
816.169	59.19
816.478	59.26
816.786	58.72
817.095	58.3
817.404	58.27
817.712	58.07
818.021	57.39
818.33	56.71
818.638	57.02
818.947	57.12
819.255	57.87
819.563	57.94
819.872	57.2
820.18	57.7
820.488	57.4
820.796	57.76
821.105	57.99
821.413	58.19
821.721	58.08
822.029	58.18
822.337	58.19
822.645	58.17
822.953	58.14
823.26	58.16
823.568	58.36
823.876	58.25
824.184	58.41
824.491	58.51
824.799	58.58
825.107	58.69
825.414	58.73
825.722	58.61
826.029	58.63
826.337	58.94
826.644	58.64
826.951	58.85
827.259	58.67
827.566	58.51
827.873	58.4
828.18	58.56
828.488	58.63
828.795	58.68
829.102	58.71
829.409	58.84
829.716	59.03
830.023	58.88
830.329	59.02
830.636	58.85
830.943	58.69
831.25	59.31
831.557	59.04
831.863	59.11
832.17	59.29
832.476	59.22
832.783	58.93
833.089	59.23
833.396	59.01
833.702	59.31
834.009	59.22
834.315	59.23
834.621	59.14
834.928	58.95
835.234	58.99
835.54	58.51
835.846	58.48
836.152	58.41
836.458	58.4
836.764	58.7
837.07	58.57
837.376	58.89
837.682	58.23
837.988	58.65
838.293	58.5
838.599	58.04
838.905	58.3
839.211	58.25
839.516	57.77
839.822	57.3
840.127	57.27
840.433	58.1
840.738	59.25
841.044	59.76
841.349	59.1
841.654	59.55
841.959	60.57
842.265	58.96
842.57	58.66
842.875	59.29
843.18	57.89
843.485	57.49
843.79	57.38
844.095	58.98
844.4	59.12
844.705	60.11
845.01	60.93
845.315	59.24
845.619	61.06
845.924	61.23
846.229	62.43
846.533	63.06
846.838	61.13
847.142	57.71
847.447	56.79
847.751	59.13
848.056	57.74
848.36	57.3
848.664	59.92
848.969	61.62
849.273	62.3
849.577	64.53
849.881	68.4
850.185	68.61
850.489	67.06
850.794	65.17
851.097	62.91
851.401	61.03
851.705	61.47
852.009	60.49
852.313	61.08
852.617	61.22
852.92	62.19
853.224	65.16
853.528	67.23
853.831	68.73
854.135	67.91
854.438	69.67
854.742	71.19
855.045	68.6
855.349	66.84
855.652	66.87
855.955	66.05
856.259	60.4
856.562	58.63
856.865	57.1
857.168	57.21
857.471	59.95
857.774	62.23
858.077	64.7
858.38	62.53
858.683	62.92
858.986	61.63
859.289	59.14
859.592	57.21
859.894	56.13
860.197	54.39
860.5	53.56
860.802	52.74
861.105	50.91
861.407	52.67
861.71	54.17
862.012	52.6
862.315	52.9
862.617	55.68
862.919	57.28
863.222	59.04
863.524	59.92
863.826	60.39
864.128	57.27
864.43	57.56
864.732	57.38
865.034	57.41
865.336	59.13
865.638	59.1
865.94	58.27
866.242	55.83
866.544	58.34
866.846	57.46
867.147	58.27
867.449	59.35
867.751	60.73
868.052	58.86
868.354	59.23
868.655	59.47
868.957	59.28
869.258	60.17
869.56	60.74
869.861	62.02
870.162	60.01
870.463	62.95
870.765	60.71
871.066	60.41
871.367	60.59
871.668	59.83
871.969	60.06
872.27	62.58
872.571	68.4
872.872	68.2
873.173	68.61
873.473	66.99
873.774	66.23
874.075	67.24
874.376	68.16
874.676	68.04
874.977	67.98
875.277	70.69
875.578	69.12
875.878	67.65
876.179	66.73
876.479	67.35
876.78	67.81
877.08	70.69
877.38	73.96
877.68	74.24
877.981	75.3
878.281	77.73
878.581	77.33
