Data from MVZ_BU8940_Reflection_00001.txt Node
Date: Tue Nov 19 12:16:18 EST 2019
User: vgr7
Spectrometer: USB2G7710
Scans to average: 3
Trigger mode: 4
Integration Time (sec): 2.000000E-2
Electric dark correction enabled: true
Boxcar width: 10
XAxis mode: Wavelengths
Number of Pixels in Spectrum: 2048
>>>>>Begin Spectral Data<<<<<
177.721	-720.38
178.105	-377.27
178.488	-722.34
178.871	-382.14
179.254	-163.41
179.636	662.5
180.019	204.05
180.402	-60
180.785	820
181.168	-33.66
181.55	68.91
181.933	51.9
182.316	-66.18
182.698	-71.02
183.081	-34.93
183.463	7.5
183.846	-27.08
184.228	-42.26
184.611	-42.7
184.993	-157.14
185.376	-144.37
185.758	-192.54
186.14	-113.08
186.522	-276.88
186.904	-260
187.287	-108.46
187.669	-133.9
188.051	-78.15
188.433	-21.77
188.815	-34.95
189.197	-36.81
189.579	-710.81
189.961	66.01
190.342	-121.48
190.724	212.3
191.106	2310.53
191.488	-210.34
191.869	33100
192.251	1946.15
192.633	518.6
193.014	196.26
193.396	187.95
193.777	586.49
194.159	441.77
194.54	265.35
194.922	61.64
195.303	52.21
195.684	64.87
196.065	64.43
196.447	25.16
196.828	25.21
197.209	194.17
197.59	188.56
197.971	70.99
198.352	69.2
198.733	89.62
199.114	142.4
199.495	-297.59
199.876	274.76
200.257	252.87
200.638	89.4
201.018	139.87
201.399	-193.71
201.78	-201.44
202.16	-143.24
202.541	837.7
202.922	-574.16
203.302	-180.16
203.683	-303.64
204.063	-847.37
204.444	-612.87
204.824	841.18
205.204	3100
205.585	1358.06
205.965	-967.8
206.345	-331.14
206.725	-404.95
207.106	-142.34
207.486	439.13
207.866	-1865.52
208.246	-138.49
208.626	-446.8
209.006	-132.49
209.386	-342.23
209.766	-3157.14
210.145	11242.86
210.525	-1957.14
210.905	-209.01
211.285	-137.02
211.664	-4.59
212.044	-41.92
212.424	-48.04
212.803	-44.27
213.183	-165.57
213.562	-78.02
213.942	-10.33
214.321	-0.73
214.701	-7.71
215.08	12.81
215.459	10.56
215.838	36.17
216.218	-17.09
216.597	74.97
216.976	313.2
217.355	183.57
217.734	-954.95
218.113	-5426.32
218.492	398.64
218.871	239.53
219.25	-1434.88
219.629	100
220.008	43.13
220.387	276.47
220.766	-28.4
221.144	64.64
221.523	32.58
221.902	29.04
222.28	79.13
222.659	61.92
223.037	73.66
223.416	77.02
223.794	40.92
224.173	40.03
224.551	20.25
224.929	10.88
225.308	24.64
225.686	17.42
226.064	2.59
226.442	10.04
226.821	7.94
227.199	9.74
227.577	16.22
227.955	12.97
228.333	12.27
228.711	11.85
229.089	7.9
229.467	5.41
229.845	4.66
230.222	3.94
230.6	1.76
230.978	1.29
231.356	0.8
231.733	5.96
232.111	7.65
232.488	8.22
232.866	8.87
233.243	5.84
233.621	4.47
233.998	5.3
234.376	4.97
234.753	4.48
235.13	2.46
235.508	0.92
235.885	3.42
236.262	3
236.639	1.71
237.016	1.48
237.393	2.86
237.77	2.14
238.147	1.62
238.524	1.72
238.901	1.71
239.278	1.21
239.655	0.92
240.032	0.43
240.409	0.06
240.785	0.48
241.162	0.28
241.539	0.25
241.915	0.25
242.292	0.1
242.668	0.89
243.045	1.35
243.421	1.71
243.798	1.99
244.174	2.4
244.551	2.9
244.927	3.03
245.303	2.93
245.679	2.95
246.056	2.75
246.432	2.79
246.808	2.91
247.184	2.88
247.56	2.5
247.936	2.52
248.312	2.53
248.688	2.59
249.064	2.67
249.44	2.77
249.815	2.95
250.191	3.05
250.567	2.63
250.943	2.79
251.318	2.79
251.694	2.48
252.069	2.37
252.445	2.33
252.82	2.25
253.196	2.32
253.571	2.34
253.947	2.8
254.322	2.47
254.697	2.16
255.073	2.36
255.448	2.92
255.823	3.37
256.198	3.67
256.573	3.79
256.948	3.88
257.323	3.98
257.698	3.87
258.073	3.65
258.448	3.76
258.823	3.57
259.198	3.59
259.573	3.41
259.948	3.42
260.322	3.24
260.697	3.17
261.072	3.07
261.446	3.08
261.821	2.98
262.195	3.12
262.57	3.11
262.944	2.99
263.319	2.87
263.693	2.61
264.067	2.5
264.442	2.34
264.816	2.14
265.19	2.04
265.564	1.95
265.938	2.13
266.313	2.03
266.687	2.08
267.061	2.05
267.435	2.36
267.809	2.18
268.183	2.34
268.556	2.37
268.93	2.65
269.304	2.59
269.678	2.69
270.051	2.67
270.425	2.69
270.799	2.51
271.172	2.5
271.546	2.78
271.919	2.79
272.293	2.8
272.666	2.88
273.04	2.83
273.413	2.8
273.787	2.71
274.16	2.91
274.533	2.81
274.906	2.82
275.279	2.65
275.653	2.87
276.026	2.9
276.399	2.94
276.772	2.91
277.145	2.89
277.518	2.83
277.891	2.71
278.263	2.77
278.636	3.07
279.009	3.2
279.382	2.88
279.755	2.79
280.127	2.73
280.5	2.75
280.872	2.78
281.245	2.94
281.617	2.88
281.99	2.8
282.362	2.96
282.735	2.96
283.107	2.97
283.479	2.93
283.852	2.87
284.224	2.95
284.596	2.75
284.968	2.86
285.34	2.73
285.713	2.89
286.085	2.68
286.457	2.68
286.829	2.61
287.201	2.56
287.572	2.59
287.944	2.63
288.316	2.62
288.688	2.73
289.06	2.74
289.431	2.88
289.803	2.88
290.175	2.87
290.546	2.89
290.918	2.94
291.289	2.76
291.661	2.83
292.032	2.77
292.403	2.77
292.775	2.77
293.146	2.83
293.517	2.75
293.889	2.84
294.26	2.75
294.631	2.78
295.002	2.97
295.373	3.08
295.744	3.04
296.115	3.11
296.486	3.04
296.857	3.04
297.228	2.77
297.599	2.8
297.97	2.86
298.34	2.93
298.711	2.88
299.082	2.96
299.452	2.89
299.823	2.93
300.194	3.03
300.564	2.89
300.935	3.04
301.305	3.16
301.676	3.35
302.046	3.47
302.416	3.54
302.787	3.57
303.157	3.48
303.527	3.45
303.897	3.37
304.267	3.47
304.637	3.3
305.008	3.53
305.378	3.62
305.748	3.51
306.117	3.46
306.487	3.62
306.857	3.75
307.227	3.86
307.597	3.76
307.967	3.67
308.336	3.77
308.706	3.46
309.076	3.42
309.445	3.54
309.815	3.42
310.184	3.34
310.554	3.2
310.923	3.16
311.293	3.24
311.662	3.29
312.031	3.28
312.401	3.33
312.77	3.38
313.139	3.35
313.508	3.36
313.877	3.31
314.246	3.29
314.616	3.26
314.985	3.03
315.353	3.18
315.722	3.4
316.091	3.43
316.46	3.58
316.829	3.48
317.198	3.34
317.567	3.52
317.935	3.69
318.304	3.78
318.672	3.86
319.041	3.96
319.41	4.02
319.778	3.96
320.147	3.87
320.515	3.8
320.883	3.68
321.252	3.83
321.62	3.84
321.988	3.87
322.357	3.88
322.725	4.08
323.093	3.79
323.461	3.61
323.829	3.54
324.197	3.62
324.565	3.69
324.933	3.59
325.301	3.37
325.669	3.2
326.037	3.2
326.405	3.13
326.772	3.09
327.14	3
327.508	3.1
327.875	3.1
328.243	3.15
328.61	3.28
328.978	3.16
329.346	3.11
329.713	3.07
330.08	3.13
330.448	3.08
330.815	3.22
331.182	3.27
331.55	3.28
331.917	3.22
332.284	3.35
332.651	3.46
333.018	3.59
333.385	3.75
333.752	3.68
334.119	3.76
334.486	3.78
334.853	3.84
335.22	3.75
335.587	3.8
335.954	3.81
336.32	3.63
336.687	3.65
337.054	3.61
337.42	3.49
337.787	3.4
338.153	3.47
338.52	3.53
338.886	3.65
339.253	3.63
339.619	3.65
339.986	3.44
340.352	3.49
340.718	3.57
341.084	3.51
341.451	3.48
341.817	3.49
342.183	3.4
342.549	3.38
342.915	3.43
343.281	3.45
343.647	3.36
344.013	3.44
344.379	3.47
344.745	3.52
345.11	3.51
345.476	3.61
345.842	3.63
346.208	3.66
346.573	3.54
346.939	3.52
347.304	3.52
347.67	3.62
348.035	3.53
348.401	3.46
348.766	3.38
349.132	3.58
349.497	3.52
349.862	3.56
350.228	3.57
350.593	3.65
350.958	3.71
351.323	3.74
351.688	3.82
352.053	3.83
352.418	3.83
352.783	3.91
353.148	3.77
353.513	3.71
353.878	3.66
354.243	3.7
354.608	3.81
354.972	3.8
355.337	3.73
355.702	3.76
356.066	3.78
356.431	3.8
356.795	3.71
357.16	3.77
357.524	3.8
357.889	3.78
358.253	3.7
358.618	3.7
358.982	3.65
359.346	3.63
359.71	3.55
360.075	3.56
360.439	3.6
360.803	3.68
361.167	3.68
361.531	3.67
361.895	3.65
362.259	3.65
362.623	3.66
362.987	3.72
363.351	3.69
363.714	3.68
364.078	3.72
364.442	3.73
364.806	3.76
365.169	3.74
365.533	3.81
365.896	3.84
366.26	3.79
366.623	3.83
366.987	3.81
367.35	4
367.714	4.03
368.077	4.06
368.44	4.1
368.803	4.01
369.167	3.98
369.53	4
369.893	3.99
370.256	3.99
370.619	4.01
370.982	3.96
371.345	4.06
371.708	4.04
372.071	3.97
372.434	3.94
372.797	4.01
373.159	3.91
373.522	3.85
373.885	3.86
374.247	3.93
374.61	3.94
374.973	3.9
375.335	3.88
375.698	3.85
376.06	3.81
376.423	3.9
376.785	3.95
377.147	3.99
377.51	3.97
377.872	4.03
378.234	4
378.596	4.03
378.958	3.94
379.321	3.96
379.683	4.08
380.045	4.02
380.407	3.95
380.769	3.98
381.13	3.94
381.492	3.93
381.854	3.9
382.216	3.94
382.578	3.92
382.939	4
383.301	4
383.663	3.97
384.024	3.99
384.386	3.96
384.747	3.92
385.109	3.96
385.47	3.93
385.832	3.91
386.193	3.92
386.554	3.94
386.916	3.96
387.277	3.88
387.638	3.97
387.999	4.02
388.36	4.05
388.721	4.14
389.082	4.2
389.443	4.26
389.804	4.25
390.165	4.26
390.526	4.23
390.887	4.26
391.248	4.31
391.609	4.34
391.969	4.34
392.33	4.36
392.691	4.32
393.051	4.32
393.412	4.37
393.772	4.38
394.133	4.37
394.493	4.38
394.854	4.39
395.214	4.37
395.574	4.34
395.935	4.31
396.295	4.29
396.655	4.29
397.015	4.26
397.376	4.24
397.736	4.2
398.096	4.17
398.456	4.11
398.816	4.12
399.176	4.05
399.535	4.1
399.895	4.12
400.255	4.17
400.615	4.17
400.975	4.14
401.334	4.13
401.694	4.15
402.054	4.13
402.413	4.16
402.773	4.15
403.132	4.18
403.492	4.19
403.851	4.19
404.211	4.2
404.57	4.19
404.929	4.2
405.288	4.2
405.648	4.23
406.007	4.25
406.366	4.22
406.725	4.26
407.084	4.25
407.443	4.24
407.802	4.24
408.161	4.25
408.52	4.28
408.879	4.32
409.238	4.34
409.596	4.33
409.955	4.31
410.314	4.3
410.673	4.3
411.031	4.3
411.39	4.32
411.748	4.32
412.107	4.32
412.465	4.35
412.824	4.36
413.182	4.35
413.54	4.37
413.899	4.39
414.257	4.35
414.615	4.38
414.974	4.39
415.332	4.38
415.69	4.37
416.048	4.39
416.406	4.38
416.764	4.37
417.122	4.37
417.48	4.39
417.838	4.43
418.195	4.44
418.553	4.43
418.911	4.42
419.269	4.43
419.626	4.43
419.984	4.43
420.342	4.44
420.699	4.44
421.057	4.44
421.414	4.45
421.772	4.47
422.129	4.47
422.486	4.47
422.844	4.47
423.201	4.48
423.558	4.47
423.915	4.48
424.273	4.48
424.63	4.52
424.987	4.53
425.344	4.52
425.701	4.53
426.058	4.55
426.415	4.55
426.772	4.52
427.128	4.53
427.485	4.53
427.842	4.52
428.199	4.52
428.555	4.51
428.912	4.5
429.269	4.49
429.625	4.49
429.982	4.48
430.338	4.47
430.695	4.48
431.051	4.48
431.407	4.49
431.764	4.47
432.12	4.45
432.476	4.44
432.832	4.42
433.189	4.4
433.545	4.39
433.901	4.41
434.257	4.44
434.613	4.44
434.969	4.44
435.325	4.46
435.681	4.48
436.036	4.51
436.392	4.52
436.748	4.53
437.104	4.53
437.459	4.54
437.815	4.56
438.171	4.57
438.526	4.57
438.882	4.59
439.237	4.6
439.593	4.62
439.948	4.62
440.304	4.65
440.659	4.67
441.014	4.68
441.369	4.68
441.725	4.7
442.08	4.71
442.435	4.72
442.79	4.7
443.145	4.71
443.5	4.71
443.855	4.72
444.21	4.72
444.565	4.7
444.92	4.7
445.275	4.69
445.629	4.7
445.984	4.7
446.339	4.69
446.693	4.7
447.048	4.67
447.403	4.67
447.757	4.66
448.112	4.66
448.466	4.66
448.82	4.67
449.175	4.65
449.529	4.66
449.883	4.64
450.238	4.65
450.592	4.64
450.946	4.63
451.3	4.6
451.654	4.63
452.008	4.63
452.362	4.64
452.716	4.64
453.07	4.63
453.424	4.64
453.778	4.64
454.132	4.63
454.486	4.64
454.839	4.65
455.193	4.67
455.547	4.68
455.9	4.69
456.254	4.68
456.607	4.69
456.961	4.7
457.314	4.71
457.668	4.72
458.021	4.73
458.375	4.77
458.728	4.78
459.081	4.75
459.434	4.76
459.787	4.77
460.141	4.77
460.494	4.79
460.847	4.78
461.2	4.81
461.553	4.83
461.906	4.84
462.259	4.85
462.611	4.86
462.964	4.84
463.317	4.83
463.67	4.83
464.022	4.84
464.375	4.83
464.728	4.83
465.08	4.83
465.433	4.84
465.785	4.81
466.138	4.83
466.49	4.87
466.843	4.89
467.195	4.91
467.547	4.93
467.899	4.93
468.252	4.93
468.604	4.92
468.956	4.92
469.308	4.93
469.66	4.95
470.012	4.95
470.364	4.93
470.716	4.96
471.068	4.96
471.42	4.96
471.772	4.95
472.123	4.97
472.475	4.97
472.827	4.95
473.178	4.99
473.53	4.97
473.882	4.94
474.233	4.95
474.585	4.95
474.936	4.95
475.288	4.94
475.639	4.95
475.99	4.92
476.342	4.94
476.693	4.93
477.044	4.91
477.395	4.89
477.746	4.91
478.097	4.9
478.448	4.9
478.8	4.9
479.15	4.91
479.501	4.92
479.852	4.93
480.203	4.96
480.554	4.95
480.905	4.97
481.255	4.98
481.606	4.98
481.957	4.99
482.307	4.98
482.658	4.99
483.009	4.99
483.359	5.02
483.709	5.03
484.06	5.05
484.41	5.06
484.761	5.07
485.111	5.08
485.461	5.09
485.811	5.1
486.162	5.11
486.512	5.12
486.862	5.12
487.212	5.13
487.562	5.12
487.912	5.13
488.262	5.14
488.612	5.14
488.961	5.15
489.311	5.15
489.661	5.16
490.011	5.16
490.36	5.17
490.71	5.16
491.06	5.16
491.409	5.15
491.759	5.16
492.108	5.16
492.458	5.16
492.807	5.16
493.157	5.17
493.506	5.16
493.855	5.16
494.204	5.16
494.554	5.16
494.903	5.16
495.252	5.16
495.601	5.16
495.95	5.19
496.299	5.2
496.648	5.2
496.997	5.19
497.346	5.19
497.695	5.18
498.043	5.21
498.392	5.19
498.741	5.19
499.09	5.18
499.438	5.22
499.787	5.21
500.135	5.2
500.484	5.21
500.832	5.21
501.181	5.23
501.529	5.25
501.878	5.26
502.226	5.27
502.574	5.26
502.923	5.25
503.271	5.23
503.619	5.23
503.967	5.22
504.315	5.21
504.663	5.21
505.011	5.24
505.359	5.22
505.707	5.24
506.055	5.26
506.403	5.22
506.751	5.19
507.098	5.22
507.446	5.22
507.794	5.22
508.141	5.22
508.489	5.22
508.837	5.21
509.184	5.19
509.531	5.17
509.879	5.18
510.226	5.2
510.574	5.2
510.921	5.2
511.268	5.22
511.616	5.25
511.963	5.27
512.31	5.25
512.657	5.26
513.004	5.25
513.351	5.23
513.698	5.26
514.045	5.28
514.392	5.29
514.739	5.29
515.086	5.31
515.432	5.32
515.779	5.31
516.126	5.33
516.473	5.33
516.819	5.37
517.166	5.37
517.512	5.37
517.859	5.37
518.205	5.36
518.552	5.35
518.898	5.33
519.245	5.33
519.591	5.35
519.937	5.35
520.283	5.38
520.629	5.39
520.976	5.39
521.322	5.39
521.668	5.38
522.014	5.4
522.36	5.38
522.706	5.38
523.052	5.39
523.398	5.37
523.743	5.39
524.089	5.4
524.435	5.39
524.781	5.4
525.126	5.41
525.472	5.43
525.817	5.42
526.163	5.43
526.509	5.43
526.854	5.42
527.199	5.42
527.545	5.42
527.89	5.42
528.235	5.42
528.581	5.42
528.926	5.43
529.271	5.42
529.616	5.44
529.961	5.44
530.306	5.45
530.651	5.46
530.996	5.47
531.341	5.47
531.686	5.47
532.031	5.48
532.376	5.48
532.721	5.47
533.065	5.48
533.41	5.48
533.755	5.48
534.099	5.49
534.444	5.5
534.788	5.47
535.133	5.48
535.477	5.47
535.822	5.48
536.166	5.47
536.51	5.48
536.855	5.47
537.199	5.46
537.543	5.47
537.887	5.48
538.231	5.46
538.576	5.46
538.92	5.46
539.264	5.46
539.608	5.47
539.951	5.46
540.295	5.49
540.639	5.51
540.983	5.51
541.327	5.52
541.671	5.53
542.014	5.55
542.358	5.57
542.701	5.58
543.045	5.6
543.389	5.61
543.732	5.61
544.075	5.63
544.419	5.65
544.762	5.65
545.105	5.66
545.449	5.66
545.792	5.67
546.135	5.68
546.478	5.7
546.821	5.72
547.165	5.76
547.508	5.74
547.851	5.73
548.194	5.7
548.536	5.68
548.879	5.67
549.222	5.63
549.565	5.62
549.908	5.61
550.25	5.61
550.593	5.58
550.936	5.58
551.278	5.53
551.621	5.52
551.963	5.53
552.306	5.53
552.648	5.53
552.991	5.56
553.333	5.55
553.675	5.53
554.017	5.52
554.36	5.48
554.702	5.47
555.044	5.5
555.386	5.54
555.728	5.63
556.07	5.64
556.412	5.67
556.754	5.66
557.096	5.69
557.438	5.67
557.78	5.67
558.121	5.66
558.463	5.67
558.805	5.67
559.147	5.61
559.488	5.62
559.83	5.62
560.171	5.61
560.513	5.61
560.854	5.61
561.196	5.6
561.537	5.62
561.878	5.68
562.22	5.65
562.561	5.65
562.902	5.59
563.243	5.58
563.584	5.59
563.925	5.62
564.266	5.61
564.607	5.61
564.948	5.57
565.289	5.58
565.63	5.6
565.971	5.61
566.312	5.65
566.653	5.65
566.993	5.66
567.334	5.66
567.675	5.65
568.015	5.68
568.356	5.67
568.696	5.7
569.037	5.65
569.377	5.64
569.718	5.64
570.058	5.64
570.398	5.63
570.739	5.62
571.079	5.61
571.419	5.61
571.759	5.63
572.099	5.7
572.439	5.72
572.779	5.74
573.119	5.76
573.459	5.78
573.799	5.75
574.139	5.75
574.479	5.76
574.819	5.78
575.158	5.77
575.498	5.8
575.838	5.78
576.177	5.77
576.517	5.78
576.856	5.78
577.196	5.83
577.535	5.83
577.875	5.88
578.214	5.88
578.553	5.89
578.893	5.9
579.232	5.89
579.571	5.87
579.91	5.85
580.25	5.84
580.589	5.82
580.928	5.86
581.267	5.87
581.606	5.87
581.945	5.88
582.283	5.84
582.622	5.8
582.961	5.79
583.3	5.84
583.639	5.8
583.977	5.78
584.316	5.79
584.654	5.83
584.993	5.77
585.332	5.8
585.67	5.78
586.008	5.8
586.347	5.79
586.685	5.76
587.024	5.77
587.362	5.74
587.7	5.77
588.038	5.79
588.376	5.75
588.715	5.72
589.053	5.69
589.391	5.79
589.729	5.81
590.067	5.83
590.404	5.85
590.742	5.91
591.08	5.92
591.418	5.9
591.756	5.9
592.093	5.92
592.431	5.92
592.769	5.95
593.106	5.95
593.444	5.94
593.781	5.97
594.119	5.96
594.456	5.98
594.793	5.96
595.131	5.93
595.468	5.93
595.805	5.96
596.143	6
596.48	5.93
596.817	5.95
597.154	5.95
597.491	5.93
597.828	5.9
598.165	5.88
598.502	5.89
598.839	5.9
599.176	5.89
599.512	5.85
599.849	5.85
600.186	5.84
600.523	5.87
600.859	5.87
601.196	5.93
601.532	5.94
601.869	5.96
602.205	5.97
602.542	6
602.878	6.01
603.215	5.98
603.551	6.02
603.887	6
604.223	6
604.56	6.04
604.896	6.04
605.232	6.05
605.568	6.05
605.904	6.04
606.24	6.05
606.576	6.11
606.912	6.11
607.248	6.12
607.583	6.13
607.919	6.13
608.255	6.13
608.591	6.1
608.926	6.09
609.262	6.1
609.597	6.1
609.933	6.1
610.268	6.14
610.604	6.15
610.939	6.21
611.275	6.23
611.61	6.2
611.945	6.17
612.281	6.21
612.616	6.18
612.951	6.15
613.286	6.14
613.621	6.13
613.956	6.15
614.291	6.12
614.626	6.11
614.961	6.12
615.296	6.1
615.631	6.11
615.966	6.09
616.3	6.15
616.635	6.15
616.97	6.11
617.304	6.13
617.639	6.1
617.973	6.02
618.308	5.98
618.642	5.97
618.977	5.99
619.311	6.01
619.646	6.01
619.98	6.08
620.314	6.07
620.648	6.05
620.983	6.01
621.317	6.02
621.651	5.99
621.985	6.03
622.319	6.07
622.653	6.16
622.987	6.17
623.321	6.17
623.655	6.2
623.988	6.25
624.322	6.19
624.656	6.22
624.99	6.26
625.323	6.29
625.657	6.29
625.99	6.31
626.324	6.29
626.657	6.29
626.991	6.28
627.324	6.3
627.658	6.27
627.991	6.33
628.324	6.34
628.657	6.35
628.991	6.3
629.324	6.28
629.657	6.17
629.99	6.19
630.323	6.19
630.656	6.15
630.989	6.13
631.322	6.14
631.655	6.11
631.987	6.07
632.32	6.09
632.653	6.16
632.986	6.13
633.318	6.17
633.651	6.15
633.984	6.11
634.316	6.12
634.649	6.22
634.981	6.19
635.313	6.22
635.646	6.25
635.978	6.32
636.31	6.29
636.643	6.35
636.975	6.31
637.307	6.33
637.639	6.33
637.971	6.35
638.303	6.36
638.635	6.38
638.967	6.42
639.299	6.36
639.631	6.32
639.963	6.39
640.295	6.41
640.626	6.48
640.958	6.52
641.29	6.51
641.621	6.44
641.953	6.42
642.285	6.38
642.616	6.37
642.948	6.29
643.279	6.34
643.61	6.4
643.942	6.39
644.273	6.39
644.604	6.38
644.936	6.34
645.267	6.41
645.598	6.38
645.929	6.41
646.26	6.44
646.591	6.5
646.922	6.55
647.253	6.47
647.584	6.46
647.915	6.45
648.245	6.43
648.576	6.4
648.907	6.41
649.238	6.41
649.568	6.4
649.899	6.41
650.229	6.43
650.56	6.43
650.89	6.47
651.221	6.4
651.551	6.4
651.882	6.45
652.212	6.42
652.542	6.44
652.872	6.38
653.203	6.49
653.533	6.42
653.863	6.36
654.193	6.34
654.523	6.29
654.853	6.4
655.183	6.43
655.513	6.5
655.843	6.51
656.172	6.58
656.502	6.53
656.832	6.47
657.162	6.44
657.491	6.38
657.821	6.4
658.15	6.4
658.48	6.5
658.809	6.52
659.139	6.54
659.468	6.56
659.798	6.69
660.127	6.65
660.456	6.68
660.785	6.64
661.115	6.73
661.444	6.8
661.773	6.75
662.102	6.73
662.431	6.82
662.76	6.78
663.089	6.85
663.418	6.91
663.747	7.08
664.076	7.13
664.404	7.16
664.733	7.19
665.062	7.27
665.39	7.21
665.719	7.19
666.048	7.2
666.376	7.2
666.705	7.06
667.033	7.02
667.362	7.04
667.69	7.14
668.018	7.17
668.347	7.12
668.675	7.04
669.003	7.04
669.331	6.94
669.659	6.96
669.987	6.82
670.315	6.82
670.643	6.71
670.971	6.65
671.299	6.58
671.627	6.52
671.955	6.38
672.283	6.39
672.61	6.3
672.938	6.36
673.266	6.4
673.593	6.35
673.921	6.37
674.249	6.33
674.576	6.31
674.904	6.2
675.231	6.22
675.558	6.26
675.886	6.27
676.213	6.2
676.54	6.22
676.867	6.3
677.195	6.37
677.522	6.48
677.849	6.55
678.176	6.63
678.503	6.57
678.83	6.71
679.157	6.75
679.484	6.75
679.81	6.66
680.137	6.74
680.464	6.88
680.791	6.82
681.117	6.84
681.444	6.81
681.771	6.91
682.097	6.96
682.424	6.98
682.75	7.05
683.077	7.11
683.403	7.17
683.729	7.19
684.056	7.07
684.382	7.03
684.708	7.02
685.034	7
685.36	7.1
685.686	7.05
686.012	7.02
686.339	6.96
686.664	7.03
686.99	6.91
687.316	6.91
687.642	6.95
687.968	7.06
688.294	7.04
688.619	7.03
688.945	7.01
689.271	7.12
689.596	7.04
689.922	7.05
690.247	6.99
690.573	6.91
690.898	7.05
691.224	7.1
691.549	7.14
691.874	7.25
692.2	7.24
692.525	7.15
692.85	7.12
693.175	7.33
693.5	7.26
693.825	7.47
694.15	7.3
694.475	7.22
694.8	7.06
695.125	7.06
695.45	6.92
695.775	6.84
696.099	6.86
696.424	6.9
696.749	6.92
697.073	6.86
697.398	6.95
697.723	6.92
698.047	6.89
698.372	6.79
698.696	6.75
699.02	6.69
699.345	6.81
699.669	6.88
699.993	6.8
700.318	6.84
700.642	6.72
700.966	6.78
701.29	6.89
701.614	7.02
701.938	7.04
702.262	7.19
702.586	7.25
702.91	7.16
703.234	7.07
703.557	7.16
703.881	7.26
704.205	7.26
704.529	7.22
704.852	7.19
705.176	7.24
705.499	7.07
705.823	7.09
706.146	7.04
706.47	7.05
706.793	6.96
707.117	7.01
707.44	6.89
707.763	6.98
708.086	7.01
708.409	6.91
708.733	6.94
709.056	6.84
709.379	7.05
709.702	7.1
710.025	7.26
710.348	7.14
710.671	7.21
710.993	7.2
711.316	7.28
711.639	7.32
711.962	7.37
712.284	7.45
712.607	7.58
712.93	7.56
713.252	7.59
713.575	7.79
713.897	7.72
714.22	7.9
714.542	7.87
714.864	7.74
715.187	7.68
715.509	7.54
715.831	7.66
716.153	7.48
716.475	7.52
716.798	7.43
717.12	7.6
717.442	7.55
717.764	7.55
718.085	7.51
718.407	7.52
718.729	7.57
719.051	7.63
719.373	7.61
719.695	7.82
720.016	7.8
720.338	7.84
720.659	7.93
720.981	7.78
721.302	7.8
721.624	7.92
721.945	8.04
722.267	8.1
722.588	7.96
722.909	7.92
723.231	7.85
723.552	7.78
723.873	7.61
724.194	7.59
724.515	7.53
724.836	7.55
725.157	7.47
725.478	7.36
725.799	7.28
726.12	7.21
726.441	7.09
726.762	7.15
727.083	7.12
727.403	7.1
727.724	7.21
728.045	7.37
728.365	7.31
728.686	7.27
729.006	7.29
729.327	7.58
729.647	7.52
729.967	7.44
730.288	7.49
730.608	7.53
730.928	7.52
731.249	7.81
731.569	7.76
731.889	7.79
732.209	7.86
732.529	8.14
732.849	8.28
733.169	8.35
733.489	8.24
733.809	8.29
734.129	8.2
734.448	8.33
734.768	8.07
735.088	8.28
735.408	8.15
735.727	8.09
736.047	7.93
736.366	8.06
736.686	8.2
737.005	8.58
737.325	8.49
737.644	8.49
737.963	8.3
738.283	8.29
738.602	8.37
738.921	8.53
739.24	8.29
739.56	8.28
739.879	8.04
740.198	8.16
740.517	8.11
740.836	8.49
741.155	8.58
741.473	8.57
741.792	8.36
742.111	8.75
742.43	8.94
742.748	8.88
743.067	8.88
743.386	8.81
743.704	8.87
744.023	9.14
744.341	9.25
744.66	9.04
744.978	8.94
745.297	8.78
745.615	8.48
745.933	8.62
746.252	8.53
746.57	8.82
746.888	8.93
747.206	8.56
747.524	8.13
747.842	7.83
748.16	8.1
748.478	8.19
748.796	7.97
749.114	7.92
749.432	7.95
749.749	7.68
750.067	7.72
750.385	7.19
750.703	6.94
751.02	6.84
751.338	6.7
751.655	6.75
751.973	6.81
752.29	7.17
752.608	7.09
752.925	7.27
753.242	7.22
753.56	6.62
753.877	6.83
754.194	7.17
754.511	7.07
754.828	7.05
755.145	7.28
755.462	7.27
755.779	7.53
756.096	7.64
756.413	8.03
756.73	8.15
757.047	8.29
757.364	8.21
757.68	8.25
757.997	8.77
758.314	8.88
758.63	9.02
758.947	9.06
759.264	8.9
759.58	8.68
759.896	8.65
760.213	9.04
760.529	9.24
760.846	9.19
761.162	9.08
761.478	8.92
761.794	8.83
762.11	8.9
762.426	8.64
762.743	8.68
763.059	8.56
763.375	8.42
763.69	8.24
764.006	8.43
764.322	8.57
764.638	8.58
764.954	8.71
765.27	8.85
765.585	8.8
765.901	8.8
766.216	8.94
766.532	8.85
766.848	8.62
767.163	8.54
767.478	8.59
767.794	9.11
768.109	9.21
768.424	9.21
768.74	9.13
769.055	9.22
769.37	8.74
769.685	9.16
770	9.23
770.315	9.62
770.63	9.81
770.945	9.66
771.26	9.34
771.575	9.01
771.89	9.06
772.205	8.88
772.52	9.41
772.834	9.34
773.149	9.45
773.464	10.02
773.778	10.09
774.093	10.1
774.407	9.31
774.722	9.35
775.036	9.4
775.351	9.73
775.665	9.69
775.979	10.48
776.293	10.25
776.608	10.2
776.922	10.3
777.236	10.08
777.55	10.04
777.864	10.13
778.178	10.03
778.492	9.57
778.806	9.77
779.12	9.28
779.434	9.43
779.747	9.33
780.061	9.07
780.375	8.87
780.689	8.8
781.002	9.21
781.316	8.77
781.629	8.71
781.943	8.68
782.256	8.63
782.57	8.43
782.883	8.08
783.196	7.93
783.51	7.62
783.823	7.82
784.136	7.68
784.449	7.59
784.762	8.29
785.075	8.56
785.388	8.35
785.701	8.16
786.014	7.66
786.327	7.84
786.64	7.88
786.953	8.13
787.266	7.87
787.578	7.77
787.891	8.06
788.204	7.99
788.516	8.19
788.829	8.25
789.141	8.78
789.454	8.62
789.766	9.25
790.079	9.61
790.391	9.49
790.703	9.96
791.016	10.55
791.328	10.28
791.64	10.63
791.952	10.93
792.264	11.17
792.576	11.97
792.888	12.29
793.2	12.35
793.512	12.56
793.824	12.18
794.136	11.95
794.448	12
794.76	12.04
795.071	11.39
795.383	11.68
795.695	11.27
796.006	11.64
796.318	11.55
796.629	11.1
796.941	10.68
797.252	10.41
797.564	9.79
797.875	9.75
798.186	9.57
798.497	9.95
798.809	9.88
799.12	8.91
799.431	8.95
799.742	9.11
800.053	8.57
800.364	9.3
800.675	9.69
800.986	10.01
801.297	10.07
801.608	9.84
801.918	9.84
802.229	9.72
802.54	9.42
802.851	8.99
803.161	9.11
803.472	9.32
803.782	9.84
804.093	10.27
804.403	10.19
804.714	9.72
805.024	8.47
805.334	8.52
805.645	9.31
805.955	9.2
806.265	9.01
806.575	9.56
806.885	9.28
807.195	9.37
807.505	9.52
807.815	9.02
808.125	9.22
808.435	9.4
808.745	9.59
809.055	10.03
809.365	10.4
809.674	10.66
809.984	10.75
810.294	10.43
810.603	9.72
810.913	9.77
811.222	9.75
811.532	10.49
811.841	10.84
812.151	11.4
812.46	11.03
812.769	11.3
813.079	11.05
813.388	11.22
813.697	10.87
814.006	10.91
814.315	11.59
814.624	12.51
814.933	12.07
815.242	11.89
815.551	12.21
815.86	12.23
816.169	11.1
816.478	11.4
816.786	10.81
817.095	11.47
817.404	11.65
817.712	12.21
818.021	12.58
818.33	12.28
818.638	11.84
818.947	12.08
819.255	11.5
819.563	11.9
819.872	11.89
820.18	12.29
820.488	12.11
820.796	12
821.105	11.78
821.413	11.83
821.721	11.86
822.029	11.81
822.337	11.82
822.645	12.17
822.953	12.11
823.26	12.28
823.568	12.04
823.876	12.05
824.184	12.04
824.491	12.01
824.799	12.02
825.107	12
825.414	11.76
825.722	11.84
826.029	11.9
826.337	12.03
826.644	11.95
826.951	12.06
827.259	12.05
827.566	12.37
827.873	12.5
828.18	12.41
828.488	12.32
828.795	12.28
829.102	12.33
829.409	12.74
829.716	12.97
830.023	13.56
830.329	13.81
830.636	13.86
830.943	13.77
831.25	13.57
831.557	13.79
831.863	14.29
832.17	14.66
832.476	14.24
832.783	14.1
833.089	14.03
833.396	13.69
833.702	13.66
834.009	13.31
834.315	12.71
834.621	12.44
834.928	12.54
835.234	12.68
835.54	12.14
835.846	11.3
836.152	10.9
836.458	10.47
836.764	10.49
837.07	10.34
837.376	10.42
837.682	10.86
837.988	10.37
838.293	10.22
838.599	9.43
838.905	9.84
839.211	9.48
839.516	9.21
839.822	9.4
840.127	9.29
840.433	8.75
840.738	9.53
841.044	10.47
841.349	10.85
841.654	10.75
841.959	12.47
842.265	14.02
842.57	14.43
842.875	14.47
843.18	13.11
843.485	13.43
843.79	12.68
844.095	11.89
844.4	13.53
844.705	14.24
845.01	15.44
845.315	15.26
845.619	16.62
845.924	16.97
846.229	15.87
846.533	16.26
846.838	16.24
847.142	16.36
847.447	16.88
847.751	16.61
848.056	17.41
848.36	15.57
848.664	14.41
848.969	13.13
849.273	12.93
849.577	15.45
849.881	15.67
850.185	16
850.489	17.41
850.794	16.17
851.097	16.48
851.401	17.71
851.705	17.39
852.009	18.02
852.313	15.34
852.617	16.53
852.92	18.27
853.224	18.27
853.528	18.24
853.831	17.59
854.135	17.13
854.438	17.23
854.742	17.72
855.045	16.25
855.349	18.22
855.652	18.38
855.955	16.59
856.259	15.71
856.562	15.34
856.865	14.51
857.168	13.55
857.471	11.65
857.774	10.36
858.077	9.84
858.38	7.82
858.683	12.39
858.986	12.75
859.289	12.88
859.592	12.96
859.894	13.56
860.197	12.52
860.5	15.1
860.802	15.87
861.105	13.57
861.407	14.08
861.71	13.82
862.012	14.13
862.315	14.42
862.617	14.9
862.919	15.91
863.222	18.35
863.524	18.46
863.826	18.86
864.128	17.47
864.43	20.01
864.732	19.17
865.034	17.84
865.336	17.38
865.638	14.28
865.94	15.99
866.242	15.57
866.544	19.02
866.846	18.23
867.147	15.74
867.449	16.51
867.751	15.26
868.052	14.47
868.354	14.88
868.655	16.21
868.957	16.89
869.258	17.28
869.56	14.35
869.861	14.31
870.162	16.89
870.463	20.01
870.765	17.98
871.066	17.64
871.367	17.86
871.668	20.07
871.969	18.94
872.27	17.98
872.571	17.13
872.872	11.67
873.173	10.74
873.473	9.22
873.774	11.47
874.075	13.53
874.376	11.68
874.676	11.52
874.977	9.87
875.277	9.73
875.578	8.86
875.878	10.4
876.179	10.81
876.479	8.13
876.78	5.21
877.08	3.99
877.38	4.59
877.68	3.59
877.981	-0.09
878.281	3.38
878.581	2.21
