Data from MVZ_BU34099_Reflection_00014.txt Node
Date: Tue Nov 19 12:15:47 EST 2019
User: vgr7
Spectrometer: USB2G7710
Scans to average: 3
Trigger mode: 4
Integration Time (sec): 2.000000E-2
Electric dark correction enabled: true
Boxcar width: 10
XAxis mode: Wavelengths
Number of Pixels in Spectrum: 2048
>>>>>Begin Spectral Data<<<<<
177.721	621.4
178.105	-348.28
178.488	-890.65
178.871	86.79
179.254	172.73
179.636	-251.49
180.019	-13.31
180.402	183.33
180.785	55.4
181.168	-15.18
181.55	1561.54
181.933	426.53
182.316	1100
182.698	155.25
183.081	428.36
183.463	3176.92
183.846	345.03
184.228	1161.22
184.611	2715.38
184.993	-357.14
185.376	-87.71
185.758	-84.06
186.14	-230.91
186.522	-166.82
186.904	-91.72
187.287	-125.76
187.669	-88.96
188.051	-43.58
188.433	-29.51
188.815	-56.76
189.197	1.41
189.579	-4.26
189.961	-8.15
190.342	10.44
190.724	-21.12
191.106	-24.43
191.488	-18.57
191.869	-1.87
192.251	4.58
192.633	-3.39
193.014	-8.23
193.396	-6.36
193.777	-3.58
194.159	-2.64
194.54	6.34
194.922	-6.63
195.303	-9.94
195.684	-15.37
196.065	-23.72
196.447	-34.44
196.828	-30.51
197.209	-43.13
197.59	-30.19
197.971	-26.25
198.352	-38.61
198.733	-23.67
199.114	-13.53
199.495	-9.28
199.876	-27.85
200.257	-27.94
200.638	-32.7
201.018	-25.52
201.399	-13.98
201.78	-16.11
202.16	-6.76
202.541	-26.18
202.922	-24.08
203.302	-31.67
203.683	-40.48
204.063	-45.15
204.444	-34.61
204.824	-36.24
205.204	-35.9
205.585	-37.68
205.965	-50.56
206.345	-30.83
206.725	-31.53
207.106	-30.57
207.486	-24.87
207.866	-13.69
208.246	-9.66
208.626	-12.35
209.006	-11.38
209.386	-20.56
209.766	-17.93
210.145	-36.38
210.525	-18.34
210.905	-11.71
211.285	-13.52
211.664	-12.73
212.044	-5.94
212.424	-1.2
212.803	-16.51
213.183	-22.35
213.562	-17.56
213.942	-16.53
214.321	-23.23
214.701	-38.32
215.08	-48.8
215.459	-51.5
215.838	-83.68
216.218	-88.41
216.597	-88.05
216.976	-101.7
217.355	-83.63
217.734	-73.97
218.113	-63.04
218.492	-71.59
218.871	-78.53
219.25	-90.88
219.629	-102.59
220.008	-104.8
220.387	-100
220.766	-47.97
221.144	-35.47
221.523	-40.08
221.902	-27.59
222.28	-25.16
222.659	-2.55
223.037	-0.34
223.416	-0.14
223.794	5.5
224.173	-0.74
224.551	1.84
224.929	3.45
225.308	1.01
225.686	-1.58
226.064	-4.65
226.442	-2.75
226.821	-4.5
227.199	-6.48
227.577	-3.27
227.955	-3.53
228.333	-2.91
228.711	-4.92
229.089	-3.12
229.467	-5.04
229.845	-7.42
230.222	-4.37
230.6	-7.35
230.978	-6.81
231.356	-7.48
231.733	-6.96
232.111	-5.75
232.488	-5.88
232.866	-5.42
233.243	-2.6
233.621	-0.88
233.998	0.88
234.376	0.97
234.753	1.93
235.13	1.91
235.508	0.52
235.885	-1.76
236.262	-2.21
236.639	-2.1
237.016	-2.34
237.393	-1.68
237.77	-0.62
238.147	-0.72
238.524	1.56
238.901	1.01
239.278	1.29
239.655	2.11
240.032	2.08
240.409	1.51
240.785	1.4
241.162	1.01
241.539	0.83
241.915	0.68
242.292	0.87
242.668	1.04
243.045	1.63
243.421	2.07
243.798	2.59
244.174	2.98
244.551	2.77
244.927	2.68
245.303	2.59
245.679	2.75
246.056	2.72
246.432	2.45
246.808	2.83
247.184	2.85
247.56	2.6
247.936	2.54
248.312	2.94
248.688	2.98
249.064	3.07
249.44	3.02
249.815	3.1
250.191	3.12
250.567	3.42
250.943	3.48
251.318	3.2
251.694	3.17
252.069	2.93
252.445	2.76
252.82	2.81
253.196	2.76
253.571	2.75
253.947	2.69
254.322	2.72
254.697	2.48
255.073	2.35
255.448	2.67
255.823	2.91
256.198	2.58
256.573	2.43
256.948	2.37
257.323	2.51
257.698	2.51
258.073	2.45
258.448	2.16
258.823	2.11
259.198	2.22
259.573	2.03
259.948	2.07
260.322	2.24
260.697	2.29
261.072	2.38
261.446	2.29
261.821	2.21
262.195	2.07
262.57	1.98
262.944	2.03
263.319	1.89
263.693	1.95
264.067	1.95
264.442	2.14
264.816	1.94
265.19	1.78
265.564	1.53
265.938	1.5
266.313	1.38
266.687	1.3
267.061	1.43
267.435	1.8
267.809	1.81
268.183	2.03
268.556	1.97
268.93	2.17
269.304	1.98
269.678	2.15
270.051	2.14
270.425	2.21
270.799	2.28
271.172	2.29
271.546	2.18
271.919	2.25
272.293	2.25
272.666	2.28
273.04	2.3
273.413	2.32
273.787	2.34
274.16	2.41
274.533	2.6
274.906	2.52
275.279	2.41
275.653	2.52
276.026	2.4
276.399	2.41
276.772	2.43
277.145	2.65
277.518	2.63
277.891	2.76
278.263	3.03
278.636	2.92
279.009	2.95
279.382	2.87
279.755	2.9
280.127	2.95
280.5	2.97
280.872	3.2
281.245	3.38
281.617	3.26
281.99	3.3
282.362	3.13
282.735	3.07
283.107	2.96
283.479	2.87
283.852	2.8
284.224	2.84
284.596	2.69
284.968	2.58
285.34	2.68
285.713	2.85
286.085	2.69
286.457	2.83
286.829	2.8
287.201	2.87
287.572	2.95
287.944	2.97
288.316	3.06
288.688	2.95
289.06	3.06
289.431	3.19
289.803	3.26
290.175	3.29
290.546	3.37
290.918	3.47
291.289	3.5
291.661	3.59
292.032	3.71
292.403	3.81
292.775	4.08
293.146	4.03
293.517	3.83
293.889	3.88
294.26	3.77
294.631	3.94
295.002	3.97
295.373	3.89
295.744	3.95
296.115	3.94
296.486	4.03
296.857	3.94
297.228	3.83
297.599	3.84
297.97	3.92
298.34	3.98
298.711	4
299.082	4.08
299.452	3.93
299.823	3.91
300.194	3.96
300.564	3.81
300.935	3.72
301.305	3.83
301.676	3.76
302.046	3.87
302.416	3.75
302.787	3.81
303.157	3.91
303.527	3.9
303.897	3.87
304.267	3.87
304.637	3.99
305.008	4.14
305.378	4.12
305.748	4.13
306.117	4.15
306.487	4.15
306.857	4.09
307.227	4.32
307.597	4.43
307.967	4.49
308.336	4.63
308.706	4.69
309.076	4.84
309.445	4.94
309.815	4.9
310.184	4.97
310.554	4.93
310.923	4.97
311.293	4.92
311.662	5.15
312.031	5.04
312.401	5.02
312.77	5.14
313.139	5.22
313.508	5.3
313.877	5.35
314.246	5.42
314.616	5.52
314.985	5.52
315.353	5.38
315.722	5.41
316.091	5.39
316.46	5.54
316.829	5.46
317.198	5.53
317.567	5.67
317.935	5.77
318.304	5.9
318.672	5.98
319.041	6.08
319.41	5.96
319.778	6.15
320.147	6.29
320.515	6.21
320.883	6.32
321.252	6.42
321.62	6.38
321.988	6.47
322.357	6.46
322.725	6.66
323.093	6.77
323.461	6.68
323.829	6.78
324.197	6.79
324.565	6.87
324.933	6.85
325.301	6.89
325.669	6.88
326.037	6.85
326.405	6.74
326.772	6.6
327.14	6.66
327.508	6.62
327.875	6.43
328.243	6.47
328.61	6.42
328.978	6.44
329.346	6.4
329.713	6.4
330.08	6.36
330.448	6.31
330.815	6.3
331.182	6.41
331.55	6.4
331.917	6.38
332.284	6.37
332.651	6.42
333.018	6.28
333.385	6.32
333.752	6.32
334.119	6.49
334.486	6.67
334.853	6.62
335.22	6.76
335.587	6.8
335.954	6.75
336.32	6.81
336.687	6.74
337.054	6.85
337.42	6.96
337.787	7.05
338.153	7.05
338.52	7.17
338.886	7.14
339.253	7.09
339.619	7.19
339.986	7.18
340.352	7.21
340.718	7.28
341.084	7.31
341.451	7.49
341.817	7.39
342.183	7.36
342.549	7.46
342.915	7.46
343.281	7.57
343.647	7.61
344.013	7.53
344.379	7.54
344.745	7.62
345.11	7.54
345.476	7.56
345.842	7.59
346.208	7.56
346.573	7.62
346.939	7.68
347.304	7.65
347.67	7.73
348.035	7.7
348.401	7.74
348.766	7.7
349.132	7.6
349.497	7.75
349.862	7.83
350.228	7.79
350.593	7.72
350.958	7.78
351.323	7.82
351.688	7.92
352.053	8.08
352.418	8.03
352.783	8.09
353.148	8.09
353.513	7.99
353.878	7.91
354.243	7.79
354.608	7.81
354.972	7.84
355.337	7.78
355.702	7.83
356.066	7.83
356.431	7.92
356.795	7.92
357.16	7.79
357.524	7.72
357.889	7.71
358.253	7.77
358.618	7.77
358.982	7.79
359.346	7.76
359.71	7.67
360.075	7.7
360.439	7.77
360.803	7.77
361.167	7.78
361.531	7.81
361.895	7.77
362.259	7.75
362.623	7.74
362.987	7.77
363.351	7.76
363.714	7.74
364.078	7.71
364.442	7.7
364.806	7.69
365.169	7.71
365.533	7.72
365.896	7.72
366.26	7.67
366.623	7.63
366.987	7.57
367.35	7.54
367.714	7.48
368.077	7.37
368.44	7.3
368.803	7.31
369.167	7.29
369.53	7.33
369.893	7.38
370.256	7.29
370.619	7.18
370.982	7.09
371.345	7.15
371.708	7.15
372.071	7.1
372.434	7.05
372.797	6.92
373.159	6.88
373.522	6.84
373.885	6.77
374.247	6.66
374.61	6.64
374.973	6.63
375.335	6.56
375.698	6.54
376.06	6.51
376.423	6.46
376.785	6.46
377.147	6.38
377.51	6.32
377.872	6.32
378.234	6.3
378.596	6.26
378.958	6.17
379.321	6.04
379.683	6
380.045	5.95
380.407	5.93
380.769	5.89
381.13	5.8
381.492	5.74
381.854	5.75
382.216	5.7
382.578	5.63
382.939	5.59
383.301	5.5
383.663	5.47
384.024	5.42
384.386	5.39
384.747	5.39
385.109	5.3
385.47	5.28
385.832	5.22
386.193	5.21
386.554	5.13
386.916	5.19
387.277	5.1
387.638	5.08
387.999	5.05
388.36	5.01
388.721	5.01
389.082	5.03
389.443	5
389.804	4.99
390.165	4.94
390.526	4.95
390.887	4.94
391.248	4.92
391.609	4.9
391.969	4.86
392.33	4.85
392.691	4.81
393.051	4.76
393.412	4.76
393.772	4.74
394.133	4.73
394.493	4.67
394.854	4.67
395.214	4.65
395.574	4.61
395.935	4.56
396.295	4.51
396.655	4.46
397.015	4.4
397.376	4.37
397.736	4.31
398.096	4.23
398.456	4.22
398.816	4.18
399.176	4.14
399.535	4.1
399.895	4.02
400.255	3.99
400.615	3.99
400.975	3.96
401.334	3.9
401.694	3.86
402.054	3.82
402.413	3.81
402.773	3.8
403.132	3.77
403.492	3.78
403.851	3.76
404.211	3.75
404.57	3.75
404.929	3.74
405.288	3.76
405.648	3.78
406.007	3.76
406.366	3.76
406.725	3.73
407.084	3.72
407.443	3.73
407.802	3.74
408.161	3.73
408.52	3.76
408.879	3.79
409.238	3.8
409.596	3.8
409.955	3.77
410.314	3.75
410.673	3.76
411.031	3.73
411.39	3.71
411.748	3.7
412.107	3.67
412.465	3.63
412.824	3.58
413.182	3.55
413.54	3.54
413.899	3.51
414.257	3.5
414.615	3.48
414.974	3.47
415.332	3.45
415.69	3.4
416.048	3.36
416.406	3.32
416.764	3.29
417.122	3.28
417.48	3.29
417.838	3.28
418.195	3.27
418.553	3.27
418.911	3.25
419.269	3.24
419.626	3.24
419.984	3.25
420.342	3.24
420.699	3.23
421.057	3.2
421.414	3.2
421.772	3.17
422.129	3.17
422.486	3.15
422.844	3.15
423.201	3.15
423.558	3.14
423.915	3.14
424.273	3.12
424.63	3.1
424.987	3.08
425.344	3.07
425.701	3.07
426.058	3.05
426.415	3.04
426.772	3.03
427.128	3
427.485	2.97
427.842	2.98
428.199	2.97
428.555	2.97
428.912	2.94
429.269	2.94
429.625	2.93
429.982	2.93
430.338	2.91
430.695	2.9
431.051	2.9
431.407	2.91
431.764	2.93
432.12	2.93
432.476	2.93
432.832	2.93
433.189	2.91
433.545	2.92
433.901	2.92
434.257	2.94
434.613	2.94
434.969	2.94
435.325	2.91
435.681	2.91
436.036	2.92
436.392	2.95
436.748	2.95
437.104	2.96
437.459	2.95
437.815	2.96
438.171	2.97
438.526	2.96
438.882	2.94
439.237	2.94
439.593	2.94
439.948	2.94
440.304	2.93
440.659	2.94
441.014	2.94
441.369	2.93
441.725	2.91
442.08	2.89
442.435	2.89
442.79	2.89
443.145	2.9
443.5	2.89
443.855	2.87
444.21	2.86
444.565	2.85
444.92	2.85
445.275	2.85
445.629	2.83
445.984	2.84
446.339	2.84
446.693	2.84
447.048	2.81
447.403	2.8
447.757	2.8
448.112	2.81
448.466	2.8
448.82	2.8
449.175	2.79
449.529	2.81
449.883	2.81
450.238	2.8
450.592	2.77
450.946	2.78
451.3	2.78
451.654	2.78
452.008	2.78
452.362	2.77
452.716	2.77
453.07	2.77
453.424	2.77
453.778	2.74
454.132	2.73
454.486	2.77
454.839	2.79
455.193	2.78
455.547	2.77
455.9	2.77
456.254	2.75
456.607	2.75
456.961	2.75
457.314	2.74
457.668	2.76
458.021	2.78
458.375	2.79
458.728	2.78
459.081	2.78
459.434	2.79
459.787	2.8
460.141	2.8
460.494	2.8
460.847	2.8
461.2	2.8
461.553	2.82
461.906	2.83
462.259	2.83
462.611	2.84
462.964	2.84
463.317	2.86
463.67	2.89
464.022	2.9
464.375	2.91
464.728	2.94
465.08	2.93
465.433	2.94
465.785	2.92
466.138	2.93
466.49	2.95
466.843	2.94
467.195	2.94
467.547	2.92
467.899	2.92
468.252	2.94
468.604	2.98
468.956	2.97
469.308	2.96
469.66	2.97
470.012	2.99
470.364	2.99
470.716	2.97
471.068	2.95
471.42	2.95
471.772	2.97
472.123	2.97
472.475	2.99
472.827	3
473.178	3.03
473.53	3.03
473.882	3.04
474.233	3.03
474.585	3.03
474.936	3.04
475.288	3.05
475.639	3.06
475.99	3.07
476.342	3.06
476.693	3.07
477.044	3.05
477.395	3.04
477.746	3.05
478.097	3.04
478.448	3.05
478.8	3.04
479.15	3.01
479.501	3
479.852	3
480.203	2.99
480.554	2.97
480.905	2.97
481.255	2.97
481.606	2.98
481.957	2.98
482.307	2.99
482.658	2.98
483.009	2.97
483.359	2.97
483.709	2.96
484.06	2.95
484.41	2.96
484.761	2.97
485.111	2.98
485.461	2.98
485.811	2.99
486.162	2.99
486.512	3
486.862	3
487.212	3
487.562	3
487.912	3
488.262	3
488.612	3
488.961	3.01
489.311	3.01
489.661	3.01
490.011	3.02
490.36	3.02
490.71	3.02
491.06	3.03
491.409	3.04
491.759	3.04
492.108	3.02
492.458	3.02
492.807	3.03
493.157	3.04
493.506	3.05
493.855	3.04
494.204	3.06
494.554	3.08
494.903	3.09
495.252	3.1
495.601	3.13
495.95	3.15
496.299	3.16
496.648	3.2
496.997	3.24
497.346	3.27
497.695	3.31
498.043	3.36
498.392	3.38
498.741	3.41
499.09	3.44
499.438	3.48
499.787	3.53
500.135	3.56
500.484	3.57
500.832	3.61
501.181	3.66
501.529	3.7
501.878	3.74
502.226	3.81
502.574	3.86
502.923	3.89
503.271	3.92
503.619	3.96
503.967	3.98
504.315	4.01
504.663	4.05
505.011	4.06
505.359	4.09
505.707	4.14
506.055	4.18
506.403	4.23
506.751	4.27
507.098	4.33
507.446	4.37
507.794	4.42
508.141	4.47
508.489	4.54
508.837	4.55
509.184	4.58
509.531	4.6
509.879	4.64
510.226	4.68
510.574	4.76
510.921	4.8
511.268	4.83
511.616	4.88
511.963	4.94
512.31	5.01
512.657	5.07
513.004	5.13
513.351	5.22
513.698	5.26
514.045	5.3
514.392	5.35
514.739	5.43
515.086	5.51
515.432	5.58
515.779	5.64
516.126	5.73
516.473	5.8
516.819	5.88
517.166	5.95
517.512	6.01
517.859	6.06
518.205	6.1
518.552	6.17
518.898	6.21
519.245	6.26
519.591	6.32
519.937	6.37
520.283	6.42
520.629	6.47
520.976	6.56
521.322	6.65
521.668	6.71
522.014	6.76
522.36	6.82
522.706	6.9
523.052	6.98
523.398	7.06
523.743	7.16
524.089	7.27
524.435	7.37
524.781	7.46
525.126	7.54
525.472	7.63
525.817	7.72
526.163	7.8
526.509	7.87
526.854	7.94
527.199	8
527.545	8.07
527.89	8.13
528.235	8.17
528.581	8.24
528.926	8.32
529.271	8.4
529.616	8.48
529.961	8.54
530.306	8.62
530.651	8.7
530.996	8.78
531.341	8.85
531.686	8.93
532.031	9.02
532.376	9.11
532.721	9.2
533.065	9.28
533.41	9.38
533.755	9.49
534.099	9.59
534.444	9.7
534.788	9.8
535.133	9.92
535.477	10.05
535.822	10.19
536.166	10.31
536.51	10.45
536.855	10.6
537.199	10.77
537.543	10.95
537.887	11.12
538.231	11.29
538.576	11.49
538.92	11.67
539.264	11.85
539.608	12.01
539.951	12.17
540.295	12.31
540.639	12.46
540.983	12.6
541.327	12.74
541.671	12.91
542.014	13.04
542.358	13.19
542.701	13.36
543.045	13.51
543.389	13.66
543.732	13.81
544.075	13.96
544.419	14.12
544.762	14.26
545.105	14.43
545.449	14.62
545.792	14.8
546.135	15.02
546.478	15.24
546.821	15.46
547.165	15.71
547.508	15.98
547.851	16.23
548.194	16.48
548.536	16.73
548.879	16.97
549.222	17.25
549.565	17.49
549.908	17.72
550.25	17.95
550.593	18.23
550.936	18.5
551.278	18.76
551.621	19.02
551.963	19.32
552.306	19.6
552.648	19.87
552.991	20.1
553.333	20.34
553.675	20.56
554.017	20.81
554.36	21.06
554.702	21.32
555.044	21.59
555.386	21.78
555.728	22.05
556.07	22.31
556.412	22.62
556.754	22.86
557.096	23.11
557.438	23.42
557.78	23.66
558.121	23.93
558.463	24.2
558.805	24.47
559.147	24.72
559.488	24.99
559.83	25.24
560.171	25.52
560.513	25.77
560.854	26.03
561.196	26.3
561.537	26.59
561.878	26.84
562.22	27.09
562.561	27.43
562.902	27.66
563.243	27.93
563.584	28.1
563.925	28.38
564.266	28.6
564.607	28.79
564.948	29.05
565.289	29.28
565.63	29.53
565.971	29.77
566.312	29.98
566.653	30.15
566.993	30.38
567.334	30.6
567.675	30.85
568.015	31.06
568.356	31.29
568.696	31.49
569.037	31.72
569.377	31.96
569.718	32.13
570.058	32.35
570.398	32.55
570.739	32.77
571.079	32.94
571.419	33.14
571.759	33.38
572.099	33.55
572.439	33.74
572.779	33.91
573.119	34.12
573.459	34.28
573.799	34.49
574.139	34.65
574.479	34.82
574.819	34.97
575.158	35.15
575.498	35.3
575.838	35.44
576.177	35.58
576.517	35.67
576.856	35.86
577.196	36.02
577.535	36.18
577.875	36.34
578.214	36.55
578.553	36.69
578.893	36.81
579.232	37
579.571	37.18
579.91	37.34
580.25	37.42
580.589	37.63
580.928	37.78
581.267	37.95
581.606	38.04
581.945	38.15
582.283	38.3
582.622	38.46
582.961	38.63
583.3	38.78
583.639	38.92
583.977	39.07
584.316	39.14
584.654	39.2
584.993	39.33
585.332	39.42
585.67	39.61
586.008	39.75
586.347	39.86
586.685	39.99
587.024	40.06
587.362	40.21
587.7	40.27
588.038	40.4
588.376	40.52
588.715	40.68
589.053	40.75
589.391	40.85
589.729	40.96
590.067	41.05
590.404	41.13
590.742	41.27
591.08	41.34
591.418	41.44
591.756	41.65
592.093	41.73
592.431	41.88
592.769	41.93
593.106	42.07
593.444	42.14
593.781	42.25
594.119	42.37
594.456	42.45
594.793	42.51
595.131	42.56
595.468	42.59
595.805	42.64
596.143	42.67
596.48	42.71
596.817	42.7
597.154	42.78
597.491	42.86
597.828	42.92
598.165	42.97
598.502	43.08
598.839	43.05
599.176	43.16
599.512	43.17
599.849	43.23
600.186	43.23
600.523	43.36
600.859	43.44
601.196	43.52
601.532	43.64
601.869	43.74
602.205	43.79
602.542	43.78
602.878	43.93
603.215	44.04
603.551	44.13
603.887	44.25
604.223	44.29
604.56	44.33
604.896	44.32
605.232	44.46
605.568	44.49
605.904	44.53
606.24	44.61
606.576	44.61
606.912	44.71
607.248	44.76
607.583	44.73
607.919	44.76
608.255	44.77
608.591	44.78
608.926	44.9
609.262	44.92
609.597	44.99
609.933	44.95
610.268	45.02
610.604	45.08
610.939	45.08
611.275	45.13
611.61	45.16
611.945	45.21
612.281	45.18
612.616	45.2
612.951	45.26
613.286	45.19
613.621	45.28
613.956	45.34
614.291	45.32
614.626	45.45
614.961	45.45
615.296	45.5
615.631	45.54
615.966	45.53
616.3	45.7
616.635	45.72
616.97	45.75
617.304	45.74
617.639	45.78
617.973	45.85
618.308	45.9
618.642	45.96
618.977	46.03
619.311	46.03
619.646	46.18
619.98	46.32
620.314	46.38
620.648	46.57
620.983	46.55
621.317	46.7
621.651	46.71
621.985	46.69
622.319	46.74
622.653	46.89
622.987	46.88
623.321	46.91
623.655	47
623.988	47.13
624.322	47.19
624.656	47.16
624.99	47.23
625.323	47.23
625.657	47.22
625.99	47.23
626.324	47.22
626.657	47.13
626.991	47.19
627.324	47.15
627.658	47.14
627.991	47.19
628.324	47.2
628.657	47.22
628.991	47.33
629.324	47.32
629.657	47.36
629.99	47.36
630.323	47.36
630.656	47.42
630.989	47.5
631.322	47.47
631.655	47.52
631.987	47.49
632.32	47.54
632.653	47.57
632.986	47.67
633.318	47.72
633.651	47.82
633.984	47.71
634.316	47.86
634.649	47.8
634.981	47.84
635.313	47.84
635.646	47.79
635.978	47.79
636.31	47.84
636.643	47.74
636.975	47.81
637.307	47.89
637.639	47.84
637.971	47.74
638.303	47.79
638.635	47.92
638.967	47.93
639.299	47.94
639.631	48
639.963	47.91
640.295	47.97
640.626	47.91
640.958	47.98
641.29	47.93
641.621	47.95
641.953	47.84
642.285	47.88
642.616	48
642.948	48.02
643.279	48.05
643.61	48.01
643.942	47.97
644.273	47.92
644.604	47.95
644.936	47.99
645.267	48.03
645.598	47.95
645.929	48.01
646.26	48.02
646.591	48.01
646.922	48.08
647.253	48.13
647.584	48.19
647.915	48.26
648.245	48.29
648.576	48.35
648.907	48.44
649.238	48.39
649.568	48.38
649.899	48.45
650.229	48.32
650.56	48.4
650.89	48.39
651.221	48.42
651.551	48.38
651.882	48.4
652.212	48.34
652.542	48.35
652.872	48.31
653.203	48.34
653.533	48.43
653.863	48.53
654.193	48.48
654.523	48.49
654.853	48.44
655.183	48.34
655.513	48.35
655.843	48.46
656.172	48.61
656.502	48.68
656.832	48.77
657.162	48.87
657.491	48.88
657.821	48.93
658.15	49.03
658.48	49.06
658.809	49.02
659.139	49.08
659.468	49.18
659.798	49.27
660.127	49.15
660.456	49.12
660.785	49.05
661.115	49.03
661.444	49.15
661.773	49.21
662.102	49.35
662.431	49.41
662.76	49.34
663.089	49.32
663.418	49.33
663.747	49.15
664.076	49.26
664.404	49.27
664.733	49.34
665.062	49.23
665.39	49.26
665.719	49.44
666.048	49.47
666.376	49.38
666.705	49.45
667.033	49.55
667.362	49.58
667.69	49.48
668.018	49.52
668.347	49.35
668.675	49.44
669.003	49.4
669.331	49.45
669.659	49.65
669.987	49.65
670.315	49.53
670.643	49.57
670.971	49.61
671.299	49.62
671.627	49.6
671.955	49.67
672.283	49.66
672.61	49.55
672.938	49.55
673.266	49.61
673.593	49.47
673.921	49.55
674.249	49.49
674.576	49.53
674.904	49.62
675.231	49.81
675.558	49.74
675.886	49.7
676.213	49.62
676.54	49.48
676.867	49.51
677.195	49.65
677.522	49.75
677.849	49.67
678.176	49.57
678.503	49.5
678.83	49.49
679.157	49.55
679.484	49.6
679.81	49.65
680.137	49.68
680.464	49.73
680.791	49.7
681.117	49.75
681.444	49.84
681.771	49.95
682.097	49.9
682.424	49.91
682.75	50
683.077	50.09
683.403	50.01
683.729	50.02
684.056	50.04
684.382	50.01
684.708	49.99
685.034	50.09
685.36	50.15
685.686	50.11
686.012	50.31
686.339	50.33
686.664	50.4
686.99	50.32
687.316	50.34
687.642	50.36
687.968	50.35
688.294	50.44
688.619	50.28
688.945	50.31
689.271	50.27
689.596	50.29
689.922	50.31
690.247	50.38
690.573	50.45
690.898	50.42
691.224	50.43
691.549	50.54
691.874	50.61
692.2	50.63
692.525	50.73
692.85	50.5
693.175	50.48
693.5	50.4
693.825	50.4
694.15	50.4
694.475	50.43
694.8	50.49
695.125	50.44
695.45	50.5
695.775	50.53
696.099	50.59
696.424	50.46
696.749	50.39
697.073	50.28
697.398	50.22
697.723	50.17
698.047	50.19
698.372	50.21
698.696	50.19
699.02	50.21
699.345	50.27
699.669	50.36
699.993	50.31
700.318	50.41
700.642	50.44
700.966	50.55
701.29	50.57
701.614	50.46
701.938	50.36
702.262	50.42
702.586	50.43
702.91	50.36
703.234	50.44
703.557	50.52
703.881	50.71
704.205	50.69
704.529	50.75
704.852	50.74
705.176	50.83
705.499	50.93
705.823	50.86
706.146	50.83
706.47	50.89
706.793	50.96
707.117	50.8
707.44	50.73
707.763	50.43
708.086	50.4
708.409	50.43
708.733	50.44
709.056	50.47
709.379	50.52
709.702	50.59
710.025	50.69
710.348	50.67
710.671	50.59
710.993	50.56
711.316	50.59
711.639	50.56
711.962	50.49
712.284	50.52
712.607	50.65
712.93	50.6
713.252	50.47
713.575	50.35
713.897	50.28
714.22	50.47
714.542	50.6
714.864	50.69
715.187	50.78
715.509	50.87
715.831	50.71
716.153	50.64
716.475	50.56
716.798	50.39
717.12	50.25
717.442	50.45
717.764	50.58
718.085	50.6
718.407	50.75
718.729	50.59
719.051	50.72
719.373	50.77
719.695	50.73
720.016	50.63
720.338	50.91
720.659	51.13
720.981	51.05
721.302	51.1
721.624	51.15
721.945	51.18
722.267	51.34
722.588	51.34
722.909	51.38
723.231	51.52
723.552	51.82
723.873	52.09
724.194	51.97
724.515	51.91
724.836	51.92
725.157	52.04
725.478	52.27
725.799	51.95
726.12	51.82
726.441	51.77
726.762	52.22
727.083	52.07
727.403	51.81
727.724	51.99
728.045	52.04
728.365	51.78
728.686	51.44
729.006	51.15
729.327	51.26
729.647	51.27
729.967	51.38
730.288	51.27
730.608	51.26
730.928	51.24
731.249	51.28
731.569	51.16
731.889	51.08
732.209	51.18
732.529	51.24
732.849	51.17
733.169	51.31
733.489	50.91
733.809	50.97
734.129	51.29
734.448	51.12
734.768	51.05
735.088	51.22
735.408	51.82
735.727	51.97
736.047	52.13
736.366	52.21
736.686	52.3
737.005	52.45
737.325	52.43
737.644	52.35
737.963	52.3
738.283	52.45
738.602	52.47
738.921	52.22
739.24	52.23
739.56	52.5
739.879	52.3
740.198	52.57
740.517	52.81
740.836	52.81
741.155	52.73
741.473	52.7
741.792	52.64
742.111	52.28
742.43	52.55
742.748	52.31
743.067	52.13
743.386	51.84
743.704	51.72
744.023	51.89
744.341	52.12
744.66	52.2
744.978	52.1
745.297	51.77
745.615	51.91
745.933	51.98
746.252	51.8
746.57	52.2
746.888	52.31
747.206	51.77
747.524	51.82
747.842	51.98
748.16	52.07
748.478	52.13
748.796	52.41
749.114	52.13
749.432	52.17
749.749	52.18
750.067	52.36
750.385	52.48
750.703	51.97
751.02	51.78
751.338	51.5
751.655	51.36
751.973	51.71
752.29	51.44
752.608	51.52
752.925	51.65
753.242	51.39
753.56	51.21
753.877	51.47
754.194	51.05
754.511	50.99
754.828	50.97
755.145	50.79
755.462	50.54
755.779	50.59
756.096	50.58
756.413	50.64
756.73	50.77
757.047	50.92
757.364	51.24
757.68	51.42
757.997	52.01
758.314	52.29
758.63	52.1
758.947	52.2
759.264	52.05
759.58	52.09
759.896	51.94
760.213	52.21
760.529	52.56
760.846	52.67
761.162	52.6
761.478	52.55
761.794	52.95
762.11	53.02
762.426	52.99
762.743	52.98
763.059	52.88
763.375	52.64
763.69	52.62
764.006	52.64
764.322	52.36
764.638	52.16
764.954	52.22
765.27	52.35
765.585	52.36
765.901	52.37
766.216	52.49
766.532	52.71
766.848	52.29
767.163	51.97
767.478	51.84
767.794	51.7
768.109	52.02
768.424	51.6
768.74	51.85
769.055	51.91
769.37	52.07
769.685	52.21
770	52.58
770.315	52.31
770.63	52.35
770.945	53.02
771.26	52.95
771.575	52.94
771.89	52.97
772.205	52.96
772.52	52.76
772.834	52.63
773.149	52.53
773.464	52.79
773.778	52.99
774.093	53.48
774.407	53.73
774.722	53.3
775.036	53.52
775.351	52.94
775.665	52.62
775.979	52.29
776.293	52.46
776.608	52.33
776.922	52.25
777.236	51.88
777.55	51.03
777.864	51.16
778.178	50.93
778.492	50.93
778.806	51.19
779.12	51.61
779.434	51.49
779.747	51.3
780.061	51.36
780.375	51.21
780.689	51.02
781.002	51.04
781.316	51.45
781.629	51.95
781.943	52.14
782.256	52.26
782.57	52.56
782.883	52.63
783.196	51.99
783.51	51.87
783.823	52.42
784.136	52.88
784.449	52.58
784.762	52.51
785.075	52.66
785.388	52.39
785.701	51.78
786.014	51.41
786.327	51.64
786.64	51.53
786.953	52.14
787.266	52.31
787.578	52.36
787.891	52.41
788.204	51.78
788.516	51.69
788.829	51.99
789.141	52.02
789.454	51.89
789.766	52.45
790.079	52.48
790.391	52.24
790.703	52.47
791.016	52.64
791.328	52.85
791.64	52.44
791.952	52.2
792.264	52.6
792.576	53.28
792.888	53.11
793.2	53.51
793.512	53.13
793.824	53.31
794.136	53.05
794.448	52.87
794.76	53.51
795.071	53.9
795.383	54.27
795.695	53.64
796.006	53.62
796.318	53.44
796.629	53.56
796.941	53.6
797.252	53.25
797.564	53.24
797.875	52.77
798.186	52.94
798.497	53.23
798.809	53.37
799.12	53.13
799.431	53.25
799.742	52.86
800.053	52.6
800.364	52.49
800.675	52.7
800.986	52.5
801.297	52.19
801.608	52.28
801.918	51.69
802.229	52.31
802.54	52.68
802.851	52.58
803.161	52.64
803.472	52.83
803.782	52.9
804.093	52.89
804.403	53.6
804.714	54.43
805.024	54.74
805.334	54.69
805.645	54.5
805.955	54.18
806.265	54.37
806.575	54.73
806.885	54.44
807.195	55.45
807.505	55.02
807.815	54.85
808.125	54.62
808.435	55.01
808.745	54.91
809.055	54.59
809.365	55.18
809.674	54.95
809.984	54.6
810.294	54.95
810.603	54.82
810.913	54.23
811.222	53.66
811.532	53.71
811.841	53.72
812.151	53.55
812.46	54.19
812.769	53.6
813.079	53
813.388	52.06
813.697	50.89
814.006	51.92
814.315	51.81
814.624	51.74
814.933	51.51
815.242	51.57
815.551	51.5
815.86	51.49
816.169	51.19
816.478	51.41
816.786	50.76
817.095	51.3
817.404	51.63
817.712	50.98
818.021	51.15
818.33	51.25
818.638	51.56
818.947	51.83
819.255	52.56
819.563	52.84
819.872	53.7
820.18	54.02
820.488	54.24
820.796	54.66
821.105	54.77
821.413	54.81
821.721	54.83
822.029	54.85
822.337	54.82
822.645	54.86
822.953	54.76
823.26	54.79
823.568	54.58
823.876	54.56
824.184	54.51
824.491	54.53
824.799	54.72
825.107	54.76
825.414	54.7
825.722	54.6
826.029	54.65
826.337	54.65
826.644	54.59
826.951	54.58
827.259	54.4
827.566	54.56
827.873	54.62
828.18	54.64
828.488	54.67
828.795	54.71
829.102	54.79
829.409	54.81
829.716	55.06
830.023	55.11
830.329	55.19
830.636	55.59
830.943	55.96
831.25	55.49
831.557	54.81
831.863	54.59
832.17	54.65
832.476	54.75
832.783	54.32
833.089	54.16
833.396	53.48
833.702	53.06
834.009	52.27
834.315	52.56
834.621	52.25
834.928	52
835.234	51.46
835.54	51.71
835.846	51.74
836.152	51.96
836.458	52.36
836.764	52.64
837.07	52.35
837.376	51.23
837.682	51.1
837.988	52
838.293	52.3
838.599	52.37
838.905	52.19
839.211	52.17
839.516	52.3
839.822	52.02
840.127	51.79
840.433	51.6
840.738	50.48
841.044	50.61
841.349	50.13
841.654	50.94
841.959	51.09
842.265	50.92
842.57	50.51
842.875	49.57
843.18	48.13
843.485	48.91
843.79	49.2
844.095	49.05
844.4	48.89
844.705	48.77
845.01	48.92
845.315	48.3
845.619	48.69
845.924	47.52
846.229	47.05
846.533	46.89
846.838	47.89
847.142	47.2
847.447	46.91
847.751	46.99
848.056	46.26
848.36	44.24
848.664	43.47
848.969	42.2
849.273	41.6
849.577	43.02
849.881	41.46
850.185	42.12
850.489	42.97
850.794	42.82
851.097	42.28
851.401	40.39
851.705	40.4
852.009	40.78
852.313	40.64
852.617	41.98
852.92	44.09
853.224	43.01
853.528	42.63
853.831	41.96
854.135	39.84
854.438	38.44
854.742	38.27
855.045	39.13
855.349	39.01
855.652	40.79
855.955	38.68
856.259	39.09
856.562	39.17
856.865	38.98
857.168	39.78
857.471	39.19
857.774	40.67
858.077	40.3
858.38	38.89
858.683	40.46
858.986	40.87
859.289	40.11
859.592	40.59
859.894	42.1
860.197	44.62
860.5	48.56
860.802	49.49
861.105	51.37
861.407	50.1
861.71	49.44
862.012	48.56
862.315	50.4
862.617	50.06
862.919	49.02
863.222	49.11
863.524	47.75
863.826	48.6
864.128	50.52
864.43	52.36
864.732	52.54
865.034	52.48
865.336	52.13
865.638	50.56
865.94	51.35
866.242	51.53
866.544	51.67
866.846	51.43
867.147	51.78
867.449	50.48
867.751	52.36
868.052	54.51
868.354	55.91
868.655	54.87
868.957	55.62
869.258	56.92
869.56	56.31
869.861	55.32
870.162	56.07
870.463	53.42
870.765	50.96
871.066	51.87
871.367	51.16
871.668	49.65
871.969	50.82
872.27	49.93
872.571	49.6
872.872	48.63
873.173	46.67
873.473	45.65
873.774	46.29
874.075	46.83
874.376	45.95
874.676	47.62
874.977	48.93
875.277	47.17
875.578	47.67
875.878	48.04
876.179	49.6
876.479	48.48
876.78	48.97
877.08	50.08
877.38	50.1
877.68	50.7
877.981	53.12
878.281	53.02
878.581	54.05
