Data from MVZ_BU163024_Reflection_00010.txt Node
Date: Tue Nov 19 12:11:41 EST 2019
User: vgr7
Spectrometer: USB2G7710
Scans to average: 3
Trigger mode: 4
Integration Time (sec): 2.000000E-2
Electric dark correction enabled: true
Boxcar width: 10
XAxis mode: Wavelengths
Number of Pixels in Spectrum: 2048
>>>>>Begin Spectral Data<<<<<
177.721	-845.05
178.105	-163.16
178.488	-131.5
178.871	-109.68
179.254	-154.55
179.636	443.75
180.019	170.42
180.402	123.08
180.785	-65.71
181.168	-44.07
181.55	0.41
181.933	13.04
182.316	25.27
182.698	-18.86
183.081	-26.95
183.463	-34.49
183.846	-46.61
184.228	-40.44
184.611	-67.73
184.993	-60
185.376	-106.9
185.758	-162.44
186.14	-128.07
186.522	-148.93
186.904	-104.08
187.287	-67.19
187.669	-111.32
188.051	-92.66
188.433	-73.13
188.815	-87.71
189.197	-56.34
189.579	-148.8
189.961	-97.03
190.342	-160.87
190.724	-136.95
191.106	-169.43
191.488	-199.54
191.869	-139.06
192.251	-159.67
192.633	-179.28
193.014	-135.29
193.396	-41.55
193.777	-19.69
194.159	-34.05
194.54	-21.58
194.922	-41.21
195.303	-124.24
195.684	-451.72
196.065	144.94
196.447	75.61
196.828	129.13
197.209	100
197.59	77.19
197.971	89.32
198.352	74.28
198.733	25.07
199.114	33.11
199.495	22.83
199.876	28.37
200.257	199.29
200.638	301.83
201.018	285.84
201.399	293.72
201.78	485.62
202.16	308.51
202.541	344.13
202.922	348.7
203.302	494.96
203.683	-2380
204.063	-1027.27
204.444	-2112.12
204.824	-2100
205.204	2686.21
205.585	-10614.29
205.965	1774.42
206.345	-3757.14
206.725	610.95
207.106	257.43
207.486	227.27
207.866	181.14
208.246	144.41
208.626	146.59
209.006	142.14
209.386	117.64
209.766	97.85
210.145	70.65
210.525	72.82
210.905	72.77
211.285	65.87
211.664	61.33
212.044	57.76
212.424	44.96
212.803	34.55
213.183	42.25
213.562	42.56
213.942	33.27
214.321	39.06
214.701	47.56
215.08	40.53
215.459	53.97
215.838	47.9
216.218	34.6
216.597	38.16
216.976	49.92
217.355	59
217.734	54.92
218.113	65.25
218.492	66.12
218.871	61.96
219.25	77.91
219.629	73.14
220.008	79.13
220.387	89.15
220.766	77.24
221.144	56.11
221.523	53.07
221.902	76.83
222.28	77.64
222.659	71.61
223.037	82.16
223.416	77.78
223.794	83.59
224.173	85.22
224.551	83.72
224.929	72.3
225.308	64.44
225.686	68.31
226.064	60.64
226.442	60.92
226.821	53.95
227.199	51.19
227.577	44.35
227.955	40.99
228.333	40.81
228.711	42.52
229.089	45.2
229.467	41.39
229.845	32.34
230.222	29.24
230.6	24.01
230.978	19.23
231.356	18.84
231.733	18.93
232.111	18.55
232.488	17.78
232.866	15.65
233.243	15.55
233.621	13.55
233.998	15.19
234.376	11.6
234.753	9.5
235.13	6.35
235.508	7.53
235.885	5.79
236.262	2.89
236.639	2.16
237.016	0.88
237.393	1.73
237.77	4.84
238.147	3.79
238.524	5.05
238.901	5.19
239.278	4.45
239.655	3.8
240.032	4
240.409	4.48
240.785	4.9
241.162	5
241.539	4.71
241.915	4.88
242.292	5.67
242.668	5.98
243.045	6.87
243.421	6.91
243.798	7.18
244.174	7.39
244.551	6.96
244.927	6.81
245.303	6.61
245.679	5.96
246.056	6
246.432	5.76
246.808	5.76
247.184	5.6
247.56	5.72
247.936	5.81
248.312	5.6
248.688	5.34
249.064	5.34
249.44	5.64
249.815	5.61
250.191	5.54
250.567	5.25
250.943	5.15
251.318	5.01
251.694	4.88
252.069	4.94
252.445	5.38
252.82	5.78
253.196	5.77
253.571	6.21
253.947	6.26
254.322	6.31
254.697	6.04
255.073	6.32
255.448	6.25
255.823	5.94
256.198	5.59
256.573	5.76
256.948	5.8
257.323	5.69
257.698	5.47
258.073	5.16
258.448	5.29
258.823	4.93
259.198	4.98
259.573	4.83
259.948	4.73
260.322	4.71
260.697	4.52
261.072	4.47
261.446	4.38
261.821	4.34
262.195	4.45
262.57	4.59
262.944	4.49
263.319	4.27
263.693	4.35
264.067	4.53
264.442	4.43
264.816	4.11
265.19	4.07
265.564	3.82
265.938	3.86
266.313	3.84
266.687	3.97
267.061	3.84
267.435	4.12
267.809	4.07
268.183	3.82
268.556	3.68
268.93	3.77
269.304	3.77
269.678	3.92
270.051	3.71
270.425	3.71
270.799	3.54
271.172	3.81
271.546	3.91
271.919	3.82
272.293	4
272.666	4.11
273.04	4.05
273.413	4.22
273.787	4.3
274.16	4.18
274.533	4.23
274.906	4.39
275.279	4.23
275.653	4.19
276.026	4.28
276.399	4.22
276.772	4.04
277.145	4.04
277.518	3.91
277.891	4.12
278.263	4.23
278.636	4.57
279.009	4.44
279.382	4.22
279.755	4.18
280.127	3.89
280.5	3.88
280.872	3.89
281.245	3.93
281.617	4.08
281.99	4.21
282.362	4.16
282.735	4.03
283.107	4.01
283.479	4.17
283.852	4.23
284.224	4.36
284.596	4.55
284.968	4.44
285.34	4.51
285.713	4.53
286.085	4.35
286.457	4.34
286.829	4.36
287.201	4.45
287.572	4.6
287.944	4.79
288.316	4.83
288.688	4.81
289.06	4.78
289.431	4.85
289.803	4.78
290.175	4.76
290.546	4.72
290.918	4.76
291.289	4.73
291.661	4.65
292.032	4.65
292.403	4.46
292.775	4.46
293.146	4.46
293.517	4.34
293.889	4.48
294.26	4.37
294.631	4.36
295.002	4.37
295.373	4.34
295.744	4.26
296.115	4.3
296.486	4.35
296.857	4.53
297.228	4.39
297.599	4.43
297.97	4.53
298.34	4.66
298.711	4.71
299.082	4.7
299.452	4.86
299.823	4.99
300.194	5.26
300.564	5.23
300.935	5.32
301.305	5.35
301.676	5.14
302.046	5.21
302.416	5.15
302.787	5.27
303.157	5.38
303.527	5.67
303.897	5.5
304.267	5.54
304.637	5.53
305.008	5.71
305.378	5.75
305.748	5.72
306.117	5.57
306.487	5.65
306.857	5.63
307.227	5.51
307.597	5.47
307.967	5.22
308.336	5.27
308.706	5.16
309.076	5.39
309.445	5.71
309.815	5.6
310.184	5.62
310.554	5.36
310.923	5.17
311.293	4.92
311.662	5.11
312.031	5.1
312.401	5.02
312.77	4.77
313.139	4.75
313.508	4.74
313.877	4.84
314.246	4.84
314.616	4.84
314.985	4.85
315.353	4.78
315.722	5
316.091	5.15
316.46	5.05
316.829	4.8
317.198	4.62
317.567	4.81
317.935	4.94
318.304	5.19
318.672	5.32
319.041	5.55
319.41	5.58
319.778	5.56
320.147	5.55
320.515	5.73
320.883	5.92
321.252	6
321.62	5.84
321.988	5.78
322.357	5.9
322.725	5.95
323.093	5.99
323.461	6
323.829	5.83
324.197	6.1
324.565	6.18
324.933	6.31
325.301	6.14
325.669	5.99
326.037	6.08
326.405	6.07
326.772	5.94
327.14	5.9
327.508	5.95
327.875	5.97
328.243	5.96
328.61	5.9
328.978	5.88
329.346	6.01
329.713	6.05
330.08	6.04
330.448	6.07
330.815	6.18
331.182	6.13
331.55	6.25
331.917	6.17
332.284	6.25
332.651	6.23
333.018	6.34
333.385	6.53
333.752	6.52
334.119	6.66
334.486	6.67
334.853	6.58
335.22	6.64
335.587	6.68
335.954	6.69
336.32	6.78
336.687	6.84
337.054	7.04
337.42	7.14
337.787	7.09
338.153	7.19
338.52	7.03
338.886	7.05
339.253	7.14
339.619	7.25
339.986	7.17
340.352	7.03
340.718	7.04
341.084	7.08
341.451	7.08
341.817	7.15
342.183	7.27
342.549	7.43
342.915	7.54
343.281	7.59
343.647	7.65
344.013	7.64
344.379	7.69
344.745	7.72
345.11	7.68
345.476	7.75
345.842	7.68
346.208	7.87
346.573	7.83
346.939	7.84
347.304	7.79
347.67	7.85
348.035	7.91
348.401	7.98
348.766	7.89
349.132	7.79
349.497	7.71
349.862	7.62
350.228	7.57
350.593	7.37
350.958	7.4
351.323	7.42
351.688	7.44
352.053	7.45
352.418	7.34
352.783	7.35
353.148	7.38
353.513	7.29
353.878	7.11
354.243	7.09
354.608	7.03
354.972	7.02
355.337	6.99
355.702	7.05
356.066	6.99
356.431	7.04
356.795	7.04
357.16	7.05
357.524	6.99
357.889	6.96
358.253	7.08
358.618	7
358.982	6.9
359.346	6.81
359.71	6.74
360.075	6.74
360.439	6.74
360.803	6.69
361.167	6.73
361.531	6.77
361.895	6.79
362.259	6.8
362.623	6.82
362.987	6.84
363.351	6.8
363.714	6.86
364.078	6.84
364.442	6.8
364.806	6.8
365.169	6.86
365.533	6.96
365.896	6.9
366.26	6.88
366.623	6.91
366.987	6.98
367.35	7.05
367.714	7.07
368.077	7.06
368.44	7.12
368.803	7.08
369.167	7.08
369.53	7.01
369.893	6.95
370.256	6.88
370.619	6.77
370.982	6.71
371.345	6.69
371.708	6.64
372.071	6.63
372.434	6.56
372.797	6.54
373.159	6.48
373.522	6.38
373.885	6.38
374.247	6.36
374.61	6.3
374.973	6.15
375.335	6.14
375.698	6.04
376.06	5.96
376.423	5.95
376.785	5.95
377.147	5.94
377.51	5.95
377.872	5.9
378.234	5.93
378.596	5.9
378.958	5.84
379.321	5.81
379.683	5.82
380.045	5.82
380.407	5.76
380.769	5.71
381.13	5.71
381.492	5.68
381.854	5.58
382.216	5.57
382.578	5.59
382.939	5.5
383.301	5.48
383.663	5.42
384.024	5.36
384.386	5.33
384.747	5.23
385.109	5.18
385.47	5.21
385.832	5.16
386.193	5.16
386.554	5.09
386.916	5.12
387.277	5.1
387.638	5.04
387.999	5.05
388.36	5.01
388.721	5
389.082	5.01
389.443	5.08
389.804	5.04
390.165	5.01
390.526	4.98
390.887	4.96
391.248	4.93
391.609	5
391.969	4.94
392.33	4.96
392.691	4.97
393.051	4.91
393.412	4.91
393.772	4.91
394.133	4.9
394.493	4.85
394.854	4.84
395.214	4.83
395.574	4.79
395.935	4.78
396.295	4.74
396.655	4.66
397.015	4.61
397.376	4.59
397.736	4.55
398.096	4.5
398.456	4.5
398.816	4.5
399.176	4.42
399.535	4.41
399.895	4.42
400.255	4.4
400.615	4.4
400.975	4.39
401.334	4.33
401.694	4.34
402.054	4.31
402.413	4.26
402.773	4.24
403.132	4.24
403.492	4.24
403.851	4.18
404.211	4.19
404.57	4.18
404.929	4.16
405.288	4.17
405.648	4.2
406.007	4.19
406.366	4.16
406.725	4.13
407.084	4.12
407.443	4.08
407.802	4.05
408.161	4.01
408.52	3.96
408.879	3.99
409.238	3.96
409.596	3.96
409.955	3.97
410.314	3.99
410.673	3.99
411.031	3.94
411.39	3.97
411.748	3.96
412.107	3.94
412.465	3.9
412.824	3.88
413.182	3.87
413.54	3.83
413.899	3.85
414.257	3.85
414.615	3.87
414.974	3.85
415.332	3.84
415.69	3.84
416.048	3.87
416.406	3.83
416.764	3.85
417.122	3.83
417.48	3.83
417.838	3.81
418.195	3.78
418.553	3.79
418.911	3.76
419.269	3.75
419.626	3.74
419.984	3.75
420.342	3.75
420.699	3.74
421.057	3.74
421.414	3.72
421.772	3.72
422.129	3.7
422.486	3.7
422.844	3.69
423.201	3.7
423.558	3.67
423.915	3.68
424.273	3.65
424.63	3.66
424.987	3.65
425.344	3.64
425.701	3.63
426.058	3.63
426.415	3.63
426.772	3.63
427.128	3.64
427.485	3.62
427.842	3.6
428.199	3.59
428.555	3.57
428.912	3.56
429.269	3.55
429.625	3.54
429.982	3.53
430.338	3.53
430.695	3.52
431.051	3.52
431.407	3.5
431.764	3.5
432.12	3.5
432.476	3.49
432.832	3.5
433.189	3.51
433.545	3.48
433.901	3.48
434.257	3.46
434.613	3.43
434.969	3.45
435.325	3.46
435.681	3.44
436.036	3.45
436.392	3.48
436.748	3.48
437.104	3.49
437.459	3.51
437.815	3.52
438.171	3.52
438.526	3.51
438.882	3.55
439.237	3.55
439.593	3.53
439.948	3.53
440.304	3.51
440.659	3.49
441.014	3.51
441.369	3.51
441.725	3.51
442.08	3.51
442.435	3.51
442.79	3.52
443.145	3.53
443.5	3.53
443.855	3.51
444.21	3.49
444.565	3.49
444.92	3.46
445.275	3.44
445.629	3.43
445.984	3.44
446.339	3.41
446.693	3.42
447.048	3.41
447.403	3.41
447.757	3.41
448.112	3.42
448.466	3.42
448.82	3.41
449.175	3.43
449.529	3.44
449.883	3.43
450.238	3.41
450.592	3.39
450.946	3.37
451.3	3.37
451.654	3.36
452.008	3.35
452.362	3.36
452.716	3.37
453.07	3.37
453.424	3.35
453.778	3.33
454.132	3.33
454.486	3.35
454.839	3.34
455.193	3.33
455.547	3.32
455.9	3.32
456.254	3.32
456.607	3.3
456.961	3.29
457.314	3.3
457.668	3.31
458.021	3.32
458.375	3.33
458.728	3.32
459.081	3.32
459.434	3.33
459.787	3.34
460.141	3.36
460.494	3.36
460.847	3.37
461.2	3.38
461.553	3.36
461.906	3.36
462.259	3.36
462.611	3.37
462.964	3.38
463.317	3.38
463.67	3.41
464.022	3.42
464.375	3.43
464.728	3.42
465.08	3.42
465.433	3.44
465.785	3.44
466.138	3.46
466.49	3.48
466.843	3.48
467.195	3.49
467.547	3.48
467.899	3.47
468.252	3.49
468.604	3.51
468.956	3.54
469.308	3.55
469.66	3.58
470.012	3.59
470.364	3.6
470.716	3.62
471.068	3.62
471.42	3.64
471.772	3.66
472.123	3.68
472.475	3.7
472.827	3.72
473.178	3.74
473.53	3.74
473.882	3.77
474.233	3.77
474.585	3.76
474.936	3.78
475.288	3.77
475.639	3.79
475.99	3.77
476.342	3.77
476.693	3.79
477.044	3.78
477.395	3.79
477.746	3.75
478.097	3.74
478.448	3.71
478.8	3.67
479.15	3.65
479.501	3.63
479.852	3.61
480.203	3.58
480.554	3.57
480.905	3.56
481.255	3.55
481.606	3.56
481.957	3.56
482.307	3.55
482.658	3.56
483.009	3.53
483.359	3.53
483.709	3.54
484.06	3.53
484.41	3.52
484.761	3.53
485.111	3.53
485.461	3.53
485.811	3.53
486.162	3.53
486.512	3.54
486.862	3.54
487.212	3.54
487.562	3.54
487.912	3.54
488.262	3.53
488.612	3.53
488.961	3.53
489.311	3.52
489.661	3.52
490.011	3.52
490.36	3.53
490.71	3.52
491.06	3.51
491.409	3.5
491.759	3.51
492.108	3.5
492.458	3.51
492.807	3.52
493.157	3.53
493.506	3.54
493.855	3.53
494.204	3.53
494.554	3.54
494.903	3.56
495.252	3.57
495.601	3.58
495.95	3.61
496.299	3.61
496.648	3.64
496.997	3.68
497.346	3.71
497.695	3.75
498.043	3.81
498.392	3.86
498.741	3.9
499.09	3.93
499.438	3.97
499.787	4.01
500.135	4.05
500.484	4.09
500.832	4.13
501.181	4.18
501.529	4.25
501.878	4.29
502.226	4.34
502.574	4.41
502.923	4.48
503.271	4.53
503.619	4.57
503.967	4.63
504.315	4.66
504.663	4.71
505.011	4.77
505.359	4.79
505.707	4.83
506.055	4.88
506.403	4.95
506.751	5.03
507.098	5.09
507.446	5.18
507.794	5.26
508.141	5.32
508.489	5.42
508.837	5.49
509.184	5.56
509.531	5.61
509.879	5.69
510.226	5.77
510.574	5.86
510.921	5.95
511.268	6.04
511.616	6.16
511.963	6.25
512.31	6.35
512.657	6.47
513.004	6.57
513.351	6.68
513.698	6.8
514.045	6.89
514.392	7.02
514.739	7.11
515.086	7.24
515.432	7.38
515.779	7.48
516.126	7.61
516.473	7.72
516.819	7.85
517.166	7.97
517.512	8.06
517.859	8.15
518.205	8.26
518.552	8.36
518.898	8.44
519.245	8.57
519.591	8.68
519.937	8.79
520.283	8.91
520.629	9.02
520.976	9.17
521.322	9.32
521.668	9.47
522.014	9.62
522.36	9.74
522.706	9.86
523.052	10.06
523.398	10.22
523.743	10.4
524.089	10.6
524.435	10.77
524.781	10.95
525.126	11.11
525.472	11.26
525.817	11.4
526.163	11.53
526.509	11.64
526.854	11.75
527.199	11.86
527.545	11.98
527.89	12.11
528.235	12.21
528.581	12.34
528.926	12.45
529.271	12.59
529.616	12.73
529.961	12.88
530.306	13
530.651	13.13
530.996	13.29
531.341	13.45
531.686	13.63
532.031	13.79
532.376	13.97
532.721	14.16
533.065	14.34
533.41	14.53
533.755	14.75
534.099	14.96
534.444	15.18
534.788	15.39
535.133	15.58
535.477	15.82
535.822	16.05
536.166	16.28
536.51	16.54
536.855	16.79
537.199	17.08
537.543	17.38
537.887	17.69
538.231	17.99
538.576	18.29
538.92	18.56
539.264	18.82
539.608	19.1
539.951	19.33
540.295	19.61
540.639	19.87
540.983	20.06
541.327	20.3
541.671	20.52
542.014	20.76
542.358	21.01
542.701	21.21
543.045	21.43
543.389	21.65
543.732	21.87
544.075	22.12
544.419	22.36
544.762	22.58
545.105	22.83
545.449	23.07
545.792	23.37
546.135	23.67
546.478	24.01
546.821	24.35
547.165	24.72
547.508	25.02
547.851	25.33
548.194	25.68
548.536	26.03
548.879	26.37
549.222	26.68
549.565	27
549.908	27.38
550.25	27.69
550.593	28.05
550.936	28.41
551.278	28.77
551.621	29.12
551.963	29.49
552.306	29.85
552.648	30.2
552.991	30.45
553.333	30.75
553.675	31.03
554.017	31.34
554.36	31.63
554.702	31.89
555.044	32.21
555.386	32.53
555.728	32.81
556.07	33.12
556.412	33.38
556.754	33.68
557.096	33.97
557.438	34.33
557.78	34.6
558.121	34.9
558.463	35.2
558.805	35.47
559.147	35.74
559.488	35.97
559.83	36.26
560.171	36.57
560.513	36.89
560.854	37.26
561.196	37.51
561.537	37.72
561.878	38.08
562.22	38.43
562.561	38.72
562.902	38.97
563.243	39.24
563.584	39.54
563.925	39.8
564.266	40.07
564.607	40.29
564.948	40.6
565.289	40.87
565.63	41.09
565.971	41.34
566.312	41.58
566.653	41.84
566.993	42.07
567.334	42.31
567.675	42.51
568.015	42.69
568.356	42.9
568.696	43.23
569.037	43.39
569.377	43.58
569.718	43.81
570.058	43.99
570.398	44.22
570.739	44.39
571.079	44.6
571.419	44.79
571.759	44.98
572.099	45.18
572.439	45.36
572.779	45.56
573.119	45.68
573.459	45.9
573.799	46.02
574.139	46.2
574.479	46.42
574.819	46.63
575.158	46.8
575.498	47
575.838	47.03
576.177	47.23
576.517	47.37
576.856	47.48
577.196	47.71
577.535	47.89
577.875	48.08
578.214	48.32
578.553	48.47
578.893	48.66
579.232	48.78
579.571	48.95
579.91	49.15
580.25	49.37
580.589	49.52
580.928	49.78
581.267	49.92
581.606	49.99
581.945	50.04
582.283	50.13
582.622	50.29
582.961	50.48
583.3	50.6
583.639	50.73
583.977	50.87
584.316	51.03
584.654	51.15
584.993	51.35
585.332	51.43
585.67	51.53
586.008	51.65
586.347	51.79
586.685	51.91
587.024	51.93
587.362	52.09
587.7	52.2
588.038	52.35
588.376	52.44
588.715	52.56
589.053	52.75
589.391	52.89
589.729	52.96
590.067	53.13
590.404	53.28
590.742	53.38
591.08	53.55
591.418	53.65
591.756	53.72
592.093	53.81
592.431	53.92
592.769	54.03
593.106	54.15
593.444	54.19
593.781	54.31
594.119	54.41
594.456	54.52
594.793	54.64
595.131	54.69
595.468	54.83
595.805	54.9
596.143	54.91
596.48	54.95
596.817	55.02
597.154	55.07
597.491	55.13
597.828	55.17
598.165	55.22
598.502	55.3
598.839	55.4
599.176	55.4
599.512	55.45
599.849	55.6
600.186	55.56
600.523	55.69
600.859	55.75
601.196	55.87
601.532	55.88
601.869	55.93
602.205	56.01
602.542	56.17
602.878	56.25
603.215	56.34
603.551	56.39
603.887	56.45
604.223	56.49
604.56	56.51
604.896	56.65
605.232	56.7
605.568	56.78
605.904	56.82
606.24	57
606.576	57.08
606.912	57.12
607.248	57.24
607.583	57.3
607.919	57.45
608.255	57.48
608.591	57.55
608.926	57.56
609.262	57.58
609.597	57.53
609.933	57.62
610.268	57.72
610.604	57.82
610.939	57.95
611.275	58.02
611.61	58
611.945	58.08
612.281	58.18
612.616	58.19
612.951	58.23
613.286	58.21
613.621	58.21
613.956	58.25
614.291	58.39
614.626	58.38
614.961	58.31
615.296	58.4
615.631	58.45
615.966	58.59
616.3	58.73
616.635	58.78
616.97	58.88
617.304	58.9
617.639	58.99
617.973	58.98
618.308	59.03
618.642	59.23
618.977	59.1
619.311	59.08
619.646	59.04
619.98	59.16
620.314	59.23
620.648	59.28
620.983	59.3
621.317	59.25
621.651	59.3
621.985	59.31
622.319	59.33
622.653	59.34
622.987	59.3
623.321	59.3
623.655	59.37
623.988	59.34
624.322	59.4
624.656	59.39
624.99	59.46
625.323	59.46
625.657	59.53
625.99	59.7
626.324	59.74
626.657	59.8
626.991	59.78
627.324	59.69
627.658	59.73
627.991	59.77
628.324	59.85
628.657	59.87
628.991	59.95
629.324	59.94
629.657	60.04
629.99	60.09
630.323	60.02
630.656	60.02
630.989	59.98
631.322	59.95
631.655	59.95
631.987	59.96
632.32	60.08
632.653	60.05
632.986	60.01
633.318	60.05
633.651	60.16
633.984	60.09
634.316	60.18
634.649	60.3
634.981	60.3
635.313	60.28
635.646	60.29
635.978	60.26
636.31	60.36
636.643	60.32
636.975	60.34
637.307	60.52
637.639	60.51
637.971	60.65
638.303	60.68
638.635	60.65
638.967	60.78
639.299	60.76
639.631	60.76
639.963	60.68
640.295	60.64
640.626	60.51
640.958	60.65
641.29	60.78
641.621	60.63
641.953	60.68
642.285	60.74
642.616	60.81
642.948	60.87
643.279	60.82
643.61	60.78
643.942	60.88
644.273	60.85
644.604	61.08
644.936	61.12
645.267	61.07
645.598	61.2
645.929	61.04
646.26	61.02
646.591	61.08
646.922	61.22
647.253	61.17
647.584	61.31
647.915	61.37
648.245	61.31
648.576	61.32
648.907	61.3
649.238	61.42
649.568	61.35
649.899	61.3
650.229	61.34
650.56	61.52
650.89	61.45
651.221	61.37
651.551	61.28
651.882	61.14
652.212	61.17
652.542	61.23
652.872	61.31
653.203	61.3
653.533	61.22
653.863	61.2
654.193	61.31
654.523	61.34
654.853	61.39
655.183	61.52
655.513	61.6
655.843	61.66
656.172	61.64
656.502	61.82
656.832	61.89
657.162	61.94
657.491	61.93
657.821	62.05
658.15	62.14
658.48	62.11
658.809	62.27
659.139	62.34
659.468	62.18
659.798	62.19
660.127	62.28
660.456	62.33
660.785	62.32
661.115	62.47
661.444	62.62
661.773	62.68
662.102	62.51
662.431	62.57
662.76	62.66
663.089	62.66
663.418	62.67
663.747	62.76
664.076	62.8
664.404	62.95
664.733	62.86
665.062	62.89
665.39	62.96
665.719	62.99
666.048	63.02
666.376	63.14
666.705	63.2
667.033	63.22
667.362	63.22
667.69	63.35
668.018	63.28
668.347	63.04
668.675	62.99
669.003	63.13
669.331	63.26
669.659	63.32
669.987	63.27
670.315	63.29
670.643	63.23
670.971	63.24
671.299	63.13
671.627	63.16
671.955	63.29
672.283	63.26
672.61	63.14
672.938	63.17
673.266	63.13
673.593	63.06
673.921	62.97
674.249	63.15
674.576	62.91
674.904	62.82
675.231	63.03
675.558	63.2
675.886	63.09
676.213	63.02
676.54	62.89
676.867	63.05
677.195	63.03
677.522	63.08
677.849	63.07
678.176	63.03
678.503	63
678.83	62.95
679.157	62.88
679.484	62.89
679.81	63.03
680.137	63.05
680.464	63.17
680.791	63.28
681.117	63.3
681.444	63.56
681.771	63.53
682.097	63.58
682.424	63.39
682.75	63.49
683.077	63.49
683.403	63.55
683.729	63.41
684.056	63.3
684.382	63.4
684.708	63.42
685.034	63.61
685.36	63.58
685.686	63.67
686.012	63.79
686.339	63.84
686.664	63.65
686.99	63.69
687.316	63.72
687.642	63.59
687.968	63.41
688.294	63.41
688.619	63.52
688.945	63.41
689.271	63.54
689.596	63.39
689.922	63.28
690.247	63.25
690.573	63.29
690.898	63.46
691.224	63.36
691.549	63.42
691.874	63.18
692.2	63.48
692.525	63.36
692.85	63.4
693.175	63.47
693.5	63.53
693.825	63.59
694.15	63.53
694.475	63.74
694.8	63.97
695.125	63.84
695.45	63.94
695.775	63.95
696.099	64.14
696.424	64.45
696.749	64.42
697.073	64.49
697.398	64.55
697.723	64.64
698.047	64.57
698.372	64.61
698.696	64.74
699.02	64.59
699.345	64.48
699.669	64.45
699.993	64.47
700.318	64.5
700.642	64.45
700.966	64.54
701.29	64.4
701.614	64.19
701.938	64.36
702.262	64.31
702.586	64.44
702.91	64.46
703.234	64.14
703.557	64.22
703.881	64.14
704.205	64.16
704.529	63.97
704.852	64.17
705.176	64.01
705.499	63.92
705.823	63.95
706.146	64.2
706.47	64.29
706.793	64.28
707.117	64.49
707.44	64.45
707.763	64.44
708.086	64.69
708.409	64.78
708.733	64.77
709.056	64.94
709.379	64.67
709.702	64.28
710.025	64.58
710.348	64.51
710.671	64.44
710.993	64.36
711.316	64.49
711.639	64.5
711.962	64.81
712.284	64.86
712.607	64.87
712.93	64.71
713.252	64.77
713.575	64.64
713.897	64.43
714.22	64.68
714.542	64.55
714.864	64.49
715.187	64.6
715.509	64.42
715.831	64.32
716.153	64.36
716.475	64.47
716.798	64.58
717.12	64.71
717.442	64.81
717.764	64.92
718.085	64.83
718.407	64.89
718.729	64.71
719.051	64.78
719.373	64.8
719.695	64.92
720.016	65.01
720.338	65.46
720.659	65.66
720.981	65.63
721.302	65.38
721.624	65.36
721.945	65.23
722.267	65.51
722.588	65.37
722.909	65.48
723.231	65.82
723.552	65.71
723.873	65.72
724.194	65.76
724.515	65.87
724.836	65.8
725.157	65.77
725.478	65.86
725.799	65.76
726.12	65.8
726.441	65.9
726.762	65.82
727.083	65.51
727.403	65.62
727.724	65.59
728.045	65.93
728.365	66.23
728.686	66.45
729.006	66.35
729.327	66.64
729.647	66.63
729.967	66.17
730.288	66.08
730.608	66.14
730.928	66.09
731.249	65.89
731.569	66.23
731.889	66.24
732.209	66.35
732.529	66.34
732.849	66.5
733.169	66.27
733.489	66.14
733.809	66.18
734.129	66.15
734.448	66.1
734.768	66.35
735.088	66.2
735.408	66.06
735.727	66.08
736.047	65.78
736.366	65.91
736.686	66.25
737.005	66.51
737.325	66.77
737.644	67.11
737.963	67.13
738.283	66.82
738.602	66.71
738.921	66.7
739.24	66.9
739.56	66.87
739.879	66.94
740.198	67.29
740.517	67.33
740.836	67.2
741.155	67.37
741.473	66.99
741.792	67.05
742.111	66.97
742.43	67.02
742.748	67.33
743.067	67.06
743.386	66.8
743.704	66.41
744.023	66.01
744.341	65.99
744.66	66.08
744.978	66.09
745.297	66.24
745.615	65.82
745.933	65.78
746.252	65.75
746.57	65.67
746.888	65.34
747.206	65.63
747.524	65.75
747.842	65.57
748.16	65.62
748.478	65.26
748.796	65.42
749.114	65.62
749.432	65.53
749.749	65.97
750.067	66.36
750.385	66.67
750.703	66.67
751.02	66.63
751.338	66.62
751.655	66.54
751.973	66.44
752.29	66.78
752.608	66.49
752.925	66.42
753.242	66.76
753.56	66.77
753.877	66.22
754.194	65.75
754.511	65.72
754.828	65.99
755.145	66.12
755.462	65.89
755.779	65.47
756.096	65.58
756.413	65.64
756.73	65.43
757.047	64.78
757.364	65.02
757.68	64.93
757.997	65.06
758.314	65.62
758.63	65.96
758.947	66.03
759.264	66.32
759.58	66.39
759.896	66.46
760.213	66.62
760.529	66.83
760.846	67.44
761.162	67.77
761.478	67.73
761.794	67.72
762.11	68.1
762.426	68.05
762.743	67.92
763.059	67.97
763.375	68.05
763.69	68.66
764.006	68.28
764.322	68.27
764.638	68.57
764.954	68.34
765.27	68.45
765.585	68.42
765.901	68.37
766.216	68.36
766.532	68.43
766.848	68.26
767.163	68.38
767.478	68.23
767.794	67.87
768.109	67.62
768.424	67.79
768.74	67.62
769.055	68.09
769.37	68.27
769.685	68.21
770	68.28
770.315	67.8
770.63	68.52
770.945	68.11
771.26	67.87
771.575	67.85
771.89	67.67
772.205	67.23
772.52	67.23
772.834	66.9
773.149	66.99
773.464	67.29
773.778	67.25
774.093	67.23
774.407	67.33
774.722	68.11
775.036	68.38
775.351	68.36
775.665	67.91
775.979	67.75
776.293	67.33
776.608	67.42
776.922	67.74
777.236	67.52
777.55	67.77
777.864	67.75
778.178	67.65
778.492	67.34
778.806	67.62
779.12	67.62
779.434	67.92
779.747	67.69
780.061	67.42
780.375	67.38
780.689	67.68
781.002	68.12
781.316	67.92
781.629	67.28
781.943	67.42
782.256	67.48
782.57	67.27
782.883	67.21
783.196	66.78
783.51	66.79
783.823	66.23
784.136	66.2
784.449	66.32
784.762	66.47
785.075	66.53
785.388	67.25
785.701	67.4
786.014	67.21
786.327	67.37
786.64	67.98
786.953	68.49
787.266	67.75
787.578	67.19
787.891	66.65
788.204	66.74
788.516	66.88
788.829	66.89
789.141	67.57
789.454	67.88
789.766	68.37
790.079	68.36
790.391	68.86
790.703	69.46
791.016	69.14
791.328	69.41
791.64	69.28
791.952	68.44
792.264	68.18
792.576	69.04
792.888	69.19
793.2	68.7
793.512	67.94
793.824	68.15
794.136	68.79
794.448	69.23
794.76	69.22
795.071	68.95
795.383	69.41
795.695	68.92
796.006	68.92
796.318	68.82
796.629	69.6
796.941	69.35
797.252	69.14
797.564	69.44
797.875	69.72
798.186	69.71
798.497	69.83
798.809	70.44
799.12	69.66
799.431	69.36
799.742	69.58
800.053	69.8
800.364	70.18
800.675	70.57
800.986	70.25
801.297	70.62
801.608	70.11
801.918	69.71
802.229	69.86
802.54	69.61
802.851	69.51
803.161	68.78
803.472	68.98
803.782	68.96
804.093	69.39
804.403	68.67
804.714	69.05
805.024	69.06
805.334	68.77
805.645	68.69
805.955	68.44
806.265	67.64
806.575	67.63
806.885	67.8
807.195	67.81
807.505	67.7
807.815	67.45
808.125	68.37
808.435	67.79
808.745	67.49
809.055	67.56
809.365	67.16
809.674	67.15
809.984	67.14
810.294	67.91
810.603	67.43
810.913	66.64
811.222	66.67
811.532	66.78
811.841	66.4
812.151	66.84
812.46	67.21
812.769	67.75
813.079	67.45
813.388	67.75
813.697	67.54
814.006	67.57
814.315	68.07
814.624	67.57
814.933	68.52
815.242	68.36
815.551	68.37
815.86	68.26
816.169	68.03
816.478	68.33
816.786	68.03
817.095	68.4
817.404	69.36
817.712	69.05
818.021	68.99
818.33	69.31
818.638	69.34
818.947	69.33
819.255	69.24
819.563	69.5
819.872	69.23
820.18	69.33
820.488	69.3
820.796	69.23
821.105	69.49
821.413	69.47
821.721	69.47
822.029	69.37
822.337	69.42
822.645	69.5
822.953	69.64
823.26	69.29
823.568	69.25
823.876	69.07
824.184	69.3
824.491	69.39
824.799	69
825.107	68.98
825.414	69.12
825.722	69.19
826.029	69.36
826.337	69.47
826.644	69.34
826.951	69.67
827.259	69.48
827.566	69.15
827.873	69.21
828.18	69.57
828.488	69.88
828.795	69.9
829.102	69.67
829.409	69.51
829.716	69.62
830.023	69.83
830.329	70.12
830.636	69.63
830.943	69.5
831.25	70.52
831.557	70.68
831.863	70.17
832.17	70.37
832.476	70.08
832.783	70.07
833.089	69.22
833.396	68.88
833.702	69.44
834.009	69.65
834.315	69
834.621	68.6
834.928	68.22
835.234	68.43
835.54	69.38
835.846	69.24
836.152	69.41
836.458	68.61
836.764	68.77
837.07	69.03
837.376	69.28
837.682	69.08
837.988	69.1
838.293	69.93
838.599	69.98
838.905	70.23
839.211	70.96
839.516	71.66
839.822	71.45
840.127	71.87
840.433	71.79
840.738	72.01
841.044	72.09
841.349	72.93
841.654	72.3
841.959	71.61
842.265	72.06
842.57	72.65
842.875	73.21
843.18	74.77
843.485	73.79
843.79	72.84
844.095	72.36
844.4	72.38
844.705	71.25
845.01	71.8
845.315	71.57
845.619	68.77
845.924	70.81
846.229	71.2
846.533	68.26
846.838	69.28
847.142	72.11
847.447	74.75
847.751	75.6
848.056	78.34
848.36	79.67
848.664	80.97
848.969	81.32
849.273	81.55
849.577	79.34
849.881	80.05
850.185	83.08
850.489	83.04
850.794	82
851.097	84.02
851.401	79.55
851.705	83.18
852.009	82.76
852.313	80.07
852.617	80.8
852.92	83.85
853.224	86
853.528	85.73
853.831	82.29
854.135	78.77
854.438	76.72
854.742	75.36
855.045	74.12
855.349	73.62
855.652	73.83
855.955	73.82
856.259	72.1
856.562	71.42
856.865	71.56
857.168	69.15
857.471	67.47
857.774	71.82
858.077	66.99
858.38	67.65
858.683	69.14
858.986	66.46
859.289	66.22
859.592	63.21
859.894	60.75
860.197	62.5
860.5	65.04
860.802	66.17
861.105	64.36
861.407	63.95
861.71	64.99
862.012	65.94
862.315	65.26
862.617	69.68
862.919	67.52
863.222	67.97
863.524	70.31
863.826	69.43
864.128	69.1
864.43	74.09
864.732	71.44
865.034	71.78
865.336	77.18
865.638	79.96
865.94	81.06
866.242	79.37
866.544	80.34
866.846	80.88
867.147	79.88
867.449	82.45
867.751	80.76
868.052	79.71
868.354	79.5
868.655	83.11
868.957	79.08
869.258	79.72
869.56	80.18
869.861	83.78
870.162	86.85
870.463	84.13
870.765	77.24
871.066	83.53
871.367	84.82
871.668	81.05
871.969	78.44
872.27	81.43
872.571	83.87
872.872	79.23
873.173	78.33
873.473	80.04
873.774	80.15
874.075	84.84
874.376	85.17
874.676	85.04
874.977	83.55
875.277	86.8
875.578	86.66
875.878	87.72
876.179	85.42
876.479	83.91
876.78	87.83
877.08	93.03
877.38	91.03
877.68	90.46
877.981	93.14
878.281	93.71
878.581	89.25
