Data from MVZ_BU95633_Reflection_00011.txt Node
Date: Tue Nov 19 12:21:16 EST 2019
User: vgr7
Spectrometer: USB2G7710
Scans to average: 3
Trigger mode: 4
Integration Time (sec): 2.000000E-2
Electric dark correction enabled: true
Boxcar width: 10
XAxis mode: Wavelengths
Number of Pixels in Spectrum: 2048
>>>>>Begin Spectral Data<<<<<
177.721	69.22
178.105	32.37
178.488	123.72
178.871	453.33
179.254	-251.52
179.636	321.39
180.019	213.55
180.402	25
180.785	-103.51
181.168	17.25
181.55	-12.34
181.933	16.21
182.316	33.81
182.698	17.68
183.081	-9.01
183.463	70.53
183.846	34.64
184.228	16.39
184.611	-20.08
184.993	-63.44
185.376	-549.57
185.758	-820.63
186.14	423.81
186.522	402.41
186.904	329.89
187.287	1131.01
187.669	290.99
188.051	282.15
188.433	254.83
188.815	148.13
189.197	160.91
189.579	149.35
189.961	220.85
190.342	288.83
190.724	252.96
191.106	211.11
191.488	176.77
191.869	106.03
192.251	76.58
192.633	92.35
193.014	77.26
193.396	84.16
193.777	107.39
194.159	158.13
194.54	166.44
194.922	188.27
195.303	139.15
195.684	130.01
196.065	92.96
196.447	103.39
196.828	137.4
197.209	121.99
197.59	100.69
197.971	98.72
198.352	106.28
198.733	89.83
199.114	93.77
199.495	85.58
199.876	114.65
200.257	163.42
200.638	166.81
201.018	169.01
201.399	137.75
201.78	124.27
202.16	99.09
202.541	89.07
202.922	84.51
203.302	109.33
203.683	97.53
204.063	105.9
204.444	97.34
204.824	90.11
205.204	72.19
205.585	57.88
205.965	48.2
206.345	36.16
206.725	46.25
207.106	49.98
207.486	59.08
207.866	42.31
208.246	42.24
208.626	31.51
209.006	33.78
209.386	31.32
209.766	30.09
210.145	29.79
210.525	23.28
210.905	22.54
211.285	16.91
211.664	25.63
212.044	34.9
212.424	38.44
212.803	29.86
213.183	37.65
213.562	45.52
213.942	46.75
214.321	46.89
214.701	53.27
215.08	52.17
215.459	53.05
215.838	49.83
216.218	38.48
216.597	46.2
216.976	36.36
217.355	42.75
217.734	46.71
218.113	59.06
218.492	72.37
218.871	72.61
219.25	67.76
219.629	88.73
220.008	74.4
220.387	64.86
220.766	68.03
221.144	65.29
221.523	68.42
221.902	58.04
222.28	61.27
222.659	53.77
223.037	46.33
223.416	48.69
223.794	50.48
224.173	60.34
224.551	58.95
224.929	48.57
225.308	38.73
225.686	37.44
226.064	30.33
226.442	29.49
226.821	36.09
227.199	35.44
227.577	27
227.955	26.86
228.333	22.79
228.711	23.12
229.089	22.31
229.467	22.26
229.845	23.09
230.222	21.59
230.6	21.59
230.978	22.01
231.356	18.7
231.733	19.31
232.111	13.31
232.488	12.47
232.866	12.19
233.243	13.3
233.621	14.81
233.998	14.89
234.376	14.88
234.753	11.25
235.13	9.56
235.508	11.7
235.885	10.94
236.262	10.43
236.639	10.76
237.016	10.22
237.393	9.11
237.77	9.32
238.147	8.64
238.524	8.43
238.901	7.46
239.278	7.24
239.655	6.89
240.032	8.07
240.409	7.19
240.785	7.3
241.162	6.62
241.539	5.53
241.915	5.28
242.292	5
242.668	5.23
243.045	5.12
243.421	4.77
243.798	4.76
244.174	4.78
244.551	4.39
244.927	4.35
245.303	4.15
245.679	3.81
246.056	3.8
246.432	3.64
246.808	3.92
247.184	4.06
247.56	3.95
247.936	3.9
248.312	4.23
248.688	4.46
249.064	4.68
249.44	4.78
249.815	4.89
250.191	4.84
250.567	4.79
250.943	5.09
251.318	5.13
251.694	5.19
252.069	5.28
252.445	5.65
252.82	5.9
253.196	6.4
253.571	6.6
253.947	6.53
254.322	6.34
254.697	6.19
255.073	6.31
255.448	6.46
255.823	6.27
256.198	5.67
256.573	5.52
256.948	5.42
257.323	5.4
257.698	5.35
258.073	5.09
258.448	4.94
258.823	4.85
259.198	4.9
259.573	4.72
259.948	4.75
260.322	4.63
260.697	4.64
261.072	4.54
261.446	4.62
261.821	4.67
262.195	4.82
262.57	4.89
262.944	4.83
263.319	4.69
263.693	4.55
264.067	4.74
264.442	4.6
264.816	4.47
265.19	4.47
265.564	4.43
265.938	4.63
266.313	4.6
266.687	4.85
267.061	4.77
267.435	4.83
267.809	4.58
268.183	4.55
268.556	4.53
268.93	4.48
269.304	4.45
269.678	4.46
270.051	4.5
270.425	4.58
270.799	4.21
271.172	4.36
271.546	4.52
271.919	4.53
272.293	4.61
272.666	4.76
273.04	4.77
273.413	4.83
273.787	4.65
274.16	4.52
274.533	4.42
274.906	4.33
275.279	4.28
275.653	4.41
276.026	4.44
276.399	4.54
276.772	4.6
277.145	4.67
277.518	4.55
277.891	4.49
278.263	4.43
278.636	4.68
279.009	4.78
279.382	4.65
279.755	4.47
280.127	4.24
280.5	4.13
280.872	4.28
281.245	4.16
281.617	4.39
281.99	4.72
282.362	4.52
282.735	4.48
283.107	4.49
283.479	4.48
283.852	4.34
284.224	4.29
284.596	4.17
284.968	3.97
285.34	4.05
285.713	4.07
286.085	3.93
286.457	4.06
286.829	3.84
287.201	3.87
287.572	4.05
287.944	4.27
288.316	4.25
288.688	4.2
289.06	4.16
289.431	4.25
289.803	4.21
290.175	4.09
290.546	4.25
290.918	4.27
291.289	4.23
291.661	4.38
292.032	4.23
292.403	4.28
292.775	4.56
293.146	4.71
293.517	4.78
293.889	4.9
294.26	4.73
294.631	4.85
295.002	4.84
295.373	4.82
295.744	4.76
296.115	4.88
296.486	4.89
296.857	5.01
297.228	4.95
297.599	4.75
297.97	4.94
298.34	4.94
298.711	5.03
299.082	5.11
299.452	5.01
299.823	5.07
300.194	5
300.564	4.87
300.935	4.76
301.305	4.66
301.676	4.64
302.046	4.72
302.416	4.61
302.787	4.62
303.157	4.52
303.527	4.55
303.897	4.48
304.267	4.37
304.637	4.51
305.008	4.38
305.378	4.55
305.748	4.47
306.117	4.28
306.487	4.2
306.857	4.24
307.227	4.44
307.597	4.44
307.967	4.69
308.336	4.72
308.706	4.75
309.076	4.84
309.445	4.99
309.815	4.91
310.184	5
310.554	5.07
310.923	5.13
311.293	5.01
311.662	5.15
312.031	5.15
312.401	4.98
312.77	5.06
313.139	5.22
313.508	5.25
313.877	5.41
314.246	5.46
314.616	5.55
314.985	5.52
315.353	5.47
315.722	5.39
316.091	5.49
316.46	5.42
316.829	5.48
317.198	5.31
317.567	5.67
317.935	5.71
318.304	5.83
318.672	5.88
319.041	6.23
319.41	6.05
319.778	6.16
320.147	6.13
320.515	6.25
320.883	6.16
321.252	6.31
321.62	6.3
321.988	6.39
322.357	6.18
322.725	6.18
323.093	6.34
323.461	6.5
323.829	6.28
324.197	6.41
324.565	6.56
324.933	6.54
325.301	6.24
325.669	6.29
326.037	6.21
326.405	6.31
326.772	6.23
327.14	6.35
327.508	6.41
327.875	6.57
328.243	6.44
328.61	6.42
328.978	6.42
329.346	6.51
329.713	6.47
330.08	6.68
330.448	6.73
330.815	6.7
331.182	6.51
331.55	6.76
331.917	6.79
332.284	6.59
332.651	6.54
333.018	6.71
333.385	6.8
333.752	6.74
334.119	6.6
334.486	6.72
334.853	6.67
335.22	6.67
335.587	6.65
335.954	6.52
336.32	6.55
336.687	6.55
337.054	6.56
337.42	6.56
337.787	6.49
338.153	6.44
338.52	6.43
338.886	6.47
339.253	6.39
339.619	6.38
339.986	6.35
340.352	6.48
340.718	6.52
341.084	6.44
341.451	6.49
341.817	6.7
342.183	6.5
342.549	6.63
342.915	6.53
343.281	6.48
343.647	6.72
344.013	6.72
344.379	6.54
344.745	6.49
345.11	6.52
345.476	6.6
345.842	6.59
346.208	6.57
346.573	6.59
346.939	6.52
347.304	6.5
347.67	6.49
348.035	6.47
348.401	6.44
348.766	6.42
349.132	6.35
349.497	6.21
349.862	6.24
350.228	6.17
350.593	6.19
350.958	6.23
351.323	6.12
351.688	6.15
352.053	6.27
352.418	6.34
352.783	6.23
353.148	6.17
353.513	6.3
353.878	6.41
354.243	6.32
354.608	6.4
354.972	6.5
355.337	6.57
355.702	6.52
356.066	6.52
356.431	6.48
356.795	6.61
357.16	6.7
357.524	6.8
357.889	6.78
358.253	6.77
358.618	6.72
358.982	6.78
359.346	6.73
359.71	6.68
360.075	6.63
360.439	6.69
360.803	6.69
361.167	6.57
361.531	6.57
361.895	6.61
362.259	6.57
362.623	6.49
362.987	6.43
363.351	6.43
363.714	6.41
364.078	6.47
364.442	6.35
364.806	6.31
365.169	6.21
365.533	6.16
365.896	6.21
366.26	6.15
366.623	6.12
366.987	6.25
367.35	6.35
367.714	6.32
368.077	6.34
368.44	6.35
368.803	6.33
369.167	6.24
369.53	6.23
369.893	6.25
370.256	6.19
370.619	6.16
370.982	6.09
371.345	6.09
371.708	5.98
372.071	6.02
372.434	6
372.797	5.96
373.159	5.96
373.522	5.89
373.885	5.95
374.247	5.94
374.61	5.83
374.973	5.74
375.335	5.7
375.698	5.55
376.06	5.53
376.423	5.53
376.785	5.63
377.147	5.57
377.51	5.51
377.872	5.49
378.234	5.52
378.596	5.55
378.958	5.49
379.321	5.51
379.683	5.48
380.045	5.39
380.407	5.37
380.769	5.31
381.13	5.21
381.492	5.12
381.854	5.09
382.216	5.06
382.578	5.03
382.939	5.02
383.301	4.99
383.663	4.9
384.024	4.9
384.386	4.8
384.747	4.76
385.109	4.73
385.47	4.8
385.832	4.68
386.193	4.63
386.554	4.51
386.916	4.48
387.277	4.43
387.638	4.42
387.999	4.39
388.36	4.38
388.721	4.36
389.082	4.37
389.443	4.29
389.804	4.21
390.165	4.22
390.526	4.2
390.887	4.22
391.248	4.18
391.609	4.12
391.969	4.09
392.33	4.03
392.691	4.03
393.051	3.94
393.412	4.01
393.772	3.99
394.133	4.06
394.493	4.01
394.854	4.03
395.214	4.04
395.574	4
395.935	3.98
396.295	4.02
396.655	4
397.015	4
397.376	3.99
397.736	3.97
398.096	3.94
398.456	3.94
398.816	3.97
399.176	3.97
399.535	3.94
399.895	3.96
400.255	3.92
400.615	3.89
400.975	3.85
401.334	3.83
401.694	3.78
402.054	3.78
402.413	3.71
402.773	3.67
403.132	3.66
403.492	3.68
403.851	3.68
404.211	3.66
404.57	3.67
404.929	3.64
405.288	3.62
405.648	3.59
406.007	3.54
406.366	3.51
406.725	3.48
407.084	3.47
407.443	3.5
407.802	3.51
408.161	3.54
408.52	3.52
408.879	3.53
409.238	3.55
409.596	3.54
409.955	3.55
410.314	3.59
410.673	3.57
411.031	3.55
411.39	3.54
411.748	3.52
412.107	3.47
412.465	3.5
412.824	3.51
413.182	3.52
413.54	3.53
413.899	3.52
414.257	3.53
414.615	3.52
414.974	3.47
415.332	3.48
415.69	3.45
416.048	3.43
416.406	3.4
416.764	3.39
417.122	3.37
417.48	3.37
417.838	3.33
418.195	3.32
418.553	3.31
418.911	3.28
419.269	3.26
419.626	3.26
419.984	3.24
420.342	3.21
420.699	3.2
421.057	3.21
421.414	3.24
421.772	3.23
422.129	3.22
422.486	3.22
422.844	3.21
423.201	3.2
423.558	3.21
423.915	3.2
424.273	3.2
424.63	3.23
424.987	3.23
425.344	3.23
425.701	3.23
426.058	3.22
426.415	3.23
426.772	3.24
427.128	3.26
427.485	3.29
427.842	3.27
428.199	3.26
428.555	3.24
428.912	3.2
429.269	3.17
429.625	3.2
429.982	3.2
430.338	3.21
430.695	3.2
431.051	3.2
431.407	3.21
431.764	3.2
432.12	3.17
432.476	3.16
432.832	3.16
433.189	3.14
433.545	3.16
433.901	3.16
434.257	3.15
434.613	3.14
434.969	3.1
435.325	3.14
435.681	3.15
436.036	3.17
436.392	3.16
436.748	3.2
437.104	3.19
437.459	3.18
437.815	3.17
438.171	3.17
438.526	3.17
438.882	3.17
439.237	3.17
439.593	3.16
439.948	3.17
440.304	3.17
440.659	3.19
441.014	3.18
441.369	3.17
441.725	3.17
442.08	3.16
442.435	3.18
442.79	3.15
443.145	3.16
443.5	3.15
443.855	3.15
444.21	3.17
444.565	3.17
444.92	3.17
445.275	3.16
445.629	3.15
445.984	3.15
446.339	3.16
446.693	3.14
447.048	3.13
447.403	3.12
447.757	3.11
448.112	3.1
448.466	3.1
448.82	3.1
449.175	3.1
449.529	3.11
449.883	3.12
450.238	3.13
450.592	3.11
450.946	3.12
451.3	3.11
451.654	3.08
452.008	3.07
452.362	3.08
452.716	3.08
453.07	3.07
453.424	3.08
453.778	3.08
454.132	3.08
454.486	3.1
454.839	3.1
455.193	3.1
455.547	3.11
455.9	3.12
456.254	3.13
456.607	3.13
456.961	3.12
457.314	3.12
457.668	3.11
458.021	3.12
458.375	3.11
458.728	3.11
459.081	3.1
459.434	3.11
459.787	3.1
460.141	3.11
460.494	3.1
460.847	3.09
461.2	3.08
461.553	3.09
461.906	3.09
462.259	3.11
462.611	3.13
462.964	3.14
463.317	3.12
463.67	3.13
464.022	3.14
464.375	3.15
464.728	3.14
465.08	3.15
465.433	3.15
465.785	3.15
466.138	3.17
466.49	3.21
466.843	3.25
467.195	3.26
467.547	3.27
467.899	3.29
468.252	3.33
468.604	3.36
468.956	3.37
469.308	3.38
469.66	3.4
470.012	3.41
470.364	3.39
470.716	3.4
471.068	3.42
471.42	3.44
471.772	3.45
472.123	3.46
472.475	3.49
472.827	3.5
473.178	3.48
473.53	3.49
473.882	3.47
474.233	3.44
474.585	3.44
474.936	3.45
475.288	3.44
475.639	3.43
475.99	3.4
476.342	3.41
476.693	3.4
477.044	3.38
477.395	3.37
477.746	3.37
478.097	3.39
478.448	3.35
478.8	3.33
479.15	3.32
479.501	3.3
479.852	3.28
480.203	3.28
480.554	3.31
480.905	3.29
481.255	3.29
481.606	3.3
481.957	3.3
482.307	3.29
482.658	3.28
483.009	3.29
483.359	3.28
483.709	3.29
484.06	3.3
484.41	3.31
484.761	3.31
485.111	3.31
485.461	3.31
485.811	3.32
486.162	3.32
486.512	3.32
486.862	3.33
487.212	3.33
487.562	3.34
487.912	3.33
488.262	3.34
488.612	3.34
488.961	3.35
489.311	3.35
489.661	3.35
490.011	3.35
490.36	3.36
490.71	3.37
491.06	3.35
491.409	3.35
491.759	3.34
492.108	3.35
492.458	3.36
492.807	3.36
493.157	3.39
493.506	3.4
493.855	3.41
494.204	3.42
494.554	3.42
494.903	3.43
495.252	3.47
495.601	3.48
495.95	3.51
496.299	3.5
496.648	3.54
496.997	3.59
497.346	3.63
497.695	3.64
498.043	3.68
498.392	3.73
498.741	3.77
499.09	3.8
499.438	3.84
499.787	3.87
500.135	3.92
500.484	3.92
500.832	3.95
501.181	4.02
501.529	4.08
501.878	4.13
502.226	4.19
502.574	4.24
502.923	4.29
503.271	4.33
503.619	4.42
503.967	4.47
504.315	4.53
504.663	4.61
505.011	4.73
505.359	4.81
505.707	4.9
506.055	5
506.403	5.11
506.751	5.17
507.098	5.3
507.446	5.41
507.794	5.56
508.141	5.68
508.489	5.78
508.837	5.91
509.184	6.05
509.531	6.17
509.879	6.28
510.226	6.43
510.574	6.61
510.921	6.76
511.268	6.93
511.616	7.11
511.963	7.29
512.31	7.49
512.657	7.68
513.004	7.85
513.351	8.04
513.698	8.26
514.045	8.52
514.392	8.75
514.739	8.96
515.086	9.19
515.432	9.44
515.779	9.68
516.126	9.92
516.473	10.15
516.819	10.38
517.166	10.62
517.512	10.85
517.859	11.05
518.205	11.25
518.552	11.44
518.898	11.62
519.245	11.81
519.591	11.99
519.937	12.2
520.283	12.45
520.629	12.68
520.976	12.93
521.322	13.18
521.668	13.44
522.014	13.7
522.36	13.97
522.706	14.25
523.052	14.55
523.398	14.89
523.743	15.22
524.089	15.53
524.435	15.82
524.781	16.09
525.126	16.36
525.472	16.65
525.817	16.84
526.163	17.04
526.509	17.22
526.854	17.42
527.199	17.6
527.545	17.76
527.89	17.94
528.235	18.11
528.581	18.3
528.926	18.47
529.271	18.65
529.616	18.84
529.961	19.03
530.306	19.21
530.651	19.38
530.996	19.56
531.341	19.78
531.686	19.99
532.031	20.2
532.376	20.4
532.721	20.6
533.065	20.85
533.41	21.11
533.755	21.36
534.099	21.6
534.444	21.83
534.788	22.07
535.133	22.29
535.477	22.51
535.822	22.72
536.166	22.93
536.51	23.19
536.855	23.42
537.199	23.64
537.543	23.92
537.887	24.19
538.231	24.46
538.576	24.72
538.92	24.99
539.264	25.27
539.608	25.52
539.951	25.73
540.295	25.96
540.639	26.15
540.983	26.33
541.327	26.5
541.671	26.72
542.014	26.9
542.358	27.08
542.701	27.26
543.045	27.47
543.389	27.68
543.732	27.87
544.075	28.09
544.419	28.3
544.762	28.48
545.105	28.68
545.449	28.89
545.792	29.1
546.135	29.31
546.478	29.51
546.821	29.73
547.165	29.92
547.508	30.15
547.851	30.36
548.194	30.61
548.536	30.82
548.879	31.01
549.222	31.27
549.565	31.44
549.908	31.63
550.25	31.85
550.593	32.03
550.936	32.15
551.278	32.28
551.621	32.48
551.963	32.69
552.306	32.9
552.648	33.05
552.991	33.24
553.333	33.36
553.675	33.53
554.017	33.72
554.36	33.91
554.702	34.08
555.044	34.27
555.386	34.45
555.728	34.65
556.07	34.76
556.412	34.89
556.754	35.1
557.096	35.28
557.438	35.37
557.78	35.57
558.121	35.82
558.463	36.05
558.805	36.19
559.147	36.37
559.488	36.51
559.83	36.65
560.171	36.82
560.513	37.05
560.854	37.18
561.196	37.32
561.537	37.46
561.878	37.62
562.22	37.79
562.561	37.93
562.902	38.06
563.243	38.18
563.584	38.34
563.925	38.49
564.266	38.63
564.607	38.75
564.948	38.79
565.289	38.85
565.63	39.03
565.971	39.18
566.312	39.34
566.653	39.45
566.993	39.57
567.334	39.7
567.675	39.79
568.015	39.86
568.356	40.01
568.696	40.15
569.037	40.24
569.377	40.32
569.718	40.37
570.058	40.49
570.398	40.62
570.739	40.62
571.079	40.7
571.419	40.76
571.759	40.87
572.099	41.03
572.439	41.12
572.779	41.14
573.119	41.22
573.459	41.24
573.799	41.29
574.139	41.33
574.479	41.38
574.819	41.45
575.158	41.53
575.498	41.57
575.838	41.56
576.177	41.63
576.517	41.66
576.856	41.72
577.196	41.79
577.535	41.83
577.875	41.95
578.214	42.01
578.553	42.13
578.893	42.22
579.232	42.28
579.571	42.36
579.91	42.39
580.25	42.41
580.589	42.53
580.928	42.65
581.267	42.78
581.606	42.89
581.945	43
582.283	43.13
582.622	43.25
582.961	43.39
583.3	43.5
583.639	43.55
583.977	43.71
584.316	43.75
584.654	43.89
584.993	43.98
585.332	44.04
585.67	44.06
586.008	44.04
586.347	44.06
586.685	44.13
587.024	44.27
587.362	44.31
587.7	44.41
588.038	44.43
588.376	44.49
588.715	44.56
589.053	44.59
589.391	44.68
589.729	44.75
590.067	44.76
590.404	44.78
590.742	44.85
591.08	44.89
591.418	45.02
591.756	45.1
592.093	45.11
592.431	45.19
592.769	45.3
593.106	45.43
593.444	45.5
593.781	45.57
594.119	45.58
594.456	45.63
594.793	45.59
595.131	45.63
595.468	45.66
595.805	45.67
596.143	45.75
596.48	45.78
596.817	45.76
597.154	45.8
597.491	45.87
597.828	45.95
598.165	45.95
598.502	45.96
598.839	45.99
599.176	46.16
599.512	46.2
599.849	46.28
600.186	46.3
600.523	46.4
600.859	46.46
601.196	46.51
601.532	46.64
601.869	46.81
602.205	46.9
602.542	47.03
602.878	47.08
603.215	47.1
603.551	47.16
603.887	47.2
604.223	47.28
604.56	47.31
604.896	47.31
605.232	47.34
605.568	47.4
605.904	47.47
606.24	47.41
606.576	47.44
606.912	47.49
607.248	47.53
607.583	47.53
607.919	47.56
608.255	47.62
608.591	47.66
608.926	47.6
609.262	47.61
609.597	47.6
609.933	47.64
610.268	47.7
610.604	47.74
610.939	47.8
611.275	47.85
611.61	47.89
611.945	47.99
612.281	48.02
612.616	47.93
612.951	47.89
613.286	48
613.621	48.05
613.956	48.05
614.291	48.02
614.626	48.13
614.961	48.11
615.296	48.15
615.631	48.22
615.966	48.26
616.3	48.35
616.635	48.42
616.97	48.43
617.304	48.51
617.639	48.47
617.973	48.49
618.308	48.49
618.642	48.53
618.977	48.5
619.311	48.54
619.646	48.53
619.98	48.63
620.314	48.61
620.648	48.69
620.983	48.79
621.317	48.97
621.651	48.9
621.985	48.95
622.319	48.98
622.653	48.98
622.987	49.07
623.321	49.03
623.655	49.02
623.988	49.01
624.322	48.93
624.656	48.96
624.99	49.03
625.323	48.94
625.657	49
625.99	49.04
626.324	49.07
626.657	49.29
626.991	49.29
627.324	49.26
627.658	49.24
627.991	49.2
628.324	49.15
628.657	49.21
628.991	49.3
629.324	49.36
629.657	49.35
629.99	49.3
630.323	49.38
630.656	49.39
630.989	49.43
631.322	49.51
631.655	49.53
631.987	49.51
632.32	49.62
632.653	49.62
632.986	49.58
633.318	49.62
633.651	49.62
633.984	49.63
634.316	49.74
634.649	49.75
634.981	49.77
635.313	49.82
635.646	49.9
635.978	49.82
636.31	49.76
636.643	49.8
636.975	49.82
637.307	49.85
637.639	49.79
637.971	49.68
638.303	49.75
638.635	49.81
638.967	49.82
639.299	49.81
639.631	49.81
639.963	49.87
640.295	49.83
640.626	49.72
640.958	49.69
641.29	49.73
641.621	49.74
641.953	49.67
642.285	49.68
642.616	49.71
642.948	49.81
643.279	49.97
643.61	50.01
643.942	50.06
644.273	49.98
644.604	50.01
644.936	50.2
645.267	50.1
645.598	50.15
645.929	50.14
646.26	50.26
646.591	50.3
646.922	50.38
647.253	50.43
647.584	50.51
647.915	50.54
648.245	50.5
648.576	50.48
648.907	50.5
649.238	50.48
649.568	50.47
649.899	50.5
650.229	50.54
650.56	50.56
650.89	50.51
651.221	50.64
651.551	50.65
651.882	50.75
652.212	50.7
652.542	50.74
652.872	50.68
653.203	50.58
653.533	50.66
653.863	50.57
654.193	50.56
654.523	50.56
654.853	50.56
655.183	50.67
655.513	50.8
655.843	50.88
656.172	51
656.502	51.07
656.832	51.05
657.162	50.93
657.491	50.92
657.821	51
658.15	50.95
658.48	51.14
658.809	50.97
659.139	51.12
659.468	51.05
659.798	51.12
660.127	51.24
660.456	51.17
660.785	51.35
661.115	51.38
661.444	51.52
661.773	51.54
662.102	51.51
662.431	51.62
662.76	51.65
663.089	51.56
663.418	51.57
663.747	51.54
664.076	51.5
664.404	51.53
664.733	51.64
665.062	51.64
665.39	51.61
665.719	51.81
666.048	51.83
666.376	51.68
666.705	51.8
667.033	51.85
667.362	51.75
667.69	51.54
668.018	51.61
668.347	51.5
668.675	51.57
669.003	51.44
669.331	51.35
669.659	51.39
669.987	51.45
670.315	51.39
670.643	51.44
670.971	51.59
671.299	51.55
671.627	51.57
671.955	51.61
672.283	51.53
672.61	51.48
672.938	51.52
673.266	51.81
673.593	51.75
673.921	51.63
674.249	51.74
674.576	52.03
674.904	52.03
675.231	52.05
675.558	52.1
675.886	52.18
676.213	52.28
676.54	52.13
676.867	52.19
677.195	52.14
677.522	52.16
677.849	52.12
678.176	52.26
678.503	52.17
678.83	52.25
679.157	52.28
679.484	52.29
679.81	52.37
680.137	52.33
680.464	52.31
680.791	52.37
681.117	52.36
681.444	52.28
681.771	52.23
682.097	52.29
682.424	52.22
682.75	52.29
683.077	52.19
683.403	52.34
683.729	52.37
684.056	52.52
684.382	52.49
684.708	52.44
685.034	52.38
685.36	52.45
685.686	52.45
686.012	52.5
686.339	52.54
686.664	52.5
686.99	52.45
687.316	52.58
687.642	52.62
687.968	52.79
688.294	52.9
688.619	52.9
688.945	52.89
689.271	52.97
689.596	53.13
689.922	53.29
690.247	53.36
690.573	53.2
690.898	53.21
691.224	53.32
691.549	53.32
691.874	53.39
692.2	53.3
692.525	53.24
692.85	53.3
693.175	53.34
693.5	53.21
693.825	53.21
694.15	53.18
694.475	53.04
694.8	53.01
695.125	52.97
695.45	52.99
695.775	53.05
696.099	53.11
696.424	52.89
696.749	52.77
697.073	52.68
697.398	52.78
697.723	52.69
698.047	52.63
698.372	52.87
698.696	52.82
699.02	52.89
699.345	52.81
699.669	52.81
699.993	52.76
700.318	52.96
700.642	53.01
700.966	53.07
701.29	53.13
701.614	53.13
701.938	53.12
702.262	53.15
702.586	53.08
702.91	53.15
703.234	53.29
703.557	53.35
703.881	53.34
704.205	53.5
704.529	53.73
704.852	53.71
705.176	53.47
705.499	53.34
705.823	53.26
706.146	53.43
706.47	53.33
706.793	53.34
707.117	53.13
707.44	53.08
707.763	53.08
708.086	53.32
708.409	53.18
708.733	52.84
709.056	52.93
709.379	53.08
709.702	53
710.025	53.04
710.348	53.04
710.671	53.06
710.993	52.72
711.316	52.57
711.639	52.79
711.962	52.63
712.284	52.73
712.607	52.83
712.93	52.83
713.252	52.95
713.575	52.96
713.897	53.02
714.22	53.07
714.542	53.1
714.864	52.94
715.187	52.91
715.509	53.1
715.831	53.1
716.153	52.88
716.475	52.83
716.798	52.77
717.12	52.92
717.442	52.89
717.764	53.12
718.085	53.33
718.407	53.25
718.729	53.5
719.051	53.57
719.373	53.39
719.695	53.52
720.016	53.47
720.338	53.39
720.659	53.35
720.981	53.16
721.302	53.17
721.624	53.28
721.945	53.23
722.267	53.26
722.588	53.27
722.909	53.42
723.231	53.33
723.552	53.58
723.873	53.4
724.194	53.61
724.515	53.57
724.836	53.37
725.157	53.35
725.478	53.26
725.799	53.14
726.12	53.33
726.441	53.29
726.762	53.14
727.083	53.25
727.403	53.3
727.724	53.52
728.045	53.51
728.365	53.56
728.686	53.82
729.006	53.83
729.327	53.84
729.647	53.91
729.967	54.24
730.288	53.81
730.608	53.95
730.928	53.84
731.249	53.92
731.569	54.16
731.889	54.34
732.209	54.55
732.529	54.65
732.849	54.64
733.169	54.76
733.489	54.82
733.809	54.97
734.129	54.88
734.448	55.08
734.768	55.19
735.088	55.17
735.408	55.02
735.727	55.27
736.047	55.4
736.366	55.19
736.686	54.89
737.005	55.2
737.325	54.86
737.644	54.83
737.963	54.78
738.283	54.53
738.602	54.38
738.921	54.47
739.24	54.28
739.56	54.48
739.879	54.27
740.198	54.28
740.517	54.29
740.836	54.56
741.155	54.58
741.473	54.3
741.792	54.53
742.111	54.7
742.43	54.57
742.748	54.54
743.067	54.73
743.386	54.92
743.704	54.77
744.023	55.2
744.341	55.32
744.66	55.15
744.978	55.43
745.297	55.54
745.615	55.32
745.933	55.8
746.252	55.78
746.57	55.76
746.888	55.67
747.206	55.86
747.524	55.69
747.842	55.35
748.16	55.42
748.478	55.18
748.796	55.23
749.114	55.24
749.432	55.25
749.749	55.24
750.067	55.44
750.385	55.73
750.703	55.52
751.02	55.65
751.338	55.84
751.655	55.67
751.973	55.4
752.29	55.45
752.608	55.13
752.925	55.08
753.242	55.56
753.56	55.56
753.877	54.99
754.194	55.08
754.511	55.13
754.828	55.11
755.145	55.12
755.462	55.29
755.779	55.31
756.096	55
756.413	54.97
756.73	54.84
757.047	54.94
757.364	55.46
757.68	55.64
757.997	55.97
758.314	56.24
758.63	56.8
758.947	56.82
759.264	56.69
759.58	57.17
759.896	56.52
760.213	56.61
760.529	56.85
760.846	56.82
761.162	57.05
761.478	57
761.794	56.91
762.11	56.99
762.426	57.11
762.743	57.27
763.059	57.53
763.375	57.37
763.69	57.33
764.006	56.96
764.322	56.87
764.638	56.68
764.954	56.55
765.27	56.27
765.585	56.32
765.901	56.54
766.216	56.22
766.532	56.58
766.848	56.74
767.163	56.82
767.478	57.12
767.794	57.12
768.109	57.08
768.424	57
768.74	56.69
769.055	56.61
769.37	56.63
769.685	56.33
770	56.47
770.315	56.56
770.63	56.37
770.945	56.32
771.26	56.69
771.575	56.44
771.89	56.5
772.205	56.29
772.52	56.24
772.834	56.04
773.149	55.37
773.464	55.3
773.778	54.98
774.093	55.01
774.407	54.94
774.722	55.04
775.036	55.32
775.351	55.5
775.665	55.32
775.979	55.38
776.293	55.47
776.608	54.77
776.922	54.6
777.236	55.17
777.55	54.86
777.864	54.21
778.178	54.54
778.492	54.61
778.806	54.7
779.12	54.82
779.434	55.21
779.747	55.71
780.061	55.54
780.375	55.49
780.689	54.91
781.002	55.05
781.316	54.71
781.629	54.74
781.943	54.74
782.256	54.96
782.57	55.44
782.883	55.48
783.196	56.5
783.51	56.41
783.823	55.79
784.136	56.21
784.449	56.48
784.762	56.08
785.075	56.3
785.388	56.56
785.701	56.08
786.014	55.91
786.327	55.87
786.64	56.32
786.953	56.62
787.266	57.08
787.578	56.81
787.891	57.22
788.204	57.44
788.516	57.4
788.829	57.39
789.141	57.56
789.454	56.87
789.766	56.69
790.079	57.08
790.391	57.87
790.703	57.7
791.016	57.73
791.328	58.01
791.64	57.96
791.952	57.95
792.264	58.17
792.576	57.91
792.888	58.88
793.2	58.73
793.512	58.76
793.824	58.46
794.136	58.32
794.448	58.51
794.76	58.23
795.071	58.61
795.383	58.35
795.695	57.91
796.006	58.55
796.318	58.58
796.629	57.72
796.941	57.45
797.252	57.02
797.564	57.04
797.875	56.98
798.186	56.68
798.497	56.61
798.809	56.61
799.12	56.6
799.431	55.77
799.742	55.73
800.053	55.77
800.364	55.88
800.675	56.06
800.986	56.27
801.297	56.51
801.608	55.75
801.918	56.67
802.229	56.55
802.54	56.79
802.851	57.14
803.161	57.53
803.472	57.37
803.782	57.61
804.093	57.34
804.403	57.05
804.714	56.95
805.024	57.16
805.334	57.32
805.645	58.24
805.955	58.93
806.265	59.29
806.575	59.58
806.885	58.68
807.195	58.32
807.505	58
807.815	57.14
808.125	58.16
808.435	57.74
808.745	57.43
809.055	57.32
809.365	57.19
809.674	57.63
809.984	57.99
810.294	58.64
810.603	59.01
810.913	59.23
811.222	58.93
811.532	58.84
811.841	59.53
812.151	58.15
812.46	58
812.769	58.07
813.079	58.36
813.388	59.08
813.697	59.46
814.006	59.46
814.315	60
814.624	58.93
814.933	58.7
815.242	59.22
815.551	59.84
815.86	58.46
816.169	57.63
816.478	57.23
816.786	56.9
817.095	56.83
817.404	56.69
817.712	56.77
818.021	57.37
818.33	56.52
818.638	56.36
818.947	56.05
819.255	55.5
819.563	55.21
819.872	55.77
820.18	56.45
820.488	56.4
820.796	56.48
821.105	56.66
821.413	56.39
821.721	56.39
822.029	56.06
822.337	56.44
822.645	56.63
822.953	56.52
823.26	56.75
823.568	57
823.876	57.1
824.184	57.28
824.491	57.06
824.799	57.25
825.107	57.52
825.414	57.68
825.722	57.78
826.029	57.87
826.337	57.6
826.644	57.28
826.951	57.34
827.259	57.41
827.566	57.44
827.873	57.43
828.18	57.58
828.488	57.95
828.795	57.62
829.102	57.45
829.409	57.54
829.716	57.26
830.023	56.53
830.329	56.54
830.636	56.86
830.943	56.85
831.25	56.78
831.557	56.52
831.863	56.21
832.17	56.53
832.476	56.12
832.783	56.52
833.089	56.7
833.396	57.3
833.702	57.32
834.009	57.23
834.315	58
834.621	57.44
834.928	57.06
835.234	57.36
835.54	57.76
835.846	57.9
836.152	58.21
836.458	58.45
836.764	58.37
837.07	58.49
837.376	58.42
837.682	58.14
837.988	58.38
838.293	58.61
838.599	58.62
838.905	59.76
839.211	60.68
839.516	60.33
839.822	59.73
840.127	59.31
840.433	59.97
840.738	59.67
841.044	60.87
841.349	61.7
841.654	61.27
841.959	60.73
842.265	61.04
842.57	60.41
842.875	60.9
843.18	60.81
843.485	59.11
843.79	58.85
844.095	58.75
844.4	59.16
844.705	60.01
845.01	59.27
845.315	58.55
845.619	57.47
845.924	58.88
846.229	59.45
846.533	59.94
846.838	59.48
847.142	58.51
847.447	57.99
847.751	58.02
848.056	59.34
848.36	61.06
848.664	59.88
848.969	60.47
849.273	61.15
849.577	62.73
849.881	62.88
850.185	63.17
850.489	64.67
850.794	65.33
851.097	62.36
851.401	61.54
851.705	59.42
852.009	59.33
852.313	59.82
852.617	58.11
852.92	59.2
853.224	59.9
853.528	61.62
853.831	62.75
854.135	62.72
854.438	63.3
854.742	63.29
855.045	63.8
855.349	63.17
855.652	62.72
855.955	60.74
856.259	60.17
856.562	59.67
856.865	60
857.168	58.24
857.471	58.79
857.774	59.31
858.077	62.26
858.38	62.84
858.683	63.29
858.986	65.17
859.289	67.14
859.592	66
859.894	64.14
860.197	59.39
860.5	59.17
860.802	58.19
861.105	57.3
861.407	59.74
861.71	59.32
862.012	59.05
862.315	59.57
862.617	59.38
862.919	60.65
863.222	58.05
863.524	59.88
863.826	59.43
864.128	61.85
864.43	63.06
864.732	62.05
865.034	58.13
865.336	56.2
865.638	53.51
865.94	54.85
866.242	54.68
866.544	58.85
866.846	58.95
867.147	61.79
867.449	62.04
867.751	58.99
868.052	59.59
868.354	60.33
868.655	58.84
868.957	60.26
869.258	61.62
869.56	64.4
869.861	63.08
870.162	65.3
870.463	64.96
870.765	62.59
871.066	61.42
871.367	63.78
871.668	65.21
871.969	64.71
872.27	65.73
872.571	66.01
872.872	61.99
873.173	62.33
873.473	62.64
873.774	60.94
874.075	61.43
874.376	62.37
874.676	62.86
874.977	63.43
875.277	61.47
875.578	60.42
875.878	59.03
876.179	58.72
876.479	56.98
876.78	55.48
877.08	54.44
877.38	54.62
877.68	54.54
877.981	54.51
878.281	55.61
878.581	51.46
