Data from MVZ_BU26842_Reflection_00013.txt Node
Date: Tue Nov 19 12:18:37 EST 2019
User: vgr7
Spectrometer: USB2G7710
Scans to average: 3
Trigger mode: 4
Integration Time (sec): 2.000000E-2
Electric dark correction enabled: true
Boxcar width: 10
XAxis mode: Wavelengths
Number of Pixels in Spectrum: 2048
>>>>>Begin Spectral Data<<<<<
177.721	73.86
178.105	-103.7
178.488	544.44
178.871	-28.4
179.254	-766.67
179.636	-4788.89
180.019	257.41
180.402	81.82
180.785	496.3
181.168	-357.26
181.55	-219.44
181.933	-201.93
182.316	-90.48
182.698	-206.2
183.081	-213.41
183.463	-435.09
183.846	559.77
184.228	1115.87
184.611	245.83
184.993	165.74
185.376	120.31
185.758	140.26
186.14	170.24
186.522	158.5
186.904	206.94
187.287	145.29
187.669	129.17
188.051	108.37
188.433	99.14
188.815	48.13
189.197	16.67
189.579	-1.76
189.961	-5.4
190.342	7.86
190.724	-22.55
191.106	-8.58
191.488	-19.92
191.869	-66.67
192.251	-51.52
192.633	-10.51
193.014	-13.76
193.396	-124.81
193.777	-14.94
194.159	-0.49
194.54	4.43
194.922	-11.62
195.303	-39.58
195.684	-117.17
196.065	-62.04
196.447	6.16
196.828	5.47
197.209	14.84
197.59	21.13
197.971	2.55
198.352	5.98
198.733	14.73
199.114	-17.38
199.495	-7.94
199.876	-13
200.257	-29.53
200.638	-41.8
201.018	-46.27
201.399	-36.56
201.78	-33.25
202.16	-41.9
202.541	-40.02
202.922	-19.11
203.302	-9.85
203.683	-10.42
204.063	-3.38
204.444	-6.56
204.824	-3.03
205.204	-2.63
205.585	-2.26
205.965	-8.81
206.345	-5.2
206.725	1.52
207.106	20.4
207.486	11.27
207.866	22.68
208.246	23.04
208.626	18.79
209.006	20.04
209.386	3.1
209.766	-13.89
210.145	4.98
210.525	-11.83
210.905	-26.73
211.285	-23.27
211.664	-12.44
212.044	-33.9
212.424	-32.66
212.803	-33.6
213.183	-24.24
213.562	-31.41
213.942	-22.59
214.321	-52.95
214.701	-73.7
215.08	-97.17
215.459	-66.07
215.838	-96.31
216.218	-105.83
216.597	-79.74
216.976	-90.48
217.355	-72.1
217.734	-96.02
218.113	-93.58
218.492	-62.88
218.871	-39.86
219.25	-60.66
219.629	-96.56
220.008	-41.74
220.387	-93.65
220.766	-70.28
221.144	-95.26
221.523	-92.04
221.902	-71.68
222.28	-40.86
222.659	-24.36
223.037	-50.22
223.416	-54.76
223.794	-34.92
224.173	-52.07
224.551	-54.27
224.929	-49.27
225.308	-30.88
225.686	-21.27
226.064	-29.89
226.442	-22.63
226.821	-24.64
227.199	-17.96
227.577	-11.66
227.955	-9.12
228.333	-4.87
228.711	-5.99
229.089	1.19
229.467	4.66
229.845	1.14
230.222	0.23
230.6	-0.8
230.978	2.22
231.356	3.26
231.733	5.68
232.111	7.82
232.488	8.46
232.866	9.64
233.243	7.46
233.621	9.23
233.998	10.6
234.376	8.82
234.753	11.83
235.13	11.01
235.508	7.64
235.885	4
236.262	4.81
236.639	4.34
237.016	1.8
237.393	1.41
237.77	2.97
238.147	1.99
238.524	2.75
238.901	3.22
239.278	2.07
239.655	2.25
240.032	2.56
240.409	2.43
240.785	2.17
241.162	2.42
241.539	2.34
241.915	2.88
242.292	3.11
242.668	3.09
243.045	3.18
243.421	3.87
243.798	4.07
244.174	3.97
244.551	3.97
244.927	3.7
245.303	3.22
245.679	3.36
246.056	3.53
246.432	3.58
246.808	3.73
247.184	4.08
247.56	3.5
247.936	3.46
248.312	3.45
248.688	3.45
249.064	3.49
249.44	3.46
249.815	3.39
250.191	3.26
250.567	3.24
250.943	3.36
251.318	3.16
251.694	3.16
252.069	3.17
252.445	3.55
252.82	3.95
253.196	4.13
253.571	4.16
253.947	4.32
254.322	3.9
254.697	3.64
255.073	3.59
255.448	4.04
255.823	3.98
256.198	3.77
256.573	3.76
256.948	3.54
257.323	3.45
257.698	3.47
258.073	3.3
258.448	3.35
258.823	3.26
259.198	3.29
259.573	3.15
259.948	3.29
260.322	2.96
260.697	3
261.072	3.12
261.446	3.13
261.821	2.88
262.195	2.93
262.57	3.07
262.944	3.19
263.319	3.25
263.693	3.3
264.067	3.45
264.442	3.41
264.816	3.44
265.19	3.51
265.564	3.41
265.938	3.44
266.313	3.21
266.687	3.14
267.061	3.21
267.435	3.31
267.809	3.14
268.183	3.25
268.556	3.31
268.93	3.37
269.304	3.08
269.678	3.46
270.051	3.55
270.425	3.41
270.799	3.13
271.172	3.26
271.546	3.36
271.919	3.34
272.293	3.43
272.666	3.39
273.04	3.45
273.413	3.47
273.787	3.49
274.16	3.6
274.533	3.66
274.906	3.87
275.279	3.83
275.653	3.96
276.026	4.12
276.399	4.01
276.772	4
277.145	4.07
277.518	3.84
277.891	3.71
278.263	3.85
278.636	4.21
279.009	4.19
279.382	4.09
279.755	3.92
280.127	3.91
280.5	3.86
280.872	3.74
281.245	3.81
281.617	3.77
281.99	3.87
282.362	3.83
282.735	3.56
283.107	3.61
283.479	3.49
283.852	3.42
284.224	3.41
284.596	3.4
284.968	3.34
285.34	3.33
285.713	3.58
286.085	3.43
286.457	3.26
286.829	3.17
287.201	3.16
287.572	3.26
287.944	3.28
288.316	3.44
288.688	3.54
289.06	3.5
289.431	3.63
289.803	3.76
290.175	3.58
290.546	3.59
290.918	3.62
291.289	3.52
291.661	3.45
292.032	3.47
292.403	3.39
292.775	3.4
293.146	3.45
293.517	3.3
293.889	3.35
294.26	3.43
294.631	3.49
295.002	3.48
295.373	3.52
295.744	3.43
296.115	3.5
296.486	3.51
296.857	3.52
297.228	3.48
297.599	3.31
297.97	3.48
298.34	3.54
298.711	3.71
299.082	3.9
299.452	4.08
299.823	4.15
300.194	4.31
300.564	4.35
300.935	4.38
301.305	4.32
301.676	4.37
302.046	4.29
302.416	4.17
302.787	4.34
303.157	4.3
303.527	4.49
303.897	4.23
304.267	4.13
304.637	4.08
305.008	4.13
305.378	4.24
305.748	4.17
306.117	4.16
306.487	4.01
306.857	4.19
307.227	4.18
307.597	4.18
307.967	4.19
308.336	4.31
308.706	4.42
309.076	4.67
309.445	4.92
309.815	4.98
310.184	5.06
310.554	5
310.923	5.07
311.293	5.06
311.662	5.26
312.031	5.37
312.401	5.51
312.77	5.47
313.139	5.41
313.508	5.6
313.877	5.69
314.246	5.72
314.616	5.68
314.985	5.54
315.353	5.66
315.722	5.75
316.091	5.89
316.46	5.79
316.829	5.77
317.198	5.66
317.567	5.91
317.935	6.11
318.304	6.24
318.672	6.38
319.041	6.56
319.41	6.47
319.778	6.44
320.147	6.4
320.515	6.63
320.883	6.77
321.252	6.8
321.62	6.73
321.988	6.9
322.357	6.82
322.725	6.84
323.093	6.66
323.461	6.53
323.829	6.48
324.197	6.6
324.565	6.55
324.933	6.57
325.301	6.31
325.669	6.31
326.037	6.26
326.405	6.19
326.772	6.07
327.14	6.24
327.508	6.32
327.875	6.38
328.243	6.34
328.61	6.38
328.978	6.13
329.346	6.25
329.713	6.19
330.08	6.33
330.448	6.39
330.815	6.38
331.182	6.46
331.55	6.42
331.917	6.39
332.284	6.49
332.651	6.59
333.018	6.86
333.385	6.84
333.752	7.01
334.119	6.99
334.486	7.01
334.853	6.96
335.22	6.93
335.587	6.93
335.954	6.97
336.32	6.92
336.687	7.07
337.054	6.98
337.42	7
337.787	6.84
338.153	7.01
338.52	7.21
338.886	7.39
339.253	7.25
339.619	7.34
339.986	7.27
340.352	7.15
340.718	7.16
341.084	7.28
341.451	7.24
341.817	7.31
342.183	7.32
342.549	7.46
342.915	7.42
343.281	7.38
343.647	7.37
344.013	7.28
344.379	7.35
344.745	7.37
345.11	7.41
345.476	7.58
345.842	7.43
346.208	7.45
346.573	7.24
346.939	7.45
347.304	7.38
347.67	7.31
348.035	7.33
348.401	7.42
348.766	7.32
349.132	7.31
349.497	7.26
349.862	7.17
350.228	7.07
350.593	7.13
350.958	7.25
351.323	7.2
351.688	7.42
352.053	7.43
352.418	7.57
352.783	7.46
353.148	7.41
353.513	7.57
353.878	7.47
354.243	7.52
354.608	7.5
354.972	7.56
355.337	7.65
355.702	7.57
356.066	7.52
356.431	7.44
356.795	7.46
357.16	7.55
357.524	7.56
357.889	7.58
358.253	7.61
358.618	7.58
358.982	7.61
359.346	7.55
359.71	7.59
360.075	7.53
360.439	7.63
360.803	7.64
361.167	7.57
361.531	7.58
361.895	7.6
362.259	7.61
362.623	7.61
362.987	7.64
363.351	7.74
363.714	7.71
364.078	7.78
364.442	7.72
364.806	7.73
365.169	7.76
365.533	7.75
365.896	7.76
366.26	7.71
366.623	7.72
366.987	7.72
367.35	7.68
367.714	7.65
368.077	7.51
368.44	7.45
368.803	7.42
369.167	7.33
369.53	7.29
369.893	7.2
370.256	7.18
370.619	7.11
370.982	7.03
371.345	7.05
371.708	6.96
372.071	6.89
372.434	6.77
372.797	6.68
373.159	6.58
373.522	6.48
373.885	6.48
374.247	6.44
374.61	6.4
374.973	6.3
375.335	6.32
375.698	6.35
376.06	6.3
376.423	6.28
376.785	6.31
377.147	6.29
377.51	6.26
377.872	6.17
378.234	6.15
378.596	6.12
378.958	5.99
379.321	5.92
379.683	5.92
380.045	5.95
380.407	5.92
380.769	5.88
381.13	5.88
381.492	5.84
381.854	5.8
382.216	5.75
382.578	5.76
382.939	5.66
383.301	5.6
383.663	5.58
384.024	5.54
384.386	5.54
384.747	5.44
385.109	5.45
385.47	5.49
385.832	5.43
386.193	5.4
386.554	5.38
386.916	5.43
387.277	5.39
387.638	5.37
387.999	5.36
388.36	5.4
388.721	5.34
389.082	5.33
389.443	5.32
389.804	5.33
390.165	5.27
390.526	5.26
390.887	5.28
391.248	5.25
391.609	5.28
391.969	5.21
392.33	5.2
392.691	5.16
393.051	5.12
393.412	5.14
393.772	5.1
394.133	5.13
394.493	5.1
394.854	5.06
395.214	5.05
395.574	5.02
395.935	4.98
396.295	4.96
396.655	4.92
397.015	4.9
397.376	4.84
397.736	4.83
398.096	4.82
398.456	4.71
398.816	4.66
399.176	4.55
399.535	4.57
399.895	4.53
400.255	4.5
400.615	4.44
400.975	4.41
401.334	4.38
401.694	4.33
402.054	4.3
402.413	4.34
402.773	4.3
403.132	4.27
403.492	4.21
403.851	4.2
404.211	4.15
404.57	4.14
404.929	4.1
405.288	4.1
405.648	4.12
406.007	4.16
406.366	4.19
406.725	4.19
407.084	4.14
407.443	4.19
407.802	4.16
408.161	4.2
408.52	4.19
408.879	4.22
409.238	4.21
409.596	4.22
409.955	4.22
410.314	4.21
410.673	4.2
411.031	4.21
411.39	4.22
411.748	4.26
412.107	4.21
412.465	4.21
412.824	4.17
413.182	4.13
413.54	4.13
413.899	4.08
414.257	4.07
414.615	4.05
414.974	4.01
415.332	4.03
415.69	3.99
416.048	3.96
416.406	3.9
416.764	3.86
417.122	3.83
417.48	3.8
417.838	3.79
418.195	3.77
418.553	3.75
418.911	3.74
419.269	3.73
419.626	3.72
419.984	3.71
420.342	3.7
420.699	3.7
421.057	3.69
421.414	3.69
421.772	3.68
422.129	3.67
422.486	3.65
422.844	3.63
423.201	3.61
423.558	3.6
423.915	3.62
424.273	3.62
424.63	3.6
424.987	3.6
425.344	3.59
425.701	3.6
426.058	3.61
426.415	3.59
426.772	3.58
427.128	3.57
427.485	3.58
427.842	3.58
428.199	3.56
428.555	3.55
428.912	3.55
429.269	3.53
429.625	3.51
429.982	3.53
430.338	3.55
430.695	3.54
431.051	3.54
431.407	3.53
431.764	3.52
432.12	3.54
432.476	3.55
432.832	3.55
433.189	3.53
433.545	3.51
433.901	3.52
434.257	3.5
434.613	3.49
434.969	3.47
435.325	3.47
435.681	3.47
436.036	3.45
436.392	3.47
436.748	3.51
437.104	3.53
437.459	3.53
437.815	3.54
438.171	3.56
438.526	3.55
438.882	3.57
439.237	3.58
439.593	3.58
439.948	3.57
440.304	3.57
440.659	3.59
441.014	3.6
441.369	3.58
441.725	3.58
442.08	3.59
442.435	3.62
442.79	3.61
443.145	3.6
443.5	3.6
443.855	3.59
444.21	3.56
444.565	3.56
444.92	3.57
445.275	3.55
445.629	3.54
445.984	3.53
446.339	3.52
446.693	3.52
447.048	3.49
447.403	3.49
447.757	3.46
448.112	3.46
448.466	3.47
448.82	3.48
449.175	3.48
449.529	3.49
449.883	3.47
450.238	3.47
450.592	3.49
450.946	3.46
451.3	3.45
451.654	3.45
452.008	3.46
452.362	3.42
452.716	3.41
453.07	3.43
453.424	3.43
453.778	3.44
454.132	3.43
454.486	3.41
454.839	3.43
455.193	3.47
455.547	3.45
455.9	3.43
456.254	3.41
456.607	3.4
456.961	3.38
457.314	3.37
457.668	3.36
458.021	3.36
458.375	3.38
458.728	3.4
459.081	3.39
459.434	3.37
459.787	3.39
460.141	3.41
460.494	3.39
460.847	3.38
461.2	3.39
461.553	3.41
461.906	3.44
462.259	3.41
462.611	3.39
462.964	3.42
463.317	3.44
463.67	3.46
464.022	3.48
464.375	3.49
464.728	3.51
465.08	3.53
465.433	3.56
465.785	3.54
466.138	3.54
466.49	3.56
466.843	3.61
467.195	3.65
467.547	3.66
467.899	3.67
468.252	3.71
468.604	3.7
468.956	3.7
469.308	3.72
469.66	3.74
470.012	3.78
470.364	3.76
470.716	3.74
471.068	3.75
471.42	3.76
471.772	3.79
472.123	3.82
472.475	3.84
472.827	3.82
473.178	3.85
473.53	3.86
473.882	3.85
474.233	3.84
474.585	3.8
474.936	3.83
475.288	3.83
475.639	3.82
475.99	3.83
476.342	3.83
476.693	3.8
477.044	3.8
477.395	3.78
477.746	3.8
478.097	3.79
478.448	3.79
478.8	3.75
479.15	3.72
479.501	3.71
479.852	3.71
480.203	3.72
480.554	3.73
480.905	3.72
481.255	3.72
481.606	3.71
481.957	3.72
482.307	3.71
482.658	3.72
483.009	3.71
483.359	3.71
483.709	3.71
484.06	3.71
484.41	3.7
484.761	3.7
485.111	3.7
485.461	3.71
485.811	3.71
486.162	3.71
486.512	3.72
486.862	3.72
487.212	3.72
487.562	3.71
487.912	3.71
488.262	3.71
488.612	3.7
488.961	3.7
489.311	3.69
489.661	3.7
490.011	3.69
490.36	3.7
490.71	3.7
491.06	3.7
491.409	3.7
491.759	3.71
492.108	3.72
492.458	3.72
492.807	3.73
493.157	3.74
493.506	3.76
493.855	3.76
494.204	3.78
494.554	3.8
494.903	3.83
495.252	3.86
495.601	3.87
495.95	3.89
496.299	3.92
496.648	3.97
496.997	3.99
497.346	4.04
497.695	4.06
498.043	4.08
498.392	4.13
498.741	4.19
499.09	4.24
499.438	4.29
499.787	4.33
500.135	4.36
500.484	4.4
500.832	4.46
501.181	4.53
501.529	4.57
501.878	4.63
502.226	4.69
502.574	4.78
502.923	4.85
503.271	4.97
503.619	5.05
503.967	5.13
504.315	5.21
504.663	5.26
505.011	5.37
505.359	5.46
505.707	5.57
506.055	5.66
506.403	5.77
506.751	5.89
507.098	5.99
507.446	6.11
507.794	6.22
508.141	6.34
508.489	6.46
508.837	6.59
509.184	6.71
509.531	6.86
509.879	6.94
510.226	7.06
510.574	7.18
510.921	7.28
511.268	7.4
511.616	7.57
511.963	7.73
512.31	7.88
512.657	8.04
513.004	8.19
513.351	8.35
513.698	8.51
514.045	8.68
514.392	8.84
514.739	9.01
515.086	9.19
515.432	9.36
515.779	9.53
516.126	9.72
516.473	9.88
516.819	10.04
517.166	10.23
517.512	10.41
517.859	10.58
518.205	10.76
518.552	10.92
518.898	11.04
519.245	11.22
519.591	11.35
519.937	11.5
520.283	11.7
520.629	11.87
520.976	12.06
521.322	12.23
521.668	12.45
522.014	12.66
522.36	12.86
522.706	13.09
523.052	13.3
523.398	13.52
523.743	13.77
524.089	14
524.435	14.25
524.781	14.46
525.126	14.67
525.472	14.87
525.817	15.07
526.163	15.27
526.509	15.42
526.854	15.6
527.199	15.74
527.545	15.88
527.89	16.05
528.235	16.2
528.581	16.37
528.926	16.53
529.271	16.68
529.616	16.87
529.961	17.02
530.306	17.2
530.651	17.38
530.996	17.56
531.341	17.77
531.686	17.97
532.031	18.19
532.376	18.41
532.721	18.64
533.065	18.88
533.41	19.11
533.755	19.38
534.099	19.62
534.444	19.89
534.788	20.14
535.133	20.37
535.477	20.62
535.822	20.85
536.166	21.14
536.51	21.45
536.855	21.75
537.199	22.07
537.543	22.42
537.887	22.73
538.231	23.04
538.576	23.33
538.92	23.64
539.264	23.95
539.608	24.23
539.951	24.49
540.295	24.72
540.639	24.98
540.983	25.17
541.327	25.39
541.671	25.61
542.014	25.84
542.358	26.06
542.701	26.3
543.045	26.55
543.389	26.77
543.732	27
544.075	27.22
544.419	27.46
544.762	27.68
545.105	27.94
545.449	28.21
545.792	28.51
546.135	28.78
546.478	29.05
546.821	29.34
547.165	29.63
547.508	29.92
547.851	30.19
548.194	30.5
548.536	30.83
548.879	31.12
549.222	31.41
549.565	31.67
549.908	31.94
550.25	32.16
550.593	32.43
550.936	32.61
551.278	32.88
551.621	33.11
551.963	33.33
552.306	33.64
552.648	33.9
552.991	34.14
553.333	34.33
553.675	34.6
554.017	34.84
554.36	35
554.702	35.18
555.044	35.38
555.386	35.55
555.728	35.7
556.07	35.89
556.412	36.05
556.754	36.29
557.096	36.49
557.438	36.68
557.78	36.88
558.121	37.08
558.463	37.3
558.805	37.5
559.147	37.76
559.488	37.86
559.83	38.04
560.171	38.16
560.513	38.34
560.854	38.39
561.196	38.58
561.537	38.8
561.878	38.99
562.22	39.23
562.561	39.43
562.902	39.66
563.243	39.79
563.584	39.93
563.925	40.02
564.266	40.14
564.607	40.32
564.948	40.44
565.289	40.61
565.63	40.7
565.971	40.84
566.312	40.97
566.653	41.06
566.993	41.14
567.334	41.33
567.675	41.53
568.015	41.69
568.356	41.78
568.696	41.91
569.037	42.09
569.377	42.17
569.718	42.31
570.058	42.35
570.398	42.5
570.739	42.59
571.079	42.82
571.419	42.93
571.759	43.07
572.099	43.16
572.439	43.27
572.779	43.42
573.119	43.53
573.459	43.59
573.799	43.73
574.139	43.87
574.479	43.95
574.819	44.03
575.158	44.12
575.498	44.21
575.838	44.28
576.177	44.32
576.517	44.41
576.856	44.48
577.196	44.59
577.535	44.67
577.875	44.82
578.214	44.82
578.553	44.96
578.893	45.01
579.232	45.15
579.571	45.3
579.91	45.4
580.25	45.42
580.589	45.47
580.928	45.61
581.267	45.6
581.606	45.66
581.945	45.73
582.283	45.73
582.622	45.79
582.961	45.89
583.3	46.03
583.639	46.05
583.977	46.12
584.316	46.28
584.654	46.35
584.993	46.5
585.332	46.61
585.67	46.62
586.008	46.75
586.347	46.84
586.685	46.78
587.024	46.86
587.362	46.93
587.7	47.04
588.038	47.01
588.376	47.24
588.715	47.34
589.053	47.5
589.391	47.69
589.729	47.81
590.067	47.89
590.404	47.94
590.742	48.05
591.08	48.07
591.418	48.08
591.756	48.2
592.093	48.16
592.431	48.18
592.769	48.29
593.106	48.39
593.444	48.41
593.781	48.53
594.119	48.56
594.456	48.63
594.793	48.74
595.131	48.88
595.468	48.84
595.805	48.93
596.143	48.9
596.48	48.88
596.817	48.9
597.154	48.88
597.491	48.91
597.828	48.99
598.165	49.09
598.502	49.15
598.839	49.18
599.176	49.28
599.512	49.33
599.849	49.35
600.186	49.36
600.523	49.44
600.859	49.51
601.196	49.62
601.532	49.67
601.869	49.64
602.205	49.62
602.542	49.67
602.878	49.73
603.215	49.81
603.551	49.81
603.887	49.87
604.223	49.95
604.56	50.01
604.896	50.04
605.232	50.12
605.568	50.13
605.904	50.14
606.24	50.08
606.576	50.1
606.912	50.11
607.248	50.12
607.583	50.09
607.919	50.09
608.255	50.05
608.591	50.12
608.926	50.16
609.262	50.26
609.597	50.27
609.933	50.18
610.268	50.21
610.604	50.27
610.939	50.27
611.275	50.3
611.61	50.2
611.945	50.15
612.281	50.11
612.616	50.22
612.951	50.31
613.286	50.44
613.621	50.53
613.956	50.61
614.291	50.62
614.626	50.77
614.961	50.81
615.296	50.89
615.631	50.79
615.966	50.87
616.3	50.81
616.635	50.87
616.97	51
617.304	50.94
617.639	51.13
617.973	51.17
618.308	51.19
618.642	51.3
618.977	51.36
619.311	51.42
619.646	51.37
619.98	51.24
620.314	51.27
620.648	51.36
620.983	51.44
621.317	51.48
621.651	51.42
621.985	51.45
622.319	51.43
622.653	51.51
622.987	51.52
623.321	51.62
623.655	51.7
623.988	51.69
624.322	51.73
624.656	51.72
624.99	51.72
625.323	51.8
625.657	51.82
625.99	51.74
626.324	51.72
626.657	51.74
626.991	51.88
627.324	51.94
627.658	51.98
627.991	51.97
628.324	51.92
628.657	51.99
628.991	52.01
629.324	52.03
629.657	52.04
629.99	52.01
630.323	51.98
630.656	51.93
630.989	51.97
631.322	51.99
631.655	51.94
631.987	51.93
632.32	51.87
632.653	51.85
632.986	52.05
633.318	52.12
633.651	52.16
633.984	52.22
634.316	52.12
634.649	52.05
634.981	52.06
635.313	52.18
635.646	52.22
635.978	52.32
636.31	52.4
636.643	52.45
636.975	52.46
637.307	52.46
637.639	52.54
637.971	52.5
638.303	52.49
638.635	52.56
638.967	52.56
639.299	52.56
639.631	52.55
639.963	52.48
640.295	52.49
640.626	52.52
640.958	52.49
641.29	52.57
641.621	52.54
641.953	52.55
642.285	52.49
642.616	52.44
642.948	52.41
643.279	52.32
643.61	52.46
643.942	52.58
644.273	52.6
644.604	52.62
644.936	52.65
645.267	52.64
645.598	52.64
645.929	52.69
646.26	52.75
646.591	52.81
646.922	52.78
647.253	52.79
647.584	52.66
647.915	52.65
648.245	52.64
648.576	52.71
648.907	52.69
649.238	52.72
649.568	52.72
649.899	52.72
650.229	52.72
650.56	52.68
650.89	52.68
651.221	52.7
651.551	52.68
651.882	52.66
652.212	52.67
652.542	52.65
652.872	52.62
653.203	52.68
653.533	52.75
653.863	52.89
654.193	53.02
654.523	53.14
654.853	53.18
655.183	53.29
655.513	53.21
655.843	53.3
656.172	53.38
656.502	53.33
656.832	53.33
657.162	53.4
657.491	53.4
657.821	53.4
658.15	53.45
658.48	53.59
658.809	53.71
659.139	53.74
659.468	53.8
659.798	53.9
660.127	53.79
660.456	53.84
660.785	53.82
661.115	53.72
661.444	53.64
661.773	53.55
662.102	53.41
662.431	53.48
662.76	53.44
663.089	53.45
663.418	53.55
663.747	53.57
664.076	53.6
664.404	53.57
664.733	53.62
665.062	53.59
665.39	53.33
665.719	53.16
666.048	53.18
666.376	53.05
666.705	53
667.033	52.98
667.362	52.87
667.69	52.87
668.018	52.88
668.347	53.01
668.675	52.99
669.003	53.06
669.331	53.17
669.659	53.16
669.987	53.19
670.315	53.21
670.643	53.27
670.971	53.36
671.299	53.37
671.627	53.35
671.955	53.4
672.283	53.59
672.61	53.63
672.938	53.7
673.266	53.82
673.593	53.84
673.921	53.92
674.249	54.04
674.576	54.04
674.904	54.1
675.231	54.01
675.558	54.18
675.886	54.34
676.213	54.16
676.54	54.21
676.867	54.25
677.195	54.23
677.522	54.22
677.849	54.07
678.176	54.1
678.503	53.96
678.83	53.93
679.157	53.82
679.484	53.89
679.81	53.97
680.137	53.9
680.464	54.08
680.791	54.19
681.117	54.17
681.444	54.17
681.771	54.19
682.097	54.31
682.424	54.17
682.75	54.12
683.077	54.11
683.403	54.15
683.729	54.08
684.056	54.08
684.382	53.98
684.708	54.09
685.034	54.04
685.36	54.23
685.686	54.19
686.012	54.21
686.339	54.2
686.664	54.03
686.99	54.23
687.316	54.04
687.642	54.1
687.968	54.04
688.294	54.22
688.619	54.16
688.945	54.11
689.271	54.29
689.596	54.39
689.922	54.52
690.247	54.51
690.573	54.37
690.898	54.52
691.224	54.69
691.549	54.62
691.874	54.82
692.2	54.77
692.525	54.74
692.85	54.83
693.175	54.96
693.5	55.01
693.825	55.05
694.15	55.1
694.475	54.95
694.8	54.89
695.125	54.91
695.45	54.89
695.775	54.94
696.099	54.9
696.424	54.75
696.749	54.94
697.073	54.83
697.398	55.08
697.723	55
698.047	54.91
698.372	55.01
698.696	55.06
699.02	55.11
699.345	55.22
699.669	55.31
699.993	55.15
700.318	55.24
700.642	55.08
700.966	54.99
701.29	55.15
701.614	55.27
701.938	55.12
702.262	55.01
702.586	54.78
702.91	54.81
703.234	54.86
703.557	54.63
703.881	54.87
704.205	54.68
704.529	54.67
704.852	54.57
705.176	54.67
705.499	54.64
705.823	54.51
706.146	54.44
706.47	54.36
706.793	54.61
707.117	54.54
707.44	54.51
707.763	54.71
708.086	54.59
708.409	54.66
708.733	54.46
709.056	54.74
709.379	55.15
709.702	55.31
710.025	55.38
710.348	55.41
710.671	55.6
710.993	55.59
711.316	55.48
711.639	55.52
711.962	55.47
712.284	55.4
712.607	55.43
712.93	55.43
713.252	55.32
713.575	55.32
713.897	55.27
714.22	55.37
714.542	55.36
714.864	55.38
715.187	55.38
715.509	55.54
715.831	55.43
716.153	55.34
716.475	55.24
716.798	55.34
717.12	55.48
717.442	55.25
717.764	55.24
718.085	55.41
718.407	55.44
718.729	55.33
719.051	55.28
719.373	55.28
719.695	55.24
720.016	55.4
720.338	55.39
720.659	55.44
720.981	55.38
721.302	55.5
721.624	55.46
721.945	55.39
722.267	55.51
722.588	55.63
722.909	55.39
723.231	55.25
723.552	55.15
723.873	55.15
724.194	54.92
724.515	55.03
724.836	55.17
725.157	54.97
725.478	54.95
725.799	54.84
726.12	54.84
726.441	55.07
726.762	55.01
727.083	54.79
727.403	55.04
727.724	55.13
728.045	55.04
728.365	55.1
728.686	55.23
729.006	55.24
729.327	55.34
729.647	55.55
729.967	55.71
730.288	55.49
730.608	55.51
730.928	55.89
731.249	55.97
731.569	55.79
731.889	55.99
732.209	56.3
732.529	56.39
732.849	56.63
733.169	56.82
733.489	56.7
733.809	57.07
734.129	57.18
734.448	57.11
734.768	57.28
735.088	57.21
735.408	56.88
735.727	56.71
736.047	56.6
736.366	56.59
736.686	56.65
737.005	56.7
737.325	56.67
737.644	56.56
737.963	56.48
738.283	56.62
738.602	56.67
738.921	56.39
739.24	56.59
739.56	56.48
739.879	56.22
740.198	56.37
740.517	56.45
740.836	55.94
741.155	56.09
741.473	55.88
741.792	56.01
742.111	56.21
742.43	56.52
742.748	56.5
743.067	56.5
743.386	56.21
743.704	56.04
744.023	55.98
744.341	55.73
744.66	55.87
744.978	55.59
745.297	55.74
745.615	55.25
745.933	54.96
746.252	55.1
746.57	55.22
746.888	55.48
747.206	55.57
747.524	56.07
747.842	56.02
748.16	55.95
748.478	56.05
748.796	56.1
749.114	56.25
749.432	56.43
749.749	56.55
750.067	56.63
750.385	56.92
750.703	56.82
751.02	56.95
751.338	56.8
751.655	56.9
751.973	56.83
752.29	57.32
752.608	57.66
752.925	57.56
753.242	56.96
753.56	56.52
753.877	55.96
754.194	55.76
754.511	55.85
754.828	55.98
755.145	56.08
755.462	55.93
755.779	55.64
756.096	55.59
756.413	55.45
756.73	55.59
757.047	55.47
757.364	55.3
757.68	55.81
757.997	55.79
758.314	56.01
758.63	56.26
758.947	56.35
759.264	56.48
759.58	56.21
759.896	56.47
760.213	56.56
760.529	56.65
760.846	56.44
761.162	56.18
761.478	56.25
761.794	56.35
762.11	56.52
762.426	56.38
762.743	56.08
763.059	56.07
763.375	56.03
763.69	56.29
764.006	56.25
764.322	55.86
764.638	55.85
764.954	55.82
765.27	55.56
765.585	55.29
765.901	54.95
766.216	55
766.532	54.91
766.848	54.86
767.163	54.97
767.478	55.25
767.794	55.35
768.109	55.15
768.424	54.71
768.74	54.72
769.055	54.76
769.37	55.16
769.685	55.08
770	55.02
770.315	54.66
770.63	55.08
770.945	54.92
771.26	55.14
771.575	55.28
771.89	55.58
772.205	56.2
772.52	56.42
772.834	56.65
773.149	56.86
773.464	56.66
773.778	56.48
774.093	56.37
774.407	56.85
774.722	57.37
775.036	57.75
775.351	57.59
775.665	57.85
775.979	57.59
776.293	57.8
776.608	57.73
776.922	57.67
777.236	57.59
777.55	57.86
777.864	57.4
778.178	56.98
778.492	56.44
778.806	56.31
779.12	55.76
779.434	55.8
779.747	56.54
780.061	57.41
780.375	57.76
780.689	58.17
781.002	57.74
781.316	57.17
781.629	57.02
781.943	56.81
782.256	56.76
782.57	56.87
782.883	56.86
783.196	57.2
783.51	57.96
783.823	57.51
784.136	57.41
784.449	57.5
784.762	57.9
785.075	58.46
785.388	58.41
785.701	58.94
786.014	58.8
786.327	57.91
786.64	56.88
786.953	57.06
787.266	56.46
787.578	56.92
787.891	57.05
788.204	57.25
788.516	58.02
788.829	57.83
789.141	57.84
789.454	58.09
789.766	58.17
790.079	57.42
790.391	57.45
790.703	57.53
791.016	58.19
791.328	58.74
791.64	58.75
791.952	58.8
792.264	58.52
792.576	58.82
792.888	59.36
793.2	59.54
793.512	59.02
793.824	59.12
794.136	58.68
794.448	59.05
794.76	59.36
795.071	58.55
795.383	58.89
795.695	59.18
796.006	58.84
796.318	58.86
796.629	59.65
796.941	60.92
797.252	60.94
797.564	60.84
797.875	60.47
798.186	60.5
798.497	60.41
798.809	60.83
799.12	60.26
799.431	59.89
799.742	60.1
800.053	60.29
800.364	59.91
800.675	60.12
800.986	59.17
801.297	58.77
801.608	58.99
801.918	58.41
802.229	57.99
802.54	57.49
802.851	57.11
803.161	56.83
803.472	55.89
803.782	56.34
804.093	55.84
804.403	55.57
804.714	55.43
805.024	54.65
805.334	54.83
805.645	55.17
805.955	56.37
806.265	56.31
806.575	55.66
806.885	55.9
807.195	56.08
807.505	56.68
807.815	56.31
808.125	56.25
808.435	55.98
808.745	55.87
809.055	56.22
809.365	56.83
809.674	56.8
809.984	57.2
810.294	56.88
810.603	57.07
810.913	57.15
811.222	56.6
811.532	58.72
811.841	58.52
812.151	58.87
812.46	57.28
812.769	56.86
813.079	57.57
813.388	57.34
813.697	56.29
814.006	56.92
814.315	56.88
814.624	57.07
814.933	57.88
815.242	58.29
815.551	58.25
815.86	57.68
816.169	57.7
816.478	57.88
816.786	57.76
817.095	57.77
817.404	58.81
817.712	59.25
818.021	58.02
818.33	57.67
818.638	57.35
818.947	56.93
819.255	56.97
819.563	56.78
819.872	56.94
820.18	56.86
820.488	56.54
820.796	56.28
821.105	56.38
821.413	56.28
821.721	56.13
822.029	56.26
822.337	56.77
822.645	56.78
822.953	56.57
823.26	56.63
823.568	56.63
823.876	56.39
824.184	56.26
824.491	56.29
824.799	56.25
825.107	56.23
825.414	56.28
825.722	56.47
826.029	56.58
826.337	56.62
826.644	56.98
826.951	56.92
827.259	57.22
827.566	57.38
827.873	57.35
828.18	57.76
828.488	57.86
828.795	57.37
829.102	57.19
829.409	57.07
829.716	56.8
830.023	56.75
830.329	56.27
830.636	56.49
830.943	56.88
831.25	56.95
831.557	56.87
831.863	57.22
832.17	57.03
832.476	57.3
832.783	57.14
833.089	56.83
833.396	57.41
833.702	57.5
834.009	56.99
834.315	57.51
834.621	57.02
834.928	57.11
835.234	57.37
835.54	57.75
835.846	58.5
836.152	59.09
836.458	59.67
836.764	60.65
837.07	60.95
837.376	60.63
837.682	61.04
837.988	61.9
838.293	61.72
838.599	62.01
838.905	61.54
839.211	61.87
839.516	62.16
839.822	62.05
840.127	60.75
840.433	60.71
840.738	60.99
841.044	61.27
841.349	59.99
841.654	59.83
841.959	59.52
842.265	59.1
842.57	58.97
842.875	57.67
843.18	57.33
843.485	57.23
843.79	57.18
844.095	57.58
844.4	57.68
844.705	57.53
845.01	58.08
845.315	58.93
845.619	60.42
845.924	59.74
846.229	60.35
846.533	62.07
846.838	63.25
847.142	62.56
847.447	63.18
847.751	66.62
848.056	67.35
848.36	68.01
848.664	69.1
848.969	69.65
849.273	72.05
849.577	72.03
849.881	71.83
850.185	70.84
850.489	69.38
850.794	68.77
851.097	69.7
851.401	69.13
851.705	67.53
852.009	66.29
852.313	69.14
852.617	67.9
852.92	72.23
853.224	72.7
853.528	71.48
853.831	71.24
854.135	68.79
854.438	68.73
854.742	68.83
855.045	67.52
855.349	66.86
855.652	66.37
855.955	66.33
856.259	65.11
856.562	62.12
856.865	61.13
857.168	59.3
857.471	61.91
857.774	64.66
858.077	66.16
858.38	66.43
858.683	63.97
858.986	65.84
859.289	62.19
859.592	63.07
859.894	63.44
860.197	61.62
860.5	62.5
860.802	63.67
861.105	64.72
861.407	65.37
861.71	64.42
862.012	65.9
862.315	64.23
862.617	67.3
862.919	72.69
863.222	74.51
863.524	74.99
863.826	71.07
864.128	67.17
864.43	66.06
864.732	64.97
865.034	65.25
865.336	64.31
865.638	63.35
865.94	62.88
866.242	62.07
866.544	62.99
866.846	63.56
867.147	64.81
867.449	63.61
867.751	62.83
868.052	63.31
868.354	61.87
868.655	61.4
868.957	60.35
869.258	58.5
869.56	60.78
869.861	59.32
870.162	62.11
870.463	64.62
870.765	63.96
871.066	65.46
871.367	64.86
871.668	66.36
871.969	66.1
872.27	63.91
872.571	65.06
872.872	64.81
873.173	65.14
873.473	64.78
873.774	62.58
874.075	62.82
874.376	64.24
874.676	64.42
874.977	64.75
875.277	61.49
875.578	64.36
875.878	62.24
876.179	64.37
876.479	62.72
876.78	60.57
877.08	61.39
877.38	60.14
877.68	60.57
877.981	57.31
878.281	61.18
878.581	64.51
