Data from MVZ_BU123442_Reflection_00005.txt Node
Date: Tue Nov 19 12:12:25 EST 2019
User: vgr7
Spectrometer: USB2G7710
Scans to average: 3
Trigger mode: 4
Integration Time (sec): 2.000000E-2
Electric dark correction enabled: true
Boxcar width: 10
XAxis mode: Wavelengths
Number of Pixels in Spectrum: 2048
>>>>>Begin Spectral Data<<<<<
177.721	166.47
178.105	119.48
178.488	72.01
178.871	267.8
179.254	605.26
179.636	407.45
180.019	1628.3
180.402	323.08
180.785	-30.12
181.168	-55.71
181.55	-4.96
181.933	-1.62
182.316	16.86
182.698	-30.6
183.081	-26.23
183.463	-27.58
183.846	-45.01
184.228	-75.65
184.611	-185.1
184.993	652
185.376	4534.78
185.758	-516.6
186.14	-543.9
186.522	-973.39
186.904	1300
187.287	905.37
187.669	394.55
188.051	270.57
188.433	24.79
188.815	-2.83
189.197	-31.77
189.579	7.76
189.961	22.95
190.342	47.75
190.724	-9.3
191.106	-1.46
191.488	12.98
191.869	9.2
192.251	10.67
192.633	-0.81
193.014	-16.53
193.396	-31.79
193.777	-27.16
194.159	-22.65
194.54	-8.02
194.922	-27.75
195.303	-27.66
195.684	-22.65
196.065	-16.68
196.447	17.72
196.828	21.79
197.209	60.08
197.59	55.78
197.971	28.05
198.352	24.71
198.733	43.79
199.114	25.33
199.495	25.15
199.876	13.14
200.257	1.84
200.638	7.02
201.018	13.69
201.399	21.3
201.78	39.21
202.16	22.3
202.541	22.08
202.922	54.48
203.302	114.59
203.683	359.46
204.063	198.51
204.444	580.92
204.824	212.09
205.204	105.39
205.585	118.24
205.965	455.93
206.345	-286.5
206.725	-230.28
207.106	-396.69
207.486	-526.09
207.866	-149.48
208.246	-323.24
208.626	1926.09
209.006	132.35
209.386	108.09
209.766	26.96
210.145	22.34
210.525	30.88
210.905	16.57
211.285	17.08
211.664	29.64
212.044	40.48
212.424	40.78
212.803	15.91
213.183	12.99
213.562	-1.3
213.942	12.31
214.321	7.14
214.701	9.19
215.08	-12.35
215.459	-10.64
215.838	-9.93
216.218	-4.51
216.597	7
216.976	10.33
217.355	12.45
217.734	19
218.113	27.85
218.492	9.05
218.871	11.16
219.25	4.48
219.629	-2.79
220.008	-3.66
220.387	-4.55
220.766	-1.55
221.144	1.17
221.523	3.56
221.902	4.09
222.28	10.4
222.659	9.6
223.037	5.85
223.416	3.96
223.794	0.14
224.173	-4.4
224.551	0.83
224.929	-6.17
225.308	-6.28
225.686	-10.97
226.064	-22
226.442	-14.25
226.821	-16.35
227.199	-16.51
227.577	-15.57
227.955	-6.75
228.333	-11.75
228.711	-5.45
229.089	-4.37
229.467	0.52
229.845	-2.34
230.222	-2.37
230.6	-0.35
230.978	7.03
231.356	6.81
231.733	7.19
232.111	5.02
232.488	3.39
232.866	4.58
233.243	6.13
233.621	7.67
233.998	9.14
234.376	8.2
234.753	8.13
235.13	8.49
235.508	8.33
235.885	6.06
236.262	6.71
236.639	5.6
237.016	6.33
237.393	6.23
237.77	8.23
238.147	7.51
238.524	7.91
238.901	5.59
239.278	5.87
239.655	5.83
240.032	5.47
240.409	6.59
240.785	6.49
241.162	6.24
241.539	5.67
241.915	5.42
242.292	5
242.668	5.14
243.045	5.46
243.421	5.98
243.798	5.81
244.174	5.83
244.551	5.78
244.927	5.4
245.303	4.85
245.679	4.47
246.056	4.31
246.432	4.06
246.808	4.31
247.184	4.28
247.56	4.06
247.936	4.41
248.312	3.98
248.688	3.76
249.064	3.49
249.44	3.63
249.815	3.92
250.191	4.13
250.567	4.01
250.943	4.02
251.318	3.66
251.694	3.49
252.069	3.64
252.445	3.56
252.82	3.74
253.196	3.91
253.571	3.88
253.947	4.08
254.322	3.98
254.697	3.9
255.073	3.59
255.448	3.74
255.823	3.56
256.198	3.44
256.573	3.73
256.948	3.88
257.323	3.79
257.698	3.64
258.073	3.58
258.448	3.89
258.823	3.59
259.198	3.56
259.573	3.6
259.948	3.55
260.322	3.41
260.697	3.32
261.072	3.32
261.446	3.21
261.821	3.16
262.195	3.03
262.57	3.14
262.944	3.07
263.319	3.01
263.693	2.81
264.067	2.88
264.442	2.7
264.816	2.48
265.19	2.43
265.564	2.37
265.938	2.31
266.313	2
266.687	1.99
267.061	2.02
267.435	2.06
267.809	2.02
268.183	2.15
268.556	2.3
268.93	2.3
269.304	2.31
269.678	2.43
270.051	2.62
270.425	2.6
270.799	2.76
271.172	2.88
271.546	2.93
271.919	2.92
272.293	3.06
272.666	3.29
273.04	3.25
273.413	3.17
273.787	3.18
274.16	3.34
274.533	3.38
274.906	3.35
275.279	3.3
275.653	3.25
276.026	3.32
276.399	3.2
276.772	3.19
277.145	3.48
277.518	3.41
277.891	3.31
278.263	3.32
278.636	3.32
279.009	3.38
279.382	3.58
279.755	3.72
280.127	3.65
280.5	3.58
280.872	3.78
281.245	3.88
281.617	3.98
281.99	3.82
282.362	3.68
282.735	3.67
283.107	3.7
283.479	3.83
283.852	3.76
284.224	3.73
284.596	3.84
284.968	3.61
285.34	3.53
285.713	3.59
286.085	3.54
286.457	3.52
286.829	3.3
287.201	3.23
287.572	3.1
287.944	3.18
288.316	3.14
288.688	3.07
289.06	3.13
289.431	3
289.803	3.11
290.175	3.24
290.546	3.21
290.918	3.19
291.289	2.89
291.661	2.89
292.032	2.95
292.403	2.82
292.775	2.98
293.146	3.09
293.517	3.15
293.889	3.12
294.26	3.09
294.631	3.28
295.002	3.25
295.373	3.29
295.744	3.34
296.115	3.38
296.486	3.33
296.857	3.26
297.228	3.3
297.599	3.12
297.97	3.23
298.34	3.31
298.711	3.29
299.082	3.35
299.452	3.33
299.823	3.26
300.194	3.34
300.564	3.13
300.935	3.1
301.305	3.17
301.676	3.15
302.046	3.22
302.416	3.02
302.787	3.1
303.157	3.12
303.527	3.06
303.897	3.15
304.267	3.03
304.637	2.93
305.008	2.89
305.378	2.99
305.748	2.76
306.117	2.65
306.487	2.71
306.857	2.78
307.227	2.92
307.597	3.01
307.967	2.94
308.336	2.99
308.706	3.03
309.076	3.07
309.445	3.2
309.815	3.14
310.184	3.35
310.554	3.37
310.923	3.38
311.293	3.38
311.662	3.24
312.031	3.29
312.401	3.33
312.77	3.43
313.139	3.43
313.508	3.41
313.877	3.42
314.246	3.3
314.616	3.38
314.985	3.21
315.353	3.08
315.722	3.2
316.091	3.23
316.46	3.11
316.829	3.02
317.198	2.84
317.567	2.97
317.935	2.82
318.304	2.95
318.672	2.86
319.041	2.73
319.41	2.76
319.778	2.89
320.147	2.98
320.515	2.74
320.883	2.81
321.252	2.87
321.62	2.95
321.988	2.98
322.357	3.02
322.725	3.09
323.093	3.17
323.461	3.02
323.829	3.02
324.197	3.01
324.565	2.95
324.933	2.94
325.301	2.75
325.669	2.91
326.037	2.75
326.405	2.79
326.772	2.78
327.14	2.84
327.508	2.8
327.875	2.71
328.243	2.84
328.61	2.83
328.978	2.96
329.346	2.92
329.713	3.21
330.08	3.11
330.448	3.2
330.815	3.19
331.182	3.31
331.55	3.31
331.917	3.33
332.284	3.4
332.651	3.4
333.018	3.42
333.385	3.34
333.752	3.32
334.119	3.36
334.486	3.51
334.853	3.56
335.22	3.42
335.587	3.48
335.954	3.47
336.32	3.4
336.687	3.29
337.054	3.31
337.42	3.04
337.787	3.01
338.153	3.05
338.52	3.28
338.886	3.18
339.253	3.22
339.619	3.27
339.986	3.12
340.352	3.14
340.718	3.13
341.084	3.1
341.451	3.15
341.817	3.3
342.183	3.24
342.549	3.21
342.915	3.29
343.281	3.37
343.647	3.44
344.013	3.56
344.379	3.57
344.745	3.52
345.11	3.63
345.476	3.7
345.842	3.56
346.208	3.32
346.573	3.33
346.939	3.33
347.304	3.28
347.67	3.29
348.035	3.27
348.401	3.29
348.766	3.25
349.132	3.24
349.497	3.12
349.862	3
350.228	2.99
350.593	3.03
350.958	3.06
351.323	3
351.688	2.97
352.053	2.94
352.418	2.95
352.783	2.81
353.148	2.81
353.513	2.91
353.878	3.02
354.243	2.92
354.608	3.03
354.972	3.15
355.337	3.16
355.702	3.2
356.066	3.24
356.431	3.32
356.795	3.3
357.16	3.28
357.524	3.41
357.889	3.37
358.253	3.35
358.618	3.28
358.982	3.26
359.346	3.27
359.71	3.28
360.075	3.32
360.439	3.38
360.803	3.36
361.167	3.26
361.531	3.18
361.895	3.26
362.259	3.22
362.623	3.26
362.987	3.32
363.351	3.28
363.714	3.24
364.078	3.24
364.442	3.21
364.806	3.29
365.169	3.26
365.533	3.28
365.896	3.28
366.26	3.21
366.623	3.19
366.987	3.18
367.35	3.23
367.714	3.22
368.077	3.26
368.44	3.24
368.803	3.31
369.167	3.32
369.53	3.33
369.893	3.34
370.256	3.21
370.619	3.17
370.982	3.16
371.345	3.3
371.708	3.25
372.071	3.3
372.434	3.21
372.797	3.25
373.159	3.18
373.522	3.21
373.885	3.3
374.247	3.31
374.61	3.25
374.973	3.19
375.335	3.21
375.698	3.17
376.06	3.17
376.423	3.21
376.785	3.28
377.147	3.3
377.51	3.24
377.872	3.3
378.234	3.31
378.596	3.32
378.958	3.23
379.321	3.21
379.683	3.18
380.045	3.17
380.407	3.15
380.769	3.21
381.13	3.16
381.492	3.11
381.854	3.11
382.216	3.18
382.578	3.23
382.939	3.22
383.301	3.22
383.663	3.23
384.024	3.25
384.386	3.25
384.747	3.18
385.109	3.19
385.47	3.24
385.832	3.23
386.193	3.28
386.554	3.23
386.916	3.28
387.277	3.31
387.638	3.34
387.999	3.31
388.36	3.3
388.721	3.37
389.082	3.38
389.443	3.42
389.804	3.39
390.165	3.42
390.526	3.46
390.887	3.48
391.248	3.49
391.609	3.5
391.969	3.46
392.33	3.44
392.691	3.51
393.051	3.46
393.412	3.46
393.772	3.45
394.133	3.48
394.493	3.43
394.854	3.4
395.214	3.38
395.574	3.41
395.935	3.41
396.295	3.36
396.655	3.38
397.015	3.39
397.376	3.36
397.736	3.31
398.096	3.28
398.456	3.29
398.816	3.26
399.176	3.2
399.535	3.22
399.895	3.25
400.255	3.2
400.615	3.21
400.975	3.19
401.334	3.21
401.694	3.27
402.054	3.32
402.413	3.33
402.773	3.35
403.132	3.32
403.492	3.35
403.851	3.35
404.211	3.34
404.57	3.33
404.929	3.32
405.288	3.35
405.648	3.33
406.007	3.34
406.366	3.36
406.725	3.38
407.084	3.37
407.443	3.38
407.802	3.38
408.161	3.38
408.52	3.41
408.879	3.41
409.238	3.39
409.596	3.4
409.955	3.38
410.314	3.38
410.673	3.37
411.031	3.35
411.39	3.38
411.748	3.39
412.107	3.39
412.465	3.4
412.824	3.4
413.182	3.41
413.54	3.38
413.899	3.34
414.257	3.34
414.615	3.36
414.974	3.35
415.332	3.35
415.69	3.35
416.048	3.32
416.406	3.29
416.764	3.29
417.122	3.26
417.48	3.28
417.838	3.28
418.195	3.29
418.553	3.28
418.911	3.27
419.269	3.3
419.626	3.29
419.984	3.3
420.342	3.29
420.699	3.29
421.057	3.29
421.414	3.31
421.772	3.3
422.129	3.29
422.486	3.32
422.844	3.31
423.201	3.32
423.558	3.33
423.915	3.33
424.273	3.33
424.63	3.34
424.987	3.34
425.344	3.35
425.701	3.35
426.058	3.36
426.415	3.37
426.772	3.34
427.128	3.35
427.485	3.36
427.842	3.39
428.199	3.4
428.555	3.43
428.912	3.41
429.269	3.4
429.625	3.42
429.982	3.4
430.338	3.41
430.695	3.39
431.051	3.39
431.407	3.4
431.764	3.4
432.12	3.43
432.476	3.43
432.832	3.43
433.189	3.44
433.545	3.43
433.901	3.43
434.257	3.43
434.613	3.43
434.969	3.43
435.325	3.39
435.681	3.38
436.036	3.37
436.392	3.4
436.748	3.41
437.104	3.39
437.459	3.39
437.815	3.38
438.171	3.39
438.526	3.42
438.882	3.4
439.237	3.41
439.593	3.4
439.948	3.41
440.304	3.4
440.659	3.4
441.014	3.39
441.369	3.38
441.725	3.41
442.08	3.39
442.435	3.4
442.79	3.41
443.145	3.43
443.5	3.43
443.855	3.42
444.21	3.42
444.565	3.45
444.92	3.45
445.275	3.47
445.629	3.46
445.984	3.46
446.339	3.47
446.693	3.45
447.048	3.43
447.403	3.44
447.757	3.45
448.112	3.46
448.466	3.48
448.82	3.5
449.175	3.48
449.529	3.5
449.883	3.5
450.238	3.51
450.592	3.51
450.946	3.5
451.3	3.52
451.654	3.5
452.008	3.5
452.362	3.51
452.716	3.52
453.07	3.51
453.424	3.49
453.778	3.51
454.132	3.52
454.486	3.53
454.839	3.52
455.193	3.53
455.547	3.51
455.9	3.5
456.254	3.5
456.607	3.52
456.961	3.52
457.314	3.53
457.668	3.52
458.021	3.52
458.375	3.53
458.728	3.54
459.081	3.55
459.434	3.54
459.787	3.55
460.141	3.55
460.494	3.56
460.847	3.59
461.2	3.57
461.553	3.58
461.906	3.59
462.259	3.59
462.611	3.59
462.964	3.61
463.317	3.61
463.67	3.61
464.022	3.61
464.375	3.59
464.728	3.58
465.08	3.57
465.433	3.59
465.785	3.6
466.138	3.61
466.49	3.6
466.843	3.61
467.195	3.59
467.547	3.57
467.899	3.58
468.252	3.56
468.604	3.57
468.956	3.59
469.308	3.58
469.66	3.57
470.012	3.56
470.364	3.55
470.716	3.56
471.068	3.57
471.42	3.55
471.772	3.56
472.123	3.57
472.475	3.59
472.827	3.57
473.178	3.56
473.53	3.57
473.882	3.58
474.233	3.58
474.585	3.59
474.936	3.59
475.288	3.6
475.639	3.59
475.99	3.59
476.342	3.58
476.693	3.57
477.044	3.58
477.395	3.59
477.746	3.56
478.097	3.56
478.448	3.56
478.8	3.58
479.15	3.58
479.501	3.57
479.852	3.57
480.203	3.57
480.554	3.57
480.905	3.57
481.255	3.58
481.606	3.59
481.957	3.61
482.307	3.61
482.658	3.62
483.009	3.64
483.359	3.64
483.709	3.64
484.06	3.66
484.41	3.67
484.761	3.68
485.111	3.69
485.461	3.7
485.811	3.7
486.162	3.7
486.512	3.7
486.862	3.73
487.212	3.74
487.562	3.73
487.912	3.73
488.262	3.74
488.612	3.73
488.961	3.74
489.311	3.72
489.661	3.73
490.011	3.72
490.36	3.71
490.71	3.72
491.06	3.72
491.409	3.71
491.759	3.71
492.108	3.69
492.458	3.68
492.807	3.69
493.157	3.69
493.506	3.68
493.855	3.67
494.204	3.65
494.554	3.64
494.903	3.65
495.252	3.67
495.601	3.66
495.95	3.69
496.299	3.66
496.648	3.67
496.997	3.68
497.346	3.68
497.695	3.67
498.043	3.68
498.392	3.67
498.741	3.67
499.09	3.66
499.438	3.68
499.787	3.68
500.135	3.68
500.484	3.71
500.832	3.72
501.181	3.76
501.529	3.75
501.878	3.77
502.226	3.76
502.574	3.74
502.923	3.74
503.271	3.73
503.619	3.77
503.967	3.77
504.315	3.79
504.663	3.79
505.011	3.81
505.359	3.78
505.707	3.78
506.055	3.8
506.403	3.8
506.751	3.78
507.098	3.8
507.446	3.8
507.794	3.77
508.141	3.77
508.489	3.73
508.837	3.73
509.184	3.73
509.531	3.72
509.879	3.74
510.226	3.74
510.574	3.74
510.921	3.71
511.268	3.71
511.616	3.72
511.963	3.7
512.31	3.73
512.657	3.75
513.004	3.76
513.351	3.76
513.698	3.76
514.045	3.76
514.392	3.76
514.739	3.78
515.086	3.79
515.432	3.79
515.779	3.82
516.126	3.84
516.473	3.84
516.819	3.87
517.166	3.88
517.512	3.87
517.859	3.9
518.205	3.88
518.552	3.87
518.898	3.85
519.245	3.86
519.591	3.84
519.937	3.84
520.283	3.83
520.629	3.81
520.976	3.82
521.322	3.82
521.668	3.81
522.014	3.79
522.36	3.79
522.706	3.8
523.052	3.79
523.398	3.77
523.743	3.78
524.089	3.78
524.435	3.77
524.781	3.79
525.126	3.77
525.472	3.79
525.817	3.81
526.163	3.82
526.509	3.82
526.854	3.83
527.199	3.84
527.545	3.83
527.89	3.84
528.235	3.84
528.581	3.83
528.926	3.85
529.271	3.86
529.616	3.86
529.961	3.85
530.306	3.85
530.651	3.86
530.996	3.87
531.341	3.88
531.686	3.88
532.031	3.88
532.376	3.91
532.721	3.91
533.065	3.9
533.41	3.91
533.755	3.92
534.099	3.92
534.444	3.9
534.788	3.92
535.133	3.92
535.477	3.93
535.822	3.95
536.166	3.93
536.51	3.94
536.855	3.95
537.199	3.96
537.543	3.98
537.887	3.95
538.231	3.94
538.576	3.93
538.92	3.94
539.264	3.93
539.608	3.91
539.951	3.91
540.295	3.92
540.639	3.91
540.983	3.89
541.327	3.92
541.671	3.94
542.014	3.95
542.358	3.96
542.701	3.96
543.045	3.96
543.389	3.99
543.732	3.99
544.075	3.97
544.419	3.96
544.762	3.96
545.105	3.99
545.449	4
545.792	4.03
546.135	4.03
546.478	4.05
546.821	4.07
547.165	4.08
547.508	4.09
547.851	4.07
548.194	4.12
548.536	4.09
548.879	4.07
549.222	4.05
549.565	4.07
549.908	4.07
550.25	4.07
550.593	4.03
550.936	4.04
551.278	4.05
551.621	4.07
551.963	4.08
552.306	4.08
552.648	4.09
552.991	4.05
553.333	4.05
553.675	4.07
554.017	4.06
554.36	4.08
554.702	4.07
555.044	4.12
555.386	4.09
555.728	4.1
556.07	4.11
556.412	4.11
556.754	4.06
557.096	4.07
557.438	4.06
557.78	4.09
558.121	4.06
558.463	4.06
558.805	4.06
559.147	4.04
559.488	4.01
559.83	4.02
560.171	4.05
560.513	4.05
560.854	4
561.196	3.99
561.537	3.99
561.878	4.02
562.22	3.98
562.561	4
562.902	4.02
563.243	4.02
563.584	4.03
563.925	4.05
564.266	4.03
564.607	4.02
564.948	4.01
565.289	4.03
565.63	4.05
565.971	4.05
566.312	4.08
566.653	4.1
566.993	4.06
567.334	4.04
567.675	4.03
568.015	4.04
568.356	4.04
568.696	4.03
569.037	3.98
569.377	3.98
569.718	3.97
570.058	3.97
570.398	3.96
570.739	3.96
571.079	3.96
571.419	3.98
571.759	3.97
572.099	3.95
572.439	3.94
572.779	3.93
573.119	3.94
573.459	3.95
573.799	3.92
574.139	3.93
574.479	3.95
574.819	3.98
575.158	3.98
575.498	3.98
575.838	3.98
576.177	3.99
576.517	3.99
576.856	4
577.196	3.98
577.535	4
577.875	3.99
578.214	4
578.553	4
578.893	4.05
579.232	4.07
579.571	4.09
579.91	4.09
580.25	4.09
580.589	4.04
580.928	4.05
581.267	4.03
581.606	3.99
581.945	3.94
582.283	3.96
582.622	3.92
582.961	3.93
583.3	3.94
583.639	3.99
583.977	3.96
584.316	3.95
584.654	3.96
584.993	3.98
585.332	3.94
585.67	3.95
586.008	3.93
586.347	3.94
586.685	3.91
587.024	3.93
587.362	3.94
587.7	4
588.038	4.03
588.376	4.02
588.715	4.08
589.053	4.11
589.391	4.13
589.729	4.18
590.067	4.21
590.404	4.21
590.742	4.23
591.08	4.23
591.418	4.27
591.756	4.25
592.093	4.25
592.431	4.28
592.769	4.26
593.106	4.24
593.444	4.26
593.781	4.3
594.119	4.26
594.456	4.24
594.793	4.23
595.131	4.21
595.468	4.25
595.805	4.21
596.143	4.19
596.48	4.17
596.817	4.14
597.154	4.14
597.491	4.16
597.828	4.1
598.165	4.11
598.502	4.05
598.839	4.03
599.176	4.03
599.512	4
599.849	4.02
600.186	4.01
600.523	3.98
600.859	3.99
601.196	4.01
601.532	3.99
601.869	3.94
602.205	3.98
602.542	3.98
602.878	4.01
603.215	4.03
603.551	4
603.887	4.03
604.223	4
604.56	3.98
604.896	4.03
605.232	4.02
605.568	4.09
605.904	4.13
606.24	4.13
606.576	4.19
606.912	4.15
607.248	4.22
607.583	4.23
607.919	4.22
608.255	4.25
608.591	4.32
608.926	4.35
609.262	4.34
609.597	4.31
609.933	4.28
610.268	4.31
610.604	4.36
610.939	4.38
611.275	4.43
611.61	4.46
611.945	4.39
612.281	4.4
612.616	4.42
612.951	4.43
613.286	4.4
613.621	4.38
613.956	4.43
614.291	4.39
614.626	4.39
614.961	4.38
615.296	4.36
615.631	4.34
615.966	4.32
616.3	4.32
616.635	4.35
616.97	4.41
617.304	4.39
617.639	4.37
617.973	4.36
618.308	4.34
618.642	4.3
618.977	4.36
619.311	4.4
619.646	4.39
619.98	4.43
620.314	4.44
620.648	4.41
620.983	4.39
621.317	4.4
621.651	4.41
621.985	4.4
622.319	4.38
622.653	4.42
622.987	4.45
623.321	4.47
623.655	4.45
623.988	4.4
624.322	4.38
624.656	4.38
624.99	4.43
625.323	4.37
625.657	4.44
625.99	4.44
626.324	4.37
626.657	4.3
626.991	4.23
627.324	4.25
627.658	4.3
627.991	4.32
628.324	4.27
628.657	4.28
628.991	4.39
629.324	4.4
629.657	4.35
629.99	4.35
630.323	4.32
630.656	4.36
630.989	4.41
631.322	4.43
631.655	4.42
631.987	4.36
632.32	4.44
632.653	4.39
632.986	4.39
633.318	4.46
633.651	4.5
633.984	4.6
634.316	4.6
634.649	4.56
634.981	4.53
635.313	4.6
635.646	4.6
635.978	4.52
636.31	4.55
636.643	4.54
636.975	4.58
637.307	4.61
637.639	4.62
637.971	4.6
638.303	4.54
638.635	4.51
638.967	4.5
639.299	4.46
639.631	4.45
639.963	4.5
640.295	4.53
640.626	4.55
640.958	4.47
641.29	4.51
641.621	4.5
641.953	4.46
642.285	4.46
642.616	4.42
642.948	4.41
643.279	4.38
643.61	4.39
643.942	4.37
644.273	4.34
644.604	4.32
644.936	4.3
645.267	4.38
645.598	4.44
645.929	4.41
646.26	4.4
646.591	4.46
646.922	4.46
647.253	4.43
647.584	4.4
647.915	4.44
648.245	4.41
648.576	4.44
648.907	4.49
649.238	4.45
649.568	4.47
649.899	4.45
650.229	4.55
650.56	4.57
650.89	4.52
651.221	4.52
651.551	4.49
651.882	4.54
652.212	4.46
652.542	4.5
652.872	4.53
653.203	4.57
653.533	4.59
653.863	4.52
654.193	4.5
654.523	4.54
654.853	4.57
655.183	4.59
655.513	4.63
655.843	4.61
656.172	4.69
656.502	4.72
656.832	4.68
657.162	4.59
657.491	4.69
657.821	4.7
658.15	4.71
658.48	4.79
658.809	4.8
659.139	4.91
659.468	4.85
659.798	4.91
660.127	4.94
660.456	4.92
660.785	4.93
661.115	4.91
661.444	5.01
661.773	4.93
662.102	4.96
662.431	4.97
662.76	4.98
663.089	4.96
663.418	4.96
663.747	4.99
664.076	5.02
664.404	4.99
664.733	5.05
665.062	5.08
665.39	5.04
665.719	4.98
666.048	4.89
666.376	4.97
666.705	4.98
667.033	4.96
667.362	4.93
667.69	4.98
668.018	5.04
668.347	4.86
668.675	4.84
669.003	4.76
669.331	4.76
669.659	4.74
669.987	4.74
670.315	4.73
670.643	4.75
670.971	4.79
671.299	4.73
671.627	4.72
671.955	4.61
672.283	4.56
672.61	4.62
672.938	4.73
673.266	4.75
673.593	4.58
673.921	4.52
674.249	4.55
674.576	4.6
674.904	4.59
675.231	4.67
675.558	4.8
675.886	4.86
676.213	4.81
676.54	4.87
676.867	4.93
677.195	4.98
677.522	5.04
677.849	5.02
678.176	5
678.503	4.98
678.83	5.05
679.157	5.21
679.484	5.16
679.81	5.11
680.137	5.06
680.464	5.13
680.791	5.16
681.117	5.2
681.444	5.12
681.771	5.1
682.097	5.11
682.424	5.04
682.75	5.03
683.077	5.02
683.403	5.08
683.729	4.96
684.056	4.95
684.382	4.9
684.708	4.9
685.034	4.97
685.36	4.92
685.686	4.95
686.012	4.82
686.339	4.75
686.664	4.78
686.99	4.82
687.316	4.89
687.642	4.86
687.968	4.88
688.294	4.93
688.619	4.94
688.945	4.89
689.271	4.87
689.596	4.92
689.922	4.88
690.247	4.92
690.573	5.06
690.898	5.13
691.224	5.21
691.549	5.2
691.874	5.19
692.2	5.24
692.525	5.2
692.85	5.18
693.175	5.33
693.5	5.33
693.825	5.32
694.15	5.3
694.475	5.39
694.8	5.24
695.125	5.25
695.45	5.25
695.775	5.25
696.099	5.28
696.424	5.3
696.749	5.39
697.073	5.33
697.398	5.24
697.723	5.17
698.047	5.17
698.372	5.17
698.696	5.18
699.02	5.26
699.345	5.34
699.669	5.4
699.993	5.35
700.318	5.35
700.642	5.44
700.966	5.35
701.29	5.38
701.614	5.45
701.938	5.38
702.262	5.36
702.586	5.44
702.91	5.59
703.234	5.52
703.557	5.64
703.881	5.55
704.205	5.52
704.529	5.53
704.852	5.5
705.176	5.58
705.499	5.44
705.823	5.41
706.146	5.34
706.47	5.31
706.793	5.42
707.117	5.54
707.44	5.45
707.763	5.53
708.086	5.41
708.409	5.43
708.733	5.55
709.056	5.59
709.379	5.67
709.702	5.56
710.025	5.55
710.348	5.39
710.671	5.55
710.993	5.61
711.316	5.6
711.639	5.59
711.962	5.5
712.284	5.54
712.607	5.52
712.93	5.5
713.252	5.41
713.575	5.45
713.897	5.35
714.22	5.18
714.542	5.24
714.864	5.17
715.187	5.12
715.509	5.07
715.831	5.07
716.153	4.96
716.475	5.11
716.798	5.1
717.12	5.09
717.442	4.95
717.764	4.93
718.085	4.93
718.407	4.95
718.729	5.06
719.051	5.09
719.373	5.2
719.695	5.28
720.016	5.36
720.338	5.34
720.659	5.37
720.981	5.57
721.302	5.63
721.624	5.76
721.945	5.82
722.267	5.94
722.588	5.84
722.909	5.72
723.231	5.37
723.552	5.5
723.873	5.38
724.194	5.51
724.515	5.47
724.836	5.41
725.157	5.38
725.478	5.33
725.799	5.61
726.12	5.51
726.441	5.41
726.762	5.55
727.083	5.48
727.403	5.28
727.724	5.4
728.045	5.34
728.365	5.4
728.686	5.33
729.006	5.12
729.327	5.25
729.647	5.41
729.967	5.55
730.288	5.48
730.608	5.71
730.928	5.65
731.249	5.66
731.569	5.69
731.889	5.79
732.209	5.9
732.529	5.71
732.849	5.62
733.169	5.52
733.489	5.48
733.809	5.41
734.129	5.58
734.448	5.47
734.768	5.56
735.088	5.39
735.408	5.49
735.727	5.55
736.047	5.72
736.366	5.78
736.686	5.78
737.005	5.84
737.325	5.68
737.644	5.8
737.963	5.78
738.283	5.86
738.602	5.92
738.921	5.91
739.24	5.96
739.56	5.96
739.879	5.98
740.198	5.84
740.517	5.99
740.836	5.8
741.155	6.06
741.473	6.03
741.792	6.37
742.111	6.41
742.43	6.67
742.748	6.46
743.067	6.55
743.386	6.49
743.704	6.46
744.023	6.69
744.341	6.66
744.66	6.8
744.978	6.67
745.297	6.42
745.615	6.16
745.933	6.12
746.252	6.04
746.57	6.22
746.888	6.38
747.206	6.4
747.524	6.62
747.842	6.21
748.16	6.27
748.478	5.98
748.796	6.11
749.114	5.84
749.432	5.98
749.749	5.54
750.067	5.4
750.385	5.35
750.703	5.07
751.02	5.24
751.338	4.9
751.655	5.05
751.973	5.23
752.29	5.02
752.608	5.13
752.925	5.33
753.242	5.67
753.56	5.27
753.877	5.06
754.194	5.42
754.511	5.46
754.828	5.33
755.145	5.47
755.462	5.36
755.779	5.62
756.096	5.72
756.413	6.2
756.73	6.33
757.047	6.63
757.364	6.76
757.68	6.52
757.997	7
758.314	7.15
758.63	7.03
758.947	7.28
759.264	7.07
759.58	7.2
759.896	6.85
760.213	7.27
760.529	7.5
760.846	7.26
761.162	7.41
761.478	7.55
761.794	7.86
762.11	7.57
762.426	7.34
762.743	7.18
763.059	7.09
763.375	7.17
763.69	6.97
764.006	6.99
764.322	7.06
764.638	7.06
764.954	7
765.27	7.02
765.585	7.17
765.901	7.13
766.216	7.31
766.532	7.58
766.848	7.52
767.163	7.53
767.478	7.48
767.794	7.21
768.109	7.32
768.424	6.85
768.74	7.12
769.055	7.55
769.37	7.57
769.685	7.35
770	7.29
770.315	7.81
770.63	7.82
770.945	7.89
771.26	7.27
771.575	7.1
771.89	7.12
772.205	6.84
772.52	6.95
772.834	6.86
773.149	6.51
773.464	6.54
773.778	6.08
774.093	6.2
774.407	6.89
774.722	6.62
775.036	7.09
775.351	7.06
775.665	6.8
775.979	6.82
776.293	7.25
776.608	7.41
776.922	6.74
777.236	6.69
777.55	6.45
777.864	7.11
778.178	7.21
778.492	7.58
778.806	8.04
779.12	8.17
779.434	8.19
779.747	8.45
780.061	8.62
780.375	9.18
780.689	9.14
781.002	8.67
781.316	8.91
781.629	8.69
781.943	8.64
782.256	8.27
782.57	8.21
782.883	8.15
783.196	8.41
783.51	8.41
783.823	8.55
784.136	8.47
784.449	8.07
784.762	8.62
785.075	8.26
785.388	8.17
785.701	8.27
786.014	7.92
786.327	7.77
786.64	8.06
786.953	8.34
787.266	8.49
787.578	8.53
787.891	8.27
788.204	8.03
788.516	8.23
788.829	8.45
789.141	8.76
789.454	8.33
789.766	7.76
790.079	8.36
790.391	8.19
790.703	8.33
791.016	8.41
791.328	8.15
791.64	7.64
791.952	7.48
792.264	7.39
792.576	7.72
792.888	7.6
793.2	7.13
793.512	6.23
793.824	6.07
794.136	6.35
794.448	6.43
794.76	6.66
795.071	6.63
795.383	6.55
795.695	6.73
796.006	7.23
796.318	7.86
796.629	7.19
796.941	7.49
797.252	8.11
797.564	8.81
797.875	8.46
798.186	8.69
798.497	8.39
798.809	8.31
799.12	7.78
799.431	7.93
799.742	8.24
800.053	8.68
800.364	9.03
800.675	9.24
800.986	9.02
801.297	9.28
801.608	9.14
801.918	9.76
802.229	9.55
802.54	9.11
802.851	8.89
803.161	9.66
803.472	10.35
803.782	10.06
804.093	9.44
804.403	9.69
804.714	9.82
805.024	10.14
805.334	10.06
805.645	10.26
805.955	10.56
806.265	10.77
806.575	10.56
806.885	10.22
807.195	9.77
807.505	9.5
807.815	9.11
808.125	9.37
808.435	9.08
808.745	8.24
809.055	8.39
809.365	8.64
809.674	7.57
809.984	7.05
810.294	7.06
810.603	6.88
810.913	7.01
811.222	7.82
811.532	8.37
811.841	9.38
812.151	9.19
812.46	8.69
812.769	7.84
813.079	8.19
813.388	7.63
813.697	7.37
814.006	8.31
814.315	8.88
814.624	8.7
814.933	8.26
815.242	8.87
815.551	9.26
815.86	9.06
816.169	9.97
816.478	9.73
816.786	8.57
817.095	9.75
817.404	9.7
817.712	9.8
818.021	9.24
818.33	8.19
818.638	7.84
818.947	7.9
819.255	8.32
819.563	8.19
819.872	8.3
820.18	8.48
820.488	8.38
820.796	8.39
821.105	8.24
821.413	8.3
821.721	8.37
822.029	8.33
822.337	8.3
822.645	8.4
822.953	8.4
823.26	8.73
823.568	8.54
823.876	8.48
824.184	8.33
824.491	8.37
824.799	8.51
825.107	8.8
825.414	8.72
825.722	8.65
826.029	8.62
826.337	8.86
826.644	8.85
826.951	8.93
827.259	9.07
827.566	9.19
827.873	9.23
828.18	9.36
828.488	9.6
828.795	9.68
829.102	9.41
829.409	9.3
829.716	9.3
830.023	9.22
830.329	9
830.636	8.94
830.943	8.71
831.25	8.98
831.557	8.56
831.863	8.78
832.17	8.69
832.476	9.37
832.783	8.73
833.089	8.81
833.396	8.68
833.702	8.19
834.009	8.86
834.315	9.2
834.621	8.92
834.928	8.6
835.234	9.01
835.54	9.27
835.846	9.62
836.152	9.26
836.458	9.67
836.764	10.05
837.07	10.21
837.376	10.57
837.682	10.19
837.988	10.4
838.293	10.71
838.599	11.08
838.905	10.66
839.211	11.28
839.516	11.58
839.822	12.24
840.127	12.18
840.433	11.73
840.738	12.03
841.044	12.39
841.349	12.24
841.654	10.99
841.959	11.13
842.265	10.87
842.57	11.67
842.875	11.36
843.18	11.21
843.485	11.6
843.79	11.59
844.095	11.7
844.4	12.06
844.705	11.54
845.01	11.4
845.315	10.9
845.619	11.08
845.924	10.21
846.229	8.08
846.533	8.22
846.838	7.48
847.142	6.67
847.447	4.62
847.751	4.88
848.056	6.5
848.36	6.67
848.664	6.58
848.969	6.83
849.273	6.11
849.577	6.12
849.881	6.33
850.185	5.74
850.489	5.87
850.794	6.22
851.097	6.49
851.401	5.43
851.705	5.4
852.009	6.43
852.313	6.34
852.617	8.23
852.92	9.41
853.224	9.39
853.528	9.88
853.831	13.5
854.135	15.79
854.438	14.11
854.742	15.4
855.045	13.5
855.349	13.7
855.652	16.3
855.955	18.73
856.259	20.01
856.562	20.65
856.865	22.49
857.168	22.66
857.471	22.37
857.774	24.24
858.077	26.45
858.38	25.58
858.683	25.41
858.986	27.06
859.289	26.67
859.592	28.57
859.894	27.12
860.197	25.01
860.5	24.84
860.802	23.94
861.105	25.11
861.407	27.55
861.71	26.46
862.012	23.07
862.315	20.03
862.617	17.93
862.919	16.66
863.222	14.23
863.524	10.27
863.826	8.68
864.128	9.57
864.43	8.22
864.732	6.23
865.034	6.87
865.336	7.71
865.638	8.78
865.94	8.56
866.242	5.59
866.544	8.46
866.846	6.3
867.147	10.72
867.449	7.2
867.751	7.43
868.052	5.79
868.354	7.4
868.655	5.48
868.957	7.24
869.258	9.82
869.56	11.01
869.861	14.07
870.162	15.73
870.463	12.47
870.765	12.24
871.066	13.01
871.367	11.65
871.668	7.16
871.969	6.54
872.27	6.6
872.571	10.89
872.872	9.94
873.173	7.08
873.473	3.39
873.774	5
874.075	5.26
874.376	5.79
874.676	5.39
874.977	9
875.277	7.85
875.578	8.24
875.878	7.52
876.179	7.22
876.479	7.48
876.78	9.35
877.08	9.44
877.38	10.13
877.68	13.01
877.981	15.33
878.281	15.35
878.581	13.69
