Data from MVZ_BU136690_Reflection_00009.txt Node
Date: Tue Nov 19 12:08:05 EST 2019
User: vgr7
Spectrometer: USB2G7710
Scans to average: 3
Trigger mode: 4
Integration Time (sec): 2.000000E-2
Electric dark correction enabled: true
Boxcar width: 10
XAxis mode: Wavelengths
Number of Pixels in Spectrum: 2048
>>>>>Begin Spectral Data<<<<<
177.721	62.41
178.105	-13.14
178.488	-302.54
178.871	-60
179.254	-40.91
179.636	1.19
180.019	262.84
180.402	68.18
180.785	-278.57
181.168	144.39
181.55	41.93
181.933	43.72
182.316	48.06
182.698	41.55
183.081	190.12
183.463	169.03
183.846	128.67
184.228	379.89
184.611	-296.74
184.993	-75
185.376	215.85
185.758	-34.62
186.14	-30
186.522	-115.12
186.904	93.75
187.287	96.95
187.669	-18.29
188.051	225
188.433	151.83
188.815	276.72
189.197	186.04
189.579	46.34
189.961	41.44
190.342	17.86
190.724	16.78
191.106	16.79
191.488	7.96
191.869	12.01
192.251	14.09
192.633	7.95
193.014	14.1
193.396	13.33
193.777	11.31
194.159	-26.05
194.54	-25.19
194.922	-42.4
195.303	-59.33
195.684	-44.95
196.065	-57.91
196.447	-64.54
196.828	-67.42
197.209	-91
197.59	-89.95
197.971	-99.07
198.352	-103.69
198.733	-127.98
199.114	-180.58
199.495	-217.28
199.876	-287.7
200.257	-337.5
200.638	-237.26
201.018	-264.44
201.399	-207.57
201.78	-177.42
202.16	-184.24
202.541	-203.01
202.922	-258.3
203.302	-249.63
203.683	-387.93
204.063	-305.17
204.444	-255.34
204.824	-436.96
205.204	-116.76
205.585	-159.7
205.965	-113.56
206.345	-128.67
206.725	-40.86
207.106	16.25
207.486	20.45
207.866	29.88
208.246	78.88
208.626	70.08
209.006	189.53
209.386	134.86
209.766	155.77
210.145	89.31
210.525	98.94
210.905	82.83
211.285	64.03
211.664	55.33
212.044	29.63
212.424	30.13
212.803	47.31
213.183	35.5
213.562	2.69
213.942	3.72
214.321	3.94
214.701	-19.75
215.08	-26.2
215.459	-37.72
215.838	-34.83
216.218	-45.56
216.597	-33.1
216.976	-70.11
217.355	-53.98
217.734	-70.92
218.113	-84.32
218.492	-81.72
218.871	-81.54
219.25	-61.65
219.629	-98.38
220.008	-91.89
220.387	-103.93
220.766	-73.77
221.144	-82.53
221.523	-79.22
221.902	-70.99
222.28	-41.6
222.659	-1.63
223.037	0.5
223.416	0.72
223.794	-10.61
224.173	-13.58
224.551	-18.06
224.929	-2.06
225.308	-5.4
225.686	1.6
226.064	5.52
226.442	-1.11
226.821	-4.79
227.199	-10.97
227.577	-4.74
227.955	-1.7
228.333	0.62
228.711	-0.73
229.089	-0.46
229.467	-0.93
229.845	-3.94
230.222	-3.11
230.6	-9.66
230.978	-6.95
231.356	-4.74
231.733	-1.17
232.111	-2.25
232.488	0.86
232.866	-0.3
233.243	-0.55
233.621	-0.02
233.998	0.34
234.376	0.92
234.753	3.06
235.13	5.5
235.508	3.93
235.885	2.99
236.262	3.17
236.639	3.39
237.016	2.15
237.393	4.29
237.77	4.83
238.147	3.93
238.524	4.17
238.901	1.99
239.278	1.25
239.655	1.39
240.032	2.84
240.409	2.79
240.785	3.19
241.162	3.18
241.539	3.33
241.915	3.15
242.292	4.14
242.668	4.1
243.045	4.09
243.421	4.97
243.798	4.88
244.174	4.88
244.551	4.84
244.927	5.03
245.303	4.41
245.679	4.53
246.056	4.72
246.432	4.99
246.808	5.27
247.184	5.54
247.56	5.39
247.936	5.07
248.312	5.18
248.688	5.41
249.064	5.14
249.44	4.91
249.815	4.8
250.191	4.68
250.567	4.79
250.943	4.58
251.318	4.05
251.694	3.82
252.069	3.76
252.445	3.54
252.82	3.83
253.196	4.01
253.571	3.65
253.947	3.31
254.322	3.19
254.697	3.21
255.073	3.19
255.448	3.23
255.823	3.66
256.198	3.6
256.573	3.24
256.948	3.57
257.323	3.82
257.698	3.97
258.073	3.81
258.448	3.67
258.823	3.72
259.198	3.68
259.573	3.66
259.948	3.74
260.322	3.53
260.697	3.31
261.072	3.48
261.446	3.54
261.821	3.81
262.195	3.9
262.57	3.89
262.944	4
263.319	4.21
263.693	3.95
264.067	3.77
264.442	3.76
264.816	3.84
265.19	3.78
265.564	3.64
265.938	3.52
266.313	3.33
266.687	3.42
267.061	3.71
267.435	3.78
267.809	3.63
268.183	3.95
268.556	3.73
268.93	3.66
269.304	3.64
269.678	3.7
270.051	3.6
270.425	3.61
270.799	3.32
271.172	3.19
271.546	3.11
271.919	3.05
272.293	3.27
272.666	3.02
273.04	3.13
273.413	3.19
273.787	3.39
274.16	3.58
274.533	3.54
274.906	3.49
275.279	3.6
275.653	3.65
276.026	3.67
276.399	3.85
276.772	4.04
277.145	4.05
277.518	3.86
277.891	3.63
278.263	3.81
278.636	4.05
279.009	3.85
279.382	4.07
279.755	4.23
280.127	4.15
280.5	4.39
280.872	4.29
281.245	4.32
281.617	4.18
281.99	4.24
282.362	4.24
282.735	4.17
283.107	3.93
283.479	3.8
283.852	3.67
284.224	3.84
284.596	3.61
284.968	3.63
285.34	3.54
285.713	3.7
286.085	3.56
286.457	3.52
286.829	3.63
287.201	3.57
287.572	3.63
287.944	3.52
288.316	3.45
288.688	3.49
289.06	3.59
289.431	3.68
289.803	3.69
290.175	3.67
290.546	3.78
290.918	3.92
291.289	3.91
291.661	3.99
292.032	3.81
292.403	3.9
292.775	4.04
293.146	4.35
293.517	4.43
293.889	4.59
294.26	4.78
294.631	4.83
295.002	4.83
295.373	4.87
295.744	4.87
296.115	5.07
296.486	5.11
296.857	5.19
297.228	5.3
297.599	5.17
297.97	5.33
298.34	5.38
298.711	5.37
299.082	5.53
299.452	5.54
299.823	5.66
300.194	5.72
300.564	5.7
300.935	5.76
301.305	5.77
301.676	5.63
302.046	5.5
302.416	5.63
302.787	5.84
303.157	5.89
303.527	6.16
303.897	6.15
304.267	6.18
304.637	6.02
305.008	6.03
305.378	6.24
305.748	6.19
306.117	6.18
306.487	6.52
306.857	6.67
307.227	6.82
307.597	6.86
307.967	6.99
308.336	7.03
308.706	6.88
309.076	7.06
309.445	7.36
309.815	7.47
310.184	7.49
310.554	7.54
310.923	7.56
311.293	7.64
311.662	7.66
312.031	7.72
312.401	7.76
312.77	7.74
313.139	7.88
313.508	8.04
313.877	8.05
314.246	7.95
314.616	8.13
314.985	8.26
315.353	8.48
315.722	8.49
316.091	8.72
316.46	8.87
316.829	8.88
317.198	8.93
317.567	9.14
317.935	9.13
318.304	9.28
318.672	9.44
319.041	9.57
319.41	9.63
319.778	9.83
320.147	10.01
320.515	10.18
320.883	10.07
321.252	10.13
321.62	10.39
321.988	10.55
322.357	10.45
322.725	10.48
323.093	10.42
323.461	10.62
323.829	10.57
324.197	10.6
324.565	10.79
324.933	10.58
325.301	10.45
325.669	10.62
326.037	10.58
326.405	10.61
326.772	10.62
327.14	10.57
327.508	10.53
327.875	10.73
328.243	10.84
328.61	11.02
328.978	10.92
329.346	10.84
329.713	10.77
330.08	10.86
330.448	10.86
330.815	10.98
331.182	11.07
331.55	11.15
331.917	11.31
332.284	11.29
332.651	11.54
333.018	11.58
333.385	11.54
333.752	11.55
334.119	11.55
334.486	11.68
334.853	11.76
335.22	11.77
335.587	11.83
335.954	11.85
336.32	11.86
336.687	12.07
337.054	12.13
337.42	12.25
337.787	12.35
338.153	12.39
338.52	12.48
338.886	12.45
339.253	12.39
339.619	12.39
339.986	12.3
340.352	12.32
340.718	12.31
341.084	12.42
341.451	12.51
341.817	12.68
342.183	12.57
342.549	12.71
342.915	12.74
343.281	12.66
343.647	12.58
344.013	12.53
344.379	12.4
344.745	12.41
345.11	12.29
345.476	12.25
345.842	12.35
346.208	12.33
346.573	12.35
346.939	12.53
347.304	12.51
347.67	12.52
348.035	12.43
348.401	12.46
348.766	12.44
349.132	12.49
349.497	12.44
349.862	12.38
350.228	12.35
350.593	12.43
350.958	12.47
351.323	12.5
351.688	12.51
352.053	12.65
352.418	12.66
352.783	12.75
353.148	12.79
353.513	12.72
353.878	12.74
354.243	12.67
354.608	12.65
354.972	12.67
355.337	12.77
355.702	12.77
356.066	12.83
356.431	12.85
356.795	12.83
357.16	12.82
357.524	12.79
357.889	12.73
358.253	12.65
358.618	12.62
358.982	12.61
359.346	12.59
359.71	12.44
360.075	12.42
360.439	12.35
360.803	12.29
361.167	12.26
361.531	12.16
361.895	12.2
362.259	12.14
362.623	12.05
362.987	11.94
363.351	11.91
363.714	11.91
364.078	11.83
364.442	11.82
364.806	11.71
365.169	11.68
365.533	11.66
365.896	11.63
366.26	11.56
366.623	11.52
366.987	11.43
367.35	11.54
367.714	11.49
368.077	11.44
368.44	11.3
368.803	11.2
369.167	11.12
369.53	11.05
369.893	10.97
370.256	10.88
370.619	10.84
370.982	10.78
371.345	10.67
371.708	10.65
372.071	10.49
372.434	10.4
372.797	10.38
373.159	10.24
373.522	10.14
373.885	9.99
374.247	9.84
374.61	9.87
374.973	9.71
375.335	9.65
375.698	9.52
376.06	9.49
376.423	9.51
376.785	9.48
377.147	9.38
377.51	9.28
377.872	9.26
378.234	9.16
378.596	9.06
378.958	8.98
379.321	8.86
379.683	8.83
380.045	8.74
380.407	8.63
380.769	8.58
381.13	8.5
381.492	8.44
381.854	8.41
382.216	8.3
382.578	8.27
382.939	8.19
383.301	8.16
383.663	8.14
384.024	7.97
384.386	7.92
384.747	7.83
385.109	7.81
385.47	7.75
385.832	7.71
386.193	7.73
386.554	7.64
386.916	7.59
387.277	7.47
387.638	7.44
387.999	7.4
388.36	7.34
388.721	7.27
389.082	7.25
389.443	7.21
389.804	7.2
390.165	7.11
390.526	7.02
390.887	6.98
391.248	6.91
391.609	6.89
391.969	6.85
392.33	6.81
392.691	6.76
393.051	6.68
393.412	6.63
393.772	6.54
394.133	6.49
394.493	6.41
394.854	6.4
395.214	6.36
395.574	6.29
395.935	6.25
396.295	6.18
396.655	6.12
397.015	6.06
397.376	5.98
397.736	5.93
398.096	5.9
398.456	5.89
398.816	5.82
399.176	5.77
399.535	5.65
399.895	5.61
400.255	5.58
400.615	5.56
400.975	5.52
401.334	5.49
401.694	5.49
402.054	5.46
402.413	5.43
402.773	5.37
403.132	5.36
403.492	5.35
403.851	5.33
404.211	5.3
404.57	5.29
404.929	5.26
405.288	5.25
405.648	5.22
406.007	5.15
406.366	5.1
406.725	5.11
407.084	5.12
407.443	5.11
407.802	5.06
408.161	5.01
408.52	5
408.879	4.96
409.238	4.93
409.596	4.94
409.955	4.89
410.314	4.9
410.673	4.86
411.031	4.84
411.39	4.87
411.748	4.86
412.107	4.8
412.465	4.77
412.824	4.73
413.182	4.72
413.54	4.72
413.899	4.71
414.257	4.64
414.615	4.61
414.974	4.6
415.332	4.59
415.69	4.59
416.048	4.57
416.406	4.56
416.764	4.56
417.122	4.51
417.48	4.52
417.838	4.5
418.195	4.48
418.553	4.45
418.911	4.4
419.269	4.38
419.626	4.36
419.984	4.35
420.342	4.32
420.699	4.29
421.057	4.28
421.414	4.28
421.772	4.27
422.129	4.25
422.486	4.23
422.844	4.22
423.201	4.19
423.558	4.16
423.915	4.16
424.273	4.14
424.63	4.15
424.987	4.11
425.344	4.09
425.701	4.08
426.058	4.06
426.415	4.04
426.772	4.03
427.128	4.03
427.485	4.01
427.842	4
428.199	3.99
428.555	3.96
428.912	3.93
429.269	3.92
429.625	3.92
429.982	3.88
430.338	3.84
430.695	3.83
431.051	3.83
431.407	3.81
431.764	3.78
432.12	3.78
432.476	3.78
432.832	3.8
433.189	3.8
433.545	3.81
433.901	3.83
434.257	3.84
434.613	3.82
434.969	3.83
435.325	3.85
435.681	3.86
436.036	3.86
436.392	3.87
436.748	3.88
437.104	3.87
437.459	3.88
437.815	3.9
438.171	3.91
438.526	3.91
438.882	3.9
439.237	3.9
439.593	3.92
439.948	3.91
440.304	3.9
440.659	3.9
441.014	3.9
441.369	3.91
441.725	3.9
442.08	3.9
442.435	3.89
442.79	3.87
443.145	3.87
443.5	3.87
443.855	3.86
444.21	3.85
444.565	3.88
444.92	3.88
445.275	3.87
445.629	3.86
445.984	3.84
446.339	3.85
446.693	3.85
447.048	3.8
447.403	3.8
447.757	3.79
448.112	3.78
448.466	3.76
448.82	3.73
449.175	3.71
449.529	3.71
449.883	3.71
450.238	3.71
450.592	3.68
450.946	3.69
451.3	3.7
451.654	3.67
452.008	3.66
452.362	3.65
452.716	3.64
453.07	3.63
453.424	3.63
453.778	3.61
454.132	3.59
454.486	3.62
454.839	3.62
455.193	3.62
455.547	3.61
455.9	3.64
456.254	3.65
456.607	3.64
456.961	3.62
457.314	3.6
457.668	3.61
458.021	3.61
458.375	3.59
458.728	3.59
459.081	3.61
459.434	3.58
459.787	3.59
460.141	3.59
460.494	3.61
460.847	3.61
461.2	3.62
461.553	3.65
461.906	3.65
462.259	3.65
462.611	3.65
462.964	3.68
463.317	3.66
463.67	3.68
464.022	3.7
464.375	3.72
464.728	3.74
465.08	3.75
465.433	3.78
465.785	3.8
466.138	3.84
466.49	3.85
466.843	3.89
467.195	3.89
467.547	3.91
467.899	3.93
468.252	3.96
468.604	3.97
468.956	3.99
469.308	4
469.66	4.02
470.012	4.06
470.364	4.07
470.716	4.08
471.068	4.1
471.42	4.13
471.772	4.14
472.123	4.16
472.475	4.17
472.827	4.2
473.178	4.21
473.53	4.19
473.882	4.2
474.233	4.18
474.585	4.19
474.936	4.19
475.288	4.17
475.639	4.17
475.99	4.16
476.342	4.15
476.693	4.15
477.044	4.15
477.395	4.11
477.746	4.1
478.097	4.12
478.448	4.09
478.8	4.06
479.15	4.06
479.501	4.06
479.852	4.05
480.203	4.03
480.554	4.01
480.905	4
481.255	3.99
481.606	4
481.957	4
482.307	3.99
482.658	4
483.009	3.99
483.359	3.98
483.709	3.97
484.06	3.97
484.41	3.96
484.761	3.96
485.111	3.95
485.461	3.94
485.811	3.94
486.162	3.94
486.512	3.94
486.862	3.93
487.212	3.92
487.562	3.92
487.912	3.93
488.262	3.93
488.612	3.92
488.961	3.93
489.311	3.93
489.661	3.93
490.011	3.93
490.36	3.94
490.71	3.95
491.06	3.96
491.409	3.97
491.759	3.98
492.108	3.98
492.458	4
492.807	4.02
493.157	4.04
493.506	4.07
493.855	4.09
494.204	4.12
494.554	4.17
494.903	4.21
495.252	4.23
495.601	4.27
495.95	4.31
496.299	4.34
496.648	4.37
496.997	4.42
497.346	4.47
497.695	4.54
498.043	4.6
498.392	4.67
498.741	4.72
499.09	4.8
499.438	4.89
499.787	4.95
500.135	5.01
500.484	5.07
500.832	5.15
501.181	5.24
501.529	5.32
501.878	5.41
502.226	5.48
502.574	5.59
502.923	5.68
503.271	5.8
503.619	5.95
503.967	6.11
504.315	6.19
504.663	6.33
505.011	6.45
505.359	6.59
505.707	6.69
506.055	6.82
506.403	6.95
506.751	7.08
507.098	7.23
507.446	7.4
507.794	7.59
508.141	7.76
508.489	7.93
508.837	8.11
509.184	8.26
509.531	8.43
509.879	8.6
510.226	8.79
510.574	8.95
510.921	9.09
511.268	9.23
511.616	9.44
511.963	9.64
512.31	9.82
512.657	9.99
513.004	10.2
513.351	10.42
513.698	10.63
514.045	10.88
514.392	11.11
514.739	11.33
515.086	11.51
515.432	11.72
515.779	11.92
516.126	12.13
516.473	12.32
516.819	12.53
517.166	12.7
517.512	12.89
517.859	13.1
518.205	13.28
518.552	13.45
518.898	13.63
519.245	13.8
519.591	13.97
519.937	14.19
520.283	14.38
520.629	14.55
520.976	14.74
521.322	14.96
521.668	15.15
522.014	15.36
522.36	15.62
522.706	15.85
523.052	16.15
523.398	16.4
523.743	16.73
524.089	17.03
524.435	17.29
524.781	17.54
525.126	17.76
525.472	17.99
525.817	18.2
526.163	18.41
526.509	18.59
526.854	18.74
527.199	18.87
527.545	19.03
527.89	19.2
528.235	19.39
528.581	19.57
528.926	19.74
529.271	19.91
529.616	20.07
529.961	20.26
530.306	20.42
530.651	20.61
530.996	20.82
531.341	21.03
531.686	21.27
532.031	21.47
532.376	21.69
532.721	21.95
533.065	22.22
533.41	22.47
533.755	22.75
534.099	23.05
534.444	23.33
534.788	23.62
535.133	23.92
535.477	24.2
535.822	24.49
536.166	24.83
536.51	25.22
536.855	25.56
537.199	25.95
537.543	26.34
537.887	26.7
538.231	27.04
538.576	27.38
538.92	27.76
539.264	28.14
539.608	28.48
539.951	28.78
540.295	29.06
540.639	29.34
540.983	29.63
541.327	29.89
541.671	30.2
542.014	30.49
542.358	30.76
542.701	31.02
543.045	31.28
543.389	31.54
543.732	31.77
544.075	32.08
544.419	32.34
544.762	32.62
545.105	32.93
545.449	33.26
545.792	33.63
546.135	33.94
546.478	34.31
546.821	34.71
547.165	35.09
547.508	35.47
547.851	35.87
548.194	36.22
548.536	36.62
548.879	36.97
549.222	37.33
549.565	37.72
549.908	38.11
550.25	38.5
550.593	38.88
550.936	39.27
551.278	39.61
551.621	40.03
551.963	40.43
552.306	40.74
552.648	41.13
552.991	41.47
553.333	41.81
553.675	42.13
554.017	42.41
554.36	42.72
554.702	43.03
555.044	43.34
555.386	43.68
555.728	44.04
556.07	44.34
556.412	44.6
556.754	44.85
557.096	45.1
557.438	45.42
557.78	45.75
558.121	46.07
558.463	46.36
558.805	46.58
559.147	46.86
559.488	47.19
559.83	47.38
560.171	47.59
560.513	47.92
560.854	48.14
561.196	48.42
561.537	48.72
561.878	49.03
562.22	49.26
562.561	49.39
562.902	49.58
563.243	49.83
563.584	50.14
563.925	50.28
564.266	50.54
564.607	50.74
564.948	50.92
565.289	51.07
565.63	51.31
565.971	51.52
566.312	51.68
566.653	51.92
566.993	52.19
567.334	52.39
567.675	52.51
568.015	52.65
568.356	52.86
568.696	53
569.037	53.12
569.377	53.29
569.718	53.53
570.058	53.64
570.398	53.77
570.739	53.93
571.079	54.22
571.419	54.35
571.759	54.46
572.099	54.56
572.439	54.69
572.779	54.79
573.119	54.88
573.459	55.03
573.799	55.08
574.139	55.16
574.479	55.27
574.819	55.41
575.158	55.56
575.498	55.63
575.838	55.85
576.177	55.94
576.517	56.1
576.856	56.23
577.196	56.41
577.535	56.62
577.875	56.7
578.214	56.8
578.553	56.88
578.893	57.04
579.232	57.25
579.571	57.44
579.91	57.58
580.25	57.77
580.589	57.91
580.928	58.1
581.267	58.2
581.606	58.35
581.945	58.4
582.283	58.53
582.622	58.67
582.961	58.66
583.3	58.78
583.639	58.79
583.977	58.94
584.316	59.13
584.654	59.23
584.993	59.37
585.332	59.5
585.67	59.65
586.008	59.67
586.347	59.7
586.685	59.81
587.024	59.82
587.362	59.86
587.7	60.04
588.038	60.11
588.376	60.2
588.715	60.29
589.053	60.44
589.391	60.42
589.729	60.54
590.067	60.51
590.404	60.6
590.742	60.65
591.08	60.64
591.418	60.64
591.756	60.61
592.093	60.64
592.431	60.69
592.769	60.77
593.106	60.87
593.444	60.95
593.781	60.96
594.119	61.13
594.456	61.22
594.793	61.14
595.131	61.15
595.468	61.16
595.805	61.21
596.143	61.23
596.48	61.38
596.817	61.37
597.154	61.53
597.491	61.55
597.828	61.69
598.165	61.77
598.502	61.84
598.839	61.86
599.176	61.89
599.512	61.91
599.849	61.91
600.186	61.96
600.523	62.09
600.859	62.06
601.196	62.1
601.532	62.12
601.869	62.14
602.205	62.24
602.542	62.28
602.878	62.29
603.215	62.37
603.551	62.41
603.887	62.44
604.223	62.46
604.56	62.51
604.896	62.43
605.232	62.45
605.568	62.43
605.904	62.5
606.24	62.59
606.576	62.63
606.912	62.7
607.248	62.75
607.583	62.7
607.919	62.82
608.255	62.84
608.591	62.87
608.926	62.95
609.262	62.93
609.597	62.96
609.933	63.07
610.268	63.03
610.604	63.03
610.939	63.03
611.275	63.11
611.61	63.18
611.945	63.33
612.281	63.32
612.616	63.39
612.951	63.46
613.286	63.53
613.621	63.53
613.956	63.57
614.291	63.54
614.626	63.56
614.961	63.58
615.296	63.63
615.631	63.69
615.966	63.77
616.3	63.88
616.635	63.97
616.97	64.03
617.304	64.05
617.639	64.03
617.973	64.01
618.308	63.95
618.642	63.92
618.977	63.93
619.311	64.02
619.646	64.01
619.98	64.04
620.314	63.94
620.648	64.01
620.983	63.95
621.317	64.05
621.651	64.08
621.985	64.1
622.319	64.08
622.653	64.15
622.987	64.2
623.321	64.1
623.655	64.12
623.988	64.02
624.322	64.12
624.656	64.15
624.99	64.23
625.323	64.26
625.657	64.3
625.99	64.36
626.324	64.39
626.657	64.42
626.991	64.44
627.324	64.51
627.658	64.49
627.991	64.6
628.324	64.65
628.657	64.77
628.991	64.81
629.324	64.87
629.657	64.74
629.99	64.71
630.323	64.69
630.656	64.63
630.989	64.61
631.322	64.62
631.655	64.68
631.987	64.67
632.32	64.65
632.653	64.67
632.986	64.62
633.318	64.56
633.651	64.53
633.984	64.59
634.316	64.64
634.649	64.7
634.981	64.69
635.313	64.67
635.646	64.59
635.978	64.58
636.31	64.49
636.643	64.63
636.975	64.63
637.307	64.83
637.639	64.83
637.971	64.9
638.303	64.76
638.635	64.73
638.967	64.83
639.299	64.93
639.631	64.95
639.963	64.97
640.295	64.97
640.626	64.89
640.958	64.88
641.29	64.73
641.621	64.69
641.953	64.73
642.285	64.58
642.616	64.66
642.948	64.62
643.279	64.79
643.61	64.69
643.942	64.71
644.273	64.63
644.604	64.71
644.936	64.81
645.267	64.86
645.598	64.98
645.929	64.84
646.26	64.8
646.591	64.75
646.922	64.87
647.253	64.93
647.584	65.12
647.915	65.05
648.245	65.09
648.576	65.04
648.907	65.04
649.238	65.09
649.568	64.96
649.899	64.9
650.229	64.84
650.56	64.88
650.89	64.82
651.221	64.85
651.551	64.82
651.882	64.84
652.212	64.8
652.542	64.61
652.872	64.72
653.203	64.74
653.533	64.85
653.863	64.78
654.193	64.79
654.523	64.65
654.853	64.69
655.183	64.72
655.513	64.93
655.843	65.03
656.172	65.14
656.502	65.24
656.832	65.42
657.162	65.46
657.491	65.52
657.821	65.63
658.15	65.67
658.48	65.7
658.809	65.67
659.139	65.77
659.468	65.97
659.798	66.06
660.127	65.97
660.456	65.84
660.785	65.82
661.115	65.76
661.444	65.88
661.773	65.95
662.102	66.01
662.431	65.88
662.76	65.75
663.089	65.58
663.418	65.61
663.747	65.52
664.076	65.42
664.404	65.4
664.733	65.35
665.062	65.31
665.39	65.17
665.719	65.16
666.048	65.4
666.376	65.25
666.705	65.1
667.033	65.1
667.362	65.25
667.69	65.33
668.018	65.53
668.347	65.44
668.675	65.42
669.003	65.58
669.331	65.62
669.659	65.59
669.987	65.84
670.315	65.82
670.643	65.84
670.971	65.88
671.299	65.9
671.627	65.94
671.955	65.94
672.283	66.13
672.61	66.16
672.938	65.94
673.266	65.98
673.593	66.05
673.921	66.29
674.249	66.24
674.576	66.12
674.904	66.07
675.231	66.18
675.558	66.37
675.886	66.19
676.213	66.09
676.54	66.27
676.867	66.23
677.195	66.41
677.522	66.24
677.849	66.25
678.176	66.08
678.503	65.98
678.83	66
679.157	65.96
679.484	65.89
679.81	65.79
680.137	65.87
680.464	65.96
680.791	65.87
681.117	65.94
681.444	66.05
681.771	66.08
682.097	65.99
682.424	65.72
682.75	65.77
683.077	65.94
683.403	65.7
683.729	65.62
684.056	65.48
684.382	65.63
684.708	65.58
685.034	65.84
685.36	65.9
685.686	65.86
686.012	65.99
686.339	66.06
686.664	66.22
686.99	66.19
687.316	66.18
687.642	66.27
687.968	66.19
688.294	66.28
688.619	66.14
688.945	66.38
689.271	66.61
689.596	66.7
689.922	66.64
690.247	66.85
690.573	66.79
690.898	66.74
691.224	66.83
691.549	66.89
691.874	66.87
692.2	66.89
692.525	67.04
692.85	67.11
693.175	67.09
693.5	67.13
693.825	66.98
694.15	66.93
694.475	66.81
694.8	66.96
695.125	66.99
695.45	67.08
695.775	66.91
696.099	66.77
696.424	66.74
696.749	66.79
697.073	66.81
697.398	66.99
697.723	66.96
698.047	66.96
698.372	66.98
698.696	66.85
699.02	66.87
699.345	66.81
699.669	66.69
699.993	66.78
700.318	66.73
700.642	66.91
700.966	66.91
701.29	66.91
701.614	66.84
701.938	66.84
702.262	66.69
702.586	66.72
702.91	66.74
703.234	66.65
703.557	66.46
703.881	66.37
704.205	66.15
704.529	66.15
704.852	66.08
705.176	66.11
705.499	66.26
705.823	66.01
706.146	65.96
706.47	66.02
706.793	65.97
707.117	65.96
707.44	65.81
707.763	65.81
708.086	65.84
708.409	65.66
708.733	65.57
709.056	65.85
709.379	65.84
709.702	65.82
710.025	65.59
710.348	65.5
710.671	65.53
710.993	65.71
711.316	65.82
711.639	65.83
711.962	65.8
712.284	65.62
712.607	66.05
712.93	65.99
713.252	66.02
713.575	65.9
713.897	65.73
714.22	65.99
714.542	66.2
714.864	66.52
715.187	66.72
715.509	66.47
715.831	66.4
716.153	66.38
716.475	66.57
716.798	66.98
717.12	67.15
717.442	67.3
717.764	67.34
718.085	67.37
718.407	67.45
718.729	67.45
719.051	67.8
719.373	67.78
719.695	67.88
720.016	67.9
720.338	67.99
720.659	68.14
720.981	68.06
721.302	67.88
721.624	67.61
721.945	67.64
722.267	67.74
722.588	67.77
722.909	67.98
723.231	67.81
723.552	67.47
723.873	67.58
724.194	67.09
724.515	67
724.836	67.09
725.157	66.95
725.478	66.86
725.799	66.79
726.12	66.52
726.441	66.57
726.762	66.5
727.083	66.58
727.403	66.48
727.724	66.41
728.045	66.22
728.365	66.05
728.686	66.23
729.006	66.34
729.327	66.29
729.647	66.25
729.967	66.18
730.288	66.48
730.608	66.51
730.928	66.78
731.249	66.74
731.569	66.61
731.889	66.5
732.209	66.33
732.529	66.25
732.849	66.32
733.169	66.42
733.489	66.53
733.809	66.54
734.129	66.78
734.448	66.77
734.768	66.85
735.088	67.07
735.408	66.83
735.727	67.07
736.047	67
736.366	66.93
736.686	67.14
737.005	67.07
737.325	67.06
737.644	66.98
737.963	67.14
738.283	67.08
738.602	67.3
738.921	67.6
739.24	67.58
739.56	67.43
739.879	67.16
740.198	67.04
740.517	66.95
740.836	67.03
741.155	67.06
741.473	67
741.792	66.76
742.111	66.56
742.43	66.06
742.748	66.27
743.067	66.24
743.386	66.18
743.704	66.15
744.023	66.14
744.341	66.3
744.66	65.97
744.978	66.07
745.297	66.05
745.615	66.09
745.933	66.34
746.252	66.51
746.57	66.61
746.888	66.47
747.206	66.53
747.524	66.57
747.842	66.54
748.16	66.34
748.478	66.2
748.796	66.43
749.114	67.12
749.432	66.95
749.749	66.79
750.067	67.1
750.385	67.28
750.703	67.43
751.02	67.59
751.338	67.82
751.655	67.76
751.973	67.92
752.29	68.02
752.608	67.66
752.925	67.92
753.242	67.79
753.56	68
753.877	67.94
754.194	67.63
754.511	67.9
754.828	68.2
755.145	68.7
755.462	68.62
755.779	68.5
756.096	68.45
756.413	68.71
756.73	68.72
757.047	68.73
757.364	68.65
757.68	68.47
757.997	68.54
758.314	68.65
758.63	68.73
758.947	68.56
759.264	68.56
759.58	68.25
759.896	68.05
760.213	68.09
760.529	68.33
760.846	68.26
761.162	67.73
761.478	67.49
761.794	67.26
762.11	67.21
762.426	67.02
762.743	66.9
763.059	67.21
763.375	67.12
763.69	67.15
764.006	67.25
764.322	67.09
764.638	66.84
764.954	66.94
765.27	66.95
765.585	66.86
765.901	67.05
766.216	66.79
766.532	67.22
766.848	67.17
767.163	66.92
767.478	67.1
767.794	67.27
768.109	67.55
768.424	67.78
768.74	67.97
769.055	68.14
769.37	68.55
769.685	68.21
770	67.82
770.315	67.68
770.63	67.4
770.945	67.51
771.26	67.85
771.575	67.67
771.89	67.32
772.205	67.68
772.52	67.54
772.834	68.16
773.149	67.69
773.464	67.57
773.778	67.69
774.093	67.11
774.407	67.46
774.722	67.67
775.036	67.74
775.351	67.57
775.665	67.57
775.979	67.33
776.293	67.15
776.608	67.23
776.922	66.74
777.236	67.16
777.55	67.37
777.864	67.63
778.178	67.7
778.492	67.66
778.806	67.41
779.12	66.93
779.434	66.9
779.747	67.15
780.061	67.38
780.375	67.55
780.689	68.23
781.002	67.98
781.316	67.65
781.629	67.5
781.943	67.58
782.256	67.53
782.57	67.96
782.883	68.11
783.196	68.03
783.51	68.83
783.823	68.33
784.136	68.11
784.449	68.08
784.762	68.29
785.075	68.52
785.388	68.77
785.701	69.36
786.014	69
786.327	69.04
786.64	68.52
786.953	68.38
787.266	68.35
787.578	68.41
787.891	68.25
788.204	68.43
788.516	68.46
788.829	68
789.141	67.66
789.454	67.22
789.766	66.93
790.079	66.84
790.391	67.43
790.703	67.81
791.016	67.42
791.328	67.46
791.64	67.56
791.952	67.6
792.264	66.96
792.576	67.46
792.888	67.67
793.2	67.97
793.512	68.01
793.824	68.15
794.136	68.35
794.448	68.33
794.76	67.87
795.071	68.44
795.383	68.58
795.695	68.53
796.006	69.37
796.318	70.42
796.629	70.24
796.941	69.88
797.252	69.27
797.564	69.67
797.875	69.23
798.186	68.33
798.497	68.08
798.809	68.41
799.12	68.23
799.431	67.67
799.742	67.6
800.053	67.88
800.364	67.33
800.675	67.05
800.986	67.36
801.297	67.53
801.608	67.44
801.918	67.17
802.229	67.27
802.54	66.22
802.851	65.59
803.161	65.57
803.472	65.61
803.782	65.22
804.093	65.27
804.403	65.78
804.714	66.81
805.024	67.08
805.334	67.78
805.645	67.21
805.955	67.77
806.265	68.35
806.575	67.97
806.885	67.98
807.195	67.51
807.505	67.77
807.815	67.63
808.125	66.79
808.435	67.61
808.745	67.02
809.055	67.37
809.365	67.59
809.674	67.67
809.984	68
810.294	69.79
810.603	69.62
810.913	68.17
811.222	67.49
811.532	66.92
811.841	67
812.151	67.33
812.46	66.52
812.769	65.88
813.079	65.55
813.388	65.68
813.697	66.41
814.006	65.68
814.315	65.29
814.624	64.62
814.933	65.15
815.242	65.34
815.551	64.96
815.86	64.39
816.169	63.76
816.478	63.4
816.786	62.3
817.095	62.15
817.404	63.45
817.712	64.65
818.021	64.9
818.33	64.51
818.638	65.59
818.947	65.9
819.255	66.43
819.563	66.46
819.872	66.71
820.18	67.06
820.488	67.22
820.796	67.64
821.105	68.03
821.413	67.59
821.721	68.17
822.029	68.65
822.337	68.7
822.645	68.96
822.953	68.71
823.26	68.56
823.568	68.66
823.876	68.57
824.184	68.37
824.491	68.44
824.799	68.57
825.107	68.2
825.414	68.33
825.722	68.34
826.029	68.45
826.337	68.41
826.644	68.18
826.951	68.39
827.259	68.33
827.566	68.29
827.873	68.38
828.18	68.21
828.488	67.69
828.795	68.1
829.102	67.92
829.409	68.13
829.716	68.51
830.023	68.46
830.329	68.54
830.636	69.09
830.943	68.82
831.25	69.16
831.557	69.4
831.863	69.24
832.17	69.28
832.476	69.6
832.783	69.67
833.089	70.26
833.396	69.74
833.702	69.72
834.009	69.71
834.315	69.85
834.621	69.39
834.928	70.27
835.234	69.67
835.54	69.38
835.846	69.41
836.152	69.38
836.458	68.99
836.764	69.18
837.07	68.68
837.376	68.95
837.682	68.12
837.988	68.06
838.293	68.61
838.599	68.02
838.905	67.72
839.211	67.98
839.516	67.13
839.822	67.65
840.127	68.31
840.433	68.27
840.738	67.84
841.044	68.05
841.349	67.44
841.654	67.23
841.959	67.65
842.265	67.42
842.57	67.04
842.875	66.9
843.18	66.44
843.485	66.39
843.79	65.64
844.095	66.11
844.4	67.3
844.705	67.13
845.01	68.63
845.315	68.69
845.619	67.53
845.924	66.61
846.229	67.36
846.533	66.75
846.838	66.4
847.142	65.69
847.447	65.53
847.751	64.5
848.056	64.02
848.36	63.11
848.664	63.51
848.969	64.44
849.273	66.68
849.577	65.84
849.881	68.33
850.185	70.16
850.489	69.94
850.794	70.73
851.097	70.09
851.401	69.54
851.705	70.5
852.009	74.2
852.313	76.07
852.617	74.86
852.92	73.16
853.224	73.53
853.528	75.05
853.831	75.12
854.135	76.69
854.438	78.1
854.742	78.33
855.045	76.17
855.349	74.43
855.652	75
855.955	74.26
856.259	72.02
856.562	70.03
856.865	68.71
857.168	70.25
857.471	69.47
857.774	67.88
858.077	66.6
858.38	63.98
858.683	64.56
858.986	64.72
859.289	66.41
859.592	67.88
859.894	67.24
860.197	65.7
860.5	64.53
860.802	64.43
861.105	64.86
861.407	66.57
861.71	64.92
862.012	61.35
862.315	62.29
862.617	60.62
862.919	61.63
863.222	63.89
863.524	61.44
863.826	62.9
864.128	67.01
864.43	67.35
864.732	67.84
865.034	70.41
865.336	73.28
865.638	71.81
865.94	73.3
866.242	72.33
866.544	76.58
866.846	78.43
867.147	78.69
867.449	79.88
867.751	78.03
868.052	79.02
868.354	80.35
868.655	81.54
868.957	81.78
869.258	84
869.56	79.64
869.861	81.12
870.162	80.51
870.463	76.28
870.765	76.07
871.066	76.88
871.367	73.2
871.668	71.81
871.969	69.82
872.27	67.12
872.571	69.05
872.872	65.47
873.173	67.6
873.473	67.91
873.774	66.31
874.075	68.87
874.376	69.15
874.676	69.83
874.977	66.4
875.277	68.6
875.578	67.61
875.878	70.05
876.179	68.18
876.479	67.31
876.78	67.58
877.08	67.44
877.38	65.86
877.68	66.12
877.981	62.31
878.281	65.7
878.581	68.08
