Data from MVZ_BU26842_Reflection_00002.txt Node
Date: Tue Nov 19 12:18:14 EST 2019
User: vgr7
Spectrometer: USB2G7710
Scans to average: 3
Trigger mode: 4
Integration Time (sec): 2.000000E-2
Electric dark correction enabled: true
Boxcar width: 10
XAxis mode: Wavelengths
Number of Pixels in Spectrum: 2048
>>>>>Begin Spectral Data<<<<<
177.721	84.48
178.105	81.48
178.488	-573.61
178.871	-123.46
179.254	-1483.33
179.636	-8177.78
180.019	789.81
180.402	181.82
180.785	-24.07
181.168	166.24
181.55	195.49
181.933	151.93
182.316	55.51
182.698	164.92
183.081	176.99
183.463	352.19
183.846	-454.6
184.228	-737.3
184.611	-146.28
184.993	-81.02
185.376	-36.9
185.758	-40.5
186.14	-89.88
186.522	-82.67
186.904	-38.19
187.287	-20.02
187.669	-5.42
188.051	-30.52
188.433	-75.69
188.815	-68.79
189.197	-43.48
189.579	-49.44
189.961	-40.65
190.342	-48.18
190.724	-39.01
191.106	-35.2
191.488	-59.04
191.869	-84.6
192.251	-43.94
192.633	-15.04
193.014	-36.24
193.396	-239.15
193.777	-125.57
194.159	-18.26
194.54	-12.47
194.922	-79.66
195.303	-119.79
195.684	-341.92
196.065	-165.05
196.447	-85.57
196.828	-68.53
197.209	-46.59
197.59	-5.28
197.971	-13.24
198.352	-8.36
198.733	-9.91
199.114	-20.95
199.495	-14.37
199.876	-12.78
200.257	-10.28
200.638	-23.25
201.018	-22.61
201.399	-9.63
201.78	-9.59
202.16	-24.52
202.541	-29.6
202.922	-23.12
203.302	-19.55
203.683	-20.21
204.063	-19.08
204.444	-10.19
204.824	-27.49
205.204	-21.48
205.585	-16.76
205.965	-3.77
206.345	-8.45
206.725	0.06
207.106	3.47
207.486	8.58
207.866	11.96
208.246	6.11
208.626	7.7
209.006	-9.29
209.386	-19.88
209.766	-26.94
210.145	-19.16
210.525	-13.17
210.905	-16.88
211.285	2.12
211.664	10.2
212.044	15.5
212.424	6.08
212.803	20.3
213.183	19.7
213.562	5.45
213.942	-3.65
214.321	-5.28
214.701	-29.04
215.08	-9.75
215.459	3.62
215.838	10.74
216.218	-1.55
216.597	13.81
216.976	52.84
217.355	39.76
217.734	27.15
218.113	52.9
218.492	37.03
218.871	27.9
219.25	-6.23
219.629	-44.47
220.008	-64.89
220.387	-43.25
220.766	-24.85
221.144	-57.25
221.523	-42.32
221.902	-31.89
222.28	-27.69
222.659	-11.71
223.037	-45.01
223.416	-33.1
223.794	-39.48
224.173	-34.59
224.551	-27.24
224.929	-37.73
225.308	-34.75
225.686	-24.6
226.064	-38.17
226.442	-29.8
226.821	-26.18
227.199	-22.85
227.577	-16.08
227.955	-9.94
228.333	-11.56
228.711	-12.1
229.089	-9.2
229.467	-11.21
229.845	-11.71
230.222	-9.52
230.6	-10.6
230.978	-5.99
231.356	-12.29
231.733	-7.98
232.111	-7.11
232.488	-9.19
232.866	-4.88
233.243	-1.48
233.621	0.31
233.998	5.78
234.376	4.36
234.753	6.39
235.13	5.27
235.508	3.73
235.885	3.62
236.262	3.04
236.639	2.66
237.016	2.35
237.393	4.31
237.77	4.57
238.147	4.62
238.524	5.12
238.901	4.74
239.278	5.71
239.655	4.7
240.032	5
240.409	4.69
240.785	3.34
241.162	3.46
241.539	2.55
241.915	2.29
242.292	2.27
242.668	1.96
243.045	2.76
243.421	3.65
243.798	3.62
244.174	4.28
244.551	4.75
244.927	4.93
245.303	4.2
245.679	4.12
246.056	4.23
246.432	4.17
246.808	4.31
247.184	4.39
247.56	4.53
247.936	4.98
248.312	5.13
248.688	5.47
249.064	5.34
249.44	5.48
249.815	5.41
250.191	5.55
250.567	5.56
250.943	5.62
251.318	5.25
251.694	5.42
252.069	5.12
252.445	4.95
252.82	5.12
253.196	5.56
253.571	5.44
253.947	5.2
254.322	5.37
254.697	5.23
255.073	5.17
255.448	4.74
255.823	4.34
256.198	4.08
256.573	3.73
256.948	3.72
257.323	3.79
257.698	3.95
258.073	4.02
258.448	4.11
258.823	3.98
259.198	3.89
259.573	3.72
259.948	3.68
260.322	3.55
260.697	3.42
261.072	3.41
261.446	3.56
261.821	3.38
262.195	3.46
262.57	3.62
262.944	3.67
263.319	3.71
263.693	3.55
264.067	3.56
264.442	3.75
264.816	3.56
265.19	3.47
265.564	3.21
265.938	3.07
266.313	2.88
266.687	2.87
267.061	3.04
267.435	3.31
267.809	3.2
268.183	3.21
268.556	3.09
268.93	3.1
269.304	2.93
269.678	3.22
270.051	3.11
270.425	3.01
270.799	2.82
271.172	2.91
271.546	2.98
271.919	3.15
272.293	3.17
272.666	3.4
273.04	3.41
273.413	3.44
273.787	3.49
274.16	3.53
274.533	3.66
274.906	3.65
275.279	3.61
275.653	3.77
276.026	3.91
276.399	4.05
276.772	4.06
277.145	4.18
277.518	3.95
277.891	4.19
278.263	4.16
278.636	4.33
279.009	4.38
279.382	4.24
279.755	4.01
280.127	4.27
280.5	4.24
280.872	4.41
281.245	4.39
281.617	4.31
281.99	4.25
282.362	4
282.735	3.93
283.107	3.97
283.479	3.89
283.852	3.94
284.224	4.03
284.596	3.97
284.968	3.99
285.34	3.95
285.713	3.76
286.085	3.81
286.457	3.71
286.829	3.67
287.201	3.67
287.572	3.8
287.944	3.67
288.316	3.77
288.688	3.75
289.06	3.79
289.431	3.83
289.803	4.06
290.175	4.2
290.546	4.17
290.918	4.16
291.289	4.11
291.661	4.16
292.032	4.02
292.403	4.05
292.775	4.21
293.146	4.44
293.517	4.46
293.889	4.26
294.26	4.36
294.631	4.34
295.002	4.54
295.373	4.55
295.744	4.46
296.115	4.41
296.486	4.41
296.857	4.52
297.228	4.55
297.599	4.42
297.97	4.49
298.34	4.73
298.711	4.65
299.082	4.73
299.452	4.5
299.823	4.49
300.194	4.67
300.564	4.49
300.935	4.54
301.305	4.45
301.676	4.5
302.046	4.48
302.416	4.58
302.787	4.47
303.157	4.5
303.527	4.7
303.897	4.79
304.267	4.83
304.637	4.72
305.008	4.85
305.378	4.91
305.748	4.77
306.117	4.58
306.487	4.66
306.857	4.69
307.227	4.97
307.597	4.96
307.967	4.8
308.336	4.83
308.706	4.68
309.076	4.77
309.445	5.04
309.815	5.05
310.184	4.96
310.554	4.92
310.923	4.78
311.293	4.83
311.662	4.72
312.031	4.71
312.401	4.75
312.77	4.53
313.139	4.43
313.508	4.53
313.877	4.57
314.246	4.5
314.616	4.51
314.985	4.33
315.353	4.19
315.722	4.38
316.091	4.47
316.46	4.45
316.829	4.39
317.198	4.12
317.567	4.05
317.935	3.96
318.304	4.12
318.672	4.32
319.041	4.01
319.41	4.11
319.778	3.93
320.147	3.87
320.515	3.99
320.883	4.14
321.252	4.11
321.62	4.03
321.988	4.2
322.357	4.21
322.725	4.29
323.093	4.54
323.461	4.37
323.829	4.27
324.197	4.34
324.565	4.53
324.933	4.59
325.301	4.54
325.669	4.58
326.037	4.52
326.405	4.48
326.772	4.59
327.14	4.49
327.508	4.5
327.875	4.6
328.243	4.52
328.61	4.46
328.978	4.5
329.346	4.46
329.713	4.49
330.08	4.5
330.448	4.35
330.815	4.27
331.182	4.22
331.55	4.34
331.917	4.34
332.284	4.18
332.651	4.25
333.018	4.32
333.385	4.5
333.752	4.61
334.119	4.55
334.486	4.43
334.853	4.52
335.22	4.56
335.587	4.41
335.954	4.46
336.32	4.49
336.687	4.45
337.054	4.64
337.42	4.58
337.787	4.44
338.153	4.71
338.52	4.85
338.886	4.96
339.253	4.88
339.619	5.02
339.986	5.01
340.352	5.09
340.718	5.11
341.084	5.05
341.451	4.97
341.817	5.05
342.183	5.02
342.549	5.04
342.915	5.14
343.281	5.18
343.647	5.19
344.013	5.17
344.379	5.02
344.745	4.99
345.11	4.84
345.476	4.93
345.842	4.82
346.208	4.66
346.573	4.58
346.939	4.52
347.304	4.45
347.67	4.39
348.035	4.32
348.401	4.23
348.766	4.11
349.132	4.23
349.497	4.18
349.862	4.3
350.228	4.33
350.593	4.18
350.958	4.3
351.323	4.32
351.688	4.21
352.053	4.29
352.418	4.23
352.783	4.34
353.148	4.41
353.513	4.36
353.878	4.45
354.243	4.4
354.608	4.52
354.972	4.53
355.337	4.63
355.702	4.59
356.066	4.58
356.431	4.6
356.795	4.46
357.16	4.52
357.524	4.44
357.889	4.41
358.253	4.48
358.618	4.44
358.982	4.42
359.346	4.57
359.71	4.57
360.075	4.59
360.439	4.67
360.803	4.59
361.167	4.61
361.531	4.57
361.895	4.59
362.259	4.6
362.623	4.6
362.987	4.63
363.351	4.66
363.714	4.71
364.078	4.72
364.442	4.73
364.806	4.73
365.169	4.82
365.533	4.82
365.896	4.92
366.26	4.84
366.623	4.82
366.987	4.82
367.35	4.84
367.714	4.84
368.077	4.81
368.44	4.82
368.803	4.8
369.167	4.81
369.53	4.9
369.893	4.89
370.256	4.89
370.619	4.77
370.982	4.68
371.345	4.72
371.708	4.76
372.071	4.74
372.434	4.66
372.797	4.67
373.159	4.61
373.522	4.54
373.885	4.63
374.247	4.64
374.61	4.63
374.973	4.64
375.335	4.67
375.698	4.6
376.06	4.64
376.423	4.7
376.785	4.72
377.147	4.65
377.51	4.63
377.872	4.58
378.234	4.67
378.596	4.78
378.958	4.76
379.321	4.74
379.683	4.83
380.045	4.83
380.407	4.88
380.769	4.97
381.13	4.96
381.492	4.96
381.854	4.97
382.216	4.98
382.578	4.97
382.939	4.95
383.301	4.95
383.663	4.97
384.024	4.92
384.386	4.96
384.747	4.99
385.109	4.99
385.47	5.06
385.832	5.08
386.193	5.07
386.554	5.06
386.916	5.11
387.277	5.05
387.638	5.1
387.999	5.1
388.36	5.08
388.721	5.11
389.082	5.12
389.443	5.13
389.804	5.09
390.165	5.11
390.526	5.1
390.887	5.14
391.248	5.12
391.609	5.15
391.969	5.13
392.33	5.13
392.691	5.12
393.051	5.08
393.412	5.06
393.772	5.12
394.133	5.13
394.493	5.1
394.854	5.13
395.214	5.14
395.574	5.06
395.935	5.04
396.295	5
396.655	5.01
397.015	5.01
397.376	4.99
397.736	4.96
398.096	4.97
398.456	4.96
398.816	4.96
399.176	4.88
399.535	4.84
399.895	4.84
400.255	4.86
400.615	4.9
400.975	4.89
401.334	4.83
401.694	4.85
402.054	4.84
402.413	4.84
402.773	4.82
403.132	4.88
403.492	4.89
403.851	4.91
404.211	4.91
404.57	4.9
404.929	4.95
405.288	5
405.648	5.04
406.007	5.02
406.366	5.03
406.725	5.11
407.084	5.14
407.443	5.15
407.802	5.17
408.161	5.18
408.52	5.17
408.879	5.2
409.238	5.17
409.596	5.18
409.955	5.17
410.314	5.2
410.673	5.17
411.031	5.16
411.39	5.14
411.748	5.15
412.107	5.14
412.465	5.14
412.824	5.14
413.182	5.1
413.54	5.15
413.899	5.14
414.257	5.12
414.615	5.12
414.974	5.12
415.332	5.11
415.69	5.1
416.048	5.07
416.406	5.05
416.764	5.07
417.122	5.08
417.48	5.11
417.838	5.09
418.195	5.09
418.553	5.1
418.911	5.1
419.269	5.11
419.626	5.11
419.984	5.13
420.342	5.12
420.699	5.13
421.057	5.13
421.414	5.13
421.772	5.14
422.129	5.14
422.486	5.15
422.844	5.15
423.201	5.16
423.558	5.2
423.915	5.23
424.273	5.25
424.63	5.25
424.987	5.24
425.344	5.26
425.701	5.26
426.058	5.27
426.415	5.27
426.772	5.27
427.128	5.31
427.485	5.27
427.842	5.29
428.199	5.29
428.555	5.27
428.912	5.25
429.269	5.23
429.625	5.26
429.982	5.24
430.338	5.26
430.695	5.24
431.051	5.21
431.407	5.2
431.764	5.17
432.12	5.19
432.476	5.21
432.832	5.18
433.189	5.18
433.545	5.18
433.901	5.2
434.257	5.2
434.613	5.17
434.969	5.18
435.325	5.18
435.681	5.2
436.036	5.22
436.392	5.24
436.748	5.25
437.104	5.24
437.459	5.24
437.815	5.22
438.171	5.22
438.526	5.25
438.882	5.25
439.237	5.24
439.593	5.24
439.948	5.22
440.304	5.24
440.659	5.26
441.014	5.27
441.369	5.26
441.725	5.26
442.08	5.29
442.435	5.28
442.79	5.28
443.145	5.28
443.5	5.27
443.855	5.26
444.21	5.26
444.565	5.26
444.92	5.28
445.275	5.27
445.629	5.26
445.984	5.24
446.339	5.24
446.693	5.25
447.048	5.24
447.403	5.25
447.757	5.24
448.112	5.24
448.466	5.23
448.82	5.23
449.175	5.21
449.529	5.2
449.883	5.21
450.238	5.22
450.592	5.24
450.946	5.24
451.3	5.28
451.654	5.29
452.008	5.28
452.362	5.29
452.716	5.33
453.07	5.33
453.424	5.33
453.778	5.33
454.132	5.36
454.486	5.37
454.839	5.36
455.193	5.39
455.547	5.4
455.9	5.39
456.254	5.4
456.607	5.43
456.961	5.41
457.314	5.41
457.668	5.4
458.021	5.4
458.375	5.39
458.728	5.38
459.081	5.37
459.434	5.38
459.787	5.38
460.141	5.39
460.494	5.41
460.847	5.44
461.2	5.44
461.553	5.43
461.906	5.44
462.259	5.45
462.611	5.45
462.964	5.45
463.317	5.47
463.67	5.49
464.022	5.49
464.375	5.51
464.728	5.53
465.08	5.55
465.433	5.55
465.785	5.56
466.138	5.58
466.49	5.58
466.843	5.6
467.195	5.58
467.547	5.57
467.899	5.56
468.252	5.56
468.604	5.57
468.956	5.56
469.308	5.54
469.66	5.56
470.012	5.59
470.364	5.58
470.716	5.59
471.068	5.58
471.42	5.59
471.772	5.58
472.123	5.58
472.475	5.57
472.827	5.57
473.178	5.56
473.53	5.55
473.882	5.56
474.233	5.58
474.585	5.6
474.936	5.59
475.288	5.59
475.639	5.58
475.99	5.59
476.342	5.61
476.693	5.63
477.044	5.63
477.395	5.61
477.746	5.58
478.097	5.57
478.448	5.55
478.8	5.56
479.15	5.56
479.501	5.57
479.852	5.56
480.203	5.57
480.554	5.6
480.905	5.6
481.255	5.61
481.606	5.6
481.957	5.61
482.307	5.62
482.658	5.64
483.009	5.63
483.359	5.65
483.709	5.64
484.06	5.64
484.41	5.63
484.761	5.64
485.111	5.65
485.461	5.67
485.811	5.67
486.162	5.67
486.512	5.68
486.862	5.68
487.212	5.69
487.562	5.68
487.912	5.67
488.262	5.67
488.612	5.66
488.961	5.67
489.311	5.66
489.661	5.66
490.011	5.65
490.36	5.66
490.71	5.64
491.06	5.65
491.409	5.64
491.759	5.65
492.108	5.64
492.458	5.64
492.807	5.63
493.157	5.62
493.506	5.62
493.855	5.61
494.204	5.6
494.554	5.6
494.903	5.63
495.252	5.64
495.601	5.65
495.95	5.65
496.299	5.66
496.648	5.66
496.997	5.66
497.346	5.66
497.695	5.66
498.043	5.68
498.392	5.67
498.741	5.68
499.09	5.68
499.438	5.69
499.787	5.72
500.135	5.72
500.484	5.73
500.832	5.74
501.181	5.75
501.529	5.78
501.878	5.81
502.226	5.8
502.574	5.79
502.923	5.79
503.271	5.81
503.619	5.82
503.967	5.83
504.315	5.85
504.663	5.85
505.011	5.86
505.359	5.84
505.707	5.86
506.055	5.86
506.403	5.87
506.751	5.87
507.098	5.85
507.446	5.86
507.794	5.88
508.141	5.89
508.489	5.92
508.837	5.89
509.184	5.88
509.531	5.88
509.879	5.86
510.226	5.88
510.574	5.9
510.921	5.89
511.268	5.9
511.616	5.91
511.963	5.91
512.31	5.92
512.657	5.9
513.004	5.91
513.351	5.94
513.698	5.97
514.045	5.99
514.392	5.99
514.739	5.99
515.086	5.99
515.432	5.99
515.779	5.97
516.126	5.98
516.473	6.01
516.819	6.02
517.166	6.05
517.512	6.06
517.859	6.06
518.205	6.04
518.552	6.04
518.898	6.05
519.245	6.07
519.591	6.07
519.937	6.1
520.283	6.09
520.629	6.08
520.976	6.07
521.322	6.06
521.668	6.06
522.014	6.07
522.36	6.08
522.706	6.07
523.052	6.08
523.398	6.07
523.743	6.07
524.089	6.07
524.435	6.09
524.781	6.08
525.126	6.07
525.472	6.1
525.817	6.11
526.163	6.1
526.509	6.09
526.854	6.1
527.199	6.1
527.545	6.11
527.89	6.13
528.235	6.14
528.581	6.14
528.926	6.15
529.271	6.15
529.616	6.15
529.961	6.16
530.306	6.16
530.651	6.17
530.996	6.18
531.341	6.18
531.686	6.18
532.031	6.19
532.376	6.19
532.721	6.18
533.065	6.19
533.41	6.18
533.755	6.2
534.099	6.2
534.444	6.2
534.788	6.21
535.133	6.2
535.477	6.2
535.822	6.23
536.166	6.23
536.51	6.23
536.855	6.23
537.199	6.21
537.543	6.23
537.887	6.22
538.231	6.23
538.576	6.23
538.92	6.23
539.264	6.25
539.608	6.26
539.951	6.26
540.295	6.28
540.639	6.29
540.983	6.28
541.327	6.29
541.671	6.29
542.014	6.29
542.358	6.29
542.701	6.29
543.045	6.25
543.389	6.28
543.732	6.29
544.075	6.3
544.419	6.32
544.762	6.33
545.105	6.34
545.449	6.32
545.792	6.33
546.135	6.33
546.478	6.32
546.821	6.35
547.165	6.34
547.508	6.33
547.851	6.33
548.194	6.33
548.536	6.31
548.879	6.31
549.222	6.3
549.565	6.31
549.908	6.33
550.25	6.38
550.593	6.35
550.936	6.36
551.278	6.33
551.621	6.33
551.963	6.36
552.306	6.37
552.648	6.38
552.991	6.36
553.333	6.31
553.675	6.32
554.017	6.32
554.36	6.33
554.702	6.33
555.044	6.32
555.386	6.34
555.728	6.37
556.07	6.34
556.412	6.36
556.754	6.36
557.096	6.36
557.438	6.34
557.78	6.37
558.121	6.36
558.463	6.37
558.805	6.39
559.147	6.4
559.488	6.38
559.83	6.37
560.171	6.37
560.513	6.4
560.854	6.4
561.196	6.39
561.537	6.43
561.878	6.44
562.22	6.42
562.561	6.41
562.902	6.42
563.243	6.46
563.584	6.45
563.925	6.44
564.266	6.41
564.607	6.41
564.948	6.38
565.289	6.39
565.63	6.41
565.971	6.41
566.312	6.39
566.653	6.39
566.993	6.41
567.334	6.42
567.675	6.42
568.015	6.39
568.356	6.39
568.696	6.39
569.037	6.37
569.377	6.4
569.718	6.4
570.058	6.4
570.398	6.4
570.739	6.38
571.079	6.38
571.419	6.37
571.759	6.38
572.099	6.36
572.439	6.39
572.779	6.39
573.119	6.37
573.459	6.37
573.799	6.37
574.139	6.38
574.479	6.4
574.819	6.42
575.158	6.45
575.498	6.46
575.838	6.44
576.177	6.44
576.517	6.43
576.856	6.44
577.196	6.43
577.535	6.45
577.875	6.48
578.214	6.47
578.553	6.51
578.893	6.51
579.232	6.55
579.571	6.53
579.91	6.54
580.25	6.57
580.589	6.57
580.928	6.58
581.267	6.56
581.606	6.57
581.945	6.55
582.283	6.54
582.622	6.53
582.961	6.51
583.3	6.53
583.639	6.57
583.977	6.59
584.316	6.58
584.654	6.58
584.993	6.59
585.332	6.63
585.67	6.66
586.008	6.68
586.347	6.69
586.685	6.67
587.024	6.66
587.362	6.64
587.7	6.68
588.038	6.72
588.376	6.78
588.715	6.78
589.053	6.76
589.391	6.84
589.729	6.88
590.067	6.94
590.404	6.92
590.742	6.91
591.08	6.91
591.418	6.93
591.756	6.92
592.093	6.92
592.431	6.93
592.769	6.89
593.106	6.91
593.444	6.94
593.781	6.94
594.119	6.95
594.456	6.94
594.793	6.91
595.131	6.85
595.468	6.85
595.805	6.87
596.143	6.93
596.48	6.9
596.817	6.89
597.154	6.89
597.491	6.91
597.828	6.91
598.165	6.91
598.502	6.9
598.839	6.9
599.176	6.91
599.512	6.91
599.849	6.99
600.186	6.98
600.523	6.97
600.859	7.01
601.196	7.01
601.532	7.05
601.869	7.11
602.205	7.09
602.542	7.08
602.878	7.04
603.215	7.02
603.551	7.01
603.887	6.98
604.223	6.99
604.56	6.96
604.896	6.97
605.232	6.99
605.568	6.99
605.904	6.99
606.24	7.01
606.576	7.02
606.912	6.99
607.248	6.97
607.583	7
607.919	6.94
608.255	6.96
608.591	6.9
608.926	6.87
609.262	6.93
609.597	6.91
609.933	6.95
610.268	6.96
610.604	6.93
610.939	6.96
611.275	6.96
611.61	7.02
611.945	7.01
612.281	6.99
612.616	7.03
612.951	7.06
613.286	7.03
613.621	7.02
613.956	7
614.291	7.03
614.626	7.05
614.961	7.13
615.296	7.19
615.631	7.29
615.966	7.33
616.3	7.28
616.635	7.27
616.97	7.26
617.304	7.23
617.639	7.3
617.973	7.3
618.308	7.3
618.642	7.26
618.977	7.24
619.311	7.21
619.646	7.19
619.98	7.19
620.314	7.19
620.648	7.19
620.983	7.26
621.317	7.26
621.651	7.27
621.985	7.23
622.319	7.15
622.653	7.12
622.987	7.07
623.321	7.08
623.655	7.1
623.988	7.12
624.322	7.17
624.656	7.19
624.99	7.17
625.323	7.17
625.657	7.23
625.99	7.26
626.324	7.25
626.657	7.23
626.991	7.27
627.324	7.23
627.658	7.23
627.991	7.23
628.324	7.23
628.657	7.17
628.991	7.2
629.324	7.21
629.657	7.16
629.99	7.18
630.323	7.19
630.656	7.24
630.989	7.22
631.322	7.18
631.655	7.15
631.987	7.2
632.32	7.21
632.653	7.13
632.986	7.18
633.318	7.22
633.651	7.26
633.984	7.21
634.316	7.27
634.649	7.2
634.981	7.17
635.313	7.21
635.646	7.24
635.978	7.25
636.31	7.31
636.643	7.35
636.975	7.36
637.307	7.38
637.639	7.37
637.971	7.42
638.303	7.44
638.635	7.5
638.967	7.43
639.299	7.37
639.631	7.44
639.963	7.43
640.295	7.46
640.626	7.51
640.958	7.51
641.29	7.52
641.621	7.58
641.953	7.6
642.285	7.6
642.616	7.6
642.948	7.6
643.279	7.57
643.61	7.56
643.942	7.53
644.273	7.63
644.604	7.73
644.936	7.7
645.267	7.72
645.598	7.7
645.929	7.71
646.26	7.71
646.591	7.8
646.922	7.75
647.253	7.74
647.584	7.69
647.915	7.72
648.245	7.67
648.576	7.76
648.907	7.74
649.238	7.65
649.568	7.66
649.899	7.67
650.229	7.7
650.56	7.74
650.89	7.87
651.221	7.82
651.551	7.82
651.882	7.79
652.212	7.78
652.542	7.8
652.872	7.84
653.203	7.96
653.533	7.86
653.863	7.93
654.193	7.94
654.523	7.87
654.853	7.92
655.183	7.96
655.513	7.91
655.843	7.94
656.172	8.03
656.502	7.98
656.832	7.94
657.162	7.91
657.491	7.92
657.821	7.86
658.15	7.87
658.48	7.85
658.809	7.81
659.139	7.81
659.468	7.85
659.798	7.84
660.127	7.76
660.456	7.75
660.785	7.68
661.115	7.68
661.444	7.71
661.773	7.68
662.102	7.68
662.431	7.69
662.76	7.62
663.089	7.71
663.418	7.75
663.747	7.79
664.076	7.8
664.404	7.76
664.733	7.81
665.062	7.8
665.39	7.77
665.719	7.85
666.048	7.83
666.376	7.74
666.705	7.79
667.033	7.84
667.362	7.89
667.69	7.96
668.018	8.02
668.347	8.11
668.675	8.1
669.003	8.09
669.331	8.02
669.659	8.15
669.987	8.12
670.315	8.12
670.643	8.14
670.971	8.16
671.299	8.17
671.627	8.12
671.955	8.06
672.283	7.99
672.61	7.96
672.938	8.03
673.266	8.06
673.593	8.01
673.921	7.98
674.249	7.93
674.576	7.93
674.904	7.85
675.231	7.75
675.558	7.81
675.886	7.78
676.213	7.77
676.54	7.75
676.867	7.69
677.195	7.75
677.522	7.72
677.849	7.84
678.176	7.82
678.503	7.8
678.83	7.86
679.157	7.95
679.484	8.02
679.81	8.06
680.137	8.12
680.464	8.16
680.791	8.23
681.117	8.23
681.444	8.19
681.771	8.27
682.097	8.4
682.424	8.36
682.75	8.48
683.077	8.55
683.403	8.53
683.729	8.42
684.056	8.42
684.382	8.43
684.708	8.32
685.034	8.45
685.36	8.46
685.686	8.51
686.012	8.55
686.339	8.54
686.664	8.62
686.99	8.56
687.316	8.63
687.642	8.58
687.968	8.69
688.294	8.75
688.619	8.77
688.945	8.67
689.271	8.65
689.596	8.54
689.922	8.61
690.247	8.66
690.573	8.69
690.898	8.67
691.224	8.77
691.549	8.81
691.874	8.67
692.2	8.69
692.525	8.61
692.85	8.61
693.175	8.7
693.5	8.53
693.825	8.56
694.15	8.55
694.475	8.66
694.8	8.62
695.125	8.63
695.45	8.43
695.775	8.54
696.099	8.62
696.424	8.73
696.749	8.72
697.073	8.68
697.398	8.87
697.723	8.89
698.047	8.81
698.372	8.86
698.696	8.96
699.02	8.97
699.345	9.1
699.669	9.03
699.993	8.96
700.318	9.01
700.642	9.09
700.966	9.05
701.29	8.96
701.614	9.05
701.938	9.02
702.262	9.23
702.586	9.24
702.91	9.27
703.234	9.24
703.557	9.22
703.881	9.18
704.205	9.07
704.529	8.95
704.852	8.96
705.176	8.95
705.499	8.85
705.823	8.95
706.146	8.88
706.47	8.79
706.793	8.91
707.117	8.88
707.44	8.72
707.763	8.82
708.086	8.87
708.409	8.73
708.733	8.63
709.056	8.62
709.379	8.47
709.702	8.44
710.025	8.42
710.348	8.41
710.671	8.58
710.993	8.55
711.316	8.64
711.639	8.61
711.962	8.55
712.284	8.61
712.607	8.61
712.93	8.59
713.252	8.73
713.575	8.79
713.897	8.95
714.22	9.06
714.542	9.05
714.864	9.01
715.187	9.1
715.509	9.2
715.831	9.28
716.153	9.43
716.475	9.57
716.798	9.69
717.12	9.73
717.442	9.66
717.764	9.77
718.085	9.93
718.407	10.02
718.729	10.21
719.051	10.38
719.373	10.48
719.695	10.52
720.016	10.52
720.338	10.46
720.659	10.37
720.981	10.32
721.302	10.52
721.624	10.54
721.945	10.49
722.267	10.64
722.588	10.57
722.909	10.64
723.231	10.46
723.552	10.52
723.873	10.52
724.194	10.52
724.515	10.55
724.836	10.22
725.157	10.21
725.478	10.05
725.799	9.9
726.12	9.92
726.441	9.9
726.762	9.96
727.083	10.1
727.403	10.1
727.724	10.19
728.045	9.87
728.365	9.91
728.686	9.98
729.006	10.04
729.327	10.22
729.647	10.14
729.967	10.23
730.288	10.11
730.608	10.18
730.928	10.23
731.249	10.31
731.569	10.45
731.889	10.42
732.209	10.48
732.529	10.52
732.849	10.33
733.169	10.42
733.489	10.31
733.809	10.18
734.129	10.25
734.448	10.28
734.768	10.37
735.088	10.26
735.408	10.33
735.727	10.17
736.047	9.97
736.366	9.94
736.686	9.97
737.005	9.92
737.325	10.1
737.644	10.05
737.963	9.9
738.283	10.15
738.602	10.33
738.921	10.29
739.24	10.21
739.56	10.36
739.879	10.45
740.198	10.6
740.517	10.58
740.836	10.48
741.155	10.35
741.473	10.36
741.792	10.39
742.111	10.46
742.43	10.68
742.748	10.72
743.067	10.83
743.386	10.5
743.704	10.61
744.023	10.59
744.341	10.85
744.66	10.71
744.978	10.64
745.297	10.4
745.615	10.6
745.933	10.87
746.252	11.09
746.57	11.07
746.888	11.04
747.206	11.25
747.524	11.13
747.842	11.06
748.16	11
748.478	11.3
748.796	11.16
749.114	10.84
749.432	11
749.749	10.92
750.067	11.18
750.385	11.35
750.703	11.45
751.02	11.18
751.338	11.36
751.655	11.38
751.973	11.69
752.29	11.46
752.608	11.01
752.925	10.61
753.242	10.15
753.56	10.05
753.877	9.96
754.194	10.23
754.511	10.33
754.828	10.52
755.145	10.33
755.462	10.32
755.779	10.68
756.096	10.82
756.413	10.71
756.73	10.79
757.047	10.44
757.364	10.49
757.68	10.57
757.997	10.91
758.314	11.18
758.63	11.06
758.947	11
759.264	11.47
759.58	11.88
759.896	12.28
760.213	12.47
760.529	12.25
760.846	12.25
761.162	12.15
761.478	12.37
761.794	12.95
762.11	13.23
762.426	13.04
762.743	12.81
763.059	12.92
763.375	12.82
763.69	13.03
764.006	12.96
764.322	13.02
764.638	12.91
764.954	12.65
765.27	12.79
765.585	13.22
765.901	12.87
766.216	12.65
766.532	12.44
766.848	12.52
767.163	12.72
767.478	12.74
767.794	13.15
768.109	12.98
768.424	12.59
768.74	12.31
769.055	12.39
769.37	12.27
769.685	12.12
770	12.35
770.315	12.21
770.63	11.95
770.945	12.12
771.26	11.89
771.575	11.95
771.89	11.65
772.205	11.38
772.52	11.43
772.834	11.74
773.149	12
773.464	11.84
773.778	11.84
774.093	11.77
774.407	11.93
774.722	11.84
775.036	11.63
775.351	11.65
775.665	11.72
775.979	12.04
776.293	12.42
776.608	12.41
776.922	12.25
777.236	12.3
777.55	11.94
777.864	12.14
778.178	12.26
778.492	12.78
778.806	12.95
779.12	13.25
779.434	12.83
779.747	12.87
780.061	12.98
780.375	13.24
780.689	13.52
781.002	12.8
781.316	12.8
781.629	13.12
781.943	13.35
782.256	13.43
782.57	13.09
782.883	13
783.196	13.19
783.51	13.72
783.823	14.14
784.136	14.25
784.449	14.59
784.762	14.82
785.075	14.65
785.388	14.89
785.701	14.9
786.014	15.16
786.327	15.27
786.64	15.17
786.953	14.58
787.266	14.49
787.578	14.24
787.891	13.95
788.204	13.7
788.516	14.08
788.829	13.7
789.141	14.67
789.454	14.65
789.766	14.85
790.079	14.91
790.391	14.8
790.703	14.95
791.016	14.54
791.328	14.43
791.64	14.42
791.952	14.45
792.264	14.78
792.576	14.9
792.888	14.85
793.2	15.53
793.512	15.81
793.824	15.56
794.136	16.42
794.448	16.92
794.76	17.54
795.071	16.97
795.383	17.32
795.695	16.72
796.006	17.02
796.318	16.6
796.629	16.24
796.941	16.33
797.252	16.27
797.564	16.36
797.875	15.92
798.186	15.29
798.497	14.85
798.809	14.89
799.12	14.59
799.431	14.19
799.742	13.7
800.053	13.88
800.364	14.5
800.675	14.45
800.986	14.57
801.297	14.16
801.608	13.94
801.918	14.05
802.229	14.24
802.54	13.52
802.851	13.81
803.161	13.96
803.472	14.12
803.782	14.33
804.093	13.59
804.403	14.19
804.714	14.79
805.024	13.95
805.334	13.82
805.645	14.42
805.955	15.48
806.265	15.61
806.575	15.49
806.885	15.13
807.195	15.14
807.505	14.71
807.815	14.79
808.125	14.56
808.435	14.34
808.745	14.14
809.055	14.93
809.365	14.17
809.674	14.12
809.984	13.87
810.294	13.91
810.603	14.86
810.913	14.47
811.222	14.41
811.532	15.62
811.841	15.48
812.151	15.56
812.46	15.07
812.769	15.03
813.079	15.31
813.388	15.4
813.697	14.68
814.006	14.71
814.315	15.03
814.624	16.08
814.933	16.2
815.242	15.87
815.551	15.93
815.86	16.49
816.169	16.66
816.478	17.13
816.786	16.36
817.095	16.94
817.404	16.76
817.712	17.23
818.021	16.92
818.33	16.8
818.638	16.68
818.947	16.48
819.255	16.39
819.563	15.92
819.872	15.61
820.18	15.77
820.488	16.27
820.796	16
821.105	15.88
821.413	15.9
821.721	16.1
822.029	15.94
822.337	15.84
822.645	15.84
822.953	15.85
823.26	16.06
823.568	15.91
823.876	15.9
824.184	15.7
824.491	15.75
824.799	15.8
825.107	15.75
825.414	15.8
825.722	15.68
826.029	15.83
826.337	15.94
826.644	16.07
826.951	15.84
827.259	15.92
827.566	15.98
827.873	16.01
828.18	16.03
828.488	16
828.795	16.25
829.102	16.18
829.409	15.8
829.716	16.01
830.023	16.05
830.329	16.04
830.636	16.11
830.943	15.96
831.25	16.02
831.557	15.77
831.863	15.46
832.17	15.87
832.476	15.75
832.783	15.98
833.089	15.86
833.396	16.29
833.702	16.32
834.009	16.72
834.315	16.37
834.621	15.92
834.928	16.09
835.234	15.86
835.54	15.71
835.846	16.16
836.152	15.27
836.458	15.34
836.764	15.34
837.07	15.64
837.376	15.9
837.682	15.94
837.988	15.83
838.293	15.99
838.599	16.16
838.905	16.38
839.211	15.36
839.516	15.42
839.822	15.26
840.127	14.5
840.433	13.51
840.738	14.14
841.044	15.64
841.349	15.59
841.654	15.93
841.959	16.54
842.265	16.43
842.57	17
842.875	16.6
843.18	16.91
843.485	16.56
843.79	16.65
844.095	16.25
844.4	16.45
844.705	16.81
845.01	15.73
845.315	15.02
845.619	17.35
845.924	16.12
846.229	16.76
846.533	18.56
846.838	18.42
847.142	18.23
847.447	16.75
847.751	16.83
848.056	16.44
848.36	16.25
848.664	13.88
848.969	14.31
849.273	13.81
849.577	15.85
849.881	16.87
850.185	14.84
850.489	16.67
850.794	20.68
851.097	21.41
851.401	20.92
851.705	21.19
852.009	20.65
852.313	22.36
852.617	20.2
852.92	22.34
853.224	24.49
853.528	23.96
853.831	24.72
854.135	25.59
854.438	24.39
854.742	23.23
855.045	25.93
855.349	25.96
855.652	27.78
855.955	26.88
856.259	27.08
856.562	28.36
856.865	25.73
857.168	22.1
857.471	22
857.774	20.99
858.077	21.31
858.38	21.15
858.683	21.8
858.986	22.82
859.289	21.71
859.592	21.3
859.894	22.86
860.197	21.14
860.5	21.13
860.802	21.85
861.105	21.98
861.407	21.19
861.71	22.62
862.012	24.96
862.315	23.53
862.617	23.15
862.919	24.85
863.222	26.94
863.524	27.4
863.826	28.57
864.128	30.82
864.43	32.24
864.732	31.72
865.034	33.48
865.336	31.29
865.638	29.64
865.94	31.46
866.242	28.79
866.544	29.87
866.846	29.68
867.147	31.3
867.449	32
867.751	33.4
868.052	32.5
868.354	29.97
868.655	30.83
868.957	30.92
869.258	27.91
869.56	27.48
869.861	27.82
870.162	27.09
870.463	28.43
870.765	26.19
871.066	26.2
871.367	22.05
871.668	26.37
871.969	24.11
872.27	20.45
872.571	22.73
872.872	23.44
873.173	24.83
873.473	23.43
873.774	26.58
874.075	27.07
874.376	27.05
874.676	24.54
874.977	23.21
875.277	22.6
875.578	22.84
875.878	23.18
876.179	23.21
876.479	22.37
876.78	20.99
877.08	22.45
877.38	22.52
877.68	25.91
877.981	21.26
878.281	25.22
878.581	26.52
