Data from MVZ_BU62167_Reflection_00006.txt Node
Date: Tue Nov 19 12:14:28 EST 2019
User: vgr7
Spectrometer: USB2G7710
Scans to average: 3
Trigger mode: 4
Integration Time (sec): 2.000000E-2
Electric dark correction enabled: true
Boxcar width: 10
XAxis mode: Wavelengths
Number of Pixels in Spectrum: 2048
>>>>>Begin Spectral Data<<<<<
177.721	0.16
178.105	-209.52
178.488	-437.56
178.871	-133.33
179.254	-27.45
179.636	24.4
180.019	150.96
180.402	-0
180.785	-373.33
181.168	253.51
181.55	15.46
181.933	78.93
182.316	101.87
182.698	243.41
183.081	-696.3
183.463	-334.64
183.846	-165.43
184.228	-7.84
184.611	47.73
184.993	46.33
185.376	31.67
185.758	62.52
186.14	8.89
186.522	-13.03
186.904	31.37
187.287	74.89
187.669	303.03
188.051	329.56
188.433	3155.56
188.815	933.33
189.197	225.51
189.579	-229.93
189.961	29.38
190.342	122.01
190.724	298.41
191.106	94.69
191.488	39.8
191.869	73.27
192.251	77.48
192.633	74.43
193.014	66
193.396	76.76
193.777	61.45
194.159	61.25
194.54	54.18
194.922	53.41
195.303	51.49
195.684	44.25
196.065	58.84
196.447	71.64
196.828	71.09
197.209	91.06
197.59	63.64
197.971	59.7
198.352	46
198.733	29.62
199.114	26.82
199.495	42.5
199.876	52.94
200.257	59.64
200.638	60.86
201.018	61.97
201.399	46.03
201.78	51.18
202.16	63.21
202.541	57.86
202.922	51.43
203.302	54.6
203.683	32.15
204.063	17.28
204.444	14.74
204.824	-0.44
205.204	8.13
205.585	5.24
205.965	4.43
206.345	24.48
206.725	26.13
207.106	30.42
207.486	27.36
207.866	26.28
208.246	30.42
208.626	19
209.006	5.55
209.386	13.76
209.766	10.29
210.145	1.64
210.525	11.86
210.905	8.23
211.285	10.86
211.664	28.12
212.044	51.38
212.424	39.93
212.803	44.18
213.183	34.45
213.562	41.03
213.942	50.66
214.321	34.62
214.701	30.4
215.08	31.52
215.459	26.03
215.838	17.13
216.218	6.73
216.597	25.7
216.976	30.21
217.355	20.23
217.734	18.33
218.113	18.1
218.492	12.94
218.871	17.27
219.25	8.59
219.629	7.08
220.008	0.47
220.387	1.63
220.766	11.73
221.144	8.43
221.523	-0.69
221.902	-7.45
222.28	-3.32
222.659	-4.26
223.037	-17.87
223.416	-18.07
223.794	-8.68
224.173	-11.65
224.551	-18.65
224.929	-17.9
225.308	-10.47
225.686	-7.8
226.064	-6.06
226.442	-4.75
226.821	-9.1
227.199	-6.39
227.577	-6.3
227.955	-8.86
228.333	-5.81
228.711	-9.96
229.089	-6.84
229.467	-4.32
229.845	-5.93
230.222	-3.69
230.6	-4.94
230.978	-0.22
231.356	-0.04
231.733	-2.56
232.111	-0.35
232.488	1.05
232.866	2.23
233.243	3.8
233.621	3.93
233.998	4.86
234.376	6.77
234.753	8.56
235.13	7.6
235.508	5.5
235.885	7.86
236.262	7.23
236.639	7.77
237.016	5.84
237.393	6.12
237.77	7.46
238.147	5.59
238.524	6.6
238.901	5.88
239.278	6.94
239.655	7.75
240.032	7.97
240.409	7.74
240.785	7.39
241.162	6.84
241.539	6.75
241.915	6.45
242.292	5.65
242.668	6.18
243.045	6.62
243.421	6.86
243.798	6.53
244.174	6.4
244.551	6.23
244.927	6.38
245.303	6.04
245.679	5.78
246.056	5.99
246.432	6.2
246.808	6.43
247.184	6.11
247.56	5.89
247.936	5.95
248.312	5.92
248.688	5.92
249.064	5.88
249.44	5.7
249.815	5.82
250.191	6.09
250.567	5.85
250.943	5.81
251.318	5.99
251.694	6.07
252.069	6.12
252.445	6.39
252.82	6.79
253.196	7.08
253.571	7.38
253.947	7.45
254.322	7.03
254.697	6.66
255.073	6.79
255.448	6.75
255.823	6.4
256.198	6.45
256.573	6.4
256.948	6.43
257.323	6.3
257.698	6.05
258.073	5.7
258.448	5.71
258.823	5.66
259.198	5.55
259.573	5.26
259.948	5.25
260.322	5.22
260.697	5.14
261.072	5.28
261.446	5.08
261.821	5.11
262.195	5.05
262.57	5.19
262.944	5.14
263.319	5.23
263.693	5.31
264.067	5.27
264.442	5.26
264.816	5.13
265.19	5.16
265.564	5.22
265.938	5.25
266.313	5.28
266.687	5.19
267.061	5.01
267.435	5.36
267.809	5.34
268.183	5.22
268.556	5.08
268.93	4.84
269.304	4.91
269.678	4.91
270.051	5.3
270.425	5.31
270.799	5.3
271.172	5.29
271.546	5.09
271.919	5.06
272.293	5.1
272.666	5.2
273.04	5.28
273.413	5.28
273.787	5.4
274.16	5.28
274.533	5.4
274.906	5.67
275.279	5.44
275.653	5.48
276.026	5.65
276.399	5.62
276.772	5.72
277.145	5.67
277.518	5.54
277.891	5.46
278.263	5.28
278.636	5.29
279.009	5.23
279.382	5.32
279.755	5.24
280.127	5.37
280.5	5.28
280.872	5.25
281.245	5.12
281.617	5.04
281.99	5.09
282.362	5.16
282.735	4.99
283.107	5.05
283.479	5
283.852	5.04
284.224	5.2
284.596	5.23
284.968	5.23
285.34	5.21
285.713	5.13
286.085	5.07
286.457	5
286.829	5.06
287.201	5.07
287.572	5.21
287.944	5.06
288.316	4.99
288.688	4.87
289.06	4.88
289.431	4.97
289.803	5.02
290.175	4.91
290.546	5.03
290.918	5.09
291.289	4.97
291.661	4.94
292.032	4.91
292.403	4.9
292.775	5.09
293.146	5.13
293.517	5.28
293.889	5.57
294.26	5.7
294.631	5.63
295.002	5.47
295.373	5.44
295.744	5.63
296.115	5.83
296.486	6.04
296.857	6.21
297.228	6.18
297.599	6.08
297.97	6.07
298.34	6.04
298.711	5.99
299.082	6.04
299.452	5.86
299.823	5.78
300.194	5.75
300.564	5.68
300.935	5.79
301.305	5.7
301.676	5.4
302.046	5.21
302.416	5.15
302.787	5.32
303.157	5.15
303.527	5.03
303.897	4.92
304.267	4.89
304.637	4.69
305.008	4.84
305.378	4.88
305.748	4.79
306.117	4.71
306.487	4.77
306.857	4.81
307.227	5.07
307.597	5.08
307.967	5.1
308.336	5.03
308.706	4.98
309.076	5.03
309.445	5.26
309.815	5.43
310.184	5.4
310.554	5.32
310.923	5.4
311.293	5.37
311.662	5.42
312.031	5.4
312.401	5.5
312.77	5.37
313.139	5.35
313.508	5.51
313.877	5.59
314.246	5.51
314.616	5.59
314.985	5.37
315.353	5.42
315.722	5.37
316.091	5.34
316.46	5.16
316.829	5.14
317.198	5.08
317.567	5.16
317.935	5.19
318.304	5.51
318.672	5.67
319.041	5.79
319.41	5.78
319.778	5.78
320.147	5.71
320.515	5.75
320.883	5.75
321.252	5.73
321.62	5.56
321.988	5.6
322.357	5.46
322.725	5.64
323.093	5.55
323.461	5.71
323.829	5.77
324.197	5.99
324.565	5.8
324.933	5.89
325.301	5.72
325.669	5.64
326.037	5.45
326.405	5.24
326.772	5.11
327.14	5.01
327.508	5.08
327.875	5.03
328.243	5.03
328.61	5.14
328.978	5.09
329.346	5.14
329.713	5.18
330.08	5.28
330.448	5.17
330.815	5.3
331.182	5.12
331.55	5.11
331.917	4.95
332.284	5.1
332.651	4.87
333.018	5.03
333.385	5
333.752	5.06
334.119	5.28
334.486	5.21
334.853	5.28
335.22	5.13
335.587	5.04
335.954	5.02
336.32	4.92
336.687	5.05
337.054	5.03
337.42	4.97
337.787	5.03
338.153	5.08
338.52	5.17
338.886	5.24
339.253	5.21
339.619	5.27
339.986	5.2
340.352	5.27
340.718	5.1
341.084	5.1
341.451	5.16
341.817	5.01
342.183	5.04
342.549	5.01
342.915	5.13
343.281	5.22
343.647	5.22
344.013	5.29
344.379	5.17
344.745	5.21
345.11	5.18
345.476	5.2
345.842	5.07
346.208	4.96
346.573	4.99
346.939	5.13
347.304	5.05
347.67	5.07
348.035	5.05
348.401	5.14
348.766	5.14
349.132	5.21
349.497	5.16
349.862	5.07
350.228	5.12
350.593	5.05
350.958	5.19
351.323	5.15
351.688	5.08
352.053	5.08
352.418	5.11
352.783	5.13
353.148	5.01
353.513	5.04
353.878	5.05
354.243	4.89
354.608	4.81
354.972	4.86
355.337	4.86
355.702	4.77
356.066	4.79
356.431	4.8
356.795	4.65
357.16	4.74
357.524	4.88
357.889	4.85
358.253	4.83
358.618	4.77
358.982	4.77
359.346	4.83
359.71	4.79
360.075	4.77
360.439	4.8
360.803	4.87
361.167	4.9
361.531	4.9
361.895	4.95
362.259	4.96
362.623	4.97
362.987	4.96
363.351	5.03
363.714	5.04
364.078	5.01
364.442	5.02
364.806	5.03
365.169	4.99
365.533	4.97
365.896	5.04
366.26	4.98
366.623	4.99
366.987	4.9
367.35	4.89
367.714	4.84
368.077	4.85
368.44	4.83
368.803	4.83
369.167	4.75
369.53	4.76
369.893	4.8
370.256	4.73
370.619	4.68
370.982	4.66
371.345	4.77
371.708	4.8
372.071	4.82
372.434	4.81
372.797	4.79
373.159	4.81
373.522	4.69
373.885	4.72
374.247	4.77
374.61	4.84
374.973	4.87
375.335	4.93
375.698	4.88
376.06	4.91
376.423	4.88
376.785	4.95
377.147	4.98
377.51	4.94
377.872	5.02
378.234	5.05
378.596	5.04
378.958	4.89
379.321	4.93
379.683	4.94
380.045	4.96
380.407	4.95
380.769	4.93
381.13	5.04
381.492	5.09
381.854	5.04
382.216	5.05
382.578	5.05
382.939	5.03
383.301	5.06
383.663	5.06
384.024	5.07
384.386	5.04
384.747	4.99
385.109	4.99
385.47	5
385.832	5
386.193	4.98
386.554	4.99
386.916	4.95
387.277	4.93
387.638	4.94
387.999	5
388.36	4.99
388.721	4.96
389.082	4.92
389.443	4.98
389.804	4.95
390.165	5
390.526	4.99
390.887	4.98
391.248	4.96
391.609	5.01
391.969	5.03
392.33	5.04
392.691	5
393.051	4.99
393.412	4.99
393.772	5.04
394.133	5.05
394.493	5.05
394.854	5.06
395.214	5.03
395.574	5
395.935	5
396.295	5
396.655	5.01
397.015	4.97
397.376	4.97
397.736	4.89
398.096	4.89
398.456	4.91
398.816	4.89
399.176	4.81
399.535	4.82
399.895	4.82
400.255	4.85
400.615	4.87
400.975	4.87
401.334	4.87
401.694	4.83
402.054	4.84
402.413	4.85
402.773	4.83
403.132	4.84
403.492	4.86
403.851	4.83
404.211	4.82
404.57	4.83
404.929	4.81
405.288	4.85
405.648	4.86
406.007	4.86
406.366	4.84
406.725	4.89
407.084	4.84
407.443	4.83
407.802	4.79
408.161	4.77
408.52	4.75
408.879	4.73
409.238	4.74
409.596	4.75
409.955	4.73
410.314	4.76
410.673	4.75
411.031	4.71
411.39	4.71
411.748	4.72
412.107	4.69
412.465	4.68
412.824	4.66
413.182	4.62
413.54	4.6
413.899	4.62
414.257	4.58
414.615	4.6
414.974	4.61
415.332	4.65
415.69	4.64
416.048	4.66
416.406	4.66
416.764	4.67
417.122	4.64
417.48	4.62
417.838	4.64
418.195	4.6
418.553	4.61
418.911	4.63
419.269	4.65
419.626	4.65
419.984	4.67
420.342	4.66
420.699	4.66
421.057	4.65
421.414	4.65
421.772	4.67
422.129	4.67
422.486	4.67
422.844	4.65
423.201	4.68
423.558	4.66
423.915	4.64
424.273	4.65
424.63	4.66
424.987	4.69
425.344	4.68
425.701	4.69
426.058	4.7
426.415	4.68
426.772	4.66
427.128	4.66
427.485	4.65
427.842	4.67
428.199	4.68
428.555	4.68
428.912	4.66
429.269	4.66
429.625	4.65
429.982	4.67
430.338	4.69
430.695	4.66
431.051	4.66
431.407	4.69
431.764	4.66
432.12	4.66
432.476	4.66
432.832	4.64
433.189	4.62
433.545	4.61
433.901	4.6
434.257	4.6
434.613	4.59
434.969	4.59
435.325	4.6
435.681	4.59
436.036	4.61
436.392	4.62
436.748	4.62
437.104	4.61
437.459	4.6
437.815	4.6
438.171	4.6
438.526	4.61
438.882	4.58
439.237	4.59
439.593	4.58
439.948	4.58
440.304	4.58
440.659	4.62
441.014	4.61
441.369	4.63
441.725	4.66
442.08	4.66
442.435	4.65
442.79	4.64
443.145	4.65
443.5	4.64
443.855	4.64
444.21	4.64
444.565	4.64
444.92	4.65
445.275	4.64
445.629	4.64
445.984	4.63
446.339	4.67
446.693	4.66
447.048	4.67
447.403	4.65
447.757	4.65
448.112	4.64
448.466	4.64
448.82	4.64
449.175	4.62
449.529	4.63
449.883	4.63
450.238	4.63
450.592	4.61
450.946	4.61
451.3	4.6
451.654	4.59
452.008	4.6
452.362	4.57
452.716	4.57
453.07	4.56
453.424	4.58
453.778	4.56
454.132	4.56
454.486	4.57
454.839	4.58
455.193	4.58
455.547	4.58
455.9	4.58
456.254	4.58
456.607	4.6
456.961	4.6
457.314	4.6
457.668	4.61
458.021	4.62
458.375	4.61
458.728	4.63
459.081	4.63
459.434	4.63
459.787	4.65
460.141	4.65
460.494	4.66
460.847	4.66
461.2	4.66
461.553	4.68
461.906	4.68
462.259	4.67
462.611	4.69
462.964	4.71
463.317	4.71
463.67	4.72
464.022	4.71
464.375	4.7
464.728	4.71
465.08	4.71
465.433	4.72
465.785	4.77
466.138	4.77
466.49	4.78
466.843	4.79
467.195	4.77
467.547	4.77
467.899	4.75
468.252	4.79
468.604	4.8
468.956	4.79
469.308	4.79
469.66	4.84
470.012	4.83
470.364	4.8
470.716	4.8
471.068	4.81
471.42	4.83
471.772	4.85
472.123	4.85
472.475	4.87
472.827	4.87
473.178	4.86
473.53	4.87
473.882	4.88
474.233	4.89
474.585	4.91
474.936	4.91
475.288	4.92
475.639	4.89
475.99	4.88
476.342	4.88
476.693	4.87
477.044	4.86
477.395	4.85
477.746	4.84
478.097	4.84
478.448	4.82
478.8	4.82
479.15	4.8
479.501	4.8
479.852	4.78
480.203	4.78
480.554	4.78
480.905	4.79
481.255	4.77
481.606	4.78
481.957	4.78
482.307	4.8
482.658	4.81
483.009	4.81
483.359	4.82
483.709	4.84
484.06	4.85
484.41	4.84
484.761	4.86
485.111	4.88
485.461	4.88
485.811	4.88
486.162	4.88
486.512	4.89
486.862	4.9
487.212	4.92
487.562	4.92
487.912	4.91
488.262	4.91
488.612	4.92
488.961	4.92
489.311	4.91
489.661	4.91
490.011	4.9
490.36	4.9
490.71	4.9
491.06	4.88
491.409	4.89
491.759	4.9
492.108	4.89
492.458	4.88
492.807	4.88
493.157	4.89
493.506	4.89
493.855	4.87
494.204	4.87
494.554	4.86
494.903	4.87
495.252	4.89
495.601	4.89
495.95	4.91
496.299	4.9
496.648	4.94
496.997	4.94
497.346	4.97
497.695	4.96
498.043	4.96
498.392	4.97
498.741	4.97
499.09	5
499.438	5.03
499.787	5.02
500.135	5.04
500.484	5.05
500.832	5.07
501.181	5.08
501.529	5.14
501.878	5.15
502.226	5.16
502.574	5.18
502.923	5.18
503.271	5.21
503.619	5.23
503.967	5.22
504.315	5.24
504.663	5.24
505.011	5.29
505.359	5.28
505.707	5.28
506.055	5.28
506.403	5.25
506.751	5.25
507.098	5.28
507.446	5.3
507.794	5.31
508.141	5.32
508.489	5.34
508.837	5.35
509.184	5.36
509.531	5.38
509.879	5.38
510.226	5.38
510.574	5.39
510.921	5.42
511.268	5.43
511.616	5.42
511.963	5.44
512.31	5.44
512.657	5.48
513.004	5.48
513.351	5.51
513.698	5.5
514.045	5.51
514.392	5.49
514.739	5.52
515.086	5.53
515.432	5.56
515.779	5.55
516.126	5.53
516.473	5.51
516.819	5.48
517.166	5.48
517.512	5.48
517.859	5.48
518.205	5.46
518.552	5.48
518.898	5.49
519.245	5.49
519.591	5.48
519.937	5.45
520.283	5.47
520.629	5.45
520.976	5.49
521.322	5.5
521.668	5.52
522.014	5.5
522.36	5.5
522.706	5.49
523.052	5.52
523.398	5.51
523.743	5.53
524.089	5.54
524.435	5.55
524.781	5.57
525.126	5.57
525.472	5.59
525.817	5.58
526.163	5.59
526.509	5.59
526.854	5.6
527.199	5.62
527.545	5.62
527.89	5.63
528.235	5.64
528.581	5.64
528.926	5.65
529.271	5.65
529.616	5.65
529.961	5.66
530.306	5.65
530.651	5.67
530.996	5.68
531.341	5.7
531.686	5.69
532.031	5.71
532.376	5.72
532.721	5.7
533.065	5.72
533.41	5.74
533.755	5.74
534.099	5.75
534.444	5.76
534.788	5.76
535.133	5.78
535.477	5.78
535.822	5.79
536.166	5.81
536.51	5.81
536.855	5.8
537.199	5.8
537.543	5.82
537.887	5.82
538.231	5.82
538.576	5.8
538.92	5.81
539.264	5.81
539.608	5.82
539.951	5.84
540.295	5.84
540.639	5.83
540.983	5.83
541.327	5.85
541.671	5.84
542.014	5.84
542.358	5.83
542.701	5.83
543.045	5.82
543.389	5.82
543.732	5.82
544.075	5.85
544.419	5.86
544.762	5.85
545.105	5.84
545.449	5.85
545.792	5.88
546.135	5.89
546.478	5.89
546.821	5.89
547.165	5.88
547.508	5.87
547.851	5.86
548.194	5.86
548.536	5.82
548.879	5.82
549.222	5.82
549.565	5.81
549.908	5.82
550.25	5.78
550.593	5.74
550.936	5.77
551.278	5.73
551.621	5.69
551.963	5.72
552.306	5.74
552.648	5.74
552.991	5.72
553.333	5.7
553.675	5.72
554.017	5.71
554.36	5.74
554.702	5.75
555.044	5.8
555.386	5.79
555.728	5.82
556.07	5.8
556.412	5.79
556.754	5.78
557.096	5.79
557.438	5.81
557.78	5.83
558.121	5.81
558.463	5.82
558.805	5.87
559.147	5.87
559.488	5.82
559.83	5.86
560.171	5.85
560.513	5.85
560.854	5.79
561.196	5.77
561.537	5.78
561.878	5.78
562.22	5.74
562.561	5.82
562.902	5.82
563.243	5.81
563.584	5.85
563.925	5.88
564.266	5.85
564.607	5.88
564.948	5.88
565.289	5.9
565.63	5.9
565.971	5.88
566.312	5.88
566.653	5.91
566.993	5.9
567.334	5.94
567.675	5.98
568.015	5.97
568.356	6
568.696	5.98
569.037	5.95
569.377	5.96
569.718	5.9
570.058	5.92
570.398	5.96
570.739	5.91
571.079	5.92
571.419	5.93
571.759	5.93
572.099	5.91
572.439	5.9
572.779	5.89
573.119	5.88
573.459	5.85
573.799	5.87
574.139	5.86
574.479	5.83
574.819	5.84
575.158	5.91
575.498	5.92
575.838	5.95
576.177	5.99
576.517	5.99
576.856	5.99
577.196	5.96
577.535	5.94
577.875	5.98
578.214	5.99
578.553	5.98
578.893	5.96
579.232	6
579.571	6.03
579.91	6.04
580.25	6.08
580.589	6.09
580.928	6.05
581.267	6.04
581.606	6.05
581.945	6.01
582.283	5.96
582.622	5.91
582.961	5.9
583.3	5.92
583.639	5.93
583.977	5.96
584.316	5.97
584.654	5.98
584.993	5.98
585.332	5.96
585.67	6.02
586.008	6.02
586.347	6.01
586.685	5.97
587.024	5.99
587.362	5.96
587.7	6
588.038	6.04
588.376	6.07
588.715	6.08
589.053	6.08
589.391	6.08
589.729	6.09
590.067	6.12
590.404	6.18
590.742	6.21
591.08	6.24
591.418	6.28
591.756	6.27
592.093	6.29
592.431	6.31
592.769	6.31
593.106	6.37
593.444	6.38
593.781	6.45
594.119	6.46
594.456	6.47
594.793	6.48
595.131	6.45
595.468	6.45
595.805	6.45
596.143	6.47
596.48	6.52
596.817	6.56
597.154	6.52
597.491	6.46
597.828	6.44
598.165	6.41
598.502	6.38
598.839	6.4
599.176	6.37
599.512	6.31
599.849	6.25
600.186	6.2
600.523	6.2
600.859	6.15
601.196	6.15
601.532	6.14
601.869	6.12
602.205	6.14
602.542	6.14
602.878	6.11
603.215	6.11
603.551	6.07
603.887	6.04
604.223	6.02
604.56	6.04
604.896	6.02
605.232	6.02
605.568	6.03
605.904	6.05
606.24	6.1
606.576	6.14
606.912	6.17
607.248	6.18
607.583	6.16
607.919	6.18
608.255	6.15
608.591	6.2
608.926	6.16
609.262	6.18
609.597	6.18
609.933	6.18
610.268	6.19
610.604	6.19
610.939	6.22
611.275	6.24
611.61	6.19
611.945	6.18
612.281	6.22
612.616	6.24
612.951	6.26
613.286	6.23
613.621	6.26
613.956	6.28
614.291	6.27
614.626	6.37
614.961	6.4
615.296	6.42
615.631	6.42
615.966	6.44
616.3	6.4
616.635	6.41
616.97	6.47
617.304	6.42
617.639	6.44
617.973	6.46
618.308	6.41
618.642	6.48
618.977	6.48
619.311	6.41
619.646	6.4
619.98	6.37
620.314	6.33
620.648	6.31
620.983	6.3
621.317	6.32
621.651	6.24
621.985	6.16
622.319	6.13
622.653	6.13
622.987	6.14
623.321	6.2
623.655	6.17
623.988	6.16
624.322	6.18
624.656	6.24
624.99	6.22
625.323	6.23
625.657	6.25
625.99	6.31
626.324	6.28
626.657	6.25
626.991	6.26
627.324	6.28
627.658	6.28
627.991	6.33
628.324	6.31
628.657	6.34
628.991	6.41
629.324	6.45
629.657	6.42
629.99	6.41
630.323	6.4
630.656	6.45
630.989	6.41
631.322	6.35
631.655	6.27
631.987	6.31
632.32	6.37
632.653	6.29
632.986	6.27
633.318	6.34
633.651	6.39
633.984	6.38
634.316	6.4
634.649	6.33
634.981	6.27
635.313	6.32
635.646	6.37
635.978	6.35
636.31	6.26
636.643	6.22
636.975	6.26
637.307	6.27
637.639	6.26
637.971	6.26
638.303	6.31
638.635	6.33
638.967	6.3
639.299	6.29
639.631	6.39
639.963	6.37
640.295	6.37
640.626	6.37
640.958	6.38
641.29	6.39
641.621	6.47
641.953	6.46
642.285	6.51
642.616	6.52
642.948	6.52
643.279	6.64
643.61	6.71
643.942	6.72
644.273	6.75
644.604	6.73
644.936	6.84
645.267	6.84
645.598	6.92
645.929	6.9
646.26	6.88
646.591	6.84
646.922	6.89
647.253	6.89
647.584	6.9
647.915	6.83
648.245	6.82
648.576	6.86
648.907	6.85
649.238	6.73
649.568	6.68
649.899	6.7
650.229	6.7
650.56	6.71
650.89	6.78
651.221	6.7
651.551	6.7
651.882	6.64
652.212	6.63
652.542	6.54
652.872	6.59
653.203	6.58
653.533	6.64
653.863	6.62
654.193	6.62
654.523	6.58
654.853	6.66
655.183	6.73
655.513	6.78
655.843	6.82
656.172	6.89
656.502	6.85
656.832	6.84
657.162	6.77
657.491	6.77
657.821	6.67
658.15	6.74
658.48	6.77
658.809	6.74
659.139	6.83
659.468	6.85
659.798	6.86
660.127	6.87
660.456	6.81
660.785	6.86
661.115	6.87
661.444	6.93
661.773	6.95
662.102	6.84
662.431	6.79
662.76	6.77
663.089	6.77
663.418	6.84
663.747	6.86
664.076	6.96
664.404	6.93
664.733	7.02
665.062	7.03
665.39	7.06
665.719	7.11
666.048	7.08
666.376	7.17
666.705	7.09
667.033	7.12
667.362	7.08
667.69	7.02
668.018	7.1
668.347	7.13
668.675	7.06
669.003	7.09
669.331	7.16
669.659	7.16
669.987	7.17
670.315	7.11
670.643	7.06
670.971	7.08
671.299	7.02
671.627	6.89
671.955	6.82
672.283	6.72
672.61	6.73
672.938	6.66
673.266	6.54
673.593	6.56
673.921	6.61
674.249	6.62
674.576	6.63
674.904	6.61
675.231	6.66
675.558	6.67
675.886	6.68
676.213	6.61
676.54	6.65
676.867	6.67
677.195	6.74
677.522	6.79
677.849	6.83
678.176	6.9
678.503	6.98
678.83	7.04
679.157	7.18
679.484	7.13
679.81	7.26
680.137	7.33
680.464	7.35
680.791	7.26
681.117	7.32
681.444	7.31
681.771	7.24
682.097	7.17
682.424	7.21
682.75	7.24
683.077	7.31
683.403	7.32
683.729	7.35
684.056	7.34
684.382	7.33
684.708	7.24
685.034	7.32
685.36	7.33
685.686	7.3
686.012	7.27
686.339	7.3
686.664	7.3
686.99	7.29
687.316	7.35
687.642	7.34
687.968	7.38
688.294	7.48
688.619	7.49
688.945	7.59
689.271	7.59
689.596	7.59
689.922	7.52
690.247	7.45
690.573	7.38
690.898	7.38
691.224	7.47
691.549	7.49
691.874	7.46
692.2	7.39
692.525	7.39
692.85	7.29
693.175	7.34
693.5	7.19
693.825	7.28
694.15	7.24
694.475	7.39
694.8	7.44
695.125	7.42
695.45	7.22
695.775	7.09
696.099	7.11
696.424	7.2
696.749	7.26
697.073	7.25
697.398	7.31
697.723	7.32
698.047	7.36
698.372	7.4
698.696	7.45
699.02	7.51
699.345	7.56
699.669	7.59
699.993	7.47
700.318	7.51
700.642	7.47
700.966	7.54
701.29	7.51
701.614	7.46
701.938	7.45
702.262	7.65
702.586	7.74
702.91	7.82
703.234	7.7
703.557	7.6
703.881	7.71
704.205	7.62
704.529	7.59
704.852	7.49
705.176	7.42
705.499	7.23
705.823	7.24
706.146	7.26
706.47	7.3
706.793	7.58
707.117	7.64
707.44	7.56
707.763	7.44
708.086	7.39
708.409	7.37
708.733	7.28
709.056	7.29
709.379	7.27
709.702	7.17
710.025	7.27
710.348	7.36
710.671	7.38
710.993	7.48
711.316	7.57
711.639	7.46
711.962	7.61
712.284	7.78
712.607	7.72
712.93	7.58
713.252	7.62
713.575	7.66
713.897	7.61
714.22	7.66
714.542	7.8
714.864	7.84
715.187	7.84
715.509	7.84
715.831	7.74
716.153	7.71
716.475	7.84
716.798	7.72
717.12	7.75
717.442	7.56
717.764	7.47
718.085	7.34
718.407	7.48
718.729	7.45
719.051	7.41
719.373	7.63
719.695	7.84
720.016	7.83
720.338	7.72
720.659	7.91
720.981	7.78
721.302	7.77
721.624	7.76
721.945	7.79
722.267	7.82
722.588	7.98
722.909	8
723.231	7.89
723.552	8.09
723.873	7.96
724.194	8.2
724.515	8.34
724.836	8.58
725.157	8.48
725.478	8.36
725.799	8.37
726.12	8.27
726.441	8.3
726.762	8.23
727.083	8.21
727.403	8.21
727.724	8.48
728.045	8.47
728.365	8.58
728.686	8.55
729.006	8.52
729.327	8.51
729.647	8.46
729.967	8.63
730.288	8.6
730.608	8.57
730.928	8.6
731.249	8.64
731.569	8.46
731.889	8.58
732.209	8.48
732.529	8.49
732.849	8.44
733.169	8.29
733.489	8.13
733.809	8.11
734.129	8.06
734.448	8.09
734.768	8.09
735.088	8.04
735.408	8.06
735.727	8.19
736.047	8.35
736.366	8.42
736.686	8.38
737.005	8.52
737.325	8.79
737.644	8.67
737.963	8.51
738.283	8.48
738.602	8.47
738.921	8.7
739.24	8.98
739.56	9.22
739.879	9.31
740.198	9.76
740.517	9.74
740.836	9.57
741.155	9.5
741.473	9.62
741.792	9.63
742.111	9.71
742.43	9.78
742.748	9.67
743.067	9.79
743.386	9.48
743.704	9.36
744.023	9.22
744.341	9.18
744.66	9.36
744.978	9.46
745.297	9.42
745.615	9.18
745.933	8.79
746.252	8.58
746.57	8.54
746.888	8.4
747.206	8.54
747.524	8.65
747.842	8.22
748.16	8.09
748.478	7.77
748.796	7.8
749.114	7.71
749.432	8
749.749	7.59
750.067	7.62
750.385	7.79
750.703	7.82
751.02	8.12
751.338	7.97
751.655	7.98
751.973	8.03
752.29	8.27
752.608	8.37
752.925	8.26
753.242	8.33
753.56	8.15
753.877	7.85
754.194	8.1
754.511	8.34
754.828	8.15
755.145	8.46
755.462	8.33
755.779	8.48
756.096	8.19
756.413	8.69
756.73	9.08
757.047	8.79
757.364	9.02
757.68	9.06
757.997	9.07
758.314	9.25
758.63	9.26
758.947	9.21
759.264	9.18
759.58	9.48
759.896	9.39
760.213	9.68
760.529	9.93
760.846	9.68
761.162	9.68
761.478	9.64
761.794	9.8
762.11	9.93
762.426	9.87
762.743	9.79
763.059	9.79
763.375	9.67
763.69	9.94
764.006	9.87
764.322	9.76
764.638	9.8
764.954	9.75
765.27	10.05
765.585	10.1
765.901	10.15
766.216	10.02
766.532	10.12
766.848	10.1
767.163	10.05
767.478	9.99
767.794	10.04
768.109	10.38
768.424	10.21
768.74	10.06
769.055	10.23
769.37	10.13
769.685	10.16
770	10.12
770.315	9.89
770.63	9.86
770.945	10.04
771.26	10.22
771.575	10.02
771.89	9.84
772.205	9.77
772.52	9.56
772.834	9.61
773.149	9.7
773.464	9.43
773.778	9.49
774.093	9.36
774.407	9.05
774.722	8.84
775.036	9.12
775.351	9.63
775.665	9.58
775.979	9.72
776.293	9.72
776.608	9.55
776.922	9.4
777.236	9.02
777.55	8.56
777.864	8.19
778.178	8.26
778.492	8.27
778.806	8.47
779.12	8.83
779.434	9.09
779.747	8.85
780.061	9.26
780.375	9.55
780.689	10.2
781.002	10.67
781.316	10.16
781.629	9.67
781.943	9.28
782.256	9.4
782.57	9.59
782.883	9.69
783.196	9.84
783.51	9.94
783.823	10.2
784.136	10.31
784.449	10.51
784.762	11.07
785.075	10.92
785.388	11.01
785.701	10.89
786.014	10.54
786.327	10.71
786.64	10.52
786.953	10.04
787.266	9.86
787.578	9.97
787.891	10.43
788.204	10.65
788.516	10.8
788.829	10.59
789.141	10.68
789.454	10.59
789.766	11.1
790.079	10.98
790.391	11.02
790.703	11.04
791.016	11.21
791.328	10.91
791.64	11
791.952	10.87
792.264	10.76
792.576	11.09
792.888	10.94
793.2	11.05
793.512	11.05
793.824	11.57
794.136	11.39
794.448	11.43
794.76	11.55
795.071	11.2
795.383	11.12
795.695	10.8
796.006	10.33
796.318	9.9
796.629	9.9
796.941	10.19
797.252	10.49
797.564	11.05
797.875	11.14
798.186	10.64
798.497	10.72
798.809	10.86
799.12	10.55
799.431	10.58
799.742	10.69
800.053	10.75
800.364	10.02
800.675	10.61
800.986	11.05
801.297	11.25
801.608	11.2
801.918	11.16
802.229	11.24
802.54	11.67
802.851	11.73
803.161	11.99
803.472	11.85
803.782	12.03
804.093	11.24
804.403	11.35
804.714	11.96
805.024	11.95
805.334	12.31
805.645	12.53
805.955	12.79
806.265	12.61
806.575	12.57
806.885	13.12
807.195	13.06
807.505	12.59
807.815	12.67
808.125	12.7
808.435	12.42
808.745	12.88
809.055	13.23
809.365	13.18
809.674	13.52
809.984	13.73
810.294	13.81
810.603	13.77
810.913	13.22
811.222	13.16
811.532	13.16
811.841	13.09
812.151	12.99
812.46	12.8
812.769	12.84
813.079	13.39
813.388	12.76
813.697	12.25
814.006	12.45
814.315	12.69
814.624	13.86
814.933	14.21
815.242	13.76
815.551	13.41
815.86	13.83
816.169	12.9
816.478	12.27
816.786	11.56
817.095	11.75
817.404	11.58
817.712	11.57
818.021	11.93
818.33	11.42
818.638	11.12
818.947	11.52
819.255	11.73
819.563	11.62
819.872	11.95
820.18	12.11
820.488	12.28
820.796	12.14
821.105	11.8
821.413	11.91
821.721	11.68
822.029	11.61
822.337	11.53
822.645	11.64
822.953	11.81
823.26	11.9
823.568	11.92
823.876	11.98
824.184	11.95
824.491	11.7
824.799	11.85
825.107	11.88
825.414	11.97
825.722	11.96
826.029	11.97
826.337	11.99
826.644	11.92
826.951	11.88
827.259	11.9
827.566	11.94
827.873	11.77
828.18	12.07
828.488	12.13
828.795	12.18
829.102	12.22
829.409	12.13
829.716	12.31
830.023	12.36
830.329	12.4
830.636	12.66
830.943	12.74
831.25	12.43
831.557	12.41
831.863	11.66
832.17	11.43
832.476	11.3
832.783	11.33
833.089	11.84
833.396	11.72
833.702	11.8
834.009	11.78
834.315	11.68
834.621	11.77
834.928	11.82
835.234	11.8
835.54	12.15
835.846	12.07
836.152	11.49
836.458	11.35
836.764	11.38
837.07	11.06
837.376	11.57
837.682	11.57
837.988	11.93
838.293	12.61
838.599	12.46
838.905	12.38
839.211	12.14
839.516	11.09
839.822	11.36
840.127	10.8
840.433	10.98
840.738	11.94
841.044	12.88
841.349	11.37
841.654	10.57
841.959	9.39
842.265	9.42
842.57	9.67
842.875	9.6
843.18	9.09
843.485	8.37
843.79	8.22
844.095	8.53
844.4	9.16
844.705	9.5
845.01	10.83
845.315	11.58
845.619	12.11
845.924	12.74
846.229	12.26
846.533	12.45
846.838	11.05
847.142	10.29
847.447	8.55
847.751	10.91
848.056	12.15
848.36	13.99
848.664	13.88
848.969	14.34
849.273	14.77
849.577	16.2
849.881	16.88
850.185	14.42
850.489	15.46
850.794	14.37
851.097	14.9
851.401	11
851.705	10.52
852.009	10.32
852.313	7.99
852.617	7.75
852.92	10.03
853.224	12.3
853.528	12.5
853.831	12.9
854.135	13.2
854.438	14.3
854.742	14.75
855.045	12.8
855.349	13.66
855.652	14.97
855.955	14.42
856.259	12.82
856.562	17.41
856.865	17.91
857.168	18.95
857.471	18.25
857.774	22.51
858.077	22.98
858.38	21.85
858.683	25.27
858.986	25.9
859.289	22.5
859.592	24.18
859.894	24.08
860.197	23.61
860.5	24.85
860.802	25.18
861.105	23.44
861.407	25.41
861.71	26.11
862.012	25.11
862.315	24.8
862.617	26.8
862.919	23.31
863.222	23.61
863.524	20.8
863.826	19.42
864.128	17.91
864.43	17.81
864.732	17.98
865.034	15.35
865.336	15.15
865.638	17.66
865.94	16.61
866.242	14.33
866.544	15.03
866.846	13.06
867.147	11.82
867.449	12.51
867.751	11.63
868.052	11.33
868.354	12.37
868.655	13.22
868.957	13.09
869.258	12.43
869.56	11.73
869.861	14.19
870.162	17.32
870.463	17.95
870.765	17.16
871.066	18.04
871.367	16.68
871.668	15.77
871.969	14.42
872.27	14.61
872.571	16.11
872.872	15.61
873.173	16.05
873.473	19.88
873.774	21.12
874.075	22.59
874.376	20.27
874.676	19.77
874.977	20.7
875.277	21.61
875.578	24.39
875.878	24.22
876.179	23.14
876.479	19.95
876.78	20.02
877.08	20.96
877.38	20.35
877.68	25.53
877.981	27.53
878.281	27.89
878.581	26.3
