Data from MVZ_BU5182_Reflection_00013.txt Node
Date: Tue Nov 19 12:19:28 EST 2019
User: vgr7
Spectrometer: USB2G7710
Scans to average: 3
Trigger mode: 4
Integration Time (sec): 2.000000E-2
Electric dark correction enabled: true
Boxcar width: 10
XAxis mode: Wavelengths
Number of Pixels in Spectrum: 2048
>>>>>Begin Spectral Data<<<<<
177.721	0.8
178.105	-83.62
178.488	-116.13
178.871	-19.05
179.254	42.22
179.636	94.13
180.019	117.38
180.402	245.45
180.785	-40.23
181.168	-1090.48
181.55	184.97
181.933	408.18
182.316	-677.78
182.698	-150.48
183.081	-111.45
183.463	-101.24
183.846	-84.19
184.228	-91.98
184.611	-80.86
184.993	-65.01
185.376	-75.26
185.758	-79.53
186.14	-115.69
186.522	-102.81
186.904	-95.52
187.287	-94.09
187.669	-82.66
188.051	-68.96
188.433	-113.39
188.815	-135.81
189.197	-113.96
189.579	-84.61
189.961	-51.64
190.342	-53.65
190.724	-74.84
191.106	-90.9
191.488	-101.62
191.869	-83.23
192.251	-73.54
192.633	-42.7
193.014	-40.3
193.396	-36.15
193.777	-33.57
194.159	-26.48
194.54	-27.9
194.922	-28.18
195.303	-19.49
195.684	-8.66
196.065	-19.42
196.447	-12.39
196.828	-5.95
197.209	-4.77
197.59	-9.18
197.971	-11.87
198.352	-15.59
198.733	-12.1
199.114	-20.39
199.495	-13.42
199.876	-19.83
200.257	-28.34
200.638	-43.58
201.018	-39.13
201.399	-37.74
201.78	-58
202.16	-56.86
202.541	-67.6
202.922	-81.09
203.302	-85.38
203.683	-104.13
204.063	-93.73
204.444	-98.01
204.824	-100.54
205.204	-83.36
205.585	-75.41
205.965	-93.75
206.345	-88.22
206.725	-75.49
207.106	-58.05
207.486	-58.83
207.866	-58.02
208.246	-44.23
208.626	-56.86
209.006	-56.94
209.386	-61.42
209.766	-46.31
210.145	-38.2
210.525	-40.42
210.905	-27.55
211.285	-31.26
211.664	-23.25
212.044	-29.61
212.424	-29.84
212.803	-35.29
213.183	-48.28
213.562	-44.81
213.942	-35.08
214.321	-37.74
214.701	-37.28
215.08	-40.77
215.459	-32.91
215.838	-29.71
216.218	-36
216.597	-22.54
216.976	-30.07
217.355	-33.62
217.734	-34.62
218.113	-33.75
218.492	-40.16
218.871	-49.13
219.25	-45.81
219.629	-59.45
220.008	-51.31
220.387	-57.26
220.766	-40.93
221.144	-25.17
221.523	-27.72
221.902	-29.56
222.28	-28.26
222.659	-25.3
223.037	-22.41
223.416	-24.82
223.794	-21.78
224.173	-21.67
224.551	-16.56
224.929	-11.55
225.308	-8.86
225.686	-5.9
226.064	-9.08
226.442	-4.32
226.821	-0.35
227.199	1.38
227.577	2.79
227.955	3.2
228.333	4.09
228.711	2.34
229.089	0.19
229.467	-2.11
229.845	-2.21
230.222	1.82
230.6	-0.01
230.978	-2.54
231.356	-3.37
231.733	-5
232.111	-3.84
232.488	-3.82
232.866	-4.39
233.243	-7.44
233.621	-7.47
233.998	-7.62
234.376	-7.69
234.753	-8.04
235.13	-7.9
235.508	-7.12
235.885	-5.52
236.262	-4.17
236.639	-3.28
237.016	-4.14
237.393	-2.08
237.77	-0.67
238.147	-1.94
238.524	-0.47
238.901	0.68
239.278	1.12
239.655	1.79
240.032	1.58
240.409	1.76
240.785	2.07
241.162	2.99
241.539	2.89
241.915	2.9
242.292	3.39
242.668	3.47
243.045	2.78
243.421	2.28
243.798	2.03
244.174	1.79
244.551	2.09
244.927	1.95
245.303	1.84
245.679	1.98
246.056	1.83
246.432	1.88
246.808	1.88
247.184	2.1
247.56	1.9
247.936	2.16
248.312	2.04
248.688	2.18
249.064	2.15
249.44	2.34
249.815	2.34
250.191	2.11
250.567	2.05
250.943	2.52
251.318	2.7
251.694	2.58
252.069	2.58
252.445	2.28
252.82	2.54
253.196	2.81
253.571	2.61
253.947	3.06
254.322	2.83
254.697	2.73
255.073	2.36
255.448	2.63
255.823	2.59
256.198	2.84
256.573	2.8
256.948	2.79
257.323	2.89
257.698	3.1
258.073	2.99
258.448	3.28
258.823	3.22
259.198	3.23
259.573	3.28
259.948	3.36
260.322	3.4
260.697	3.35
261.072	3.28
261.446	3.13
261.821	3.11
262.195	3.27
262.57	3.52
262.944	3.89
263.319	3.82
263.693	3.64
264.067	3.63
264.442	3.54
264.816	3.64
265.19	3.45
265.564	3.42
265.938	3.29
266.313	3.02
266.687	2.85
267.061	2.84
267.435	2.99
267.809	2.8
268.183	2.81
268.556	2.61
268.93	2.81
269.304	2.93
269.678	2.93
270.051	2.76
270.425	2.61
270.799	2.51
271.172	2.47
271.546	2.66
271.919	2.52
272.293	2.5
272.666	2.58
273.04	2.67
273.413	2.7
273.787	2.91
274.16	3.05
274.533	3.31
274.906	3.4
275.279	3.31
275.653	3.52
276.026	3.51
276.399	3.81
276.772	3.73
277.145	3.7
277.518	3.63
277.891	3.84
278.263	3.83
278.636	3.72
279.009	3.83
279.382	3.71
279.755	3.81
280.127	3.78
280.5	3.71
280.872	3.58
281.245	3.47
281.617	3.52
281.99	3.34
282.362	3.26
282.735	3.29
283.107	3.19
283.479	3.14
283.852	3.23
284.224	3.32
284.596	3.17
284.968	3.16
285.34	3.12
285.713	2.87
286.085	2.78
286.457	2.78
286.829	2.79
287.201	2.8
287.572	2.8
287.944	2.78
288.316	2.85
288.688	2.95
289.06	3.03
289.431	2.93
289.803	3.08
290.175	3.01
290.546	2.93
290.918	3.07
291.289	3.02
291.661	2.81
292.032	2.57
292.403	2.67
292.775	2.88
293.146	3.1
293.517	3.21
293.889	3.34
294.26	3.29
294.631	3.32
295.002	3.39
295.373	3.45
295.744	3.61
296.115	3.67
296.486	3.74
296.857	3.78
297.228	3.92
297.599	3.94
297.97	4.09
298.34	4.14
298.711	4.14
299.082	4.16
299.452	4.32
299.823	4.32
300.194	4.31
300.564	4.19
300.935	4.09
301.305	4.12
301.676	3.93
302.046	3.92
302.416	3.88
302.787	3.82
303.157	3.89
303.527	3.92
303.897	3.91
304.267	3.81
304.637	3.65
305.008	3.52
305.378	3.58
305.748	3.38
306.117	3.42
306.487	3.45
306.857	3.49
307.227	3.6
307.597	3.74
307.967	3.81
308.336	3.88
308.706	3.91
309.076	3.93
309.445	4.16
309.815	4.41
310.184	4.4
310.554	4.38
310.923	4.3
311.293	4.32
311.662	4.27
312.031	4.24
312.401	4.3
312.77	4.29
313.139	4.16
313.508	4.26
313.877	4.25
314.246	4.11
314.616	4.16
314.985	4.14
315.353	4.22
315.722	4.22
316.091	4.23
316.46	4.31
316.829	4.5
317.198	4.42
317.567	4.48
317.935	4.52
318.304	4.77
318.672	4.89
319.041	4.98
319.41	4.98
319.778	5.12
320.147	5.13
320.515	5.37
320.883	5.3
321.252	5.29
321.62	5.35
321.988	5.68
322.357	5.72
322.725	5.66
323.093	5.65
323.461	5.63
323.829	5.7
324.197	5.75
324.565	5.64
324.933	5.59
325.301	5.47
325.669	5.43
326.037	5.56
326.405	5.51
326.772	5.43
327.14	5.48
327.508	5.43
327.875	5.42
328.243	5.34
328.61	5.56
328.978	5.45
329.346	5.41
329.713	5.4
330.08	5.51
330.448	5.5
330.815	5.57
331.182	5.62
331.55	5.61
331.917	5.58
332.284	5.67
332.651	5.88
333.018	5.92
333.385	5.91
333.752	5.7
334.119	5.73
334.486	5.71
334.853	5.72
335.22	5.71
335.587	5.73
335.954	5.83
336.32	5.77
336.687	5.96
337.054	6.13
337.42	6.14
337.787	6.19
338.153	6.38
338.52	6.36
338.886	6.4
339.253	6.32
339.619	6.45
339.986	6.5
340.352	6.46
340.718	6.44
341.084	6.6
341.451	6.68
341.817	6.6
342.183	6.71
342.549	6.69
342.915	6.65
343.281	6.61
343.647	6.59
344.013	6.66
344.379	6.63
344.745	6.53
345.11	6.4
345.476	6.37
345.842	6.3
346.208	6.29
346.573	6.26
346.939	6.43
347.304	6.35
347.67	6.34
348.035	6.34
348.401	6.4
348.766	6.4
349.132	6.43
349.497	6.54
349.862	6.46
350.228	6.5
350.593	6.58
350.958	6.7
351.323	6.65
351.688	6.67
352.053	6.65
352.418	6.7
352.783	6.79
353.148	6.75
353.513	6.8
353.878	6.81
354.243	6.9
354.608	6.92
354.972	6.93
355.337	6.93
355.702	6.98
356.066	6.94
356.431	6.91
356.795	6.88
357.16	6.88
357.524	6.99
357.889	6.99
358.253	6.91
358.618	6.88
358.982	6.87
359.346	6.88
359.71	6.87
360.075	6.86
360.439	6.88
360.803	6.88
361.167	6.85
361.531	6.81
361.895	6.7
362.259	6.61
362.623	6.58
362.987	6.54
363.351	6.39
363.714	6.43
364.078	6.51
364.442	6.47
364.806	6.45
365.169	6.33
365.533	6.36
365.896	6.46
366.26	6.47
366.623	6.53
366.987	6.49
367.35	6.58
367.714	6.53
368.077	6.45
368.44	6.37
368.803	6.24
369.167	6.21
369.53	6.27
369.893	6.32
370.256	6.25
370.619	6.22
370.982	6.28
371.345	6.15
371.708	6.1
372.071	6.05
372.434	6.02
372.797	6.02
373.159	5.92
373.522	5.79
373.885	5.74
374.247	5.72
374.61	5.67
374.973	5.6
375.335	5.58
375.698	5.59
376.06	5.55
376.423	5.6
376.785	5.63
377.147	5.52
377.51	5.42
377.872	5.41
378.234	5.37
378.596	5.34
378.958	5.36
379.321	5.22
379.683	5.25
380.045	5.2
380.407	5.19
380.769	5.12
381.13	5.13
381.492	5.1
381.854	5.11
382.216	5.09
382.578	5.08
382.939	5.02
383.301	4.99
383.663	4.97
384.024	4.96
384.386	4.96
384.747	4.97
385.109	4.95
385.47	4.99
385.832	4.96
386.193	4.91
386.554	4.85
386.916	4.85
387.277	4.82
387.638	4.83
387.999	4.79
388.36	4.84
388.721	4.84
389.082	4.88
389.443	4.82
389.804	4.82
390.165	4.76
390.526	4.76
390.887	4.7
391.248	4.7
391.609	4.69
391.969	4.64
392.33	4.68
392.691	4.65
393.051	4.6
393.412	4.6
393.772	4.64
394.133	4.64
394.493	4.63
394.854	4.62
395.214	4.6
395.574	4.59
395.935	4.54
396.295	4.5
396.655	4.41
397.015	4.37
397.376	4.32
397.736	4.28
398.096	4.27
398.456	4.29
398.816	4.27
399.176	4.19
399.535	4.17
399.895	4.1
400.255	4.09
400.615	4.09
400.975	4.05
401.334	4.02
401.694	4.02
402.054	4
402.413	3.97
402.773	3.95
403.132	3.9
403.492	3.89
403.851	3.84
404.211	3.84
404.57	3.84
404.929	3.84
405.288	3.84
405.648	3.78
406.007	3.78
406.366	3.77
406.725	3.76
407.084	3.76
407.443	3.76
407.802	3.74
408.161	3.75
408.52	3.78
408.879	3.75
409.238	3.76
409.596	3.74
409.955	3.72
410.314	3.72
410.673	3.72
411.031	3.71
411.39	3.72
411.748	3.75
412.107	3.71
412.465	3.69
412.824	3.67
413.182	3.72
413.54	3.72
413.899	3.71
414.257	3.73
414.615	3.72
414.974	3.73
415.332	3.7
415.69	3.66
416.048	3.64
416.406	3.63
416.764	3.61
417.122	3.6
417.48	3.59
417.838	3.58
418.195	3.57
418.553	3.56
418.911	3.54
419.269	3.51
419.626	3.52
419.984	3.51
420.342	3.51
420.699	3.48
421.057	3.46
421.414	3.45
421.772	3.43
422.129	3.41
422.486	3.4
422.844	3.4
423.201	3.41
423.558	3.41
423.915	3.41
424.273	3.4
424.63	3.41
424.987	3.42
425.344	3.42
425.701	3.42
426.058	3.44
426.415	3.46
426.772	3.46
427.128	3.46
427.485	3.45
427.842	3.44
428.199	3.45
428.555	3.43
428.912	3.42
429.269	3.43
429.625	3.44
429.982	3.46
430.338	3.46
430.695	3.46
431.051	3.45
431.407	3.43
431.764	3.42
432.12	3.39
432.476	3.38
432.832	3.36
433.189	3.34
433.545	3.31
433.901	3.31
434.257	3.3
434.613	3.29
434.969	3.31
435.325	3.33
435.681	3.32
436.036	3.32
436.392	3.31
436.748	3.32
437.104	3.32
437.459	3.32
437.815	3.32
438.171	3.32
438.526	3.31
438.882	3.31
439.237	3.31
439.593	3.31
439.948	3.3
440.304	3.3
440.659	3.3
441.014	3.31
441.369	3.29
441.725	3.29
442.08	3.29
442.435	3.29
442.79	3.28
443.145	3.27
443.5	3.28
443.855	3.3
444.21	3.29
444.565	3.28
444.92	3.27
445.275	3.26
445.629	3.26
445.984	3.24
446.339	3.24
446.693	3.23
447.048	3.22
447.403	3.23
447.757	3.22
448.112	3.23
448.466	3.24
448.82	3.25
449.175	3.27
449.529	3.26
449.883	3.25
450.238	3.26
450.592	3.27
450.946	3.29
451.3	3.27
451.654	3.26
452.008	3.27
452.362	3.27
452.716	3.27
453.07	3.28
453.424	3.29
453.778	3.3
454.132	3.32
454.486	3.34
454.839	3.32
455.193	3.34
455.547	3.32
455.9	3.31
456.254	3.29
456.607	3.28
456.961	3.27
457.314	3.27
457.668	3.28
458.021	3.29
458.375	3.28
458.728	3.28
459.081	3.3
459.434	3.28
459.787	3.28
460.141	3.27
460.494	3.27
460.847	3.27
461.2	3.27
461.553	3.26
461.906	3.27
462.259	3.27
462.611	3.29
462.964	3.31
463.317	3.32
463.67	3.34
464.022	3.36
464.375	3.38
464.728	3.38
465.08	3.35
465.433	3.34
465.785	3.37
466.138	3.36
466.49	3.37
466.843	3.39
467.195	3.41
467.547	3.41
467.899	3.41
468.252	3.42
468.604	3.43
468.956	3.44
469.308	3.46
469.66	3.48
470.012	3.47
470.364	3.47
470.716	3.48
471.068	3.46
471.42	3.48
471.772	3.46
472.123	3.47
472.475	3.48
472.827	3.51
473.178	3.48
473.53	3.53
473.882	3.52
474.233	3.51
474.585	3.49
474.936	3.49
475.288	3.52
475.639	3.54
475.99	3.52
476.342	3.5
476.693	3.5
477.044	3.49
477.395	3.48
477.746	3.46
478.097	3.45
478.448	3.48
478.8	3.48
479.15	3.49
479.501	3.51
479.852	3.51
480.203	3.51
480.554	3.52
480.905	3.51
481.255	3.5
481.606	3.51
481.957	3.52
482.307	3.52
482.658	3.52
483.009	3.5
483.359	3.51
483.709	3.51
484.06	3.5
484.41	3.51
484.761	3.51
485.111	3.52
485.461	3.53
485.811	3.51
486.162	3.5
486.512	3.5
486.862	3.5
487.212	3.5
487.562	3.49
487.912	3.48
488.262	3.48
488.612	3.49
488.961	3.49
489.311	3.49
489.661	3.49
490.011	3.49
490.36	3.49
490.71	3.5
491.06	3.49
491.409	3.5
491.759	3.48
492.108	3.5
492.458	3.5
492.807	3.5
493.157	3.52
493.506	3.53
493.855	3.54
494.204	3.55
494.554	3.55
494.903	3.56
495.252	3.57
495.601	3.59
495.95	3.6
496.299	3.62
496.648	3.65
496.997	3.67
497.346	3.7
497.695	3.72
498.043	3.76
498.392	3.79
498.741	3.83
499.09	3.88
499.438	3.9
499.787	3.91
500.135	3.93
500.484	3.94
500.832	3.97
501.181	4.01
501.529	4.03
501.878	4.11
502.226	4.14
502.574	4.2
502.923	4.24
503.271	4.31
503.619	4.34
503.967	4.4
504.315	4.42
504.663	4.46
505.011	4.53
505.359	4.54
505.707	4.61
506.055	4.68
506.403	4.75
506.751	4.8
507.098	4.9
507.446	4.97
507.794	5.07
508.141	5.17
508.489	5.24
508.837	5.31
509.184	5.37
509.531	5.46
509.879	5.52
510.226	5.6
510.574	5.68
510.921	5.79
511.268	5.87
511.616	5.99
511.963	6.08
512.31	6.18
512.657	6.3
513.004	6.38
513.351	6.48
513.698	6.6
514.045	6.73
514.392	6.85
514.739	7
515.086	7.12
515.432	7.23
515.779	7.35
516.126	7.49
516.473	7.61
516.819	7.74
517.166	7.87
517.512	7.97
517.859	8.08
518.205	8.18
518.552	8.27
518.898	8.36
519.245	8.51
519.591	8.63
519.937	8.73
520.283	8.86
520.629	8.98
520.976	9.1
521.322	9.22
521.668	9.31
522.014	9.46
522.36	9.57
522.706	9.71
523.052	9.87
523.398	10.03
523.743	10.2
524.089	10.38
524.435	10.51
524.781	10.68
525.126	10.81
525.472	10.96
525.817	11.09
526.163	11.2
526.509	11.27
526.854	11.36
527.199	11.45
527.545	11.56
527.89	11.67
528.235	11.77
528.581	11.88
528.926	12
529.271	12.07
529.616	12.19
529.961	12.31
530.306	12.41
530.651	12.52
530.996	12.65
531.341	12.76
531.686	12.91
532.031	13.07
532.376	13.2
532.721	13.33
533.065	13.48
533.41	13.63
533.755	13.82
534.099	14
534.444	14.18
534.788	14.32
535.133	14.49
535.477	14.66
535.822	14.84
536.166	15.05
536.51	15.3
536.855	15.54
537.199	15.78
537.543	16.06
537.887	16.3
538.231	16.54
538.576	16.78
538.92	17.02
539.264	17.23
539.608	17.46
539.951	17.7
540.295	17.92
540.639	18.16
540.983	18.36
541.327	18.56
541.671	18.78
542.014	18.99
542.358	19.2
542.701	19.38
543.045	19.61
543.389	19.83
543.732	20.04
544.075	20.23
544.419	20.47
544.762	20.69
545.105	20.93
545.449	21.18
545.792	21.47
546.135	21.76
546.478	22.02
546.821	22.33
547.165	22.62
547.508	22.93
547.851	23.23
548.194	23.5
548.536	23.82
548.879	24.16
549.222	24.52
549.565	24.84
549.908	25.17
550.25	25.47
550.593	25.77
550.936	26.08
551.278	26.4
551.621	26.67
551.963	27.01
552.306	27.32
552.648	27.65
552.991	27.95
553.333	28.25
553.675	28.58
554.017	28.91
554.36	29.21
554.702	29.51
555.044	29.79
555.386	30.08
555.728	30.34
556.07	30.59
556.412	30.88
556.754	31.12
557.096	31.41
557.438	31.7
557.78	31.98
558.121	32.27
558.463	32.62
558.805	32.93
559.147	33.22
559.488	33.48
559.83	33.79
560.171	34
560.513	34.22
560.854	34.49
561.196	34.72
561.537	34.99
561.878	35.22
562.22	35.52
562.561	35.84
562.902	36.08
563.243	36.36
563.584	36.61
563.925	36.88
564.266	37.1
564.607	37.28
564.948	37.51
565.289	37.71
565.63	37.86
565.971	38.08
566.312	38.23
566.653	38.43
566.993	38.6
567.334	38.83
567.675	39.07
568.015	39.28
568.356	39.46
568.696	39.61
569.037	39.82
569.377	39.96
569.718	40.16
570.058	40.35
570.398	40.49
570.739	40.59
571.079	40.75
571.419	40.96
571.759	41.13
572.099	41.33
572.439	41.45
572.779	41.61
573.119	41.74
573.459	41.91
573.799	42.06
574.139	42.15
574.479	42.29
574.819	42.41
575.158	42.55
575.498	42.66
575.838	42.84
576.177	42.94
576.517	43.07
576.856	43.21
577.196	43.33
577.535	43.52
577.875	43.74
578.214	43.86
578.553	43.95
578.893	44.11
579.232	44.17
579.571	44.37
579.91	44.47
580.25	44.58
580.589	44.68
580.928	44.81
581.267	45.01
581.606	45.07
581.945	45.19
582.283	45.27
582.622	45.43
582.961	45.54
583.3	45.65
583.639	45.74
583.977	45.87
584.316	46.01
584.654	46.08
584.993	46.09
585.332	46.18
585.67	46.27
586.008	46.3
586.347	46.45
586.685	46.56
587.024	46.63
587.362	46.78
587.7	46.83
588.038	46.9
588.376	47
588.715	47.17
589.053	47.19
589.391	47.22
589.729	47.28
590.067	47.35
590.404	47.45
590.742	47.52
591.08	47.59
591.418	47.69
591.756	47.83
592.093	47.92
592.431	48.01
592.769	48.09
593.106	48.21
593.444	48.18
593.781	48.29
594.119	48.4
594.456	48.48
594.793	48.59
595.131	48.68
595.468	48.72
595.805	48.75
596.143	48.88
596.48	49.03
596.817	49.07
597.154	49.14
597.491	49.18
597.828	49.24
598.165	49.29
598.502	49.31
598.839	49.25
599.176	49.32
599.512	49.46
599.849	49.56
600.186	49.63
600.523	49.7
600.859	49.7
601.196	49.75
601.532	49.77
601.869	49.83
602.205	49.85
602.542	49.9
602.878	49.96
603.215	49.93
603.551	49.94
603.887	50.02
604.223	50.03
604.56	50.05
604.896	50.19
605.232	50.19
605.568	50.29
605.904	50.33
606.24	50.4
606.576	50.4
606.912	50.46
607.248	50.48
607.583	50.58
607.919	50.61
608.255	50.62
608.591	50.65
608.926	50.65
609.262	50.75
609.597	50.82
609.933	50.81
610.268	50.91
610.604	50.91
610.939	50.96
611.275	51
611.61	51.04
611.945	50.94
612.281	51.02
612.616	50.96
612.951	51.03
613.286	51.06
613.621	51.14
613.956	51.15
614.291	51.15
614.626	51.18
614.961	51.25
615.296	51.33
615.631	51.37
615.966	51.43
616.3	51.43
616.635	51.49
616.97	51.58
617.304	51.6
617.639	51.65
617.973	51.55
618.308	51.63
618.642	51.62
618.977	51.76
619.311	51.75
619.646	51.7
619.98	51.69
620.314	51.68
620.648	51.63
620.983	51.61
621.317	51.67
621.651	51.78
621.985	51.79
622.319	51.87
622.653	51.97
622.987	51.96
623.321	51.95
623.655	51.96
623.988	52.05
624.322	52.12
624.656	52.12
624.99	52.17
625.323	52.08
625.657	52.17
625.99	52.19
626.324	52.25
626.657	52.32
626.991	52.37
627.324	52.41
627.658	52.43
627.991	52.48
628.324	52.56
628.657	52.57
628.991	52.59
629.324	52.49
629.657	52.43
629.99	52.56
630.323	52.69
630.656	52.69
630.989	52.69
631.322	52.66
631.655	52.71
631.987	52.86
632.32	53
632.653	53.05
632.986	52.99
633.318	52.99
633.651	53.19
633.984	53.25
634.316	53.17
634.649	53.12
634.981	53.2
635.313	53.12
635.646	53.08
635.978	53.14
636.31	53.23
636.643	53.24
636.975	53.23
637.307	53.24
637.639	53.21
637.971	53.32
638.303	53.33
638.635	53.38
638.967	53.33
639.299	53.27
639.631	53.21
639.963	53.25
640.295	53.18
640.626	53.03
640.958	53.07
641.29	53.1
641.621	53.21
641.953	53.04
642.285	53.14
642.616	53.19
642.948	53.25
643.279	53.34
643.61	53.49
643.942	53.45
644.273	53.42
644.604	53.37
644.936	53.34
645.267	53.51
645.598	53.6
645.929	53.62
646.26	53.66
646.591	53.64
646.922	53.68
647.253	53.73
647.584	53.85
647.915	53.86
648.245	53.98
648.576	53.96
648.907	54.1
649.238	54.08
649.568	54.08
649.899	54.07
650.229	54.02
650.56	53.99
650.89	54.01
651.221	53.89
651.551	54.04
651.882	53.89
652.212	53.81
652.542	53.71
652.872	53.78
653.203	53.96
653.533	54.05
653.863	54.09
654.193	54.12
654.523	54.04
654.853	54.1
655.183	54.22
655.513	54.31
655.843	54.35
656.172	54.5
656.502	54.39
656.832	54.15
657.162	54.18
657.491	54.32
657.821	54.41
658.15	54.44
658.48	54.47
658.809	54.49
659.139	54.38
659.468	54.45
659.798	54.39
660.127	54.18
660.456	54.09
660.785	54.07
661.115	54.14
661.444	54.2
661.773	54.06
662.102	54.03
662.431	53.98
662.76	54.04
663.089	53.94
663.418	54.02
663.747	54.35
664.076	54.37
664.404	54.07
664.733	54.07
665.062	54.16
665.39	53.99
665.719	54.16
666.048	54.38
666.376	54.44
666.705	54.36
667.033	54.39
667.362	54.6
667.69	54.67
668.018	54.53
668.347	54.53
668.675	54.73
669.003	54.65
669.331	54.71
669.659	54.71
669.987	54.67
670.315	54.81
670.643	54.68
670.971	54.55
671.299	54.51
671.627	54.53
671.955	54.54
672.283	54.72
672.61	54.69
672.938	54.61
673.266	54.46
673.593	54.51
673.921	54.7
674.249	54.54
674.576	54.53
674.904	54.6
675.231	54.61
675.558	54.53
675.886	54.69
676.213	54.79
676.54	54.72
676.867	54.71
677.195	54.62
677.522	54.58
677.849	54.59
678.176	54.71
678.503	54.66
678.83	54.6
679.157	54.45
679.484	54.39
679.81	54.37
680.137	54.62
680.464	54.64
680.791	54.53
681.117	54.71
681.444	54.77
681.771	54.71
682.097	54.74
682.424	54.73
682.75	54.67
683.077	54.45
683.403	54.37
683.729	54.43
684.056	54.47
684.382	54.6
684.708	54.76
685.034	54.9
685.36	54.89
685.686	55.03
686.012	55.18
686.339	55.06
686.664	55.11
686.99	54.86
687.316	55.03
687.642	55.08
687.968	54.93
688.294	54.93
688.619	55.09
688.945	55.04
689.271	55.07
689.596	54.95
689.922	55.1
690.247	55.12
690.573	55.2
690.898	55.29
691.224	55.22
691.549	55.27
691.874	55.06
692.2	55.03
692.525	54.83
692.85	54.82
693.175	55
693.5	55.04
693.825	55.23
694.15	55.19
694.475	55.25
694.8	55.28
695.125	55.25
695.45	55.21
695.775	55.23
696.099	55.27
696.424	55.42
696.749	55.37
697.073	55.45
697.398	55.39
697.723	55.37
698.047	55.36
698.372	55.39
698.696	55.51
699.02	55.63
699.345	55.69
699.669	55.71
699.993	55.65
700.318	55.62
700.642	55.49
700.966	55.42
701.29	55.45
701.614	55.3
701.938	55.35
702.262	55.29
702.586	55.45
702.91	55.38
703.234	55.16
703.557	55.09
703.881	55.11
704.205	55.11
704.529	55.03
704.852	54.88
705.176	54.69
705.499	54.61
705.823	54.43
706.146	54.57
706.47	54.44
706.793	54.47
707.117	54.64
707.44	54.59
707.763	54.53
708.086	54.5
708.409	54.74
708.733	54.53
709.056	54.62
709.379	54.45
709.702	54.39
710.025	54.58
710.348	54.69
710.671	54.66
710.993	54.52
711.316	54.41
711.639	54.59
711.962	54.83
712.284	55.01
712.607	55.08
712.93	55.13
713.252	55.27
713.575	55.33
713.897	55.04
714.22	55.04
714.542	55.15
714.864	55.13
715.187	55.17
715.509	55.23
715.831	55.21
716.153	55.23
716.475	55.41
716.798	55.37
717.12	55.44
717.442	55.2
717.764	55.46
718.085	55.45
718.407	55.28
718.729	55.02
719.051	54.91
719.373	54.99
719.695	54.74
720.016	54.75
720.338	54.75
720.659	54.96
720.981	55.19
721.302	55.23
721.624	55.24
721.945	55.26
722.267	55.25
722.588	55.18
722.909	55.15
723.231	54.98
723.552	54.93
723.873	55.06
724.194	55.45
724.515	55.5
724.836	55.5
725.157	55.61
725.478	55.66
725.799	55.75
726.12	55.76
726.441	55.94
726.762	55.87
727.083	55.82
727.403	55.72
727.724	55.71
728.045	55.55
728.365	55.68
728.686	55.64
729.006	55.64
729.327	55.81
729.647	55.91
729.967	55.98
730.288	55.86
730.608	55.76
730.928	55.99
731.249	55.78
731.569	55.86
731.889	56.06
732.209	56.11
732.529	55.99
732.849	56.08
733.169	56.13
733.489	56.25
733.809	56.24
734.129	56.21
734.448	56.01
734.768	56.18
735.088	55.98
735.408	55.91
735.727	55.93
736.047	55.96
736.366	55.98
736.686	56.12
737.005	56.18
737.325	56.22
737.644	56
737.963	55.96
738.283	56.26
738.602	56.37
738.921	56.4
739.24	56.36
739.56	56.35
739.879	56.28
740.198	56.27
740.517	56.32
740.836	56.58
741.155	56.63
741.473	56.26
741.792	56.43
742.111	56.67
742.43	56.93
742.748	56.97
743.067	56.94
743.386	56.92
743.704	57.45
744.023	57.35
744.341	57.19
744.66	57.34
744.978	57.24
745.297	57.1
745.615	57.38
745.933	57.39
746.252	57.37
746.57	57.29
746.888	57.36
747.206	57.22
747.524	57.01
747.842	56.89
748.16	57.12
748.478	57.2
748.796	57.25
749.114	57.06
749.432	56.9
749.749	56.7
750.067	56.71
750.385	56.21
750.703	56.28
751.02	56.6
751.338	56.39
751.655	56.42
751.973	56.41
752.29	56.18
752.608	55.95
752.925	55.99
753.242	56.19
753.56	55.95
753.877	56.11
754.194	55.98
754.511	56.25
754.828	56.32
755.145	55.8
755.462	55.35
755.779	55.43
756.096	55.19
756.413	55.46
756.73	55.3
757.047	55.72
757.364	55.42
757.68	55.24
757.997	55.2
758.314	55.02
758.63	54.96
758.947	54.7
759.264	55.15
759.58	54.74
759.896	54.52
760.213	54.78
760.529	54.71
760.846	54.89
761.162	54.9
761.478	55.08
761.794	55.56
762.11	55.5
762.426	55.58
762.743	55.8
763.059	55.72
763.375	55.7
763.69	55.48
764.006	55.57
764.322	55.55
764.638	55.8
764.954	56
765.27	55.88
765.585	56.3
765.901	56.32
766.216	56.7
766.532	56.91
766.848	56.92
767.163	56.89
767.478	56.98
767.794	57.16
768.109	57.04
768.424	56.78
768.74	57.22
769.055	57.23
769.37	57.23
769.685	57.64
770	57.73
770.315	58.13
770.63	58.37
770.945	58.19
771.26	58.27
771.575	57.77
771.89	57.75
772.205	57.39
772.52	56.98
772.834	56.75
773.149	56.75
773.464	57.04
773.778	57.07
774.093	56.8
774.407	56.63
774.722	56.44
775.036	57.02
775.351	56.64
775.665	56.27
775.979	56.36
776.293	56.26
776.608	56.27
776.922	55.29
777.236	55.44
777.55	55.5
777.864	55.58
778.178	55.89
778.492	55.66
778.806	55.78
779.12	55.82
779.434	56.21
779.747	55.96
780.061	55.04
780.375	55.3
780.689	55.47
781.002	55.22
781.316	55.61
781.629	55.32
781.943	55.12
782.256	55.61
782.57	55.93
782.883	55.4
783.196	55.53
783.51	55.98
783.823	55.42
784.136	55.58
784.449	55.26
784.762	54.9
785.075	55.46
785.388	55.46
785.701	56.34
786.014	56.01
786.327	55.74
786.64	55.85
786.953	55.93
787.266	56.18
787.578	55.85
787.891	55.31
788.204	55.42
788.516	55.28
788.829	55.17
789.141	54.97
789.454	54.71
789.766	54.22
790.079	54.41
790.391	54.59
790.703	54.7
791.016	54.26
791.328	54.72
791.64	54.66
791.952	54.53
792.264	53.6
792.576	53.05
792.888	53.75
793.2	54.59
793.512	55.18
793.824	55.08
794.136	55.59
794.448	55.7
794.76	55.12
795.071	55.33
795.383	55.01
795.695	54.41
796.006	55.14
796.318	55.53
796.629	55.05
796.941	55.7
797.252	55.73
797.564	55.7
797.875	55.78
798.186	55.59
798.497	55.58
798.809	55.78
799.12	55.8
799.431	55.32
799.742	54.98
800.053	54.07
800.364	54.23
800.675	54.52
800.986	54.5
801.297	54.89
801.608	54.9
801.918	55.62
802.229	56.39
802.54	56.05
802.851	56.32
803.161	57.3
803.472	56.33
803.782	56.82
804.093	57.58
804.403	57.17
804.714	57.36
805.024	57.65
805.334	58.24
805.645	58.87
805.955	58.85
806.265	58.94
806.575	59.42
806.885	58.99
807.195	58.5
807.505	58.54
807.815	58.29
808.125	58.63
808.435	58.56
808.745	58.66
809.055	57.99
809.365	57.73
809.674	56.63
809.984	56.63
810.294	55.91
810.603	55.87
810.913	55.61
811.222	55.41
811.532	54.84
811.841	54.19
812.151	54.25
812.46	54.58
812.769	54.97
813.079	54.67
813.388	54.68
813.697	55.02
814.006	55.76
814.315	56.12
814.624	56.22
814.933	56.22
815.242	55.79
815.551	56.93
815.86	56.78
816.169	57.02
816.478	57.75
816.786	58.05
817.095	56.89
817.404	57.87
817.712	58.43
818.021	58.93
818.33	58.53
818.638	58.28
818.947	58.07
819.255	57.68
819.563	57.49
819.872	58
820.18	57.83
820.488	57.84
820.796	57.83
821.105	58.02
821.413	58
821.721	57.73
822.029	57.62
822.337	57.61
822.645	57.59
822.953	57.59
823.26	57.58
823.568	57.97
823.876	57.92
824.184	57.69
824.491	57.8
824.799	57.92
825.107	57.97
825.414	57.83
825.722	57.69
826.029	57.96
826.337	57.7
826.644	57.68
826.951	57.61
827.259	57.59
827.566	57.29
827.873	57.25
828.18	57.31
828.488	57.44
828.795	57.41
829.102	57.46
829.409	57.31
829.716	57.3
830.023	56.74
830.329	56.68
830.636	56.92
830.943	56.79
831.25	56.83
831.557	57.04
831.863	57.64
832.17	57.7
832.476	57.58
832.783	57.66
833.089	57.66
833.396	57.67
833.702	57.43
834.009	58.01
834.315	58.23
834.621	58.27
834.928	57.8
835.234	58.09
835.54	58.31
835.846	58.34
836.152	57.88
836.458	58.4
836.764	57.9
837.07	58.42
837.376	57.97
837.682	57.94
837.988	57.46
838.293	56.45
838.599	56.93
838.905	56.56
839.211	55.98
839.516	55.97
839.822	56.33
840.127	56.71
840.433	56.58
840.738	55.29
841.044	55.5
841.349	55.22
841.654	54.06
841.959	54.32
842.265	54.87
842.57	55.95
842.875	56.18
843.18	56.47
843.485	54.86
843.79	54.79
844.095	55.79
844.4	54.68
844.705	55.64
845.01	55.12
845.315	53.75
845.619	55.47
845.924	55.89
846.229	54
846.533	54.94
846.838	53.28
847.142	50.95
847.447	52.42
847.751	52.13
848.056	53.37
848.36	54.36
848.664	52.75
848.969	51.95
849.273	50.24
849.577	51.17
849.881	48.66
850.185	48.08
850.489	45.71
850.794	47.81
851.097	48.9
851.401	46.49
851.705	47.57
852.009	47.88
852.313	47.16
852.617	48.07
852.92	45.05
853.224	45.85
853.528	48.28
853.831	46.83
854.135	50.53
854.438	50.92
854.742	46.72
855.045	47.76
855.349	47.62
855.652	46.54
855.955	45.68
856.259	49.17
856.562	50.77
856.865	52.72
857.168	51.77
857.471	49.21
857.774	53.52
858.077	52.72
858.38	52.41
858.683	52.03
858.986	50.89
859.289	52.06
859.592	52.21
859.894	51.94
860.197	51.54
860.5	49.3
860.802	47.83
861.105	48.7
861.407	47.95
861.71	47.38
862.012	49.66
862.315	51.59
862.617	52.56
862.919	52.58
863.222	52.23
863.524	54.32
863.826	56.66
864.128	55.04
864.43	57.81
864.732	57.71
865.034	57.29
865.336	58.19
865.638	56.94
865.94	58.29
866.242	59.1
866.544	57.59
866.846	58.54
867.147	60.19
867.449	63.55
867.751	64.09
868.052	63.83
868.354	62.04
868.655	60.17
868.957	59.77
869.258	57.45
869.56	57.02
869.861	57.62
870.162	55.98
870.463	53.38
870.765	52.51
871.066	53.33
871.367	53.72
871.668	54.56
871.969	55.71
872.27	52.09
872.571	52.07
872.872	54.44
873.173	54.13
873.473	50.12
873.774	47.82
874.075	49.37
874.376	49.01
874.676	54.17
874.977	57.59
875.277	56.39
875.578	59.67
875.878	59.89
876.179	57.68
876.479	58.29
876.78	61.72
877.08	60.43
877.38	58.66
877.68	59.82
877.981	59.02
878.281	59.88
878.581	63.07
