Data from MVZ_BU163024_Reflection_00001.txt Node
Date: Tue Nov 19 12:11:17 EST 2019
User: vgr7
Spectrometer: USB2G7710
Scans to average: 3
Trigger mode: 4
Integration Time (sec): 2.000000E-2
Electric dark correction enabled: true
Boxcar width: 10
XAxis mode: Wavelengths
Number of Pixels in Spectrum: 2048
>>>>>Begin Spectral Data<<<<<
177.721	195.24
178.105	23.25
178.488	-8.99
178.871	-81.72
179.254	-124.24
179.636	235.42
180.019	118.78
180.402	153.85
180.785	-79.05
181.168	-51.13
181.55	11.48
181.933	27.54
182.316	9.85
182.698	-1.64
183.081	-5.42
183.463	6
183.846	-16.7
184.228	-33.98
184.611	-32.34
184.993	-58.43
185.376	-92.27
185.758	-141.33
186.14	-101.17
186.522	-158.94
186.904	-174.83
187.287	-125.03
187.669	-135.22
188.051	-115.09
188.433	-66.24
188.815	-71.79
189.197	-86.82
189.579	-198.25
189.961	-176.33
190.342	-234.94
190.724	-122.22
191.106	-114.16
191.488	-127.34
191.869	-82.94
192.251	-167.03
192.633	-200.3
193.014	-62.46
193.396	-20.24
193.777	-13.26
194.159	-32.26
194.54	-4.36
194.922	-16.23
195.303	-29.29
195.684	-152.87
196.065	47.57
196.447	118.97
196.828	161.49
197.209	51.42
197.59	29.02
197.971	1.54
198.352	11.04
198.733	46.21
199.114	54.29
199.495	33.55
199.876	3.53
200.257	31.44
200.638	38.84
201.018	102.95
201.399	49.39
201.78	76.03
202.16	12.06
202.541	45.23
202.922	24.01
203.302	60.78
203.683	-433.33
204.063	-15.15
204.444	-152.53
204.824	-223.81
205.204	318.39
205.585	-1376.19
205.965	247.29
206.345	-58.73
206.725	0.24
207.106	42.66
207.486	51.52
207.866	62.14
208.246	48.44
208.626	43.98
209.006	34.09
209.386	40.62
209.766	49.1
210.145	59.56
210.525	52.1
210.905	46.04
211.285	46.06
211.664	36.28
212.044	41.22
212.424	40.12
212.803	28.14
213.183	24.42
213.562	15.21
213.942	19.45
214.321	24.41
214.701	28.88
215.08	25.77
215.459	32.12
215.838	12.2
216.218	-0.98
216.597	25.09
216.976	37.53
217.355	37.53
217.734	22.1
218.113	39.94
218.492	45.21
218.871	48.88
219.25	46
219.629	40.49
220.008	41.14
220.387	19.9
220.766	42.84
221.144	35.15
221.523	48.66
221.902	55.38
222.28	54.45
222.659	62.5
223.037	52.08
223.416	55.91
223.794	73.68
224.173	76.06
224.551	70.84
224.929	49.36
225.308	49.99
225.686	50.24
226.064	40.03
226.442	44.32
226.821	38.37
227.199	40.48
227.577	39.48
227.955	41.17
228.333	42.53
228.711	33.43
229.089	35.81
229.467	29.55
229.845	25.51
230.222	26.93
230.6	20.62
230.978	22.97
231.356	18.61
231.733	16.16
232.111	16.54
232.488	16.1
232.866	18.31
233.243	14.82
233.621	14.69
233.998	12.11
234.376	9.56
234.753	10.04
235.13	7.99
235.508	8.47
235.885	7.3
236.262	8.01
236.639	7.94
237.016	9.02
237.393	9.85
237.77	9.94
238.147	8.91
238.524	8.82
238.901	8.11
239.278	7.3
239.655	6.51
240.032	6.17
240.409	5.79
240.785	5.5
241.162	6.16
241.539	6.25
241.915	6.22
242.292	6.53
242.668	6.25
243.045	6.74
243.421	6.57
243.798	6.59
244.174	6.25
244.551	6.24
244.927	5.59
245.303	5.63
245.679	5.47
246.056	5.4
246.432	5.36
246.808	5.1
247.184	5.19
247.56	5.36
247.936	5.2
248.312	5.27
248.688	5.27
249.064	5.17
249.44	4.9
249.815	5.19
250.191	5.16
250.567	5.09
250.943	4.96
251.318	4.99
251.694	4.64
252.069	5
252.445	5.05
252.82	5.62
253.196	5.6
253.571	5.97
253.947	6.3
254.322	6.22
254.697	6.26
255.073	6.36
255.448	5.82
255.823	5.87
256.198	5.4
256.573	5.26
256.948	5.09
257.323	5.27
257.698	4.87
258.073	4.52
258.448	4.58
258.823	4.25
259.198	4.15
259.573	4.16
259.948	4.12
260.322	4.1
260.697	4.12
261.072	4.05
261.446	3.88
261.821	3.72
262.195	3.8
262.57	4.07
262.944	4
263.319	4.16
263.693	4.15
264.067	4.3
264.442	4.3
264.816	4.28
265.19	4.25
265.564	4.35
265.938	4.61
266.313	4.34
266.687	4.58
267.061	4.5
267.435	4.77
267.809	4.53
268.183	4.43
268.556	4.18
268.93	4.16
269.304	4.04
269.678	4.09
270.051	3.95
270.425	3.93
270.799	3.91
271.172	3.84
271.546	4.06
271.919	3.91
272.293	3.89
272.666	3.91
273.04	3.86
273.413	3.81
273.787	3.78
274.16	3.89
274.533	3.89
274.906	4.06
275.279	3.87
275.653	3.85
276.026	3.94
276.399	4.09
276.772	4.1
277.145	4.26
277.518	4.1
277.891	4.06
278.263	4.04
278.636	4.07
279.009	4.12
279.382	3.89
279.755	3.95
280.127	4.02
280.5	4
280.872	4.07
281.245	4.14
281.617	4.37
281.99	4.4
282.362	4.33
282.735	4.29
283.107	4.43
283.479	4.52
283.852	4.53
284.224	4.38
284.596	4.28
284.968	4
285.34	4
285.713	4.16
286.085	4.07
286.457	4.15
286.829	4.2
287.201	4.12
287.572	4.12
287.944	4.16
288.316	4.24
288.688	4.35
289.06	4.35
289.431	4.25
289.803	4.34
290.175	4.46
290.546	4.38
290.918	4.25
291.289	4.22
291.661	4.19
292.032	4.29
292.403	4.38
292.775	4.64
293.146	4.74
293.517	4.75
293.889	4.81
294.26	4.72
294.631	4.71
295.002	4.86
295.373	4.93
295.744	4.85
296.115	4.85
296.486	4.69
296.857	4.71
297.228	4.68
297.599	4.71
297.97	4.62
298.34	4.72
298.711	4.75
299.082	4.74
299.452	4.79
299.823	4.77
300.194	4.66
300.564	4.51
300.935	4.59
301.305	4.54
301.676	4.37
302.046	4.28
302.416	4.15
302.787	3.97
303.157	3.88
303.527	4.01
303.897	3.76
304.267	3.81
304.637	3.96
305.008	3.93
305.378	3.78
305.748	3.77
306.117	3.77
306.487	3.83
306.857	3.96
307.227	3.98
307.597	3.97
307.967	4.04
308.336	4.08
308.706	3.94
309.076	4.06
309.445	4.21
309.815	4.26
310.184	4.44
310.554	4.49
310.923	4.54
311.293	4.52
311.662	4.64
312.031	4.66
312.401	4.53
312.77	4.58
313.139	4.63
313.508	4.76
313.877	4.72
314.246	4.64
314.616	4.67
314.985	4.67
315.353	4.79
315.722	4.79
316.091	4.8
316.46	4.88
316.829	4.84
317.198	4.84
317.567	4.95
317.935	4.74
318.304	4.87
318.672	4.91
319.041	4.85
319.41	4.91
319.778	5.07
320.147	5.07
320.515	4.98
320.883	4.96
321.252	4.8
321.62	4.89
321.988	4.98
322.357	4.71
322.725	4.66
323.093	4.52
323.461	4.61
323.829	4.6
324.197	4.65
324.565	4.62
324.933	4.56
325.301	4.39
325.669	4.5
326.037	4.36
326.405	4.44
326.772	4.53
327.14	4.41
327.508	4.25
327.875	4.29
328.243	4.34
328.61	4.34
328.978	4.34
329.346	4.21
329.713	4.24
330.08	4.41
330.448	4.38
330.815	4.43
331.182	4.32
331.55	4.29
331.917	4.21
332.284	4.17
332.651	4.08
333.018	4.23
333.385	4.3
333.752	4.51
334.119	4.41
334.486	4.29
334.853	4.31
335.22	4.22
335.587	4.05
335.954	3.84
336.32	3.75
336.687	3.65
337.054	3.64
337.42	3.61
337.787	3.67
338.153	3.77
338.52	3.77
338.886	3.95
339.253	3.95
339.619	4.02
339.986	4.01
340.352	4.26
340.718	4.34
341.084	4.39
341.451	4.38
341.817	4.34
342.183	4.26
342.549	4.48
342.915	4.65
343.281	4.73
343.647	4.83
344.013	4.94
344.379	5.01
344.745	5.11
345.11	5.01
345.476	4.94
345.842	4.81
346.208	4.86
346.573	4.87
346.939	4.93
347.304	4.95
347.67	4.95
348.035	4.81
348.401	4.77
348.766	4.64
349.132	4.6
349.497	4.68
349.862	4.7
350.228	4.57
350.593	4.5
350.958	4.58
351.323	4.64
351.688	4.66
352.053	4.74
352.418	4.63
352.783	4.72
353.148	4.7
353.513	4.81
353.878	4.65
354.243	4.52
354.608	4.56
354.972	4.48
355.337	4.53
355.702	4.52
356.066	4.46
356.431	4.58
356.795	4.53
357.16	4.49
357.524	4.6
357.889	4.55
358.253	4.44
358.618	4.46
358.982	4.43
359.346	4.43
359.71	4.38
360.075	4.42
360.439	4.46
360.803	4.49
361.167	4.42
361.531	4.48
361.895	4.51
362.259	4.56
362.623	4.57
362.987	4.48
363.351	4.41
363.714	4.41
364.078	4.39
364.442	4.41
364.806	4.46
365.169	4.51
365.533	4.6
365.896	4.77
366.26	4.7
366.623	4.65
366.987	4.73
367.35	4.72
367.714	4.79
368.077	4.78
368.44	4.76
368.803	4.77
369.167	4.73
369.53	4.8
369.893	4.71
370.256	4.64
370.619	4.7
370.982	4.73
371.345	4.78
371.708	4.7
372.071	4.68
372.434	4.66
372.797	4.6
373.159	4.52
373.522	4.49
373.885	4.45
374.247	4.44
374.61	4.33
374.973	4.35
375.335	4.34
375.698	4.32
376.06	4.43
376.423	4.44
376.785	4.53
377.147	4.47
377.51	4.45
377.872	4.46
378.234	4.49
378.596	4.55
378.958	4.53
379.321	4.57
379.683	4.6
380.045	4.55
380.407	4.57
380.769	4.57
381.13	4.55
381.492	4.54
381.854	4.62
382.216	4.64
382.578	4.62
382.939	4.62
383.301	4.59
383.663	4.47
384.024	4.49
384.386	4.46
384.747	4.42
385.109	4.43
385.47	4.44
385.832	4.39
386.193	4.35
386.554	4.3
386.916	4.25
387.277	4.21
387.638	4.24
387.999	4.21
388.36	4.21
388.721	4.22
389.082	4.28
389.443	4.25
389.804	4.25
390.165	4.27
390.526	4.27
390.887	4.3
391.248	4.3
391.609	4.33
391.969	4.35
392.33	4.42
392.691	4.44
393.051	4.47
393.412	4.48
393.772	4.51
394.133	4.55
394.493	4.51
394.854	4.57
395.214	4.55
395.574	4.55
395.935	4.6
396.295	4.61
396.655	4.61
397.015	4.66
397.376	4.68
397.736	4.65
398.096	4.64
398.456	4.64
398.816	4.64
399.176	4.58
399.535	4.54
399.895	4.5
400.255	4.47
400.615	4.5
400.975	4.52
401.334	4.48
401.694	4.52
402.054	4.56
402.413	4.48
402.773	4.51
403.132	4.49
403.492	4.46
403.851	4.41
404.211	4.43
404.57	4.39
404.929	4.37
405.288	4.38
405.648	4.37
406.007	4.38
406.366	4.39
406.725	4.37
407.084	4.38
407.443	4.38
407.802	4.38
408.161	4.36
408.52	4.36
408.879	4.39
409.238	4.38
409.596	4.39
409.955	4.44
410.314	4.42
410.673	4.47
411.031	4.46
411.39	4.49
411.748	4.46
412.107	4.43
412.465	4.43
412.824	4.43
413.182	4.43
413.54	4.45
413.899	4.45
414.257	4.5
414.615	4.47
414.974	4.49
415.332	4.48
415.69	4.49
416.048	4.47
416.406	4.46
416.764	4.43
417.122	4.41
417.48	4.4
417.838	4.39
418.195	4.35
418.553	4.34
418.911	4.33
419.269	4.32
419.626	4.32
419.984	4.32
420.342	4.31
420.699	4.3
421.057	4.28
421.414	4.29
421.772	4.26
422.129	4.27
422.486	4.25
422.844	4.26
423.201	4.23
423.558	4.23
423.915	4.22
424.273	4.21
424.63	4.23
424.987	4.23
425.344	4.23
425.701	4.25
426.058	4.24
426.415	4.23
426.772	4.23
427.128	4.26
427.485	4.25
427.842	4.23
428.199	4.25
428.555	4.26
428.912	4.24
429.269	4.25
429.625	4.25
429.982	4.27
430.338	4.28
430.695	4.32
431.051	4.34
431.407	4.32
431.764	4.34
432.12	4.35
432.476	4.33
432.832	4.33
433.189	4.33
433.545	4.34
433.901	4.35
434.257	4.37
434.613	4.32
434.969	4.33
435.325	4.36
435.681	4.36
436.036	4.35
436.392	4.36
436.748	4.37
437.104	4.35
437.459	4.33
437.815	4.32
438.171	4.31
438.526	4.29
438.882	4.3
439.237	4.27
439.593	4.26
439.948	4.27
440.304	4.28
440.659	4.28
441.014	4.27
441.369	4.26
441.725	4.26
442.08	4.28
442.435	4.28
442.79	4.27
443.145	4.27
443.5	4.26
443.855	4.25
444.21	4.25
444.565	4.26
444.92	4.28
445.275	4.29
445.629	4.27
445.984	4.28
446.339	4.28
446.693	4.29
447.048	4.28
447.403	4.28
447.757	4.27
448.112	4.25
448.466	4.26
448.82	4.26
449.175	4.25
449.529	4.24
449.883	4.25
450.238	4.25
450.592	4.24
450.946	4.24
451.3	4.24
451.654	4.22
452.008	4.23
452.362	4.21
452.716	4.19
453.07	4.21
453.424	4.21
453.778	4.21
454.132	4.19
454.486	4.23
454.839	4.22
455.193	4.21
455.547	4.22
455.9	4.21
456.254	4.22
456.607	4.22
456.961	4.22
457.314	4.21
457.668	4.23
458.021	4.23
458.375	4.22
458.728	4.23
459.081	4.24
459.434	4.23
459.787	4.23
460.141	4.25
460.494	4.24
460.847	4.24
461.2	4.26
461.553	4.27
461.906	4.27
462.259	4.27
462.611	4.3
462.964	4.32
463.317	4.33
463.67	4.33
464.022	4.34
464.375	4.35
464.728	4.36
465.08	4.34
465.433	4.36
465.785	4.37
466.138	4.37
466.49	4.4
466.843	4.41
467.195	4.43
467.547	4.41
467.899	4.42
468.252	4.43
468.604	4.41
468.956	4.41
469.308	4.38
469.66	4.4
470.012	4.4
470.364	4.37
470.716	4.36
471.068	4.38
471.42	4.39
471.772	4.4
472.123	4.4
472.475	4.42
472.827	4.42
473.178	4.41
473.53	4.41
473.882	4.4
474.233	4.4
474.585	4.41
474.936	4.42
475.288	4.42
475.639	4.44
475.99	4.44
476.342	4.47
476.693	4.46
477.044	4.46
477.395	4.45
477.746	4.46
478.097	4.47
478.448	4.47
478.8	4.46
479.15	4.45
479.501	4.45
479.852	4.45
480.203	4.45
480.554	4.47
480.905	4.48
481.255	4.48
481.606	4.48
481.957	4.48
482.307	4.47
482.658	4.48
483.009	4.46
483.359	4.47
483.709	4.46
484.06	4.47
484.41	4.46
484.761	4.47
485.111	4.48
485.461	4.48
485.811	4.47
486.162	4.47
486.512	4.48
486.862	4.47
487.212	4.48
487.562	4.47
487.912	4.47
488.262	4.46
488.612	4.46
488.961	4.46
489.311	4.45
489.661	4.47
490.011	4.46
490.36	4.47
490.71	4.46
491.06	4.47
491.409	4.46
491.759	4.46
492.108	4.46
492.458	4.44
492.807	4.44
493.157	4.45
493.506	4.45
493.855	4.45
494.204	4.45
494.554	4.45
494.903	4.46
495.252	4.46
495.601	4.46
495.95	4.47
496.299	4.47
496.648	4.5
496.997	4.48
497.346	4.48
497.695	4.49
498.043	4.51
498.392	4.51
498.741	4.55
499.09	4.59
499.438	4.6
499.787	4.61
500.135	4.63
500.484	4.66
500.832	4.67
501.181	4.69
501.529	4.74
501.878	4.74
502.226	4.75
502.574	4.77
502.923	4.77
503.271	4.79
503.619	4.79
503.967	4.79
504.315	4.82
504.663	4.84
505.011	4.85
505.359	4.84
505.707	4.83
506.055	4.81
506.403	4.77
506.751	4.79
507.098	4.82
507.446	4.84
507.794	4.84
508.141	4.82
508.489	4.82
508.837	4.8
509.184	4.83
509.531	4.85
509.879	4.86
510.226	4.89
510.574	4.88
510.921	4.87
511.268	4.89
511.616	4.9
511.963	4.91
512.31	4.92
512.657	4.92
513.004	4.94
513.351	4.97
513.698	4.98
514.045	5
514.392	4.99
514.739	4.97
515.086	4.99
515.432	5
515.779	5
516.126	5.03
516.473	5.02
516.819	5.03
517.166	5.04
517.512	5.04
517.859	5.06
518.205	5.06
518.552	5.07
518.898	5.05
519.245	5.05
519.591	5.06
519.937	5.06
520.283	5.09
520.629	5.09
520.976	5.1
521.322	5.1
521.668	5.1
522.014	5.12
522.36	5.12
522.706	5.13
523.052	5.15
523.398	5.14
523.743	5.15
524.089	5.14
524.435	5.15
524.781	5.17
525.126	5.17
525.472	5.17
525.817	5.16
526.163	5.19
526.509	5.21
526.854	5.21
527.199	5.22
527.545	5.21
527.89	5.21
528.235	5.22
528.581	5.22
528.926	5.22
529.271	5.23
529.616	5.23
529.961	5.24
530.306	5.25
530.651	5.25
530.996	5.26
531.341	5.28
531.686	5.28
532.031	5.29
532.376	5.29
532.721	5.31
533.065	5.32
533.41	5.31
533.755	5.31
534.099	5.32
534.444	5.32
534.788	5.33
535.133	5.33
535.477	5.33
535.822	5.35
536.166	5.36
536.51	5.36
536.855	5.34
537.199	5.33
537.543	5.33
537.887	5.33
538.231	5.33
538.576	5.32
538.92	5.31
539.264	5.29
539.608	5.31
539.951	5.3
540.295	5.31
540.639	5.32
540.983	5.34
541.327	5.33
541.671	5.34
542.014	5.34
542.358	5.36
542.701	5.35
543.045	5.36
543.389	5.37
543.732	5.36
544.075	5.39
544.419	5.4
544.762	5.4
545.105	5.4
545.449	5.41
545.792	5.44
546.135	5.45
546.478	5.46
546.821	5.47
547.165	5.48
547.508	5.48
547.851	5.49
548.194	5.44
548.536	5.44
548.879	5.43
549.222	5.45
549.565	5.42
549.908	5.42
550.25	5.4
550.593	5.38
550.936	5.39
551.278	5.41
551.621	5.43
551.963	5.44
552.306	5.48
552.648	5.5
552.991	5.47
553.333	5.5
553.675	5.55
554.017	5.52
554.36	5.51
554.702	5.52
555.044	5.54
555.386	5.53
555.728	5.55
556.07	5.58
556.412	5.54
556.754	5.56
557.096	5.53
557.438	5.55
557.78	5.56
558.121	5.58
558.463	5.55
558.805	5.55
559.147	5.53
559.488	5.49
559.83	5.48
560.171	5.51
560.513	5.5
560.854	5.47
561.196	5.5
561.537	5.5
561.878	5.54
562.22	5.56
562.561	5.62
562.902	5.6
563.243	5.59
563.584	5.61
563.925	5.61
564.266	5.67
564.607	5.63
564.948	5.66
565.289	5.66
565.63	5.67
565.971	5.69
566.312	5.68
566.653	5.7
566.993	5.68
567.334	5.7
567.675	5.72
568.015	5.7
568.356	5.67
568.696	5.68
569.037	5.66
569.377	5.63
569.718	5.6
570.058	5.63
570.398	5.63
570.739	5.64
571.079	5.65
571.419	5.65
571.759	5.68
572.099	5.67
572.439	5.64
572.779	5.65
573.119	5.63
573.459	5.65
573.799	5.62
574.139	5.63
574.479	5.62
574.819	5.6
575.158	5.58
575.498	5.61
575.838	5.59
576.177	5.59
576.517	5.61
576.856	5.61
577.196	5.61
577.535	5.66
577.875	5.66
578.214	5.67
578.553	5.7
578.893	5.71
579.232	5.72
579.571	5.76
579.91	5.78
580.25	5.77
580.589	5.73
580.928	5.8
581.267	5.78
581.606	5.77
581.945	5.78
582.283	5.82
582.622	5.84
582.961	5.89
583.3	5.91
583.639	5.89
583.977	5.9
584.316	5.92
584.654	5.87
584.993	5.88
585.332	5.9
585.67	5.9
586.008	5.91
586.347	5.91
586.685	5.88
587.024	5.9
587.362	5.93
587.7	5.95
588.038	5.95
588.376	5.96
588.715	5.93
589.053	5.94
589.391	5.95
589.729	5.91
590.067	5.9
590.404	5.89
590.742	5.9
591.08	5.91
591.418	5.91
591.756	5.96
592.093	5.95
592.431	5.94
592.769	5.95
593.106	5.91
593.444	5.94
593.781	5.99
594.119	5.91
594.456	5.89
594.793	5.88
595.131	5.89
595.468	5.91
595.805	5.95
596.143	5.96
596.48	5.98
596.817	5.99
597.154	6.02
597.491	6.02
597.828	6.04
598.165	6.05
598.502	5.99
598.839	5.97
599.176	5.96
599.512	5.95
599.849	5.89
600.186	5.9
600.523	5.91
600.859	5.93
601.196	5.99
601.532	6
601.869	6.02
602.205	6.01
602.542	6
602.878	6.06
603.215	6.06
603.551	6.05
603.887	6.04
604.223	5.99
604.56	5.99
604.896	6.02
605.232	6.03
605.568	6.09
605.904	6.06
606.24	6.1
606.576	6.14
606.912	6.18
607.248	6.24
607.583	6.22
607.919	6.2
608.255	6.19
608.591	6.2
608.926	6.23
609.262	6.21
609.597	6.24
609.933	6.2
610.268	6.22
610.604	6.24
610.939	6.24
611.275	6.31
611.61	6.37
611.945	6.35
612.281	6.33
612.616	6.35
612.951	6.43
613.286	6.39
613.621	6.36
613.956	6.38
614.291	6.37
614.626	6.38
614.961	6.39
615.296	6.42
615.631	6.4
615.966	6.39
616.3	6.45
616.635	6.49
616.97	6.51
617.304	6.51
617.639	6.46
617.973	6.45
618.308	6.47
618.642	6.38
618.977	6.33
619.311	6.39
619.646	6.35
619.98	6.36
620.314	6.37
620.648	6.38
620.983	6.36
621.317	6.35
621.651	6.34
621.985	6.36
622.319	6.36
622.653	6.43
622.987	6.42
623.321	6.42
623.655	6.35
623.988	6.35
624.322	6.35
624.656	6.38
624.99	6.4
625.323	6.33
625.657	6.41
625.99	6.48
626.324	6.39
626.657	6.4
626.991	6.39
627.324	6.37
627.658	6.39
627.991	6.44
628.324	6.42
628.657	6.4
628.991	6.39
629.324	6.37
629.657	6.34
629.99	6.34
630.323	6.29
630.656	6.32
630.989	6.28
631.322	6.26
631.655	6.3
631.987	6.29
632.32	6.34
632.653	6.33
632.986	6.36
633.318	6.47
633.651	6.48
633.984	6.46
634.316	6.44
634.649	6.47
634.981	6.45
635.313	6.49
635.646	6.54
635.978	6.53
636.31	6.56
636.643	6.57
636.975	6.6
637.307	6.64
637.639	6.68
637.971	6.71
638.303	6.71
638.635	6.72
638.967	6.78
639.299	6.79
639.631	6.79
639.963	6.76
640.295	6.79
640.626	6.81
640.958	6.83
641.29	6.94
641.621	6.84
641.953	6.76
642.285	6.72
642.616	6.77
642.948	6.83
643.279	6.82
643.61	6.77
643.942	6.74
644.273	6.73
644.604	6.71
644.936	6.74
645.267	6.78
645.598	6.79
645.929	6.72
646.26	6.75
646.591	6.69
646.922	6.65
647.253	6.5
647.584	6.53
647.915	6.54
648.245	6.46
648.576	6.52
648.907	6.57
649.238	6.62
649.568	6.59
649.899	6.61
650.229	6.64
650.56	6.66
650.89	6.75
651.221	6.76
651.551	6.83
651.882	6.83
652.212	6.79
652.542	6.76
652.872	6.79
653.203	6.75
653.533	6.81
653.863	6.89
654.193	6.88
654.523	6.86
654.853	6.93
655.183	7.03
655.513	7.05
655.843	7.09
656.172	7.1
656.502	7.04
656.832	7.07
657.162	7.08
657.491	7.11
657.821	7.04
658.15	7.07
658.48	7.04
658.809	7.11
659.139	7.17
659.468	7.15
659.798	7.18
660.127	7.17
660.456	7.09
660.785	7.05
661.115	7.15
661.444	7.19
661.773	7.18
662.102	7.1
662.431	7.09
662.76	7.03
663.089	7.04
663.418	7.1
663.747	7.11
664.076	7.06
664.404	7.06
664.733	7.06
665.062	7.01
665.39	7.01
665.719	6.9
666.048	6.89
666.376	6.99
666.705	7.04
667.033	7.03
667.362	7.1
667.69	7.15
668.018	7.18
668.347	7.16
668.675	7.1
669.003	7.16
669.331	7.19
669.659	7.27
669.987	7.26
670.315	7.24
670.643	7.19
670.971	7.16
671.299	7.17
671.627	7.23
671.955	7.29
672.283	7.23
672.61	7.32
672.938	7.33
673.266	7.31
673.593	7.28
673.921	7.32
674.249	7.36
674.576	7.33
674.904	7.2
675.231	7.12
675.558	7.22
675.886	7.15
676.213	7.16
676.54	7.26
676.867	7.26
677.195	7.42
677.522	7.43
677.849	7.49
678.176	7.56
678.503	7.53
678.83	7.56
679.157	7.53
679.484	7.58
679.81	7.5
680.137	7.58
680.464	7.56
680.791	7.56
681.117	7.61
681.444	7.58
681.771	7.66
682.097	7.76
682.424	7.74
682.75	7.84
683.077	7.91
683.403	7.92
683.729	7.93
684.056	7.78
684.382	7.74
684.708	7.8
685.034	7.75
685.36	7.74
685.686	7.88
686.012	7.95
686.339	7.86
686.664	7.9
686.99	7.74
687.316	7.77
687.642	7.86
687.968	7.92
688.294	7.99
688.619	8.04
688.945	7.98
689.271	8.01
689.596	7.98
689.922	7.92
690.247	7.77
690.573	7.84
690.898	7.92
691.224	7.9
691.549	7.96
691.874	7.96
692.2	8.08
692.525	7.89
692.85	7.97
693.175	8.12
693.5	8.03
693.825	8.24
694.15	8.27
694.475	8.26
694.8	8.17
695.125	8.2
695.45	8.23
695.775	8.17
696.099	8.16
696.424	8.12
696.749	8.22
697.073	8.35
697.398	8.26
697.723	8.26
698.047	8.31
698.372	8.31
698.696	8.37
699.02	8.42
699.345	8.47
699.669	8.54
699.993	8.43
700.318	8.51
700.642	8.44
700.966	8.43
701.29	8.43
701.614	8.45
701.938	8.51
702.262	8.46
702.586	8.63
702.91	8.66
703.234	8.74
703.557	8.75
703.881	8.72
704.205	8.99
704.529	8.9
704.852	8.97
705.176	8.84
705.499	8.76
705.823	8.62
706.146	8.66
706.47	8.64
706.793	8.78
707.117	8.86
707.44	8.88
707.763	8.91
708.086	8.94
708.409	8.91
708.733	8.79
709.056	8.94
709.379	9
709.702	8.94
710.025	9.01
710.348	8.94
710.671	9.03
710.993	8.91
711.316	9.09
711.639	8.99
711.962	9.2
712.284	9.27
712.607	9.28
712.93	9.27
713.252	9.17
713.575	9.05
713.897	9
714.22	8.85
714.542	8.81
714.864	8.79
715.187	8.73
715.509	8.73
715.831	8.68
716.153	8.51
716.475	8.49
716.798	8.42
717.12	8.45
717.442	8.34
717.764	8.28
718.085	8.29
718.407	8.51
718.729	8.36
719.051	8.3
719.373	8.4
719.695	8.45
720.016	8.5
720.338	8.68
720.659	8.82
720.981	9.04
721.302	9.05
721.624	9.03
721.945	9.32
722.267	9.41
722.588	9.44
722.909	9.54
723.231	9.58
723.552	9.71
723.873	9.65
724.194	9.71
724.515	9.82
724.836	9.66
725.157	9.7
725.478	9.79
725.799	9.89
726.12	9.98
726.441	9.76
726.762	9.72
727.083	9.64
727.403	9.57
727.724	9.5
728.045	9.69
728.365	9.77
728.686	9.81
729.006	9.82
729.327	9.83
729.647	9.86
729.967	10
730.288	9.85
730.608	10.06
730.928	10.17
731.249	10.22
731.569	10.43
731.889	10.46
732.209	10.44
732.529	10.39
732.849	10.33
733.169	10.54
733.489	10.5
733.809	10.54
734.129	10.44
734.448	10.45
734.768	10.25
735.088	10.34
735.408	10.24
735.727	10.26
736.047	10.36
736.366	10.37
736.686	10.34
737.005	10.47
737.325	10.39
737.644	10.42
737.963	10.28
738.283	10.21
738.602	10.29
738.921	10.29
739.24	10.34
739.56	10.42
739.879	10.25
740.198	10.41
740.517	10.24
740.836	10.55
741.155	10.65
741.473	10.77
741.792	10.58
742.111	10.49
742.43	10.67
742.748	10.55
743.067	10.47
743.386	10.48
743.704	10.54
744.023	10.51
744.341	10.5
744.66	10.53
744.978	10.16
745.297	9.81
745.615	9.78
745.933	9.61
746.252	9.53
746.57	9.64
746.888	9.66
747.206	10.02
747.524	10.03
747.842	9.86
748.16	10
748.478	10.24
748.796	10.6
749.114	10.63
749.432	10.64
749.749	10.75
750.067	10.64
750.385	10.73
750.703	10.94
751.02	10.67
751.338	10.94
751.655	11.27
751.973	11.35
752.29	11.44
752.608	11.65
752.925	11.69
753.242	11.87
753.56	11.93
753.877	11.74
754.194	11.69
754.511	11.56
754.828	11.47
755.145	11.53
755.462	11.39
755.779	10.87
756.096	11.03
756.413	11.1
756.73	11.31
757.047	11.03
757.364	10.81
757.68	11.05
757.997	10.87
758.314	10.95
758.63	10.84
758.947	10.75
759.264	10.63
759.58	10.45
759.896	10.27
760.213	10.28
760.529	10.41
760.846	10.41
761.162	10.44
761.478	10.48
761.794	10.29
762.11	10.12
762.426	10.22
762.743	10.15
763.059	10.4
763.375	10.34
763.69	10.53
764.006	10.56
764.322	10.39
764.638	10.48
764.954	10.61
765.27	10.87
765.585	11.19
765.901	11.33
766.216	11.57
766.532	11.61
766.848	11.54
767.163	11.28
767.478	11.32
767.794	11.76
768.109	11.61
768.424	11.81
768.74	11.88
769.055	12.42
769.37	12.23
769.685	11.82
770	11.69
770.315	11.69
770.63	11.76
770.945	11.77
771.26	11.76
771.575	11.75
771.89	11.79
772.205	11.47
772.52	11.56
772.834	11.4
773.149	11.41
773.464	11.68
773.778	11.91
774.093	11.75
774.407	11.74
774.722	12.12
775.036	12.31
775.351	12.41
775.665	11.82
775.979	12.2
776.293	12.23
776.608	12.56
776.922	12.52
777.236	12.65
777.55	12.76
777.864	12.57
778.178	12.36
778.492	12.32
778.806	12.49
779.12	12.48
779.434	12.61
779.747	12.73
780.061	12.33
780.375	12.85
780.689	13.01
781.002	12.71
781.316	12.43
781.629	12.38
781.943	12.46
782.256	12.52
782.57	12.58
782.883	12.98
783.196	12.92
783.51	13.07
783.823	12.79
784.136	12.77
784.449	12.92
784.762	13.6
785.075	13.19
785.388	13.05
785.701	13.12
786.014	12.77
786.327	12.7
786.64	12.97
786.953	12.65
787.266	12.27
787.578	12.34
787.891	13.15
788.204	12.88
788.516	12.96
788.829	13.51
789.141	13.86
789.454	13.86
789.766	14.35
790.079	14.4
790.391	14.64
790.703	14.57
791.016	14.65
791.328	14.33
791.64	14.73
791.952	15
792.264	14.98
792.576	15.65
792.888	15.75
793.2	16.23
793.512	15.84
793.824	16.32
794.136	16.62
794.448	16.33
794.76	16.38
795.071	16.49
795.383	16.56
795.695	16.18
796.006	16.58
796.318	16.22
796.629	16.32
796.941	15.48
797.252	15.71
797.564	15.98
797.875	15.73
798.186	16.14
798.497	16.25
798.809	16.17
799.12	15.53
799.431	15.65
799.742	15.73
800.053	15.64
800.364	15.91
800.675	16.04
800.986	15.68
801.297	15.81
801.608	15.55
801.918	14.92
802.229	15.2
802.54	14.57
802.851	14.95
803.161	15.06
803.472	16.08
803.782	16.74
804.093	16.47
804.403	16.71
804.714	16.3
805.024	16.16
805.334	16.08
805.645	17.1
805.955	17.05
806.265	17.18
806.575	17.77
806.885	17.46
807.195	16.9
807.505	17.5
807.815	17.71
808.125	18.02
808.435	18.25
808.745	17.72
809.055	17.97
809.365	17.59
809.674	17.49
809.984	17.01
810.294	16.75
810.603	17.36
810.913	17.32
811.222	16.96
811.532	17.3
811.841	17.71
812.151	17.64
812.46	17.88
812.769	18.04
813.079	18.98
813.388	18.96
813.697	18.8
814.006	18.98
814.315	19.15
814.624	19.35
814.933	19.77
815.242	20.19
815.551	20.19
815.86	20.1
816.169	19.79
816.478	20.21
816.786	19.94
817.095	20.17
817.404	19.87
817.712	20.15
818.021	19.68
818.33	19.57
818.638	18.62
818.947	18.2
819.255	17.23
819.563	16.33
819.872	15.95
820.18	15.93
820.488	15.54
820.796	15.16
821.105	15.27
821.413	15.28
821.721	15.03
822.029	15.05
822.337	15.04
822.645	14.97
822.953	14.87
823.26	14.88
823.568	14.57
823.876	14.62
824.184	14.67
824.491	14.56
824.799	14.41
825.107	14.49
825.414	14.41
825.722	14.37
826.029	14.46
826.337	14.59
826.644	14.59
826.951	14.63
827.259	14.74
827.566	14.63
827.873	14.42
828.18	14.66
828.488	14.41
828.795	14.45
829.102	14.44
829.409	14.44
829.716	14.46
830.023	14.75
830.329	14.98
830.636	14.92
830.943	15.09
831.25	15.32
831.557	15.38
831.863	15.9
832.17	16.07
832.476	15.95
832.783	16.4
833.089	16.49
833.396	16.54
833.702	17.17
834.009	17.11
834.315	17.53
834.621	17.59
834.928	17.75
835.234	17.79
835.54	17.93
835.846	18.04
836.152	18
836.458	17.28
836.764	16.87
837.07	16.57
837.376	16.51
837.682	16.63
837.988	16.86
838.293	16.58
838.599	16.63
838.905	17.61
839.211	17.58
839.516	17.48
839.822	17.39
840.127	16.24
840.433	16.5
840.738	16.98
841.044	17.08
841.349	17.01
841.654	16.85
841.959	17.54
842.265	18.29
842.57	18.68
842.875	19.98
843.18	20.23
843.485	20.64
843.79	21.07
844.095	21.55
844.4	22.22
844.705	22.93
845.01	24.81
845.315	23.5
845.619	23.21
845.924	23.93
846.229	24.01
846.533	25.02
846.838	25.66
847.142	26.13
847.447	25.58
847.751	27.34
848.056	28.18
848.36	28.2
848.664	27.5
848.969	27.31
849.273	27.37
849.577	27.04
849.881	27.14
850.185	27.59
850.489	27.11
850.794	25.71
851.097	24.27
851.401	21.24
851.705	21.91
852.009	23.07
852.313	24.16
852.617	23.85
852.92	24.12
853.224	24.23
853.528	22.56
853.831	23.95
854.135	22.99
854.438	22.52
854.742	23.63
855.045	23.59
855.349	24.68
855.652	23.34
855.955	23.57
856.259	24.23
856.562	24.28
856.865	23.1
857.168	22.85
857.471	25.42
857.774	26.63
858.077	24.99
858.38	24.07
858.683	24.35
858.986	25.94
859.289	26.85
859.592	25.63
859.894	25.79
860.197	24.42
860.5	24.59
860.802	23.67
861.105	24.05
861.407	23.9
861.71	22.6
862.012	26.02
862.315	26.93
862.617	27.07
862.919	27.16
863.222	27.67
863.524	26.43
863.826	23.53
864.128	26.15
864.43	29.08
864.732	26.32
865.034	26.33
865.336	28.64
865.638	29.07
865.94	31.49
866.242	31.58
866.544	33.4
866.846	35.02
867.147	38.99
867.449	38.18
867.751	36.77
868.052	34.82
868.354	33.69
868.655	35.05
868.957	34.61
869.258	35.03
869.56	37.35
869.861	39.05
870.162	39.25
870.463	37.6
870.765	33.05
871.066	32.95
871.367	32.16
871.668	27.7
871.969	26.31
872.27	25.56
872.571	25.08
872.872	23.94
873.173	21.38
873.473	15.88
873.774	15.01
874.075	17.37
874.376	19.16
874.676	19.1
874.977	19.85
875.277	18.59
875.578	16.73
875.878	15.01
876.179	14.88
876.479	15.45
876.78	13.65
877.08	16.1
877.38	18.44
877.68	19.08
877.981	21.62
878.281	21.26
878.581	18.27
