Data from MVZ_BU57658_Reflection_00003.txt Node
Date: Tue Nov 19 12:13:17 EST 2019
User: vgr7
Spectrometer: USB2G7710
Scans to average: 3
Trigger mode: 4
Integration Time (sec): 2.000000E-2
Electric dark correction enabled: true
Boxcar width: 10
XAxis mode: Wavelengths
Number of Pixels in Spectrum: 2048
>>>>>Begin Spectral Data<<<<<
177.721	-140.11
178.105	-382.46
178.488	-355.85
178.871	-133.33
179.254	93.33
179.636	1001.96
180.019	-182.31
180.402	-25
180.785	3.25
181.168	52.38
181.55	55.05
181.933	62.66
182.316	48.95
182.698	20.77
183.081	16.5
183.463	32.47
183.846	22.78
184.228	35.72
184.611	50.67
184.993	87.41
185.376	104.5
185.758	154.63
186.14	189.15
186.522	345.26
186.904	1226.67
187.287	112.03
187.669	-42.67
188.051	-12.77
188.433	-3.6
188.815	17.62
189.197	54.21
189.579	39.65
189.961	26.56
190.342	18.91
190.724	10.04
191.106	5.55
191.488	3.48
191.869	-22.09
192.251	-5.7
192.633	-6.85
193.014	4.13
193.396	8.66
193.777	17.76
194.159	15.04
194.54	18.45
194.922	26.88
195.303	-3.66
195.684	-23.91
196.065	-52.1
196.447	-83.68
196.828	-94.94
197.209	-110.9
197.59	-90.75
197.971	-171.64
198.352	3118.52
198.733	-648.23
199.114	637.56
199.495	-2187.88
199.876	-487.72
200.257	-18066.67
200.638	536.51
201.018	536.94
201.399	236.7
201.78	206.06
202.16	1306.67
202.541	2109.8
202.922	-3451.28
203.302	-167.17
203.683	-81.78
204.063	-64.56
204.444	-41.84
204.824	-42.37
205.204	-14.79
205.585	-10.99
205.965	2.56
206.345	9.12
206.725	28.37
207.106	54.33
207.486	16.23
207.866	7.47
208.246	32.07
208.626	12
209.006	15.95
209.386	73.77
209.766	98.77
210.145	222.59
210.525	311.11
210.905	198.11
211.285	185.92
211.664	439.22
212.044	724.38
212.424	-7161.9
212.803	-716.94
213.183	-1095.24
213.562	180.25
213.942	177.94
214.321	215.62
214.701	84.09
215.08	43.34
215.459	88.57
215.838	109.12
216.218	41.22
216.597	39.51
216.976	41.34
217.355	17.46
217.734	15.55
218.113	22.82
218.492	24.42
218.871	32.08
219.25	19.32
219.629	0.21
220.008	-9.27
220.387	-22.59
220.766	-7.43
221.144	-10.73
221.523	-17.46
221.902	-21.75
222.28	-18.11
222.659	-9.37
223.037	-9.12
223.416	-3.31
223.794	0.35
224.173	10.17
224.551	2.24
224.929	-1.28
225.308	2.72
225.686	8.08
226.064	-1.29
226.442	8.14
226.821	13.61
227.199	17.81
227.577	16.97
227.955	19.83
228.333	17.66
228.711	13.54
229.089	15.71
229.467	16.51
229.845	15.44
230.222	14.18
230.6	10.85
230.978	9.47
231.356	6.29
231.733	5.59
232.111	4.52
232.488	6.39
232.866	7.89
233.243	7.92
233.621	7.28
233.998	8.04
234.376	5.22
234.753	1.73
235.13	1.27
235.508	0.87
235.885	-0.96
236.262	0.31
236.639	-0.08
237.016	-0.34
237.393	0.39
237.77	1.17
238.147	2.06
238.524	4
238.901	4.07
239.278	3.97
239.655	3.77
240.032	3.56
240.409	2.98
240.785	2.89
241.162	2.61
241.539	1.98
241.915	2.31
242.292	2.31
242.668	2.42
243.045	2.43
243.421	2.95
243.798	3.05
244.174	3
244.551	3.29
244.927	3.08
245.303	2.68
245.679	2.84
246.056	2.84
246.432	2.51
246.808	2.38
247.184	2.55
247.56	2.54
247.936	2.56
248.312	2.76
248.688	3
249.064	2.97
249.44	2.96
249.815	2.85
250.191	3.19
250.567	3.22
250.943	3.17
251.318	3
251.694	2.88
252.069	2.98
252.445	2.78
252.82	3.12
253.196	3.61
253.571	3.6
253.947	3.32
254.322	3.21
254.697	3.3
255.073	3.11
255.448	3.3
255.823	3.25
256.198	3.16
256.573	2.87
256.948	2.9
257.323	2.88
257.698	2.88
258.073	2.72
258.448	2.68
258.823	2.52
259.198	2.62
259.573	2.77
259.948	2.87
260.322	2.9
260.697	2.86
261.072	2.82
261.446	2.88
261.821	2.7
262.195	2.83
262.57	2.74
262.944	2.72
263.319	2.95
263.693	3
264.067	2.99
264.442	2.99
264.816	2.88
265.19	2.83
265.564	2.8
265.938	2.79
266.313	2.79
266.687	2.96
267.061	2.92
267.435	2.85
267.809	2.6
268.183	2.71
268.556	2.51
268.93	2.61
269.304	2.33
269.678	2.43
270.051	2.44
270.425	2.41
270.799	2.32
271.172	2.05
271.546	2.07
271.919	2.1
272.293	2.13
272.666	2.23
273.04	2.36
273.413	2.34
273.787	2.31
274.16	2.25
274.533	2.39
274.906	2.28
275.279	2.32
275.653	2.41
276.026	2.61
276.399	2.7
276.772	2.76
277.145	2.9
277.518	2.92
277.891	2.86
278.263	3.04
278.636	3.16
279.009	3.3
279.382	3
279.755	2.98
280.127	3.04
280.5	3.08
280.872	3.11
281.245	3.14
281.617	3.18
281.99	3.31
282.362	3.06
282.735	3.16
283.107	3.02
283.479	3.07
283.852	2.9
284.224	2.93
284.596	2.84
284.968	2.76
285.34	2.78
285.713	2.8
286.085	2.69
286.457	2.77
286.829	2.62
287.201	2.85
287.572	2.88
287.944	2.83
288.316	2.91
288.688	2.88
289.06	2.9
289.431	2.8
289.803	2.9
290.175	3.1
290.546	2.99
290.918	3.06
291.289	2.92
291.661	3.01
292.032	2.98
292.403	2.93
292.775	2.96
293.146	3.06
293.517	3.09
293.889	3.26
294.26	3.14
294.631	3.1
295.002	3.14
295.373	3.07
295.744	3.1
296.115	3.06
296.486	3.08
296.857	3.07
297.228	3.18
297.599	2.94
297.97	2.81
298.34	2.89
298.711	2.98
299.082	2.94
299.452	2.81
299.823	2.81
300.194	2.92
300.564	2.85
300.935	2.77
301.305	2.71
301.676	2.63
302.046	2.69
302.416	2.84
302.787	2.77
303.157	2.73
303.527	2.84
303.897	2.77
304.267	2.91
304.637	2.9
305.008	2.77
305.378	2.89
305.748	2.94
306.117	2.94
306.487	2.82
306.857	2.89
307.227	2.98
307.597	2.98
307.967	2.87
308.336	3.05
308.706	3.11
309.076	3.14
309.445	3.2
309.815	3.24
310.184	3.11
310.554	3.12
310.923	3.09
311.293	3.02
311.662	3.04
312.031	2.86
312.401	2.78
312.77	2.85
313.139	2.85
313.508	2.83
313.877	2.86
314.246	2.77
314.616	2.85
314.985	2.77
315.353	2.69
315.722	2.72
316.091	2.66
316.46	2.8
316.829	2.8
317.198	2.8
317.567	2.83
317.935	2.78
318.304	2.88
318.672	3.02
319.041	2.93
319.41	2.88
319.778	2.97
320.147	3.07
320.515	3.04
320.883	2.87
321.252	2.74
321.62	2.7
321.988	2.8
322.357	2.81
322.725	2.98
323.093	2.97
323.461	3.04
323.829	3.08
324.197	2.98
324.565	2.96
324.933	2.94
325.301	2.97
325.669	3.07
326.037	3.15
326.405	3.14
326.772	3.01
327.14	2.97
327.508	2.9
327.875	2.9
328.243	2.93
328.61	3.1
328.978	3.16
329.346	3.25
329.713	3.21
330.08	3.22
330.448	3.16
330.815	3.38
331.182	3.21
331.55	3.12
331.917	2.93
332.284	3.02
332.651	2.93
333.018	2.78
333.385	2.78
333.752	2.49
334.119	2.46
334.486	2.44
334.853	2.42
335.22	2.54
335.587	2.48
335.954	2.32
336.32	2.28
336.687	2.32
337.054	2.26
337.42	2.34
337.787	2.21
338.153	2.21
338.52	2.1
338.886	2.13
339.253	2.15
339.619	2.27
339.986	2.12
340.352	2.15
340.718	2.25
341.084	2.27
341.451	2.42
341.817	2.56
342.183	2.78
342.549	2.92
342.915	2.92
343.281	2.89
343.647	3.01
344.013	2.98
344.379	2.91
344.745	2.92
345.11	2.87
345.476	2.97
345.842	3.07
346.208	3.08
346.573	3.21
346.939	3.09
347.304	3.06
347.67	3.15
348.035	3.06
348.401	2.97
348.766	3.01
349.132	2.98
349.497	2.91
349.862	2.91
350.228	2.86
350.593	2.89
350.958	3
351.323	3.05
351.688	3.21
352.053	3.31
352.418	3.27
352.783	3.33
353.148	3.36
353.513	3.24
353.878	3.16
354.243	2.99
354.608	3.23
354.972	3.28
355.337	3.33
355.702	3.34
356.066	3.39
356.431	3.37
356.795	3.38
357.16	3.33
357.524	3.24
357.889	3.17
358.253	3.07
358.618	3
358.982	2.92
359.346	2.77
359.71	2.73
360.075	2.75
360.439	2.76
360.803	2.75
361.167	2.75
361.531	2.78
361.895	2.78
362.259	2.75
362.623	2.7
362.987	2.65
363.351	2.77
363.714	2.78
364.078	2.74
364.442	2.72
364.806	2.83
365.169	2.77
365.533	2.84
365.896	2.87
366.26	2.86
366.623	2.95
366.987	3.08
367.35	3.12
367.714	3.15
368.077	3.17
368.44	3.14
368.803	3.04
369.167	3
369.53	3.03
369.893	3.04
370.256	3.05
370.619	3.03
370.982	2.93
371.345	2.96
371.708	2.98
372.071	2.95
372.434	2.88
372.797	2.98
373.159	2.98
373.522	2.99
373.885	3.07
374.247	3.04
374.61	2.99
374.973	3.04
375.335	3.08
375.698	3.07
376.06	3.13
376.423	3.24
376.785	3.27
377.147	3.27
377.51	3.28
377.872	3.26
378.234	3.31
378.596	3.31
378.958	3.25
379.321	3.21
379.683	3.3
380.045	3.33
380.407	3.36
380.769	3.36
381.13	3.31
381.492	3.26
381.854	3.28
382.216	3.25
382.578	3.18
382.939	3.2
383.301	3.14
383.663	3.11
384.024	3.08
384.386	3.05
384.747	3.06
385.109	3.03
385.47	3.04
385.832	3.05
386.193	3.06
386.554	3.13
386.916	3.17
387.277	3.07
387.638	3.05
387.999	3.03
388.36	3.01
388.721	3.05
389.082	3.08
389.443	3.1
389.804	3.13
390.165	3.16
390.526	3.15
390.887	3.16
391.248	3.19
391.609	3.22
391.969	3.31
392.33	3.3
392.691	3.27
393.051	3.25
393.412	3.23
393.772	3.27
394.133	3.2
394.493	3.18
394.854	3.25
395.214	3.25
395.574	3.22
395.935	3.23
396.295	3.26
396.655	3.25
397.015	3.24
397.376	3.22
397.736	3.18
398.096	3.14
398.456	3.17
398.816	3.19
399.176	3.15
399.535	3.09
399.895	3.09
400.255	3.09
400.615	3.16
400.975	3.14
401.334	3.12
401.694	3.17
402.054	3.19
402.413	3.21
402.773	3.19
403.132	3.21
403.492	3.22
403.851	3.18
404.211	3.15
404.57	3.12
404.929	3.13
405.288	3.19
405.648	3.18
406.007	3.19
406.366	3.14
406.725	3.15
407.084	3.16
407.443	3.2
407.802	3.23
408.161	3.19
408.52	3.24
408.879	3.23
409.238	3.2
409.596	3.21
409.955	3.14
410.314	3.11
410.673	3.1
411.031	3.08
411.39	3.09
411.748	3.15
412.107	3.17
412.465	3.16
412.824	3.11
413.182	3.18
413.54	3.18
413.899	3.2
414.257	3.22
414.615	3.22
414.974	3.19
415.332	3.19
415.69	3.22
416.048	3.21
416.406	3.2
416.764	3.22
417.122	3.21
417.48	3.23
417.838	3.25
418.195	3.25
418.553	3.26
418.911	3.24
419.269	3.23
419.626	3.22
419.984	3.21
420.342	3.23
420.699	3.19
421.057	3.19
421.414	3.19
421.772	3.16
422.129	3.15
422.486	3.15
422.844	3.14
423.201	3.13
423.558	3.13
423.915	3.13
424.273	3.14
424.63	3.12
424.987	3.12
425.344	3.12
425.701	3.12
426.058	3.13
426.415	3.15
426.772	3.14
427.128	3.14
427.485	3.15
427.842	3.12
428.199	3.14
428.555	3.13
428.912	3.13
429.269	3.14
429.625	3.17
429.982	3.17
430.338	3.2
430.695	3.19
431.051	3.18
431.407	3.2
431.764	3.2
432.12	3.24
432.476	3.25
432.832	3.26
433.189	3.26
433.545	3.24
433.901	3.22
434.257	3.22
434.613	3.22
434.969	3.2
435.325	3.22
435.681	3.21
436.036	3.21
436.392	3.2
436.748	3.21
437.104	3.17
437.459	3.16
437.815	3.14
438.171	3.15
438.526	3.14
438.882	3.12
439.237	3.1
439.593	3.07
439.948	3.06
440.304	3.05
440.659	3.05
441.014	3.07
441.369	3.09
441.725	3.11
442.08	3.12
442.435	3.14
442.79	3.15
443.145	3.14
443.5	3.13
443.855	3.13
444.21	3.15
444.565	3.17
444.92	3.19
445.275	3.2
445.629	3.2
445.984	3.22
446.339	3.25
446.693	3.27
447.048	3.28
447.403	3.28
447.757	3.28
448.112	3.29
448.466	3.26
448.82	3.26
449.175	3.25
449.529	3.25
449.883	3.24
450.238	3.24
450.592	3.26
450.946	3.27
451.3	3.28
451.654	3.27
452.008	3.27
452.362	3.25
452.716	3.26
453.07	3.25
453.424	3.23
453.778	3.21
454.132	3.18
454.486	3.18
454.839	3.19
455.193	3.21
455.547	3.22
455.9	3.24
456.254	3.22
456.607	3.24
456.961	3.23
457.314	3.23
457.668	3.24
458.021	3.23
458.375	3.23
458.728	3.23
459.081	3.23
459.434	3.22
459.787	3.25
460.141	3.23
460.494	3.25
460.847	3.27
461.2	3.27
461.553	3.3
461.906	3.31
462.259	3.3
462.611	3.3
462.964	3.29
463.317	3.29
463.67	3.29
464.022	3.29
464.375	3.28
464.728	3.26
465.08	3.24
465.433	3.23
465.785	3.22
466.138	3.24
466.49	3.24
466.843	3.27
467.195	3.26
467.547	3.27
467.899	3.25
468.252	3.23
468.604	3.24
468.956	3.22
469.308	3.19
469.66	3.2
470.012	3.18
470.364	3.19
470.716	3.2
471.068	3.21
471.42	3.19
471.772	3.2
472.123	3.24
472.475	3.28
472.827	3.3
473.178	3.31
473.53	3.3
473.882	3.29
474.233	3.28
474.585	3.26
474.936	3.24
475.288	3.26
475.639	3.25
475.99	3.27
476.342	3.29
476.693	3.32
477.044	3.33
477.395	3.35
477.746	3.33
478.097	3.33
478.448	3.34
478.8	3.34
479.15	3.34
479.501	3.33
479.852	3.3
480.203	3.31
480.554	3.3
480.905	3.31
481.255	3.33
481.606	3.33
481.957	3.35
482.307	3.35
482.658	3.36
483.009	3.36
483.359	3.36
483.709	3.37
484.06	3.36
484.41	3.37
484.761	3.37
485.111	3.38
485.461	3.38
485.811	3.39
486.162	3.4
486.512	3.4
486.862	3.41
487.212	3.43
487.562	3.42
487.912	3.43
488.262	3.43
488.612	3.43
488.961	3.42
489.311	3.42
489.661	3.41
490.011	3.41
490.36	3.4
490.71	3.4
491.06	3.39
491.409	3.4
491.759	3.39
492.108	3.38
492.458	3.39
492.807	3.39
493.157	3.39
493.506	3.38
493.855	3.38
494.204	3.37
494.554	3.36
494.903	3.39
495.252	3.4
495.601	3.4
495.95	3.4
496.299	3.41
496.648	3.44
496.997	3.46
497.346	3.49
497.695	3.51
498.043	3.52
498.392	3.51
498.741	3.51
499.09	3.51
499.438	3.52
499.787	3.5
500.135	3.5
500.484	3.49
500.832	3.47
501.181	3.5
501.529	3.53
501.878	3.54
502.226	3.56
502.574	3.56
502.923	3.54
503.271	3.55
503.619	3.56
503.967	3.54
504.315	3.53
504.663	3.53
505.011	3.55
505.359	3.55
505.707	3.59
506.055	3.59
506.403	3.6
506.751	3.6
507.098	3.63
507.446	3.65
507.794	3.64
508.141	3.66
508.489	3.65
508.837	3.62
509.184	3.62
509.531	3.62
509.879	3.61
510.226	3.61
510.574	3.62
510.921	3.63
511.268	3.64
511.616	3.66
511.963	3.65
512.31	3.67
512.657	3.67
513.004	3.65
513.351	3.66
513.698	3.65
514.045	3.65
514.392	3.63
514.739	3.64
515.086	3.68
515.432	3.71
515.779	3.71
516.126	3.74
516.473	3.74
516.819	3.72
517.166	3.75
517.512	3.77
517.859	3.78
518.205	3.76
518.552	3.76
518.898	3.75
519.245	3.77
519.591	3.75
519.937	3.74
520.283	3.75
520.629	3.74
520.976	3.76
521.322	3.77
521.668	3.8
522.014	3.78
522.36	3.76
522.706	3.74
523.052	3.75
523.398	3.73
523.743	3.75
524.089	3.77
524.435	3.77
524.781	3.77
525.126	3.78
525.472	3.79
525.817	3.79
526.163	3.79
526.509	3.79
526.854	3.8
527.199	3.81
527.545	3.82
527.89	3.84
528.235	3.84
528.581	3.83
528.926	3.83
529.271	3.85
529.616	3.85
529.961	3.85
530.306	3.84
530.651	3.86
530.996	3.87
531.341	3.86
531.686	3.88
532.031	3.86
532.376	3.85
532.721	3.86
533.065	3.87
533.41	3.88
533.755	3.88
534.099	3.89
534.444	3.88
534.788	3.88
535.133	3.87
535.477	3.86
535.822	3.86
536.166	3.86
536.51	3.85
536.855	3.86
537.199	3.87
537.543	3.88
537.887	3.87
538.231	3.86
538.576	3.87
538.92	3.87
539.264	3.88
539.608	3.89
539.951	3.89
540.295	3.89
540.639	3.88
540.983	3.88
541.327	3.87
541.671	3.88
542.014	3.89
542.358	3.9
542.701	3.9
543.045	3.9
543.389	3.92
543.732	3.92
544.075	3.92
544.419	3.92
544.762	3.93
545.105	3.92
545.449	3.95
545.792	3.94
546.135	3.94
546.478	3.96
546.821	3.99
547.165	4
547.508	4.01
547.851	4.03
548.194	4.02
548.536	4
548.879	4.01
549.222	4.02
549.565	4.01
549.908	4.01
550.25	4.03
550.593	4
550.936	4.03
551.278	4.05
551.621	4.06
551.963	4.07
552.306	4.08
552.648	4.04
552.991	4.08
553.333	4.04
553.675	4.04
554.017	4.03
554.36	4.03
554.702	4.04
555.044	4.07
555.386	4.1
555.728	4.16
556.07	4.15
556.412	4.15
556.754	4.13
557.096	4.13
557.438	4.09
557.78	4.08
558.121	4.08
558.463	4.06
558.805	4.06
559.147	4.05
559.488	4.08
559.83	4.07
560.171	4.03
560.513	4.08
560.854	4.07
561.196	4.06
561.537	4.05
561.878	4.04
562.22	4.03
562.561	4.01
562.902	3.99
563.243	4
563.584	3.99
563.925	4.03
564.266	4.05
564.607	4.1
564.948	4.12
565.289	4.12
565.63	4.11
565.971	4.09
566.312	4.11
566.653	4.09
566.993	4.09
567.334	4.1
567.675	4.09
568.015	4.06
568.356	4.03
568.696	4.03
569.037	4.04
569.377	4.03
569.718	4.04
570.058	4.06
570.398	4.06
570.739	4.06
571.079	4.05
571.419	4.06
571.759	4.02
572.099	4.03
572.439	4.03
572.779	4.05
573.119	4.07
573.459	4.05
573.799	4.05
574.139	4.03
574.479	4.01
574.819	4
575.158	4.04
575.498	4.08
575.838	4.06
576.177	4.01
576.517	4.04
576.856	4.05
577.196	4.05
577.535	4.06
577.875	4.01
578.214	4.03
578.553	4.01
578.893	4.06
579.232	4.07
579.571	4.09
579.91	4.09
580.25	4.09
580.589	4.06
580.928	4.07
581.267	4.11
581.606	4.15
581.945	4.17
582.283	4.18
582.622	4.09
582.961	4.15
583.3	4.16
583.639	4.15
583.977	4.15
584.316	4.19
584.654	4.18
584.993	4.21
585.332	4.2
585.67	4.23
586.008	4.25
586.347	4.25
586.685	4.24
587.024	4.27
587.362	4.25
587.7	4.33
588.038	4.37
588.376	4.39
588.715	4.37
589.053	4.4
589.391	4.36
589.729	4.4
590.067	4.39
590.404	4.44
590.742	4.44
591.08	4.44
591.418	4.4
591.756	4.39
592.093	4.41
592.431	4.43
592.769	4.41
593.106	4.35
593.444	4.35
593.781	4.34
594.119	4.28
594.456	4.32
594.793	4.26
595.131	4.21
595.468	4.22
595.805	4.22
596.143	4.19
596.48	4.16
596.817	4.17
597.154	4.17
597.491	4.1
597.828	4.1
598.165	4.08
598.502	4.08
598.839	4.07
599.176	4.08
599.512	4.07
599.849	4.06
600.186	4.08
600.523	4.02
600.859	4.01
601.196	4.07
601.532	4.04
601.869	4.04
602.205	4.04
602.542	4.07
602.878	4.09
603.215	4.11
603.551	4.13
603.887	4.15
604.223	4.17
604.56	4.25
604.896	4.28
605.232	4.26
605.568	4.24
605.904	4.24
606.24	4.23
606.576	4.24
606.912	4.22
607.248	4.25
607.583	4.32
607.919	4.31
608.255	4.29
608.591	4.29
608.926	4.3
609.262	4.31
609.597	4.3
609.933	4.27
610.268	4.3
610.604	4.27
610.939	4.24
611.275	4.24
611.61	4.19
611.945	4.14
612.281	4.17
612.616	4.22
612.951	4.25
613.286	4.25
613.621	4.24
613.956	4.31
614.291	4.31
614.626	4.28
614.961	4.38
615.296	4.37
615.631	4.4
615.966	4.42
616.3	4.41
616.635	4.38
616.97	4.43
617.304	4.37
617.639	4.39
617.973	4.4
618.308	4.38
618.642	4.39
618.977	4.39
619.311	4.39
619.646	4.38
619.98	4.39
620.314	4.4
620.648	4.37
620.983	4.34
621.317	4.33
621.651	4.31
621.985	4.29
622.319	4.25
622.653	4.27
622.987	4.31
623.321	4.28
623.655	4.27
623.988	4.25
624.322	4.27
624.656	4.28
624.99	4.32
625.323	4.32
625.657	4.31
625.99	4.29
626.324	4.24
626.657	4.27
626.991	4.29
627.324	4.27
627.658	4.31
627.991	4.36
628.324	4.34
628.657	4.38
628.991	4.33
629.324	4.33
629.657	4.31
629.99	4.33
630.323	4.35
630.656	4.26
630.989	4.3
631.322	4.33
631.655	4.32
631.987	4.31
632.32	4.33
632.653	4.36
632.986	4.44
633.318	4.5
633.651	4.48
633.984	4.46
634.316	4.5
634.649	4.46
634.981	4.41
635.313	4.43
635.646	4.46
635.978	4.5
636.31	4.5
636.643	4.57
636.975	4.48
637.307	4.48
637.639	4.63
637.971	4.62
638.303	4.6
638.635	4.54
638.967	4.53
639.299	4.57
639.631	4.6
639.963	4.58
640.295	4.6
640.626	4.62
640.958	4.57
641.29	4.55
641.621	4.54
641.953	4.49
642.285	4.51
642.616	4.47
642.948	4.41
643.279	4.42
643.61	4.38
643.942	4.44
644.273	4.46
644.604	4.4
644.936	4.34
645.267	4.33
645.598	4.41
645.929	4.38
646.26	4.31
646.591	4.31
646.922	4.28
647.253	4.26
647.584	4.24
647.915	4.26
648.245	4.33
648.576	4.32
648.907	4.39
649.238	4.28
649.568	4.31
649.899	4.35
650.229	4.41
650.56	4.47
650.89	4.49
651.221	4.49
651.551	4.6
651.882	4.67
652.212	4.66
652.542	4.77
652.872	4.78
653.203	4.84
653.533	4.89
653.863	4.9
654.193	4.84
654.523	4.85
654.853	4.91
655.183	4.87
655.513	4.94
655.843	4.88
656.172	4.93
656.502	4.85
656.832	4.77
657.162	4.77
657.491	4.71
657.821	4.6
658.15	4.61
658.48	4.58
658.809	4.58
659.139	4.62
659.468	4.56
659.798	4.62
660.127	4.6
660.456	4.52
660.785	4.48
661.115	4.53
661.444	4.55
661.773	4.46
662.102	4.42
662.431	4.4
662.76	4.43
663.089	4.52
663.418	4.56
663.747	4.64
664.076	4.65
664.404	4.71
664.733	4.75
665.062	4.81
665.39	4.71
665.719	4.7
666.048	4.66
666.376	4.7
666.705	4.61
667.033	4.55
667.362	4.57
667.69	4.66
668.018	4.77
668.347	4.73
668.675	4.81
669.003	4.9
669.331	4.9
669.659	4.95
669.987	4.93
670.315	5.01
670.643	5.08
670.971	5.03
671.299	5
671.627	5.04
671.955	4.94
672.283	5.03
672.61	5.07
672.938	5.17
673.266	5.12
673.593	5.15
673.921	5.25
674.249	5.26
674.576	5.21
674.904	5.1
675.231	5.08
675.558	5.12
675.886	4.97
676.213	4.89
676.54	4.89
676.867	4.83
677.195	4.78
677.522	4.74
677.849	4.83
678.176	4.88
678.503	4.88
678.83	4.97
679.157	4.94
679.484	4.85
679.81	4.85
680.137	4.87
680.464	4.88
680.791	4.87
681.117	4.92
681.444	4.89
681.771	4.92
682.097	4.99
682.424	4.99
682.75	5.12
683.077	5.29
683.403	5.39
683.729	5.4
684.056	5.44
684.382	5.45
684.708	5.4
685.034	5.4
685.36	5.35
685.686	5.31
686.012	5.27
686.339	5.34
686.664	5.35
686.99	5.35
687.316	5.4
687.642	5.37
687.968	5.43
688.294	5.47
688.619	5.46
688.945	5.35
689.271	5.36
689.596	5.23
689.922	5.13
690.247	5.13
690.573	5.19
690.898	5.11
691.224	5.15
691.549	5.23
691.874	5.21
692.2	5.24
692.525	5.2
692.85	5.3
693.175	5.29
693.5	5.23
693.825	5.19
694.15	5.18
694.475	5.3
694.8	5.29
695.125	5.26
695.45	5.28
695.775	5.34
696.099	5.37
696.424	5.45
696.749	5.42
697.073	5.34
697.398	5.3
697.723	5.37
698.047	5.32
698.372	5.25
698.696	5.24
699.02	5.29
699.345	5.45
699.669	5.47
699.993	5.48
700.318	5.57
700.642	5.56
700.966	5.63
701.29	5.62
701.614	5.57
701.938	5.68
702.262	5.75
702.586	5.82
702.91	5.7
703.234	5.73
703.557	5.74
703.881	5.84
704.205	5.78
704.529	5.7
704.852	5.67
705.176	5.63
705.499	5.55
705.823	5.55
706.146	5.51
706.47	5.52
706.793	5.49
707.117	5.51
707.44	5.47
707.763	5.39
708.086	5.24
708.409	5.2
708.733	5.07
709.056	4.94
709.379	5.04
709.702	5.12
710.025	5.1
710.348	5.03
710.671	4.91
710.993	4.96
711.316	5.02
711.639	5.14
711.962	5.36
712.284	5.46
712.607	5.45
712.93	5.33
713.252	5.19
713.575	5.16
713.897	5.04
714.22	5.08
714.542	5.2
714.864	5.19
715.187	5.24
715.509	5.25
715.831	5.22
716.153	5.12
716.475	5.16
716.798	5.08
717.12	5.36
717.442	5.38
717.764	5.5
718.085	5.64
718.407	5.65
718.729	5.4
719.051	5.42
719.373	5.41
719.695	5.41
720.016	5.58
720.338	5.77
720.659	5.92
720.981	5.94
721.302	5.99
721.624	6.04
721.945	6
722.267	5.96
722.588	5.92
722.909	5.93
723.231	5.73
723.552	5.94
723.873	5.71
724.194	5.6
724.515	5.5
724.836	5.43
725.157	5.44
725.478	5.38
725.799	5.4
726.12	5.4
726.441	5.52
726.762	5.45
727.083	5.34
727.403	5.33
727.724	5.47
728.045	5.49
728.365	5.64
728.686	5.77
729.006	5.76
729.327	5.97
729.647	6.07
729.967	6.2
730.288	6.1
730.608	6.15
730.928	6.47
731.249	6.47
731.569	6.47
731.889	6.45
732.209	6.77
732.529	6.78
732.849	6.83
733.169	6.93
733.489	6.77
733.809	6.85
734.129	6.89
734.448	6.7
734.768	6.44
735.088	6.52
735.408	6.26
735.727	6.23
736.047	6.15
736.366	6.19
736.686	6.23
737.005	6.48
737.325	6.5
737.644	6.14
737.963	6.39
738.283	6.3
738.602	6.28
738.921	6.08
739.24	6.22
739.56	6.26
739.879	6.09
740.198	6.34
740.517	6.32
740.836	6.19
741.155	6.29
741.473	6.29
741.792	6.16
742.111	6.52
742.43	6.98
742.748	7.11
743.067	6.93
743.386	6.77
743.704	6.6
744.023	6.68
744.341	7.01
744.66	6.9
744.978	7.14
745.297	7.37
745.615	7.47
745.933	7.48
746.252	7.49
746.57	7.48
746.888	7.65
747.206	7.76
747.524	8.1
747.842	8.18
748.16	8.47
748.478	8.5
748.796	8.44
749.114	8.16
749.432	8.15
749.749	8.19
750.067	8.42
750.385	8.47
750.703	8.45
751.02	8.37
751.338	8.38
751.655	8.12
751.973	7.83
752.29	7.85
752.608	7.8
752.925	7.82
753.242	7.78
753.56	7.3
753.877	7.17
754.194	7.23
754.511	7.16
754.828	6.93
755.145	6.81
755.462	6.84
755.779	6.78
756.096	6.7
756.413	6.58
756.73	6.66
757.047	6.68
757.364	6.62
757.68	6.8
757.997	6.74
758.314	6.66
758.63	6.46
758.947	6.55
759.264	6.37
759.58	6.32
759.896	6.68
760.213	7.19
760.529	7.31
760.846	7.06
761.162	7.16
761.478	7.2
761.794	7.43
762.11	7.33
762.426	7.32
762.743	7.54
763.059	7.82
763.375	7.75
763.69	7.58
764.006	7.66
764.322	7.46
764.638	7.54
764.954	7.79
765.27	8.2
765.585	8.13
765.901	8.12
766.216	8.26
766.532	8.19
766.848	8.2
767.163	8.06
767.478	8.02
767.794	7.76
768.109	7.85
768.424	7.73
768.74	7.63
769.055	7.68
769.37	7.4
769.685	7.3
770	7.36
770.315	7.7
770.63	7.44
770.945	7.45
771.26	7.15
771.575	6.58
771.89	6.34
772.205	6.44
772.52	6.74
772.834	6.93
773.149	7.02
773.464	6.88
773.778	6.92
774.093	6.94
774.407	7.09
774.722	6.98
775.036	7.18
775.351	7.48
775.665	7.62
775.979	7.7
776.293	7.62
776.608	7.61
776.922	7.35
777.236	7.37
777.55	7.39
777.864	7.59
778.178	8.21
778.492	8.34
778.806	8.22
779.12	7.92
779.434	8.15
779.747	8.06
780.061	7.99
780.375	8.35
780.689	8.91
781.002	8.77
781.316	8.83
781.629	8.87
781.943	8.63
782.256	8.35
782.57	8.27
782.883	8.15
783.196	8.35
783.51	9.12
783.823	9.25
784.136	9.16
784.449	9.08
784.762	9.02
785.075	9.02
785.388	9.23
785.701	9.46
786.014	8.85
786.327	8.39
786.64	8.88
786.953	8.63
787.266	8.06
787.578	8.52
787.891	9.17
788.204	9.23
788.516	9.73
788.829	9.99
789.141	10.12
789.454	9.79
789.766	9.64
790.079	9.11
790.391	9.27
790.703	9.78
791.016	9.81
791.328	10.13
791.64	10.12
791.952	9.86
792.264	9.7
792.576	9.89
792.888	10.71
793.2	10.16
793.512	9.8
793.824	9.96
794.136	9.54
794.448	9.3
794.76	9.4
795.071	8.97
795.383	8.57
795.695	8.82
796.006	9.26
796.318	9.28
796.629	9.07
796.941	9.03
797.252	8.46
797.564	8.65
797.875	7.84
798.186	7.91
798.497	8.14
798.809	8.46
799.12	8.54
799.431	7.75
799.742	8.18
800.053	8.3
800.364	8.46
800.675	8.72
800.986	8.57
801.297	8.31
801.608	8.35
801.918	8.42
802.229	8.04
802.54	8.13
802.851	8.03
803.161	8.05
803.472	8.11
803.782	8.84
804.093	8.82
804.403	9.45
804.714	9.52
805.024	9.24
805.334	8.71
805.645	8.49
805.955	9.2
806.265	9.03
806.575	9.72
806.885	10.13
807.195	10.18
807.505	10.1
807.815	10.46
808.125	10.37
808.435	10.91
808.745	10.84
809.055	11.69
809.365	12.57
809.674	12.92
809.984	12.82
810.294	12.15
810.603	12.21
810.913	11.99
811.222	11.81
811.532	12.03
811.841	12.51
812.151	12.28
812.46	12.36
812.769	12.34
813.079	11.87
813.388	11.71
813.697	11.99
814.006	12.22
814.315	12.42
814.624	12.35
814.933	11.96
815.242	11.99
815.551	11.04
815.86	10.81
816.169	10.67
816.478	10.56
816.786	10.66
817.095	11.25
817.404	11.42
817.712	11.42
818.021	11.47
818.33	11.82
818.638	12.18
818.947	11.21
819.255	10.94
819.563	10.79
819.872	10.35
820.18	10.19
820.488	9.9
820.796	9.47
821.105	9.98
821.413	9.93
821.721	9.9
822.029	10.02
822.337	9.77
822.645	9.87
822.953	9.79
823.26	9.8
823.568	9.71
823.876	9.58
824.184	9.38
824.491	9.34
824.799	9.18
825.107	9.2
825.414	9.29
825.722	9.13
826.029	9.03
826.337	9.05
826.644	9.02
826.951	9.23
827.259	9.41
827.566	9.03
827.873	9.21
828.18	9.38
828.488	9.28
828.795	9.43
829.102	9.2
829.409	9.55
829.716	9.69
830.023	9.62
830.329	9.85
830.636	10.17
830.943	9.87
831.25	9.7
831.557	9.78
831.863	9.84
832.17	10.41
832.476	10.42
832.783	10.32
833.089	10.75
833.396	10.83
833.702	10.43
834.009	10.74
834.315	10.83
834.621	10.4
834.928	9.97
835.234	9.67
835.54	10.02
835.846	10.01
836.152	10.01
836.458	10.08
836.764	10.16
837.07	10.45
837.376	10.81
837.682	10.75
837.988	10.66
838.293	10.4
838.599	10.66
838.905	11.13
839.211	11.2
839.516	10.42
839.822	10.05
840.127	9.35
840.433	8.99
840.738	9.14
841.044	9.78
841.349	9.67
841.654	9.48
841.959	8.97
842.265	8.18
842.57	7.94
842.875	7.95
843.18	7.77
843.485	6.89
843.79	7.4
844.095	8.1
844.4	8.88
844.705	10.51
845.01	11.21
845.315	10.03
845.619	10.7
845.924	11.04
846.229	11.18
846.533	13.64
846.838	12.56
847.142	10.63
847.447	10.9
847.751	12.11
848.056	13
848.36	14.46
848.664	14.32
848.969	16
849.273	14.74
849.577	15.98
849.881	17.21
850.185	17.55
850.489	18.79
850.794	18.04
851.097	17.39
851.401	14.91
851.705	17.76
852.009	17.07
852.313	17.07
852.617	16.51
852.92	15.51
853.224	18.9
853.528	21.29
853.831	22.11
854.135	22.86
854.438	21.77
854.742	21.5
855.045	22.8
855.349	19.71
855.652	19.96
855.955	18.27
856.259	20.86
856.562	20.08
856.865	20.41
857.168	18.43
857.471	18.47
857.774	18.84
858.077	17.17
858.38	17.77
858.683	17.79
858.986	18.16
859.289	19.29
859.592	17.12
859.894	17.01
860.197	14.89
860.5	16.19
860.802	17.54
861.105	14.85
861.407	16.72
861.71	15.88
862.012	17.03
862.315	16.68
862.617	13.97
862.919	13.97
863.222	12.86
863.524	13.3
863.826	11.47
864.128	10.83
864.43	13.27
864.732	13.4
865.034	14.38
865.336	13.57
865.638	13.63
865.94	15.16
866.242	13.24
866.544	15.23
866.846	14
867.147	15.34
867.449	18.44
867.751	16.21
868.052	17.94
868.354	19.06
868.655	19.91
868.957	22.13
869.258	21.24
869.56	20.65
869.861	21.15
870.162	21.07
870.463	22.19
870.765	21.3
871.066	21.91
871.367	19.19
871.668	18.8
871.969	15.24
872.27	15.25
872.571	17.75
872.872	14.93
873.173	12.97
873.473	8.68
873.774	7.42
874.075	5.84
874.376	7.8
874.676	7.89
874.977	8.89
875.277	5.93
875.578	10.2
875.878	10.88
876.179	9.69
876.479	10.89
876.78	10.24
877.08	8.53
877.38	6.56
877.68	9.78
877.981	11.07
878.281	14.68
878.581	13.5
