Data from MVZ_BU34099_Reflection_00003.txt Node
Date: Tue Nov 19 12:15:25 EST 2019
User: vgr7
Spectrometer: USB2G7710
Scans to average: 3
Trigger mode: 4
Integration Time (sec): 2.000000E-2
Electric dark correction enabled: true
Boxcar width: 10
XAxis mode: Wavelengths
Number of Pixels in Spectrum: 2048
>>>>>Begin Spectral Data<<<<<
177.721	574.71
178.105	-218.97
178.488	-582.24
178.871	115.09
179.254	-154.55
179.636	342.57
180.019	80.17
180.402	-366.67
180.785	141.73
181.168	16.23
181.55	2715.38
181.933	610.2
182.316	751.16
182.698	122.1
183.081	517.91
183.463	1561.54
183.846	384.77
184.228	2202.04
184.611	8946.15
184.993	-2071.43
185.376	-241.3
185.758	-140.99
186.14	-307.27
186.522	-173.78
186.904	-116.55
187.287	-182.99
187.669	-125.77
188.051	-131.55
188.433	-229.77
188.815	-269.15
189.197	-222.86
189.579	-162.01
189.961	-149.81
190.342	-111.86
190.724	-128.85
191.106	-99.39
191.488	-76.93
191.869	-58.06
192.251	-42.18
192.633	-26.69
193.014	-23.28
193.396	-30.05
193.777	-32.84
194.159	-33.57
194.54	-23.98
194.922	-23.92
195.303	-17.24
195.684	-20.26
196.065	-6.59
196.447	-4.65
196.828	-4.7
197.209	2.55
197.59	-1.45
197.971	2.71
198.352	5.42
198.733	-4.7
199.114	-12.27
199.495	-7.87
199.876	-7.73
200.257	-10.61
200.638	-16.17
201.018	-39.42
201.399	-29.68
201.78	-16.11
202.16	-18.83
202.541	-35.65
202.922	-37.32
203.302	-37.77
203.683	-29.22
204.063	-56.79
204.444	-46.66
204.824	-39.51
205.204	-29.19
205.585	-6.24
205.965	-15.25
206.345	-22.46
206.725	-2.39
207.106	9.2
207.486	-6.35
207.866	-10.83
208.246	0.65
208.626	-3.5
209.006	11.45
209.386	10.34
209.766	7.58
210.145	12.45
210.525	6.62
210.905	13.6
211.285	11.54
211.664	14.13
212.044	26.44
212.424	28.63
212.803	18.94
213.183	14.96
213.562	5.34
213.942	2.7
214.321	2.3
214.701	-10.92
215.08	-17.6
215.459	-16.36
215.838	-20.82
216.218	-36.13
216.597	-35.25
216.976	-53.52
217.355	-48.55
217.734	-52.27
218.113	-49.76
218.492	-53.38
218.871	-57.05
219.25	-73.57
219.629	-104.45
220.008	-132.82
220.387	-96.68
220.766	-66.74
221.144	-69.24
221.523	-87.53
221.902	-81.48
222.28	-59.3
222.659	-32.32
223.037	-37.04
223.416	-41.82
223.794	-29.13
224.173	-30.42
224.551	-29.63
224.929	-28.88
225.308	-31.29
225.686	-25.64
226.064	-24.94
226.442	-23.72
226.821	-26.26
227.199	-22.7
227.577	-21.36
227.955	-18.4
228.333	-18.75
228.711	-18.73
229.089	-16.72
229.467	-18.23
229.845	-16.29
230.222	-16.57
230.6	-20.04
230.978	-13.73
231.356	-9.59
231.733	-9.62
232.111	-7.87
232.488	-6.28
232.866	-3.27
233.243	-2.03
233.621	-1.06
233.998	0.69
234.376	3.11
234.753	4.96
235.13	5.27
235.508	5.18
235.885	6.41
236.262	6.13
236.639	5.42
237.016	5.85
237.393	8.17
237.77	7.97
238.147	8.62
238.524	9.45
238.901	7.88
239.278	6.2
239.655	6.01
240.032	6.57
240.409	5.9
240.785	5
241.162	5.25
241.539	4.78
241.915	4.47
242.292	4.84
242.668	4.83
243.045	4.75
243.421	4.74
243.798	4.37
244.174	4.2
244.551	4.59
244.927	4.34
245.303	4
245.679	3.96
246.056	3.66
246.432	3.65
246.808	3.63
247.184	3.87
247.56	3.8
247.936	3.71
248.312	3.75
248.688	4.04
249.064	3.85
249.44	3.73
249.815	3.85
250.191	3.41
250.567	3.33
250.943	3.09
251.318	2.94
251.694	2.92
252.069	3.18
252.445	3.06
252.82	3.44
253.196	3.38
253.571	3.52
253.947	3.56
254.322	3.2
254.697	2.96
255.073	2.76
255.448	2.67
255.823	2.51
256.198	2.33
256.573	2.26
256.948	2.32
257.323	2.53
257.698	2.31
258.073	2.38
258.448	2.33
258.823	2.37
259.198	2.46
259.573	2.24
259.948	2.06
260.322	1.94
260.697	1.81
261.072	1.96
261.446	1.9
261.821	1.84
262.195	2.01
262.57	2.04
262.944	2.15
263.319	2.11
263.693	2.03
264.067	2.27
264.442	2.16
264.816	2.23
265.19	2.07
265.564	2.06
265.938	1.98
266.313	1.82
266.687	1.97
267.061	1.75
267.435	2.11
267.809	2.03
268.183	1.98
268.556	2.08
268.93	2.07
269.304	1.95
269.678	2.05
270.051	1.93
270.425	1.91
270.799	1.9
271.172	2.02
271.546	2.24
271.919	2.11
272.293	2.17
272.666	2.06
273.04	1.96
273.413	2.09
273.787	1.98
274.16	2.05
274.533	2.04
274.906	2.38
275.279	2.27
275.653	2.32
276.026	2.25
276.399	2.1
276.772	2.05
277.145	2.17
277.518	2.09
277.891	2.17
278.263	2.3
278.636	2.29
279.009	2.3
279.382	2.17
279.755	2.16
280.127	2.15
280.5	2.09
280.872	2.4
281.245	2.27
281.617	2.49
281.99	2.4
282.362	2.38
282.735	2.33
283.107	2.19
283.479	2.31
283.852	2.39
284.224	2.38
284.596	2.31
284.968	2.3
285.34	2.33
285.713	2.35
286.085	2.17
286.457	2.12
286.829	2.1
287.201	1.92
287.572	2.02
287.944	2.01
288.316	2.06
288.688	2.1
289.06	2.08
289.431	2.15
289.803	2.28
290.175	2.24
290.546	2.22
290.918	2.36
291.289	2.24
291.661	2.25
292.032	2.32
292.403	2.35
292.775	2.41
293.146	2.4
293.517	2.27
293.889	2.45
294.26	2.5
294.631	2.46
295.002	2.66
295.373	2.57
295.744	2.56
296.115	2.51
296.486	2.45
296.857	2.65
297.228	2.51
297.599	2.46
297.97	2.55
298.34	2.47
298.711	2.44
299.082	2.4
299.452	2.41
299.823	2.41
300.194	2.55
300.564	2.43
300.935	2.52
301.305	2.65
301.676	2.6
302.046	2.6
302.416	2.6
302.787	2.41
303.157	2.46
303.527	2.48
303.897	2.59
304.267	2.54
304.637	2.42
305.008	2.62
305.378	2.67
305.748	2.58
306.117	2.63
306.487	2.74
306.857	2.96
307.227	3.11
307.597	3.14
307.967	3.09
308.336	3.13
308.706	3.06
309.076	3.04
309.445	3.05
309.815	3.05
310.184	2.91
310.554	3.05
310.923	2.92
311.293	2.81
311.662	2.77
312.031	2.84
312.401	2.86
312.77	2.72
313.139	2.61
313.508	2.69
313.877	2.65
314.246	2.6
314.616	2.57
314.985	2.38
315.353	2.3
315.722	2.35
316.091	2.37
316.46	2.36
316.829	2.35
317.198	2.46
317.567	2.47
317.935	2.51
318.304	2.67
318.672	2.8
319.041	2.95
319.41	2.97
319.778	2.83
320.147	2.84
320.515	2.92
320.883	3.04
321.252	2.97
321.62	2.88
321.988	2.83
322.357	2.74
322.725	3.01
323.093	2.96
323.461	2.84
323.829	2.79
324.197	2.72
324.565	2.8
324.933	2.68
325.301	2.56
325.669	2.64
326.037	2.51
326.405	2.56
326.772	2.64
327.14	2.61
327.508	2.62
327.875	2.58
328.243	2.55
328.61	2.46
328.978	2.49
329.346	2.6
329.713	2.72
330.08	2.71
330.448	2.54
330.815	2.64
331.182	2.72
331.55	2.76
331.917	2.79
332.284	2.61
332.651	2.58
333.018	2.72
333.385	2.78
333.752	2.69
334.119	2.72
334.486	2.59
334.853	2.51
335.22	2.53
335.587	2.34
335.954	2.32
336.32	2.46
336.687	2.44
337.054	2.45
337.42	2.35
337.787	2.37
338.153	2.48
338.52	2.6
338.886	2.6
339.253	2.57
339.619	2.58
339.986	2.65
340.352	2.74
340.718	2.78
341.084	2.79
341.451	2.86
341.817	2.81
342.183	2.84
342.549	3.03
342.915	3.03
343.281	3.21
343.647	3.22
344.013	3.26
344.379	3.23
344.745	3.26
345.11	3.33
345.476	3.34
345.842	3.29
346.208	3.26
346.573	3.22
346.939	3.29
347.304	3.38
347.67	3.42
348.035	3.32
348.401	3.28
348.766	3.17
349.132	3.21
349.497	3.22
349.862	3.27
350.228	3.27
350.593	3.31
350.958	3.31
351.323	3.34
351.688	3.21
352.053	3.26
352.418	3.31
352.783	3.31
353.148	3.33
353.513	3.29
353.878	3.26
354.243	3.23
354.608	3.26
354.972	3.18
355.337	3.2
355.702	3.25
356.066	3.27
356.431	3.35
356.795	3.3
357.16	3.28
357.524	3.28
357.889	3.16
358.253	3.13
358.618	3.18
358.982	3.16
359.346	3.17
359.71	3.18
360.075	3.17
360.439	3.23
360.803	3.22
361.167	3.2
361.531	3.19
361.895	3.22
362.259	3.23
362.623	3.23
362.987	3.13
363.351	3.15
363.714	3.16
364.078	3.11
364.442	3.14
364.806	3.18
365.169	3.17
365.533	3.23
365.896	3.25
366.26	3.18
366.623	3.17
366.987	3.22
367.35	3.33
367.714	3.25
368.077	3.21
368.44	3.26
368.803	3.22
369.167	3.18
369.53	3.16
369.893	3.17
370.256	3.17
370.619	3.21
370.982	3.18
371.345	3.19
371.708	3.28
372.071	3.23
372.434	3.23
372.797	3.23
373.159	3.21
373.522	3.24
373.885	3.31
374.247	3.3
374.61	3.33
374.973	3.26
375.335	3.35
375.698	3.27
376.06	3.3
376.423	3.37
376.785	3.42
377.147	3.4
377.51	3.31
377.872	3.35
378.234	3.39
378.596	3.41
378.958	3.38
379.321	3.28
379.683	3.31
380.045	3.26
380.407	3.28
380.769	3.26
381.13	3.21
381.492	3.17
381.854	3.18
382.216	3.17
382.578	3.18
382.939	3.18
383.301	3.22
383.663	3.2
384.024	3.18
384.386	3.17
384.747	3.15
385.109	3.23
385.47	3.25
385.832	3.25
386.193	3.27
386.554	3.22
386.916	3.31
387.277	3.28
387.638	3.3
387.999	3.33
388.36	3.37
388.721	3.41
389.082	3.43
389.443	3.47
389.804	3.49
390.165	3.49
390.526	3.47
390.887	3.49
391.248	3.47
391.609	3.52
391.969	3.53
392.33	3.56
392.691	3.54
393.051	3.49
393.412	3.53
393.772	3.51
394.133	3.53
394.493	3.5
394.854	3.53
395.214	3.54
395.574	3.52
395.935	3.5
396.295	3.48
396.655	3.46
397.015	3.46
397.376	3.47
397.736	3.47
398.096	3.5
398.456	3.49
398.816	3.49
399.176	3.44
399.535	3.43
399.895	3.43
400.255	3.41
400.615	3.44
400.975	3.45
401.334	3.44
401.694	3.46
402.054	3.46
402.413	3.44
402.773	3.46
403.132	3.45
403.492	3.45
403.851	3.47
404.211	3.51
404.57	3.5
404.929	3.47
405.288	3.46
405.648	3.43
406.007	3.4
406.366	3.42
406.725	3.42
407.084	3.43
407.443	3.45
407.802	3.46
408.161	3.49
408.52	3.49
408.879	3.52
409.238	3.53
409.596	3.54
409.955	3.54
410.314	3.53
410.673	3.55
411.031	3.59
411.39	3.59
411.748	3.6
412.107	3.59
412.465	3.59
412.824	3.61
413.182	3.6
413.54	3.62
413.899	3.61
414.257	3.65
414.615	3.64
414.974	3.64
415.332	3.67
415.69	3.64
416.048	3.62
416.406	3.59
416.764	3.6
417.122	3.6
417.48	3.64
417.838	3.64
418.195	3.62
418.553	3.61
418.911	3.6
419.269	3.59
419.626	3.58
419.984	3.58
420.342	3.56
420.699	3.56
421.057	3.58
421.414	3.6
421.772	3.59
422.129	3.61
422.486	3.6
422.844	3.59
423.201	3.6
423.558	3.6
423.915	3.6
424.273	3.6
424.63	3.61
424.987	3.61
425.344	3.6
425.701	3.62
426.058	3.62
426.415	3.64
426.772	3.64
427.128	3.65
427.485	3.67
427.842	3.68
428.199	3.68
428.555	3.67
428.912	3.66
429.269	3.68
429.625	3.65
429.982	3.64
430.338	3.65
430.695	3.64
431.051	3.65
431.407	3.65
431.764	3.64
432.12	3.65
432.476	3.65
432.832	3.66
433.189	3.64
433.545	3.64
433.901	3.64
434.257	3.64
434.613	3.65
434.969	3.65
435.325	3.66
435.681	3.67
436.036	3.67
436.392	3.68
436.748	3.68
437.104	3.69
437.459	3.71
437.815	3.72
438.171	3.74
438.526	3.72
438.882	3.73
439.237	3.73
439.593	3.72
439.948	3.71
440.304	3.7
440.659	3.71
441.014	3.72
441.369	3.71
441.725	3.7
442.08	3.68
442.435	3.68
442.79	3.69
443.145	3.69
443.5	3.69
443.855	3.69
444.21	3.67
444.565	3.65
444.92	3.65
445.275	3.62
445.629	3.61
445.984	3.63
446.339	3.64
446.693	3.66
447.048	3.63
447.403	3.64
447.757	3.63
448.112	3.64
448.466	3.63
448.82	3.64
449.175	3.66
449.529	3.67
449.883	3.67
450.238	3.68
450.592	3.67
450.946	3.65
451.3	3.67
451.654	3.68
452.008	3.69
452.362	3.7
452.716	3.71
453.07	3.72
453.424	3.71
453.778	3.7
454.132	3.69
454.486	3.71
454.839	3.7
455.193	3.73
455.547	3.71
455.9	3.72
456.254	3.71
456.607	3.7
456.961	3.7
457.314	3.69
457.668	3.69
458.021	3.68
458.375	3.68
458.728	3.67
459.081	3.66
459.434	3.66
459.787	3.66
460.141	3.67
460.494	3.67
460.847	3.65
461.2	3.65
461.553	3.66
461.906	3.66
462.259	3.65
462.611	3.65
462.964	3.66
463.317	3.66
463.67	3.66
464.022	3.67
464.375	3.67
464.728	3.66
465.08	3.67
465.433	3.69
465.785	3.68
466.138	3.7
466.49	3.72
466.843	3.75
467.195	3.75
467.547	3.74
467.899	3.73
468.252	3.76
468.604	3.78
468.956	3.78
469.308	3.78
469.66	3.83
470.012	3.83
470.364	3.84
470.716	3.85
471.068	3.86
471.42	3.87
471.772	3.87
472.123	3.9
472.475	3.9
472.827	3.92
473.178	3.95
473.53	3.94
473.882	3.95
474.233	3.92
474.585	3.94
474.936	3.93
475.288	3.94
475.639	3.93
475.99	3.93
476.342	3.92
476.693	3.92
477.044	3.9
477.395	3.9
477.746	3.88
478.097	3.87
478.448	3.86
478.8	3.85
479.15	3.85
479.501	3.85
479.852	3.85
480.203	3.87
480.554	3.86
480.905	3.88
481.255	3.87
481.606	3.89
481.957	3.89
482.307	3.92
482.658	3.92
483.009	3.93
483.359	3.93
483.709	3.94
484.06	3.95
484.41	3.96
484.761	3.96
485.111	3.98
485.461	3.98
485.811	3.99
486.162	3.98
486.512	3.99
486.862	3.99
487.212	4
487.562	3.99
487.912	3.99
488.262	3.99
488.612	4
488.961	3.99
489.311	3.99
489.661	3.98
490.011	3.98
490.36	3.98
490.71	3.98
491.06	3.99
491.409	3.98
491.759	3.97
492.108	3.98
492.458	3.97
492.807	3.98
493.157	3.99
493.506	3.99
493.855	3.99
494.204	3.98
494.554	3.98
494.903	3.99
495.252	3.97
495.601	3.97
495.95	3.98
496.299	3.98
496.648	3.98
496.997	3.99
497.346	4
497.695	4
498.043	4.02
498.392	4.01
498.741	4.03
499.09	4.04
499.438	4.05
499.787	4.06
500.135	4.04
500.484	4.04
500.832	4.06
501.181	4.08
501.529	4.11
501.878	4.11
502.226	4.11
502.574	4.15
502.923	4.18
503.271	4.17
503.619	4.18
503.967	4.18
504.315	4.18
504.663	4.2
505.011	4.2
505.359	4.19
505.707	4.2
506.055	4.19
506.403	4.17
506.751	4.16
507.098	4.16
507.446	4.16
507.794	4.16
508.141	4.18
508.489	4.17
508.837	4.16
509.184	4.18
509.531	4.2
509.879	4.19
510.226	4.17
510.574	4.19
510.921	4.2
511.268	4.22
511.616	4.22
511.963	4.22
512.31	4.25
512.657	4.27
513.004	4.27
513.351	4.27
513.698	4.29
514.045	4.31
514.392	4.32
514.739	4.35
515.086	4.36
515.432	4.38
515.779	4.38
516.126	4.41
516.473	4.4
516.819	4.41
517.166	4.42
517.512	4.43
517.859	4.45
518.205	4.45
518.552	4.47
518.898	4.47
519.245	4.48
519.591	4.48
519.937	4.48
520.283	4.47
520.629	4.48
520.976	4.49
521.322	4.49
521.668	4.51
522.014	4.5
522.36	4.48
522.706	4.47
523.052	4.49
523.398	4.47
523.743	4.49
524.089	4.5
524.435	4.51
524.781	4.54
525.126	4.54
525.472	4.55
525.817	4.54
526.163	4.54
526.509	4.53
526.854	4.53
527.199	4.53
527.545	4.55
527.89	4.55
528.235	4.57
528.581	4.58
528.926	4.59
529.271	4.6
529.616	4.6
529.961	4.61
530.306	4.6
530.651	4.62
530.996	4.63
531.341	4.63
531.686	4.63
532.031	4.63
532.376	4.64
532.721	4.63
533.065	4.64
533.41	4.64
533.755	4.66
534.099	4.67
534.444	4.68
534.788	4.67
535.133	4.67
535.477	4.68
535.822	4.68
536.166	4.68
536.51	4.68
536.855	4.69
537.199	4.71
537.543	4.72
537.887	4.73
538.231	4.71
538.576	4.71
538.92	4.73
539.264	4.73
539.608	4.73
539.951	4.75
540.295	4.75
540.639	4.76
540.983	4.76
541.327	4.77
541.671	4.77
542.014	4.78
542.358	4.79
542.701	4.78
543.045	4.78
543.389	4.77
543.732	4.77
544.075	4.78
544.419	4.77
544.762	4.77
545.105	4.76
545.449	4.78
545.792	4.78
546.135	4.78
546.478	4.78
546.821	4.77
547.165	4.78
547.508	4.8
547.851	4.81
548.194	4.79
548.536	4.81
548.879	4.83
549.222	4.83
549.565	4.81
549.908	4.81
550.25	4.8
550.593	4.81
550.936	4.83
551.278	4.83
551.621	4.87
551.963	4.87
552.306	4.86
552.648	4.84
552.991	4.85
553.333	4.85
553.675	4.87
554.017	4.87
554.36	4.89
554.702	4.86
555.044	4.87
555.386	4.89
555.728	4.89
556.07	4.88
556.412	4.88
556.754	4.9
557.096	4.91
557.438	4.93
557.78	4.95
558.121	4.97
558.463	4.96
558.805	4.95
559.147	4.97
559.488	4.96
559.83	4.98
560.171	4.97
560.513	4.97
560.854	4.97
561.196	5.01
561.537	4.98
561.878	5
562.22	5.02
562.561	5.04
562.902	5.01
563.243	5.02
563.584	5.01
563.925	5.04
564.266	5.07
564.607	5.07
564.948	5.06
565.289	5.03
565.63	5.03
565.971	5.03
566.312	5.04
566.653	5.05
566.993	5.05
567.334	5.1
567.675	5.11
568.015	5.09
568.356	5.05
568.696	5.06
569.037	5.05
569.377	5.02
569.718	5.04
570.058	5.05
570.398	5.04
570.739	5.05
571.079	5.03
571.419	5.02
571.759	5.03
572.099	5.03
572.439	5.04
572.779	5.05
573.119	5.06
573.459	5.04
573.799	5.04
574.139	5.04
574.479	5
574.819	4.99
575.158	5.01
575.498	5
575.838	5.01
576.177	5
576.517	5.02
576.856	5
577.196	5.03
577.535	5.03
577.875	5.07
578.214	5.1
578.553	5.09
578.893	5.1
579.232	5.1
579.571	5.11
579.91	5.16
580.25	5.16
580.589	5.18
580.928	5.21
581.267	5.24
581.606	5.26
581.945	5.25
582.283	5.26
582.622	5.29
582.961	5.3
583.3	5.33
583.639	5.3
583.977	5.25
584.316	5.23
584.654	5.21
584.993	5.19
585.332	5.19
585.67	5.21
586.008	5.2
586.347	5.24
586.685	5.2
587.024	5.19
587.362	5.19
587.7	5.22
588.038	5.24
588.376	5.22
588.715	5.26
589.053	5.32
589.391	5.3
589.729	5.32
590.067	5.29
590.404	5.29
590.742	5.33
591.08	5.39
591.418	5.36
591.756	5.37
592.093	5.37
592.431	5.36
592.769	5.35
593.106	5.32
593.444	5.32
593.781	5.36
594.119	5.38
594.456	5.37
594.793	5.32
595.131	5.3
595.468	5.3
595.805	5.26
596.143	5.25
596.48	5.26
596.817	5.25
597.154	5.3
597.491	5.31
597.828	5.31
598.165	5.29
598.502	5.33
598.839	5.33
599.176	5.34
599.512	5.35
599.849	5.34
600.186	5.37
600.523	5.36
600.859	5.4
601.196	5.39
601.532	5.38
601.869	5.43
602.205	5.44
602.542	5.43
602.878	5.48
603.215	5.45
603.551	5.44
603.887	5.45
604.223	5.44
604.56	5.44
604.896	5.43
605.232	5.44
605.568	5.44
605.904	5.44
606.24	5.46
606.576	5.46
606.912	5.48
607.248	5.51
607.583	5.53
607.919	5.49
608.255	5.45
608.591	5.49
608.926	5.48
609.262	5.46
609.597	5.48
609.933	5.41
610.268	5.44
610.604	5.44
610.939	5.47
611.275	5.46
611.61	5.47
611.945	5.48
612.281	5.5
612.616	5.53
612.951	5.54
613.286	5.53
613.621	5.56
613.956	5.56
614.291	5.55
614.626	5.57
614.961	5.58
615.296	5.69
615.631	5.7
615.966	5.72
616.3	5.72
616.635	5.74
616.97	5.79
617.304	5.81
617.639	5.8
617.973	5.77
618.308	5.75
618.642	5.76
618.977	5.72
619.311	5.74
619.646	5.73
619.98	5.81
620.314	5.8
620.648	5.76
620.983	5.73
621.317	5.74
621.651	5.7
621.985	5.72
622.319	5.62
622.653	5.63
622.987	5.62
623.321	5.67
623.655	5.71
623.988	5.71
624.322	5.71
624.656	5.73
624.99	5.74
625.323	5.76
625.657	5.8
625.99	5.92
626.324	5.86
626.657	5.84
626.991	5.81
627.324	5.8
627.658	5.83
627.991	5.87
628.324	5.84
628.657	5.86
628.991	5.81
629.324	5.85
629.657	5.83
629.99	5.84
630.323	5.82
630.656	5.8
630.989	5.85
631.322	5.84
631.655	5.86
631.987	5.89
632.32	5.87
632.653	5.84
632.986	5.75
633.318	5.8
633.651	5.84
633.984	5.88
634.316	5.91
634.649	5.91
634.981	5.91
635.313	5.89
635.646	5.91
635.978	5.99
636.31	5.98
636.643	6
636.975	6.02
637.307	6.06
637.639	6.05
637.971	6.05
638.303	6.02
638.635	6.02
638.967	6.01
639.299	6.07
639.631	6.07
639.963	6.1
640.295	6.1
640.626	6.08
640.958	5.98
641.29	6.02
641.621	5.95
641.953	5.9
642.285	5.99
642.616	6.04
642.948	6.04
643.279	6.05
643.61	6.08
643.942	6.08
644.273	6.07
644.604	6.02
644.936	6.02
645.267	6.09
645.598	6.12
645.929	6.07
646.26	6.05
646.591	6.12
646.922	6.09
647.253	6.13
647.584	6.14
647.915	6.22
648.245	6.17
648.576	6.21
648.907	6.25
649.238	6.21
649.568	6.14
649.899	6.1
650.229	6.17
650.56	6.13
650.89	6.15
651.221	6.12
651.551	6.12
651.882	6.17
652.212	6.13
652.542	6.14
652.872	6.19
653.203	6.24
653.533	6.24
653.863	6.24
654.193	6.15
654.523	6.11
654.853	6.13
655.183	6.2
655.513	6.26
655.843	6.29
656.172	6.32
656.502	6.37
656.832	6.34
657.162	6.29
657.491	6.3
657.821	6.31
658.15	6.38
658.48	6.49
658.809	6.39
659.139	6.44
659.468	6.45
659.798	6.46
660.127	6.43
660.456	6.32
660.785	6.39
661.115	6.53
661.444	6.57
661.773	6.53
662.102	6.46
662.431	6.37
662.76	6.36
663.089	6.39
663.418	6.38
663.747	6.4
664.076	6.44
664.404	6.44
664.733	6.41
665.062	6.33
665.39	6.26
665.719	6.42
666.048	6.34
666.376	6.28
666.705	6.37
667.033	6.37
667.362	6.41
667.69	6.3
668.018	6.28
668.347	6.29
668.675	6.34
669.003	6.35
669.331	6.4
669.659	6.39
669.987	6.43
670.315	6.52
670.643	6.47
670.971	6.42
671.299	6.39
671.627	6.46
671.955	6.43
672.283	6.36
672.61	6.24
672.938	6.27
673.266	6.38
673.593	6.28
673.921	6.28
674.249	6.36
674.576	6.39
674.904	6.33
675.231	6.32
675.558	6.3
675.886	6.35
676.213	6.39
676.54	6.36
676.867	6.26
677.195	6.25
677.522	6.37
677.849	6.46
678.176	6.44
678.503	6.35
678.83	6.42
679.157	6.45
679.484	6.52
679.81	6.57
680.137	6.55
680.464	6.53
680.791	6.49
681.117	6.46
681.444	6.45
681.771	6.43
682.097	6.5
682.424	6.47
682.75	6.48
683.077	6.53
683.403	6.56
683.729	6.56
684.056	6.48
684.382	6.47
684.708	6.43
685.034	6.53
685.36	6.54
685.686	6.51
686.012	6.63
686.339	6.53
686.664	6.51
686.99	6.46
687.316	6.52
687.642	6.61
687.968	6.69
688.294	6.8
688.619	6.94
688.945	6.92
689.271	7.02
689.596	7.11
689.922	7.14
690.247	7.17
690.573	7.32
690.898	7.4
691.224	7.39
691.549	7.44
691.874	7.45
692.2	7.47
692.525	7.46
692.85	7.43
693.175	7.57
693.5	7.48
693.825	7.55
694.15	7.48
694.475	7.44
694.8	7.32
695.125	7.37
695.45	7.25
695.775	7.26
696.099	7.24
696.424	7.16
696.749	7.12
697.073	7.13
697.398	7.05
697.723	7.05
698.047	7.13
698.372	7.14
698.696	7.07
699.02	7.09
699.345	7.17
699.669	7.13
699.993	7.09
700.318	7.31
700.642	7.32
700.966	7.26
701.29	7.26
701.614	7.28
701.938	7.2
702.262	7.19
702.586	7.16
702.91	7.19
703.234	7.14
703.557	7.1
703.881	7.04
704.205	7.09
704.529	7.12
704.852	7.01
705.176	7.01
705.499	7.17
705.823	7.09
706.146	7
706.47	7.01
706.793	7.01
707.117	6.85
707.44	6.81
707.763	7
708.086	6.98
708.409	7.02
708.733	7.01
709.056	7.06
709.379	7.13
709.702	7.05
710.025	7.17
710.348	7.12
710.671	7.15
710.993	7.19
711.316	7.19
711.639	7.21
711.962	7.06
712.284	7.07
712.607	7.36
712.93	7.43
713.252	7.44
713.575	7.48
713.897	7.43
714.22	7.35
714.542	7.38
714.864	7.41
715.187	7.39
715.509	7.42
715.831	7.58
716.153	7.5
716.475	7.53
716.798	7.44
717.12	7.56
717.442	7.53
717.764	7.41
718.085	7.38
718.407	7.32
718.729	7.31
719.051	7.29
719.373	7.11
719.695	7.08
720.016	7.07
720.338	7.1
720.659	7.24
720.981	7.44
721.302	7.51
721.624	7.66
721.945	7.63
722.267	7.72
722.588	7.5
722.909	7.56
723.231	7.67
723.552	7.71
723.873	7.71
724.194	7.88
724.515	7.93
724.836	7.76
725.157	7.94
725.478	8.11
725.799	8.07
726.12	7.94
726.441	7.89
726.762	7.95
727.083	7.99
727.403	7.87
727.724	7.79
728.045	7.68
728.365	7.46
728.686	7.56
729.006	7.47
729.327	7.63
729.647	7.76
729.967	7.6
730.288	7.7
730.608	7.69
730.928	7.78
731.249	7.88
731.569	8.02
731.889	7.95
732.209	8.02
732.529	8.02
732.849	8.15
733.169	8.2
733.489	8
733.809	7.91
734.129	8.02
734.448	8.06
734.768	8.17
735.088	8.31
735.408	8.37
735.727	8.4
736.047	8.41
736.366	8.18
736.686	8.32
737.005	8.31
737.325	8.45
737.644	8.41
737.963	8.31
738.283	8.25
738.602	8.47
738.921	8.41
739.24	8.44
739.56	8.41
739.879	8.25
740.198	8.43
740.517	8.52
740.836	8.57
741.155	8.58
741.473	8.5
741.792	8.44
742.111	8.39
742.43	8.41
742.748	8.37
743.067	8.56
743.386	8.56
743.704	8.57
744.023	8.32
744.341	8.35
744.66	8.22
744.978	8.36
745.297	8.08
745.615	7.96
745.933	7.98
746.252	8.08
746.57	8.21
746.888	8.42
747.206	8.23
747.524	8.06
747.842	7.93
748.16	7.99
748.478	8.09
748.796	8.11
749.114	8.33
749.432	8.19
749.749	8.04
750.067	7.93
750.385	8
750.703	8.08
751.02	8.03
751.338	8.2
751.655	8.17
751.973	8.15
752.29	8.28
752.608	8.26
752.925	8.29
753.242	8.24
753.56	7.92
753.877	8.2
754.194	8.37
754.511	8.54
754.828	8.34
755.145	8.27
755.462	8.48
755.779	8.3
756.096	8.41
756.413	8.65
756.73	8.91
757.047	8.74
757.364	8.85
757.68	9.01
757.997	9.13
758.314	9.14
758.63	9.3
758.947	9.37
759.264	9.48
759.58	9.47
759.896	9.54
760.213	9.66
760.529	9.57
760.846	9.65
761.162	9.34
761.478	9.61
761.794	9.98
762.11	10.06
762.426	10.14
762.743	10.16
763.059	10.08
763.375	9.94
763.69	9.88
764.006	9.87
764.322	9.84
764.638	9.88
764.954	9.87
765.27	9.94
765.585	9.91
765.901	9.75
766.216	9.58
766.532	9.6
766.848	9.63
767.163	9.71
767.478	9.75
767.794	10.08
768.109	9.97
768.424	9.7
768.74	9.44
769.055	9.51
769.37	9.56
769.685	9.63
770	9.59
770.315	9.82
770.63	9.91
770.945	10.08
771.26	9.92
771.575	10.37
771.89	10.31
772.205	10.29
772.52	10.53
772.834	10.94
773.149	11.12
773.464	11.17
773.778	10.98
774.093	10.91
774.407	10.91
774.722	10.83
775.036	10.75
775.351	10.9
775.665	10.68
775.979	10.61
776.293	10.51
776.608	10.67
776.922	10.28
777.236	9.76
777.55	9.17
777.864	9.29
778.178	8.97
778.492	9.12
778.806	9.28
779.12	9.25
779.434	8.98
779.747	9.07
780.061	9.72
780.375	9.73
780.689	9.6
781.002	9.23
781.316	9.5
781.629	9.74
781.943	10.02
782.256	10.29
782.57	10.22
782.883	10.42
783.196	10.32
783.51	10.92
783.823	11.74
784.136	12
784.449	12.2
784.762	12.14
785.075	12.21
785.388	12.44
785.701	12.53
786.014	12.93
786.327	13
786.64	12.39
786.953	12.22
787.266	12.25
787.578	12.81
787.891	12.74
788.204	12.55
788.516	12.32
788.829	12.27
789.141	12.23
789.454	12.13
789.766	12.37
790.079	12.2
790.391	11.78
790.703	11.59
791.016	11.4
791.328	11.37
791.64	11.42
791.952	10.82
792.264	10.18
792.576	9.76
792.888	9.5
793.2	9.24
793.512	9.31
793.824	9.33
794.136	9.16
794.448	9.18
794.76	9.23
795.071	9.14
795.383	9.05
795.695	9.35
796.006	9.28
796.318	9.26
796.629	9.25
796.941	9.24
797.252	8.81
797.564	9.09
797.875	9
798.186	8.8
798.497	9.64
798.809	10.44
799.12	10.46
799.431	10.55
799.742	11.06
800.053	11.27
800.364	11.4
800.675	10.82
800.986	10.7
801.297	10.55
801.608	10.54
801.918	10.56
802.229	10.62
802.54	10.91
802.851	10.49
803.161	10.36
803.472	10.59
803.782	11.53
804.093	11.34
804.403	12.05
804.714	11.78
805.024	11.43
805.334	11.38
805.645	11.65
805.955	11.67
806.265	11.51
806.575	11.54
806.885	11.29
807.195	12.3
807.505	12.91
807.815	13.05
808.125	13.1
808.435	13.41
808.745	13.19
809.055	13.22
809.365	13.57
809.674	14.46
809.984	14.86
810.294	14.61
810.603	14.08
810.913	12.78
811.222	12.37
811.532	12.44
811.841	12.67
812.151	12.85
812.46	12.82
812.769	12.98
813.079	12.83
813.388	12.85
813.697	12.02
814.006	11.65
814.315	11.69
814.624	12.11
814.933	12
815.242	11.68
815.551	11.61
815.86	11.27
816.169	11.15
816.478	10.83
816.786	10.74
817.095	10.98
817.404	12.15
817.712	13.19
818.021	13.18
818.33	12.79
818.638	12.48
818.947	12.29
819.255	12.22
819.563	12.68
819.872	12.88
820.18	13.36
820.488	13.35
820.796	13.4
821.105	13.26
821.413	13.21
821.721	13.26
822.029	13.16
822.337	13.33
822.645	13.17
822.953	13.26
823.26	13.38
823.568	13.52
823.876	13.45
824.184	13.31
824.491	13.24
824.799	13.22
825.107	13.29
825.414	13.38
825.722	13.4
826.029	13.47
826.337	13.49
826.644	13.5
826.951	13.48
827.259	13.53
827.566	13.59
827.873	13.59
828.18	13.7
828.488	14
828.795	14.08
829.102	14.17
829.409	14.16
829.716	14.03
830.023	13.94
830.329	14.12
830.636	14.21
830.943	14.28
831.25	14.5
831.557	14.21
831.863	13.98
832.17	13.98
832.476	13.54
832.783	13.39
833.089	12.71
833.396	12.49
833.702	12.08
834.009	12.25
834.315	12.03
834.621	11.89
834.928	11.43
835.234	11.04
835.54	10.62
835.846	10.58
836.152	10.38
836.458	10.48
836.764	10.19
837.07	10.17
837.376	9.86
837.682	9.28
837.988	9.84
838.293	10.2
838.599	10.1
838.905	10.19
839.211	10.01
839.516	10.62
839.822	10.74
840.127	10.69
840.433	10.18
840.738	10.79
841.044	10.6
841.349	10.2
841.654	9.65
841.959	11.12
842.265	10.64
842.57	11.57
842.875	12.13
843.18	12.42
843.485	11.91
843.79	11.87
844.095	12.86
844.4	12.42
844.705	12.24
845.01	12.06
845.315	11.83
845.619	12.75
845.924	12.82
846.229	12.97
846.533	13.23
846.838	14.25
847.142	12.74
847.447	12.95
847.751	14.32
848.056	15.19
848.36	14.85
848.664	14.82
848.969	14.61
849.273	12.84
849.577	12.87
849.881	13.04
850.185	11.66
850.489	11.6
850.794	11.2
851.097	11.01
851.401	11.2
851.705	10.94
852.009	9.22
852.313	7.38
852.617	6.68
852.92	8.07
853.224	7.36
853.528	7.63
853.831	8.27
854.135	6.64
854.438	6.55
854.742	5.78
855.045	5.26
855.349	5.15
855.652	5.68
855.955	4.04
856.259	3.88
856.562	5.23
856.865	5.33
857.168	6.61
857.471	7.17
857.774	6.9
858.077	6.12
858.38	6.78
858.683	8.61
858.986	9.57
859.289	9.84
859.592	8.72
859.894	10.38
860.197	10.54
860.5	12.2
860.802	13.27
861.105	11.4
861.407	12.67
861.71	10.95
862.012	11.47
862.315	12.8
862.617	12.79
862.919	14.01
863.222	14.03
863.524	13.14
863.826	11.68
864.128	12.18
864.43	15.54
864.732	16
865.034	15.77
865.336	14.24
865.638	11.3
865.94	12.29
866.242	10.09
866.544	9.55
866.846	10.18
867.147	12.74
867.449	14.35
867.751	14.33
868.052	16.79
868.354	16.85
868.655	15.68
868.957	15.7
869.258	15.56
869.56	14.78
869.861	14.45
870.162	14.05
870.463	14.17
870.765	12.79
871.066	11.39
871.367	10.48
871.668	11.83
871.969	11.75
872.27	10.26
872.571	12.13
872.872	12.24
873.173	8.99
873.473	4.88
873.774	4.99
874.075	6.32
874.376	4.68
874.676	3.81
874.977	6.14
875.277	8.51
875.578	9.53
875.878	9.84
876.179	9.9
876.479	11.65
876.78	11.09
877.08	9.67
877.38	11.05
877.68	11.68
877.981	11.54
878.281	14.51
878.581	16.9
