Data from MVZ_BU78245_Reflection_00011.txt Node
Date: Tue Nov 19 12:01:19 EST 2019
User: vgr7
Spectrometer: USB2G7710
Scans to average: 3
Trigger mode: 4
Integration Time (sec): 2.000000E-2
Electric dark correction enabled: true
Boxcar width: 10
XAxis mode: Wavelengths
Number of Pixels in Spectrum: 2048
>>>>>Begin Spectral Data<<<<<
177.721	372.73
178.105	44.44
178.488	-137.8
178.871	-1100
179.254	100
179.636	29.91
180.019	-69.17
180.402	-50
180.785	34.37
181.168	87.7
181.55	242.86
181.933	-150
182.316	-66.67
182.698	211.11
183.081	47.92
183.463	80.52
183.846	34.21
184.228	-17.65
184.611	23.86
184.993	37.5
185.376	60.94
185.758	74.36
186.14	54.55
186.522	140.7
186.904	112.5
187.287	110.07
187.669	51.52
188.051	26.34
188.433	41.34
188.815	53.42
189.197	31.92
189.579	33.48
189.961	39.91
190.342	28.28
190.724	36.4
191.106	42.23
191.488	38.73
191.869	42.31
192.251	63.56
192.633	61.21
193.014	68.49
193.396	60.06
193.777	57.67
194.159	48.91
194.54	55.47
194.922	52.51
195.303	39.51
195.684	51.7
196.065	52.45
196.447	46.02
196.828	48.51
197.209	51.57
197.59	49.28
197.971	55.33
198.352	59.37
198.733	44.32
199.114	30.56
199.495	31.68
199.876	36.95
200.257	41.18
200.638	38.85
201.018	21.76
201.399	17.09
201.78	24.81
202.16	39.13
202.541	13.1
202.922	2.37
203.302	4.76
203.683	6.67
204.063	11.27
204.444	4.69
204.824	-11.59
205.204	-10.41
205.585	-17.55
205.965	-16.49
206.345	-20.23
206.725	-6.64
207.106	-0.36
207.486	-9.09
207.866	-21.02
208.246	-17.19
208.626	-23.23
209.006	-11.86
209.386	-17.25
209.766	-45.28
210.145	-34.67
210.525	-15.38
210.905	-6.06
211.285	-4.62
211.664	6.41
212.044	1.48
212.424	6.33
212.803	12.63
213.183	3.03
213.562	23.81
213.942	26.83
214.321	27.85
214.701	37.09
215.08	37.96
215.459	71.53
215.838	95.07
216.218	100
216.597	92.82
216.976	93.63
217.355	85.63
217.734	71.65
218.113	55.8
218.492	51.92
218.871	66.67
219.25	83.52
219.629	90.26
220.008	91.12
220.387	82.22
220.766	79.76
221.144	70.22
221.523	43.15
221.902	31.55
222.28	23.86
222.659	17.41
223.037	17.4
223.416	9.37
223.794	18.69
224.173	17.11
224.551	10.97
224.929	16.04
225.308	24.51
225.686	25.35
226.064	20.45
226.442	25.51
226.821	23.81
227.199	20.25
227.577	12.91
227.955	10.93
228.333	9.38
228.711	11.25
229.089	11.44
229.467	14.14
229.845	13.96
230.222	17.06
230.6	17.46
230.978	19.31
231.356	15.37
231.733	17.31
232.111	18.9
232.488	20.19
232.866	18.91
233.243	16.51
233.621	17.57
233.998	20
234.376	15.83
234.753	14.56
235.13	13.6
235.508	14.64
235.885	14.78
236.262	14.41
236.639	12.08
237.016	11.24
237.393	9.81
237.77	8.51
238.147	6.64
238.524	6.64
238.901	4.96
239.278	5.03
239.655	3.51
240.032	3.02
240.409	3.3
240.785	2.8
241.162	3.09
241.539	2.45
241.915	1.89
242.292	2.02
242.668	2.35
243.045	2.61
243.421	3
243.798	3.26
244.174	3.53
244.551	3.69
244.927	3.83
245.303	3.76
245.679	3.93
246.056	4.11
246.432	4.09
246.808	4.46
247.184	4.59
247.56	4.48
247.936	4.3
248.312	3.98
248.688	4.24
249.064	4.09
249.44	3.93
249.815	3.94
250.191	4.08
250.567	4.12
250.943	4
251.318	3.81
251.694	3.87
252.069	3.89
252.445	3.74
252.82	3.94
253.196	4.13
253.571	4.42
253.947	4.18
254.322	4.21
254.697	4.08
255.073	4.07
255.448	4.43
255.823	4.87
256.198	4.96
256.573	4.83
256.948	4.81
257.323	5.14
257.698	5.09
258.073	5
258.448	4.8
258.823	4.6
259.198	4.86
259.573	4.58
259.948	4.62
260.322	4.49
260.697	4.29
261.072	4.18
261.446	3.87
261.821	3.81
262.195	3.71
262.57	3.87
262.944	3.78
263.319	3.76
263.693	3.59
264.067	3.77
264.442	3.78
264.816	3.85
265.19	3.59
265.564	3.49
265.938	3.48
266.313	3.24
266.687	3.4
267.061	3.16
267.435	3.37
267.809	3.04
268.183	3.4
268.556	3.35
268.93	3.57
269.304	3.72
269.678	3.85
270.051	3.91
270.425	3.64
270.799	3.54
271.172	3.41
271.546	3.51
271.919	3.32
272.293	3.51
272.666	3.56
273.04	3.72
273.413	3.83
273.787	3.73
274.16	3.89
274.533	4.04
274.906	4.14
275.279	4.14
275.653	4.41
276.026	4.41
276.399	4.59
276.772	4.69
277.145	4.68
277.518	4.64
277.891	4.75
278.263	4.81
278.636	5.1
279.009	5.07
279.382	5.02
279.755	5.15
280.127	4.83
280.5	4.78
280.872	4.66
281.245	4.71
281.617	4.87
281.99	4.93
282.362	4.8
282.735	4.71
283.107	4.67
283.479	4.7
283.852	4.57
284.224	4.46
284.596	4.35
284.968	4.32
285.34	4.32
285.713	4.16
286.085	4.17
286.457	4.23
286.829	4.32
287.201	4.23
287.572	4.32
287.944	4.52
288.316	4.49
288.688	4.68
289.06	4.73
289.431	4.87
289.803	4.88
290.175	5.08
290.546	5.06
290.918	5
291.289	4.96
291.661	5.02
292.032	4.97
292.403	4.95
292.775	5.1
293.146	5.13
293.517	5.24
293.889	5.27
294.26	5.09
294.631	5.32
295.002	5.38
295.373	5.38
295.744	5.28
296.115	5.28
296.486	5.31
296.857	5.41
297.228	5.41
297.599	5.4
297.97	5.53
298.34	5.6
298.711	5.62
299.082	5.63
299.452	5.66
299.823	5.78
300.194	5.91
300.564	5.85
300.935	5.95
301.305	5.97
301.676	6.05
302.046	6.08
302.416	5.95
302.787	6.1
303.157	6.07
303.527	6.2
303.897	6.38
304.267	6.22
304.637	6.17
305.008	6.08
305.378	6.09
305.748	5.75
306.117	5.72
306.487	5.91
306.857	5.88
307.227	5.98
307.597	5.97
307.967	5.86
308.336	5.85
308.706	5.77
309.076	5.93
309.445	6.05
309.815	6.12
310.184	6.03
310.554	5.95
310.923	5.93
311.293	5.95
311.662	5.89
312.031	6.01
312.401	6.07
312.77	5.95
313.139	6.16
313.508	6.31
313.877	6.49
314.246	6.37
314.616	6.41
314.985	6.44
315.353	6.48
315.722	6.65
316.091	6.89
316.46	7
316.829	6.81
317.198	6.72
317.567	6.92
317.935	7
318.304	7.25
318.672	7.43
319.041	7.42
319.41	7.29
319.778	7.24
320.147	7.34
320.515	7.3
320.883	7.18
321.252	7.28
321.62	7.26
321.988	7.37
322.357	7.58
322.725	7.39
323.093	7.48
323.461	7.56
323.829	7.5
324.197	7.54
324.565	7.72
324.933	7.68
325.301	7.5
325.669	7.79
326.037	7.64
326.405	7.5
326.772	7.64
327.14	7.62
327.508	7.69
327.875	7.53
328.243	7.81
328.61	7.85
328.978	7.88
329.346	7.81
329.713	7.83
330.08	7.73
330.448	7.93
330.815	7.77
331.182	7.66
331.55	7.53
331.917	7.52
332.284	7.48
332.651	7.63
333.018	7.66
333.385	7.56
333.752	7.64
334.119	7.7
334.486	7.69
334.853	7.76
335.22	7.71
335.587	7.62
335.954	7.61
336.32	7.69
336.687	7.67
337.054	7.88
337.42	7.96
337.787	7.99
338.153	8.12
338.52	8.3
338.886	8.37
339.253	8.4
339.619	8.33
339.986	8.34
340.352	8.28
340.718	8.45
341.084	8.43
341.451	8.43
341.817	8.46
342.183	8.31
342.549	8.43
342.915	8.6
343.281	8.66
343.647	8.65
344.013	8.64
344.379	8.64
344.745	8.48
345.11	8.38
345.476	8.45
345.842	8.38
346.208	8.37
346.573	8.31
346.939	8.46
347.304	8.58
347.67	8.58
348.035	8.6
348.401	8.58
348.766	8.43
349.132	8.49
349.497	8.52
349.862	8.64
350.228	8.67
350.593	8.7
350.958	8.87
351.323	8.93
351.688	8.89
352.053	8.91
352.418	8.95
352.783	8.97
353.148	8.96
353.513	8.84
353.878	8.78
354.243	8.74
354.608	8.72
354.972	8.74
355.337	8.78
355.702	8.77
356.066	8.71
356.431	8.86
356.795	8.88
357.16	8.8
357.524	8.8
357.889	8.74
358.253	8.61
358.618	8.54
358.982	8.51
359.346	8.52
359.71	8.51
360.075	8.53
360.439	8.59
360.803	8.52
361.167	8.49
361.531	8.53
361.895	8.46
362.259	8.4
362.623	8.3
362.987	8.28
363.351	8.22
363.714	8.25
364.078	8.23
364.442	8.1
364.806	8.15
365.169	8.07
365.533	8.1
365.896	8.14
366.26	8.07
366.623	8.04
366.987	8
367.35	7.89
367.714	7.85
368.077	7.78
368.44	7.8
368.803	7.79
369.167	7.73
369.53	7.84
369.893	7.82
370.256	7.82
370.619	7.7
370.982	7.71
371.345	7.65
371.708	7.54
372.071	7.49
372.434	7.3
372.797	7.27
373.159	7.22
373.522	7.17
373.885	7.11
374.247	7.07
374.61	7.02
374.973	7
375.335	7
375.698	6.92
376.06	6.92
376.423	6.9
376.785	6.86
377.147	6.8
377.51	6.8
377.872	6.79
378.234	6.8
378.596	6.74
378.958	6.68
379.321	6.7
379.683	6.74
380.045	6.72
380.407	6.68
380.769	6.64
381.13	6.51
381.492	6.55
381.854	6.49
382.216	6.45
382.578	6.44
382.939	6.33
383.301	6.29
383.663	6.23
384.024	6.24
384.386	6.23
384.747	6.22
385.109	6.12
385.47	6.06
385.832	6.1
386.193	6.1
386.554	6.01
386.916	5.98
387.277	5.93
387.638	5.98
387.999	5.98
388.36	5.88
388.721	5.92
389.082	5.88
389.443	5.86
389.804	5.85
390.165	5.84
390.526	5.82
390.887	5.8
391.248	5.76
391.609	5.71
391.969	5.65
392.33	5.61
392.691	5.54
393.051	5.53
393.412	5.45
393.772	5.42
394.133	5.41
394.493	5.28
394.854	5.23
395.214	5.23
395.574	5.21
395.935	5.22
396.295	5.16
396.655	5.1
397.015	5.09
397.376	5.05
397.736	4.96
398.096	4.9
398.456	4.83
398.816	4.8
399.176	4.73
399.535	4.69
399.895	4.64
400.255	4.66
400.615	4.6
400.975	4.59
401.334	4.53
401.694	4.55
402.054	4.6
402.413	4.6
402.773	4.52
403.132	4.49
403.492	4.48
403.851	4.45
404.211	4.46
404.57	4.43
404.929	4.42
405.288	4.44
405.648	4.44
406.007	4.46
406.366	4.45
406.725	4.45
407.084	4.43
407.443	4.42
407.802	4.39
408.161	4.41
408.52	4.41
408.879	4.4
409.238	4.37
409.596	4.36
409.955	4.35
410.314	4.37
410.673	4.34
411.031	4.29
411.39	4.31
411.748	4.3
412.107	4.27
412.465	4.26
412.824	4.24
413.182	4.24
413.54	4.25
413.899	4.23
414.257	4.22
414.615	4.2
414.974	4.19
415.332	4.18
415.69	4.15
416.048	4.14
416.406	4.11
416.764	4.08
417.122	4.05
417.48	4.01
417.838	3.96
418.195	3.95
418.553	3.93
418.911	3.92
419.269	3.88
419.626	3.88
419.984	3.87
420.342	3.87
420.699	3.83
421.057	3.79
421.414	3.78
421.772	3.76
422.129	3.77
422.486	3.75
422.844	3.74
423.201	3.72
423.558	3.68
423.915	3.68
424.273	3.68
424.63	3.68
424.987	3.67
425.344	3.67
425.701	3.66
426.058	3.65
426.415	3.62
426.772	3.61
427.128	3.61
427.485	3.56
427.842	3.53
428.199	3.55
428.555	3.57
428.912	3.55
429.269	3.54
429.625	3.51
429.982	3.54
430.338	3.52
430.695	3.51
431.051	3.52
431.407	3.51
431.764	3.5
432.12	3.51
432.476	3.54
432.832	3.55
433.189	3.56
433.545	3.56
433.901	3.55
434.257	3.56
434.613	3.55
434.969	3.59
435.325	3.61
435.681	3.61
436.036	3.6
436.392	3.6
436.748	3.62
437.104	3.63
437.459	3.6
437.815	3.61
438.171	3.63
438.526	3.63
438.882	3.64
439.237	3.64
439.593	3.64
439.948	3.61
440.304	3.6
440.659	3.6
441.014	3.61
441.369	3.6
441.725	3.61
442.08	3.6
442.435	3.56
442.79	3.54
443.145	3.51
443.5	3.51
443.855	3.51
444.21	3.49
444.565	3.49
444.92	3.47
445.275	3.46
445.629	3.44
445.984	3.43
446.339	3.42
446.693	3.4
447.048	3.38
447.403	3.4
447.757	3.39
448.112	3.39
448.466	3.37
448.82	3.38
449.175	3.37
449.529	3.39
449.883	3.39
450.238	3.39
450.592	3.39
450.946	3.37
451.3	3.37
451.654	3.37
452.008	3.37
452.362	3.37
452.716	3.38
453.07	3.37
453.424	3.36
453.778	3.34
454.132	3.35
454.486	3.34
454.839	3.33
455.193	3.33
455.547	3.33
455.9	3.36
456.254	3.36
456.607	3.38
456.961	3.36
457.314	3.39
457.668	3.41
458.021	3.41
458.375	3.41
458.728	3.42
459.081	3.4
459.434	3.4
459.787	3.41
460.141	3.44
460.494	3.45
460.847	3.48
461.2	3.49
461.553	3.51
461.906	3.52
462.259	3.51
462.611	3.52
462.964	3.51
463.317	3.49
463.67	3.5
464.022	3.5
464.375	3.51
464.728	3.5
465.08	3.49
465.433	3.5
465.785	3.51
466.138	3.48
466.49	3.51
466.843	3.53
467.195	3.54
467.547	3.54
467.899	3.55
468.252	3.56
468.604	3.59
468.956	3.6
469.308	3.61
469.66	3.63
470.012	3.65
470.364	3.67
470.716	3.69
471.068	3.68
471.42	3.68
471.772	3.7
472.123	3.71
472.475	3.71
472.827	3.74
473.178	3.76
473.53	3.78
473.882	3.77
474.233	3.76
474.585	3.78
474.936	3.75
475.288	3.77
475.639	3.77
475.99	3.74
476.342	3.73
476.693	3.73
477.044	3.73
477.395	3.72
477.746	3.7
478.097	3.69
478.448	3.7
478.8	3.67
479.15	3.65
479.501	3.63
479.852	3.62
480.203	3.62
480.554	3.61
480.905	3.6
481.255	3.61
481.606	3.62
481.957	3.59
482.307	3.6
482.658	3.59
483.009	3.57
483.359	3.58
483.709	3.58
484.06	3.59
484.41	3.59
484.761	3.6
485.111	3.6
485.461	3.6
485.811	3.59
486.162	3.6
486.512	3.6
486.862	3.6
487.212	3.6
487.562	3.59
487.912	3.6
488.262	3.6
488.612	3.6
488.961	3.6
489.311	3.61
489.661	3.61
490.011	3.61
490.36	3.62
490.71	3.62
491.06	3.61
491.409	3.62
491.759	3.61
492.108	3.61
492.458	3.61
492.807	3.61
493.157	3.63
493.506	3.65
493.855	3.68
494.204	3.71
494.554	3.72
494.903	3.74
495.252	3.76
495.601	3.79
495.95	3.82
496.299	3.85
496.648	3.88
496.997	3.93
497.346	3.97
497.695	3.99
498.043	4.05
498.392	4.09
498.741	4.11
499.09	4.15
499.438	4.2
499.787	4.25
500.135	4.3
500.484	4.34
500.832	4.36
501.181	4.43
501.529	4.5
501.878	4.56
502.226	4.6
502.574	4.66
502.923	4.71
503.271	4.77
503.619	4.82
503.967	4.88
504.315	4.92
504.663	4.97
505.011	5.07
505.359	5.11
505.707	5.17
506.055	5.25
506.403	5.32
506.751	5.41
507.098	5.49
507.446	5.58
507.794	5.65
508.141	5.74
508.489	5.83
508.837	5.92
509.184	6.01
509.531	6.11
509.879	6.22
510.226	6.31
510.574	6.42
510.921	6.52
511.268	6.63
511.616	6.72
511.963	6.85
512.31	6.94
512.657	7.06
513.004	7.19
513.351	7.33
513.698	7.46
514.045	7.57
514.392	7.69
514.739	7.82
515.086	7.95
515.432	8.07
515.779	8.19
516.126	8.29
516.473	8.41
516.819	8.51
517.166	8.59
517.512	8.69
517.859	8.78
518.205	8.88
518.552	8.99
518.898	9.09
519.245	9.2
519.591	9.29
519.937	9.39
520.283	9.5
520.629	9.6
520.976	9.71
521.322	9.83
521.668	9.96
522.014	10.12
522.36	10.24
522.706	10.39
523.052	10.57
523.398	10.73
523.743	10.89
524.089	11.06
524.435	11.24
524.781	11.38
525.126	11.51
525.472	11.67
525.817	11.79
526.163	11.93
526.509	12.02
526.854	12.13
527.199	12.23
527.545	12.32
527.89	12.41
528.235	12.52
528.581	12.63
528.926	12.75
529.271	12.84
529.616	12.95
529.961	13.05
530.306	13.14
530.651	13.25
530.996	13.39
531.341	13.53
531.686	13.66
532.031	13.81
532.376	13.95
532.721	14.07
533.065	14.22
533.41	14.36
533.755	14.52
534.099	14.67
534.444	14.84
534.788	15.02
535.133	15.18
535.477	15.35
535.822	15.5
536.166	15.67
536.51	15.89
536.855	16.1
537.199	16.35
537.543	16.57
537.887	16.81
538.231	17.01
538.576	17.23
538.92	17.45
539.264	17.67
539.608	17.9
539.951	18.13
540.295	18.31
540.639	18.49
540.983	18.69
541.327	18.89
541.671	19.07
542.014	19.23
542.358	19.41
542.701	19.59
543.045	19.78
543.389	19.96
543.732	20.13
544.075	20.32
544.419	20.51
544.762	20.72
545.105	20.94
545.449	21.14
545.792	21.36
546.135	21.61
546.478	21.82
546.821	22.07
547.165	22.35
547.508	22.61
547.851	22.91
548.194	23.14
548.536	23.41
548.879	23.67
549.222	23.94
549.565	24.23
549.908	24.48
550.25	24.75
550.593	25.01
550.936	25.26
551.278	25.56
551.621	25.81
551.963	26.07
552.306	26.31
552.648	26.65
552.991	26.94
553.333	27.2
553.675	27.49
554.017	27.68
554.36	27.89
554.702	28.07
555.044	28.24
555.386	28.47
555.728	28.69
556.07	28.9
556.412	29.16
556.754	29.34
557.096	29.63
557.438	29.87
557.78	30.12
558.121	30.32
558.463	30.51
558.805	30.76
559.147	30.95
559.488	31.15
559.83	31.3
560.171	31.47
560.513	31.64
560.854	31.85
561.196	32.1
561.537	32.27
561.878	32.59
562.22	32.77
562.561	32.96
562.902	33.16
563.243	33.35
563.584	33.54
563.925	33.74
564.266	33.93
564.607	34.11
564.948	34.26
565.289	34.44
565.63	34.57
565.971	34.72
566.312	34.84
566.653	35.01
566.993	35.18
567.334	35.34
567.675	35.49
568.015	35.59
568.356	35.69
568.696	35.85
569.037	35.95
569.377	36.15
569.718	36.25
570.058	36.34
570.398	36.51
570.739	36.66
571.079	36.78
571.419	36.86
571.759	36.97
572.099	37.06
572.439	37.17
572.779	37.32
573.119	37.42
573.459	37.59
573.799	37.64
574.139	37.71
574.479	37.84
574.819	37.92
575.158	38.05
575.498	38.21
575.838	38.26
576.177	38.38
576.517	38.45
576.856	38.64
577.196	38.82
577.535	38.88
577.875	38.89
578.214	38.98
578.553	39.08
578.893	39.22
579.232	39.32
579.571	39.5
579.91	39.55
580.25	39.67
580.589	39.69
580.928	39.78
581.267	39.93
581.606	39.99
581.945	40.09
582.283	40.18
582.622	40.21
582.961	40.22
583.3	40.22
583.639	40.3
583.977	40.28
584.316	40.24
584.654	40.34
584.993	40.44
585.332	40.61
585.67	40.73
586.008	40.78
586.347	40.88
586.685	40.83
587.024	40.93
587.362	41.03
587.7	41.14
588.038	41.24
588.376	41.32
588.715	41.4
589.053	41.46
589.391	41.5
589.729	41.59
590.067	41.71
590.404	41.83
590.742	41.84
591.08	41.98
591.418	42.1
591.756	42.14
592.093	42.16
592.431	42.1
592.769	42.17
593.106	42.15
593.444	42.17
593.781	42.36
594.119	42.46
594.456	42.48
594.793	42.51
595.131	42.46
595.468	42.49
595.805	42.52
596.143	42.57
596.48	42.64
596.817	42.7
597.154	42.78
597.491	42.77
597.828	42.92
598.165	42.96
598.502	43
598.839	43.02
599.176	43.05
599.512	43.21
599.849	43.28
600.186	43.38
600.523	43.48
600.859	43.48
601.196	43.47
601.532	43.55
601.869	43.6
602.205	43.76
602.542	43.79
602.878	43.84
603.215	43.86
603.551	43.91
603.887	44
604.223	43.99
604.56	44.12
604.896	44.04
605.232	44.05
605.568	44.08
605.904	44.17
606.24	44.2
606.576	44.15
606.912	44.09
607.248	44.11
607.583	44.08
607.919	44.1
608.255	44.12
608.591	44.17
608.926	44.23
609.262	44.23
609.597	44.3
609.933	44.3
610.268	44.35
610.604	44.33
610.939	44.33
611.275	44.34
611.61	44.3
611.945	44.35
612.281	44.42
612.616	44.42
612.951	44.43
613.286	44.5
613.621	44.59
613.956	44.67
614.291	44.8
614.626	44.95
614.961	44.92
615.296	44.94
615.631	44.88
615.966	44.87
616.3	44.91
616.635	44.9
616.97	45.01
617.304	45.02
617.639	45.11
617.973	45.08
618.308	45.13
618.642	45.12
618.977	45.1
619.311	45.1
619.646	45.23
619.98	45.19
620.314	45.33
620.648	45.31
620.983	45.23
621.317	45.16
621.651	45.11
621.985	45.08
622.319	45.22
622.653	45.27
622.987	45.34
623.321	45.4
623.655	45.43
623.988	45.47
624.322	45.53
624.656	45.54
624.99	45.53
625.323	45.52
625.657	45.58
625.99	45.68
626.324	45.68
626.657	45.66
626.991	45.73
627.324	45.61
627.658	45.64
627.991	45.8
628.324	45.77
628.657	45.75
628.991	45.78
629.324	45.73
629.657	45.71
629.99	45.64
630.323	45.56
630.656	45.58
630.989	45.52
631.322	45.55
631.655	45.57
631.987	45.64
632.32	45.68
632.653	45.69
632.986	45.62
633.318	45.61
633.651	45.53
633.984	45.49
634.316	45.49
634.649	45.52
634.981	45.44
635.313	45.38
635.646	45.38
635.978	45.48
636.31	45.5
636.643	45.55
636.975	45.63
637.307	45.71
637.639	45.57
637.971	45.55
638.303	45.52
638.635	45.51
638.967	45.43
639.299	45.46
639.631	45.37
639.963	45.49
640.295	45.43
640.626	45.47
640.958	45.47
641.29	45.53
641.621	45.49
641.953	45.47
642.285	45.6
642.616	45.6
642.948	45.54
643.279	45.39
643.61	45.4
643.942	45.44
644.273	45.5
644.604	45.62
644.936	45.59
645.267	45.61
645.598	45.56
645.929	45.56
646.26	45.52
646.591	45.73
646.922	45.73
647.253	45.85
647.584	45.77
647.915	45.87
648.245	45.88
648.576	45.92
648.907	46.02
649.238	46.04
649.568	46.14
649.899	46.23
650.229	46.45
650.56	46.34
650.89	46.36
651.221	46.3
651.551	46.31
651.882	46.41
652.212	46.34
652.542	46.4
652.872	46.46
653.203	46.59
653.533	46.44
653.863	46.41
654.193	46.46
654.523	46.55
654.853	46.63
655.183	46.62
655.513	46.75
655.843	46.82
656.172	46.83
656.502	46.83
656.832	46.78
657.162	46.7
657.491	46.92
657.821	46.81
658.15	46.89
658.48	46.93
658.809	46.9
659.139	46.96
659.468	47.05
659.798	47.16
660.127	47.11
660.456	47.21
660.785	47.07
661.115	46.96
661.444	47
661.773	46.93
662.102	46.97
662.431	46.85
662.76	46.75
663.089	46.76
663.418	46.71
663.747	46.73
664.076	46.77
664.404	46.71
664.733	46.83
665.062	46.8
665.39	46.76
665.719	46.81
666.048	46.76
666.376	46.61
666.705	46.51
667.033	46.55
667.362	46.53
667.69	46.82
668.018	46.99
668.347	46.99
668.675	46.98
669.003	46.94
669.331	47.06
669.659	47.15
669.987	47.17
670.315	47.15
670.643	47.23
670.971	47.31
671.299	47.35
671.627	47.38
671.955	47.38
672.283	47.46
672.61	47.4
672.938	47.51
673.266	47.7
673.593	47.67
673.921	47.64
674.249	47.67
674.576	47.6
674.904	47.59
675.231	47.72
675.558	47.76
675.886	47.83
676.213	47.82
676.54	47.72
676.867	47.87
677.195	48.01
677.522	47.9
677.849	47.84
678.176	47.74
678.503	47.75
678.83	47.65
679.157	47.53
679.484	47.61
679.81	47.61
680.137	47.63
680.464	47.74
680.791	47.75
681.117	47.81
681.444	47.77
681.771	47.78
682.097	47.73
682.424	47.79
682.75	47.8
683.077	47.7
683.403	47.79
683.729	47.62
684.056	47.59
684.382	47.6
684.708	47.65
685.034	47.71
685.36	47.73
685.686	47.9
686.012	47.95
686.339	48.04
686.664	48.02
686.99	47.87
687.316	47.91
687.642	47.94
687.968	47.99
688.294	48
688.619	48.02
688.945	48.08
689.271	48.09
689.596	48.22
689.922	48.36
690.247	48.4
690.573	48.53
690.898	48.57
691.224	48.64
691.549	48.63
691.874	48.72
692.2	48.66
692.525	48.53
692.85	48.69
693.175	48.63
693.5	48.58
693.825	48.69
694.15	48.5
694.475	48.63
694.8	48.48
695.125	48.44
695.45	48.33
695.775	48.23
696.099	48.18
696.424	48
696.749	47.93
697.073	47.89
697.398	47.85
697.723	47.86
698.047	48.01
698.372	48
698.696	47.87
699.02	47.87
699.345	48.05
699.669	47.94
699.993	47.82
700.318	47.83
700.642	47.77
700.966	47.82
701.29	47.67
701.614	47.55
701.938	47.59
702.262	47.61
702.586	47.73
702.91	47.82
703.234	47.82
703.557	47.94
703.881	48.03
704.205	48.09
704.529	47.91
704.852	47.74
705.176	47.63
705.499	47.76
705.823	47.87
706.146	47.77
706.47	47.84
706.793	47.95
707.117	47.96
707.44	48.1
707.763	48.05
708.086	48.12
708.409	48.35
708.733	48.38
709.056	48.33
709.379	48.21
709.702	48.19
710.025	48.29
710.348	48.07
710.671	47.95
710.993	47.9
711.316	48.06
711.639	48.08
711.962	48.08
712.284	48.19
712.607	48.09
712.93	48.13
713.252	48.24
713.575	48.23
713.897	48.34
714.22	48.22
714.542	48.45
714.864	48.4
715.187	48.46
715.509	48.52
715.831	48.62
716.153	48.78
716.475	48.93
716.798	48.76
717.12	48.96
717.442	49.07
717.764	49.15
718.085	49.02
718.407	49.03
718.729	48.91
719.051	48.67
719.373	48.82
719.695	48.93
720.016	48.83
720.338	48.81
720.659	48.9
720.981	48.99
721.302	48.85
721.624	49.07
721.945	48.99
722.267	48.96
722.588	49.16
722.909	48.85
723.231	48.61
723.552	48.72
723.873	48.56
724.194	48.54
724.515	48.49
724.836	48.51
725.157	48.53
725.478	48.66
725.799	48.87
726.12	48.75
726.441	48.65
726.762	48.62
727.083	48.84
727.403	48.77
727.724	48.85
728.045	48.66
728.365	48.57
728.686	48.58
729.006	48.35
729.327	48.1
729.647	48.26
729.967	48.2
730.288	48.12
730.608	48.33
730.928	48.33
731.249	48.43
731.569	48.48
731.889	48.42
732.209	48.49
732.529	48.43
732.849	48.48
733.169	48.62
733.489	48.66
733.809	48.45
734.129	48.44
734.448	48.27
734.768	48.23
735.088	48.14
735.408	48.09
735.727	48.35
736.047	48.51
736.366	48.57
736.686	48.64
737.005	49.02
737.325	48.92
737.644	48.93
737.963	48.96
738.283	49.15
738.602	49.28
738.921	49.4
739.24	49.29
739.56	49.57
739.879	49.43
740.198	49.19
740.517	49.58
740.836	49.49
741.155	49.65
741.473	49.73
741.792	49.91
742.111	50
742.43	49.76
742.748	49.74
743.067	49.51
743.386	49.48
743.704	49.27
744.023	49.09
744.341	49.19
744.66	49.08
744.978	48.8
745.297	48.73
745.615	48.65
745.933	49.04
746.252	48.88
746.57	49.1
746.888	49.33
747.206	49.15
747.524	49
747.842	48.79
748.16	49.24
748.478	48.96
748.796	48.72
749.114	48.92
749.432	49.07
749.749	49.29
750.067	49.37
750.385	49.15
750.703	49.23
751.02	49.2
751.338	49.15
751.655	49.3
751.973	49.35
752.29	49.62
752.608	49.33
752.925	49.25
753.242	49.01
753.56	48.6
753.877	48.83
754.194	49.21
754.511	49.06
754.828	48.59
755.145	48.85
755.462	49.18
755.779	48.96
756.096	48.79
756.413	48.79
756.73	48.89
757.047	48.98
757.364	49.51
757.68	49.56
757.997	49.73
758.314	49.67
758.63	49.59
758.947	49.33
759.264	49.66
759.58	49.62
759.896	49.69
760.213	50.14
760.529	49.89
760.846	49.75
761.162	50.09
761.478	50.11
761.794	50.12
762.11	50.07
762.426	50.36
762.743	50.33
763.059	50.05
763.375	50.1
763.69	50.3
764.006	49.99
764.322	49.99
764.638	50.17
764.954	50.2
765.27	50.44
765.585	50.72
765.901	50.55
766.216	50.33
766.532	50.24
766.848	50.14
767.163	50.37
767.478	50.26
767.794	50.32
768.109	50.83
768.424	50.55
768.74	50.5
769.055	50.64
769.37	50.81
769.685	51.12
770	50.61
770.315	50.37
770.63	50.62
770.945	50.99
771.26	50.68
771.575	50.63
771.89	50.2
772.205	49.73
772.52	49.34
772.834	49.98
773.149	50.23
773.464	50.17
773.778	50.12
774.093	50.2
774.407	50.27
774.722	49.79
775.036	50.23
775.351	50.26
775.665	49.52
775.979	49.72
776.293	49.98
776.608	50.64
776.922	51.03
777.236	51.03
777.55	50.44
777.864	50.8
778.178	50.3
778.492	51
778.806	51.34
779.12	51.72
779.434	51.13
779.747	50.98
780.061	51.18
780.375	50.81
780.689	51.05
781.002	50.99
781.316	50.65
781.629	50.56
781.943	50.93
782.256	51.44
782.57	51.29
782.883	51.39
783.196	51.01
783.51	51.15
783.823	50.81
784.136	50.97
784.449	50.59
784.762	51.31
785.075	50.83
785.388	50.73
785.701	50.96
786.014	51.4
786.327	51.52
786.64	51.48
786.953	51.74
787.266	51.5
787.578	51.54
787.891	51.92
788.204	51.72
788.516	51.58
788.829	51.52
789.141	51.12
789.454	50.86
789.766	51.48
790.079	51.43
790.391	51.13
790.703	51.27
791.016	51.36
791.328	51.27
791.64	50.91
791.952	51.18
792.264	51.79
792.576	52.04
792.888	51.89
793.2	52.17
793.512	51.63
793.824	51.91
794.136	51.1
794.448	51.17
794.76	51.48
795.071	51.09
795.383	51.47
795.695	51.55
796.006	51.09
796.318	51.03
796.629	50.63
796.941	51.19
797.252	51.19
797.564	51.55
797.875	51.37
798.186	51.53
798.497	51.38
798.809	50.48
799.12	49.74
799.431	49.42
799.742	48.98
800.053	48.72
800.364	48.75
800.675	49.38
800.986	49.5
801.297	48.81
801.608	49.38
801.918	49.14
802.229	49.3
802.54	49.87
802.851	49.69
803.161	49.69
803.472	49.26
803.782	48.91
804.093	48.16
804.403	48.07
804.714	48
805.024	47.9
805.334	48.86
805.645	49.14
805.955	49.32
806.265	50.06
806.575	50.52
806.885	50.84
807.195	50.62
807.505	51.02
807.815	51.43
808.125	50.34
808.435	50.4
808.745	50.99
809.055	50.7
809.365	50.37
809.674	50.06
809.984	50.69
810.294	50.26
810.603	50.11
810.913	49.5
811.222	49.57
811.532	49.78
811.841	49.45
812.151	49.79
812.46	49.6
812.769	49.01
813.079	49.62
813.388	49.06
813.697	48.96
814.006	48.97
814.315	49.32
814.624	50.39
814.933	50.76
815.242	50.3
815.551	50.29
815.86	50.81
816.169	51.5
816.478	51.7
816.786	51.9
817.095	52.7
817.404	52.72
817.712	53.57
818.021	53.54
818.33	52.69
818.638	51.94
818.947	51.73
819.255	51.47
819.563	51.15
819.872	50.76
820.18	51.13
820.488	50.83
820.796	50.86
821.105	50.83
821.413	50.76
821.721	50.47
822.029	50.69
822.337	50.42
822.645	50.45
822.953	50.37
823.26	50.45
823.568	50.37
823.876	50.6
824.184	50.41
824.491	50.39
824.799	50.52
825.107	50.75
825.414	50.62
825.722	50.75
826.029	50.73
826.337	50.99
826.644	50.75
826.951	50.99
827.259	50.94
827.566	50.94
827.873	50.89
828.18	51.02
828.488	50.88
828.795	51.14
829.102	51.07
829.409	50.9
829.716	51.51
830.023	51.61
830.329	51.76
830.636	52.02
830.943	52.15
831.25	51.74
831.557	51.72
831.863	52.32
832.17	52.31
832.476	52.65
832.783	52.47
833.089	52.97
833.396	52.12
833.702	52.13
834.009	52.35
834.315	52.22
834.621	52.47
834.928	52.86
835.234	52.95
835.54	53.24
835.846	53.79
836.152	53.1
836.458	53.58
836.764	53.95
837.07	53.8
837.376	53.49
837.682	54.14
837.988	53.89
838.293	53.94
838.599	53.97
838.905	54.09
839.211	54.07
839.516	54.05
839.822	54.94
840.127	55.56
840.433	55.38
840.738	55.36
841.044	54.74
841.349	54.49
841.654	55.31
841.959	56.61
842.265	55.52
842.57	55.44
842.875	54.38
843.18	53.38
843.485	54.29
843.79	54.6
844.095	53.42
844.4	53.76
844.705	54.29
845.01	54.13
845.315	53.34
845.619	54.35
845.924	54.31
846.229	54.93
846.533	53.69
846.838	54.56
847.142	56.06
847.447	58.01
847.751	56.28
848.056	54.89
848.36	51.43
848.664	51.99
848.969	53.1
849.273	53.95
849.577	54.71
849.881	54.81
850.185	56.08
850.489	57.6
850.794	57.87
851.097	59.69
851.401	59.31
851.705	59.12
852.009	59.34
852.313	59.37
852.617	58.55
852.92	60.83
853.224	59.99
853.528	58.14
853.831	57.6
854.135	61.84
854.438	59.57
854.742	60.61
855.045	61.03
855.349	58.3
855.652	58.73
855.955	59.38
856.259	57.86
856.562	56.47
856.865	56.37
857.168	55.89
857.471	55.82
857.774	58.25
858.077	58.75
858.38	56.1
858.683	56.96
858.986	57.08
859.289	56.19
859.592	55.6
859.894	55.67
860.197	54.66
860.5	52.64
860.802	54.39
861.105	54.8
861.407	55.18
861.71	56.89
862.012	54.44
862.315	53.05
862.617	51.85
862.919	51.86
863.222	53.05
863.524	53.13
863.826	51.06
864.128	50.02
864.43	48.62
864.732	50.15
865.034	49.26
865.336	47.1
865.638	47.06
865.94	46.36
866.242	49.11
866.544	51.34
866.846	51.61
867.147	52.77
867.449	52.03
867.751	52.22
868.052	49.86
868.354	49.92
868.655	52.28
868.957	52.62
869.258	51.34
869.56	49.47
869.861	48.25
870.162	46
870.463	44.23
870.765	45.57
871.066	43.72
871.367	43.28
871.668	43.54
871.969	45.68
872.27	47.64
872.571	45.77
872.872	43.31
873.173	40.75
873.473	38.75
873.774	38.03
874.075	36.11
874.376	38.82
874.676	41.07
874.977	38.66
875.277	37.47
875.578	39.97
875.878	40.13
876.179	40.62
876.479	42.22
876.78	43.29
877.08	43.08
877.38	45.69
877.68	45.72
877.981	48.06
878.281	43.74
878.581	41.4
