Data from MVZ_BU123442_Reflection_00001.txt Node
Date: Tue Nov 19 12:12:17 EST 2019
User: vgr7
Spectrometer: USB2G7710
Scans to average: 3
Trigger mode: 4
Integration Time (sec): 2.000000E-2
Electric dark correction enabled: true
Boxcar width: 10
XAxis mode: Wavelengths
Number of Pixels in Spectrum: 2048
>>>>>Begin Spectral Data<<<<<
177.721	-55.83
178.105	-23.38
178.488	-25.19
178.871	0
179.254	0
179.636	218.01
180.019	1392.45
180.402	100
180.785	-303.61
181.168	-261.59
181.55	-90.96
181.933	-9.72
182.316	31.87
182.698	-6.91
183.081	-6.98
183.463	-1.46
183.846	-47.69
184.228	-121.11
184.611	-222.89
184.993	816
185.376	3730.43
185.758	-443.48
186.14	-570.73
186.522	-1133.94
186.904	1080
187.287	942.28
187.669	567.27
188.051	610.03
188.433	457.94
188.815	211.03
189.197	156.37
189.579	160.76
189.961	214.77
190.342	177.65
190.724	85.14
191.106	60.42
191.488	77.88
191.869	57.07
192.251	49.38
192.633	51.15
193.014	58.49
193.396	54.95
193.777	39.49
194.159	56.85
194.54	56.1
194.922	57.06
195.303	63.83
195.684	60.34
196.065	26.97
196.447	10.67
196.828	-22.52
197.209	-4.91
197.59	6.52
197.971	-2.34
198.352	14.39
198.733	19.11
199.114	15.68
199.495	-0.79
199.876	4.17
200.257	15.8
200.638	9.3
201.018	-4.14
201.399	1.89
201.78	20.74
202.16	12.95
202.541	-23.38
202.922	-55.54
203.302	-66.13
203.683	-210.81
204.063	-80.6
204.444	-87.02
204.824	-0
205.204	-3.23
205.585	-38.3
205.965	244.07
206.345	-154.6
206.725	-143.12
207.106	-135.1
207.486	-286.96
207.866	-54.89
208.246	-72.2
208.626	-52.17
209.006	-14.56
209.386	9.7
209.766	10.43
210.145	10.35
210.525	22.12
210.905	75.09
211.285	69.89
211.664	50.81
212.044	84.2
212.424	66.98
212.803	76.52
213.183	65.26
213.562	77.92
213.942	71.01
214.321	47.33
214.701	70.01
215.08	68.11
215.459	64.46
215.838	69.46
216.218	52.39
216.597	65.95
216.976	66.7
217.355	54.4
217.734	44.15
218.113	42.01
218.492	35.81
218.871	30.07
219.25	15.58
219.629	13.43
220.008	-1.45
220.387	7.13
220.766	6.91
221.144	10.61
221.523	2.06
221.902	-5.83
222.28	3.4
222.659	9.43
223.037	13.53
223.416	19.02
223.794	17.92
224.173	9.68
224.551	5.81
224.929	14.43
225.308	14.69
225.686	13.99
226.064	7.85
226.442	14.36
226.821	18.27
227.199	20.43
227.577	21.58
227.955	22.61
228.333	14.93
228.711	15.75
229.089	17.35
229.467	13.9
229.845	14.09
230.222	14.23
230.6	9.63
230.978	10.38
231.356	4.72
231.733	2.16
232.111	3.66
232.488	5.09
232.866	4.07
233.243	4.24
233.621	5.86
233.998	8.02
234.376	5.2
234.753	2.63
235.13	3.94
235.508	2.73
235.885	1.96
236.262	3.2
236.639	2
237.016	0.77
237.393	2.04
237.77	2.26
238.147	1.23
238.524	2.31
238.901	2.26
239.278	2.99
239.655	3.86
240.032	4.05
240.409	3.66
240.785	3.29
241.162	2.64
241.539	2.47
241.915	2.47
242.292	2.62
242.668	2.8
243.045	2.55
243.421	3.11
243.798	3.52
244.174	3.71
244.551	4.09
244.927	4.04
245.303	3.93
245.679	3.86
246.056	4.11
246.432	3.87
246.808	3.93
247.184	4.07
247.56	3.79
247.936	3.74
248.312	3.57
248.688	3.73
249.064	3.96
249.44	4
249.815	3.65
250.191	3.88
250.567	4.03
250.943	4.09
251.318	3.82
251.694	3.6
252.069	3.5
252.445	3.12
252.82	3.41
253.196	3.41
253.571	3.65
253.947	3.81
254.322	3.77
254.697	3.52
255.073	3.36
255.448	3.33
255.823	3.55
256.198	3.26
256.573	2.75
256.948	2.75
257.323	2.55
257.698	2.78
258.073	2.79
258.448	2.5
258.823	2.29
259.198	2.42
259.573	2.26
259.948	2.43
260.322	2.54
260.697	2.55
261.072	2.54
261.446	2.48
261.821	2.46
262.195	2.55
262.57	2.52
262.944	2.51
263.319	2.61
263.693	2.48
264.067	2.82
264.442	3.1
264.816	3.02
265.19	3.04
265.564	3
265.938	3.01
266.313	3.24
266.687	3.5
267.061	3.38
267.435	3.81
267.809	3.75
268.183	3.6
268.556	3.58
268.93	3.51
269.304	3.36
269.678	3.22
270.051	3.22
270.425	3.32
270.799	3.26
271.172	3.1
271.546	3.23
271.919	3.03
272.293	3.07
272.666	3.32
273.04	3.4
273.413	3.52
273.787	3.36
274.16	3.24
274.533	3.24
274.906	3.32
275.279	3.09
275.653	2.95
276.026	2.9
276.399	2.72
276.772	2.75
277.145	2.75
277.518	2.77
277.891	2.86
278.263	3.1
278.636	3.2
279.009	3.25
279.382	3.11
279.755	3.28
280.127	3.13
280.5	2.79
280.872	2.67
281.245	2.5
281.617	2.61
281.99	2.68
282.362	2.7
282.735	2.73
283.107	2.84
283.479	2.81
283.852	2.89
284.224	2.92
284.596	2.94
284.968	2.98
285.34	2.91
285.713	2.95
286.085	2.65
286.457	2.53
286.829	2.58
287.201	2.6
287.572	2.5
287.944	2.57
288.316	2.62
288.688	2.74
289.06	2.78
289.431	2.83
289.803	2.81
290.175	2.75
290.546	2.63
290.918	2.6
291.289	2.69
291.661	2.71
292.032	2.84
292.403	2.83
292.775	2.98
293.146	3.28
293.517	3.07
293.889	3.2
294.26	3.33
294.631	3.43
295.002	3.48
295.373	3.45
295.744	3.43
296.115	3.35
296.486	3.37
296.857	3.35
297.228	3.31
297.599	3.24
297.97	3.32
298.34	3.43
298.711	3.34
299.082	3.34
299.452	3.31
299.823	3.3
300.194	3.35
300.564	3.12
300.935	2.99
301.305	3.06
301.676	2.86
302.046	2.76
302.416	2.74
302.787	2.68
303.157	2.75
303.527	2.97
303.897	3.12
304.267	3.03
304.637	3.18
305.008	3.13
305.378	3.38
305.748	3.47
306.117	3.42
306.487	3.51
306.857	3.44
307.227	3.55
307.597	3.42
307.967	3.42
308.336	3.54
308.706	3.56
309.076	3.69
309.445	3.85
309.815	3.96
310.184	3.75
310.554	3.66
310.923	3.63
311.293	3.43
311.662	3.31
312.031	3.35
312.401	3.21
312.77	3.15
313.139	3.06
313.508	2.89
313.877	2.95
314.246	3.04
314.616	3.18
314.985	3.01
315.353	3.12
315.722	3.19
316.091	3.19
316.46	3.13
316.829	3
317.198	3.07
317.567	3.12
317.935	3.25
318.304	3.37
318.672	3.48
319.041	3.48
319.41	3.7
319.778	3.73
320.147	3.97
320.515	4.07
320.883	3.97
321.252	3.95
321.62	4.04
321.988	3.93
322.357	3.69
322.725	3.88
323.093	3.83
323.461	3.59
323.829	3.55
324.197	3.48
324.565	3.42
324.933	3.31
325.301	3.1
325.669	3
326.037	2.89
326.405	2.81
326.772	2.76
327.14	2.55
327.508	2.6
327.875	2.4
328.243	2.26
328.61	2.38
328.978	2.46
329.346	2.29
329.713	2.39
330.08	2.54
330.448	2.38
330.815	2.36
331.182	2.3
331.55	2.3
331.917	2.29
332.284	2.5
332.651	2.51
333.018	2.41
333.385	2.58
333.752	2.68
334.119	2.77
334.486	2.79
334.853	2.88
335.22	2.72
335.587	2.87
335.954	3.06
336.32	2.98
336.687	3.04
337.054	2.99
337.42	2.86
337.787	2.72
338.153	2.88
338.52	2.96
338.886	3.13
339.253	3.07
339.619	3.24
339.986	3.03
340.352	2.99
340.718	3.1
341.084	3.24
341.451	3.15
341.817	3.03
342.183	3.06
342.549	3.06
342.915	3.12
343.281	3.09
343.647	3.01
344.013	2.94
344.379	2.76
344.745	2.82
345.11	2.75
345.476	2.88
345.842	2.77
346.208	2.7
346.573	2.66
346.939	2.71
347.304	2.63
347.67	2.79
348.035	2.69
348.401	2.67
348.766	2.61
349.132	2.65
349.497	2.74
349.862	2.73
350.228	2.74
350.593	2.74
350.958	2.77
351.323	2.72
351.688	2.82
352.053	2.97
352.418	2.93
352.783	3.12
353.148	3.14
353.513	3.15
353.878	3.13
354.243	3.04
354.608	3.03
354.972	3.04
355.337	2.98
355.702	3.16
356.066	3.18
356.431	3.03
356.795	2.99
357.16	2.91
357.524	2.96
357.889	2.99
358.253	2.91
358.618	2.85
358.982	2.83
359.346	2.83
359.71	2.83
360.075	2.91
360.439	2.83
360.803	2.79
361.167	2.77
361.531	2.74
361.895	2.86
362.259	2.89
362.623	2.88
362.987	2.83
363.351	2.72
363.714	2.77
364.078	2.84
364.442	2.92
364.806	3
365.169	3.02
365.533	3.01
365.896	3.06
366.26	3.03
366.623	3.12
366.987	3.15
367.35	3.11
367.714	2.99
368.077	2.98
368.44	3.02
368.803	3.04
369.167	3.12
369.53	3.11
369.893	3.1
370.256	3.15
370.619	3.13
370.982	3.16
371.345	3.16
371.708	3.12
372.071	3.05
372.434	2.94
372.797	2.97
373.159	2.96
373.522	2.96
373.885	3.06
374.247	2.99
374.61	2.93
374.973	3
375.335	3.08
375.698	3.11
376.06	3.06
376.423	3.12
376.785	3.1
377.147	3.09
377.51	3.06
377.872	3.06
378.234	3.06
378.596	3.06
378.958	3.03
379.321	3.05
379.683	3.12
380.045	3.18
380.407	3.17
380.769	3.16
381.13	3.16
381.492	3.09
381.854	3.12
382.216	3.17
382.578	3.14
382.939	3.12
383.301	3.06
383.663	3.08
384.024	3.05
384.386	3.09
384.747	3.04
385.109	3.09
385.47	3.05
385.832	3.11
386.193	3.15
386.554	3.12
386.916	3.11
387.277	3.05
387.638	3.04
387.999	3
388.36	3.02
388.721	3.05
389.082	3.06
389.443	3.08
389.804	3.08
390.165	3.08
390.526	3.1
390.887	3.08
391.248	3.09
391.609	3.1
391.969	3.09
392.33	3.09
392.691	3.07
393.051	3.06
393.412	3
393.772	2.97
394.133	3
394.493	3.02
394.854	3.05
395.214	3.06
395.574	3.06
395.935	3.11
396.295	3.12
396.655	3.13
397.015	3.13
397.376	3.11
397.736	3.12
398.096	3.13
398.456	3.18
398.816	3.18
399.176	3.19
399.535	3.17
399.895	3.16
400.255	3.2
400.615	3.2
400.975	3.24
401.334	3.24
401.694	3.26
402.054	3.29
402.413	3.26
402.773	3.25
403.132	3.26
403.492	3.19
403.851	3.13
404.211	3.14
404.57	3.12
404.929	3.15
405.288	3.14
405.648	3.14
406.007	3.12
406.366	3.11
406.725	3.08
407.084	3.1
407.443	3.15
407.802	3.11
408.161	3.15
408.52	3.18
408.879	3.21
409.238	3.19
409.596	3.17
409.955	3.19
410.314	3.2
410.673	3.19
411.031	3.19
411.39	3.21
411.748	3.24
412.107	3.25
412.465	3.21
412.824	3.19
413.182	3.18
413.54	3.21
413.899	3.21
414.257	3.2
414.615	3.19
414.974	3.16
415.332	3.17
415.69	3.13
416.048	3.14
416.406	3.12
416.764	3.12
417.122	3.12
417.48	3.12
417.838	3.12
418.195	3.1
418.553	3.11
418.911	3.13
419.269	3.11
419.626	3.11
419.984	3.11
420.342	3.12
420.699	3.11
421.057	3.1
421.414	3.1
421.772	3.12
422.129	3.11
422.486	3.11
422.844	3.1
423.201	3.1
423.558	3.1
423.915	3.12
424.273	3.11
424.63	3.13
424.987	3.14
425.344	3.14
425.701	3.16
426.058	3.17
426.415	3.15
426.772	3.14
427.128	3.17
427.485	3.19
427.842	3.21
428.199	3.23
428.555	3.25
428.912	3.25
429.269	3.23
429.625	3.22
429.982	3.25
430.338	3.27
430.695	3.26
431.051	3.24
431.407	3.22
431.764	3.22
432.12	3.22
432.476	3.21
432.832	3.21
433.189	3.19
433.545	3.2
433.901	3.23
434.257	3.24
434.613	3.22
434.969	3.2
435.325	3.19
435.681	3.17
436.036	3.17
436.392	3.19
436.748	3.22
437.104	3.23
437.459	3.23
437.815	3.23
438.171	3.25
438.526	3.24
438.882	3.25
439.237	3.27
439.593	3.27
439.948	3.27
440.304	3.27
440.659	3.29
441.014	3.28
441.369	3.26
441.725	3.26
442.08	3.26
442.435	3.26
442.79	3.26
443.145	3.27
443.5	3.27
443.855	3.26
444.21	3.25
444.565	3.25
444.92	3.25
445.275	3.25
445.629	3.25
445.984	3.25
446.339	3.25
446.693	3.24
447.048	3.23
447.403	3.21
447.757	3.2
448.112	3.18
448.466	3.18
448.82	3.18
449.175	3.18
449.529	3.19
449.883	3.17
450.238	3.18
450.592	3.17
450.946	3.16
451.3	3.17
451.654	3.16
452.008	3.17
452.362	3.15
452.716	3.15
453.07	3.14
453.424	3.14
453.778	3.15
454.132	3.15
454.486	3.15
454.839	3.16
455.193	3.19
455.547	3.2
455.9	3.2
456.254	3.23
456.607	3.23
456.961	3.2
457.314	3.24
457.668	3.21
458.021	3.22
458.375	3.22
458.728	3.23
459.081	3.24
459.434	3.25
459.787	3.27
460.141	3.28
460.494	3.3
460.847	3.3
461.2	3.32
461.553	3.33
461.906	3.34
462.259	3.34
462.611	3.34
462.964	3.37
463.317	3.38
463.67	3.38
464.022	3.4
464.375	3.44
464.728	3.43
465.08	3.45
465.433	3.46
465.785	3.49
466.138	3.5
466.49	3.5
466.843	3.51
467.195	3.51
467.547	3.49
467.899	3.47
468.252	3.47
468.604	3.47
468.956	3.48
469.308	3.47
469.66	3.47
470.012	3.48
470.364	3.46
470.716	3.47
471.068	3.48
471.42	3.48
471.772	3.45
472.123	3.47
472.475	3.47
472.827	3.47
473.178	3.45
473.53	3.44
473.882	3.41
474.233	3.4
474.585	3.35
474.936	3.38
475.288	3.39
475.639	3.4
475.99	3.39
476.342	3.39
476.693	3.41
477.044	3.41
477.395	3.4
477.746	3.41
478.097	3.41
478.448	3.37
478.8	3.35
479.15	3.36
479.501	3.34
479.852	3.35
480.203	3.36
480.554	3.35
480.905	3.36
481.255	3.39
481.606	3.4
481.957	3.42
482.307	3.42
482.658	3.43
483.009	3.42
483.359	3.42
483.709	3.43
484.06	3.42
484.41	3.42
484.761	3.42
485.111	3.42
485.461	3.41
485.811	3.43
486.162	3.43
486.512	3.44
486.862	3.45
487.212	3.45
487.562	3.45
487.912	3.46
488.262	3.46
488.612	3.47
488.961	3.47
489.311	3.46
489.661	3.44
490.011	3.43
490.36	3.44
490.71	3.43
491.06	3.43
491.409	3.44
491.759	3.45
492.108	3.45
492.458	3.44
492.807	3.46
493.157	3.45
493.506	3.47
493.855	3.46
494.204	3.46
494.554	3.45
494.903	3.45
495.252	3.46
495.601	3.45
495.95	3.45
496.299	3.46
496.648	3.49
496.997	3.5
497.346	3.51
497.695	3.53
498.043	3.53
498.392	3.53
498.741	3.53
499.09	3.54
499.438	3.58
499.787	3.59
500.135	3.59
500.484	3.61
500.832	3.61
501.181	3.6
501.529	3.62
501.878	3.61
502.226	3.63
502.574	3.62
502.923	3.62
503.271	3.6
503.619	3.61
503.967	3.61
504.315	3.61
504.663	3.63
505.011	3.64
505.359	3.63
505.707	3.61
506.055	3.59
506.403	3.58
506.751	3.56
507.098	3.57
507.446	3.56
507.794	3.57
508.141	3.56
508.489	3.56
508.837	3.54
509.184	3.54
509.531	3.55
509.879	3.55
510.226	3.53
510.574	3.56
510.921	3.54
511.268	3.54
511.616	3.56
511.963	3.56
512.31	3.55
512.657	3.57
513.004	3.56
513.351	3.6
513.698	3.62
514.045	3.63
514.392	3.61
514.739	3.63
515.086	3.63
515.432	3.64
515.779	3.64
516.126	3.67
516.473	3.7
516.819	3.7
517.166	3.71
517.512	3.71
517.859	3.72
518.205	3.73
518.552	3.74
518.898	3.72
519.245	3.73
519.591	3.72
519.937	3.73
520.283	3.75
520.629	3.75
520.976	3.76
521.322	3.75
521.668	3.76
522.014	3.76
522.36	3.76
522.706	3.76
523.052	3.76
523.398	3.76
523.743	3.75
524.089	3.74
524.435	3.75
524.781	3.77
525.126	3.75
525.472	3.75
525.817	3.74
526.163	3.77
526.509	3.77
526.854	3.78
527.199	3.77
527.545	3.78
527.89	3.79
528.235	3.78
528.581	3.79
528.926	3.79
529.271	3.79
529.616	3.8
529.961	3.8
530.306	3.81
530.651	3.8
530.996	3.81
531.341	3.82
531.686	3.81
532.031	3.81
532.376	3.81
532.721	3.82
533.065	3.82
533.41	3.81
533.755	3.8
534.099	3.8
534.444	3.8
534.788	3.79
535.133	3.78
535.477	3.78
535.822	3.79
536.166	3.78
536.51	3.79
536.855	3.8
537.199	3.79
537.543	3.77
537.887	3.79
538.231	3.78
538.576	3.77
538.92	3.79
539.264	3.8
539.608	3.79
539.951	3.78
540.295	3.78
540.639	3.79
540.983	3.79
541.327	3.82
541.671	3.83
542.014	3.82
542.358	3.82
542.701	3.83
543.045	3.81
543.389	3.83
543.732	3.83
544.075	3.83
544.419	3.85
544.762	3.87
545.105	3.89
545.449	3.89
545.792	3.9
546.135	3.91
546.478	3.89
546.821	3.93
547.165	3.95
547.508	3.98
547.851	3.98
548.194	3.96
548.536	3.97
548.879	3.96
549.222	3.98
549.565	3.96
549.908	3.95
550.25	3.97
550.593	3.98
550.936	3.98
551.278	3.96
551.621	3.94
551.963	3.96
552.306	3.94
552.648	3.93
552.991	3.93
553.333	3.91
553.675	3.94
554.017	3.9
554.36	3.88
554.702	3.85
555.044	3.81
555.386	3.84
555.728	3.81
556.07	3.79
556.412	3.77
556.754	3.8
557.096	3.8
557.438	3.77
557.78	3.75
558.121	3.74
558.463	3.74
558.805	3.71
559.147	3.69
559.488	3.67
559.83	3.7
560.171	3.68
560.513	3.72
560.854	3.69
561.196	3.73
561.537	3.74
561.878	3.77
562.22	3.81
562.561	3.82
562.902	3.82
563.243	3.83
563.584	3.86
563.925	3.86
564.266	3.86
564.607	3.89
564.948	3.9
565.289	3.9
565.63	3.9
565.971	3.92
566.312	3.91
566.653	3.95
566.993	3.94
567.334	3.99
567.675	3.98
568.015	3.99
568.356	3.98
568.696	4
569.037	3.97
569.377	3.98
569.718	3.96
570.058	3.97
570.398	3.97
570.739	3.96
571.079	3.96
571.419	3.97
571.759	3.97
572.099	3.95
572.439	3.93
572.779	3.92
573.119	3.93
573.459	3.93
573.799	3.92
574.139	3.92
574.479	3.92
574.819	3.91
575.158	3.92
575.498	3.91
575.838	3.88
576.177	3.89
576.517	3.88
576.856	3.89
577.196	3.88
577.535	3.88
577.875	3.88
578.214	3.87
578.553	3.92
578.893	3.91
579.232	3.96
579.571	3.97
579.91	4
580.25	3.97
580.589	4
580.928	4.01
581.267	3.99
581.606	3.98
581.945	3.93
582.283	3.92
582.622	3.92
582.961	3.99
583.3	4.01
583.639	3.98
583.977	3.99
584.316	4
584.654	4.06
584.993	4.04
585.332	4.04
585.67	3.98
586.008	3.98
586.347	3.97
586.685	3.96
587.024	3.98
587.362	4.02
587.7	4.04
588.038	4.02
588.376	4.03
588.715	4.03
589.053	4.08
589.391	4.08
589.729	4.06
590.067	4.04
590.404	4.07
590.742	4.06
591.08	4.13
591.418	4.18
591.756	4.14
592.093	4.18
592.431	4.22
592.769	4.26
593.106	4.25
593.444	4.24
593.781	4.23
594.119	4.21
594.456	4.16
594.793	4.1
595.131	4.1
595.468	4.14
595.805	4.13
596.143	4.14
596.48	4.16
596.817	4.19
597.154	4.19
597.491	4.15
597.828	4.16
598.165	4.11
598.502	4.07
598.839	4.1
599.176	4.08
599.512	4.06
599.849	4.05
600.186	4.09
600.523	4.12
600.859	4.18
601.196	4.2
601.532	4.26
601.869	4.31
602.205	4.33
602.542	4.32
602.878	4.35
603.215	4.35
603.551	4.31
603.887	4.34
604.223	4.3
604.56	4.33
604.896	4.35
605.232	4.35
605.568	4.36
605.904	4.3
606.24	4.3
606.576	4.31
606.912	4.3
607.248	4.27
607.583	4.25
607.919	4.2
608.255	4.21
608.591	4.17
608.926	4.17
609.262	4.14
609.597	4.1
609.933	4.07
610.268	4.07
610.604	4.05
610.939	4.07
611.275	4.09
611.61	4.08
611.945	4.03
612.281	4.03
612.616	4.03
612.951	4.18
613.286	4.22
613.621	4.2
613.956	4.18
614.291	4.16
614.626	4.2
614.961	4.22
615.296	4.26
615.631	4.29
615.966	4.27
616.3	4.35
616.635	4.41
616.97	4.39
617.304	4.38
617.639	4.49
617.973	4.41
618.308	4.48
618.642	4.45
618.977	4.48
619.311	4.51
619.646	4.54
619.98	4.48
620.314	4.41
620.648	4.43
620.983	4.46
621.317	4.49
621.651	4.46
621.985	4.46
622.319	4.38
622.653	4.35
622.987	4.35
623.321	4.34
623.655	4.32
623.988	4.35
624.322	4.37
624.656	4.29
624.99	4.29
625.323	4.23
625.657	4.26
625.99	4.25
626.324	4.2
626.657	4.2
626.991	4.15
627.324	4.21
627.658	4.21
627.991	4.21
628.324	4.2
628.657	4.26
628.991	4.25
629.324	4.29
629.657	4.31
629.99	4.34
630.323	4.31
630.656	4.37
630.989	4.39
631.322	4.37
631.655	4.4
631.987	4.48
632.32	4.55
632.653	4.57
632.986	4.57
633.318	4.66
633.651	4.66
633.984	4.68
634.316	4.62
634.649	4.66
634.981	4.64
635.313	4.7
635.646	4.63
635.978	4.68
636.31	4.67
636.643	4.65
636.975	4.63
637.307	4.68
637.639	4.66
637.971	4.66
638.303	4.64
638.635	4.66
638.967	4.56
639.299	4.49
639.631	4.48
639.963	4.46
640.295	4.4
640.626	4.36
640.958	4.32
641.29	4.4
641.621	4.38
641.953	4.37
642.285	4.35
642.616	4.41
642.948	4.38
643.279	4.37
643.61	4.49
643.942	4.43
644.273	4.34
644.604	4.41
644.936	4.45
645.267	4.48
645.598	4.46
645.929	4.49
646.26	4.54
646.591	4.57
646.922	4.67
647.253	4.68
647.584	4.7
647.915	4.82
648.245	4.82
648.576	4.82
648.907	4.87
649.238	4.8
649.568	4.77
649.899	4.76
650.229	4.79
650.56	4.73
650.89	4.84
651.221	4.88
651.551	4.78
651.882	4.71
652.212	4.65
652.542	4.71
652.872	4.71
653.203	4.74
653.533	4.8
653.863	4.73
654.193	4.7
654.523	4.68
654.853	4.66
655.183	4.73
655.513	4.72
655.843	4.72
656.172	4.76
656.502	4.73
656.832	4.79
657.162	4.85
657.491	4.87
657.821	4.81
658.15	4.88
658.48	4.94
658.809	4.97
659.139	5
659.468	5.06
659.798	5.12
660.127	5.09
660.456	4.99
660.785	5.01
661.115	5.03
661.444	5.08
661.773	5.06
662.102	4.99
662.431	4.95
662.76	4.91
663.089	4.94
663.418	4.95
663.747	4.93
664.076	4.84
664.404	4.88
664.733	4.91
665.062	4.88
665.39	4.84
665.719	4.85
666.048	4.89
666.376	4.83
666.705	4.71
667.033	4.75
667.362	4.7
667.69	4.69
668.018	4.71
668.347	4.62
668.675	4.6
669.003	4.56
669.331	4.56
669.659	4.63
669.987	4.66
670.315	4.71
670.643	4.72
670.971	4.76
671.299	4.7
671.627	4.74
671.955	4.72
672.283	4.75
672.61	4.68
672.938	4.67
673.266	4.66
673.593	4.55
673.921	4.5
674.249	4.64
674.576	4.71
674.904	4.65
675.231	4.71
675.558	4.73
675.886	4.85
676.213	4.84
676.54	4.86
676.867	4.82
677.195	4.9
677.522	4.93
677.849	4.95
678.176	4.97
678.503	4.94
678.83	4.93
679.157	4.77
679.484	4.86
679.81	4.82
680.137	4.83
680.464	5.03
680.791	5.06
681.117	5.09
681.444	5.09
681.771	5.2
682.097	5.29
682.424	5.27
682.75	5.27
683.077	5.32
683.403	5.27
683.729	5.32
684.056	5.21
684.382	5.06
684.708	4.97
685.034	4.91
685.36	4.87
685.686	4.85
686.012	5
686.339	4.98
686.664	5.06
686.99	5
687.316	4.99
687.642	4.99
687.968	4.95
688.294	4.94
688.619	4.92
688.945	4.83
689.271	4.85
689.596	4.83
689.922	4.88
690.247	4.88
690.573	4.78
690.898	4.82
691.224	4.88
691.549	4.9
691.874	5
692.2	5
692.525	5.02
692.85	5.07
693.175	5.14
693.5	4.96
693.825	5.02
694.15	4.96
694.475	4.94
694.8	4.83
695.125	4.82
695.45	4.74
695.775	4.69
696.099	4.72
696.424	4.63
696.749	4.6
697.073	4.59
697.398	4.71
697.723	4.72
698.047	4.76
698.372	4.86
698.696	4.82
699.02	4.87
699.345	4.95
699.669	4.93
699.993	4.82
700.318	4.95
700.642	4.94
700.966	4.94
701.29	5.01
701.614	5.27
701.938	5.21
702.262	5.24
702.586	5.41
702.91	5.41
703.234	5.53
703.557	5.56
703.881	5.71
704.205	5.65
704.529	5.56
704.852	5.57
705.176	5.61
705.499	5.53
705.823	5.63
706.146	5.59
706.47	5.53
706.793	5.71
707.117	5.69
707.44	5.68
707.763	5.75
708.086	5.75
708.409	5.57
708.733	5.57
709.056	5.57
709.379	5.53
709.702	5.55
710.025	5.56
710.348	5.59
710.671	5.65
710.993	5.71
711.316	5.81
711.639	5.8
711.962	5.81
712.284	5.78
712.607	5.71
712.93	5.73
713.252	5.7
713.575	5.62
713.897	5.51
714.22	5.5
714.542	5.45
714.864	5.46
715.187	5.33
715.509	5.46
715.831	5.6
716.153	5.5
716.475	5.59
716.798	5.41
717.12	5.32
717.442	5.22
717.764	5.21
718.085	5.16
718.407	5.2
718.729	5.12
719.051	5.32
719.373	5.29
719.695	5.34
720.016	5.45
720.338	5.55
720.659	5.77
720.981	5.73
721.302	5.91
721.624	5.99
721.945	6.17
722.267	6.18
722.588	6.11
722.909	6.22
723.231	6
723.552	6.27
723.873	6.28
724.194	6.29
724.515	6.29
724.836	6.37
725.157	6.5
725.478	6.37
725.799	6.29
726.12	6.3
726.441	6.09
726.762	6.09
727.083	6.05
727.403	6
727.724	6.17
728.045	6.12
728.365	6.1
728.686	5.97
729.006	5.83
729.327	5.82
729.647	5.74
729.967	5.74
730.288	5.53
730.608	5.78
730.928	5.85
731.249	5.65
731.569	5.64
731.889	5.53
732.209	5.63
732.529	5.74
732.849	5.86
733.169	5.98
733.489	6.01
733.809	5.94
734.129	5.95
734.448	5.75
734.768	5.67
735.088	5.39
735.408	5.56
735.727	5.76
736.047	5.79
736.366	5.94
736.686	5.94
737.005	6.15
737.325	6.05
737.644	5.62
737.963	5.7
738.283	5.75
738.602	5.83
738.921	5.84
739.24	5.74
739.56	5.62
739.879	5.5
740.198	5.64
740.517	5.72
740.836	5.67
741.155	5.9
741.473	6.09
741.792	6.3
742.111	6.32
742.43	6.09
742.748	6
743.067	5.94
743.386	6.03
743.704	6.1
744.023	6.01
744.341	6.31
744.66	6.4
744.978	6.48
745.297	6.65
745.615	6.6
745.933	6.72
746.252	6.76
746.57	6.92
746.888	6.82
747.206	6.94
747.524	7.36
747.842	7.21
748.16	7.12
748.478	7.13
748.796	7.16
749.114	7.48
749.432	7.65
749.749	7.38
750.067	7.38
750.385	7.29
750.703	7.42
751.02	7.32
751.338	7.15
751.655	6.86
751.973	6.93
752.29	6.78
752.608	6.45
752.925	6.44
753.242	6.73
753.56	6.46
753.877	6.26
754.194	6.05
754.511	6.24
754.828	6.35
755.145	6.36
755.462	6.25
755.779	5.85
756.096	5.53
756.413	5.71
756.73	5.98
757.047	5.87
757.364	5.68
757.68	6.01
757.997	6.24
758.314	6.34
758.63	6.17
758.947	6.38
759.264	6.59
759.58	6.54
759.896	6.59
760.213	7.02
760.529	7.01
760.846	7.11
761.162	7
761.478	6.65
761.794	6.61
762.11	6.64
762.426	6.73
762.743	6.86
763.059	6.98
763.375	6.96
763.69	6.97
764.006	7.05
764.322	6.94
764.638	6.82
764.954	7.02
765.27	7.13
765.585	7.13
765.901	7.15
766.216	7.18
766.532	6.79
766.848	6.65
767.163	6.81
767.478	6.64
767.794	6.89
768.109	7.11
768.424	7.26
768.74	7.09
769.055	7.34
769.37	7.23
769.685	6.88
770	6.76
770.315	6.77
770.63	6.79
770.945	7.23
771.26	7.63
771.575	7.41
771.89	7.4
772.205	7.16
772.52	7.18
772.834	7.38
773.149	7.71
773.464	7.55
773.778	7.47
774.093	7.44
774.407	7.2
774.722	7.14
775.036	6.91
775.351	7.38
775.665	7.15
775.979	7.64
776.293	8.12
776.608	8.21
776.922	8.41
777.236	8.41
777.55	7.86
777.864	7.63
778.178	8.07
778.492	7.46
778.806	8.19
779.12	8.51
779.434	8.18
779.747	8.37
780.061	8.58
780.375	8.31
780.689	9.01
781.002	8.78
781.316	8.94
781.629	9.12
781.943	8.79
782.256	8.91
782.57	8.9
782.883	9.01
783.196	8.86
783.51	8.99
783.823	8.97
784.136	9.61
784.449	9.6
784.762	9.3
785.075	9.4
785.388	9.4
785.701	8.73
786.014	8.77
786.327	8.5
786.64	8.48
786.953	8.38
787.266	7.97
787.578	8
787.891	8.05
788.204	7.81
788.516	8.18
788.829	7.97
789.141	7.94
789.454	7.64
789.766	7.84
790.079	7.62
790.391	7.61
790.703	6.88
791.016	6.81
791.328	6.59
791.64	6.92
791.952	6.43
792.264	6.84
792.576	6.98
792.888	7.09
793.2	6.84
793.512	7.29
793.824	7.09
794.136	7.48
794.448	7.23
794.76	7.6
795.071	7.06
795.383	7.12
795.695	7.45
796.006	7.27
796.318	7.57
796.629	7.56
796.941	8.02
797.252	7.86
797.564	7.99
797.875	8.55
798.186	8.44
798.497	8.34
798.809	8.06
799.12	7.92
799.431	8.12
799.742	8.33
800.053	8.27
800.364	8.62
800.675	8.58
800.986	8.91
801.297	8.35
801.608	8.1
801.918	7.83
802.229	7.52
802.54	7.83
802.851	7.6
803.161	7.56
803.472	7.69
803.782	8.32
804.093	7.79
804.403	7.55
804.714	7.71
805.024	7.95
805.334	7.76
805.645	8.39
805.955	8.4
806.265	8.76
806.575	8.84
806.885	8.66
807.195	8.6
807.505	8.61
807.815	9.52
808.125	10.43
808.435	11.17
808.745	11.39
809.055	11.86
809.365	11.65
809.674	11.89
809.984	10.58
810.294	10.2
810.603	10
810.913	10.3
811.222	10.02
811.532	9.86
811.841	10.95
812.151	10.18
812.46	10.22
812.769	9.65
813.079	9.46
813.388	9.6
813.697	8.82
814.006	9.08
814.315	8.94
814.624	8.4
814.933	8.1
815.242	7.64
815.551	7.32
815.86	7.13
816.169	6.2
816.478	7.11
816.786	7.23
817.095	8.21
817.404	7.45
817.712	7.56
818.021	7.84
818.33	7.4
818.638	7.33
818.947	7.13
819.255	6.9
819.563	7.12
819.872	6.88
820.18	7.4
820.488	7.38
820.796	7.49
821.105	7.98
821.413	8.15
821.721	8.19
822.029	8.35
822.337	8.4
822.645	8.66
822.953	8.56
823.26	8.69
823.568	8.67
823.876	8.87
824.184	9.05
824.491	8.97
824.799	9.03
825.107	9.1
825.414	9.18
825.722	9.26
826.029	9.27
826.337	9.35
826.644	9.53
826.951	9.49
827.259	9.47
827.566	9.31
827.873	9.35
828.18	9.26
828.488	9.25
828.795	9.41
829.102	9.14
829.409	8.96
829.716	8.89
830.023	8.97
830.329	8.8
830.636	8.61
830.943	8.7
831.25	8.79
831.557	8.77
831.863	8.96
832.17	9.11
832.476	9.32
832.783	9.5
833.089	9.59
833.396	9.59
833.702	9.63
834.009	9.33
834.315	9.63
834.621	10.1
834.928	9.56
835.234	9.71
835.54	10.38
835.846	11.46
836.152	11.27
836.458	11.02
836.764	11.24
837.07	10.93
837.376	10.96
837.682	10.97
837.988	11.2
838.293	10.81
838.599	11.49
838.905	11.58
839.211	11.27
839.516	11.1
839.822	11.59
840.127	12.02
840.433	13.22
840.738	12.18
841.044	11.94
841.349	12.14
841.654	11.45
841.959	12.09
842.265	10.45
842.57	10.52
842.875	11.55
843.18	11.08
843.485	11.24
843.79	11.57
844.095	11.56
844.4	12.9
844.705	14.16
845.01	15.13
845.315	14.87
845.619	15.71
845.924	14.25
846.229	14.46
846.533	13.05
846.838	11.91
847.142	12.85
847.447	13.22
847.751	14.33
848.056	16.35
848.36	15.72
848.664	16.78
848.969	17.14
849.273	16.81
849.577	16.01
849.881	17.22
850.185	17.4
850.489	16.69
850.794	14.2
851.097	14.04
851.401	10.17
851.705	10.41
852.009	10.02
852.313	10.11
852.617	9.52
852.92	9.38
853.224	9.36
853.528	9.48
853.831	8.69
854.135	9.97
854.438	8.35
854.742	7.02
855.045	6.97
855.349	7.75
855.652	8.13
855.955	10.29
856.259	10.82
856.562	11.44
856.865	10.73
857.168	12.6
857.471	14.18
857.774	15.6
858.077	15.43
858.38	16.59
858.683	19.59
858.986	21.51
859.289	24.16
859.592	25.51
859.894	26.39
860.197	28.56
860.5	29.54
860.802	29.53
861.105	28.56
861.407	31.29
861.71	31.74
862.012	32.02
862.315	29.08
862.617	28.36
862.919	29.07
863.222	31.11
863.524	30.35
863.826	27.4
864.128	29.46
864.43	29.68
864.732	27.83
865.034	26.96
865.336	27.92
865.638	27.98
865.94	27.38
866.242	25.86
866.544	26.96
866.846	22.52
867.147	25.17
867.449	28.08
867.751	25.62
868.052	26.09
868.354	25.64
868.655	25.03
868.957	24.83
869.258	22.56
869.56	21.7
869.861	19.21
870.162	19.1
870.463	18.23
870.765	18.2
871.066	19.68
871.367	15.87
871.668	12.23
871.969	10.6
872.27	12.69
872.571	13.51
872.872	12.31
873.173	14.8
873.473	11.46
873.774	10.06
874.075	9.04
874.376	7.44
874.676	6.05
874.977	8.73
875.277	7.81
875.578	10.01
875.878	9.25
876.179	11.33
876.479	11.9
876.78	10.29
877.08	9.38
877.38	8.96
877.68	12.22
877.981	14.25
878.281	15.48
878.581	12.32
