Data from MVZ_BU123442_Reflection_00013.txt Node
Date: Tue Nov 19 12:12:41 EST 2019
User: vgr7
Spectrometer: USB2G7710
Scans to average: 3
Trigger mode: 4
Integration Time (sec): 2.000000E-2
Electric dark correction enabled: true
Boxcar width: 10
XAxis mode: Wavelengths
Number of Pixels in Spectrum: 2048
>>>>>Begin Spectral Data<<<<<
177.721	-44.76
178.105	-140.26
178.488	-232.81
178.871	-223.73
179.254	-268.42
179.636	-98.76
180.019	-164.15
180.402	123.08
180.785	-104.82
181.168	70.59
181.55	79.59
181.933	23.42
182.316	56.12
182.698	18.05
183.081	45.39
183.463	55.04
183.846	28.03
184.228	24.5
184.611	13.61
184.993	-156
185.376	-2986.96
185.758	190.91
186.14	343.9
186.522	888.99
186.904	-924
187.287	-517.45
187.669	-212.73
188.051	-227.76
188.433	-223.12
188.815	-148.88
189.197	-122.55
189.579	-104.98
189.961	-163.24
190.342	-111.9
190.724	-103.26
191.106	-83.7
191.488	-79.84
191.869	-77.27
192.251	-53.76
192.633	-58.06
193.014	-47.75
193.396	-26.58
193.777	-8.2
194.159	1.36
194.54	-5.5
194.922	9.16
195.303	-11.49
195.684	-34.1
196.065	-33.97
196.447	-10.45
196.828	35.35
197.209	48.82
197.59	33.28
197.971	23.59
198.352	18.57
198.733	8.81
199.114	12.88
199.495	6.11
199.876	5.04
200.257	-38.07
200.638	-49.5
201.018	-92.17
201.399	-65.79
201.78	-81.17
202.16	-110.07
202.541	-98.52
202.922	-76.02
203.302	-117.18
203.683	-397.3
204.063	-165.67
204.444	-533.59
204.824	-253.85
205.204	-151.35
205.585	-225.23
205.965	-1357.63
206.345	738.04
206.725	999.08
207.106	689.4
207.486	691.3
207.866	166.53
208.246	145.64
208.626	-2465.22
209.006	-99.46
209.386	-172.24
209.766	-106.96
210.145	-80.25
210.525	-103.69
210.905	-121.32
211.285	-88.55
211.664	-32.25
212.044	-20.5
212.424	-19.81
212.803	-29.64
213.183	-33.53
213.562	-31.95
213.942	-24.58
214.321	-35.8
214.701	-46.4
215.08	-52.14
215.459	-32.55
215.838	-33.3
216.218	-38.88
216.597	-31.99
216.976	-36.34
217.355	-29.23
217.734	-39.23
218.113	-11.7
218.492	2.42
218.871	0.68
219.25	-5.15
219.629	-29.74
220.008	-32.18
220.387	-27.92
220.766	-16.31
221.144	-23.74
221.523	-28.16
221.902	-28.29
222.28	-18.71
222.659	-1.87
223.037	-4.61
223.416	-13.79
223.794	-11.52
224.173	-10.72
224.551	-9.15
224.929	-15.01
225.308	-22.43
225.686	-32
226.064	-40.31
226.442	-31.01
226.821	-27.72
227.199	-20.49
227.577	-13.75
227.955	-12.36
228.333	-14.88
228.711	-15.7
229.089	-14.71
229.467	-16.25
229.845	-13.83
230.222	-7.46
230.6	-7.93
230.978	-5.53
231.356	-2.42
231.733	-4.63
232.111	-4.32
232.488	-1.77
232.866	0.68
233.243	4.36
233.621	5.53
233.998	5.31
234.376	2.14
234.753	1.52
235.13	2.07
235.508	0.52
235.885	0.76
236.262	2.37
236.639	1.2
237.016	0.69
237.393	2.11
237.77	2.19
238.147	2.18
238.524	2.13
238.901	0.82
239.278	-1.29
239.655	0.6
240.032	0.7
240.409	-0.15
240.785	0.14
241.162	0.1
241.539	0.59
241.915	0.87
242.292	1.47
242.668	2.15
243.045	2.06
243.421	2.82
243.798	2.93
244.174	2.92
244.551	2.97
244.927	3.02
245.303	3.12
245.679	3.01
246.056	2.98
246.432	3.15
246.808	3.44
247.184	3.95
247.56	3.52
247.936	3.54
248.312	3.92
248.688	4.02
249.064	3.88
249.44	3.81
249.815	4.18
250.191	4.06
250.567	3.79
250.943	3.67
251.318	3.33
251.694	3.1
252.069	3.26
252.445	3.48
252.82	3.97
253.196	3.92
253.571	4.12
253.947	4
254.322	3.65
254.697	3.64
255.073	3.54
255.448	3.68
255.823	3.87
256.198	3.53
256.573	3.29
256.948	3.44
257.323	3.58
257.698	3.38
258.073	3.44
258.448	3.49
258.823	3.48
259.198	3.55
259.573	3.49
259.948	3.43
260.322	3.25
260.697	3.06
261.072	3.25
261.446	3.36
261.821	3.32
262.195	3.24
262.57	3.32
262.944	3.25
263.319	3.38
263.693	3.36
264.067	3.57
264.442	3.52
264.816	3.4
265.19	3.26
265.564	3.14
265.938	3.1
266.313	3.02
266.687	2.97
267.061	2.95
267.435	3.17
267.809	3.02
268.183	3.11
268.556	2.92
268.93	2.67
269.304	2.41
269.678	2.44
270.051	2.61
270.425	2.68
270.799	2.56
271.172	2.41
271.546	2.27
271.919	2.23
272.293	2.29
272.666	2.3
273.04	2.14
273.413	2.24
273.787	2.22
274.16	2.3
274.533	2.51
274.906	2.66
275.279	2.52
275.653	2.71
276.026	2.81
276.399	2.87
276.772	2.97
277.145	3.13
277.518	3.06
277.891	3.07
278.263	2.89
278.636	3.12
279.009	3.26
279.382	3.26
279.755	3.08
280.127	3.12
280.5	3.09
280.872	3.47
281.245	3.34
281.617	3.37
281.99	3.37
282.362	3.27
282.735	3.16
283.107	3.04
283.479	3.09
283.852	3.01
284.224	3.06
284.596	3.02
284.968	2.99
285.34	3.14
285.713	3.08
286.085	3.04
286.457	2.93
286.829	2.92
287.201	3.01
287.572	3.2
287.944	3.27
288.316	3.34
288.688	3.38
289.06	3.51
289.431	3.51
289.803	3.48
290.175	3.41
290.546	3.53
290.918	3.68
291.289	3.41
291.661	3.49
292.032	3.44
292.403	3.46
292.775	3.39
293.146	3.33
293.517	3.42
293.889	3.52
294.26	3.57
294.631	3.52
295.002	3.66
295.373	3.59
295.744	3.63
296.115	3.73
296.486	3.65
296.857	3.59
297.228	3.61
297.599	3.72
297.97	3.83
298.34	3.84
298.711	3.87
299.082	4.09
299.452	4.12
299.823	4.32
300.194	4.44
300.564	4.55
300.935	4.65
301.305	4.54
301.676	4.45
302.046	4.69
302.416	4.75
302.787	4.67
303.157	4.74
303.527	4.78
303.897	4.76
304.267	4.89
304.637	4.91
305.008	4.98
305.378	5.14
305.748	5.22
306.117	5.16
306.487	5.18
306.857	5.23
307.227	5.29
307.597	5.11
307.967	5.18
308.336	5.19
308.706	5.24
309.076	5.3
309.445	5.62
309.815	5.54
310.184	5.5
310.554	5.6
310.923	5.59
311.293	5.65
311.662	5.67
312.031	5.7
312.401	5.69
312.77	5.76
313.139	5.63
313.508	5.51
313.877	5.55
314.246	5.63
314.616	5.72
314.985	5.72
315.353	6
315.722	6.01
316.091	6.11
316.46	6.08
316.829	6.31
317.198	6.23
317.567	6.18
317.935	6.42
318.304	6.36
318.672	6.34
319.041	6.29
319.41	6.35
319.778	6.37
320.147	6.47
320.515	6.39
320.883	6.4
321.252	6.64
321.62	6.67
321.988	6.75
322.357	6.5
322.725	6.59
323.093	6.58
323.461	6.49
323.829	6.64
324.197	6.67
324.565	6.69
324.933	6.58
325.301	6.63
325.669	6.73
326.037	6.86
326.405	7.12
326.772	7
327.14	7.1
327.508	6.95
327.875	7.07
328.243	7.24
328.61	7.28
328.978	7.11
329.346	7.14
329.713	7.08
330.08	7.27
330.448	7.26
330.815	7.26
331.182	7.32
331.55	7.28
331.917	7.38
332.284	7.42
332.651	7.68
333.018	7.69
333.385	7.79
333.752	7.77
334.119	7.73
334.486	7.85
334.853	7.74
335.22	7.93
335.587	7.85
335.954	7.84
336.32	7.75
336.687	7.84
337.054	7.96
337.42	8.04
337.787	8.08
338.153	8.04
338.52	7.97
338.886	8.15
339.253	8.09
339.619	8.09
339.986	8.09
340.352	7.97
340.718	8.04
341.084	7.93
341.451	7.9
341.817	7.82
342.183	7.8
342.549	7.95
342.915	7.78
343.281	7.82
343.647	7.75
344.013	7.75
344.379	7.91
344.745	7.93
345.11	7.9
345.476	8.06
345.842	8.25
346.208	8.33
346.573	8.27
346.939	8.42
347.304	8.46
347.67	8.4
348.035	8.5
348.401	8.63
348.766	8.63
349.132	8.64
349.497	8.76
349.862	8.8
350.228	8.73
350.593	8.8
350.958	8.91
351.323	8.92
351.688	8.93
352.053	8.97
352.418	9.01
352.783	9
353.148	8.85
353.513	8.78
353.878	8.72
354.243	8.59
354.608	8.47
354.972	8.42
355.337	8.41
355.702	8.37
356.066	8.28
356.431	8.22
356.795	8.22
357.16	8.16
357.524	8.13
357.889	8.12
358.253	8.14
358.618	8.12
358.982	8.14
359.346	8.18
359.71	8.14
360.075	8.07
360.439	8.11
360.803	8.2
361.167	8.12
361.531	8.13
361.895	8.16
362.259	8.23
362.623	8.25
362.987	8.28
363.351	8.29
363.714	8.23
364.078	8.28
364.442	8.23
364.806	8.21
365.169	8.22
365.533	8.27
365.896	8.29
366.26	8.21
366.623	8.22
366.987	8.18
367.35	8.16
367.714	8.19
368.077	8.12
368.44	8.03
368.803	7.93
369.167	7.95
369.53	7.98
369.893	7.88
370.256	7.76
370.619	7.66
370.982	7.55
371.345	7.61
371.708	7.51
372.071	7.47
372.434	7.46
372.797	7.45
373.159	7.32
373.522	7.28
373.885	7.3
374.247	7.26
374.61	7.17
374.973	7.14
375.335	7.07
375.698	7.05
376.06	6.9
376.423	6.92
376.785	6.84
377.147	6.77
377.51	6.73
377.872	6.75
378.234	6.75
378.596	6.8
378.958	6.7
379.321	6.68
379.683	6.71
380.045	6.65
380.407	6.6
380.769	6.55
381.13	6.54
381.492	6.39
381.854	6.33
382.216	6.34
382.578	6.29
382.939	6.24
383.301	6.19
383.663	6.26
384.024	6.22
384.386	6.26
384.747	6.19
385.109	6.14
385.47	6.12
385.832	6.04
386.193	5.96
386.554	5.91
386.916	5.9
387.277	5.8
387.638	5.75
387.999	5.67
388.36	5.68
388.721	5.63
389.082	5.68
389.443	5.62
389.804	5.61
390.165	5.57
390.526	5.56
390.887	5.57
391.248	5.5
391.609	5.47
391.969	5.4
392.33	5.41
392.691	5.38
393.051	5.33
393.412	5.35
393.772	5.39
394.133	5.37
394.493	5.35
394.854	5.36
395.214	5.33
395.574	5.33
395.935	5.25
396.295	5.22
396.655	5.17
397.015	5.16
397.376	5.13
397.736	5.08
398.096	5.03
398.456	4.94
398.816	4.91
399.176	4.89
399.535	4.84
399.895	4.82
400.255	4.8
400.615	4.78
400.975	4.74
401.334	4.63
401.694	4.63
402.054	4.57
402.413	4.53
402.773	4.52
403.132	4.53
403.492	4.53
403.851	4.52
404.211	4.51
404.57	4.5
404.929	4.48
405.288	4.47
405.648	4.46
406.007	4.47
406.366	4.47
406.725	4.44
407.084	4.47
407.443	4.45
407.802	4.45
408.161	4.49
408.52	4.48
408.879	4.52
409.238	4.52
409.596	4.55
409.955	4.54
410.314	4.54
410.673	4.53
411.031	4.54
411.39	4.52
411.748	4.53
412.107	4.53
412.465	4.52
412.824	4.5
413.182	4.48
413.54	4.48
413.899	4.46
414.257	4.44
414.615	4.43
414.974	4.38
415.332	4.37
415.69	4.31
416.048	4.28
416.406	4.23
416.764	4.19
417.122	4.17
417.48	4.15
417.838	4.14
418.195	4.13
418.553	4.1
418.911	4.09
419.269	4.08
419.626	4.05
419.984	4.04
420.342	4.04
420.699	4.04
421.057	4.02
421.414	4
421.772	4
422.129	3.98
422.486	3.97
422.844	3.95
423.201	3.95
423.558	3.93
423.915	3.94
424.273	3.93
424.63	3.93
424.987	3.92
425.344	3.9
425.701	3.87
426.058	3.88
426.415	3.87
426.772	3.83
427.128	3.83
427.485	3.84
427.842	3.82
428.199	3.82
428.555	3.82
428.912	3.81
429.269	3.8
429.625	3.79
429.982	3.8
430.338	3.79
430.695	3.78
431.051	3.8
431.407	3.81
431.764	3.82
432.12	3.82
432.476	3.84
432.832	3.85
433.189	3.84
433.545	3.83
433.901	3.83
434.257	3.85
434.613	3.82
434.969	3.81
435.325	3.8
435.681	3.78
436.036	3.78
436.392	3.78
436.748	3.78
437.104	3.77
437.459	3.76
437.815	3.78
438.171	3.79
438.526	3.8
438.882	3.8
439.237	3.78
439.593	3.76
439.948	3.77
440.304	3.77
440.659	3.76
441.014	3.75
441.369	3.76
441.725	3.74
442.08	3.75
442.435	3.76
442.79	3.75
443.145	3.77
443.5	3.74
443.855	3.73
444.21	3.73
444.565	3.73
444.92	3.73
445.275	3.73
445.629	3.72
445.984	3.7
446.339	3.68
446.693	3.69
447.048	3.68
447.403	3.66
447.757	3.65
448.112	3.69
448.466	3.67
448.82	3.64
449.175	3.65
449.529	3.65
449.883	3.63
450.238	3.64
450.592	3.64
450.946	3.65
451.3	3.66
451.654	3.64
452.008	3.63
452.362	3.61
452.716	3.61
453.07	3.62
453.424	3.62
453.778	3.63
454.132	3.6
454.486	3.62
454.839	3.61
455.193	3.62
455.547	3.59
455.9	3.59
456.254	3.59
456.607	3.59
456.961	3.6
457.314	3.59
457.668	3.6
458.021	3.59
458.375	3.6
458.728	3.59
459.081	3.59
459.434	3.6
459.787	3.61
460.141	3.61
460.494	3.6
460.847	3.61
461.2	3.6
461.553	3.61
461.906	3.61
462.259	3.62
462.611	3.61
462.964	3.62
463.317	3.63
463.67	3.66
464.022	3.68
464.375	3.7
464.728	3.72
465.08	3.73
465.433	3.73
465.785	3.74
466.138	3.76
466.49	3.79
466.843	3.82
467.195	3.82
467.547	3.82
467.899	3.84
468.252	3.85
468.604	3.89
468.956	3.9
469.308	3.91
469.66	3.94
470.012	3.96
470.364	3.99
470.716	4.02
471.068	4.05
471.42	4.04
471.772	4.05
472.123	4.06
472.475	4.06
472.827	4.07
473.178	4.08
473.53	4.1
473.882	4.09
474.233	4.07
474.585	4.11
474.936	4.11
475.288	4.11
475.639	4.14
475.99	4.11
476.342	4.11
476.693	4.11
477.044	4.11
477.395	4.12
477.746	4.08
478.097	4.09
478.448	4.07
478.8	4.07
479.15	4.04
479.501	4.01
479.852	4.01
480.203	4.02
480.554	4
480.905	3.98
481.255	3.99
481.606	4
481.957	3.98
482.307	3.97
482.658	3.96
483.009	3.94
483.359	3.94
483.709	3.94
484.06	3.95
484.41	3.94
484.761	3.96
485.111	3.96
485.461	3.95
485.811	3.94
486.162	3.95
486.512	3.96
486.862	3.98
487.212	3.99
487.562	3.97
487.912	3.98
488.262	3.98
488.612	3.98
488.961	3.98
489.311	3.98
489.661	4
490.011	4
490.36	4
490.71	4.01
491.06	4.02
491.409	4.02
491.759	4.03
492.108	4
492.458	4.02
492.807	4.04
493.157	4.05
493.506	4.06
493.855	4.06
494.204	4.06
494.554	4.07
494.903	4.12
495.252	4.15
495.601	4.18
495.95	4.2
496.299	4.27
496.648	4.3
496.997	4.33
497.346	4.38
497.695	4.43
498.043	4.48
498.392	4.51
498.741	4.57
499.09	4.6
499.438	4.65
499.787	4.7
500.135	4.74
500.484	4.8
500.832	4.84
501.181	4.9
501.529	4.99
501.878	5.05
502.226	5.1
502.574	5.17
502.923	5.23
503.271	5.31
503.619	5.35
503.967	5.41
504.315	5.5
504.663	5.56
505.011	5.64
505.359	5.7
505.707	5.77
506.055	5.84
506.403	5.95
506.751	6.04
507.098	6.11
507.446	6.23
507.794	6.31
508.141	6.42
508.489	6.53
508.837	6.61
509.184	6.7
509.531	6.79
509.879	6.87
510.226	6.94
510.574	7.04
510.921	7.15
511.268	7.24
511.616	7.37
511.963	7.46
512.31	7.56
512.657	7.67
513.004	7.74
513.351	7.85
513.698	7.96
514.045	8.07
514.392	8.2
514.739	8.31
515.086	8.41
515.432	8.52
515.779	8.59
516.126	8.7
516.473	8.8
516.819	8.88
517.166	8.99
517.512	9.11
517.859	9.22
518.205	9.3
518.552	9.4
518.898	9.43
519.245	9.55
519.591	9.63
519.937	9.72
520.283	9.84
520.629	9.94
520.976	10.02
521.322	10.14
521.668	10.25
522.014	10.35
522.36	10.46
522.706	10.61
523.052	10.79
523.398	10.92
523.743	11.07
524.089	11.26
524.435	11.4
524.781	11.55
525.126	11.66
525.472	11.79
525.817	11.9
526.163	12.04
526.509	12.11
526.854	12.21
527.199	12.32
527.545	12.42
527.89	12.51
528.235	12.61
528.581	12.71
528.926	12.81
529.271	12.92
529.616	13.03
529.961	13.14
530.306	13.25
530.651	13.35
530.996	13.49
531.341	13.6
531.686	13.73
532.031	13.85
532.376	14.01
532.721	14.14
533.065	14.29
533.41	14.44
533.755	14.61
534.099	14.79
534.444	14.95
534.788	15.11
535.133	15.28
535.477	15.47
535.822	15.67
536.166	15.87
536.51	16.08
536.855	16.32
537.199	16.57
537.543	16.83
537.887	17.11
538.231	17.35
538.576	17.62
538.92	17.89
539.264	18.13
539.608	18.35
539.951	18.63
540.295	18.84
540.639	19.06
540.983	19.28
541.327	19.49
541.671	19.7
542.014	19.9
542.358	20.12
542.701	20.34
543.045	20.55
543.389	20.75
543.732	21
544.075	21.21
544.419	21.44
544.762	21.66
545.105	21.9
545.449	22.18
545.792	22.44
546.135	22.7
546.478	23.01
546.821	23.35
547.165	23.62
547.508	23.96
547.851	24.27
548.194	24.58
548.536	24.87
548.879	25.2
549.222	25.55
549.565	25.87
549.908	26.16
550.25	26.47
550.593	26.82
550.936	27.15
551.278	27.48
551.621	27.82
551.963	28.17
552.306	28.47
552.648	28.81
552.991	29.1
553.333	29.42
553.675	29.77
554.017	30.07
554.36	30.34
554.702	30.65
555.044	30.95
555.386	31.24
555.728	31.57
556.07	31.89
556.412	32.21
556.754	32.52
557.096	32.88
557.438	33.18
557.78	33.5
558.121	33.75
558.463	34.06
558.805	34.31
559.147	34.58
559.488	34.9
559.83	35.15
560.171	35.44
560.513	35.74
560.854	35.95
561.196	36.21
561.537	36.5
561.878	36.76
562.22	37.08
562.561	37.35
562.902	37.56
563.243	37.76
563.584	37.99
563.925	38.23
564.266	38.47
564.607	38.71
564.948	38.95
565.289	39.16
565.63	39.39
565.971	39.61
566.312	39.86
566.653	40.07
566.993	40.26
567.334	40.51
567.675	40.77
568.015	41.01
568.356	41.26
568.696	41.46
569.037	41.72
569.377	41.87
569.718	42.04
570.058	42.34
570.398	42.57
570.739	42.8
571.079	42.92
571.419	43.1
571.759	43.26
572.099	43.42
572.439	43.63
572.779	43.76
573.119	43.95
573.459	44.09
573.799	44.24
574.139	44.41
574.479	44.56
574.819	44.68
575.158	44.86
575.498	44.97
575.838	45.12
576.177	45.16
576.517	45.37
576.856	45.57
577.196	45.69
577.535	45.83
577.875	45.95
578.214	46.17
578.553	46.4
578.893	46.48
579.232	46.63
579.571	46.79
579.91	47
580.25	47.15
580.589	47.26
580.928	47.43
581.267	47.58
581.606	47.67
581.945	47.79
582.283	47.9
582.622	48.04
582.961	48.17
583.3	48.41
583.639	48.51
583.977	48.61
584.316	48.71
584.654	48.77
584.993	48.96
585.332	49.05
585.67	49.08
586.008	49.27
586.347	49.41
586.685	49.51
587.024	49.58
587.362	49.67
587.7	49.78
588.038	49.86
588.376	49.84
588.715	49.96
589.053	50.04
589.391	50.1
589.729	50.18
590.067	50.31
590.404	50.35
590.742	50.52
591.08	50.63
591.418	50.72
591.756	50.85
592.093	50.85
592.431	50.98
592.769	51.07
593.106	51.18
593.444	51.24
593.781	51.32
594.119	51.4
594.456	51.46
594.793	51.5
595.131	51.68
595.468	51.83
595.805	51.92
596.143	51.94
596.48	51.98
596.817	52.08
597.154	52.12
597.491	52.19
597.828	52.2
598.165	52.26
598.502	52.38
598.839	52.51
599.176	52.59
599.512	52.63
599.849	52.68
600.186	52.76
600.523	52.88
600.859	52.92
601.196	52.98
601.532	53.1
601.869	53.17
602.205	53.13
602.542	53.16
602.878	53.22
603.215	53.27
603.551	53.4
603.887	53.41
604.223	53.39
604.56	53.44
604.896	53.47
605.232	53.5
605.568	53.56
605.904	53.54
606.24	53.64
606.576	53.75
606.912	53.81
607.248	53.79
607.583	53.83
607.919	53.93
608.255	53.98
608.591	54.04
608.926	54.12
609.262	54.17
609.597	54.32
609.933	54.31
610.268	54.41
610.604	54.42
610.939	54.54
611.275	54.66
611.61	54.68
611.945	54.72
612.281	54.75
612.616	54.75
612.951	54.88
613.286	54.84
613.621	54.8
613.956	54.89
614.291	54.98
614.626	54.94
614.961	55.01
615.296	55.04
615.631	54.97
615.966	55.03
616.3	55.13
616.635	55.06
616.97	55.16
617.304	55.17
617.639	55.22
617.973	55.12
618.308	55.15
618.642	55.18
618.977	55.29
619.311	55.46
619.646	55.57
619.98	55.53
620.314	55.63
620.648	55.73
620.983	55.74
621.317	55.79
621.651	55.86
621.985	55.84
622.319	55.82
622.653	55.93
622.987	55.91
623.321	55.93
623.655	55.97
623.988	56.04
624.322	56.16
624.656	56.16
624.99	56.27
625.323	56.19
625.657	56.24
625.99	56.21
626.324	56.14
626.657	56.08
626.991	56.16
627.324	56.19
627.658	56.23
627.991	56.29
628.324	56.33
628.657	56.35
628.991	56.4
629.324	56.46
629.657	56.46
629.99	56.64
630.323	56.66
630.656	56.69
630.989	56.66
631.322	56.62
631.655	56.56
631.987	56.48
632.32	56.63
632.653	56.71
632.986	56.62
633.318	56.74
633.651	56.71
633.984	56.7
634.316	56.59
634.649	56.48
634.981	56.45
635.313	56.47
635.646	56.57
635.978	56.52
636.31	56.55
636.643	56.59
636.975	56.52
637.307	56.56
637.639	56.58
637.971	56.55
638.303	56.53
638.635	56.73
638.967	56.92
639.299	56.96
639.631	56.94
639.963	57.03
640.295	56.93
640.626	57.08
640.958	56.98
641.29	57.12
641.621	57.23
641.953	57.25
642.285	57.25
642.616	57.14
642.948	57.18
643.279	57.24
643.61	57.32
643.942	57.24
644.273	57.2
644.604	57.26
644.936	57.3
645.267	57.33
645.598	57.28
645.929	57.19
646.26	57.07
646.591	57.03
646.922	57.15
647.253	57.22
647.584	57.24
647.915	57.38
648.245	57.47
648.576	57.52
648.907	57.58
649.238	57.56
649.568	57.62
649.899	57.65
650.229	57.75
650.56	57.8
650.89	57.77
651.221	57.72
651.551	57.72
651.882	57.91
652.212	57.8
652.542	57.85
652.872	58.03
653.203	58.09
653.533	58.17
653.863	58.19
654.193	58.07
654.523	58.06
654.853	57.96
655.183	58.01
655.513	58.06
655.843	58.07
656.172	58.15
656.502	58.22
656.832	58.09
657.162	58.11
657.491	58.09
657.821	58.17
658.15	58.31
658.48	58.17
658.809	58.03
659.139	58.19
659.468	58.3
659.798	58.18
660.127	58.18
660.456	58.17
660.785	58.13
661.115	58.39
661.444	58.53
661.773	58.62
662.102	58.53
662.431	58.51
662.76	58.49
663.089	58.5
663.418	58.43
663.747	58.65
664.076	58.56
664.404	58.48
664.733	58.46
665.062	58.45
665.39	58.65
665.719	58.84
666.048	58.81
666.376	58.83
666.705	58.85
667.033	59.01
667.362	58.99
667.69	58.86
668.018	58.65
668.347	58.57
668.675	58.7
669.003	58.77
669.331	58.89
669.659	58.78
669.987	58.74
670.315	58.85
670.643	58.75
670.971	58.9
671.299	58.99
671.627	59.12
671.955	59.18
672.283	59.18
672.61	59.03
672.938	59.1
673.266	59.02
673.593	58.97
673.921	58.81
674.249	58.87
674.576	59.05
674.904	59.18
675.231	59.14
675.558	59.06
675.886	59.01
676.213	58.98
676.54	59.08
676.867	59.14
677.195	59.13
677.522	59.29
677.849	59.37
678.176	59.33
678.503	59.3
678.83	59.27
679.157	59.19
679.484	59.19
679.81	59.22
680.137	59.25
680.464	59.39
680.791	59.59
681.117	59.64
681.444	59.66
681.771	59.65
682.097	59.75
682.424	59.8
682.75	59.94
683.077	59.96
683.403	60.07
683.729	60.11
684.056	60.22
684.382	60.29
684.708	60.23
685.034	60.34
685.36	60.35
685.686	60.38
686.012	60.57
686.339	60.6
686.664	60.55
686.99	60.49
687.316	60.48
687.642	60.35
687.968	60.36
688.294	60.24
688.619	60.3
688.945	60.14
689.271	60.1
689.596	59.91
689.922	59.98
690.247	59.94
690.573	59.88
690.898	59.73
691.224	59.45
691.549	59.4
691.874	59.31
692.2	59.53
692.525	59.49
692.85	59.57
693.175	59.67
693.5	59.65
693.825	59.58
694.15	59.61
694.475	59.63
694.8	59.55
695.125	59.85
695.45	59.93
695.775	59.95
696.099	59.93
696.424	59.95
696.749	59.96
697.073	60.06
697.398	60.01
697.723	60.12
698.047	60.35
698.372	60.38
698.696	60.45
699.02	60.38
699.345	60.42
699.669	60.43
699.993	60.57
700.318	60.57
700.642	60.77
700.966	60.73
701.29	60.86
701.614	61.08
701.938	60.97
702.262	60.98
702.586	61.04
702.91	61.15
703.234	61.25
703.557	61.28
703.881	61.27
704.205	61.56
704.529	61.49
704.852	61.15
705.176	61.16
705.499	61.1
705.823	61.03
706.146	60.99
706.47	60.93
706.793	60.57
707.117	60.47
707.44	60.34
707.763	60.25
708.086	60.12
708.409	59.76
708.733	59.91
709.056	59.92
709.379	60.13
709.702	59.99
710.025	60.11
710.348	60.11
710.671	60.1
710.993	60.03
711.316	60.2
711.639	60.51
711.962	60.71
712.284	60.75
712.607	60.78
712.93	60.79
713.252	60.54
713.575	60.68
713.897	61.07
714.22	61.12
714.542	61.21
714.864	61.46
715.187	61.5
715.509	61.37
715.831	61.36
716.153	61.13
716.475	61.37
716.798	61.2
717.12	60.9
717.442	60.98
717.764	61.04
718.085	60.81
718.407	60.93
718.729	60.52
719.051	60.47
719.373	60.54
719.695	60.7
720.016	60.8
720.338	60.9
720.659	60.77
720.981	60.31
721.302	60.41
721.624	60.12
721.945	60.42
722.267	60.4
722.588	60.23
722.909	60.16
723.231	59.9
723.552	60.18
723.873	60.81
724.194	60.48
724.515	60.29
724.836	60.42
725.157	60.17
725.478	60.52
725.799	60.88
726.12	60.72
726.441	60.74
726.762	60.84
727.083	60.83
727.403	60.71
727.724	61.24
728.045	61.37
728.365	61.39
728.686	61.16
729.006	61.05
729.327	61.12
729.647	61.28
729.967	61.39
730.288	61.26
730.608	61.13
730.928	61.33
731.249	61.42
731.569	61.38
731.889	61.51
732.209	61.39
732.529	61.17
732.849	60.96
733.169	60.93
733.489	60.84
733.809	60.54
734.129	60.64
734.448	60.49
734.768	60.33
735.088	60.35
735.408	60.56
735.727	60.8
736.047	60.75
736.366	60.69
736.686	60.7
737.005	60.62
737.325	60.61
737.644	60.45
737.963	60.61
738.283	60.61
738.602	60.68
738.921	60.73
739.24	60.79
739.56	61.07
739.879	60.74
740.198	61.03
740.517	61
740.836	60.76
741.155	60.81
741.473	60.78
741.792	60.86
742.111	60.83
742.43	60.89
742.748	61.08
743.067	61.24
743.386	61.05
743.704	61.24
744.023	61.57
744.341	61.73
744.66	61.48
744.978	61.79
745.297	61.46
745.615	61.26
745.933	61.35
746.252	61.36
746.57	61.97
746.888	61.95
747.206	62.42
747.524	62.6
747.842	62.82
748.16	63.2
748.478	63.05
748.796	62.91
749.114	62.62
749.432	62.51
749.749	62.31
750.067	62.4
750.385	62.38
750.703	61.67
751.02	61.71
751.338	61.78
751.655	61.68
751.973	61.95
752.29	62.58
752.608	62.59
752.925	62.48
753.242	61.98
753.56	61.59
753.877	61.44
754.194	61.31
754.511	61.2
754.828	61.18
755.145	61.04
755.462	61.73
755.779	61.99
756.096	62.1
756.413	62.25
756.73	62.36
757.047	62.39
757.364	62.64
757.68	62.8
757.997	63.13
758.314	63.35
758.63	63.24
758.947	62.91
759.264	62.84
759.58	63.17
759.896	63.56
760.213	63.79
760.529	63.88
760.846	64.5
761.162	64.6
761.478	64.11
761.794	64.26
762.11	63.78
762.426	63.52
762.743	63.28
763.059	63.37
763.375	63.38
763.69	63.25
764.006	62.96
764.322	62.76
764.638	62.65
764.954	62.4
765.27	62.46
765.585	62.22
765.901	62.03
766.216	61.86
766.532	61.75
766.848	61.9
767.163	61.96
767.478	61.36
767.794	61.15
768.109	61.39
768.424	61.28
768.74	61.33
769.055	61.63
769.37	61.8
769.685	61.58
770	61.62
770.315	61.72
770.63	62.1
770.945	62.14
771.26	62.26
771.575	62.46
771.89	62.37
772.205	62.83
772.52	63.24
772.834	63.12
773.149	63.04
773.464	62.14
773.778	62.21
774.093	62.53
774.407	62.5
774.722	62.44
775.036	62.59
775.351	62.81
775.665	62.49
775.979	62.48
776.293	62.35
776.608	62.14
776.922	62.13
777.236	62.25
777.55	62.58
777.864	61.9
778.178	62.14
778.492	62.48
778.806	62.35
779.12	61.99
779.434	62.05
779.747	61.95
780.061	62.63
780.375	62.42
780.689	62.18
781.002	62.26
781.316	62.55
781.629	63.06
781.943	62
782.256	62.34
782.57	62.59
782.883	62.78
783.196	62.92
783.51	62.91
783.823	62.85
784.136	62.69
784.449	62.93
784.762	62.91
785.075	62.28
785.388	62.37
785.701	62.87
786.014	62.93
786.327	62.95
786.64	62.96
786.953	62.91
787.266	62.94
787.578	62.9
787.891	62.39
788.204	61.88
788.516	62.2
788.829	62.08
789.141	62.16
789.454	62.21
789.766	62.5
790.079	62.17
790.391	62.03
790.703	62.33
791.016	62.35
791.328	62.07
791.64	62.34
791.952	62.22
792.264	61.85
792.576	62.4
792.888	62.27
793.2	62.31
793.512	62.33
793.824	62.3
794.136	62.63
794.448	63.16
794.76	62.82
795.071	63.3
795.383	63.4
795.695	63.27
796.006	62.42
796.318	61.7
796.629	62.53
796.941	62.77
797.252	62.49
797.564	62.72
797.875	62.12
798.186	62.46
798.497	62.99
798.809	63.14
799.12	62.37
799.431	62.63
799.742	62.67
800.053	62.68
800.364	63.3
800.675	62.88
800.986	62.1
801.297	62.43
801.608	61.92
801.918	61.78
802.229	61.22
802.54	62.28
802.851	62.96
803.161	62.49
803.472	62.66
803.782	63.21
804.093	62.8
804.403	63.43
804.714	63.39
805.024	63.27
805.334	62.7
805.645	63.12
805.955	63.32
806.265	63.82
806.575	64.36
806.885	63.84
807.195	63.63
807.505	64.05
807.815	64.77
808.125	65.3
808.435	65.09
808.745	65.53
809.055	65.15
809.365	65.25
809.674	65.08
809.984	64.55
810.294	64.17
810.603	63.7
810.913	63.98
811.222	64.39
811.532	63.98
811.841	64.85
812.151	64.35
812.46	63.62
812.769	62.81
813.079	63.2
813.388	63.44
813.697	64.55
814.006	65.05
814.315	64.06
814.624	64.1
814.933	64.35
815.242	65.03
815.551	65.27
815.86	65.66
816.169	65.57
816.478	66.08
816.786	66.45
817.095	67.77
817.404	67.39
817.712	66.58
818.021	66.78
818.33	66.81
818.638	67.38
818.947	67.64
819.255	67.73
819.563	66.67
819.872	66.6
820.18	66.34
820.488	65.79
820.796	65.94
821.105	66.08
821.413	66.34
821.721	66.29
822.029	66.62
822.337	66.29
822.645	66.42
822.953	66.29
823.26	66.03
823.568	66.05
823.876	66.02
824.184	65.92
824.491	65.73
824.799	65.68
825.107	65.74
825.414	65.68
825.722	65.69
826.029	65.82
826.337	65.53
826.644	65.67
826.951	65.97
827.259	66.05
827.566	65.82
827.873	65.45
828.18	65.17
828.488	65.04
828.795	65.18
829.102	65.02
829.409	65.08
829.716	64.83
830.023	64.61
830.329	64.46
830.636	64.82
830.943	64.79
831.25	64.88
831.557	64.2
831.863	64.07
832.17	64.2
832.476	64.27
832.783	65.15
833.089	64.62
833.396	64.7
833.702	63.95
834.009	64.45
834.315	64.84
834.621	64.93
834.928	64.34
835.234	64.35
835.54	64.84
835.846	65.36
836.152	65.96
836.458	65.98
836.764	66.21
837.07	66.45
837.376	66.72
837.682	66.76
837.988	67.56
838.293	68.97
838.599	69.3
838.905	69.05
839.211	67.75
839.516	68.72
839.822	68.6
840.127	69.27
840.433	69.04
840.738	68.49
841.044	68.74
841.349	68.33
841.654	68.2
841.959	67.2
842.265	65.78
842.57	65.14
842.875	65.32
843.18	65.65
843.485	64.49
843.79	65.03
844.095	63.54
844.4	63.62
844.705	62.11
845.01	61.63
845.315	60.95
845.619	63.25
845.924	61.89
846.229	61.8
846.533	61.89
846.838	61.08
847.142	62.85
847.447	62.94
847.751	62.64
848.056	65.48
848.36	64.95
848.664	63.14
848.969	63.9
849.273	63.22
849.577	61.09
849.881	61.15
850.185	60.19
850.489	61.09
850.794	61.64
851.097	60.71
851.401	61.68
851.705	62.19
852.009	61
852.313	61.31
852.617	60.6
852.92	60.92
853.224	61.38
853.528	60.85
853.831	59.57
854.135	61.6
854.438	58.68
854.742	60.23
855.045	62.94
855.349	62.07
855.652	64.36
855.955	66.24
856.259	66.64
856.562	67.37
856.865	68.82
857.168	67.33
857.471	66.45
857.774	65.26
858.077	67.52
858.38	70
858.683	71.14
858.986	72.53
859.289	74.43
859.592	76.88
859.894	77.01
860.197	79.23
860.5	77.08
860.802	74.96
861.105	73.1
861.407	74.12
861.71	75.16
862.012	73.36
862.315	71.9
862.617	72.01
862.919	72.54
863.222	72.12
863.524	72.14
863.826	75.4
864.128	74.07
864.43	70.26
864.732	67.27
865.034	66.15
865.336	66.18
865.638	66.35
865.94	67.66
866.242	66.38
866.544	66.32
866.846	69.48
867.147	72.54
867.449	73.88
867.751	72.38
868.052	73.9
868.354	75.23
868.655	76.33
868.957	76.17
869.258	76.74
869.56	75.7
869.861	78.35
870.162	80.6
870.463	79.53
870.765	81.83
871.066	81.94
871.367	80.56
871.668	79.37
871.969	78.4
872.27	75.08
872.571	76.83
872.872	76.9
873.173	72.18
873.473	74.47
873.774	71.65
874.075	71.13
874.376	67.71
874.676	64.54
874.977	63.86
875.277	64.46
875.578	64.91
875.878	65.47
876.179	63
876.479	58.42
876.78	59
877.08	59.56
877.38	60.33
877.68	61.91
877.981	60.41
878.281	58.95
878.581	58.47
