Data from MVZ_BU88648_Reflection_00001.txt Node
Date: Tue Nov 19 12:01:53 EST 2019
User: vgr7
Spectrometer: USB2G7710
Scans to average: 3
Trigger mode: 4
Integration Time (sec): 2.000000E-2
Electric dark correction enabled: true
Boxcar width: 10
XAxis mode: Wavelengths
Number of Pixels in Spectrum: 2048
>>>>>Begin Spectral Data<<<<<
177.721	842.65
178.105	75.9
178.488	85.66
178.871	334.62
179.254	86.54
179.636	93.24
180.019	24.52
180.402	100
180.785	-45.35
181.168	-39.86
181.55	-109.82
181.933	239.42
182.316	-29.46
182.698	25.32
183.081	-25.88
183.463	4.34
183.846	10.88
184.228	-32.51
184.611	-40.03
184.993	-27.13
185.376	19.67
185.758	38.72
186.14	58.86
186.522	48.14
186.904	52.36
187.287	132.38
187.669	103.04
188.051	123.78
188.433	81.41
188.815	76.32
189.197	55.62
189.579	58.72
189.961	31.77
190.342	49.24
190.724	14.19
191.106	-15.07
191.488	-42.28
191.869	-46.22
192.251	-16.17
192.633	-35.87
193.014	-99.86
193.396	-136.64
193.777	-127.53
194.159	-144.04
194.54	-137.47
194.922	-194.8
195.303	-199.51
195.684	-307.8
196.065	-352.35
196.447	-317.82
196.828	-456.82
197.209	-309.16
197.59	-192.25
197.971	-122.88
198.352	-131.35
198.733	-135.27
199.114	-153.59
199.495	-206.17
199.876	-356.74
200.257	-415.13
200.638	-194.33
201.018	-152.12
201.399	-136.72
201.78	-154.24
202.16	-166.54
202.541	-181.82
202.922	-151
203.302	-145.17
203.683	-122.81
204.063	-85.18
204.444	-71.75
204.824	-64.29
205.204	-60.63
205.585	-60.95
205.965	-66.57
206.345	-73.74
206.725	-52.41
207.106	-42.56
207.486	-24.56
207.866	-6.86
208.246	-5.99
208.626	-9.09
209.006	-13.86
209.386	-8.64
209.766	-12.28
210.145	9.35
210.525	18.93
210.905	16.37
211.285	12.92
211.664	9.11
212.044	-3.35
212.424	-9.14
212.803	-12.75
213.183	-16.78
213.562	-19.1
213.942	-11.34
214.321	-9.65
214.701	-24.45
215.08	-19.87
215.459	-17.18
215.838	-13.31
216.218	-11.56
216.597	-10.18
216.976	-16.48
217.355	-11.46
217.734	-11.13
218.113	-7.19
218.492	-11.02
218.871	-14.03
219.25	-14.88
219.629	-12.14
220.008	-2.23
220.387	-3.89
220.766	5.22
221.144	0.37
221.523	-16.1
221.902	-16.02
222.28	-20.05
222.659	9.54
223.037	-3.1
223.416	-5.09
223.794	-10.52
224.173	-19.11
224.551	-19.21
224.929	-8.86
225.308	-10.43
225.686	-6.06
226.064	-13.98
226.442	-13.15
226.821	-10.1
227.199	-8.29
227.577	-9.56
227.955	-6.02
228.333	-11.03
228.711	-12.47
229.089	-8.57
229.467	-4.43
229.845	-5.48
230.222	-2.77
230.6	-6.63
230.978	-3.18
231.356	-3.79
231.733	-0.46
232.111	0.64
232.488	-0.52
232.866	-0.49
233.243	-2.56
233.621	-4.33
233.998	-3.13
234.376	-2.3
234.753	0.71
235.13	0.7
235.508	0.52
235.885	-0.92
236.262	2.51
236.639	1.81
237.016	1.62
237.393	2.33
237.77	2.91
238.147	3.49
238.524	2.78
238.901	1.99
239.278	1.95
239.655	0.7
240.032	1.73
240.409	2.3
240.785	2.22
241.162	3.25
241.539	3.23
241.915	3
242.292	3.12
242.668	2.38
243.045	2.63
243.421	3.33
243.798	3.09
244.174	3.19
244.551	3.53
244.927	3.33
245.303	3.25
245.679	2.95
246.056	2.69
246.432	3.07
246.808	3.32
247.184	3.16
247.56	3.24
247.936	3.16
248.312	3.44
248.688	3.57
249.064	3.15
249.44	3.33
249.815	3.44
250.191	3.34
250.567	3.49
250.943	3.13
251.318	3.07
251.694	3.01
252.069	2.48
252.445	2.12
252.82	2.46
253.196	2.56
253.571	2.93
253.947	2.79
254.322	2.55
254.697	2.04
255.073	2.08
255.448	2.22
255.823	2.29
256.198	2.31
256.573	2.36
256.948	2.72
257.323	2.87
257.698	2.78
258.073	2.94
258.448	3.07
258.823	2.99
259.198	2.68
259.573	2.76
259.948	3.05
260.322	3.11
260.697	3.13
261.072	2.94
261.446	2.8
261.821	2.85
262.195	2.93
262.57	3.23
262.944	3.27
263.319	3.12
263.693	3.15
264.067	3.03
264.442	2.85
264.816	2.48
265.19	2.35
265.564	2.39
265.938	2.16
266.313	1.91
266.687	2.25
267.061	2.44
267.435	2.73
267.809	2.61
268.183	2.53
268.556	2.35
268.93	2.46
269.304	2.38
269.678	2.48
270.051	2.44
270.425	2.22
270.799	2.14
271.172	2.38
271.546	2.27
271.919	2.23
272.293	2.23
272.666	2.48
273.04	2.46
273.413	2.34
273.787	2.22
274.16	2.18
274.533	2.17
274.906	2.28
275.279	2.03
275.653	2.04
276.026	2.1
276.399	2.05
276.772	2.08
277.145	2.12
277.518	1.91
277.891	1.8
278.263	1.96
278.636	2.07
279.009	2
279.382	2.06
279.755	2.16
280.127	2.31
280.5	2.41
280.872	2.51
281.245	2.56
281.617	2.76
281.99	2.85
282.362	2.71
282.735	2.72
283.107	2.69
283.479	2.69
283.852	2.72
284.224	2.79
284.596	2.75
284.968	2.68
285.34	2.73
285.713	2.78
286.085	2.64
286.457	2.67
286.829	2.59
287.201	2.51
287.572	2.32
287.944	2.45
288.316	2.46
288.688	2.3
289.06	2.41
289.431	2.38
289.803	2.36
290.175	2.34
290.546	2.26
290.918	2.19
291.289	2.05
291.661	2.19
292.032	2.16
292.403	2.22
292.775	2.48
293.146	2.6
293.517	2.48
293.889	2.53
294.26	2.46
294.631	2.56
295.002	2.6
295.373	2.66
295.744	2.36
296.115	2.36
296.486	2.53
296.857	2.51
297.228	2.49
297.599	2.39
297.97	2.57
298.34	2.67
298.711	2.68
299.082	3.02
299.452	2.91
299.823	2.89
300.194	2.91
300.564	2.64
300.935	2.76
301.305	2.79
301.676	2.89
302.046	2.97
302.416	2.77
302.787	2.81
303.157	2.85
303.527	3.04
303.897	2.97
304.267	2.97
304.637	2.97
305.008	2.96
305.378	2.93
305.748	2.89
306.117	2.65
306.487	2.75
306.857	2.6
307.227	2.68
307.597	2.78
307.967	2.75
308.336	2.94
308.706	2.84
309.076	3.03
309.445	3.01
309.815	2.93
310.184	3.01
310.554	2.93
310.923	2.91
311.293	2.91
311.662	3.02
312.031	2.95
312.401	2.89
312.77	2.91
313.139	3.06
313.508	2.99
313.877	3.11
314.246	3.11
314.616	3.02
314.985	3.02
315.353	2.93
315.722	2.93
316.091	2.92
316.46	2.84
316.829	2.81
317.198	2.86
317.567	2.72
317.935	2.85
318.304	3.01
318.672	2.91
319.041	2.8
319.41	2.7
319.778	2.83
320.147	2.8
320.515	2.89
320.883	2.75
321.252	2.73
321.62	2.66
321.988	2.61
322.357	2.54
322.725	2.45
323.093	2.42
323.461	2.29
323.829	2.26
324.197	2.25
324.565	2.11
324.933	1.92
325.301	1.91
325.669	1.92
326.037	1.72
326.405	1.9
326.772	2.03
327.14	2.03
327.508	1.82
327.875	1.92
328.243	1.92
328.61	1.94
328.978	1.92
329.346	2.02
329.713	2.02
330.08	2.18
330.448	2.26
330.815	2.32
331.182	2.44
331.55	2.42
331.917	2.41
332.284	2.62
332.651	2.72
333.018	2.88
333.385	2.85
333.752	2.9
334.119	2.88
334.486	2.75
334.853	2.67
335.22	2.66
335.587	2.55
335.954	2.47
336.32	2.57
336.687	2.72
337.054	2.63
337.42	2.63
337.787	2.54
338.153	2.55
338.52	2.59
338.886	2.67
339.253	2.67
339.619	2.7
339.986	2.54
340.352	2.54
340.718	2.45
341.084	2.47
341.451	2.42
341.817	2.34
342.183	2.42
342.549	2.65
342.915	2.82
343.281	2.86
343.647	2.85
344.013	2.76
344.379	2.74
344.745	2.72
345.11	2.65
345.476	2.74
345.842	2.71
346.208	2.8
346.573	2.75
346.939	2.77
347.304	2.83
347.67	2.84
348.035	2.94
348.401	3.09
348.766	3.05
349.132	3.17
349.497	3.29
349.862	3.32
350.228	3.18
350.593	3.14
350.958	3.19
351.323	3.2
351.688	3.21
352.053	3.15
352.418	3.26
352.783	3.36
353.148	3.24
353.513	3.25
353.878	3.09
354.243	2.93
354.608	2.94
354.972	2.91
355.337	2.85
355.702	2.91
356.066	2.86
356.431	2.88
356.795	2.93
357.16	2.86
357.524	2.82
357.889	2.85
358.253	2.82
358.618	2.84
358.982	2.8
359.346	2.86
359.71	2.86
360.075	2.82
360.439	2.83
360.803	2.87
361.167	2.89
361.531	2.92
361.895	3.03
362.259	3.04
362.623	3.05
362.987	3.16
363.351	2.99
363.714	3.03
364.078	3.02
364.442	2.95
364.806	3
365.169	2.98
365.533	2.97
365.896	3.01
366.26	2.92
366.623	2.99
366.987	2.94
367.35	2.91
367.714	2.91
368.077	2.93
368.44	2.93
368.803	2.84
369.167	2.78
369.53	2.8
369.893	2.84
370.256	2.82
370.619	2.81
370.982	2.8
371.345	2.79
371.708	2.77
372.071	2.79
372.434	2.79
372.797	2.81
373.159	2.81
373.522	2.72
373.885	2.72
374.247	2.7
374.61	2.73
374.973	2.77
375.335	2.8
375.698	2.77
376.06	2.73
376.423	2.8
376.785	2.91
377.147	2.89
377.51	2.9
377.872	2.94
378.234	2.93
378.596	3
378.958	3.01
379.321	3.03
379.683	3.05
380.045	3.04
380.407	3.06
380.769	3.07
381.13	3.08
381.492	3.12
381.854	3.17
382.216	3.14
382.578	3.21
382.939	3.26
383.301	3.27
383.663	3.28
384.024	3.28
384.386	3.3
384.747	3.31
385.109	3.27
385.47	3.27
385.832	3.28
386.193	3.31
386.554	3.25
386.916	3.25
387.277	3.23
387.638	3.24
387.999	3.24
388.36	3.22
388.721	3.29
389.082	3.3
389.443	3.3
389.804	3.34
390.165	3.31
390.526	3.26
390.887	3.29
391.248	3.3
391.609	3.31
391.969	3.28
392.33	3.26
392.691	3.28
393.051	3.24
393.412	3.22
393.772	3.22
394.133	3.25
394.493	3.25
394.854	3.24
395.214	3.21
395.574	3.23
395.935	3.3
396.295	3.24
396.655	3.23
397.015	3.19
397.376	3.18
397.736	3.18
398.096	3.19
398.456	3.14
398.816	3.12
399.176	3.09
399.535	3.1
399.895	3.09
400.255	3.05
400.615	3.08
400.975	3.1
401.334	3.07
401.694	3.07
402.054	3.09
402.413	3.1
402.773	3.15
403.132	3.14
403.492	3.1
403.851	3.12
404.211	3.12
404.57	3.12
404.929	3.09
405.288	3.09
405.648	3.12
406.007	3.11
406.366	3.13
406.725	3.14
407.084	3.14
407.443	3.18
407.802	3.2
408.161	3.2
408.52	3.22
408.879	3.26
409.238	3.28
409.596	3.27
409.955	3.29
410.314	3.26
410.673	3.25
411.031	3.22
411.39	3.23
411.748	3.27
412.107	3.31
412.465	3.34
412.824	3.35
413.182	3.33
413.54	3.38
413.899	3.38
414.257	3.41
414.615	3.41
414.974	3.38
415.332	3.39
415.69	3.38
416.048	3.37
416.406	3.34
416.764	3.33
417.122	3.32
417.48	3.33
417.838	3.34
418.195	3.33
418.553	3.33
418.911	3.35
419.269	3.35
419.626	3.34
419.984	3.34
420.342	3.33
420.699	3.33
421.057	3.32
421.414	3.33
421.772	3.33
422.129	3.32
422.486	3.32
422.844	3.32
423.201	3.33
423.558	3.33
423.915	3.34
424.273	3.35
424.63	3.38
424.987	3.38
425.344	3.38
425.701	3.38
426.058	3.39
426.415	3.38
426.772	3.38
427.128	3.38
427.485	3.38
427.842	3.39
428.199	3.39
428.555	3.38
428.912	3.36
429.269	3.36
429.625	3.39
429.982	3.4
430.338	3.41
430.695	3.41
431.051	3.41
431.407	3.41
431.764	3.39
432.12	3.4
432.476	3.39
432.832	3.39
433.189	3.38
433.545	3.39
433.901	3.38
434.257	3.36
434.613	3.37
434.969	3.38
435.325	3.37
435.681	3.38
436.036	3.39
436.392	3.41
436.748	3.4
437.104	3.4
437.459	3.39
437.815	3.4
438.171	3.41
438.526	3.43
438.882	3.42
439.237	3.42
439.593	3.4
439.948	3.4
440.304	3.39
440.659	3.41
441.014	3.41
441.369	3.44
441.725	3.44
442.08	3.44
442.435	3.45
442.79	3.44
443.145	3.45
443.5	3.45
443.855	3.44
444.21	3.45
444.565	3.46
444.92	3.47
445.275	3.46
445.629	3.45
445.984	3.44
446.339	3.45
446.693	3.45
447.048	3.46
447.403	3.46
447.757	3.47
448.112	3.47
448.466	3.48
448.82	3.46
449.175	3.46
449.529	3.48
449.883	3.46
450.238	3.46
450.592	3.46
450.946	3.46
451.3	3.46
451.654	3.45
452.008	3.43
452.362	3.42
452.716	3.43
453.07	3.44
453.424	3.43
453.778	3.44
454.132	3.43
454.486	3.41
454.839	3.41
455.193	3.43
455.547	3.44
455.9	3.43
456.254	3.44
456.607	3.44
456.961	3.44
457.314	3.46
457.668	3.45
458.021	3.46
458.375	3.46
458.728	3.46
459.081	3.47
459.434	3.49
459.787	3.5
460.141	3.49
460.494	3.5
460.847	3.49
461.2	3.49
461.553	3.5
461.906	3.52
462.259	3.52
462.611	3.53
462.964	3.53
463.317	3.55
463.67	3.55
464.022	3.57
464.375	3.56
464.728	3.55
465.08	3.57
465.433	3.56
465.785	3.56
466.138	3.58
466.49	3.57
466.843	3.57
467.195	3.56
467.547	3.58
467.899	3.55
468.252	3.58
468.604	3.57
468.956	3.57
469.308	3.56
469.66	3.57
470.012	3.57
470.364	3.57
470.716	3.57
471.068	3.57
471.42	3.57
471.772	3.58
472.123	3.57
472.475	3.59
472.827	3.61
473.178	3.63
473.53	3.61
473.882	3.63
474.233	3.63
474.585	3.63
474.936	3.63
475.288	3.66
475.639	3.68
475.99	3.66
476.342	3.69
476.693	3.69
477.044	3.69
477.395	3.67
477.746	3.68
478.097	3.67
478.448	3.67
478.8	3.68
479.15	3.68
479.501	3.68
479.852	3.68
480.203	3.67
480.554	3.67
480.905	3.68
481.255	3.68
481.606	3.69
481.957	3.7
482.307	3.69
482.658	3.68
483.009	3.67
483.359	3.69
483.709	3.67
484.06	3.68
484.41	3.67
484.761	3.68
485.111	3.68
485.461	3.68
485.811	3.69
486.162	3.68
486.512	3.68
486.862	3.68
487.212	3.67
487.562	3.66
487.912	3.66
488.262	3.66
488.612	3.66
488.961	3.66
489.311	3.65
489.661	3.66
490.011	3.65
490.36	3.65
490.71	3.65
491.06	3.65
491.409	3.65
491.759	3.66
492.108	3.64
492.458	3.65
492.807	3.65
493.157	3.65
493.506	3.65
493.855	3.66
494.204	3.66
494.554	3.67
494.903	3.68
495.252	3.68
495.601	3.68
495.95	3.7
496.299	3.7
496.648	3.7
496.997	3.71
497.346	3.73
497.695	3.74
498.043	3.75
498.392	3.76
498.741	3.76
499.09	3.76
499.438	3.78
499.787	3.79
500.135	3.78
500.484	3.8
500.832	3.8
501.181	3.82
501.529	3.84
501.878	3.86
502.226	3.85
502.574	3.87
502.923	3.86
503.271	3.86
503.619	3.87
503.967	3.86
504.315	3.86
504.663	3.85
505.011	3.85
505.359	3.84
505.707	3.84
506.055	3.85
506.403	3.86
506.751	3.84
507.098	3.83
507.446	3.84
507.794	3.83
508.141	3.84
508.489	3.84
508.837	3.83
509.184	3.82
509.531	3.83
509.879	3.83
510.226	3.83
510.574	3.84
510.921	3.82
511.268	3.84
511.616	3.87
511.963	3.88
512.31	3.91
512.657	3.93
513.004	3.95
513.351	3.95
513.698	3.94
514.045	3.96
514.392	3.99
514.739	4
515.086	4.01
515.432	3.99
515.779	3.98
516.126	3.99
516.473	3.99
516.819	4.01
517.166	4.02
517.512	4.02
517.859	4.02
518.205	4.02
518.552	4.01
518.898	3.99
519.245	3.98
519.591	3.95
519.937	3.94
520.283	3.95
520.629	3.94
520.976	3.94
521.322	3.95
521.668	3.93
522.014	3.94
522.36	3.91
522.706	3.92
523.052	3.95
523.398	3.93
523.743	3.92
524.089	3.93
524.435	3.94
524.781	3.96
525.126	3.96
525.472	3.98
525.817	4
526.163	4
526.509	4.03
526.854	4.03
527.199	4.04
527.545	4.04
527.89	4.04
528.235	4.05
528.581	4.05
528.926	4.06
529.271	4.05
529.616	4.07
529.961	4.07
530.306	4.06
530.651	4.06
530.996	4.07
531.341	4.07
531.686	4.07
532.031	4.06
532.376	4.07
532.721	4.06
533.065	4.06
533.41	4.04
533.755	4.03
534.099	4.03
534.444	4.02
534.788	4.01
535.133	4.02
535.477	4.02
535.822	4.01
536.166	4.02
536.51	4.02
536.855	4.01
537.199	3.99
537.543	4
537.887	4.01
538.231	4.01
538.576	4.01
538.92	4.02
539.264	4.04
539.608	4.03
539.951	4.02
540.295	4.02
540.639	4.05
540.983	4.05
541.327	4.04
541.671	4.05
542.014	4.06
542.358	4.05
542.701	4.05
543.045	4.06
543.389	4.06
543.732	4.06
544.075	4.07
544.419	4.09
544.762	4.08
545.105	4.1
545.449	4.12
545.792	4.13
546.135	4.12
546.478	4.11
546.821	4.13
547.165	4.15
547.508	4.16
547.851	4.14
548.194	4.12
548.536	4.15
548.879	4.15
549.222	4.16
549.565	4.17
549.908	4.16
550.25	4.15
550.593	4.14
550.936	4.18
551.278	4.19
551.621	4.18
551.963	4.19
552.306	4.18
552.648	4.13
552.991	4.12
553.333	4.13
553.675	4.14
554.017	4.12
554.36	4.11
554.702	4.1
555.044	4.13
555.386	4.14
555.728	4.15
556.07	4.14
556.412	4.16
556.754	4.14
557.096	4.13
557.438	4.17
557.78	4.18
558.121	4.2
558.463	4.18
558.805	4.19
559.147	4.2
559.488	4.21
559.83	4.23
560.171	4.23
560.513	4.25
560.854	4.26
561.196	4.23
561.537	4.24
561.878	4.25
562.22	4.24
562.561	4.24
562.902	4.21
563.243	4.23
563.584	4.24
563.925	4.28
564.266	4.29
564.607	4.27
564.948	4.25
565.289	4.25
565.63	4.25
565.971	4.24
566.312	4.21
566.653	4.17
566.993	4.15
567.334	4.15
567.675	4.14
568.015	4.14
568.356	4.16
568.696	4.17
569.037	4.15
569.377	4.14
569.718	4.16
570.058	4.18
570.398	4.16
570.739	4.1
571.079	4.07
571.419	4.07
571.759	4.06
572.099	4.08
572.439	4.06
572.779	4.08
573.119	4.11
573.459	4.13
573.799	4.16
574.139	4.16
574.479	4.18
574.819	4.17
575.158	4.16
575.498	4.16
575.838	4.16
576.177	4.16
576.517	4.18
576.856	4.17
577.196	4.18
577.535	4.18
577.875	4.17
578.214	4.2
578.553	4.19
578.893	4.2
579.232	4.2
579.571	4.2
579.91	4.18
580.25	4.18
580.589	4.19
580.928	4.2
581.267	4.22
581.606	4.23
581.945	4.23
582.283	4.23
582.622	4.2
582.961	4.18
583.3	4.23
583.639	4.25
583.977	4.28
584.316	4.28
584.654	4.32
584.993	4.33
585.332	4.33
585.67	4.4
586.008	4.39
586.347	4.43
586.685	4.4
587.024	4.39
587.362	4.35
587.7	4.36
588.038	4.38
588.376	4.37
588.715	4.33
589.053	4.31
589.391	4.3
589.729	4.35
590.067	4.41
590.404	4.36
590.742	4.32
591.08	4.33
591.418	4.32
591.756	4.3
592.093	4.37
592.431	4.37
592.769	4.33
593.106	4.32
593.444	4.3
593.781	4.32
594.119	4.31
594.456	4.32
594.793	4.29
595.131	4.29
595.468	4.31
595.805	4.32
596.143	4.33
596.48	4.35
596.817	4.33
597.154	4.31
597.491	4.35
597.828	4.33
598.165	4.3
598.502	4.27
598.839	4.27
599.176	4.24
599.512	4.26
599.849	4.29
600.186	4.31
600.523	4.32
600.859	4.33
601.196	4.35
601.532	4.34
601.869	4.37
602.205	4.3
602.542	4.28
602.878	4.3
603.215	4.32
603.551	4.31
603.887	4.3
604.223	4.27
604.56	4.25
604.896	4.31
605.232	4.32
605.568	4.36
605.904	4.36
606.24	4.4
606.576	4.41
606.912	4.37
607.248	4.36
607.583	4.35
607.919	4.31
608.255	4.33
608.591	4.35
608.926	4.35
609.262	4.4
609.597	4.36
609.933	4.35
610.268	4.37
610.604	4.37
610.939	4.42
611.275	4.42
611.61	4.45
611.945	4.4
612.281	4.45
612.616	4.45
612.951	4.47
613.286	4.48
613.621	4.42
613.956	4.48
614.291	4.47
614.626	4.48
614.961	4.46
615.296	4.48
615.631	4.48
615.966	4.5
616.3	4.5
616.635	4.54
616.97	4.51
617.304	4.47
617.639	4.47
617.973	4.39
618.308	4.4
618.642	4.36
618.977	4.33
619.311	4.27
619.646	4.28
619.98	4.26
620.314	4.18
620.648	4.25
620.983	4.17
621.317	4.24
621.651	4.26
621.985	4.28
622.319	4.26
622.653	4.3
622.987	4.27
623.321	4.26
623.655	4.27
623.988	4.32
624.322	4.3
624.656	4.34
624.99	4.41
625.323	4.43
625.657	4.49
625.99	4.53
626.324	4.51
626.657	4.49
626.991	4.52
627.324	4.51
627.658	4.46
627.991	4.46
628.324	4.36
628.657	4.36
628.991	4.43
629.324	4.47
629.657	4.45
629.99	4.48
630.323	4.5
630.656	4.5
630.989	4.47
631.322	4.51
631.655	4.47
631.987	4.49
632.32	4.49
632.653	4.46
632.986	4.45
633.318	4.48
633.651	4.48
633.984	4.51
634.316	4.57
634.649	4.64
634.981	4.69
635.313	4.74
635.646	4.75
635.978	4.74
636.31	4.7
636.643	4.71
636.975	4.73
637.307	4.74
637.639	4.75
637.971	4.77
638.303	4.79
638.635	4.78
638.967	4.73
639.299	4.69
639.631	4.68
639.963	4.61
640.295	4.6
640.626	4.62
640.958	4.53
641.29	4.52
641.621	4.42
641.953	4.37
642.285	4.42
642.616	4.45
642.948	4.44
643.279	4.43
643.61	4.42
643.942	4.37
644.273	4.38
644.604	4.43
644.936	4.44
645.267	4.37
645.598	4.39
645.929	4.37
646.26	4.43
646.591	4.5
646.922	4.62
647.253	4.64
647.584	4.59
647.915	4.6
648.245	4.66
648.576	4.67
648.907	4.71
649.238	4.63
649.568	4.54
649.899	4.56
650.229	4.58
650.56	4.56
650.89	4.54
651.221	4.51
651.551	4.46
651.882	4.48
652.212	4.56
652.542	4.6
652.872	4.66
653.203	4.63
653.533	4.6
653.863	4.63
654.193	4.57
654.523	4.6
654.853	4.66
655.183	4.58
655.513	4.6
655.843	4.61
656.172	4.72
656.502	4.78
656.832	4.74
657.162	4.73
657.491	4.8
657.821	4.77
658.15	4.88
658.48	4.95
658.809	4.91
659.139	4.85
659.468	4.83
659.798	4.84
660.127	4.85
660.456	4.85
660.785	4.86
661.115	4.9
661.444	4.92
661.773	4.88
662.102	4.9
662.431	4.95
662.76	5
663.089	5.02
663.418	4.99
663.747	5.03
664.076	5.02
664.404	4.93
664.733	5.01
665.062	4.88
665.39	4.81
665.719	4.84
666.048	4.86
666.376	4.9
666.705	4.88
667.033	4.92
667.362	4.93
667.69	4.83
668.018	4.82
668.347	4.81
668.675	4.79
669.003	4.81
669.331	4.78
669.659	4.71
669.987	4.68
670.315	4.7
670.643	4.66
670.971	4.71
671.299	4.77
671.627	4.74
671.955	4.75
672.283	4.76
672.61	4.87
672.938	4.93
673.266	4.95
673.593	4.91
673.921	4.85
674.249	4.85
674.576	4.94
674.904	4.91
675.231	4.9
675.558	5.05
675.886	5.01
676.213	4.87
676.54	5.02
676.867	4.92
677.195	4.9
677.522	4.9
677.849	4.88
678.176	4.87
678.503	4.86
678.83	4.93
679.157	4.92
679.484	4.82
679.81	4.75
680.137	4.78
680.464	4.87
680.791	4.9
681.117	4.94
681.444	4.82
681.771	4.87
682.097	4.97
682.424	4.82
682.75	4.83
683.077	4.9
683.403	4.8
683.729	4.85
684.056	4.92
684.382	4.93
684.708	4.9
685.034	4.89
685.36	4.95
685.686	4.92
686.012	4.96
686.339	4.93
686.664	5.02
686.99	4.91
687.316	4.91
687.642	4.94
687.968	4.84
688.294	4.89
688.619	4.84
688.945	4.76
689.271	4.87
689.596	4.88
689.922	4.98
690.247	4.95
690.573	4.99
690.898	5.02
691.224	4.98
691.549	4.96
691.874	4.99
692.2	5.03
692.525	5.01
692.85	5
693.175	5.06
693.5	4.9
693.825	5.14
694.15	5.08
694.475	5.14
694.8	5.17
695.125	5.3
695.45	5.19
695.775	5.19
696.099	5.23
696.424	5.14
696.749	5.08
697.073	5.14
697.398	5.19
697.723	5.24
698.047	5.31
698.372	5.34
698.696	5.39
699.02	5.4
699.345	5.44
699.669	5.58
699.993	5.47
700.318	5.57
700.642	5.35
700.966	5.36
701.29	5.38
701.614	5.45
701.938	5.38
702.262	5.47
702.586	5.53
702.91	5.51
703.234	5.64
703.557	5.63
703.881	5.59
704.205	5.45
704.529	5.49
704.852	5.38
705.176	5.49
705.499	5.47
705.823	5.32
706.146	5.25
706.47	5.13
706.793	5.37
707.117	5.41
707.44	5.57
707.763	5.62
708.086	5.4
708.409	5.4
708.733	5.37
709.056	5.54
709.379	5.5
709.702	5.49
710.025	5.62
710.348	5.71
710.671	5.81
710.993	5.88
711.316	5.65
711.639	5.69
711.962	5.8
712.284	5.74
712.607	5.75
712.93	5.88
713.252	5.95
713.575	5.82
713.897	5.77
714.22	5.78
714.542	5.86
714.864	5.94
715.187	5.82
715.509	5.79
715.831	5.75
716.153	5.67
716.475	5.82
716.798	5.68
717.12	5.63
717.442	5.49
717.764	5.48
718.085	5.5
718.407	5.54
718.729	5.43
719.051	5.42
719.373	5.58
719.695	5.51
720.016	5.42
720.338	5.35
720.659	5.38
720.981	5.15
721.302	5.19
721.624	5.18
721.945	5.27
722.267	5.44
722.588	5.34
722.909	5.49
723.231	5.25
723.552	5.2
723.873	5.25
724.194	5.36
724.515	5.37
724.836	5.49
725.157	5.58
725.478	5.44
725.799	5.58
726.12	5.53
726.441	5.53
726.762	5.68
727.083	5.9
727.403	5.96
727.724	6.25
728.045	6.04
728.365	6.09
728.686	6.17
729.006	6.06
729.327	6.14
729.647	6.14
729.967	6.22
730.288	6.33
730.608	6.35
730.928	6.56
731.249	6.6
731.569	6.41
731.889	6.31
732.209	6.44
732.529	6.27
732.849	6.29
733.169	6.34
733.489	6.05
733.809	6.11
734.129	6.13
734.448	6.15
734.768	6.03
735.088	6.12
735.408	5.9
735.727	6.1
736.047	6.22
736.366	6.21
736.686	6.21
737.005	6.28
737.325	6.26
737.644	5.91
737.963	5.83
738.283	5.86
738.602	5.96
738.921	5.84
739.24	5.85
739.56	5.96
739.879	5.85
740.198	5.84
740.517	5.63
740.836	5.59
741.155	5.51
741.473	5.8
741.792	5.79
742.111	6.17
742.43	6.02
742.748	5.91
743.067	5.82
743.386	5.55
743.704	5.49
744.023	5.58
744.341	5.78
744.66	5.88
744.978	6.1
745.297	5.96
745.615	6.03
745.933	6.08
746.252	5.99
746.57	5.82
746.888	6.28
747.206	6.17
747.524	6.19
747.842	5.95
748.16	6.12
748.478	5.87
748.796	5.74
749.114	5.85
749.432	5.87
749.749	5.8
750.067	5.93
750.385	6.12
750.703	6.03
751.02	6
751.338	5.75
751.655	5.76
751.973	5.84
752.29	5.81
752.608	5.89
752.925	5.67
753.242	6.14
753.56	5.88
753.877	5.98
754.194	5.97
754.511	6.07
754.828	5.74
755.145	5.95
755.462	5.5
755.779	5.34
756.096	5.26
756.413	5.48
756.73	5.53
757.047	5.3
757.364	5.21
757.68	5.35
757.997	5.72
758.314	5.78
758.63	5.84
758.947	5.69
759.264	5.61
759.58	5.79
759.896	5.72
760.213	5.69
760.529	5.65
760.846	5.76
761.162	5.75
761.478	5.96
761.794	6.1
762.11	6.64
762.426	6.75
762.743	6.83
763.059	6.95
763.375	7.07
763.69	7.13
764.006	7.3
764.322	7.15
764.638	6.99
764.954	6.94
765.27	7.04
765.585	7.12
765.901	7.08
766.216	7.16
766.532	7.07
766.848	7.07
767.163	7.15
767.478	7.02
767.794	7.37
768.109	7.47
768.424	7.2
768.74	6.83
769.055	6.92
769.37	6.86
769.685	6.71
770	6.78
770.315	6.7
770.63	6.58
770.945	6.69
771.26	6.87
771.575	6.44
771.89	6.22
772.205	6.15
772.52	6.1
772.834	5.79
773.149	5.97
773.464	5.96
773.778	5.88
774.093	6.22
774.407	5.9
774.722	5.3
775.036	5.4
775.351	6.07
775.665	5.82
775.979	6.02
776.293	6.07
776.608	5.59
776.922	5.78
777.236	5.97
777.55	5.57
777.864	5.75
778.178	6.23
778.492	6.42
778.806	6.59
779.12	7.06
779.434	7.02
779.747	7.42
780.061	7.8
780.375	7.94
780.689	7.54
781.002	7.6
781.316	8.12
781.629	8.39
781.943	7.96
782.256	7.96
782.57	7.89
782.883	8
783.196	8.49
783.51	8.45
783.823	8.22
784.136	8.47
784.449	8.16
784.762	8.1
785.075	7.94
785.388	8.14
785.701	7.9
786.014	7.98
786.327	7.59
786.64	7.43
786.953	7.62
787.266	8.16
787.578	8.37
787.891	8.31
788.204	7.92
788.516	7.96
788.829	8.01
789.141	7.89
789.454	7.55
789.766	7.71
790.079	7.21
790.391	7.13
790.703	7.61
791.016	7.52
791.328	8.02
791.64	8.41
791.952	8.36
792.264	8.05
792.576	8.53
792.888	8.56
793.2	9.03
793.512	8.63
793.824	8.37
794.136	7.95
794.448	8.2
794.76	8.5
795.071	8.21
795.383	8
795.695	7.97
796.006	8.29
796.318	7.59
796.629	8.2
796.941	7.94
797.252	7.34
797.564	7.46
797.875	7.27
798.186	6.91
798.497	6.81
798.809	7.04
799.12	6.7
799.431	6.07
799.742	5.79
800.053	5.78
800.364	5.68
800.675	5.75
800.986	5.74
801.297	5.38
801.608	5.22
801.918	5.41
802.229	5.51
802.54	5.5
802.851	5.71
803.161	5.24
803.472	6.21
803.782	6.86
804.093	6.77
804.403	6.6
804.714	6.43
805.024	6.36
805.334	6.92
805.645	7.31
805.955	8.15
806.265	7.96
806.575	8.19
806.885	8.34
807.195	8.31
807.505	7.36
807.815	7.46
808.125	7.81
808.435	7.82
808.745	7.91
809.055	8.16
809.365	8.03
809.674	8.2
809.984	7.2
810.294	6.86
810.603	6.29
810.913	5.79
811.222	6.31
811.532	6.54
811.841	6.31
812.151	6.31
812.46	6.35
812.769	6.3
813.079	6.76
813.388	5.93
813.697	5.81
814.006	6.83
814.315	6.78
814.624	7.33
814.933	7.35
815.242	6.56
815.551	5.51
815.86	5.95
816.169	5.81
816.478	6.5
816.786	6.12
817.095	6.91
817.404	7.03
817.712	7.2
818.021	6.77
818.33	6.27
818.638	6.31
818.947	6.65
819.255	6.7
819.563	6.76
819.872	7.24
820.18	7.86
820.488	8.09
820.796	8.32
821.105	8.46
821.413	8.65
821.721	8.85
822.029	9.13
822.337	9.27
822.645	9.37
822.953	9.21
823.26	9.38
823.568	9.31
823.876	9.47
824.184	9.27
824.491	9.38
824.799	9.5
825.107	9.64
825.414	9.46
825.722	9.5
826.029	9.61
826.337	9.79
826.644	9.76
826.951	9.52
827.259	9.32
827.566	9.13
827.873	8.92
828.18	8.75
828.488	8.63
828.795	8.51
829.102	8.26
829.409	8.27
829.716	8.26
830.023	8.44
830.329	8.33
830.636	8.6
830.943	8.41
831.25	8.65
831.557	8.02
831.863	8.17
832.17	8.32
832.476	7.89
832.783	7.32
833.089	6.58
833.396	6.59
833.702	7.5
834.009	7.57
834.315	8.01
834.621	8.8
834.928	8.91
835.234	8.87
835.54	8.94
835.846	9.21
836.152	8.73
836.458	8.66
836.764	8.5
837.07	8.3
837.376	8.34
837.682	7.82
837.988	8.06
838.293	8.3
838.599	8.62
838.905	8.26
839.211	8.14
839.516	8.81
839.822	9.75
840.127	9.56
840.433	9.31
840.738	8.98
841.044	8.38
841.349	8.23
841.654	7.62
841.959	8.39
842.265	7.97
842.57	8.97
842.875	8.95
843.18	8.41
843.485	8.31
843.79	7.9
844.095	8.02
844.4	8.43
844.705	7.79
845.01	6.38
845.315	6.25
845.619	7.22
845.924	6.14
846.229	4.72
846.533	4.16
846.838	3.56
847.142	3.41
847.447	2.4
847.751	3.06
848.056	3.74
848.36	2.91
848.664	2.27
848.969	1.41
849.273	3.04
849.577	3.81
849.881	4.08
850.185	5.31
850.489	6.85
850.794	7.51
851.097	6.8
851.401	8
851.705	8.92
852.009	7.19
852.313	9.34
852.617	10.75
852.92	10.2
853.224	9.83
853.528	9.16
853.831	12.02
854.135	10.19
854.438	9.8
854.742	9.55
855.045	9.55
855.349	7.14
855.652	3.91
855.955	3.97
856.259	3.57
856.562	4.81
856.865	3.99
857.168	3.38
857.471	2.46
857.774	4.37
858.077	5.26
858.38	6.36
858.683	8.02
858.986	8.04
859.289	8.1
859.592	10.58
859.894	10.69
860.197	8.58
860.5	10.1
860.802	10.53
861.105	10.08
861.407	9.2
861.71	10.53
862.012	11.37
862.315	11.61
862.617	11.96
862.919	11.39
863.222	10.89
863.524	7.76
863.826	9.87
864.128	7.89
864.43	9.21
864.732	8.74
865.034	6.38
865.336	5.78
865.638	4.12
865.94	2.31
866.242	4.04
866.544	5.71
866.846	4.04
867.147	4.8
867.449	6.98
867.751	10.52
868.052	9.11
868.354	8.62
868.655	8.46
868.957	11
869.258	10.92
869.56	11.22
869.861	14.78
870.162	14.43
870.463	13.44
870.765	11.91
871.066	14.94
871.367	11.74
871.668	12.81
871.969	15.21
872.27	16.43
872.571	15.95
872.872	16.35
873.173	16.65
873.473	14.03
873.774	12.42
874.075	10.87
874.376	13.23
874.676	17.83
874.977	20.26
875.277	16.69
875.578	16.15
875.878	16.08
876.179	16
876.479	15.76
876.78	16.85
877.08	17.78
877.38	14.96
877.68	20.41
877.981	18.97
878.281	17.75
878.581	17
