Data from MVZ_BU8942_Reflection_00002.txt Node
Date: Tue Nov 19 12:03:51 EST 2019
User: vgr7
Spectrometer: USB2G7710
Scans to average: 3
Trigger mode: 4
Integration Time (sec): 2.000000E-2
Electric dark correction enabled: true
Boxcar width: 10
XAxis mode: Wavelengths
Number of Pixels in Spectrum: 2048
>>>>>Begin Spectral Data<<<<<
177.721	14.56
178.105	145.45
178.488	147.75
178.871	-1128.57
179.254	290
179.636	-44.16
180.019	-184.65
180.402	50
180.785	-19
181.168	-173.26
181.55	1367.86
181.933	-152.12
182.316	-97.51
182.698	-151.76
183.081	-167.99
183.463	-319.42
183.846	-207.36
184.228	-289.01
184.611	-291.08
184.993	-340.79
185.376	-220.93
185.758	-208.57
186.14	-224.47
186.522	-520.76
186.904	-367.19
187.287	-292.86
187.669	-372.37
188.051	-281.58
188.433	-321.48
188.815	-313.25
189.197	-225.79
189.579	-189.5
189.961	-339.19
190.342	-230.38
190.724	-168.12
191.106	-164.95
191.488	-99.74
191.869	-102.4
192.251	-48.37
192.633	-49.49
193.014	-27.95
193.396	-36.39
193.777	-17.63
194.159	-34.87
194.54	-45.93
194.922	-51.66
195.303	-62.11
195.684	-77.82
196.065	-76.69
196.447	-74.58
196.828	-80.75
197.209	-103.61
197.59	-93.6
197.971	-74.77
198.352	-81.44
198.733	-114.22
199.114	-198.69
199.495	-292.86
199.876	-253.32
200.257	-293.91
200.638	-226.74
201.018	-351.34
201.399	-188.71
201.78	-208.55
202.16	-162.76
202.541	-124.24
202.922	-180.69
203.302	-117.36
203.683	-105.63
204.063	-133.12
204.444	-55.71
204.824	-73.65
205.204	-15.85
205.585	-13.05
205.965	-37.84
206.345	-3.19
206.725	-34.91
207.106	-20.13
207.486	-9.28
207.866	-11.55
208.246	10.91
208.626	-8.77
209.006	-2.77
209.386	-8.99
209.766	13.41
210.145	53.17
210.525	35.81
210.905	60.23
211.285	41.63
211.664	48.71
212.044	45.67
212.424	24
212.803	39.2
213.183	47.15
213.562	40.32
213.942	45.5
214.321	2.91
214.701	28.79
215.08	14.85
215.459	3.24
215.838	5.38
216.218	-27.76
216.597	-12.07
216.976	0.58
217.355	-30.56
217.734	-35.35
218.113	-35.17
218.492	-51.31
218.871	-51.95
219.25	-64.12
219.629	-61.74
220.008	-31.48
220.387	-23.24
220.766	-25.4
221.144	-31
221.523	-40.1
221.902	-36.53
222.28	-8.37
222.659	10.45
223.037	12.57
223.416	9.97
223.794	3.43
224.173	13.49
224.551	11.63
224.929	3.37
225.308	3.36
225.686	1.26
226.064	-5.07
226.442	0.91
226.821	-5.23
227.199	0.45
227.577	-1.16
227.955	-3.53
228.333	-4.5
228.711	-3.58
229.089	-3.59
229.467	-2.72
229.845	-6.23
230.222	-3.91
230.6	-8.19
230.978	-8.11
231.356	-8.47
231.733	-6.47
232.111	-6.75
232.488	-8.15
232.866	-7.8
233.243	-6.46
233.621	-5.92
233.998	-5.44
234.376	-5.64
234.753	-4.33
235.13	-5.42
235.508	-5
235.885	-5.51
236.262	-6.67
236.639	-6.38
237.016	-5.96
237.393	-3.91
237.77	-1.86
238.147	-2.01
238.524	-0.92
238.901	-0.69
239.278	-0.8
239.655	0.09
240.032	0.22
240.409	0.54
240.785	0.69
241.162	0.75
241.539	0.64
241.915	0.73
242.292	0.71
242.668	0.81
243.045	1.32
243.421	1.62
243.798	1.84
244.174	2.3
244.551	2.65
244.927	2.46
245.303	2.27
245.679	2.35
246.056	2.32
246.432	2.25
246.808	2.39
247.184	2.34
247.56	2.18
247.936	2.39
248.312	2.63
248.688	2.7
249.064	2.59
249.44	2.53
249.815	2.68
250.191	2.85
250.567	2.9
250.943	2.77
251.318	2.72
251.694	2.82
252.069	2.59
252.445	2.24
252.82	2.37
253.196	2.44
253.571	2.21
253.947	2.07
254.322	1.74
254.697	1.94
255.073	2.01
255.448	2.18
255.823	1.93
256.198	1.86
256.573	1.99
256.948	2.08
257.323	2.27
257.698	2.27
258.073	2.14
258.448	2.1
258.823	2.12
259.198	2.15
259.573	2.15
259.948	2.09
260.322	2.15
260.697	2.12
261.072	2.17
261.446	2.24
261.821	2.09
262.195	2.06
262.57	1.96
262.944	2.22
263.319	2.2
263.693	2.12
264.067	1.99
264.442	2.03
264.816	2.05
265.19	1.99
265.564	2.02
265.938	2.08
266.313	2.12
266.687	2.17
267.061	2.09
267.435	2.13
267.809	2.18
268.183	2.14
268.556	2.18
268.93	2.26
269.304	2.2
269.678	2.28
270.051	2.51
270.425	2.5
270.799	2.18
271.172	2.19
271.546	2.29
271.919	2.2
272.293	2.18
272.666	2.19
273.04	2.34
273.413	2.24
273.787	2.15
274.16	2.07
274.533	2.11
274.906	2.23
275.279	2.12
275.653	2.26
276.026	2.22
276.399	2.41
276.772	2.31
277.145	2.32
277.518	2.33
277.891	2.33
278.263	2.34
278.636	2.45
279.009	2.57
279.382	2.7
279.755	2.85
280.127	2.83
280.5	2.87
280.872	2.68
281.245	2.61
281.617	2.78
281.99	2.87
282.362	2.78
282.735	2.53
283.107	2.54
283.479	2.38
283.852	2.38
284.224	2.27
284.596	2.16
284.968	2.17
285.34	2.21
285.713	2.25
286.085	2.17
286.457	2.23
286.829	1.99
287.201	1.91
287.572	1.93
287.944	1.95
288.316	2.01
288.688	2.24
289.06	2.36
289.431	2.28
289.803	2.24
290.175	2.16
290.546	2.19
290.918	2.25
291.289	2.3
291.661	2.3
292.032	2.29
292.403	2.36
292.775	2.49
293.146	2.6
293.517	2.49
293.889	2.54
294.26	2.41
294.631	2.53
295.002	2.53
295.373	2.57
295.744	2.42
296.115	2.44
296.486	2.19
296.857	2.21
297.228	2.1
297.599	2.09
297.97	2.22
298.34	2.28
298.711	2.3
299.082	2.37
299.452	2.32
299.823	2.37
300.194	2.48
300.564	2.3
300.935	2.26
301.305	2.33
301.676	2.34
302.046	2.38
302.416	2.41
302.787	2.45
303.157	2.34
303.527	2.49
303.897	2.42
304.267	2.59
304.637	2.45
305.008	2.46
305.378	2.43
305.748	2.37
306.117	2.37
306.487	2.31
306.857	2.3
307.227	2.43
307.597	2.32
307.967	2.38
308.336	2.51
308.706	2.42
309.076	2.55
309.445	2.64
309.815	2.7
310.184	2.67
310.554	2.52
310.923	2.51
311.293	2.47
311.662	2.42
312.031	2.37
312.401	2.5
312.77	2.57
313.139	2.7
313.508	2.77
313.877	2.82
314.246	2.86
314.616	2.82
314.985	2.85
315.353	2.84
315.722	2.77
316.091	2.73
316.46	2.82
316.829	2.6
317.198	2.53
317.567	2.65
317.935	2.55
318.304	2.67
318.672	2.92
319.041	3
319.41	3.12
319.778	3.15
320.147	3.02
320.515	2.95
320.883	2.85
321.252	2.64
321.62	2.57
321.988	2.58
322.357	2.67
322.725	2.61
323.093	2.54
323.461	2.45
323.829	2.43
324.197	2.48
324.565	2.53
324.933	2.39
325.301	2.19
325.669	2.21
326.037	2.25
326.405	2.15
326.772	2.14
327.14	2.07
327.508	2.21
327.875	2.27
328.243	2.36
328.61	2.33
328.978	2.4
329.346	2.45
329.713	2.49
330.08	2.48
330.448	2.42
330.815	2.56
331.182	2.58
331.55	2.67
331.917	2.59
332.284	2.61
332.651	2.81
333.018	3.01
333.385	3.19
333.752	3.19
334.119	3.17
334.486	3.15
334.853	3.11
335.22	2.93
335.587	2.85
335.954	2.69
336.32	2.81
336.687	2.91
337.054	2.86
337.42	2.82
337.787	2.72
338.153	2.83
338.52	2.78
338.886	2.83
339.253	2.69
339.619	2.73
339.986	2.7
340.352	2.57
340.718	2.54
341.084	2.36
341.451	2.35
341.817	2.28
342.183	2.19
342.549	2.21
342.915	2.29
343.281	2.39
343.647	2.58
344.013	2.51
344.379	2.52
344.745	2.57
345.11	2.41
345.476	2.55
345.842	2.5
346.208	2.64
346.573	2.57
346.939	2.63
347.304	2.68
347.67	2.62
348.035	2.63
348.401	2.61
348.766	2.6
349.132	2.58
349.497	2.63
349.862	2.76
350.228	2.68
350.593	2.63
350.958	2.59
351.323	2.59
351.688	2.7
352.053	2.65
352.418	2.68
352.783	2.74
353.148	2.73
353.513	2.72
353.878	2.6
354.243	2.72
354.608	2.79
354.972	2.72
355.337	2.76
355.702	2.84
356.066	2.83
356.431	2.91
356.795	2.91
357.16	2.92
357.524	2.91
357.889	2.96
358.253	2.88
358.618	2.92
358.982	2.9
359.346	2.82
359.71	2.84
360.075	2.84
360.439	2.94
360.803	2.9
361.167	2.91
361.531	2.87
361.895	2.84
362.259	2.83
362.623	2.84
362.987	2.87
363.351	2.85
363.714	2.79
364.078	2.83
364.442	2.82
364.806	2.87
365.169	2.81
365.533	2.84
365.896	2.94
366.26	2.94
366.623	2.87
366.987	2.87
367.35	2.86
367.714	2.84
368.077	2.82
368.44	2.83
368.803	2.83
369.167	2.79
369.53	2.84
369.893	2.86
370.256	2.88
370.619	2.84
370.982	2.74
371.345	2.83
371.708	2.82
372.071	2.75
372.434	2.75
372.797	2.77
373.159	2.79
373.522	2.75
373.885	2.74
374.247	2.8
374.61	2.76
374.973	2.73
375.335	2.73
375.698	2.73
376.06	2.72
376.423	2.67
376.785	2.78
377.147	2.71
377.51	2.71
377.872	2.72
378.234	2.74
378.596	2.8
378.958	2.81
379.321	2.8
379.683	2.88
380.045	2.81
380.407	2.87
380.769	2.87
381.13	2.84
381.492	2.82
381.854	2.82
382.216	2.84
382.578	2.89
382.939	2.86
383.301	2.82
383.663	2.8
384.024	2.8
384.386	2.77
384.747	2.78
385.109	2.75
385.47	2.76
385.832	2.72
386.193	2.71
386.554	2.67
386.916	2.7
387.277	2.67
387.638	2.72
387.999	2.73
388.36	2.72
388.721	2.79
389.082	2.81
389.443	2.86
389.804	2.87
390.165	2.87
390.526	2.93
390.887	2.94
391.248	2.96
391.609	3.02
391.969	3.03
392.33	3.02
392.691	3
393.051	2.97
393.412	3.02
393.772	3.02
394.133	3.01
394.493	2.96
394.854	2.96
395.214	2.95
395.574	2.89
395.935	2.89
396.295	2.88
396.655	2.83
397.015	2.78
397.376	2.82
397.736	2.78
398.096	2.78
398.456	2.78
398.816	2.76
399.176	2.73
399.535	2.71
399.895	2.7
400.255	2.74
400.615	2.8
400.975	2.83
401.334	2.86
401.694	2.89
402.054	2.9
402.413	2.93
402.773	2.89
403.132	2.94
403.492	2.95
403.851	2.95
404.211	2.99
404.57	2.99
404.929	3
405.288	3.06
405.648	3.05
406.007	3.07
406.366	3.08
406.725	3.08
407.084	3.11
407.443	3.15
407.802	3.13
408.161	3.11
408.52	3.08
408.879	3.07
409.238	3.09
409.596	3.11
409.955	3.09
410.314	3.13
410.673	3.14
411.031	3.13
411.39	3.13
411.748	3.17
412.107	3.14
412.465	3.15
412.824	3.13
413.182	3.14
413.54	3.15
413.899	3.13
414.257	3.18
414.615	3.16
414.974	3.14
415.332	3.17
415.69	3.14
416.048	3.16
416.406	3.14
416.764	3.15
417.122	3.14
417.48	3.17
417.838	3.17
418.195	3.15
418.553	3.15
418.911	3.13
419.269	3.1
419.626	3.14
419.984	3.13
420.342	3.12
420.699	3.11
421.057	3.1
421.414	3.12
421.772	3.13
422.129	3.13
422.486	3.13
422.844	3.11
423.201	3.13
423.558	3.11
423.915	3.13
424.273	3.11
424.63	3.13
424.987	3.12
425.344	3.12
425.701	3.12
426.058	3.14
426.415	3.15
426.772	3.17
427.128	3.15
427.485	3.15
427.842	3.15
428.199	3.15
428.555	3.16
428.912	3.16
429.269	3.12
429.625	3.12
429.982	3.13
430.338	3.16
430.695	3.16
431.051	3.17
431.407	3.16
431.764	3.15
432.12	3.15
432.476	3.16
432.832	3.17
433.189	3.16
433.545	3.14
433.901	3.15
434.257	3.12
434.613	3.13
434.969	3.13
435.325	3.13
435.681	3.14
436.036	3.14
436.392	3.14
436.748	3.16
437.104	3.17
437.459	3.17
437.815	3.17
438.171	3.18
438.526	3.17
438.882	3.19
439.237	3.21
439.593	3.2
439.948	3.17
440.304	3.18
440.659	3.19
441.014	3.19
441.369	3.18
441.725	3.2
442.08	3.19
442.435	3.2
442.79	3.2
443.145	3.19
443.5	3.19
443.855	3.2
444.21	3.19
444.565	3.18
444.92	3.19
445.275	3.18
445.629	3.18
445.984	3.19
446.339	3.18
446.693	3.17
447.048	3.17
447.403	3.18
447.757	3.17
448.112	3.16
448.466	3.17
448.82	3.19
449.175	3.19
449.529	3.21
449.883	3.2
450.238	3.2
450.592	3.21
450.946	3.21
451.3	3.22
451.654	3.24
452.008	3.26
452.362	3.26
452.716	3.26
453.07	3.27
453.424	3.26
453.778	3.26
454.132	3.27
454.486	3.28
454.839	3.29
455.193	3.31
455.547	3.32
455.9	3.31
456.254	3.31
456.607	3.31
456.961	3.31
457.314	3.31
457.668	3.31
458.021	3.31
458.375	3.3
458.728	3.3
459.081	3.27
459.434	3.26
459.787	3.26
460.141	3.27
460.494	3.27
460.847	3.27
461.2	3.27
461.553	3.28
461.906	3.27
462.259	3.27
462.611	3.26
462.964	3.26
463.317	3.28
463.67	3.27
464.022	3.27
464.375	3.26
464.728	3.28
465.08	3.29
465.433	3.29
465.785	3.3
466.138	3.31
466.49	3.33
466.843	3.34
467.195	3.34
467.547	3.33
467.899	3.32
468.252	3.34
468.604	3.34
468.956	3.35
469.308	3.35
469.66	3.36
470.012	3.37
470.364	3.35
470.716	3.33
471.068	3.35
471.42	3.37
471.772	3.36
472.123	3.38
472.475	3.37
472.827	3.37
473.178	3.38
473.53	3.37
473.882	3.36
474.233	3.36
474.585	3.37
474.936	3.39
475.288	3.39
475.639	3.39
475.99	3.39
476.342	3.38
476.693	3.37
477.044	3.39
477.395	3.38
477.746	3.38
478.097	3.37
478.448	3.37
478.8	3.36
479.15	3.35
479.501	3.35
479.852	3.35
480.203	3.35
480.554	3.37
480.905	3.38
481.255	3.37
481.606	3.37
481.957	3.37
482.307	3.36
482.658	3.37
483.009	3.37
483.359	3.39
483.709	3.4
484.06	3.41
484.41	3.41
484.761	3.42
485.111	3.42
485.461	3.44
485.811	3.44
486.162	3.45
486.512	3.46
486.862	3.46
487.212	3.47
487.562	3.46
487.912	3.46
488.262	3.45
488.612	3.48
488.961	3.49
489.311	3.5
489.661	3.5
490.011	3.5
490.36	3.49
490.71	3.48
491.06	3.48
491.409	3.48
491.759	3.46
492.108	3.46
492.458	3.46
492.807	3.46
493.157	3.45
493.506	3.45
493.855	3.46
494.204	3.45
494.554	3.46
494.903	3.47
495.252	3.47
495.601	3.48
495.95	3.46
496.299	3.46
496.648	3.46
496.997	3.46
497.346	3.48
497.695	3.5
498.043	3.51
498.392	3.5
498.741	3.51
499.09	3.55
499.438	3.56
499.787	3.57
500.135	3.58
500.484	3.58
500.832	3.57
501.181	3.55
501.529	3.58
501.878	3.58
502.226	3.61
502.574	3.62
502.923	3.61
503.271	3.59
503.619	3.59
503.967	3.58
504.315	3.59
504.663	3.59
505.011	3.59
505.359	3.59
505.707	3.6
506.055	3.6
506.403	3.58
506.751	3.59
507.098	3.59
507.446	3.58
507.794	3.57
508.141	3.58
508.489	3.59
508.837	3.55
509.184	3.55
509.531	3.52
509.879	3.53
510.226	3.53
510.574	3.56
510.921	3.55
511.268	3.59
511.616	3.61
511.963	3.62
512.31	3.64
512.657	3.63
513.004	3.61
513.351	3.56
513.698	3.56
514.045	3.57
514.392	3.57
514.739	3.57
515.086	3.59
515.432	3.59
515.779	3.59
516.126	3.64
516.473	3.65
516.819	3.65
517.166	3.67
517.512	3.67
517.859	3.65
518.205	3.66
518.552	3.65
518.898	3.63
519.245	3.63
519.591	3.63
519.937	3.64
520.283	3.65
520.629	3.67
520.976	3.69
521.322	3.68
521.668	3.68
522.014	3.69
522.36	3.68
522.706	3.69
523.052	3.71
523.398	3.68
523.743	3.69
524.089	3.71
524.435	3.7
524.781	3.71
525.126	3.72
525.472	3.73
525.817	3.72
526.163	3.72
526.509	3.73
526.854	3.73
527.199	3.72
527.545	3.73
527.89	3.73
528.235	3.72
528.581	3.72
528.926	3.73
529.271	3.72
529.616	3.73
529.961	3.74
530.306	3.73
530.651	3.74
530.996	3.75
531.341	3.75
531.686	3.74
532.031	3.74
532.376	3.74
532.721	3.73
533.065	3.77
533.41	3.77
533.755	3.76
534.099	3.75
534.444	3.77
534.788	3.77
535.133	3.77
535.477	3.79
535.822	3.79
536.166	3.8
536.51	3.82
536.855	3.81
537.199	3.78
537.543	3.78
537.887	3.78
538.231	3.79
538.576	3.77
538.92	3.79
539.264	3.79
539.608	3.78
539.951	3.79
540.295	3.76
540.639	3.77
540.983	3.78
541.327	3.8
541.671	3.79
542.014	3.8
542.358	3.81
542.701	3.81
543.045	3.82
543.389	3.83
543.732	3.82
544.075	3.84
544.419	3.87
544.762	3.88
545.105	3.92
545.449	3.9
545.792	3.91
546.135	3.9
546.478	3.91
546.821	3.91
547.165	3.91
547.508	3.93
547.851	3.92
548.194	3.91
548.536	3.91
548.879	3.92
549.222	3.91
549.565	3.92
549.908	3.94
550.25	3.93
550.593	3.91
550.936	3.92
551.278	3.87
551.621	3.86
551.963	3.86
552.306	3.83
552.648	3.83
552.991	3.85
553.333	3.88
553.675	3.88
554.017	3.87
554.36	3.9
554.702	3.88
555.044	3.88
555.386	3.9
555.728	3.87
556.07	3.88
556.412	3.92
556.754	3.94
557.096	3.9
557.438	3.9
557.78	3.9
558.121	3.92
558.463	3.93
558.805	3.94
559.147	3.95
559.488	3.92
559.83	3.95
560.171	3.92
560.513	3.91
560.854	3.95
561.196	3.99
561.537	3.99
561.878	3.97
562.22	4.01
562.561	3.99
562.902	3.99
563.243	4.01
563.584	3.99
563.925	3.98
564.266	4.02
564.607	4.02
564.948	4.02
565.289	4.01
565.63	4
565.971	4
566.312	3.98
566.653	4
566.993	3.95
567.334	3.97
567.675	3.96
568.015	3.94
568.356	3.92
568.696	3.92
569.037	3.92
569.377	3.9
569.718	3.92
570.058	3.91
570.398	3.91
570.739	3.89
571.079	3.88
571.419	3.87
571.759	3.87
572.099	3.87
572.439	3.89
572.779	3.92
573.119	3.92
573.459	3.93
573.799	3.93
574.139	3.96
574.479	3.98
574.819	3.98
575.158	4.01
575.498	4.02
575.838	4.01
576.177	3.99
576.517	3.99
576.856	3.96
577.196	3.97
577.535	3.93
577.875	3.96
578.214	3.98
578.553	3.95
578.893	3.98
579.232	3.98
579.571	3.94
579.91	3.96
580.25	3.98
580.589	3.97
580.928	3.98
581.267	3.97
581.606	4
581.945	3.99
582.283	3.94
582.622	3.87
582.961	3.92
583.3	3.96
583.639	3.97
583.977	3.98
584.316	4
584.654	4.02
584.993	4.01
585.332	3.96
585.67	4.01
586.008	3.98
586.347	4.01
586.685	4
587.024	4.01
587.362	4
587.7	4.02
588.038	4.03
588.376	4.01
588.715	3.96
589.053	3.97
589.391	4.01
589.729	4.08
590.067	4.03
590.404	4.03
590.742	4.02
591.08	4.03
591.418	4.04
591.756	4.05
592.093	4.06
592.431	4.07
592.769	4.06
593.106	4.1
593.444	4.08
593.781	4.15
594.119	4.14
594.456	4.14
594.793	4.13
595.131	4.13
595.468	4.17
595.805	4.19
596.143	4.21
596.48	4.19
596.817	4.15
597.154	4.18
597.491	4.17
597.828	4.2
598.165	4.21
598.502	4.19
598.839	4.2
599.176	4.21
599.512	4.24
599.849	4.25
600.186	4.23
600.523	4.22
600.859	4.18
601.196	4.18
601.532	4.17
601.869	4.2
602.205	4.16
602.542	4.13
602.878	4.17
603.215	4.15
603.551	4.16
603.887	4.2
604.223	4.19
604.56	4.27
604.896	4.29
605.232	4.29
605.568	4.3
605.904	4.32
606.24	4.31
606.576	4.35
606.912	4.37
607.248	4.4
607.583	4.42
607.919	4.43
608.255	4.44
608.591	4.44
608.926	4.41
609.262	4.49
609.597	4.48
609.933	4.48
610.268	4.47
610.604	4.46
610.939	4.46
611.275	4.48
611.61	4.44
611.945	4.37
612.281	4.42
612.616	4.44
612.951	4.44
613.286	4.44
613.621	4.4
613.956	4.38
614.291	4.34
614.626	4.34
614.961	4.3
615.296	4.3
615.631	4.3
615.966	4.34
616.3	4.32
616.635	4.33
616.97	4.34
617.304	4.38
617.639	4.37
617.973	4.37
618.308	4.36
618.642	4.31
618.977	4.34
619.311	4.3
619.646	4.27
619.98	4.23
620.314	4.22
620.648	4.2
620.983	4.2
621.317	4.27
621.651	4.28
621.985	4.3
622.319	4.28
622.653	4.26
622.987	4.28
623.321	4.28
623.655	4.3
623.988	4.29
624.322	4.24
624.656	4.3
624.99	4.26
625.323	4.26
625.657	4.25
625.99	4.26
626.324	4.23
626.657	4.24
626.991	4.24
627.324	4.19
627.658	4.18
627.991	4.21
628.324	4.15
628.657	4.16
628.991	4.19
629.324	4.2
629.657	4.21
629.99	4.23
630.323	4.19
630.656	4.2
630.989	4.18
631.322	4.17
631.655	4.15
631.987	4.15
632.32	4.16
632.653	4.17
632.986	4.16
633.318	4.2
633.651	4.28
633.984	4.29
634.316	4.39
634.649	4.36
634.981	4.31
635.313	4.31
635.646	4.28
635.978	4.26
636.31	4.26
636.643	4.27
636.975	4.26
637.307	4.29
637.639	4.29
637.971	4.3
638.303	4.32
638.635	4.29
638.967	4.32
639.299	4.3
639.631	4.31
639.963	4.36
640.295	4.39
640.626	4.34
640.958	4.31
641.29	4.25
641.621	4.31
641.953	4.28
642.285	4.3
642.616	4.35
642.948	4.34
643.279	4.26
643.61	4.25
643.942	4.23
644.273	4.24
644.604	4.22
644.936	4.22
645.267	4.26
645.598	4.28
645.929	4.19
646.26	4.19
646.591	4.27
646.922	4.31
647.253	4.24
647.584	4.24
647.915	4.29
648.245	4.31
648.576	4.35
648.907	4.43
649.238	4.34
649.568	4.28
649.899	4.3
650.229	4.42
650.56	4.38
650.89	4.39
651.221	4.4
651.551	4.39
651.882	4.37
652.212	4.35
652.542	4.4
652.872	4.51
653.203	4.53
653.533	4.5
653.863	4.44
654.193	4.44
654.523	4.38
654.853	4.35
655.183	4.34
655.513	4.37
655.843	4.39
656.172	4.44
656.502	4.38
656.832	4.4
657.162	4.38
657.491	4.52
657.821	4.51
658.15	4.5
658.48	4.58
658.809	4.66
659.139	4.67
659.468	4.67
659.798	4.67
660.127	4.66
660.456	4.59
660.785	4.59
661.115	4.65
661.444	4.7
661.773	4.73
662.102	4.76
662.431	4.66
662.76	4.65
663.089	4.78
663.418	4.86
663.747	4.9
664.076	4.91
664.404	4.85
664.733	4.82
665.062	4.79
665.39	4.71
665.719	4.68
666.048	4.69
666.376	4.72
666.705	4.72
667.033	4.72
667.362	4.82
667.69	4.82
668.018	4.8
668.347	4.78
668.675	4.7
669.003	4.68
669.331	4.74
669.659	4.76
669.987	4.66
670.315	4.69
670.643	4.7
670.971	4.68
671.299	4.63
671.627	4.59
671.955	4.62
672.283	4.63
672.61	4.63
672.938	4.67
673.266	4.65
673.593	4.63
673.921	4.7
674.249	4.68
674.576	4.7
674.904	4.64
675.231	4.68
675.558	4.77
675.886	4.84
676.213	4.84
676.54	4.89
676.867	4.82
677.195	4.81
677.522	4.81
677.849	4.88
678.176	4.9
678.503	5
678.83	4.97
679.157	4.97
679.484	4.99
679.81	5.02
680.137	4.98
680.464	4.97
680.791	4.94
681.117	5.04
681.444	5.05
681.771	5.17
682.097	5.12
682.424	5.08
682.75	5.06
683.077	5.1
683.403	4.97
683.729	5.07
684.056	5.07
684.382	5.06
684.708	5.08
685.034	5.01
685.36	4.88
685.686	4.95
686.012	5
686.339	4.91
686.664	4.81
686.99	4.79
687.316	4.82
687.642	4.81
687.968	4.74
688.294	4.76
688.619	4.64
688.945	4.65
689.271	4.65
689.596	4.69
689.922	4.74
690.247	4.77
690.573	4.64
690.898	4.7
691.224	4.61
691.549	4.52
691.874	4.65
692.2	4.75
692.525	4.76
692.85	4.75
693.175	4.9
693.5	4.9
693.825	5
694.15	5.03
694.475	5.03
694.8	4.98
695.125	4.95
695.45	5.01
695.775	5.1
696.099	5.18
696.424	5.15
696.749	5.13
697.073	5.16
697.398	5.3
697.723	5.29
698.047	5.44
698.372	5.43
698.696	5.31
699.02	5.36
699.345	5.42
699.669	5.42
699.993	5.33
700.318	5.35
700.642	5.33
700.966	5.34
701.29	5.44
701.614	5.4
701.938	5.37
702.262	5.32
702.586	5.32
702.91	5.23
703.234	5.2
703.557	5.17
703.881	5.14
704.205	5.15
704.529	5.06
704.852	4.96
705.176	5.08
705.499	5.19
705.823	5.16
706.146	5.01
706.47	5.01
706.793	5.09
707.117	5.11
707.44	5.07
707.763	5.03
708.086	4.99
708.409	5.04
708.733	5.11
709.056	5.2
709.379	5.16
709.702	5.21
710.025	5.3
710.348	5.23
710.671	5.38
710.993	5.37
711.316	5.49
711.639	5.41
711.962	5.5
712.284	5.5
712.607	5.52
712.93	5.48
713.252	5.47
713.575	5.43
713.897	5.41
714.22	5.5
714.542	5.55
714.864	5.45
715.187	5.49
715.509	5.44
715.831	5.49
716.153	5.7
716.475	5.77
716.798	5.66
717.12	5.77
717.442	5.61
717.764	5.58
718.085	5.58
718.407	5.69
718.729	5.35
719.051	5.41
719.373	5.49
719.695	5.62
720.016	5.7
720.338	5.82
720.659	6.12
720.981	5.99
721.302	6.03
721.624	6.09
721.945	6.04
722.267	6.27
722.588	6.21
722.909	5.87
723.231	5.8
723.552	5.82
723.873	5.72
724.194	5.92
724.515	5.99
724.836	6.02
725.157	6.01
725.478	6.26
725.799	6.16
726.12	5.94
726.441	6.07
726.762	6.11
727.083	6.3
727.403	6.07
727.724	6.14
728.045	6.11
728.365	6.25
728.686	6.37
729.006	6.11
729.327	6.05
729.647	6.06
729.967	6.05
730.288	5.97
730.608	6
730.928	5.9
731.249	6.07
731.569	6.08
731.889	5.95
732.209	5.89
732.529	5.96
732.849	6.16
733.169	6.13
733.489	6.08
733.809	5.8
734.129	5.6
734.448	5.57
734.768	5.58
735.088	5.42
735.408	5.43
735.727	5.53
736.047	5.54
736.366	5.69
736.686	5.86
737.005	6.18
737.325	6.15
737.644	6.05
737.963	5.86
738.283	5.85
738.602	6.11
738.921	6.15
739.24	6.09
739.56	5.92
739.879	5.79
740.198	5.64
740.517	5.71
740.836	5.94
741.155	6.14
741.473	6.18
741.792	6.2
742.111	6.17
742.43	6.19
742.748	6.42
743.067	6.44
743.386	6.13
743.704	5.78
744.023	5.9
744.341	6.12
744.66	6.13
744.978	6.36
745.297	6.41
745.615	6.32
745.933	6.55
746.252	6.4
746.57	6.46
746.888	6.55
747.206	6.54
747.524	6.61
747.842	6.45
748.16	6.4
748.478	6.61
748.796	6.48
749.114	6.5
749.432	6.17
749.749	5.92
750.067	6.09
750.385	6.34
750.703	6.32
751.02	6.21
751.338	6.05
751.655	5.73
751.973	5.51
752.29	5.5
752.608	5.26
752.925	5.52
753.242	5.8
753.56	5.66
753.877	5.61
754.194	5.38
754.511	5.59
754.828	5.7
755.145	5.55
755.462	5.67
755.779	5.68
756.096	5.81
756.413	6.03
756.73	5.9
757.047	5.84
757.364	5.75
757.68	5.86
757.997	5.91
758.314	5.94
758.63	5.87
758.947	5.85
759.264	6.12
759.58	6.08
759.896	5.75
760.213	6.19
760.529	6.15
760.846	6.3
761.162	6.04
761.478	5.83
761.794	5.88
762.11	5.84
762.426	5.92
762.743	5.94
763.059	5.83
763.375	6
763.69	6.04
764.006	6.07
764.322	6.05
764.638	6.22
764.954	6.29
765.27	6.4
765.585	6.45
765.901	6.26
766.216	6.37
766.532	6.51
766.848	6.45
767.163	6.5
767.478	6.48
767.794	6.46
768.109	6.43
768.424	6.3
768.74	6.38
769.055	6.22
769.37	6.28
769.685	6.1
770	6.23
770.315	6.5
770.63	6.69
770.945	6.61
771.26	6.39
771.575	6.36
771.89	6.23
772.205	6.15
772.52	6.31
772.834	6.08
773.149	6.1
773.464	5.93
773.778	6.04
774.093	5.82
774.407	6.11
774.722	6.14
775.036	6.44
775.351	6.61
775.665	6.72
775.979	7.07
776.293	7.66
776.608	7.54
776.922	7.02
777.236	7.02
777.55	6.96
777.864	7.18
778.178	7.21
778.492	7.65
778.806	7.89
779.12	7.9
779.434	8.31
779.747	8.31
780.061	8.35
780.375	8.38
780.689	8.83
781.002	8.6
781.316	8.65
781.629	8.38
781.943	8.17
782.256	7.97
782.57	7.39
782.883	7.27
783.196	7.31
783.51	7.45
783.823	7.23
784.136	7.17
784.449	6.9
784.762	6.96
785.075	6.8
785.388	6.83
785.701	6.77
786.014	6.46
786.327	6.32
786.64	6.32
786.953	6.45
787.266	5.72
787.578	5.84
787.891	6.01
788.204	5.91
788.516	5.87
788.829	6.15
789.141	6.54
789.454	6.7
789.766	6.46
790.079	5.97
790.391	5.7
790.703	6.31
791.016	6.66
791.328	6.86
791.64	6.72
791.952	6.76
792.264	6.86
792.576	7.16
792.888	6.88
793.2	7.05
793.512	6.98
793.824	7.69
794.136	7.74
794.448	7.91
794.76	8.13
795.071	8.08
795.383	8
795.695	7.74
796.006	7.39
796.318	7.65
796.629	8.06
796.941	8.58
797.252	8.21
797.564	7.95
797.875	7.44
798.186	7.51
798.497	7.28
798.809	7.38
799.12	6.72
799.431	7.46
799.742	7.44
800.053	7.13
800.364	7.3
800.675	7.27
800.986	7.17
801.297	7.33
801.608	7.6
801.918	7.49
802.229	7.68
802.54	7.85
802.851	7.87
803.161	7.76
803.472	7.68
803.782	7.94
804.093	7.95
804.403	8.25
804.714	8.25
805.024	8.55
805.334	8.47
805.645	9.42
805.955	9.3
806.265	9.37
806.575	9.53
806.885	9.14
807.195	8.94
807.505	8.93
807.815	8.71
808.125	8.36
808.435	8.21
808.745	8.13
809.055	8.55
809.365	8.19
809.674	8.85
809.984	8.41
810.294	7.91
810.603	6.79
810.913	6.4
811.222	6.16
811.532	6.23
811.841	5.94
812.151	5.79
812.46	5.66
812.769	5
813.079	5.2
813.388	4.88
813.697	5.3
814.006	4.97
814.315	5.39
814.624	5.73
814.933	6.06
815.242	6.41
815.551	6.47
815.86	7.06
816.169	6.65
816.478	6.7
816.786	6.83
817.095	7.45
817.404	7.64
817.712	7.82
818.021	7.35
818.33	7.46
818.638	7.07
818.947	7.32
819.255	7.53
819.563	7.69
819.872	7.52
820.18	7.46
820.488	7.73
820.796	7.79
821.105	7.78
821.413	7.98
821.721	7.68
822.029	7.63
822.337	7.73
822.645	7.82
822.953	7.98
823.26	8.1
823.568	8.27
823.876	8.28
824.184	8.24
824.491	8.33
824.799	8.25
825.107	8.3
825.414	8.1
825.722	8.1
826.029	8.09
826.337	8.39
826.644	8.52
826.951	8.53
827.259	8.57
827.566	8.62
827.873	8.48
828.18	8.68
828.488	8.78
828.795	8.43
829.102	8.34
829.409	7.9
829.716	8.01
830.023	7.95
830.329	8.28
830.636	8.48
830.943	8.4
831.25	8.67
831.557	8.58
831.863	8.7
832.17	8.76
832.476	8.5
832.783	8.05
833.089	7.73
833.396	7.86
833.702	7.7
834.009	8.18
834.315	8.61
834.621	8.57
834.928	8.96
835.234	9.35
835.54	9.16
835.846	9.73
836.152	9.28
836.458	9.1
836.764	8.33
837.07	7.98
837.376	8.46
837.682	8.6
837.988	8.57
838.293	8.83
838.599	8.98
838.905	9.18
839.211	9.58
839.516	9.74
839.822	9.5
840.127	9.44
840.433	8.64
840.738	8.42
841.044	8.94
841.349	7.91
841.654	7.15
841.959	9.03
842.265	9.67
842.57	9.58
842.875	10.39
843.18	11.12
843.485	12.2
843.79	11.96
844.095	11.73
844.4	10.93
844.705	10.32
845.01	11.03
845.315	10.9
845.619	12.22
845.924	12.05
846.229	11.39
846.533	10.76
846.838	10.19
847.142	9.36
847.447	8.23
847.751	7.81
848.056	7.97
848.36	5.54
848.664	3.42
848.969	3.22
849.273	1.43
849.577	2.78
849.881	1.73
850.185	0.73
850.489	1.58
850.794	4.24
851.097	5.6
851.401	2.88
851.705	2.42
852.009	2.56
852.313	2.87
852.617	4.73
852.92	5.06
853.224	4.75
853.528	5.12
853.831	7.67
854.135	6.38
854.438	7.02
854.742	7
855.045	8.78
855.349	9.82
855.652	10.15
855.955	8.88
856.259	10.13
856.562	9.76
856.865	9.44
857.168	8.8
857.471	9.25
857.774	9.46
858.077	12.14
858.38	10.39
858.683	12.49
858.986	12.33
859.289	12.29
859.592	13.05
859.894	13.46
860.197	11.5
860.5	14.16
860.802	16.47
861.105	18.14
861.407	18.29
861.71	18.33
862.012	18.35
862.315	19.25
862.617	19.04
862.919	19.33
863.222	18.87
863.524	19.46
863.826	19.37
864.128	21.41
864.43	20.35
864.732	20.3
865.034	17.58
865.336	15.58
865.638	17.52
865.94	17.06
866.242	15.81
866.544	18.13
866.846	18.22
867.147	16.94
867.449	15.39
867.751	13.66
868.052	12.95
868.354	16.28
868.655	16.82
868.957	15.11
869.258	14.77
869.56	13.77
869.861	14.32
870.162	14.53
870.463	15.19
870.765	11.45
871.066	12.06
871.367	13.49
871.668	14.27
871.969	11.87
872.27	13.99
872.571	15.21
872.872	12.79
873.173	11.24
873.473	11.91
873.774	11.08
874.075	14.91
874.376	16.32
874.676	16.44
874.977	17.08
875.277	17.28
875.578	19.16
875.878	20.64
876.179	19.81
876.479	19.08
876.78	18.02
877.08	21.83
877.38	22.38
877.68	22.54
877.981	24.24
878.281	27.93
878.581	26.28
