Data from MVZ_BU78245_Reflection_00010.txt Node
Date: Tue Nov 19 12:01:17 EST 2019
User: vgr7
Spectrometer: USB2G7710
Scans to average: 3
Trigger mode: 4
Integration Time (sec): 2.000000E-2
Electric dark correction enabled: true
Boxcar width: 10
XAxis mode: Wavelengths
Number of Pixels in Spectrum: 2048
>>>>>Begin Spectral Data<<<<<
177.721	1634.09
178.105	1488.89
178.488	-366.46
178.871	-4100
179.254	81.25
179.636	170.09
180.019	37.97
180.402	-162.5
180.785	48.44
181.168	124.59
181.55	-150
181.933	178.12
182.316	-469.44
182.698	683.33
183.081	146.87
183.463	96.75
183.846	58.33
184.228	79.78
184.611	50.51
184.993	76.25
185.376	137.11
185.758	174.79
186.14	211.36
186.522	277.33
186.904	164.58
187.287	74.83
187.669	77.27
188.051	40.85
188.433	42.74
188.815	48.76
189.197	14.32
189.579	34.55
189.961	8.8
190.342	2.66
190.724	0.22
191.106	5.38
191.488	5.64
191.869	19.87
192.251	15.99
192.633	17.03
193.014	-14.5
193.396	-7.83
193.777	-3.84
194.159	-16.18
194.54	-16.41
194.922	-31.27
195.303	-14.2
195.684	-15.54
196.065	-30.4
196.447	-36.89
196.828	-42.95
197.209	-30.24
197.59	-27.42
197.971	-30.89
198.352	-25.85
198.733	-36.31
199.114	-44.1
199.495	-41.3
199.876	-41.04
200.257	-48.9
200.638	-43.29
201.018	-24.08
201.399	-32.54
201.78	-32.21
202.16	-15.22
202.541	-20.99
202.922	-19.39
203.302	-35.15
203.683	-39.33
204.063	-28.87
204.444	-20.97
204.824	-21.01
205.204	-30.13
205.585	-29.31
205.965	-24.55
206.345	-23.09
206.725	-7.52
207.106	5.91
207.486	19.09
207.866	3.66
208.246	16.02
208.626	5.81
209.006	-3.1
209.386	-9.84
209.766	-33.02
210.145	-37
210.525	-51.54
210.905	-23.28
211.285	-12.09
211.664	5.77
212.044	2.09
212.424	4.35
212.803	-0.13
213.183	-11.36
213.562	-32.54
213.942	-38.5
214.321	-43.46
214.701	-46.52
215.08	-61.5
215.459	-64.59
215.838	-83.5
216.218	-143.87
216.597	-118.9
216.976	-188.22
217.355	-154.31
217.734	-99.74
218.113	-105.8
218.492	-90.71
218.871	-111.67
219.25	-110.16
219.629	-177.6
220.008	-147.04
220.387	-98.89
220.766	-77.13
221.144	-55.96
221.523	-20.26
221.902	-14.27
222.28	-17.61
222.659	-7.7
223.037	-5.18
223.416	-0.52
223.794	9.81
224.173	18.45
224.551	21.7
224.929	22.41
225.308	18.16
225.686	7.01
226.064	7.1
226.442	8.42
226.821	10.24
227.199	9.72
227.577	15.68
227.955	13.56
228.333	11.54
228.711	6.16
229.089	6.52
229.467	4.12
229.845	0.74
230.222	0.84
230.6	-0.54
230.978	-2.06
231.356	-3.55
231.733	-6.26
232.111	-9.84
232.488	-9.8
232.866	-5.15
233.243	-3.72
233.621	-1.61
233.998	-1.89
234.376	-1.5
234.753	-4.18
235.13	-3.87
235.508	-6.35
235.885	-6.12
236.262	-7.38
236.639	-3.7
237.016	-3.75
237.393	-3.31
237.77	-2.3
238.147	-1.27
238.524	-0.67
238.901	0.08
239.278	0.77
239.655	1.67
240.032	3.15
240.409	3.1
240.785	2.04
241.162	1.75
241.539	1.32
241.915	1.8
242.292	1.71
242.668	2.17
243.045	2.58
243.421	3.29
243.798	3.53
244.174	3.67
244.551	3.57
244.927	4.15
245.303	4.12
245.679	4.43
246.056	4.48
246.432	4.71
246.808	4.78
247.184	5.02
247.56	4.74
247.936	4.55
248.312	4.69
248.688	4.6
249.064	4.87
249.44	4.76
249.815	4.56
250.191	4.49
250.567	4.42
250.943	4.39
251.318	4.2
251.694	4
252.069	4.03
252.445	3.97
252.82	3.68
253.196	3.47
253.571	3.28
253.947	3.31
254.322	3.1
254.697	3
255.073	2.98
255.448	3.08
255.823	3.07
256.198	2.96
256.573	3.17
256.948	3.19
257.323	3.34
257.698	3.66
258.073	3.36
258.448	3.52
258.823	3.42
259.198	3.6
259.573	3.6
259.948	3.65
260.322	3.41
260.697	3.41
261.072	3.51
261.446	3.7
261.821	3.48
262.195	3.36
262.57	3.37
262.944	3.35
263.319	3.37
263.693	3.36
264.067	3.3
264.442	3.07
264.816	3.01
265.19	2.96
265.564	2.67
265.938	2.86
266.313	2.76
266.687	3.04
267.061	2.93
267.435	3.12
267.809	3.01
268.183	3.27
268.556	3.42
268.93	3.62
269.304	3.29
269.678	3.4
270.051	3.54
270.425	3.54
270.799	3.22
271.172	3.14
271.546	3.33
271.919	3.29
272.293	3.47
272.666	3.36
273.04	3.61
273.413	3.67
273.787	3.79
274.16	3.86
274.533	3.86
274.906	3.91
275.279	3.93
275.653	4.11
276.026	4.04
276.399	3.92
276.772	3.78
277.145	4
277.518	3.88
277.891	3.91
278.263	3.96
278.636	4.29
279.009	4.47
279.382	4.18
279.755	4.39
280.127	4.38
280.5	4.53
280.872	4.44
281.245	4.35
281.617	4.31
281.99	4.15
282.362	4.12
282.735	4.04
283.107	3.84
283.479	3.8
283.852	3.82
284.224	3.87
284.596	3.86
284.968	3.72
285.34	3.85
285.713	3.78
286.085	3.64
286.457	3.52
286.829	3.44
287.201	3.55
287.572	3.59
287.944	3.83
288.316	3.89
288.688	3.93
289.06	3.93
289.431	3.99
289.803	4.16
290.175	4.06
290.546	4.11
290.918	4.08
291.289	3.99
291.661	4.1
292.032	4.29
292.403	4.28
292.775	4.5
293.146	4.65
293.517	4.69
293.889	4.81
294.26	4.98
294.631	5.19
295.002	5.18
295.373	5.07
295.744	4.95
296.115	4.87
296.486	4.82
296.857	4.97
297.228	4.87
297.599	4.8
297.97	4.96
298.34	4.98
298.711	5.13
299.082	5.18
299.452	5.21
299.823	5.02
300.194	5.17
300.564	5.05
300.935	5.05
301.305	5.03
301.676	5.11
302.046	5.15
302.416	5
302.787	5.13
303.157	5.26
303.527	5.41
303.897	5.5
304.267	5.48
304.637	5.47
305.008	5.6
305.378	5.84
305.748	5.85
306.117	5.89
306.487	6.06
306.857	6.27
307.227	6.32
307.597	6.53
307.967	6.48
308.336	6.57
308.706	6.6
309.076	6.7
309.445	6.78
309.815	6.77
310.184	6.8
310.554	6.84
310.923	6.91
311.293	6.87
311.662	6.95
312.031	7.05
312.401	7.12
312.77	7.18
313.139	7.22
313.508	7.18
313.877	7.14
314.246	7.07
314.616	6.93
314.985	6.86
315.353	6.87
315.722	7.13
316.091	7.39
316.46	7.38
316.829	7.49
317.198	7.57
317.567	7.64
317.935	7.77
318.304	7.9
318.672	7.96
319.041	7.86
319.41	7.65
319.778	7.8
320.147	7.84
320.515	7.89
320.883	7.86
321.252	7.96
321.62	7.97
321.988	8.06
322.357	8.29
322.725	8.5
323.093	8.66
323.461	8.47
323.829	8.48
324.197	8.61
324.565	8.73
324.933	8.75
325.301	8.5
325.669	8.57
326.037	8.43
326.405	8.45
326.772	8.57
327.14	8.74
327.508	8.76
327.875	8.84
328.243	8.76
328.61	8.75
328.978	8.8
329.346	8.87
329.713	8.91
330.08	8.87
330.448	8.93
330.815	8.65
331.182	8.86
331.55	8.72
331.917	8.67
332.284	8.64
332.651	8.65
333.018	8.75
333.385	8.79
333.752	9.07
334.119	9.23
334.486	9.39
334.853	9.51
335.22	9.43
335.587	9.34
335.954	9.46
336.32	9.36
336.687	9.33
337.054	9.44
337.42	9.52
337.787	9.66
338.153	9.7
338.52	9.99
338.886	9.92
339.253	10.01
339.619	10.14
339.986	10.16
340.352	10.12
340.718	10.29
341.084	10.28
341.451	10.15
341.817	10.11
342.183	10.04
342.549	10.14
342.915	10.22
343.281	10.28
343.647	10.23
344.013	10.35
344.379	10.49
344.745	10.53
345.11	10.55
345.476	10.48
345.842	10.4
346.208	10.38
346.573	10.45
346.939	10.48
347.304	10.52
347.67	10.58
348.035	10.65
348.401	10.62
348.766	10.57
349.132	10.6
349.497	10.68
349.862	10.65
350.228	10.61
350.593	10.62
350.958	10.65
351.323	10.7
351.688	10.81
352.053	10.78
352.418	10.81
352.783	10.82
353.148	10.8
353.513	10.8
353.878	10.62
354.243	10.58
354.608	10.61
354.972	10.52
355.337	10.45
355.702	10.51
356.066	10.64
356.431	10.71
356.795	10.75
357.16	10.61
357.524	10.65
357.889	10.62
358.253	10.6
358.618	10.57
358.982	10.64
359.346	10.6
359.71	10.61
360.075	10.6
360.439	10.62
360.803	10.65
361.167	10.6
361.531	10.68
361.895	10.67
362.259	10.63
362.623	10.65
362.987	10.7
363.351	10.62
363.714	10.57
364.078	10.6
364.442	10.46
364.806	10.47
365.169	10.44
365.533	10.44
365.896	10.39
366.26	10.39
366.623	10.29
366.987	10.18
367.35	10.14
367.714	10.08
368.077	9.99
368.44	9.95
368.803	9.98
369.167	9.93
369.53	9.92
369.893	9.91
370.256	9.85
370.619	9.75
370.982	9.7
371.345	9.65
371.708	9.58
372.071	9.59
372.434	9.61
372.797	9.57
373.159	9.47
373.522	9.48
373.885	9.36
374.247	9.33
374.61	9.35
374.973	9.29
375.335	9.26
375.698	9.18
376.06	9.16
376.423	9.16
376.785	9.24
377.147	9.15
377.51	9.04
377.872	8.98
378.234	8.94
378.596	8.84
378.958	8.77
379.321	8.74
379.683	8.7
380.045	8.55
380.407	8.53
380.769	8.49
381.13	8.42
381.492	8.46
381.854	8.39
382.216	8.36
382.578	8.33
382.939	8.24
383.301	8.23
383.663	8.19
384.024	8.08
384.386	7.93
384.747	7.87
385.109	7.91
385.47	7.89
385.832	7.81
386.193	7.81
386.554	7.73
386.916	7.64
387.277	7.61
387.638	7.62
387.999	7.57
388.36	7.53
388.721	7.52
389.082	7.49
389.443	7.46
389.804	7.43
390.165	7.37
390.526	7.41
390.887	7.34
391.248	7.26
391.609	7.24
391.969	7.22
392.33	7.18
392.691	7.1
393.051	7.04
393.412	7.04
393.772	7.06
394.133	7.05
394.493	7
394.854	6.95
395.214	6.88
395.574	6.81
395.935	6.79
396.295	6.68
396.655	6.61
397.015	6.54
397.376	6.49
397.736	6.41
398.096	6.33
398.456	6.3
398.816	6.28
399.176	6.17
399.535	6.11
399.895	6.08
400.255	6.04
400.615	5.99
400.975	5.93
401.334	5.83
401.694	5.8
402.054	5.77
402.413	5.75
402.773	5.71
403.132	5.71
403.492	5.65
403.851	5.71
404.211	5.69
404.57	5.68
404.929	5.62
405.288	5.63
405.648	5.59
406.007	5.57
406.366	5.55
406.725	5.57
407.084	5.55
407.443	5.5
407.802	5.5
408.161	5.51
408.52	5.49
408.879	5.49
409.238	5.46
409.596	5.43
409.955	5.4
410.314	5.42
410.673	5.4
411.031	5.4
411.39	5.37
411.748	5.35
412.107	5.33
412.465	5.34
412.824	5.33
413.182	5.34
413.54	5.31
413.899	5.29
414.257	5.31
414.615	5.3
414.974	5.33
415.332	5.31
415.69	5.31
416.048	5.3
416.406	5.26
416.764	5.24
417.122	5.25
417.48	5.23
417.838	5.19
418.195	5.15
418.553	5.12
418.911	5.09
419.269	5.05
419.626	5.05
419.984	5.02
420.342	5.02
420.699	4.98
421.057	4.96
421.414	4.94
421.772	4.91
422.129	4.88
422.486	4.84
422.844	4.82
423.201	4.8
423.558	4.76
423.915	4.76
424.273	4.74
424.63	4.71
424.987	4.7
425.344	4.69
425.701	4.69
426.058	4.68
426.415	4.66
426.772	4.65
427.128	4.61
427.485	4.6
427.842	4.55
428.199	4.54
428.555	4.52
428.912	4.5
429.269	4.47
429.625	4.48
429.982	4.47
430.338	4.48
430.695	4.43
431.051	4.44
431.407	4.44
431.764	4.42
432.12	4.42
432.476	4.41
432.832	4.38
433.189	4.36
433.545	4.32
433.901	4.3
434.257	4.28
434.613	4.3
434.969	4.3
435.325	4.31
435.681	4.32
436.036	4.32
436.392	4.35
436.748	4.36
437.104	4.34
437.459	4.34
437.815	4.32
438.171	4.35
438.526	4.34
438.882	4.36
439.237	4.36
439.593	4.36
439.948	4.36
440.304	4.38
440.659	4.39
441.014	4.4
441.369	4.42
441.725	4.44
442.08	4.42
442.435	4.41
442.79	4.41
443.145	4.4
443.5	4.4
443.855	4.37
444.21	4.35
444.565	4.36
444.92	4.36
445.275	4.35
445.629	4.33
445.984	4.33
446.339	4.29
446.693	4.3
447.048	4.3
447.403	4.27
447.757	4.25
448.112	4.23
448.466	4.24
448.82	4.22
449.175	4.19
449.529	4.18
449.883	4.17
450.238	4.16
450.592	4.15
450.946	4.13
451.3	4.13
451.654	4.11
452.008	4.09
452.362	4.09
452.716	4.09
453.07	4.1
453.424	4.07
453.778	4.08
454.132	4.04
454.486	4.02
454.839	4.02
455.193	4.03
455.547	4.03
455.9	4.03
456.254	4.03
456.607	4.03
456.961	4.03
457.314	4.05
457.668	4.04
458.021	4.04
458.375	4.03
458.728	4.03
459.081	4.04
459.434	4.03
459.787	4.03
460.141	4.03
460.494	4.03
460.847	4.03
461.2	4.03
461.553	4.05
461.906	4.08
462.259	4.09
462.611	4.08
462.964	4.12
463.317	4.12
463.67	4.13
464.022	4.16
464.375	4.15
464.728	4.13
465.08	4.14
465.433	4.17
465.785	4.19
466.138	4.2
466.49	4.2
466.843	4.22
467.195	4.25
467.547	4.26
467.899	4.28
468.252	4.29
468.604	4.3
468.956	4.32
469.308	4.31
469.66	4.34
470.012	4.38
470.364	4.37
470.716	4.39
471.068	4.41
471.42	4.46
471.772	4.48
472.123	4.51
472.475	4.52
472.827	4.52
473.178	4.56
473.53	4.59
473.882	4.59
474.233	4.6
474.585	4.59
474.936	4.59
475.288	4.57
475.639	4.6
475.99	4.61
476.342	4.61
476.693	4.61
477.044	4.61
477.395	4.61
477.746	4.6
478.097	4.6
478.448	4.6
478.8	4.58
479.15	4.56
479.501	4.56
479.852	4.56
480.203	4.57
480.554	4.54
480.905	4.52
481.255	4.55
481.606	4.55
481.957	4.55
482.307	4.56
482.658	4.56
483.009	4.56
483.359	4.55
483.709	4.55
484.06	4.55
484.41	4.55
484.761	4.54
485.111	4.55
485.461	4.55
485.811	4.54
486.162	4.55
486.512	4.54
486.862	4.55
487.212	4.54
487.562	4.53
487.912	4.54
488.262	4.55
488.612	4.53
488.961	4.53
489.311	4.54
489.661	4.53
490.011	4.53
490.36	4.52
490.71	4.53
491.06	4.52
491.409	4.53
491.759	4.53
492.108	4.53
492.458	4.52
492.807	4.5
493.157	4.52
493.506	4.51
493.855	4.54
494.204	4.55
494.554	4.57
494.903	4.59
495.252	4.61
495.601	4.65
495.95	4.7
496.299	4.73
496.648	4.76
496.997	4.8
497.346	4.84
497.695	4.89
498.043	4.93
498.392	5.01
498.741	5.07
499.09	5.12
499.438	5.21
499.787	5.29
500.135	5.36
500.484	5.45
500.832	5.54
501.181	5.61
501.529	5.71
501.878	5.81
502.226	5.91
502.574	6.01
502.923	6.08
503.271	6.2
503.619	6.31
503.967	6.4
504.315	6.52
504.663	6.64
505.011	6.76
505.359	6.86
505.707	6.95
506.055	7.08
506.403	7.2
506.751	7.3
507.098	7.42
507.446	7.54
507.794	7.66
508.141	7.79
508.489	7.92
508.837	8.01
509.184	8.14
509.531	8.27
509.879	8.38
510.226	8.5
510.574	8.61
510.921	8.74
511.268	8.89
511.616	9.01
511.963	9.13
512.31	9.28
512.657	9.42
513.004	9.58
513.351	9.72
513.698	9.86
514.045	10.02
514.392	10.19
514.739	10.37
515.086	10.5
515.432	10.67
515.779	10.82
516.126	11.01
516.473	11.17
516.819	11.27
517.166	11.42
517.512	11.58
517.859	11.71
518.205	11.81
518.552	11.91
518.898	12.04
519.245	12.16
519.591	12.29
519.937	12.43
520.283	12.54
520.629	12.67
520.976	12.82
521.322	12.97
521.668	13.09
522.014	13.24
522.36	13.43
522.706	13.6
523.052	13.8
523.398	13.99
523.743	14.15
524.089	14.4
524.435	14.57
524.781	14.73
525.126	14.9
525.472	15.07
525.817	15.22
526.163	15.33
526.509	15.48
526.854	15.62
527.199	15.71
527.545	15.84
527.89	15.94
528.235	16.06
528.581	16.16
528.926	16.3
529.271	16.41
529.616	16.52
529.961	16.62
530.306	16.76
530.651	16.88
530.996	17.02
531.341	17.17
531.686	17.33
532.031	17.49
532.376	17.66
532.721	17.81
533.065	17.98
533.41	18.16
533.755	18.33
534.099	18.48
534.444	18.68
534.788	18.85
535.133	19.04
535.477	19.21
535.822	19.41
536.166	19.62
536.51	19.82
536.855	20.06
537.199	20.29
537.543	20.48
537.887	20.69
538.231	20.93
538.576	21.11
538.92	21.35
539.264	21.57
539.608	21.77
539.951	21.98
540.295	22.17
540.639	22.37
540.983	22.57
541.327	22.74
541.671	22.92
542.014	23.08
542.358	23.25
542.701	23.43
543.045	23.59
543.389	23.74
543.732	23.91
544.075	24.09
544.419	24.26
544.762	24.5
545.105	24.72
545.449	24.91
545.792	25.15
546.135	25.37
546.478	25.55
546.821	25.78
547.165	26
547.508	26.25
547.851	26.52
548.194	26.73
548.536	26.97
548.879	27.23
549.222	27.51
549.565	27.75
549.908	27.94
550.25	28.18
550.593	28.45
550.936	28.69
551.278	28.95
551.621	29.2
551.963	29.39
552.306	29.58
552.648	29.83
552.991	30.04
553.333	30.24
553.675	30.49
554.017	30.67
554.36	30.9
554.702	31.08
555.044	31.19
555.386	31.37
555.728	31.6
556.07	31.74
556.412	31.92
556.754	32.1
557.096	32.34
557.438	32.55
557.78	32.74
558.121	33.01
558.463	33.17
558.805	33.38
559.147	33.64
559.488	33.81
559.83	33.96
560.171	34.2
560.513	34.33
560.854	34.52
561.196	34.71
561.537	34.88
561.878	35.16
562.22	35.34
562.561	35.55
562.902	35.74
563.243	35.97
563.584	36.11
563.925	36.27
564.266	36.44
564.607	36.62
564.948	36.79
565.289	36.93
565.63	37.07
565.971	37.2
566.312	37.2
566.653	37.37
566.993	37.54
567.334	37.61
567.675	37.8
568.015	37.86
568.356	38.06
568.696	38.21
569.037	38.3
569.377	38.46
569.718	38.57
570.058	38.64
570.398	38.75
570.739	38.85
571.079	39.01
571.419	39.1
571.759	39.21
572.099	39.31
572.439	39.41
572.779	39.51
573.119	39.63
573.459	39.76
573.799	39.82
574.139	39.9
574.479	40.01
574.819	40.08
575.158	40.26
575.498	40.3
575.838	40.36
576.177	40.42
576.517	40.48
576.856	40.57
577.196	40.67
577.535	40.76
577.875	40.85
578.214	40.9
578.553	40.94
578.893	41
579.232	41.06
579.571	41.11
579.91	41.22
580.25	41.26
580.589	41.41
580.928	41.5
581.267	41.53
581.606	41.62
581.945	41.7
582.283	41.68
582.622	41.73
582.961	41.77
583.3	41.74
583.639	41.77
583.977	41.8
584.316	41.82
584.654	41.91
584.993	42.01
585.332	42.08
585.67	42.22
586.008	42.27
586.347	42.37
586.685	42.42
587.024	42.46
587.362	42.49
587.7	42.51
588.038	42.63
588.376	42.71
588.715	42.78
589.053	42.79
589.391	42.85
589.729	42.87
590.067	42.91
590.404	43.04
590.742	43.11
591.08	43.2
591.418	43.36
591.756	43.36
592.093	43.41
592.431	43.45
592.769	43.48
593.106	43.55
593.444	43.59
593.781	43.69
594.119	43.74
594.456	43.79
594.793	43.86
595.131	43.78
595.468	43.9
595.805	43.95
596.143	43.98
596.48	44.09
596.817	44.15
597.154	44.24
597.491	44.28
597.828	44.37
598.165	44.38
598.502	44.39
598.839	44.38
599.176	44.39
599.512	44.47
599.849	44.52
600.186	44.55
600.523	44.59
600.859	44.61
601.196	44.65
601.532	44.76
601.869	44.83
602.205	45.01
602.542	45
602.878	45.02
603.215	45.08
603.551	45.08
603.887	45.18
604.223	45.21
604.56	45.27
604.896	45.3
605.232	45.26
605.568	45.29
605.904	45.33
606.24	45.41
606.576	45.45
606.912	45.55
607.248	45.58
607.583	45.59
607.919	45.61
608.255	45.65
608.591	45.66
608.926	45.65
609.262	45.6
609.597	45.59
609.933	45.58
610.268	45.59
610.604	45.59
610.939	45.62
611.275	45.61
611.61	45.67
611.945	45.67
612.281	45.78
612.616	45.78
612.951	45.8
613.286	45.83
613.621	45.81
613.956	45.8
614.291	45.8
614.626	45.85
614.961	45.87
615.296	45.93
615.631	45.86
615.966	45.87
616.3	46.04
616.635	46.17
616.97	46.2
617.304	46.21
617.639	46.31
617.973	46.24
618.308	46.23
618.642	46.17
618.977	46.15
619.311	46.2
619.646	46.24
619.98	46.4
620.314	46.42
620.648	46.46
620.983	46.35
621.317	46.45
621.651	46.55
621.985	46.57
622.319	46.64
622.653	46.7
622.987	46.73
623.321	46.6
623.655	46.59
623.988	46.65
624.322	46.74
624.656	46.75
624.99	46.8
625.323	46.78
625.657	46.85
625.99	46.91
626.324	46.92
626.657	47
626.991	46.96
627.324	46.96
627.658	47.04
627.991	47.1
628.324	46.98
628.657	46.88
628.991	46.86
629.324	46.78
629.657	46.74
629.99	46.71
630.323	46.8
630.656	46.83
630.989	46.76
631.322	46.81
631.655	46.78
631.987	46.77
632.32	46.86
632.653	46.9
632.986	46.9
633.318	46.8
633.651	46.77
633.984	46.75
634.316	46.79
634.649	46.74
634.981	46.85
635.313	46.88
635.646	46.93
635.978	47.04
636.31	47.17
636.643	47.27
636.975	47.39
637.307	47.41
637.639	47.38
637.971	47.42
638.303	47.39
638.635	47.34
638.967	47.47
639.299	47.53
639.631	47.36
639.963	47.35
640.295	47.44
640.626	47.42
640.958	47.29
641.29	47.28
641.621	47.3
641.953	47.24
642.285	47.28
642.616	47.35
642.948	47.22
643.279	46.98
643.61	47.02
643.942	46.91
644.273	46.87
644.604	46.87
644.936	46.9
645.267	46.83
645.598	46.83
645.929	46.72
646.26	46.71
646.591	46.95
646.922	47.04
647.253	46.99
647.584	46.96
647.915	47.09
648.245	47.01
648.576	47.07
648.907	47.05
649.238	47.1
649.568	47.12
649.899	47.17
650.229	47.42
650.56	47.35
650.89	47.44
651.221	47.45
651.551	47.46
651.882	47.52
652.212	47.53
652.542	47.72
652.872	47.74
653.203	47.76
653.533	47.74
653.863	47.68
654.193	47.8
654.523	47.84
654.853	47.93
655.183	48.02
655.513	48.08
655.843	48.21
656.172	48.26
656.502	48.25
656.832	48.37
657.162	48.28
657.491	48.41
657.821	48.35
658.15	48.44
658.48	48.5
658.809	48.48
659.139	48.57
659.468	48.52
659.798	48.5
660.127	48.46
660.456	48.43
660.785	48.41
661.115	48.37
661.444	48.29
661.773	48.26
662.102	48.29
662.431	48.19
662.76	48.11
663.089	48.14
663.418	48.08
663.747	48.05
664.076	48.12
664.404	48.09
664.733	48.18
665.062	48.15
665.39	48.11
665.719	48.08
666.048	48.03
666.376	47.93
666.705	48
667.033	48.01
667.362	48.03
667.69	48.16
668.018	48.26
668.347	48.32
668.675	48.37
669.003	48.33
669.331	48.45
669.659	48.53
669.987	48.58
670.315	48.61
670.643	48.46
670.971	48.36
671.299	48.29
671.627	48.27
671.955	48.29
672.283	48.28
672.61	48.22
672.938	48.25
673.266	48.39
673.593	48.37
673.921	48.33
674.249	48.31
674.576	48.4
674.904	48.32
675.231	48.3
675.558	48.32
675.886	48.35
676.213	48.26
676.54	48.23
676.867	48.29
677.195	48.39
677.522	48.56
677.849	48.67
678.176	48.66
678.503	48.73
678.83	48.68
679.157	48.64
679.484	48.72
679.81	48.77
680.137	48.77
680.464	48.93
680.791	49.01
681.117	49.08
681.444	48.94
681.771	49.04
682.097	49.22
682.424	49.24
682.75	49.26
683.077	49.18
683.403	49.13
683.729	49.04
684.056	49.02
684.382	48.97
684.708	48.97
685.034	49.11
685.36	49.04
685.686	48.98
686.012	49.12
686.339	49.21
686.664	49.1
686.99	49.18
687.316	49.16
687.642	49.26
687.968	49.24
688.294	49.18
688.619	49.19
688.945	49.21
689.271	49.1
689.596	49.03
689.922	49.18
690.247	49.3
690.573	49.3
690.898	49.28
691.224	49.22
691.549	49.27
691.874	49.15
692.2	49.32
692.525	49.59
692.85	49.47
693.175	49.28
693.5	49.38
693.825	49.27
694.15	49.11
694.475	49.01
694.8	48.92
695.125	49.08
695.45	49
695.775	48.91
696.099	48.93
696.424	49.18
696.749	49.14
697.073	49.12
697.398	49.11
697.723	49.15
698.047	49.25
698.372	49.23
698.696	49.22
699.02	49.03
699.345	48.9
699.669	48.9
699.993	48.99
700.318	48.9
700.642	49.04
700.966	49.08
701.29	49.03
701.614	49.09
701.938	49.02
702.262	49.02
702.586	49.04
702.91	49.07
703.234	48.83
703.557	48.85
703.881	48.89
704.205	48.71
704.529	48.62
704.852	48.63
705.176	48.44
705.499	48.76
705.823	49.02
706.146	48.98
706.47	49.16
706.793	49.24
707.117	49.46
707.44	49.2
707.763	49.16
708.086	49.25
708.409	49.28
708.733	49.32
709.056	49.53
709.379	49.57
709.702	49.83
710.025	50.01
710.348	50
710.671	49.76
710.993	50.01
711.316	49.97
711.639	49.92
711.962	50.11
712.284	49.94
712.607	49.66
712.93	49.7
713.252	49.61
713.575	49.61
713.897	49.53
714.22	49.78
714.542	49.84
714.864	49.84
715.187	49.81
715.509	49.69
715.831	49.43
716.153	49.41
716.475	49.17
716.798	49.04
717.12	49.2
717.442	49.49
717.764	49.48
718.085	49.62
718.407	49.61
718.729	49.4
719.051	49.31
719.373	49.27
719.695	49.37
720.016	49.35
720.338	49.14
720.659	49.11
720.981	48.89
721.302	48.75
721.624	48.79
721.945	48.85
722.267	48.92
722.588	48.87
722.909	48.85
723.231	48.72
723.552	48.75
723.873	48.62
724.194	48.22
724.515	47.89
724.836	48.03
725.157	48.1
725.478	48.2
725.799	48.34
726.12	48.47
726.441	48.41
726.762	48.38
727.083	48.54
727.403	48.84
727.724	49.01
728.045	49.21
728.365	49.01
728.686	49.09
729.006	49.31
729.327	49.34
729.647	49.28
729.967	49.44
730.288	49.66
730.608	49.74
730.928	50.13
731.249	50.57
731.569	50.36
731.889	50.11
732.209	50.29
732.529	50.19
732.849	50.24
733.169	50.31
733.489	50.37
733.809	50.5
734.129	50.29
734.448	49.96
734.768	49.76
735.088	50.05
735.408	49.79
735.727	49.63
736.047	49.67
736.366	49.88
736.686	49.99
737.005	49.98
737.325	49.75
737.644	49.48
737.963	49.32
738.283	49.35
738.602	49.55
738.921	49.43
739.24	49.43
739.56	49.68
739.879	49.53
740.198	49.53
740.517	49.28
740.836	49.32
741.155	49.52
741.473	49.68
741.792	49.7
742.111	50.01
742.43	49.73
742.748	49.75
743.067	49.43
743.386	49.26
743.704	48.97
744.023	49.03
744.341	49.03
744.66	49.07
744.978	49.07
745.297	49.11
745.615	48.8
745.933	48.78
746.252	48.55
746.57	48.59
746.888	48.73
747.206	48.91
747.524	48.94
747.842	49.13
748.16	49.23
748.478	49.28
748.796	49.23
749.114	49.81
749.432	49.63
749.749	49.76
750.067	49.99
750.385	50.01
750.703	49.9
751.02	50.28
751.338	50.23
751.655	50.44
751.973	50.5
752.29	50.84
752.608	50.86
752.925	50.89
753.242	50.83
753.56	50.78
753.877	50.71
754.194	50.74
754.511	50.24
754.828	50.1
755.145	49.88
755.462	49.91
755.779	49.46
756.096	49.4
756.413	49.54
756.73	49.49
757.047	49.33
757.364	49.57
757.68	48.9
757.997	49.25
758.314	48.94
758.63	48.76
758.947	48.87
759.264	48.83
759.58	49.07
759.896	49.27
760.213	49.29
760.529	49.1
760.846	48.98
761.162	49.52
761.478	49.67
761.794	49.84
762.11	49.85
762.426	49.96
762.743	50.36
763.059	50.34
763.375	50.53
763.69	50.48
764.006	50.47
764.322	50.95
764.638	50.8
764.954	50.92
765.27	51.32
765.585	51.35
765.901	51.3
766.216	51.26
766.532	50.96
766.848	50.97
767.163	51.42
767.478	51.42
767.794	51.24
768.109	51
768.424	50.75
768.74	50.61
769.055	50.63
769.37	50.72
769.685	50.89
770	50.25
770.315	50.49
770.63	50.52
770.945	50.09
771.26	49.93
771.575	49.69
771.89	49.39
772.205	49
772.52	48.95
772.834	49.14
773.149	49.54
773.464	49.44
773.778	49.49
774.093	49.72
774.407	49.89
774.722	50.55
775.036	50.65
775.351	51.24
775.665	51.37
775.979	50.82
776.293	50.7
776.608	50.95
776.922	51.16
777.236	51.15
777.55	51.33
777.864	51.52
778.178	51.72
778.492	52.06
778.806	52.98
779.12	53.15
779.434	52.63
779.747	52.84
780.061	52.51
780.375	51.68
780.689	51.65
781.002	51.63
781.316	50.71
781.629	50.62
781.943	50.4
782.256	50.3
782.57	50.38
782.883	50.4
783.196	50.95
783.51	50.88
783.823	50.55
784.136	50.53
784.449	50.53
784.762	51
785.075	50.73
785.388	49.68
785.701	49.24
786.014	49.13
786.327	49.13
786.64	49.46
786.953	49.68
787.266	49.24
787.578	48.7
787.891	49.2
788.204	49.25
788.516	48.73
788.829	48.61
789.141	48.76
789.454	48.58
789.766	48.32
790.079	48.14
790.391	48.28
790.703	47.9
791.016	47.95
791.328	47.42
791.64	47.09
791.952	47.45
792.264	48.23
792.576	48.02
792.888	48.05
793.2	48.49
793.512	48.51
793.824	48.86
794.136	49.17
794.448	49.18
794.76	49.53
795.071	49.51
795.383	49.83
795.695	49.25
796.006	49.36
796.318	48.98
796.629	49.04
796.941	49.1
797.252	49.73
797.564	50.23
797.875	49.92
798.186	49.55
798.497	49.81
798.809	49.76
799.12	49.67
799.431	48.45
799.742	47.83
800.053	47.71
800.364	47.49
800.675	47.53
800.986	47.21
801.297	46.47
801.608	47
801.918	46.78
802.229	47.47
802.54	46.96
802.851	47.34
803.161	47.69
803.472	47.66
803.782	47.27
804.093	46.29
804.403	46.61
804.714	46.86
805.024	46.7
805.334	46.74
805.645	47.45
805.955	48.85
806.265	49.31
806.575	49.55
806.885	49.86
807.195	49.76
807.505	50.25
807.815	50.5
808.125	49.41
808.435	49.41
808.745	49.87
809.055	50.49
809.365	50.92
809.674	50.61
809.984	50.25
810.294	49.4
810.603	50.38
810.913	49.11
811.222	49.48
811.532	49.93
811.841	49.85
812.151	49.88
812.46	49.2
812.769	49.1
813.079	49.53
813.388	49.35
813.697	49.25
814.006	48.62
814.315	49.81
814.624	50.55
814.933	50.92
815.242	50.92
815.551	51.06
815.86	50.58
816.169	50.67
816.478	51.28
816.786	52.58
817.095	52.22
817.404	53.32
817.712	53.05
818.021	53.22
818.33	53.17
818.638	52.65
818.947	53.14
819.255	52.65
819.563	52.25
819.872	52.1
820.18	52.5
820.488	52.62
820.796	52.09
821.105	52.13
821.413	52.2
821.721	51.92
822.029	51.85
822.337	51.83
822.645	52.11
822.953	52.29
823.26	52.18
823.568	52.11
823.876	52.09
824.184	52.14
824.491	52.05
824.799	52.01
825.107	52.13
825.414	51.81
825.722	51.9
826.029	51.81
826.337	52.14
826.644	52.09
826.951	52.08
827.259	52.16
827.566	52.07
827.873	51.74
828.18	51.79
828.488	51.56
828.795	51.46
829.102	50.98
829.409	50.59
829.716	50.77
830.023	50.6
830.329	50.62
830.636	50.65
830.943	50.36
831.25	50.34
831.557	50.13
831.863	50.45
832.17	50.67
832.476	50.81
832.783	50.14
833.089	49.88
833.396	49.43
833.702	49.19
834.009	49.66
834.315	49.71
834.621	49.62
834.928	49.93
835.234	49.92
835.54	49.89
835.846	50.37
836.152	50.47
836.458	50.41
836.764	50.94
837.07	50.85
837.376	50.99
837.682	50.69
837.988	50.7
838.293	50.64
838.599	50.31
838.905	50.43
839.211	50.47
839.516	50.84
839.822	51.49
840.127	52.27
840.433	51.63
840.738	51.65
841.044	51.63
841.349	52.1
841.654	52.29
841.959	52.67
842.265	52.42
842.57	51.61
842.875	52.18
843.18	50.41
843.485	49.74
843.79	48.97
844.095	48.59
844.4	49
844.705	49.39
845.01	48.64
845.315	49.87
845.619	50.05
845.924	49.66
846.229	49.24
846.533	49.11
846.838	50.32
847.142	50.93
847.447	50.46
847.751	48
848.056	48.09
848.36	47.25
848.664	44.66
848.969	43.54
849.273	42.75
849.577	43.5
849.881	44.76
850.185	46.66
850.489	46.92
850.794	46.48
851.097	47.5
851.401	46.97
851.705	46.1
852.009	46.64
852.313	44.17
852.617	44.21
852.92	45
853.224	44.07
853.528	43.05
853.831	44.35
854.135	46.07
854.438	46.68
854.742	45.6
855.045	46.08
855.349	45.21
855.652	44.63
855.955	46
856.259	44.98
856.562	44.64
856.865	46.04
857.168	46.27
857.471	44.39
857.774	45.81
858.077	44.46
858.38	43.18
858.683	43.4
858.986	43.12
859.289	40.81
859.592	42.26
859.894	45.42
860.197	45.28
860.5	46.09
860.802	44.35
861.105	45.63
861.407	47.11
861.71	47.44
862.012	48.3
862.315	47.42
862.617	47.13
862.919	44.86
863.222	43.25
863.524	43.5
863.826	44
864.128	44.18
864.43	45.3
864.732	43.31
865.034	45.36
865.336	45.86
865.638	47.94
865.94	46.26
866.242	44.97
866.544	43.26
866.846	42.38
867.147	44.76
867.449	46.28
867.751	46.92
868.052	47.97
868.354	45.97
868.655	45.39
868.957	45
869.258	46.22
869.56	46.8
869.861	45.99
870.162	45.47
870.463	46.24
870.765	45.46
871.066	47.31
871.367	46.44
871.668	44.97
871.969	43.79
872.27	43.52
872.571	44.33
872.872	47.28
873.173	46.72
873.473	44.8
873.774	42.86
874.075	42.59
874.376	43.31
874.676	43.9
874.977	42.32
875.277	42.55
875.578	40.07
875.878	40.57
876.179	40.27
876.479	40.22
876.78	38.3
877.08	37.33
877.38	37.46
877.68	36.78
877.981	38.63
878.281	37.73
878.581	37.13
