Data from MVZ_BU95633_Reflection_00007.txt Node
Date: Tue Nov 19 12:21:08 EST 2019
User: vgr7
Spectrometer: USB2G7710
Scans to average: 3
Trigger mode: 4
Integration Time (sec): 2.000000E-2
Electric dark correction enabled: true
Boxcar width: 10
XAxis mode: Wavelengths
Number of Pixels in Spectrum: 2048
>>>>>Begin Spectral Data<<<<<
177.721	67.46
178.105	15.46
178.488	65.6
178.871	106.67
179.254	124.24
179.636	35.32
180.019	118.32
180.402	75
180.785	-201.75
181.168	-58.51
181.55	-8.66
181.933	25.32
182.316	3.07
182.698	-36.3
183.081	-105.45
183.463	-86
183.846	-13.91
184.228	-50.72
184.611	-146.38
184.993	-188.17
185.376	-788.89
185.758	-1598.41
186.14	890.48
186.522	405.84
186.904	235.63
187.287	441.09
187.669	206.31
188.051	202
188.433	141.89
188.815	77.14
189.197	45.74
189.579	44.61
189.961	62.82
190.342	58.95
190.724	11.98
191.106	-6.89
191.488	-23.42
191.869	-16.34
192.251	-14.1
192.633	-28.04
193.014	-33.67
193.396	-55.19
193.777	-69.25
194.159	-94.37
194.54	-148.57
194.922	-158.23
195.303	-123.28
195.684	-171.17
196.065	-125.15
196.447	-101.87
196.828	-158.53
197.209	-106.68
197.59	-76.67
197.971	-59.95
198.352	-39.99
198.733	-29.86
199.114	-26.2
199.495	-23.68
199.876	-27.12
200.257	-74.79
200.638	-81.95
201.018	-74.6
201.399	-61.45
201.78	-49.08
202.16	-47.39
202.541	-36.61
202.922	-38.56
203.302	-38.93
203.683	-32.35
204.063	-42.18
204.444	-40.88
204.824	-26.88
205.204	-30.08
205.585	-30.42
205.965	-30.88
206.345	-41.82
206.725	-47.82
207.106	-58.44
207.486	-59.08
207.866	-54.8
208.246	-37.79
208.626	-37.92
209.006	-38.22
209.386	-25.49
209.766	-25.77
210.145	-24.14
210.525	-24.39
210.905	-21.28
211.285	-19.62
211.664	-17.63
212.044	-17.99
212.424	-12.96
212.803	-17.81
213.183	-18.74
213.562	-22.17
213.942	-31.78
214.321	-32.38
214.701	-40.68
215.08	-19.08
215.459	-9.25
215.838	-28.66
216.218	-18.51
216.597	-6.08
216.976	-17.83
217.355	-28.95
217.734	-39.21
218.113	-34.5
218.492	-32.86
218.871	-36.95
219.25	-45.65
219.629	-61.7
220.008	-54.16
220.387	-50.9
220.766	-31.64
221.144	-30.68
221.523	-32.54
221.902	-6.55
222.28	5.77
222.659	24.99
223.037	17.35
223.416	15.82
223.794	25.44
224.173	15.78
224.551	16.34
224.929	5.53
225.308	6.67
225.686	5.07
226.064	2.35
226.442	3.09
226.821	5.25
227.199	8.68
227.577	9.49
227.955	11.95
228.333	8.54
228.711	6.09
229.089	9.17
229.467	9.56
229.845	8.82
230.222	6.84
230.6	3.5
230.978	4.18
231.356	1.83
231.733	1.13
232.111	1.65
232.488	1.92
232.866	5.34
233.243	5.04
233.621	6.69
233.998	8.08
234.376	5.91
234.753	6.21
235.13	4.83
235.508	6.02
235.885	5.29
236.262	4.93
236.639	5.44
237.016	3.23
237.393	3.09
237.77	3.18
238.147	2.5
238.524	2.86
238.901	2.14
239.278	2.56
239.655	3
240.032	3.53
240.409	3.33
240.785	2.75
241.162	2.96
241.539	2.78
241.915	2.6
242.292	3.31
242.668	2.65
243.045	2.64
243.421	2.73
243.798	2.92
244.174	3.24
244.551	3.22
244.927	3.46
245.303	3.64
245.679	3.91
246.056	3.98
246.432	3.92
246.808	4.01
247.184	4.05
247.56	3.83
247.936	3.77
248.312	3.55
248.688	4.06
249.064	3.95
249.44	3.93
249.815	4.09
250.191	3.87
250.567	4.19
250.943	4.5
251.318	4.27
251.694	4.01
252.069	4.06
252.445	4.22
252.82	4.23
253.196	4.05
253.571	3.65
253.947	3.9
254.322	3.61
254.697	3.63
255.073	3.63
255.448	3.81
255.823	3.84
256.198	3.71
256.573	3.32
256.948	3.55
257.323	3.84
257.698	3.7
258.073	3.82
258.448	3.77
258.823	3.6
259.198	3.53
259.573	3.54
259.948	3.41
260.322	3.23
260.697	3.31
261.072	3.45
261.446	3.53
261.821	3.37
262.195	3.6
262.57	3.71
262.944	3.68
263.319	3.64
263.693	3.62
264.067	3.88
264.442	3.83
264.816	3.61
265.19	3.4
265.564	3.37
265.938	3.32
266.313	3.27
266.687	3.22
267.061	3.22
267.435	3.51
267.809	3.74
268.183	3.84
268.556	3.9
268.93	3.83
269.304	3.66
269.678	3.8
270.051	3.69
270.425	3.46
270.799	3.27
271.172	3.36
271.546	3.49
271.919	3.42
272.293	3.56
272.666	3.68
273.04	3.67
273.413	3.64
273.787	3.56
274.16	3.48
274.533	3.59
274.906	3.65
275.279	3.57
275.653	3.5
276.026	3.54
276.399	3.3
276.772	3.16
277.145	3.19
277.518	3.12
277.891	2.95
278.263	3.16
278.636	3.39
279.009	3.33
279.382	3.04
279.755	2.97
280.127	3.09
280.5	3.07
280.872	3.14
281.245	3.24
281.617	3.18
281.99	3.32
282.362	3.14
282.735	3.01
283.107	2.8
283.479	2.78
283.852	2.75
284.224	2.84
284.596	3.01
284.968	2.95
285.34	2.94
285.713	3.09
286.085	2.67
286.457	2.66
286.829	2.78
287.201	2.85
287.572	2.95
287.944	2.81
288.316	2.86
288.688	2.83
289.06	2.78
289.431	2.93
289.803	3
290.175	3.07
290.546	3.2
290.918	3.29
291.289	3.24
291.661	3.22
292.032	3.39
292.403	3.33
292.775	3.63
293.146	3.8
293.517	3.81
293.889	4.12
294.26	4.24
294.631	4.24
295.002	4.54
295.373	4.44
295.744	4.53
296.115	4.55
296.486	4.61
296.857	4.66
297.228	4.62
297.599	4.55
297.97	4.64
298.34	4.72
298.711	4.92
299.082	5.03
299.452	5.17
299.823	5.04
300.194	5.16
300.564	5.01
300.935	5.05
301.305	5.1
301.676	5.12
302.046	5.12
302.416	5.04
302.787	4.98
303.157	5.21
303.527	5.43
303.897	5.59
304.267	5.67
304.637	5.75
305.008	5.86
305.378	5.98
305.748	6.01
306.117	6.18
306.487	6.13
306.857	6.4
307.227	6.3
307.597	6.3
307.967	6.28
308.336	6.3
308.706	6.28
309.076	6.5
309.445	6.55
309.815	6.64
310.184	6.74
310.554	6.72
310.923	6.64
311.293	6.68
311.662	6.62
312.031	6.58
312.401	6.64
312.77	6.65
313.139	6.71
313.508	6.73
313.877	6.7
314.246	6.64
314.616	6.57
314.985	6.74
315.353	6.82
315.722	6.99
316.091	7.11
316.46	7.16
316.829	6.9
317.198	6.93
317.567	6.99
317.935	7.07
318.304	7.14
318.672	7.43
319.041	7.36
319.41	7.62
319.778	7.6
320.147	7.57
320.515	7.52
320.883	7.52
321.252	7.42
321.62	7.35
321.988	7.54
322.357	7.45
322.725	7.33
323.093	7.47
323.461	7.38
323.829	7.46
324.197	7.53
324.565	7.8
324.933	7.91
325.301	7.87
325.669	7.86
326.037	7.92
326.405	7.96
326.772	8.06
327.14	7.84
327.508	7.68
327.875	7.86
328.243	7.78
328.61	7.78
328.978	8.04
329.346	8.23
329.713	8.22
330.08	8.32
330.448	8.23
330.815	8.2
331.182	8.36
331.55	8.24
331.917	8.28
332.284	8.23
332.651	8.16
333.018	8.13
333.385	8.32
333.752	8.35
334.119	8.23
334.486	8.03
334.853	8.12
335.22	8.35
335.587	8.14
335.954	8.28
336.32	8.25
336.687	8.14
337.054	8
337.42	8.01
337.787	8.01
338.153	8.24
338.52	8.34
338.886	8.26
339.253	8.4
339.619	8.44
339.986	8.51
340.352	8.57
340.718	8.55
341.084	8.4
341.451	8.35
341.817	8.42
342.183	8.44
342.549	8.41
342.915	8.5
343.281	8.67
343.647	8.79
344.013	8.91
344.379	8.9
344.745	9.08
345.11	9.05
345.476	9.09
345.842	8.92
346.208	8.91
346.573	8.92
346.939	8.89
347.304	8.82
347.67	8.75
348.035	8.81
348.401	8.89
348.766	8.93
349.132	8.94
349.497	8.98
349.862	9.02
350.228	9.04
350.593	9.06
350.958	9.14
351.323	9.09
351.688	9
352.053	9.07
352.418	8.92
352.783	8.97
353.148	8.87
353.513	8.95
353.878	8.96
354.243	8.84
354.608	8.9
354.972	9.02
355.337	9.09
355.702	9
356.066	9.07
356.431	9.07
356.795	9.18
357.16	9.2
357.524	9.23
357.889	9.22
358.253	9.12
358.618	9.02
358.982	8.97
359.346	8.97
359.71	8.97
360.075	8.98
360.439	8.93
360.803	9.02
361.167	9.03
361.531	8.99
361.895	9.1
362.259	8.98
362.623	8.88
362.987	8.85
363.351	8.87
363.714	8.76
364.078	8.69
364.442	8.58
364.806	8.53
365.169	8.43
365.533	8.32
365.896	8.42
366.26	8.38
366.623	8.35
366.987	8.38
367.35	8.35
367.714	8.37
368.077	8.41
368.44	8.31
368.803	8.2
369.167	8.18
369.53	8.04
369.893	8.06
370.256	7.99
370.619	7.89
370.982	7.8
371.345	7.81
371.708	7.84
372.071	7.83
372.434	7.81
372.797	7.87
373.159	7.85
373.522	7.69
373.885	7.68
374.247	7.56
374.61	7.48
374.973	7.37
375.335	7.32
375.698	7.16
376.06	7.08
376.423	7.07
376.785	7.11
377.147	7.06
377.51	7.04
377.872	6.96
378.234	6.97
378.596	6.9
378.958	6.85
379.321	6.71
379.683	6.63
380.045	6.52
380.407	6.5
380.769	6.47
381.13	6.46
381.492	6.39
381.854	6.5
382.216	6.5
382.578	6.47
382.939	6.39
383.301	6.42
383.663	6.43
384.024	6.42
384.386	6.34
384.747	6.34
385.109	6.26
385.47	6.26
385.832	6.16
386.193	6.19
386.554	6.11
386.916	6.14
387.277	6.1
387.638	6.06
387.999	5.96
388.36	5.95
388.721	5.92
389.082	5.9
389.443	5.82
389.804	5.78
390.165	5.74
390.526	5.72
390.887	5.67
391.248	5.63
391.609	5.62
391.969	5.57
392.33	5.56
392.691	5.56
393.051	5.55
393.412	5.56
393.772	5.5
394.133	5.49
394.493	5.43
394.854	5.44
395.214	5.42
395.574	5.37
395.935	5.31
396.295	5.27
396.655	5.23
397.015	5.21
397.376	5.16
397.736	5.13
398.096	5.06
398.456	5.01
398.816	5
399.176	4.97
399.535	4.91
399.895	4.83
400.255	4.79
400.615	4.75
400.975	4.72
401.334	4.7
401.694	4.68
402.054	4.67
402.413	4.62
402.773	4.59
403.132	4.62
403.492	4.63
403.851	4.58
404.211	4.55
404.57	4.54
404.929	4.5
405.288	4.52
405.648	4.52
406.007	4.52
406.366	4.46
406.725	4.41
407.084	4.4
407.443	4.42
407.802	4.42
408.161	4.4
408.52	4.37
408.879	4.37
409.238	4.36
409.596	4.36
409.955	4.35
410.314	4.37
410.673	4.35
411.031	4.32
411.39	4.35
411.748	4.35
412.107	4.32
412.465	4.3
412.824	4.28
413.182	4.26
413.54	4.29
413.899	4.31
414.257	4.31
414.615	4.29
414.974	4.29
415.332	4.28
415.69	4.24
416.048	4.22
416.406	4.2
416.764	4.17
417.122	4.15
417.48	4.14
417.838	4.12
418.195	4.08
418.553	4.09
418.911	4.08
419.269	4.07
419.626	4.05
419.984	4.05
420.342	4.05
420.699	4.04
421.057	4.01
421.414	4.01
421.772	4
422.129	4
422.486	3.98
422.844	3.96
423.201	3.95
423.558	3.96
423.915	3.96
424.273	3.95
424.63	3.95
424.987	3.95
425.344	3.94
425.701	3.95
426.058	3.94
426.415	3.93
426.772	3.92
427.128	3.92
427.485	3.91
427.842	3.89
428.199	3.87
428.555	3.86
428.912	3.83
429.269	3.83
429.625	3.82
429.982	3.83
430.338	3.84
430.695	3.84
431.051	3.8
431.407	3.8
431.764	3.8
432.12	3.8
432.476	3.79
432.832	3.79
433.189	3.78
433.545	3.78
433.901	3.75
434.257	3.77
434.613	3.76
434.969	3.78
435.325	3.79
435.681	3.81
436.036	3.82
436.392	3.85
436.748	3.84
437.104	3.84
437.459	3.83
437.815	3.83
438.171	3.86
438.526	3.88
438.882	3.87
439.237	3.88
439.593	3.89
439.948	3.9
440.304	3.89
440.659	3.9
441.014	3.88
441.369	3.91
441.725	3.91
442.08	3.91
442.435	3.88
442.79	3.87
443.145	3.87
443.5	3.87
443.855	3.86
444.21	3.87
444.565	3.86
444.92	3.86
445.275	3.85
445.629	3.84
445.984	3.84
446.339	3.84
446.693	3.8
447.048	3.78
447.403	3.76
447.757	3.77
448.112	3.77
448.466	3.76
448.82	3.74
449.175	3.7
449.529	3.72
449.883	3.71
450.238	3.72
450.592	3.72
450.946	3.71
451.3	3.7
451.654	3.66
452.008	3.66
452.362	3.65
452.716	3.65
453.07	3.62
453.424	3.6
453.778	3.6
454.132	3.63
454.486	3.63
454.839	3.63
455.193	3.63
455.547	3.62
455.9	3.65
456.254	3.66
456.607	3.68
456.961	3.67
457.314	3.69
457.668	3.68
458.021	3.67
458.375	3.67
458.728	3.66
459.081	3.68
459.434	3.68
459.787	3.7
460.141	3.7
460.494	3.73
460.847	3.75
461.2	3.75
461.553	3.75
461.906	3.77
462.259	3.77
462.611	3.77
462.964	3.79
463.317	3.79
463.67	3.79
464.022	3.79
464.375	3.79
464.728	3.78
465.08	3.8
465.433	3.81
465.785	3.81
466.138	3.84
466.49	3.86
466.843	3.9
467.195	3.9
467.547	3.91
467.899	3.91
468.252	3.92
468.604	3.94
468.956	3.95
469.308	3.93
469.66	3.94
470.012	3.95
470.364	3.94
470.716	3.96
471.068	4
471.42	4.01
471.772	4.04
472.123	4.09
472.475	4.1
472.827	4.15
473.178	4.18
473.53	4.15
473.882	4.16
474.233	4.16
474.585	4.18
474.936	4.21
475.288	4.19
475.639	4.19
475.99	4.17
476.342	4.19
476.693	4.21
477.044	4.18
477.395	4.19
477.746	4.19
478.097	4.16
478.448	4.15
478.8	4.13
479.15	4.11
479.501	4.08
479.852	4.07
480.203	4.06
480.554	4.03
480.905	4.03
481.255	4.02
481.606	4.01
481.957	4.01
482.307	4
482.658	4.02
483.009	4.01
483.359	4.01
483.709	4.01
484.06	4.01
484.41	4.03
484.761	4.02
485.111	4.01
485.461	4.01
485.811	4.01
486.162	4.01
486.512	4
486.862	4.01
487.212	4
487.562	3.99
487.912	4.01
488.262	4.01
488.612	4
488.961	3.99
489.311	3.99
489.661	3.98
490.011	3.98
490.36	3.99
490.71	3.99
491.06	3.97
491.409	3.99
491.759	3.98
492.108	3.98
492.458	4
492.807	4.01
493.157	4.03
493.506	4.05
493.855	4.07
494.204	4.1
494.554	4.13
494.903	4.17
495.252	4.18
495.601	4.2
495.95	4.25
496.299	4.3
496.648	4.35
496.997	4.4
497.346	4.45
497.695	4.49
498.043	4.54
498.392	4.61
498.741	4.66
499.09	4.69
499.438	4.75
499.787	4.82
500.135	4.9
500.484	4.96
500.832	5.02
501.181	5.1
501.529	5.16
501.878	5.22
502.226	5.31
502.574	5.42
502.923	5.53
503.271	5.65
503.619	5.77
503.967	5.85
504.315	5.98
504.663	6.07
505.011	6.23
505.359	6.34
505.707	6.47
506.055	6.59
506.403	6.76
506.751	6.9
507.098	7.07
507.446	7.22
507.794	7.39
508.141	7.55
508.489	7.72
508.837	7.89
509.184	8.09
509.531	8.26
509.879	8.42
510.226	8.6
510.574	8.8
510.921	9
511.268	9.23
511.616	9.45
511.963	9.7
512.31	9.91
512.657	10.18
513.004	10.43
513.351	10.69
513.698	10.94
514.045	11.25
514.392	11.55
514.739	11.85
515.086	12.15
515.432	12.48
515.779	12.78
516.126	13.09
516.473	13.35
516.819	13.64
517.166	13.92
517.512	14.2
517.859	14.46
518.205	14.68
518.552	14.92
518.898	15.17
519.245	15.4
519.591	15.66
519.937	15.93
520.283	16.2
520.629	16.48
520.976	16.78
521.322	17.06
521.668	17.36
522.014	17.67
522.36	18.02
522.706	18.32
523.052	18.68
523.398	19.03
523.743	19.42
524.089	19.79
524.435	20.13
524.781	20.43
525.126	20.74
525.472	21.04
525.817	21.3
526.163	21.51
526.509	21.74
526.854	21.94
527.199	22.16
527.545	22.39
527.89	22.59
528.235	22.8
528.581	23.01
528.926	23.2
529.271	23.38
529.616	23.57
529.961	23.78
530.306	23.97
530.651	24.2
530.996	24.42
531.341	24.67
531.686	24.9
532.031	25.17
532.376	25.45
532.721	25.7
533.065	25.94
533.41	26.23
533.755	26.5
534.099	26.75
534.444	26.99
534.788	27.21
535.133	27.45
535.477	27.71
535.822	27.98
536.166	28.23
536.51	28.53
536.855	28.81
537.199	29.11
537.543	29.42
537.887	29.69
538.231	30.02
538.576	30.32
538.92	30.64
539.264	30.92
539.608	31.15
539.951	31.42
540.295	31.67
540.639	31.9
540.983	32.13
541.327	32.36
541.671	32.59
542.014	32.84
542.358	33.04
542.701	33.25
543.045	33.44
543.389	33.66
543.732	33.88
544.075	34.07
544.419	34.27
544.762	34.48
545.105	34.7
545.449	34.91
545.792	35.13
546.135	35.33
546.478	35.54
546.821	35.78
547.165	36.01
547.508	36.28
547.851	36.54
548.194	36.8
548.536	37.04
548.879	37.25
549.222	37.45
549.565	37.71
549.908	37.89
550.25	38.12
550.593	38.32
550.936	38.5
551.278	38.73
551.621	38.92
551.963	39.2
552.306	39.43
552.648	39.64
552.991	39.75
553.333	40.02
553.675	40.21
554.017	40.42
554.36	40.56
554.702	40.73
555.044	40.82
555.386	40.99
555.728	41.21
556.07	41.38
556.412	41.47
556.754	41.63
557.096	41.81
557.438	42.01
557.78	42.17
558.121	42.36
558.463	42.61
558.805	42.84
559.147	42.91
559.488	43.1
559.83	43.18
560.171	43.35
560.513	43.43
560.854	43.59
561.196	43.72
561.537	43.84
561.878	43.97
562.22	44.13
562.561	44.2
562.902	44.28
563.243	44.41
563.584	44.64
563.925	44.81
564.266	44.9
564.607	45.03
564.948	45.17
565.289	45.23
565.63	45.37
565.971	45.44
566.312	45.61
566.653	45.67
566.993	45.81
567.334	45.97
567.675	46.1
568.015	46.18
568.356	46.23
568.696	46.38
569.037	46.5
569.377	46.62
569.718	46.74
570.058	46.81
570.398	46.93
570.739	46.96
571.079	46.99
571.419	47.15
571.759	47.21
572.099	47.29
572.439	47.4
572.779	47.42
573.119	47.52
573.459	47.59
573.799	47.68
574.139	47.71
574.479	47.76
574.819	47.84
575.158	47.93
575.498	48.05
575.838	48.09
576.177	48.12
576.517	48.23
576.856	48.31
577.196	48.46
577.535	48.51
577.875	48.6
578.214	48.7
578.553	48.76
578.893	48.76
579.232	48.86
579.571	48.95
579.91	49.03
580.25	49.12
580.589	49.16
580.928	49.29
581.267	49.39
581.606	49.49
581.945	49.45
582.283	49.53
582.622	49.56
582.961	49.64
583.3	49.71
583.639	49.69
583.977	49.74
584.316	49.74
584.654	49.82
584.993	49.92
585.332	49.95
585.67	49.99
586.008	50.06
586.347	50.13
586.685	50.19
587.024	50.28
587.362	50.27
587.7	50.42
588.038	50.4
588.376	50.51
588.715	50.55
589.053	50.62
589.391	50.64
589.729	50.75
590.067	50.76
590.404	50.89
590.742	50.96
591.08	51.04
591.418	51.14
591.756	51.15
592.093	51.18
592.431	51.3
592.769	51.32
593.106	51.41
593.444	51.51
593.781	51.56
594.119	51.57
594.456	51.68
594.793	51.7
595.131	51.73
595.468	51.74
595.805	51.77
596.143	51.84
596.48	51.85
596.817	51.87
597.154	51.95
597.491	51.97
597.828	52.06
598.165	52.06
598.502	52.1
598.839	52.16
599.176	52.25
599.512	52.23
599.849	52.31
600.186	52.29
600.523	52.32
600.859	52.33
601.196	52.32
601.532	52.32
601.869	52.38
602.205	52.39
602.542	52.53
602.878	52.57
603.215	52.56
603.551	52.65
603.887	52.69
604.223	52.74
604.56	52.8
604.896	52.76
605.232	52.83
605.568	52.87
605.904	52.89
606.24	52.96
606.576	53
606.912	53.07
607.248	53.16
607.583	53.13
607.919	53.19
608.255	53.28
608.591	53.41
608.926	53.35
609.262	53.39
609.597	53.36
609.933	53.45
610.268	53.58
610.604	53.71
610.939	53.73
611.275	53.8
611.61	53.81
611.945	53.92
612.281	53.86
612.616	53.81
612.951	53.86
613.286	53.79
613.621	53.76
613.956	53.69
614.291	53.65
614.626	53.7
614.961	53.64
615.296	53.66
615.631	53.65
615.966	53.76
616.3	53.88
616.635	53.84
616.97	53.78
617.304	53.82
617.639	53.72
617.973	53.72
618.308	53.7
618.642	53.77
618.977	53.84
619.311	53.91
619.646	53.96
619.98	54.01
620.314	54.11
620.648	54.19
620.983	54.31
621.317	54.46
621.651	54.48
621.985	54.5
622.319	54.5
622.653	54.45
622.987	54.5
623.321	54.45
623.655	54.51
623.988	54.52
624.322	54.47
624.656	54.48
624.99	54.48
625.323	54.44
625.657	54.4
625.99	54.36
626.324	54.37
626.657	54.46
626.991	54.49
627.324	54.39
627.658	54.46
627.991	54.49
628.324	54.5
628.657	54.57
628.991	54.6
629.324	54.69
629.657	54.72
629.99	54.63
630.323	54.68
630.656	54.63
630.989	54.64
631.322	54.67
631.655	54.7
631.987	54.81
632.32	54.9
632.653	54.82
632.986	54.77
633.318	54.79
633.651	54.8
633.984	54.82
634.316	54.84
634.649	54.78
634.981	54.76
635.313	54.8
635.646	54.71
635.978	54.79
636.31	54.66
636.643	54.65
636.975	54.65
637.307	54.63
637.639	54.68
637.971	54.59
638.303	54.53
638.635	54.55
638.967	54.53
639.299	54.43
639.631	54.45
639.963	54.49
640.295	54.41
640.626	54.33
640.958	54.26
641.29	54.33
641.621	54.41
641.953	54.34
642.285	54.29
642.616	54.44
642.948	54.42
643.279	54.53
643.61	54.66
643.942	54.8
644.273	54.75
644.604	54.68
644.936	54.71
645.267	54.74
645.598	54.72
645.929	54.7
646.26	54.82
646.591	54.89
646.922	54.89
647.253	54.97
647.584	55.11
647.915	55.19
648.245	55.27
648.576	55.27
648.907	55.35
649.238	55.3
649.568	55.26
649.899	55.3
650.229	55.33
650.56	55.27
650.89	55.19
651.221	55.31
651.551	55.26
651.882	55.39
652.212	55.42
652.542	55.53
652.872	55.53
653.203	55.44
653.533	55.43
653.863	55.45
654.193	55.49
654.523	55.39
654.853	55.36
655.183	55.26
655.513	55.19
655.843	55.17
656.172	55.27
656.502	55.28
656.832	55.32
657.162	55.24
657.491	55.24
657.821	55.25
658.15	55.2
658.48	55.46
658.809	55.35
659.139	55.35
659.468	55.36
659.798	55.47
660.127	55.57
660.456	55.6
660.785	55.6
661.115	55.59
661.444	55.67
661.773	55.66
662.102	55.71
662.431	55.75
662.76	55.74
663.089	55.7
663.418	55.66
663.747	55.54
664.076	55.57
664.404	55.65
664.733	55.72
665.062	55.73
665.39	55.57
665.719	55.7
666.048	55.77
666.376	55.59
666.705	55.53
667.033	55.49
667.362	55.5
667.69	55.7
668.018	55.68
668.347	55.6
668.675	55.56
669.003	55.56
669.331	55.68
669.659	55.81
669.987	55.74
670.315	55.68
670.643	55.82
670.971	55.96
671.299	56.02
671.627	56.05
671.955	56.01
672.283	56.12
672.61	56.03
672.938	56.07
673.266	56.18
673.593	56.1
673.921	56.18
674.249	56.1
674.576	56.1
674.904	56.12
675.231	56.27
675.558	56.45
675.886	56.5
676.213	56.47
676.54	56.32
676.867	56.44
677.195	56.56
677.522	56.47
677.849	56.37
678.176	56.4
678.503	56.33
678.83	56.29
679.157	56.3
679.484	56.34
679.81	56.46
680.137	56.5
680.464	56.54
680.791	56.51
681.117	56.63
681.444	56.57
681.771	56.59
682.097	56.51
682.424	56.48
682.75	56.5
683.077	56.45
683.403	56.46
683.729	56.47
684.056	56.52
684.382	56.58
684.708	56.43
685.034	56.38
685.36	56.46
685.686	56.57
686.012	56.54
686.339	56.6
686.664	56.58
686.99	56.44
687.316	56.56
687.642	56.5
687.968	56.53
688.294	56.41
688.619	56.49
688.945	56.51
689.271	56.43
689.596	56.49
689.922	56.51
690.247	56.5
690.573	56.54
690.898	56.55
691.224	56.64
691.549	56.83
691.874	56.85
692.2	56.79
692.525	56.87
692.85	56.95
693.175	56.93
693.5	56.64
693.825	56.76
694.15	56.59
694.475	56.59
694.8	56.65
695.125	56.77
695.45	56.58
695.775	56.61
696.099	56.91
696.424	56.78
696.749	56.83
697.073	56.87
697.398	56.84
697.723	56.69
698.047	56.54
698.372	56.48
698.696	56.42
699.02	56.51
699.345	56.43
699.669	56.3
699.993	56.38
700.318	56.6
700.642	56.6
700.966	56.73
701.29	56.8
701.614	56.63
701.938	56.71
702.262	56.77
702.586	56.64
702.91	56.18
703.234	56.14
703.557	56.15
703.881	56.18
704.205	56.22
704.529	56.31
704.852	56.5
705.176	56.65
705.499	56.66
705.823	56.76
706.146	56.9
706.47	57.02
706.793	56.91
707.117	56.77
707.44	56.79
707.763	56.81
708.086	56.54
708.409	56.55
708.733	56.25
709.056	56.53
709.379	56.66
709.702	56.78
710.025	56.99
710.348	56.92
710.671	56.85
710.993	56.67
711.316	56.72
711.639	56.7
711.962	56.59
712.284	56.51
712.607	56.36
712.93	56.18
713.252	56.15
713.575	56.21
713.897	56.39
714.22	56.55
714.542	56.76
714.864	56.89
715.187	57.03
715.509	57.28
715.831	57.09
716.153	57
716.475	57.05
716.798	57.03
717.12	57.15
717.442	57.16
717.764	57.24
718.085	57.21
718.407	57.36
718.729	57.43
719.051	57.46
719.373	57.31
719.695	57.42
720.016	57.5
720.338	57.43
720.659	57.34
720.981	57.09
721.302	56.82
721.624	56.91
721.945	56.67
722.267	56.45
722.588	56.44
722.909	56.49
723.231	56.7
723.552	56.68
723.873	56.66
724.194	56.72
724.515	57
724.836	56.72
725.157	56.33
725.478	56.19
725.799	56.39
726.12	56.68
726.441	56.76
726.762	56.69
727.083	56.85
727.403	56.91
727.724	57.13
728.045	57.15
728.365	57.17
728.686	57.1
729.006	57.26
729.327	57.31
729.647	57.24
729.967	57.1
730.288	57.16
730.608	57.2
730.928	57.29
731.249	57.41
731.569	57.76
731.889	58.02
732.209	58.2
732.529	58.11
732.849	58.05
733.169	58.05
733.489	58.17
733.809	57.93
734.129	57.79
734.448	57.63
734.768	57.49
735.088	57.52
735.408	57.61
735.727	57.39
736.047	57.55
736.366	57.67
736.686	57.76
737.005	57.47
737.325	57.3
737.644	57.17
737.963	56.56
738.283	56.5
738.602	56.35
738.921	56.61
739.24	56.69
739.56	56.55
739.879	56.34
740.198	56.3
740.517	56.54
740.836	56.81
741.155	57.07
741.473	56.99
741.792	57.17
742.111	57.53
742.43	57.96
742.748	58.08
743.067	58.02
743.386	57.81
743.704	58.02
744.023	58.37
744.341	58.16
744.66	58.28
744.978	58.29
745.297	58.18
745.615	57.7
745.933	57.69
746.252	57.73
746.57	58
746.888	57.5
747.206	57.54
747.524	57.22
747.842	56.93
748.16	57.33
748.478	57.34
748.796	57.23
749.114	56.99
749.432	56.8
749.749	56.71
750.067	56.9
750.385	56.92
750.703	56.55
751.02	56.74
751.338	56.92
751.655	57.02
751.973	57.14
752.29	57.4
752.608	57.2
752.925	57.08
753.242	57.13
753.56	57.3
753.877	56.96
754.194	56.97
754.511	57.26
754.828	57.15
755.145	56.96
755.462	57
755.779	57.07
756.096	57.06
756.413	57.46
756.73	57.34
757.047	57.47
757.364	57.88
757.68	58.11
757.997	58.03
758.314	58.13
758.63	58.24
758.947	57.93
759.264	58.15
759.58	58.46
759.896	58.08
760.213	58.45
760.529	59.05
760.846	59.52
761.162	59.47
761.478	59.36
761.794	59.45
762.11	59.66
762.426	59.95
762.743	59.78
763.059	59.71
763.375	59.73
763.69	59.69
764.006	59.44
764.322	59.3
764.638	59.41
764.954	59.18
765.27	59.28
765.585	59.43
765.901	59.29
766.216	59.02
766.532	59.28
766.848	59.24
767.163	58.98
767.478	58.58
767.794	58.6
768.109	58.81
768.424	58.72
768.74	58.06
769.055	57.83
769.37	58.08
769.685	57.87
770	57.95
770.315	57.96
770.63	57.8
770.945	57.78
771.26	57.78
771.575	57.87
771.89	57.69
772.205	57.33
772.52	57.29
772.834	58.14
773.149	57.98
773.464	57.67
773.778	57.51
774.093	57.34
774.407	57.18
774.722	56.64
775.036	56.53
775.351	56.93
775.665	56.37
775.979	56.35
776.293	56.75
776.608	56.48
776.922	56.18
777.236	56.14
777.55	56.19
777.864	56.11
778.178	55.67
778.492	55.37
778.806	56.03
779.12	56.12
779.434	55.53
779.747	55.61
780.061	56.48
780.375	55.89
780.689	56
781.002	55.81
781.316	55.82
781.629	56.02
781.943	55.23
782.256	55.82
782.57	55.33
782.883	55.05
783.196	55.48
783.51	55.63
783.823	56.39
784.136	56.22
784.449	55.56
784.762	55.75
785.075	56.57
785.388	57
785.701	56.91
786.014	56.82
786.327	56.57
786.64	55.95
786.953	56.68
787.266	57
787.578	57.34
787.891	57.83
788.204	58
788.516	59.07
788.829	59.49
789.141	59.53
789.454	59.08
789.766	58.64
790.079	58.92
790.391	58.44
790.703	59.17
791.016	60.17
791.328	61.13
791.64	60.92
791.952	60.53
792.264	60.7
792.576	60.96
792.888	61.57
793.2	61.61
793.512	61.54
793.824	61.2
794.136	61.08
794.448	61.09
794.76	60.72
795.071	60.54
795.383	59.75
795.695	59.98
796.006	59.63
796.318	60.25
796.629	59.92
796.941	60.13
797.252	59.35
797.564	58.69
797.875	58.3
798.186	58.34
798.497	57.69
798.809	57.78
799.12	57.24
799.431	56.32
799.742	56.37
800.053	56.17
800.364	56.43
800.675	56.37
800.986	55.89
801.297	56.23
801.608	56.01
801.918	56.53
802.229	56.78
802.54	57.84
802.851	57.47
803.161	57.76
803.472	57.49
803.782	56.94
804.093	57.57
804.403	56.69
804.714	56.06
805.024	56.48
805.334	56.15
805.645	56.3
805.955	56.81
806.265	56.38
806.575	56.25
806.885	55.91
807.195	56.1
807.505	56.54
807.815	56.48
808.125	56.52
808.435	56.88
808.745	56.56
809.055	56.57
809.365	57.09
809.674	57.59
809.984	57.58
810.294	59.35
810.603	59.29
810.913	59.06
811.222	59.53
811.532	59.58
811.841	60.34
812.151	60.29
812.46	60.8
812.769	61.84
813.079	62.9
813.388	63.46
813.697	62.99
814.006	62.09
814.315	61.13
814.624	61.43
814.933	60.84
815.242	60.6
815.551	60.68
815.86	59.56
816.169	58.85
816.478	59.74
816.786	58.48
817.095	58.25
817.404	59.35
817.712	58.88
818.021	58.45
818.33	57.83
818.638	57.9
818.947	58.32
819.255	58.36
819.563	58.23
819.872	58.54
820.18	58.76
820.488	58.91
820.796	59.2
821.105	59.05
821.413	58.99
821.721	59.2
822.029	59.15
822.337	59.37
822.645	59.54
822.953	59.45
823.26	59.67
823.568	59.72
823.876	59.56
824.184	59.51
824.491	59.31
824.799	59.47
825.107	59.5
825.414	59.41
825.722	59.31
826.029	59.41
826.337	59.2
826.644	59.17
826.951	59.23
827.259	59.43
827.566	59.47
827.873	59.54
828.18	59.16
828.488	59.16
828.795	58.96
829.102	58.65
829.409	58.29
829.716	58.1
830.023	57.59
830.329	58.01
830.636	58.5
830.943	58.86
831.25	58.63
831.557	58.29
831.863	58.02
832.17	58.13
832.476	58.1
832.783	58.7
833.089	58.76
833.396	58.96
833.702	59.24
834.009	59.01
834.315	58.94
834.621	59.3
834.928	59.24
835.234	59.65
835.54	59.63
835.846	59.61
836.152	58.94
836.458	59.66
836.764	59.37
837.07	59.13
837.376	59.02
837.682	59.17
837.988	59.77
838.293	60.16
838.599	59.77
838.905	59.24
839.211	58.34
839.516	57.53
839.822	57.7
840.127	55.52
840.433	56.81
840.738	56.6
841.044	56.91
841.349	56.9
841.654	55.85
841.959	55.54
842.265	54.98
842.57	57.35
842.875	56.75
843.18	56.4
843.485	56.09
843.79	57.15
844.095	56.69
844.4	56.47
844.705	57.1
845.01	56.57
845.315	56.63
845.619	58.39
845.924	59.7
846.229	58.83
846.533	58.33
846.838	55.96
847.142	55.04
847.447	55.94
847.751	54.72
848.056	55.5
848.36	56.81
848.664	57.16
848.969	55.68
849.273	55.38
849.577	55.66
849.881	53.6
850.185	53.83
850.489	54.24
850.794	54.35
851.097	52.81
851.401	55.67
851.705	54.86
852.009	54.26
852.313	54.66
852.617	53.67
852.92	57.2
853.224	58.09
853.528	59.02
853.831	59.8
854.135	60.91
854.438	59.57
854.742	58.23
855.045	57.75
855.349	57.11
855.652	57.47
855.955	57.02
856.259	60.04
856.562	57.04
856.865	59.49
857.168	59.87
857.471	60.02
857.774	58.04
858.077	60.53
858.38	59.88
858.683	57.9
858.986	59.49
859.289	59.55
859.592	59.6
859.894	59.31
860.197	54.38
860.5	55.31
860.802	55.15
861.105	56.12
861.407	58.11
861.71	57.04
862.012	58.06
862.315	57.75
862.617	55.71
862.919	56.73
863.222	53.41
863.524	53.04
863.826	51.59
864.128	51.4
864.43	50.24
864.732	50.37
865.034	48.86
865.336	47.29
865.638	47.79
865.94	48.85
866.242	49.38
866.544	52.43
866.846	52.94
867.147	55.13
867.449	54.93
867.751	53.36
868.052	54.19
868.354	52.99
868.655	52.9
868.957	54.68
869.258	55.14
869.56	57.12
869.861	56.88
870.162	57.22
870.463	57.37
870.765	57.16
871.066	56.9
871.367	59.53
871.668	62.57
871.969	61.25
872.27	62.51
872.571	63.16
872.872	62.75
873.173	58.96
873.473	58.32
873.774	58.04
874.075	58.99
874.376	61.06
874.676	62.48
874.977	63.51
875.277	60.87
875.578	62.5
875.878	61.39
876.179	61.88
876.479	63.09
876.78	63.9
877.08	63.61
877.38	62.84
877.68	64.15
877.981	62.39
878.281	62.41
878.581	58.31
