Data from MVZ_BU165823_Reflection_00007.txt Node
Date: Tue Nov 19 12:10:27 EST 2019
User: vgr7
Spectrometer: USB2G7710
Scans to average: 3
Trigger mode: 4
Integration Time (sec): 2.000000E-2
Electric dark correction enabled: true
Boxcar width: 10
XAxis mode: Wavelengths
Number of Pixels in Spectrum: 2048
>>>>>Begin Spectral Data<<<<<
177.721	-4.75
178.105	-19.82
178.488	-19.29
178.871	31.4
179.254	40.43
179.636	10.1
180.019	3.27
180.402	350
180.785	-267.21
181.168	-186.91
181.55	-97.42
181.933	-53.2
182.316	-131.21
182.698	-809.09
183.081	48.91
183.463	-75.26
183.846	-2.04
184.228	49
184.611	23.26
184.993	15.74
185.376	9.55
185.758	11.54
186.14	-30.38
186.522	-29.56
186.904	-20.1
187.287	-23.62
187.669	-24.83
188.051	-21.59
188.433	-20.52
188.815	-43.42
189.197	-55.7
189.579	-40.92
189.961	-52.78
190.342	-59.79
190.724	-68.16
191.106	-73.83
191.488	-82.43
191.869	-61.8
192.251	-58.74
192.633	-57.17
193.014	-65.43
193.396	-59.28
193.777	-52.84
194.159	-18.16
194.54	-29.13
194.922	-55.26
195.303	-84.52
195.684	-127.53
196.065	-164.99
196.447	-128.28
196.828	-78.97
197.209	-61.16
197.59	-76.3
197.971	-44.59
198.352	-30.83
198.733	-32.19
199.114	-34.79
199.495	-39.68
199.876	-40.32
200.257	-95.78
200.638	-94.24
201.018	-111.47
201.399	-152.6
201.78	-142.36
202.16	-155.49
202.541	-104.04
202.922	-95.51
203.302	-78.13
203.683	-77
204.063	-44.48
204.444	-43.19
204.824	-50.66
205.204	-39.89
205.585	-39.66
205.965	-40.91
206.345	-42.69
206.725	-34.37
207.106	-21.71
207.486	-4.3
207.866	-1.73
208.246	15.62
208.626	-9.72
209.006	0.44
209.386	-4.38
209.766	7.02
210.145	18.25
210.525	9.37
210.905	13.77
211.285	19.36
211.664	14.34
212.044	10.2
212.424	10.47
212.803	15.86
213.183	8.65
213.562	24.24
213.942	37.83
214.321	35.33
214.701	27.05
215.08	34.58
215.459	25.18
215.838	10.67
216.218	4.99
216.597	32.29
216.976	60.07
217.355	55.94
217.734	34.67
218.113	9.25
218.492	20.26
218.871	29.84
219.25	11.09
219.629	30.92
220.008	30.92
220.387	10.58
220.766	34.8
221.144	25.91
221.523	10.22
221.902	-9.08
222.28	-4.74
222.659	4.41
223.037	3.68
223.416	2.39
223.794	11.07
224.173	9
224.551	15.62
224.929	2.89
225.308	-3.68
225.686	-5.33
226.064	-8.29
226.442	-5.86
226.821	-5.35
227.199	-3.84
227.577	-1.53
227.955	-0.78
228.333	2.91
228.711	-4.96
229.089	-4.87
229.467	-2.04
229.845	0.99
230.222	3.05
230.6	-1.7
230.978	-4.78
231.356	-3.77
231.733	-2.37
232.111	-2.48
232.488	-3.85
232.866	-0.36
233.243	1.35
233.621	4.94
233.998	5.34
234.376	5.18
234.753	5.56
235.13	5.93
235.508	3.9
235.885	4.01
236.262	2.55
236.639	2.56
237.016	0.62
237.393	3.57
237.77	2.22
238.147	2.49
238.524	4.79
238.901	4.32
239.278	2.96
239.655	3.21
240.032	3.45
240.409	3.33
240.785	2.68
241.162	2.84
241.539	2.78
241.915	2.92
242.292	2.96
242.668	2.86
243.045	3.33
243.421	3.94
243.798	3.53
244.174	3.93
244.551	4.48
244.927	4.81
245.303	4.14
245.679	4.49
246.056	4.37
246.432	4.45
246.808	4.99
247.184	5.39
247.56	5.17
247.936	5.25
248.312	5.37
248.688	5.59
249.064	5.57
249.44	5.52
249.815	5.52
250.191	5.63
250.567	5.63
250.943	5.45
251.318	5.39
251.694	5.46
252.069	5.49
252.445	5.39
252.82	5.75
253.196	5.85
253.571	5.63
253.947	5.48
254.322	5.27
254.697	5.02
255.073	4.87
255.448	5.01
255.823	4.82
256.198	4.51
256.573	4.33
256.948	4.57
257.323	4.47
257.698	4.5
258.073	4.33
258.448	4.37
258.823	4.45
259.198	4.33
259.573	4.2
259.948	4.15
260.322	3.9
260.697	3.86
261.072	3.94
261.446	3.91
261.821	3.94
262.195	3.75
262.57	3.67
262.944	3.7
263.319	3.72
263.693	3.88
264.067	3.99
264.442	3.85
264.816	3.67
265.19	3.81
265.564	3.57
265.938	3.81
266.313	3.69
266.687	3.62
267.061	3.76
267.435	3.94
267.809	3.82
268.183	3.92
268.556	3.84
268.93	3.7
269.304	3.84
269.678	3.85
270.051	3.95
270.425	3.85
270.799	3.77
271.172	3.67
271.546	3.76
271.919	3.66
272.293	3.81
272.666	3.89
273.04	3.88
273.413	4.1
273.787	4.1
274.16	4.07
274.533	4.03
274.906	4
275.279	4.14
275.653	4.21
276.026	4.24
276.399	4.3
276.772	4.44
277.145	4.41
277.518	4.49
277.891	4.53
278.263	4.72
278.636	4.98
279.009	5.01
279.382	4.77
279.755	4.84
280.127	4.76
280.5	4.61
280.872	4.59
281.245	4.7
281.617	4.45
281.99	4.45
282.362	4.51
282.735	4.27
283.107	4.01
283.479	3.94
283.852	3.96
284.224	3.87
284.596	3.74
284.968	3.88
285.34	3.77
285.713	3.91
286.085	3.94
286.457	3.78
286.829	3.83
287.201	3.84
287.572	3.83
287.944	3.94
288.316	4.04
288.688	4.01
289.06	3.87
289.431	3.99
289.803	4.13
290.175	4.14
290.546	4.21
290.918	4.31
291.289	4.28
291.661	4.38
292.032	4.52
292.403	4.74
292.775	4.59
293.146	4.87
293.517	4.76
293.889	4.64
294.26	4.59
294.631	4.59
295.002	4.67
295.373	4.58
295.744	4.56
296.115	4.62
296.486	4.66
296.857	4.67
297.228	4.62
297.599	4.54
297.97	4.46
298.34	4.57
298.711	4.51
299.082	4.54
299.452	4.51
299.823	4.55
300.194	4.49
300.564	4.36
300.935	4.25
301.305	4.3
301.676	4.26
302.046	4.26
302.416	4.23
302.787	4.19
303.157	4.33
303.527	4.31
303.897	4.24
304.267	4.28
304.637	4.31
305.008	4.39
305.378	4.39
305.748	4.65
306.117	4.57
306.487	4.88
306.857	5.03
307.227	5.04
307.597	4.91
307.967	4.82
308.336	5.02
308.706	4.93
309.076	5.09
309.445	5.32
309.815	5.46
310.184	5.52
310.554	5.64
310.923	5.6
311.293	5.61
311.662	5.58
312.031	5.53
312.401	5.5
312.77	5.5
313.139	5.46
313.508	5.35
313.877	5.43
314.246	5.43
314.616	5.55
314.985	5.52
315.353	5.75
315.722	5.86
316.091	5.87
316.46	5.91
316.829	5.73
317.198	5.8
317.567	5.84
317.935	5.8
318.304	5.88
318.672	6.15
319.041	6.33
319.41	6.46
319.778	6.49
320.147	6.54
320.515	6.61
320.883	6.77
321.252	6.91
321.62	6.93
321.988	6.83
322.357	6.7
322.725	6.84
323.093	6.61
323.461	6.73
323.829	6.74
324.197	6.68
324.565	6.78
324.933	6.79
325.301	6.79
325.669	6.93
326.037	6.86
326.405	6.72
326.772	6.69
327.14	6.67
327.508	6.84
327.875	6.88
328.243	6.96
328.61	6.95
328.978	6.86
329.346	7.01
329.713	7.17
330.08	7.26
330.448	7.33
330.815	7.42
331.182	7.45
331.55	7.56
331.917	7.69
332.284	7.76
332.651	7.7
333.018	7.72
333.385	7.54
333.752	7.61
334.119	7.68
334.486	7.59
334.853	7.61
335.22	7.57
335.587	7.6
335.954	7.56
336.32	7.66
336.687	7.81
337.054	7.67
337.42	7.5
337.787	7.48
338.153	7.4
338.52	7.39
338.886	7.33
339.253	7.37
339.619	7.42
339.986	7.27
340.352	7.18
340.718	7.27
341.084	7.47
341.451	7.5
341.817	7.59
342.183	7.58
342.549	7.64
342.915	7.73
343.281	7.78
343.647	7.82
344.013	7.79
344.379	7.68
344.745	7.81
345.11	7.84
345.476	7.86
345.842	7.94
346.208	7.99
346.573	8.05
346.939	8
347.304	7.97
347.67	7.95
348.035	8
348.401	7.89
348.766	7.81
349.132	7.8
349.497	7.73
349.862	7.81
350.228	7.83
350.593	7.71
350.958	7.7
351.323	7.62
351.688	7.7
352.053	7.85
352.418	7.8
352.783	7.79
353.148	7.79
353.513	7.78
353.878	7.77
354.243	7.63
354.608	7.56
354.972	7.49
355.337	7.63
355.702	7.68
356.066	7.71
356.431	7.64
356.795	7.65
357.16	7.73
357.524	7.69
357.889	7.54
358.253	7.6
358.618	7.55
358.982	7.54
359.346	7.43
359.71	7.36
360.075	7.33
360.439	7.44
360.803	7.43
361.167	7.41
361.531	7.44
361.895	7.51
362.259	7.57
362.623	7.59
362.987	7.54
363.351	7.5
363.714	7.46
364.078	7.49
364.442	7.4
364.806	7.3
365.169	7.32
365.533	7.37
365.896	7.23
366.26	7.21
366.623	7.17
366.987	7.17
367.35	7.15
367.714	7.07
368.077	6.93
368.44	6.92
368.803	6.87
369.167	6.79
369.53	6.72
369.893	6.72
370.256	6.66
370.619	6.53
370.982	6.5
371.345	6.45
371.708	6.38
372.071	6.31
372.434	6.24
372.797	6.2
373.159	6.11
373.522	6.11
373.885	6.14
374.247	6.11
374.61	6.03
374.973	5.96
375.335	5.96
375.698	5.91
376.06	5.85
376.423	5.77
376.785	5.72
377.147	5.69
377.51	5.57
377.872	5.55
378.234	5.6
378.596	5.54
378.958	5.56
379.321	5.49
379.683	5.48
380.045	5.43
380.407	5.37
380.769	5.37
381.13	5.35
381.492	5.25
381.854	5.2
382.216	5.28
382.578	5.24
382.939	5.2
383.301	5.18
383.663	5.13
384.024	5.12
384.386	5.12
384.747	5.05
385.109	5.01
385.47	4.97
385.832	4.88
386.193	4.92
386.554	4.81
386.916	4.8
387.277	4.77
387.638	4.77
387.999	4.74
388.36	4.72
388.721	4.68
389.082	4.68
389.443	4.65
389.804	4.6
390.165	4.6
390.526	4.61
390.887	4.6
391.248	4.56
391.609	4.57
391.969	4.52
392.33	4.54
392.691	4.57
393.051	4.56
393.412	4.54
393.772	4.49
394.133	4.53
394.493	4.52
394.854	4.52
395.214	4.52
395.574	4.5
395.935	4.49
396.295	4.49
396.655	4.48
397.015	4.45
397.376	4.42
397.736	4.36
398.096	4.31
398.456	4.31
398.816	4.32
399.176	4.25
399.535	4.24
399.895	4.2
400.255	4.16
400.615	4.14
400.975	4.15
401.334	4.14
401.694	4.11
402.054	4.07
402.413	4.06
402.773	4.03
403.132	4
403.492	3.96
403.851	3.92
404.211	3.88
404.57	3.89
404.929	3.84
405.288	3.86
405.648	3.83
406.007	3.76
406.366	3.71
406.725	3.7
407.084	3.7
407.443	3.68
407.802	3.68
408.161	3.68
408.52	3.7
408.879	3.7
409.238	3.68
409.596	3.7
409.955	3.66
410.314	3.64
410.673	3.65
411.031	3.65
411.39	3.67
411.748	3.69
412.107	3.69
412.465	3.72
412.824	3.69
413.182	3.69
413.54	3.73
413.899	3.73
414.257	3.75
414.615	3.75
414.974	3.8
415.332	3.78
415.69	3.75
416.048	3.71
416.406	3.66
416.764	3.67
417.122	3.64
417.48	3.66
417.838	3.66
418.195	3.66
418.553	3.63
418.911	3.61
419.269	3.61
419.626	3.59
419.984	3.56
420.342	3.56
420.699	3.56
421.057	3.56
421.414	3.57
421.772	3.56
422.129	3.56
422.486	3.54
422.844	3.52
423.201	3.52
423.558	3.51
423.915	3.53
424.273	3.51
424.63	3.52
424.987	3.51
425.344	3.48
425.701	3.48
426.058	3.5
426.415	3.5
426.772	3.47
427.128	3.48
427.485	3.49
427.842	3.48
428.199	3.5
428.555	3.47
428.912	3.43
429.269	3.41
429.625	3.37
429.982	3.36
430.338	3.35
430.695	3.36
431.051	3.35
431.407	3.34
431.764	3.33
432.12	3.32
432.476	3.32
432.832	3.34
433.189	3.31
433.545	3.3
433.901	3.29
434.257	3.3
434.613	3.26
434.969	3.27
435.325	3.26
435.681	3.23
436.036	3.25
436.392	3.28
436.748	3.27
437.104	3.29
437.459	3.29
437.815	3.31
438.171	3.32
438.526	3.32
438.882	3.32
439.237	3.33
439.593	3.33
439.948	3.31
440.304	3.29
440.659	3.29
441.014	3.28
441.369	3.29
441.725	3.29
442.08	3.3
442.435	3.29
442.79	3.3
443.145	3.3
443.5	3.3
443.855	3.28
444.21	3.28
444.565	3.27
444.92	3.27
445.275	3.25
445.629	3.23
445.984	3.23
446.339	3.24
446.693	3.24
447.048	3.22
447.403	3.23
447.757	3.23
448.112	3.25
448.466	3.25
448.82	3.24
449.175	3.24
449.529	3.27
449.883	3.24
450.238	3.25
450.592	3.25
450.946	3.24
451.3	3.24
451.654	3.25
452.008	3.24
452.362	3.25
452.716	3.27
453.07	3.28
453.424	3.27
453.778	3.27
454.132	3.26
454.486	3.28
454.839	3.28
455.193	3.3
455.547	3.3
455.9	3.32
456.254	3.31
456.607	3.31
456.961	3.3
457.314	3.31
457.668	3.3
458.021	3.31
458.375	3.3
458.728	3.3
459.081	3.31
459.434	3.3
459.787	3.32
460.141	3.31
460.494	3.31
460.847	3.3
461.2	3.29
461.553	3.3
461.906	3.28
462.259	3.29
462.611	3.26
462.964	3.25
463.317	3.25
463.67	3.26
464.022	3.26
464.375	3.25
464.728	3.24
465.08	3.25
465.433	3.24
465.785	3.26
466.138	3.25
466.49	3.26
466.843	3.29
467.195	3.27
467.547	3.27
467.899	3.26
468.252	3.28
468.604	3.3
468.956	3.29
469.308	3.33
469.66	3.31
470.012	3.35
470.364	3.37
470.716	3.36
471.068	3.37
471.42	3.37
471.772	3.36
472.123	3.39
472.475	3.38
472.827	3.4
473.178	3.4
473.53	3.42
473.882	3.4
474.233	3.4
474.585	3.42
474.936	3.43
475.288	3.44
475.639	3.45
475.99	3.43
476.342	3.44
476.693	3.41
477.044	3.41
477.395	3.39
477.746	3.37
478.097	3.38
478.448	3.38
478.8	3.36
479.15	3.36
479.501	3.36
479.852	3.37
480.203	3.36
480.554	3.38
480.905	3.38
481.255	3.39
481.606	3.4
481.957	3.39
482.307	3.38
482.658	3.4
483.009	3.4
483.359	3.39
483.709	3.39
484.06	3.4
484.41	3.4
484.761	3.41
485.111	3.42
485.461	3.41
485.811	3.42
486.162	3.43
486.512	3.43
486.862	3.43
487.212	3.42
487.562	3.42
487.912	3.41
488.262	3.41
488.612	3.41
488.961	3.41
489.311	3.4
489.661	3.4
490.011	3.39
490.36	3.39
490.71	3.4
491.06	3.4
491.409	3.39
491.759	3.4
492.108	3.38
492.458	3.38
492.807	3.39
493.157	3.39
493.506	3.41
493.855	3.42
494.204	3.43
494.554	3.46
494.903	3.47
495.252	3.49
495.601	3.5
495.95	3.5
496.299	3.52
496.648	3.54
496.997	3.57
497.346	3.6
497.695	3.62
498.043	3.65
498.392	3.64
498.741	3.68
499.09	3.71
499.438	3.75
499.787	3.77
500.135	3.77
500.484	3.78
500.832	3.8
501.181	3.81
501.529	3.86
501.878	3.88
502.226	3.9
502.574	3.93
502.923	3.97
503.271	4.01
503.619	4.03
503.967	4.05
504.315	4.08
504.663	4.09
505.011	4.11
505.359	4.12
505.707	4.16
506.055	4.17
506.403	4.19
506.751	4.22
507.098	4.25
507.446	4.33
507.794	4.36
508.141	4.39
508.489	4.44
508.837	4.45
509.184	4.49
509.531	4.54
509.879	4.58
510.226	4.61
510.574	4.63
510.921	4.66
511.268	4.72
511.616	4.76
511.963	4.81
512.31	4.88
512.657	4.95
513.004	5.01
513.351	5.08
513.698	5.16
514.045	5.23
514.392	5.3
514.739	5.35
515.086	5.45
515.432	5.53
515.779	5.59
516.126	5.69
516.473	5.75
516.819	5.81
517.166	5.88
517.512	5.95
517.859	6.04
518.205	6.11
518.552	6.19
518.898	6.26
519.245	6.33
519.591	6.4
519.937	6.43
520.283	6.5
520.629	6.58
520.976	6.65
521.322	6.74
521.668	6.8
522.014	6.89
522.36	6.96
522.706	7.04
523.052	7.17
523.398	7.26
523.743	7.36
524.089	7.45
524.435	7.55
524.781	7.65
525.126	7.72
525.472	7.8
525.817	7.86
526.163	7.94
526.509	8
526.854	8.09
527.199	8.18
527.545	8.24
527.89	8.3
528.235	8.37
528.581	8.43
528.926	8.52
529.271	8.58
529.616	8.66
529.961	8.73
530.306	8.78
530.651	8.83
530.996	8.92
531.341	9.01
531.686	9.1
532.031	9.19
532.376	9.28
532.721	9.39
533.065	9.5
533.41	9.59
533.755	9.7
534.099	9.78
534.444	9.86
534.788	9.95
535.133	10.04
535.477	10.15
535.822	10.25
536.166	10.35
536.51	10.47
536.855	10.58
537.199	10.7
537.543	10.84
537.887	10.99
538.231	11.13
538.576	11.26
538.92	11.39
539.264	11.52
539.608	11.66
539.951	11.77
540.295	11.89
540.639	12.02
540.983	12.14
541.327	12.26
541.671	12.38
542.014	12.53
542.358	12.67
542.701	12.78
543.045	12.9
543.389	13.04
543.732	13.16
544.075	13.28
544.419	13.43
544.762	13.56
545.105	13.71
545.449	13.87
545.792	14.04
546.135	14.21
546.478	14.41
546.821	14.61
547.165	14.83
547.508	15.04
547.851	15.23
548.194	15.42
548.536	15.6
548.879	15.85
549.222	16.04
549.565	16.24
549.908	16.46
550.25	16.68
550.593	16.92
550.936	17.18
551.278	17.45
551.621	17.68
551.963	17.96
552.306	18.24
552.648	18.43
552.991	18.68
553.333	18.97
553.675	19.15
554.017	19.34
554.36	19.56
554.702	19.79
555.044	20.05
555.386	20.31
555.728	20.56
556.07	20.78
556.412	21.05
556.754	21.27
557.096	21.61
557.438	21.88
557.78	22.1
558.121	22.39
558.463	22.71
558.805	23.01
559.147	23.27
559.488	23.51
559.83	23.81
560.171	24.04
560.513	24.23
560.854	24.55
561.196	24.83
561.537	25.08
561.878	25.37
562.22	25.62
562.561	25.88
562.902	26.16
563.243	26.46
563.584	26.7
563.925	26.98
564.266	27.18
564.607	27.47
564.948	27.75
565.289	28.01
565.63	28.19
565.971	28.38
566.312	28.6
566.653	28.88
566.993	29.16
567.334	29.45
567.675	29.71
568.015	29.93
568.356	30.18
568.696	30.48
569.037	30.69
569.377	30.96
569.718	31.22
570.058	31.49
570.398	31.7
570.739	31.97
571.079	32.23
571.419	32.5
571.759	32.71
572.099	32.94
572.439	33.18
572.779	33.43
573.119	33.71
573.459	33.96
573.799	34.15
574.139	34.35
574.479	34.56
574.819	34.74
575.158	34.97
575.498	35.21
575.838	35.42
576.177	35.68
576.517	35.88
576.856	36.06
577.196	36.29
577.535	36.52
577.875	36.72
578.214	36.96
578.553	37.14
578.893	37.4
579.232	37.61
579.571	37.77
579.91	37.97
580.25	38.16
580.589	38.33
580.928	38.57
581.267	38.66
581.606	38.88
581.945	39.14
582.283	39.37
582.622	39.52
582.961	39.69
583.3	39.87
583.639	40.03
583.977	40.24
584.316	40.43
584.654	40.6
584.993	40.83
585.332	40.99
585.67	41.16
586.008	41.39
586.347	41.61
586.685	41.78
587.024	41.93
587.362	42.13
587.7	42.33
588.038	42.45
588.376	42.73
588.715	42.85
589.053	42.97
589.391	43.11
589.729	43.24
590.067	43.37
590.404	43.52
590.742	43.77
591.08	43.95
591.418	44.01
591.756	44.19
592.093	44.31
592.431	44.49
592.769	44.58
593.106	44.66
593.444	44.76
593.781	44.92
594.119	45.08
594.456	45.12
594.793	45.17
595.131	45.23
595.468	45.33
595.805	45.47
596.143	45.57
596.48	45.62
596.817	45.79
597.154	45.93
597.491	45.99
597.828	46.06
598.165	46.09
598.502	46.25
598.839	46.37
599.176	46.48
599.512	46.58
599.849	46.73
600.186	46.81
600.523	46.9
600.859	46.97
601.196	47.05
601.532	47.23
601.869	47.37
602.205	47.52
602.542	47.61
602.878	47.67
603.215	47.8
603.551	47.92
603.887	47.97
604.223	48.02
604.56	48.09
604.896	48.14
605.232	48.23
605.568	48.33
605.904	48.35
606.24	48.4
606.576	48.47
606.912	48.53
607.248	48.56
607.583	48.63
607.919	48.76
608.255	48.83
608.591	48.83
608.926	48.92
609.262	49.02
609.597	49.11
609.933	49.19
610.268	49.27
610.604	49.29
610.939	49.34
611.275	49.37
611.61	49.43
611.945	49.46
612.281	49.62
612.616	49.69
612.951	49.8
613.286	49.8
613.621	49.81
613.956	49.94
614.291	50.04
614.626	50.16
614.961	50.26
615.296	50.33
615.631	50.41
615.966	50.36
616.3	50.35
616.635	50.38
616.97	50.41
617.304	50.35
617.639	50.47
617.973	50.54
618.308	50.61
618.642	50.71
618.977	50.73
619.311	50.69
619.646	50.69
619.98	50.73
620.314	50.73
620.648	50.71
620.983	50.67
621.317	50.69
621.651	50.66
621.985	50.59
622.319	50.75
622.653	50.83
622.987	51
623.321	51.02
623.655	51.08
623.988	51.15
624.322	51.34
624.656	51.4
624.99	51.46
625.323	51.45
625.657	51.4
625.99	51.42
626.324	51.47
626.657	51.46
626.991	51.51
627.324	51.68
627.658	51.84
627.991	51.99
628.324	52.05
628.657	52.11
628.991	52.17
629.324	52.14
629.657	52.13
629.99	52.13
630.323	52.18
630.656	52.21
630.989	52.21
631.322	52.11
631.655	52.14
631.987	52.16
632.32	52.21
632.653	52.35
632.986	52.52
633.318	52.62
633.651	52.69
633.984	52.72
634.316	52.7
634.649	52.73
634.981	52.76
635.313	52.87
635.646	52.88
635.978	52.95
636.31	52.96
636.643	52.92
636.975	52.92
637.307	53.01
637.639	53.03
637.971	53.06
638.303	53.1
638.635	52.96
638.967	53
639.299	53.04
639.631	53.02
639.963	53.01
640.295	52.95
640.626	52.97
640.958	52.87
641.29	52.8
641.621	52.71
641.953	52.6
642.285	52.47
642.616	52.57
642.948	52.65
643.279	52.69
643.61	52.77
643.942	52.76
644.273	52.76
644.604	52.75
644.936	52.73
645.267	52.82
645.598	53.02
645.929	53.02
646.26	53.09
646.591	53.11
646.922	53.1
647.253	53.2
647.584	53.28
647.915	53.38
648.245	53.47
648.576	53.6
648.907	53.69
649.238	53.8
649.568	53.72
649.899	53.68
650.229	53.77
650.56	53.97
650.89	54.04
651.221	54
651.551	54.01
651.882	54.2
652.212	54.17
652.542	54.1
652.872	54.13
653.203	54.18
653.533	54.23
653.863	54.14
654.193	54.12
654.523	54.19
654.853	54.27
655.183	54.26
655.513	54.33
655.843	54.47
656.172	54.55
656.502	54.62
656.832	54.51
657.162	54.42
657.491	54.34
657.821	54.27
658.15	54.27
658.48	54.34
658.809	54.26
659.139	54.28
659.468	54.26
659.798	54.37
660.127	54.25
660.456	54.23
660.785	54.23
661.115	54.21
661.444	54.09
661.773	53.96
662.102	53.9
662.431	53.8
662.76	53.64
663.089	53.53
663.418	53.52
663.747	53.63
664.076	53.66
664.404	53.67
664.733	53.69
665.062	53.75
665.39	53.69
665.719	53.71
666.048	53.78
666.376	53.93
666.705	53.78
667.033	53.96
667.362	54.01
667.69	54.03
668.018	54.02
668.347	54.32
668.675	54.45
669.003	54.54
669.331	54.54
669.659	54.53
669.987	54.49
670.315	54.54
670.643	54.5
670.971	54.49
671.299	54.49
671.627	54.35
671.955	54.41
672.283	54.43
672.61	54.38
672.938	54.3
673.266	54.1
673.593	54.22
673.921	54.14
674.249	54.17
674.576	54.31
674.904	54.32
675.231	54.05
675.558	54.15
675.886	54.3
676.213	54.39
676.54	54.51
676.867	54.74
677.195	54.77
677.522	54.88
677.849	54.87
678.176	54.97
678.503	55.3
678.83	55.35
679.157	55.47
679.484	55.49
679.81	55.44
680.137	55.57
680.464	55.46
680.791	55.49
681.117	55.46
681.444	55.53
681.771	55.55
682.097	55.65
682.424	55.6
682.75	55.45
683.077	55.45
683.403	55.44
683.729	55.3
684.056	55.36
684.382	55.34
684.708	55.47
685.034	55.46
685.36	55.37
685.686	55.4
686.012	55.33
686.339	55.27
686.664	55.28
686.99	55.18
687.316	55.23
687.642	55.28
687.968	55.35
688.294	55.34
688.619	55.26
688.945	55.21
689.271	55.18
689.596	55.33
689.922	55.32
690.247	55.38
690.573	55.34
690.898	55.11
691.224	55.1
691.549	54.91
691.874	54.87
692.2	54.83
692.525	54.73
692.85	54.72
693.175	54.68
693.5	54.82
693.825	55
694.15	55.07
694.475	54.99
694.8	55.07
695.125	55.07
695.45	55.26
695.775	55.34
696.099	55.63
696.424	55.52
696.749	55.61
697.073	55.6
697.398	55.68
697.723	55.78
698.047	55.7
698.372	55.87
698.696	55.88
699.02	55.99
699.345	56.05
699.669	56.09
699.993	56.34
700.318	56.41
700.642	56.48
700.966	56.56
701.29	56.59
701.614	56.44
701.938	56.43
702.262	56.44
702.586	56.44
702.91	56.12
703.234	56.17
703.557	56.09
703.881	56.01
704.205	56.1
704.529	56.16
704.852	56.21
705.176	56.35
705.499	56.25
705.823	56.04
706.146	56.03
706.47	56.08
706.793	56.02
707.117	55.85
707.44	55.6
707.763	55.55
708.086	55.46
708.409	55.69
708.733	55.66
709.056	55.6
709.379	55.57
709.702	55.51
710.025	55.74
710.348	55.74
710.671	55.93
710.993	55.92
711.316	56.09
711.639	56.3
711.962	56.23
712.284	56.34
712.607	56.36
712.93	56.39
713.252	56.2
713.575	56.32
713.897	56.51
714.22	56.86
714.542	56.71
714.864	56.64
715.187	56.48
715.509	56.63
715.831	56.52
716.153	56.7
716.475	56.8
716.798	56.54
717.12	56.54
717.442	56.3
717.764	56.42
718.085	56.2
718.407	56.13
718.729	56.09
719.051	55.95
719.373	56.07
719.695	56.05
720.016	56.14
720.338	55.95
720.659	55.92
720.981	55.57
721.302	55.72
721.624	55.92
721.945	55.73
722.267	55.6
722.588	55.87
722.909	55.44
723.231	55.56
723.552	55.52
723.873	55.42
724.194	55.61
724.515	55.61
724.836	55.6
725.157	55.6
725.478	55.53
725.799	55.65
726.12	55.66
726.441	55.53
726.762	55.53
727.083	55.56
727.403	55.63
727.724	55.86
728.045	55.91
728.365	56.07
728.686	56.1
729.006	55.92
729.327	55.69
729.647	56.01
729.967	55.98
730.288	56.07
730.608	56.13
730.928	56.12
731.249	55.98
731.569	56.11
731.889	56.16
732.209	56.11
732.529	56.17
732.849	56.05
733.169	56.08
733.489	56.04
733.809	56.08
734.129	55.95
734.448	55.83
734.768	55.67
735.088	55.64
735.408	55.89
735.727	55.89
736.047	56.05
736.366	55.91
736.686	55.83
737.005	55.85
737.325	55.84
737.644	55.74
737.963	55.64
738.283	55.5
738.602	55.37
738.921	55.51
739.24	55.36
739.56	55.39
739.879	55.57
740.198	55.71
740.517	55.81
740.836	55.83
741.155	55.72
741.473	55.93
741.792	55.76
742.111	55.87
742.43	56.19
742.748	56.18
743.067	56.22
743.386	56.43
743.704	56.47
744.023	56.87
744.341	56.95
744.66	57.15
744.978	57.28
745.297	57.17
745.615	57.09
745.933	57.32
746.252	57.68
746.57	57.94
746.888	58
747.206	57.93
747.524	58.07
747.842	58.23
748.16	58.42
748.478	58.75
748.796	58.94
749.114	58.73
749.432	58.58
749.749	58.58
750.067	58.56
750.385	58.58
750.703	58.12
751.02	58.38
751.338	57.78
751.655	58.07
751.973	58.4
752.29	58.61
752.608	58.31
752.925	58.04
753.242	57.65
753.56	57.69
753.877	57.53
754.194	57.41
754.511	57.25
754.828	56.59
755.145	56.57
755.462	56.34
755.779	56.27
756.096	56.37
756.413	56.58
756.73	56.55
757.047	56.34
757.364	56.65
757.68	56.37
757.997	57.07
758.314	56.31
758.63	55.95
758.947	55.47
759.264	55.84
759.58	55.78
759.896	55.79
760.213	55.63
760.529	55.66
760.846	55.88
761.162	56.32
761.478	56.67
761.794	56.68
762.11	56.38
762.426	56.81
762.743	56.85
763.059	56.75
763.375	56.7
763.69	57.15
764.006	57.14
764.322	57.22
764.638	57.2
764.954	57.61
765.27	57.74
765.585	57.72
765.901	57.37
766.216	57.49
766.532	57.37
766.848	57.67
767.163	57.71
767.478	57.38
767.794	57.24
768.109	57.48
768.424	57.33
768.74	57.69
769.055	57.47
769.37	57.56
769.685	57.52
770	57.63
770.315	57.16
770.63	57.49
770.945	57.39
771.26	57.26
771.575	57.4
771.89	57.2
772.205	57.48
772.52	57.93
772.834	58
773.149	58.42
773.464	58.46
773.778	58.06
774.093	58.65
774.407	58.21
774.722	57.86
775.036	57.28
775.351	57.32
775.665	57.19
775.979	56.98
776.293	56.96
776.608	56.66
776.922	56.71
777.236	56.34
777.55	56.59
777.864	56.81
778.178	56.16
778.492	56.21
778.806	56.6
779.12	56.62
779.434	56.25
779.747	56.28
780.061	56.34
780.375	56.78
780.689	56.34
781.002	56.28
781.316	56.43
781.629	57.06
781.943	56.88
782.256	56.52
782.57	56.79
782.883	56.57
783.196	57.04
783.51	57.42
783.823	57.43
784.136	57.53
784.449	57.7
784.762	58.46
785.075	59.14
785.388	58.94
785.701	59.19
786.014	59.99
786.327	60.21
786.64	59.91
786.953	59.98
787.266	59.92
787.578	60.43
787.891	60.85
788.204	61.03
788.516	61.17
788.829	61.29
789.141	61.5
789.454	61.99
789.766	61.68
790.079	61.54
790.391	61.54
790.703	61.77
791.016	61.55
791.328	61.28
791.64	60.82
791.952	60.25
792.264	60.28
792.576	59.7
792.888	59.45
793.2	59.72
793.512	59.66
793.824	59.71
794.136	59.8
794.448	59.28
794.76	59.18
795.071	59.54
795.383	59.5
795.695	59.34
796.006	59.63
796.318	60.02
796.629	59.89
796.941	59.79
797.252	58.81
797.564	58.57
797.875	57.78
798.186	57.34
798.497	57.81
798.809	57.67
799.12	57.99
799.431	57.38
799.742	57.28
800.053	57.04
800.364	57.14
800.675	56.57
800.986	56.34
801.297	56.13
801.608	56.08
801.918	56.48
802.229	56.5
802.54	55.99
802.851	55.51
803.161	55.87
803.472	55.88
803.782	56.27
804.093	56.81
804.403	57.93
804.714	58.83
805.024	58.62
805.334	58.65
805.645	58.48
805.955	58.92
806.265	58.85
806.575	59.14
806.885	59.54
807.195	60.25
807.505	59.88
807.815	60.22
808.125	59.84
808.435	59.78
808.745	59.56
809.055	59.94
809.365	60.35
809.674	59.74
809.984	59.86
810.294	60.73
810.603	59.96
810.913	58.92
811.222	59.31
811.532	59.42
811.841	59.78
812.151	58.97
812.46	59.14
812.769	59.13
813.079	58.92
813.388	58.42
813.697	58.35
814.006	58.46
814.315	58.58
814.624	58.99
814.933	58.88
815.242	59.53
815.551	59.2
815.86	59.53
816.169	59.72
816.478	58.81
816.786	57.53
817.095	57.95
817.404	58.29
817.712	57.86
818.021	57.94
818.33	56.92
818.638	57.78
818.947	57.26
819.255	57.19
819.563	57.48
819.872	57.89
820.18	57.84
820.488	58.61
820.796	58.55
821.105	58.55
821.413	58.66
821.721	58.45
822.029	58.48
822.337	58.34
822.645	58.64
822.953	58.87
823.26	59.1
823.568	59.07
823.876	59.03
824.184	58.99
824.491	59.08
824.799	59.42
825.107	59.39
825.414	59.63
825.722	59.78
826.029	59.8
826.337	59.72
826.644	60.01
826.951	59.92
827.259	59.79
827.566	59.62
827.873	59.78
828.18	59.91
828.488	59.74
828.795	60.08
829.102	59.91
829.409	59.93
829.716	59.59
830.023	59.62
830.329	59.33
830.636	58.72
830.943	58.9
831.25	58.38
831.557	58.13
831.863	57.7
832.17	57.31
832.476	57.59
832.783	57.17
833.089	56.89
833.396	56.62
833.702	57.13
834.009	57.26
834.315	56.65
834.621	56.68
834.928	57.71
835.234	57.29
835.54	57.33
835.846	57.46
836.152	58.14
836.458	57.84
836.764	58.54
837.07	59.33
837.376	59.05
837.682	58.95
837.988	59.77
838.293	60.11
838.599	61.19
838.905	60.05
839.211	60.98
839.516	60.6
839.822	61.22
840.127	60.31
840.433	60.15
840.738	61.05
841.044	61.36
841.349	60.9
841.654	60.97
841.959	60.97
842.265	60.29
842.57	60.38
842.875	62.02
843.18	61.73
843.485	62.49
843.79	63.06
844.095	64.5
844.4	64.1
844.705	64.46
845.01	63.39
845.315	66.15
845.619	66.87
845.924	67.81
846.229	67.32
846.533	69.73
846.838	69.95
847.142	68.92
847.447	68.38
847.751	68.89
848.056	68.03
848.36	67.51
848.664	69.41
848.969	67.57
849.273	68.22
849.577	68.43
849.881	68.38
850.185	68.88
850.489	67.18
850.794	65.37
851.097	66.05
851.401	65.37
851.705	65.68
852.009	64.15
852.313	63.3
852.617	62.82
852.92	61.33
853.224	63.77
853.528	65.82
853.831	66.31
854.135	64.91
854.438	65.17
854.742	65.57
855.045	62.99
855.349	64.48
855.652	63.9
855.955	63.85
856.259	63.95
856.562	62.02
856.865	62.83
857.168	64.95
857.471	65.22
857.774	65
858.077	65.55
858.38	66.18
858.683	64.96
858.986	63.84
859.289	64.12
859.592	62.55
859.894	60.64
860.197	62.37
860.5	59.86
860.802	59.3
861.105	58.01
861.407	59.82
861.71	57.68
862.012	55.43
862.315	56.59
862.617	56.06
862.919	56.22
863.222	57.53
863.524	57.19
863.826	56.89
864.128	58.52
864.43	55.86
864.732	55.79
865.034	58.06
865.336	60.73
865.638	60.92
865.94	63.43
866.242	66.28
866.544	64.73
866.846	67.65
867.147	68.21
867.449	69.69
867.751	69.56
868.052	72.64
868.354	73.69
868.655	71.98
868.957	72.48
869.258	69.35
869.56	68.45
869.861	67.87
870.162	66.3
870.463	63.01
870.765	65.05
871.066	64.08
871.367	61.7
871.668	58.98
871.969	58.97
872.27	57.86
872.571	56.75
872.872	54.4
873.173	54.14
873.473	53.77
873.774	55.71
874.075	55.85
874.376	52.41
874.676	53.79
874.977	55.77
875.277	54.23
875.578	57.54
875.878	57
876.179	56.64
876.479	57.63
876.78	59.81
877.08	58.68
877.38	59.38
877.68	60.99
877.981	62.65
878.281	63.51
878.581	60.9
