Data from MVZ_BU95633_Reflection_00006.txt Node
Date: Tue Nov 19 12:21:06 EST 2019
User: vgr7
Spectrometer: USB2G7710
Scans to average: 3
Trigger mode: 4
Integration Time (sec): 2.000000E-2
Electric dark correction enabled: true
Boxcar width: 10
XAxis mode: Wavelengths
Number of Pixels in Spectrum: 2048
>>>>>Begin Spectral Data<<<<<
177.721	-107.56
178.105	-119.81
178.488	-225.03
178.871	-606.67
179.254	275.76
179.636	-253.23
180.019	-28.21
180.402	78.57
180.785	-92.98
181.168	34.73
181.55	53.96
181.933	87.25
182.316	133.1
182.698	98.65
183.081	148.22
183.463	142.36
183.846	65.45
184.228	49.39
184.611	23.4
184.993	52.69
185.376	219.66
185.758	322.22
186.14	-461.9
186.522	-174.91
186.904	-97.7
187.287	-264.34
187.669	-44.14
188.051	36.25
188.433	-12.93
188.815	3.73
189.197	31.34
189.579	28.5
189.961	65.47
190.342	37.6
190.724	40.84
191.106	54.99
191.488	48.49
191.869	12
192.251	0.35
192.633	-9.95
193.014	9.04
193.396	-10.85
193.777	12.05
194.159	43.69
194.54	46.16
194.922	73.65
195.303	53.44
195.684	68.92
196.065	37.55
196.447	55.05
196.828	58.2
197.209	66.58
197.59	59.28
197.971	52.66
198.352	55.43
198.733	41.35
199.114	24.17
199.495	22.35
199.876	47.86
200.257	63.65
200.638	41.01
201.018	17.87
201.399	17.04
201.78	3.91
202.16	-7.03
202.541	-2.98
202.922	-13.77
203.302	-2.6
203.683	-16.54
204.063	-21.53
204.444	-7.92
204.824	-19.57
205.204	-26.66
205.585	-22.32
205.965	-27.72
206.345	-30.21
206.725	-27.5
207.106	-28.57
207.486	-27.69
207.866	-25.59
208.246	-18.75
208.626	-24.1
209.006	-22.15
209.386	-17.22
209.766	-30.45
210.145	-32.1
210.525	-40.41
210.905	-40.55
211.285	-41.29
211.664	-29.48
212.044	-29.61
212.424	-26.19
212.803	-29.38
213.183	-37.98
213.562	-32.66
213.942	-30.1
214.321	-35.16
214.701	-64.04
215.08	-56.17
215.459	-55.74
215.838	-84.3
216.218	-102.22
216.597	-91.05
216.976	-111.09
217.355	-100.11
217.734	-91.95
218.113	-84.48
218.492	-91.65
218.871	-70.03
219.25	-87.68
219.629	-120.01
220.008	-100.12
220.387	-99.48
220.766	-82.89
221.144	-90.91
221.523	-121.09
221.902	-106.03
222.28	-70.58
222.659	-34.5
223.037	-36.02
223.416	-32.41
223.794	-24.63
224.173	-27.68
224.551	-24.45
224.929	-29.55
225.308	-27
225.686	-24.14
226.064	-20.94
226.442	-15.62
226.821	-17.14
227.199	-10.85
227.577	-7.47
227.955	-6.01
228.333	-6.36
228.711	-3.57
229.089	-0.99
229.467	2.37
229.845	3.57
230.222	3.82
230.6	-1.39
230.978	-2.6
231.356	-3.44
231.733	-5.53
232.111	-2.45
232.488	-3.74
232.866	-1.43
233.243	-2.64
233.621	-0.88
233.998	-2.1
234.376	-2.99
234.753	-2.59
235.13	-3.63
235.508	-4.95
235.885	-6.2
236.262	-7.01
236.639	-7.8
237.016	-7.46
237.393	-6.83
237.77	-5.52
238.147	-5
238.524	-2.9
238.901	-3.15
239.278	-2.96
239.655	-2.26
240.032	-1.73
240.409	-1.34
240.785	-0.63
241.162	-0.28
241.539	0.1
241.915	0.93
242.292	1.63
242.668	1.92
243.045	2.58
243.421	3.33
243.798	3.87
244.174	4.19
244.551	4.42
244.927	4.35
245.303	4.06
245.679	4.11
246.056	4
246.432	3.77
246.808	4.18
247.184	4.33
247.56	4.56
247.936	4.5
248.312	4.67
248.688	4.61
249.064	4.58
249.44	4.15
249.815	3.86
250.191	3.64
250.567	3.3
250.943	3.29
251.318	3.14
251.694	2.94
252.069	2.87
252.445	2.76
252.82	2.69
253.196	2.83
253.571	3.03
253.947	3.23
254.322	3.46
254.697	3.12
255.073	2.65
255.448	2.81
255.823	2.96
256.198	2.8
256.573	2.73
256.948	2.79
257.323	3.21
257.698	3.44
258.073	3.3
258.448	3.53
258.823	3.32
259.198	3.33
259.573	3.31
259.948	3.25
260.322	3.1
260.697	3.18
261.072	3.18
261.446	3.04
261.821	2.9
262.195	2.87
262.57	2.98
262.944	3.26
263.319	3.16
263.693	3.07
264.067	3.14
264.442	3.23
264.816	3.22
265.19	3.1
265.564	2.9
265.938	2.99
266.313	3.03
266.687	3.11
267.061	2.92
267.435	3.15
267.809	3.07
268.183	3.14
268.556	3.15
268.93	3.16
269.304	3.2
269.678	3.33
270.051	3.32
270.425	3.37
270.799	3.01
271.172	2.93
271.546	3.16
271.919	3.09
272.293	3.11
272.666	3.18
273.04	3.14
273.413	3.31
273.787	3.25
274.16	3.07
274.533	3.1
274.906	3.09
275.279	3.03
275.653	3.14
276.026	3.11
276.399	3.13
276.772	3.12
277.145	3.15
277.518	3.21
277.891	3.19
278.263	3.03
278.636	3.55
279.009	3.72
279.382	3.51
279.755	3.74
280.127	3.67
280.5	3.64
280.872	3.69
281.245	3.83
281.617	3.93
281.99	4.02
282.362	3.85
282.735	3.87
283.107	3.84
283.479	3.85
283.852	3.83
284.224	3.77
284.596	3.75
284.968	3.57
285.34	3.56
285.713	3.56
286.085	3.56
286.457	3.33
286.829	3.21
287.201	3.12
287.572	3
287.944	3.03
288.316	3.07
288.688	3.07
289.06	2.95
289.431	3.06
289.803	3.14
290.175	3.19
290.546	3.17
290.918	3.09
291.289	2.98
291.661	3.04
292.032	3.17
292.403	3.08
292.775	3.19
293.146	3.06
293.517	3.02
293.889	3.07
294.26	3.01
294.631	3.11
295.002	3.28
295.373	3.29
295.744	3.23
296.115	3.21
296.486	3.25
296.857	3.3
297.228	3.06
297.599	2.88
297.97	3
298.34	3.05
298.711	3.15
299.082	3.18
299.452	3.23
299.823	3.2
300.194	3.31
300.564	3.27
300.935	3.41
301.305	3.5
301.676	3.4
302.046	3.38
302.416	3.28
302.787	3.23
303.157	3.19
303.527	3.27
303.897	3.23
304.267	3.07
304.637	2.88
305.008	2.97
305.378	3.01
305.748	2.9
306.117	2.81
306.487	2.79
306.857	2.88
307.227	3.02
307.597	2.96
307.967	2.89
308.336	2.89
308.706	2.95
309.076	2.87
309.445	3.1
309.815	3.22
310.184	3.26
310.554	3.18
310.923	3.18
311.293	3.09
311.662	3.25
312.031	3.32
312.401	3.32
312.77	3.42
313.139	3.5
313.508	3.39
313.877	3.49
314.246	3.43
314.616	3.32
314.985	3.18
315.353	3.17
315.722	3.3
316.091	3.38
316.46	3.32
316.829	3.28
317.198	3.11
317.567	3.13
317.935	2.95
318.304	3.19
318.672	3.24
319.041	3.43
319.41	3.37
319.778	3.43
320.147	3.67
320.515	3.6
320.883	3.55
321.252	3.65
321.62	3.58
321.988	3.69
322.357	3.76
322.725	3.63
323.093	3.53
323.461	3.47
323.829	3.39
324.197	3.31
324.565	3.49
324.933	3.5
325.301	3.42
325.669	3.5
326.037	3.53
326.405	3.49
326.772	3.41
327.14	3.29
327.508	3.24
327.875	3.17
328.243	3.12
328.61	3.11
328.978	3.11
329.346	3.11
329.713	3.19
330.08	3.16
330.448	3.29
330.815	3.4
331.182	3.31
331.55	3.4
331.917	3.36
332.284	3.28
332.651	3.23
333.018	3.34
333.385	3.39
333.752	3.26
334.119	3.3
334.486	3.31
334.853	3.29
335.22	3.33
335.587	3.19
335.954	3.19
336.32	3.1
336.687	3.23
337.054	3.26
337.42	3.02
337.787	2.99
338.153	3.07
338.52	3.12
338.886	3.26
339.253	3.26
339.619	3.4
339.986	3.34
340.352	3.44
340.718	3.34
341.084	3.44
341.451	3.42
341.817	3.42
342.183	3.39
342.549	3.45
342.915	3.48
343.281	3.48
343.647	3.51
344.013	3.58
344.379	3.47
344.745	3.57
345.11	3.63
345.476	3.72
345.842	3.63
346.208	3.6
346.573	3.46
346.939	3.45
347.304	3.35
347.67	3.4
348.035	3.33
348.401	3.33
348.766	3.18
349.132	3.18
349.497	3.28
349.862	3.22
350.228	3.25
350.593	3.12
350.958	3.23
351.323	3.24
351.688	3.28
352.053	3.27
352.418	3.19
352.783	3.23
353.148	3.2
353.513	3.23
353.878	3.13
354.243	3.12
354.608	3.08
354.972	3.11
355.337	3.12
355.702	3.21
356.066	3.24
356.431	3.29
356.795	3.31
357.16	3.25
357.524	3.25
357.889	3.16
358.253	3.18
358.618	3.15
358.982	3.19
359.346	3.2
359.71	3.18
360.075	3.23
360.439	3.2
360.803	3.2
361.167	3.16
361.531	3.19
361.895	3.24
362.259	3.28
362.623	3.21
362.987	3.22
363.351	3.21
363.714	3.17
364.078	3.27
364.442	3.22
364.806	3.16
365.169	3.17
365.533	3.19
365.896	3.3
366.26	3.33
366.623	3.3
366.987	3.22
367.35	3.25
367.714	3.22
368.077	3.3
368.44	3.32
368.803	3.34
369.167	3.37
369.53	3.46
369.893	3.42
370.256	3.41
370.619	3.41
370.982	3.35
371.345	3.45
371.708	3.39
372.071	3.37
372.434	3.43
372.797	3.55
373.159	3.54
373.522	3.48
373.885	3.42
374.247	3.37
374.61	3.48
374.973	3.5
375.335	3.49
375.698	3.42
376.06	3.35
376.423	3.36
376.785	3.39
377.147	3.29
377.51	3.31
377.872	3.39
378.234	3.36
378.596	3.36
378.958	3.36
379.321	3.34
379.683	3.39
380.045	3.44
380.407	3.37
380.769	3.41
381.13	3.4
381.492	3.36
381.854	3.4
382.216	3.4
382.578	3.39
382.939	3.46
383.301	3.47
383.663	3.54
384.024	3.53
384.386	3.5
384.747	3.48
385.109	3.43
385.47	3.39
385.832	3.34
386.193	3.36
386.554	3.31
386.916	3.31
387.277	3.31
387.638	3.3
387.999	3.33
388.36	3.35
388.721	3.4
389.082	3.47
389.443	3.46
389.804	3.41
390.165	3.41
390.526	3.37
390.887	3.37
391.248	3.34
391.609	3.38
391.969	3.4
392.33	3.42
392.691	3.46
393.051	3.47
393.412	3.49
393.772	3.57
394.133	3.58
394.493	3.54
394.854	3.52
395.214	3.5
395.574	3.48
395.935	3.44
396.295	3.42
396.655	3.4
397.015	3.43
397.376	3.44
397.736	3.42
398.096	3.39
398.456	3.36
398.816	3.38
399.176	3.3
399.535	3.28
399.895	3.26
400.255	3.29
400.615	3.28
400.975	3.27
401.334	3.22
401.694	3.23
402.054	3.26
402.413	3.26
402.773	3.25
403.132	3.24
403.492	3.25
403.851	3.24
404.211	3.22
404.57	3.27
404.929	3.26
405.288	3.28
405.648	3.31
406.007	3.34
406.366	3.34
406.725	3.36
407.084	3.38
407.443	3.38
407.802	3.37
408.161	3.38
408.52	3.39
408.879	3.39
409.238	3.4
409.596	3.41
409.955	3.43
410.314	3.45
410.673	3.46
411.031	3.44
411.39	3.44
411.748	3.46
412.107	3.41
412.465	3.39
412.824	3.39
413.182	3.36
413.54	3.38
413.899	3.38
414.257	3.4
414.615	3.4
414.974	3.43
415.332	3.42
415.69	3.43
416.048	3.45
416.406	3.44
416.764	3.43
417.122	3.42
417.48	3.43
417.838	3.43
418.195	3.45
418.553	3.46
418.911	3.46
419.269	3.45
419.626	3.46
419.984	3.47
420.342	3.47
420.699	3.48
421.057	3.46
421.414	3.47
421.772	3.46
422.129	3.44
422.486	3.44
422.844	3.44
423.201	3.44
423.558	3.43
423.915	3.46
424.273	3.46
424.63	3.48
424.987	3.46
425.344	3.46
425.701	3.47
426.058	3.47
426.415	3.47
426.772	3.47
427.128	3.46
427.485	3.45
427.842	3.45
428.199	3.45
428.555	3.45
428.912	3.44
429.269	3.46
429.625	3.46
429.982	3.46
430.338	3.46
430.695	3.46
431.051	3.46
431.407	3.43
431.764	3.41
432.12	3.38
432.476	3.41
432.832	3.42
433.189	3.4
433.545	3.41
433.901	3.41
434.257	3.41
434.613	3.43
434.969	3.44
435.325	3.45
435.681	3.45
436.036	3.46
436.392	3.48
436.748	3.46
437.104	3.49
437.459	3.47
437.815	3.48
438.171	3.48
438.526	3.49
438.882	3.5
439.237	3.51
439.593	3.51
439.948	3.51
440.304	3.5
440.659	3.49
441.014	3.46
441.369	3.45
441.725	3.46
442.08	3.44
442.435	3.45
442.79	3.43
443.145	3.43
443.5	3.41
443.855	3.42
444.21	3.42
444.565	3.41
444.92	3.44
445.275	3.45
445.629	3.45
445.984	3.44
446.339	3.45
446.693	3.46
447.048	3.45
447.403	3.45
447.757	3.46
448.112	3.47
448.466	3.48
448.82	3.51
449.175	3.51
449.529	3.54
449.883	3.51
450.238	3.52
450.592	3.51
450.946	3.55
451.3	3.53
451.654	3.55
452.008	3.54
452.362	3.54
452.716	3.55
453.07	3.55
453.424	3.54
453.778	3.54
454.132	3.55
454.486	3.57
454.839	3.56
455.193	3.55
455.547	3.53
455.9	3.56
456.254	3.56
456.607	3.53
456.961	3.54
457.314	3.56
457.668	3.59
458.021	3.62
458.375	3.6
458.728	3.62
459.081	3.6
459.434	3.6
459.787	3.6
460.141	3.59
460.494	3.6
460.847	3.61
461.2	3.6
461.553	3.59
461.906	3.57
462.259	3.56
462.611	3.58
462.964	3.58
463.317	3.57
463.67	3.57
464.022	3.6
464.375	3.58
464.728	3.57
465.08	3.53
465.433	3.51
465.785	3.53
466.138	3.53
466.49	3.54
466.843	3.57
467.195	3.58
467.547	3.56
467.899	3.57
468.252	3.59
468.604	3.6
468.956	3.63
469.308	3.64
469.66	3.65
470.012	3.65
470.364	3.68
470.716	3.68
471.068	3.71
471.42	3.69
471.772	3.7
472.123	3.73
472.475	3.73
472.827	3.76
473.178	3.72
473.53	3.71
473.882	3.69
474.233	3.67
474.585	3.63
474.936	3.64
475.288	3.63
475.639	3.62
475.99	3.63
476.342	3.64
476.693	3.64
477.044	3.66
477.395	3.65
477.746	3.64
478.097	3.62
478.448	3.61
478.8	3.62
479.15	3.62
479.501	3.59
479.852	3.61
480.203	3.6
480.554	3.62
480.905	3.64
481.255	3.65
481.606	3.65
481.957	3.66
482.307	3.65
482.658	3.64
483.009	3.63
483.359	3.62
483.709	3.62
484.06	3.63
484.41	3.64
484.761	3.64
485.111	3.64
485.461	3.64
485.811	3.64
486.162	3.64
486.512	3.64
486.862	3.66
487.212	3.66
487.562	3.67
487.912	3.66
488.262	3.66
488.612	3.66
488.961	3.66
489.311	3.67
489.661	3.67
490.011	3.67
490.36	3.69
490.71	3.69
491.06	3.69
491.409	3.67
491.759	3.67
492.108	3.65
492.458	3.65
492.807	3.65
493.157	3.66
493.506	3.66
493.855	3.65
494.204	3.65
494.554	3.64
494.903	3.65
495.252	3.66
495.601	3.67
495.95	3.68
496.299	3.71
496.648	3.71
496.997	3.72
497.346	3.75
497.695	3.74
498.043	3.76
498.392	3.76
498.741	3.79
499.09	3.79
499.438	3.81
499.787	3.83
500.135	3.82
500.484	3.81
500.832	3.82
501.181	3.82
501.529	3.83
501.878	3.82
502.226	3.82
502.574	3.82
502.923	3.81
503.271	3.8
503.619	3.79
503.967	3.76
504.315	3.77
504.663	3.75
505.011	3.74
505.359	3.74
505.707	3.75
506.055	3.75
506.403	3.76
506.751	3.78
507.098	3.8
507.446	3.79
507.794	3.78
508.141	3.8
508.489	3.82
508.837	3.82
509.184	3.83
509.531	3.83
509.879	3.82
510.226	3.82
510.574	3.84
510.921	3.82
511.268	3.85
511.616	3.86
511.963	3.86
512.31	3.86
512.657	3.86
513.004	3.85
513.351	3.85
513.698	3.84
514.045	3.82
514.392	3.81
514.739	3.84
515.086	3.86
515.432	3.86
515.779	3.87
516.126	3.88
516.473	3.89
516.819	3.88
517.166	3.9
517.512	3.89
517.859	3.88
518.205	3.9
518.552	3.9
518.898	3.9
519.245	3.9
519.591	3.93
519.937	3.93
520.283	3.95
520.629	3.95
520.976	3.96
521.322	3.96
521.668	3.93
522.014	3.91
522.36	3.89
522.706	3.87
523.052	3.9
523.398	3.9
523.743	3.88
524.089	3.92
524.435	3.91
524.781	3.93
525.126	3.93
525.472	3.94
525.817	3.95
526.163	3.94
526.509	3.96
526.854	3.95
527.199	3.97
527.545	3.98
527.89	3.99
528.235	3.99
528.581	4
528.926	4.03
529.271	4.03
529.616	4.05
529.961	4.05
530.306	4.04
530.651	4.04
530.996	4.06
531.341	4.05
531.686	4.05
532.031	4.05
532.376	4.06
532.721	4.07
533.065	4.06
533.41	4.08
533.755	4.07
534.099	4.06
534.444	4.06
534.788	4.05
535.133	4.05
535.477	4.05
535.822	4.05
536.166	4.03
536.51	4.04
536.855	4.03
537.199	4.02
537.543	4.02
537.887	4.03
538.231	4.04
538.576	4.04
538.92	4.05
539.264	4.07
539.608	4.07
539.951	4.05
540.295	4.06
540.639	4.07
540.983	4.08
541.327	4.1
541.671	4.07
542.014	4.09
542.358	4.1
542.701	4.09
543.045	4.09
543.389	4.1
543.732	4.1
544.075	4.11
544.419	4.11
544.762	4.11
545.105	4.11
545.449	4.11
545.792	4.11
546.135	4.09
546.478	4.08
546.821	4.08
547.165	4.09
547.508	4.09
547.851	4.1
548.194	4.07
548.536	4.05
548.879	4.08
549.222	4.09
549.565	4.09
549.908	4.1
550.25	4.11
550.593	4.12
550.936	4.12
551.278	4.1
551.621	4.1
551.963	4.12
552.306	4.09
552.648	4.04
552.991	4.04
553.333	4.05
553.675	4.05
554.017	4.08
554.36	4.09
554.702	4.07
555.044	4.02
555.386	4.04
555.728	4.05
556.07	4.02
556.412	4
556.754	3.97
557.096	3.97
557.438	3.99
557.78	3.98
558.121	3.99
558.463	3.99
558.805	4.01
559.147	4.03
559.488	4.03
559.83	4.08
560.171	4.09
560.513	4.09
560.854	4.08
561.196	4.1
561.537	4.08
561.878	4.1
562.22	4.12
562.561	4.1
562.902	4.13
563.243	4.14
563.584	4.15
563.925	4.16
564.266	4.13
564.607	4.13
564.948	4.14
565.289	4.17
565.63	4.17
565.971	4.17
566.312	4.15
566.653	4.16
566.993	4.18
567.334	4.21
567.675	4.22
568.015	4.21
568.356	4.18
568.696	4.17
569.037	4.16
569.377	4.15
569.718	4.14
570.058	4.12
570.398	4.12
570.739	4.11
571.079	4.13
571.419	4.14
571.759	4.11
572.099	4.08
572.439	4.04
572.779	4.04
573.119	4.04
573.459	4.06
573.799	4.05
574.139	4.01
574.479	4.02
574.819	4.02
575.158	4.03
575.498	4.05
575.838	4.07
576.177	4.07
576.517	4.11
576.856	4.12
577.196	4.11
577.535	4.13
577.875	4.12
578.214	4.13
578.553	4.12
578.893	4.17
579.232	4.2
579.571	4.21
579.91	4.22
580.25	4.2
580.589	4.21
580.928	4.21
581.267	4.18
581.606	4.14
581.945	4.12
582.283	4.13
582.622	4.09
582.961	4.13
583.3	4.12
583.639	4.12
583.977	4.15
584.316	4.18
584.654	4.16
584.993	4.18
585.332	4.17
585.67	4.21
586.008	4.17
586.347	4.15
586.685	4.14
587.024	4.15
587.362	4.14
587.7	4.17
588.038	4.25
588.376	4.27
588.715	4.26
589.053	4.23
589.391	4.21
589.729	4.23
590.067	4.17
590.404	4.19
590.742	4.17
591.08	4.17
591.418	4.17
591.756	4.2
592.093	4.2
592.431	4.22
592.769	4.19
593.106	4.2
593.444	4.2
593.781	4.24
594.119	4.22
594.456	4.23
594.793	4.16
595.131	4.12
595.468	4.14
595.805	4.16
596.143	4.2
596.48	4.2
596.817	4.2
597.154	4.22
597.491	4.22
597.828	4.22
598.165	4.2
598.502	4.18
598.839	4.17
599.176	4.15
599.512	4.15
599.849	4.16
600.186	4.16
600.523	4.17
600.859	4.19
601.196	4.23
601.532	4.2
601.869	4.25
602.205	4.25
602.542	4.24
602.878	4.24
603.215	4.24
603.551	4.24
603.887	4.23
604.223	4.22
604.56	4.23
604.896	4.26
605.232	4.26
605.568	4.26
605.904	4.22
606.24	4.24
606.576	4.25
606.912	4.23
607.248	4.26
607.583	4.3
607.919	4.24
608.255	4.23
608.591	4.27
608.926	4.24
609.262	4.22
609.597	4.26
609.933	4.25
610.268	4.28
610.604	4.28
610.939	4.3
611.275	4.34
611.61	4.32
611.945	4.26
612.281	4.33
612.616	4.37
612.951	4.39
613.286	4.38
613.621	4.34
613.956	4.38
614.291	4.38
614.626	4.32
614.961	4.32
615.296	4.31
615.631	4.31
615.966	4.36
616.3	4.42
616.635	4.4
616.97	4.43
617.304	4.33
617.639	4.36
617.973	4.35
618.308	4.35
618.642	4.37
618.977	4.37
619.311	4.32
619.646	4.31
619.98	4.32
620.314	4.32
620.648	4.33
620.983	4.36
621.317	4.36
621.651	4.39
621.985	4.42
622.319	4.45
622.653	4.41
622.987	4.35
623.321	4.35
623.655	4.33
623.988	4.32
624.322	4.32
624.656	4.29
624.99	4.29
625.323	4.26
625.657	4.28
625.99	4.32
626.324	4.29
626.657	4.3
626.991	4.3
627.324	4.29
627.658	4.33
627.991	4.35
628.324	4.34
628.657	4.36
628.991	4.37
629.324	4.35
629.657	4.36
629.99	4.37
630.323	4.38
630.656	4.4
630.989	4.36
631.322	4.5
631.655	4.51
631.987	4.5
632.32	4.54
632.653	4.5
632.986	4.47
633.318	4.51
633.651	4.53
633.984	4.57
634.316	4.57
634.649	4.56
634.981	4.58
635.313	4.57
635.646	4.53
635.978	4.54
636.31	4.55
636.643	4.6
636.975	4.64
637.307	4.63
637.639	4.61
637.971	4.67
638.303	4.57
638.635	4.55
638.967	4.61
639.299	4.57
639.631	4.65
639.963	4.65
640.295	4.66
640.626	4.62
640.958	4.64
641.29	4.68
641.621	4.61
641.953	4.53
642.285	4.51
642.616	4.6
642.948	4.62
643.279	4.63
643.61	4.63
643.942	4.68
644.273	4.67
644.604	4.67
644.936	4.65
645.267	4.64
645.598	4.72
645.929	4.61
646.26	4.53
646.591	4.52
646.922	4.55
647.253	4.52
647.584	4.53
647.915	4.5
648.245	4.48
648.576	4.55
648.907	4.59
649.238	4.53
649.568	4.49
649.899	4.46
650.229	4.55
650.56	4.57
650.89	4.54
651.221	4.55
651.551	4.52
651.882	4.53
652.212	4.55
652.542	4.55
652.872	4.62
653.203	4.74
653.533	4.77
653.863	4.75
654.193	4.74
654.523	4.7
654.853	4.73
655.183	4.8
655.513	4.79
655.843	4.78
656.172	4.88
656.502	4.82
656.832	4.76
657.162	4.69
657.491	4.72
657.821	4.69
658.15	4.76
658.48	4.84
658.809	4.82
659.139	4.83
659.468	4.79
659.798	4.82
660.127	4.79
660.456	4.65
660.785	4.67
661.115	4.66
661.444	4.68
661.773	4.65
662.102	4.64
662.431	4.61
662.76	4.6
663.089	4.54
663.418	4.68
663.747	4.75
664.076	4.78
664.404	4.71
664.733	4.78
665.062	4.74
665.39	4.73
665.719	4.72
666.048	4.69
666.376	4.71
666.705	4.71
667.033	4.73
667.362	4.83
667.69	4.78
668.018	4.89
668.347	4.98
668.675	4.94
669.003	4.84
669.331	4.95
669.659	4.9
669.987	4.96
670.315	4.86
670.643	4.83
670.971	4.78
671.299	4.82
671.627	4.69
671.955	4.62
672.283	4.58
672.61	4.57
672.938	4.62
673.266	4.59
673.593	4.53
673.921	4.52
674.249	4.48
674.576	4.69
674.904	4.56
675.231	4.42
675.558	4.54
675.886	4.63
676.213	4.6
676.54	4.75
676.867	4.77
677.195	4.87
677.522	4.92
677.849	4.95
678.176	4.94
678.503	4.94
678.83	4.98
679.157	4.96
679.484	5
679.81	5.04
680.137	5.1
680.464	5.11
680.791	5.15
681.117	5.32
681.444	5.19
681.771	5.25
682.097	5.32
682.424	5.24
682.75	5.27
683.077	5.22
683.403	5.16
683.729	5.12
684.056	5.05
684.382	5.08
684.708	5.08
685.034	5.02
685.36	5.04
685.686	4.97
686.012	5
686.339	5.01
686.664	4.98
686.99	4.94
687.316	4.94
687.642	4.82
687.968	4.72
688.294	4.76
688.619	4.76
688.945	4.76
689.271	4.75
689.596	4.62
689.922	4.58
690.247	4.52
690.573	4.48
690.898	4.62
691.224	4.61
691.549	4.53
691.874	4.53
692.2	4.52
692.525	4.65
692.85	4.73
693.175	4.8
693.5	4.75
693.825	4.81
694.15	4.86
694.475	4.98
694.8	4.99
695.125	5.02
695.45	5.01
695.775	4.92
696.099	5.04
696.424	5.16
696.749	5.19
697.073	5.14
697.398	5.19
697.723	5.15
698.047	5.23
698.372	5.26
698.696	5.26
699.02	5.3
699.345	5.34
699.669	5.32
699.993	5.2
700.318	5.26
700.642	5.21
700.966	5.22
701.29	5.19
701.614	5.18
701.938	5.19
702.262	5.18
702.586	5.24
702.91	5.21
703.234	5.05
703.557	5.1
703.881	5.24
704.205	5.33
704.529	5.24
704.852	5.1
705.176	5.25
705.499	5.38
705.823	5.4
706.146	5.37
706.47	5.41
706.793	5.48
707.117	5.3
707.44	5.35
707.763	5.45
708.086	5.37
708.409	5.29
708.733	5.23
709.056	5.32
709.379	5.42
709.702	5.3
710.025	5.44
710.348	5.36
710.671	5.42
710.993	5.4
711.316	5.45
711.639	5.4
711.962	5.29
712.284	5.28
712.607	5.25
712.93	5.15
713.252	4.99
713.575	5.05
713.897	5.19
714.22	5.3
714.542	5.25
714.864	5.35
715.187	5.42
715.509	5.21
715.831	5.14
716.153	5.13
716.475	5.21
716.798	5.17
717.12	5.3
717.442	5.05
717.764	5.06
718.085	5.12
718.407	5.19
718.729	5.15
719.051	5.19
719.373	5.27
719.695	5.31
720.016	5.5
720.338	5.5
720.659	5.56
720.981	5.25
721.302	5.23
721.624	5.13
721.945	5.28
722.267	5.57
722.588	5.65
722.909	5.65
723.231	5.63
723.552	5.7
723.873	5.8
724.194	6.05
724.515	5.86
724.836	5.72
725.157	5.69
725.478	5.62
725.799	5.46
726.12	5.37
726.441	5.39
726.762	5.15
727.083	5.28
727.403	5.31
727.724	5.38
728.045	5.43
728.365	5.46
728.686	5.43
729.006	5.41
729.327	5.37
729.647	5.38
729.967	5.37
730.288	5.37
730.608	5.16
730.928	5.19
731.249	5.38
731.569	5.34
731.889	5.52
732.209	5.58
732.529	5.64
732.849	5.63
733.169	5.55
733.489	5.81
733.809	5.62
734.129	5.46
734.448	5.74
734.768	5.81
735.088	5.91
735.408	5.82
735.727	5.92
736.047	6.1
736.366	6.1
736.686	5.99
737.005	5.91
737.325	6.01
737.644	5.89
737.963	5.66
738.283	5.69
738.602	5.42
738.921	5.69
739.24	5.82
739.56	5.92
739.879	6.14
740.198	6.01
740.517	6.01
740.836	6.08
741.155	6.03
741.473	6.01
741.792	5.99
742.111	5.85
742.43	5.95
742.748	5.89
743.067	6
743.386	6.12
743.704	6.3
744.023	6.37
744.341	6.49
744.66	6.7
744.978	6.77
745.297	6.87
745.615	6.63
745.933	6.5
746.252	6.57
746.57	6.54
746.888	6.49
747.206	6.65
747.524	6.73
747.842	6.6
748.16	6.59
748.478	6.46
748.796	6.44
749.114	6
749.432	5.98
749.749	5.66
750.067	5.92
750.385	5.81
750.703	5.94
751.02	5.99
751.338	5.67
751.655	5.65
751.973	5.79
752.29	5.9
752.608	5.9
752.925	5.91
753.242	6.22
753.56	6.26
753.877	5.91
754.194	6.16
754.511	6.01
754.828	5.87
755.145	6.05
755.462	6.31
755.779	6.5
756.096	6.39
756.413	6.66
756.73	6.69
757.047	6.56
757.364	6.42
757.68	6.78
757.997	6.92
758.314	6.93
758.63	7.19
758.947	7.35
759.264	7.73
759.58	7.67
759.896	7.24
760.213	7.39
760.529	7.71
760.846	7.42
761.162	7.4
761.478	7.57
761.794	7.35
762.11	7.13
762.426	7.01
762.743	6.92
763.059	6.75
763.375	6.49
763.69	6.7
764.006	6.74
764.322	6.33
764.638	6.62
764.954	6.79
765.27	6.61
765.585	6.47
765.901	6.19
766.216	6
766.532	6.02
766.848	5.88
767.163	5.83
767.478	5.7
767.794	5.82
768.109	5.68
768.424	5.98
768.74	6.09
769.055	6.39
769.37	6.38
769.685	6.61
770	6.76
770.315	6.72
770.63	6.58
770.945	7.13
771.26	6.83
771.575	6.48
771.89	6.38
772.205	6.14
772.52	6.14
772.834	6.48
773.149	6.34
773.464	6.39
773.778	6.28
774.093	6.72
774.407	6.65
774.722	6.56
775.036	6.08
775.351	6.3
775.665	6.43
775.979	6.77
776.293	6.52
776.608	6.55
776.922	6.58
777.236	6.09
777.55	5.77
777.864	5.76
778.178	5.91
778.492	6.07
778.806	6.67
779.12	6.6
779.434	6.53
779.747	6.64
780.061	6.8
780.375	6.93
780.689	6.64
781.002	6.66
781.316	7.12
781.629	7.77
781.943	7.63
782.256	7.41
782.57	7.5
782.883	8.05
783.196	7.86
783.51	7.77
783.823	8.63
784.136	8.08
784.449	8.05
784.762	8.19
785.075	7.99
785.388	7.69
785.701	7.42
786.014	7.55
786.327	7.55
786.64	7.6
786.953	7.81
787.266	8.27
787.578	8.17
787.891	7.62
788.204	7.29
788.516	7.75
788.829	7.5
789.141	7.32
789.454	6.65
789.766	7.18
790.079	7.26
790.391	7.27
790.703	7.79
791.016	8.11
791.328	8.05
791.64	7.8
791.952	7.99
792.264	8.08
792.576	7.82
792.888	7.61
793.2	7.33
793.512	6.94
793.824	6.3
794.136	5.93
794.448	6.27
794.76	6.02
795.071	5.08
795.383	5.4
795.695	5.24
796.006	5.21
796.318	4.97
796.629	4.71
796.941	4.92
797.252	4.65
797.564	4.14
797.875	3.92
798.186	4.22
798.497	4.19
798.809	3.97
799.12	4
799.431	4.64
799.742	5.16
800.053	5.37
800.364	6.51
800.675	7.19
800.986	7.38
801.297	7.14
801.608	7.61
801.918	7.36
802.229	7.95
802.54	8.22
802.851	7.96
803.161	8.91
803.472	8.58
803.782	8.7
804.093	8.83
804.403	9.09
804.714	9.63
805.024	9.06
805.334	9.59
805.645	10.04
805.955	10.01
806.265	10.16
806.575	10.39
806.885	9.59
807.195	9.55
807.505	9.35
807.815	9.82
808.125	10.45
808.435	11.27
808.745	10.72
809.055	10.71
809.365	11.2
809.674	10.42
809.984	10.73
810.294	10.68
810.603	10.79
810.913	11.02
811.222	10.33
811.532	11.43
811.841	12.34
812.151	12.13
812.46	11.55
812.769	10.77
813.079	10.23
813.388	10.44
813.697	10.39
814.006	10.16
814.315	10.16
814.624	9.63
814.933	8.99
815.242	9.24
815.551	10.16
815.86	9.4
816.169	9.05
816.478	8.69
816.786	9.07
817.095	9.37
817.404	9.08
817.712	8.87
818.021	8.45
818.33	7.46
818.638	7.43
818.947	7.78
819.255	7.96
819.563	8.06
819.872	8.09
820.18	8.15
820.488	8.17
820.796	8.23
821.105	8.17
821.413	8.36
821.721	8.4
822.029	8.14
822.337	8.29
822.645	8.31
822.953	8.27
823.26	8.24
823.568	8.08
823.876	8.17
824.184	8.3
824.491	8.31
824.799	8.41
825.107	8.49
825.414	8.53
825.722	8.54
826.029	8.67
826.337	8.67
826.644	8.81
826.951	8.8
827.259	8.93
827.566	9.06
827.873	9
828.18	8.86
828.488	8.92
828.795	9.06
829.102	9.08
829.409	9.05
829.716	8.97
830.023	9.22
830.329	9.19
830.636	9.15
830.943	9.22
831.25	9.36
831.557	8.95
831.863	8.62
832.17	8.5
832.476	8.68
832.783	8.8
833.089	8.45
833.396	8.65
833.702	8.43
834.009	8.24
834.315	8.33
834.621	8.43
834.928	8.11
835.234	8.21
835.54	8.19
835.846	8.72
836.152	8.91
836.458	9.19
836.764	8.93
837.07	8.95
837.376	8.77
837.682	8.12
837.988	8.56
838.293	8.98
838.599	9.52
838.905	9.36
839.211	9.13
839.516	9.15
839.822	9.69
840.127	10.19
840.433	10.59
840.738	9.95
841.044	10.24
841.349	11.12
841.654	9.92
841.959	11.25
842.265	11.46
842.57	12.37
842.875	11.71
843.18	12.49
843.485	13.13
843.79	12.78
844.095	13.93
844.4	13.97
844.705	14.2
845.01	13.61
845.315	13.37
845.619	14.02
845.924	13.43
846.229	11.25
846.533	9.88
846.838	8.49
847.142	8.61
847.447	8.42
847.751	9.29
848.056	10.23
848.36	10.13
848.664	8.92
848.969	7.52
849.273	6.66
849.577	6.12
849.881	5.47
850.185	6.62
850.489	5.09
850.794	6.38
851.097	7.23
851.401	7.82
851.705	6.58
852.009	4.3
852.313	6.53
852.617	6.22
852.92	7.42
853.224	9.27
853.528	8.91
853.831	9.43
854.135	8.11
854.438	7.02
854.742	5.66
855.045	7.3
855.349	8.11
855.652	9.64
855.955	8.74
856.259	8.52
856.562	8.12
856.865	10.26
857.168	9.81
857.471	9.77
857.774	9.19
858.077	10.51
858.38	11.86
858.683	12.17
858.986	15.28
859.289	15.37
859.592	17.31
859.894	16.58
860.197	14.45
860.5	14.96
860.802	18.17
861.105	17.87
861.407	16.65
861.71	15.16
862.012	14.63
862.315	15.91
862.617	15.99
862.919	14.73
863.222	15.42
863.524	14.45
863.826	11.73
864.128	12.25
864.43	14.43
864.732	12.48
865.034	11.01
865.336	9.07
865.638	8.82
865.94	10.06
866.242	10.53
866.544	15.74
866.846	16.58
867.147	14.06
867.449	15.35
867.751	13.63
868.052	14.25
868.354	16.48
868.655	16.58
868.957	16.68
869.258	17.46
869.56	16.4
869.861	15.71
870.162	17.22
870.463	16.65
870.765	12.41
871.066	13.38
871.367	11.93
871.668	12.91
871.969	12.12
872.27	8.5
872.571	9.39
872.872	5.44
873.173	3.41
873.473	4.86
873.774	3.03
874.075	4.72
874.376	2.92
874.676	2.28
874.977	2.36
875.277	2.43
875.578	4.06
875.878	3.58
876.179	4.51
876.479	4.02
876.78	3.56
877.08	5.28
877.38	6.58
877.68	8.46
877.981	8.3
878.281	9.62
878.581	9.46
