Data from MVZ_BU163026_Reflection_00011.txt Node
Date: Tue Nov 19 12:06:09 EST 2019
User: vgr7
Spectrometer: USB2G7710
Scans to average: 3
Trigger mode: 4
Integration Time (sec): 2.000000E-2
Electric dark correction enabled: true
Boxcar width: 10
XAxis mode: Wavelengths
Number of Pixels in Spectrum: 2048
>>>>>Begin Spectral Data<<<<<
177.721	51.85
178.105	478.38
178.488	267.24
178.871	40.3
179.254	13.85
179.636	-18.3
180.019	-33.77
180.402	200
180.785	736.36
181.168	-56.25
181.55	1.48
181.933	77.53
182.316	0.63
182.698	16.54
183.081	48.56
183.463	106.13
183.846	86.09
184.228	55.2
184.611	55.24
184.993	18.86
185.376	30.1
185.758	0.36
186.14	-16.6
186.522	-22.91
186.904	10.67
187.287	10.59
187.669	17.03
188.051	21.55
188.433	14.65
188.815	20.56
189.197	44.18
189.579	64.21
189.961	56.29
190.342	74.13
190.724	91.55
191.106	54.12
191.488	44.14
191.869	89.49
192.251	64.48
192.633	138.74
193.014	206.63
193.396	111.93
193.777	139.5
194.159	360.22
194.54	1398.7
194.922	-5794.74
195.303	1164
195.684	759.9
196.065	755.17
196.447	-945.23
196.828	17372.73
197.209	1170.8
197.59	2539.02
197.971	2355.32
198.352	500.78
198.733	434.45
199.114	622.17
199.495	301.59
199.876	313.08
200.257	213.45
200.638	203.59
201.018	282.04
201.399	1593.51
201.78	1339.44
202.16	171.84
202.541	150.67
202.922	141.73
203.302	97.07
203.683	85.43
204.063	81.82
204.444	51.44
204.824	67.06
205.204	1137.74
205.585	1075.61
205.965	452.11
206.345	-74.09
206.725	-41.91
207.106	-79.97
207.486	-69.73
207.866	-30.97
208.246	-18.29
208.626	-37.79
209.006	-35.48
209.386	-55.34
209.766	-138.2
210.145	-58.24
210.525	-54.22
210.905	5.66
211.285	5.93
211.664	6.75
212.044	22.49
212.424	11.12
212.803	-8.68
213.183	-3.96
213.562	-39.91
213.942	-35.45
214.321	-61.73
214.701	-94.11
215.08	-94.08
215.459	-37.88
215.838	-38.69
216.218	-58.98
216.597	-73.23
216.976	-140.72
217.355	-66.48
217.734	-61.35
218.113	-48.67
218.492	-54.28
218.871	-66.05
219.25	-74.87
219.629	-118.49
220.008	-105.61
220.387	-123.11
220.766	-91.25
221.144	-87.54
221.523	-60.09
221.902	-82.75
222.28	-59.47
222.659	-17.74
223.037	-2.76
223.416	-12.33
223.794	-10.74
224.173	-16.61
224.551	-15.63
224.929	-10.35
225.308	-15.5
225.686	-12.64
226.064	-18.04
226.442	-11.8
226.821	-4.17
227.199	-7.93
227.577	-7.5
227.955	-3.61
228.333	-4.76
228.711	-4.82
229.089	1.9
229.467	-2.29
229.845	-2.35
230.222	0.48
230.6	-2.14
230.978	-3.83
231.356	-5.21
231.733	-3.24
232.111	-2.42
232.488	-2.3
232.866	-0.76
233.243	-0.02
233.621	0.88
233.998	2.09
234.376	2.46
234.753	2.95
235.13	2.43
235.508	2.79
235.885	2.74
236.262	1.87
236.639	2.82
237.016	-0.15
237.393	1.49
237.77	2.46
238.147	2.5
238.524	3
238.901	1.61
239.278	1.98
239.655	1.51
240.032	2.14
240.409	2.64
240.785	2.37
241.162	2.01
241.539	1.62
241.915	1.83
242.292	2.08
242.668	1.98
243.045	2.43
243.421	2.82
243.798	2.74
244.174	3.26
244.551	3.37
244.927	3.33
245.303	3.06
245.679	2.81
246.056	2.62
246.432	2.84
246.808	3.17
247.184	3.14
247.56	3.17
247.936	2.84
248.312	2.89
248.688	2.89
249.064	3.08
249.44	3.42
249.815	3.29
250.191	3.46
250.567	3.24
250.943	3.42
251.318	3.31
251.694	2.95
252.069	2.64
252.445	2.32
252.82	2.52
253.196	2.65
253.571	2.54
253.947	2.49
254.322	2.15
254.697	2.34
255.073	2.2
255.448	2.29
255.823	2.39
256.198	2.29
256.573	2.45
256.948	2.38
257.323	2.2
257.698	2.19
258.073	2.05
258.448	2.4
258.823	2.29
259.198	2.58
259.573	2.79
259.948	2.95
260.322	2.85
260.697	2.91
261.072	2.87
261.446	3.03
261.821	2.89
262.195	2.93
262.57	2.82
262.944	2.97
263.319	3.08
263.693	3.11
264.067	3.06
264.442	3.22
264.816	3.23
265.19	3.3
265.564	3.39
265.938	3.42
266.313	3.05
266.687	3.07
267.061	2.96
267.435	2.94
267.809	2.98
268.183	3.01
268.556	2.68
268.93	2.69
269.304	2.51
269.678	2.73
270.051	2.72
270.425	2.69
270.799	2.53
271.172	2.4
271.546	2.53
271.919	2.53
272.293	2.51
272.666	2.41
273.04	2.4
273.413	2.41
273.787	2.3
274.16	2.42
274.533	2.38
274.906	2.42
275.279	2.43
275.653	2.21
276.026	2.26
276.399	2.43
276.772	2.7
277.145	2.73
277.518	2.61
277.891	2.66
278.263	2.77
278.636	2.7
279.009	2.71
279.382	2.55
279.755	2.85
280.127	2.56
280.5	2.75
280.872	2.78
281.245	2.66
281.617	2.75
281.99	2.79
282.362	2.82
282.735	2.53
283.107	2.55
283.479	2.64
283.852	2.69
284.224	2.76
284.596	2.49
284.968	2.63
285.34	2.75
285.713	2.73
286.085	2.71
286.457	2.85
286.829	2.95
287.201	3.03
287.572	2.87
287.944	3.05
288.316	3.12
288.688	3.06
289.06	3.12
289.431	3.16
289.803	3.14
290.175	3.08
290.546	3.1
290.918	3.02
291.289	3.04
291.661	3.18
292.032	3.2
292.403	3.3
292.775	3.35
293.146	3.34
293.517	3.43
293.889	3.46
294.26	3.44
294.631	3.45
295.002	3.49
295.373	3.56
295.744	3.63
296.115	3.58
296.486	3.59
296.857	3.71
297.228	3.59
297.599	3.59
297.97	3.78
298.34	3.95
298.711	4.2
299.082	4.2
299.452	4.06
299.823	3.94
300.194	3.96
300.564	3.92
300.935	3.93
301.305	3.88
301.676	3.72
302.046	3.92
302.416	3.76
302.787	3.59
303.157	3.58
303.527	3.67
303.897	3.66
304.267	3.69
304.637	3.63
305.008	3.72
305.378	3.87
305.748	3.75
306.117	3.77
306.487	3.68
306.857	3.85
307.227	3.98
307.597	3.94
307.967	4.11
308.336	4.1
308.706	4.1
309.076	4.2
309.445	4.39
309.815	4.37
310.184	4.49
310.554	4.58
310.923	4.5
311.293	4.42
311.662	4.34
312.031	4.36
312.401	4.44
312.77	4.53
313.139	4.54
313.508	4.57
313.877	4.58
314.246	4.55
314.616	4.48
314.985	4.55
315.353	4.84
315.722	4.76
316.091	4.99
316.46	5.03
316.829	5.01
317.198	5.01
317.567	5.03
317.935	5.05
318.304	5.21
318.672	5.42
319.041	5.39
319.41	5.47
319.778	5.41
320.147	5.38
320.515	5.47
320.883	5.34
321.252	5.39
321.62	5.6
321.988	5.53
322.357	5.63
322.725	5.55
323.093	5.44
323.461	5.33
323.829	5.19
324.197	5.3
324.565	5.32
324.933	5.23
325.301	5.13
325.669	5.11
326.037	5.13
326.405	5.02
326.772	5.1
327.14	5.17
327.508	5.29
327.875	5.21
328.243	5.12
328.61	5.25
328.978	5.29
329.346	5.22
329.713	5.51
330.08	5.55
330.448	5.53
330.815	5.62
331.182	5.61
331.55	5.56
331.917	5.44
332.284	5.45
332.651	5.69
333.018	5.7
333.385	5.81
333.752	5.78
334.119	5.92
334.486	5.78
334.853	5.82
335.22	5.84
335.587	5.82
335.954	5.85
336.32	5.85
336.687	5.94
337.054	5.81
337.42	5.64
337.787	5.5
338.153	5.64
338.52	5.64
338.886	5.78
339.253	5.88
339.619	5.98
339.986	6.11
340.352	6.18
340.718	6.23
341.084	6.29
341.451	6.32
341.817	6.22
342.183	6.31
342.549	6.45
342.915	6.5
343.281	6.6
343.647	6.66
344.013	6.58
344.379	6.6
344.745	6.64
345.11	6.72
345.476	6.76
345.842	6.65
346.208	6.62
346.573	6.75
346.939	6.81
347.304	6.86
347.67	6.68
348.035	6.53
348.401	6.38
348.766	6.35
349.132	6.35
349.497	6.34
349.862	6.41
350.228	6.33
350.593	6.28
350.958	6.3
351.323	6.28
351.688	6.33
352.053	6.36
352.418	6.47
352.783	6.36
353.148	6.35
353.513	6.39
353.878	6.47
354.243	6.32
354.608	6.27
354.972	6.23
355.337	6.39
355.702	6.4
356.066	6.51
356.431	6.48
356.795	6.48
357.16	6.49
357.524	6.4
357.889	6.4
358.253	6.36
358.618	6.28
358.982	6.25
359.346	6.2
359.71	6.16
360.075	6.16
360.439	6.21
360.803	6.19
361.167	6.16
361.531	6.13
361.895	6.13
362.259	6.11
362.623	6.06
362.987	5.96
363.351	5.91
363.714	5.88
364.078	5.88
364.442	5.85
364.806	5.84
365.169	5.87
365.533	5.85
365.896	5.91
366.26	5.94
366.623	5.94
366.987	5.98
367.35	6
367.714	5.88
368.077	5.93
368.44	5.94
368.803	5.96
369.167	5.86
369.53	5.89
369.893	5.88
370.256	5.87
370.619	5.83
370.982	5.78
371.345	5.79
371.708	5.79
372.071	5.79
372.434	5.75
372.797	5.74
373.159	5.7
373.522	5.55
373.885	5.51
374.247	5.53
374.61	5.47
374.973	5.32
375.335	5.31
375.698	5.18
376.06	5.18
376.423	5.11
376.785	5.12
377.147	5.1
377.51	5.04
377.872	5.03
378.234	5.04
378.596	5.09
378.958	5.08
379.321	5
379.683	4.97
380.045	4.93
380.407	4.85
380.769	4.79
381.13	4.78
381.492	4.8
381.854	4.77
382.216	4.82
382.578	4.83
382.939	4.82
383.301	4.77
383.663	4.74
384.024	4.73
384.386	4.67
384.747	4.63
385.109	4.62
385.47	4.61
385.832	4.54
386.193	4.51
386.554	4.43
386.916	4.43
387.277	4.37
387.638	4.36
387.999	4.36
388.36	4.35
388.721	4.37
389.082	4.33
389.443	4.31
389.804	4.23
390.165	4.22
390.526	4.22
390.887	4.25
391.248	4.16
391.609	4.15
391.969	4.1
392.33	4.04
392.691	4.05
393.051	4
393.412	4.03
393.772	4.05
394.133	4.04
394.493	3.99
394.854	3.99
395.214	4.02
395.574	3.98
395.935	3.95
396.295	3.91
396.655	3.91
397.015	3.83
397.376	3.81
397.736	3.72
398.096	3.69
398.456	3.65
398.816	3.67
399.176	3.57
399.535	3.58
399.895	3.6
400.255	3.53
400.615	3.54
400.975	3.51
401.334	3.47
401.694	3.44
402.054	3.43
402.413	3.41
402.773	3.35
403.132	3.34
403.492	3.35
403.851	3.36
404.211	3.34
404.57	3.35
404.929	3.32
405.288	3.35
405.648	3.34
406.007	3.3
406.366	3.3
406.725	3.35
407.084	3.38
407.443	3.35
407.802	3.32
408.161	3.32
408.52	3.28
408.879	3.28
409.238	3.3
409.596	3.26
409.955	3.26
410.314	3.25
410.673	3.26
411.031	3.25
411.39	3.24
411.748	3.22
412.107	3.2
412.465	3.24
412.824	3.24
413.182	3.21
413.54	3.22
413.899	3.21
414.257	3.22
414.615	3.2
414.974	3.19
415.332	3.18
415.69	3.15
416.048	3.18
416.406	3.15
416.764	3.13
417.122	3.16
417.48	3.14
417.838	3.12
418.195	3.09
418.553	3.08
418.911	3.07
419.269	3.04
419.626	3.04
419.984	3
420.342	2.99
420.699	3
421.057	3.01
421.414	3.01
421.772	3
422.129	2.97
422.486	2.95
422.844	2.95
423.201	2.95
423.558	2.93
423.915	2.92
424.273	2.92
424.63	2.91
424.987	2.91
425.344	2.9
425.701	2.91
426.058	2.9
426.415	2.89
426.772	2.89
427.128	2.9
427.485	2.91
427.842	2.9
428.199	2.91
428.555	2.88
428.912	2.85
429.269	2.85
429.625	2.85
429.982	2.84
430.338	2.85
430.695	2.83
431.051	2.84
431.407	2.87
431.764	2.86
432.12	2.88
432.476	2.88
432.832	2.89
433.189	2.87
433.545	2.87
433.901	2.84
434.257	2.86
434.613	2.88
434.969	2.87
435.325	2.87
435.681	2.86
436.036	2.88
436.392	2.88
436.748	2.88
437.104	2.9
437.459	2.93
437.815	2.92
438.171	2.93
438.526	2.95
438.882	2.93
439.237	2.93
439.593	2.91
439.948	2.9
440.304	2.89
440.659	2.91
441.014	2.92
441.369	2.93
441.725	2.93
442.08	2.9
442.435	2.9
442.79	2.88
443.145	2.88
443.5	2.87
443.855	2.86
444.21	2.86
444.565	2.86
444.92	2.84
445.275	2.84
445.629	2.83
445.984	2.82
446.339	2.82
446.693	2.81
447.048	2.83
447.403	2.83
447.757	2.83
448.112	2.82
448.466	2.81
448.82	2.82
449.175	2.81
449.529	2.82
449.883	2.82
450.238	2.82
450.592	2.82
450.946	2.85
451.3	2.84
451.654	2.81
452.008	2.8
452.362	2.81
452.716	2.81
453.07	2.81
453.424	2.81
453.778	2.79
454.132	2.77
454.486	2.78
454.839	2.76
455.193	2.76
455.547	2.76
455.9	2.76
456.254	2.74
456.607	2.74
456.961	2.74
457.314	2.73
457.668	2.75
458.021	2.74
458.375	2.71
458.728	2.74
459.081	2.77
459.434	2.77
459.787	2.78
460.141	2.77
460.494	2.78
460.847	2.78
461.2	2.79
461.553	2.82
461.906	2.82
462.259	2.85
462.611	2.85
462.964	2.86
463.317	2.86
463.67	2.89
464.022	2.91
464.375	2.92
464.728	2.94
465.08	2.93
465.433	2.94
465.785	2.95
466.138	2.94
466.49	2.96
466.843	2.97
467.195	2.98
467.547	2.98
467.899	3.01
468.252	3.02
468.604	3.03
468.956	3.01
469.308	3
469.66	2.99
470.012	2.99
470.364	3
470.716	3.02
471.068	3.03
471.42	3.03
471.772	3.02
472.123	3.03
472.475	3.06
472.827	3.03
473.178	3.03
473.53	3.04
473.882	3.03
474.233	3.03
474.585	3.02
474.936	3.02
475.288	3.01
475.639	3.01
475.99	3.01
476.342	3.02
476.693	3.02
477.044	3.02
477.395	3.02
477.746	3.01
478.097	3.01
478.448	3
478.8	2.97
479.15	2.96
479.501	2.93
479.852	2.93
480.203	2.94
480.554	2.94
480.905	2.92
481.255	2.93
481.606	2.94
481.957	2.95
482.307	2.94
482.658	2.96
483.009	2.95
483.359	2.95
483.709	2.95
484.06	2.96
484.41	2.96
484.761	2.96
485.111	2.97
485.461	2.97
485.811	2.97
486.162	2.97
486.512	2.98
486.862	3.01
487.212	3.01
487.562	3.01
487.912	3.01
488.262	3.02
488.612	3.01
488.961	3.01
489.311	3.01
489.661	3.02
490.011	3.01
490.36	3.02
490.71	3.03
491.06	3.04
491.409	3.03
491.759	3.03
492.108	3.04
492.458	3.03
492.807	3.03
493.157	3.02
493.506	3.04
493.855	3.03
494.204	3.03
494.554	3.03
494.903	3.04
495.252	3.06
495.601	3.08
495.95	3.11
496.299	3.11
496.648	3.14
496.997	3.16
497.346	3.18
497.695	3.19
498.043	3.2
498.392	3.21
498.741	3.26
499.09	3.3
499.438	3.32
499.787	3.35
500.135	3.36
500.484	3.41
500.832	3.45
501.181	3.5
501.529	3.54
501.878	3.6
502.226	3.65
502.574	3.69
502.923	3.74
503.271	3.78
503.619	3.84
503.967	3.88
504.315	3.92
504.663	3.98
505.011	4.04
505.359	4.06
505.707	4.1
506.055	4.17
506.403	4.21
506.751	4.26
507.098	4.32
507.446	4.41
507.794	4.46
508.141	4.52
508.489	4.6
508.837	4.65
509.184	4.71
509.531	4.76
509.879	4.81
510.226	4.87
510.574	4.96
510.921	5.01
511.268	5.11
511.616	5.2
511.963	5.28
512.31	5.38
512.657	5.48
513.004	5.55
513.351	5.62
513.698	5.71
514.045	5.82
514.392	5.91
514.739	6
515.086	6.12
515.432	6.22
515.779	6.3
516.126	6.4
516.473	6.49
516.819	6.61
517.166	6.69
517.512	6.75
517.859	6.83
518.205	6.91
518.552	6.97
518.898	7.03
519.245	7.11
519.591	7.17
519.937	7.26
520.283	7.36
520.629	7.44
520.976	7.55
521.322	7.65
521.668	7.76
522.014	7.85
522.36	7.95
522.706	8.05
523.052	8.16
523.398	8.29
523.743	8.44
524.089	8.58
524.435	8.72
524.781	8.89
525.126	8.98
525.472	9.11
525.817	9.19
526.163	9.31
526.509	9.38
526.854	9.49
527.199	9.57
527.545	9.66
527.89	9.75
528.235	9.81
528.581	9.88
528.926	9.96
529.271	10.07
529.616	10.16
529.961	10.25
530.306	10.36
530.651	10.45
530.996	10.55
531.341	10.65
531.686	10.76
532.031	10.85
532.376	10.99
532.721	11.1
533.065	11.25
533.41	11.4
533.755	11.55
534.099	11.68
534.444	11.83
534.788	11.97
535.133	12.13
535.477	12.31
535.822	12.49
536.166	12.69
536.51	12.89
536.855	13.11
537.199	13.32
537.543	13.54
537.887	13.81
538.231	14.03
538.576	14.29
538.92	14.53
539.264	14.75
539.608	14.96
539.951	15.18
540.295	15.36
540.639	15.53
540.983	15.73
541.327	15.94
541.671	16.14
542.014	16.34
542.358	16.53
542.701	16.72
543.045	16.93
543.389	17.13
543.732	17.33
544.075	17.53
544.419	17.74
544.762	17.95
545.105	18.15
545.449	18.39
545.792	18.61
546.135	18.88
546.478	19.15
546.821	19.45
547.165	19.72
547.508	20.02
547.851	20.29
548.194	20.62
548.536	20.91
548.879	21.24
549.222	21.54
549.565	21.85
549.908	22.2
550.25	22.48
550.593	22.77
550.936	23.11
551.278	23.42
551.621	23.77
551.963	24.14
552.306	24.46
552.648	24.81
552.991	25.16
553.333	25.45
553.675	25.8
554.017	26.15
554.36	26.48
554.702	26.8
555.044	27.18
555.386	27.46
555.728	27.73
556.07	27.99
556.412	28.33
556.754	28.64
557.096	28.93
557.438	29.26
557.78	29.55
558.121	29.85
558.463	30.18
558.805	30.48
559.147	30.73
559.488	31.01
559.83	31.32
560.171	31.58
560.513	31.95
560.854	32.23
561.196	32.52
561.537	32.87
561.878	33.17
562.22	33.47
562.561	33.74
562.902	34.07
563.243	34.35
563.584	34.58
563.925	34.92
564.266	35.18
564.607	35.46
564.948	35.7
565.289	35.91
565.63	36.13
565.971	36.36
566.312	36.65
566.653	36.88
566.993	37.07
567.334	37.36
567.675	37.6
568.015	37.83
568.356	38.01
568.696	38.21
569.037	38.43
569.377	38.59
569.718	38.84
570.058	39.01
570.398	39.27
570.739	39.53
571.079	39.69
571.419	39.89
571.759	40.11
572.099	40.32
572.439	40.54
572.779	40.78
573.119	40.95
573.459	41.06
573.799	41.21
574.139	41.4
574.479	41.55
574.819	41.66
575.158	41.8
575.498	41.98
575.838	42.16
576.177	42.33
576.517	42.53
576.856	42.7
577.196	42.94
577.535	43.04
577.875	43.19
578.214	43.39
578.553	43.6
578.893	43.72
579.232	43.91
579.571	44.07
579.91	44.24
580.25	44.44
580.589	44.58
580.928	44.74
581.267	44.86
581.606	44.93
581.945	45.03
582.283	45.18
582.622	45.3
582.961	45.44
583.3	45.56
583.639	45.63
583.977	45.71
584.316	45.85
584.654	45.94
584.993	46.02
585.332	46.16
585.67	46.23
586.008	46.37
586.347	46.44
586.685	46.52
587.024	46.61
587.362	46.73
587.7	46.99
588.038	47.16
588.376	47.29
588.715	47.49
589.053	47.7
589.391	47.81
589.729	47.89
590.067	47.94
590.404	48.04
590.742	48.25
591.08	48.38
591.418	48.46
591.756	48.55
592.093	48.66
592.431	48.78
592.769	48.93
593.106	49.01
593.444	49.14
593.781	49.26
594.119	49.31
594.456	49.37
594.793	49.38
595.131	49.43
595.468	49.48
595.805	49.52
596.143	49.5
596.48	49.55
596.817	49.69
597.154	49.76
597.491	49.86
597.828	49.88
598.165	49.9
598.502	49.96
598.839	50.07
599.176	50.13
599.512	50.14
599.849	50.2
600.186	50.29
600.523	50.4
600.859	50.48
601.196	50.61
601.532	50.73
601.869	50.86
602.205	50.95
602.542	51.13
602.878	51.17
603.215	51.25
603.551	51.31
603.887	51.37
604.223	51.48
604.56	51.53
604.896	51.6
605.232	51.62
605.568	51.7
605.904	51.75
606.24	51.89
606.576	51.95
606.912	52
607.248	52.12
607.583	52.15
607.919	52.19
608.255	52.16
608.591	52.17
608.926	52.17
609.262	52.21
609.597	52.19
609.933	52.26
610.268	52.33
610.604	52.37
610.939	52.4
611.275	52.39
611.61	52.48
611.945	52.54
612.281	52.59
612.616	52.53
612.951	52.61
613.286	52.55
613.621	52.59
613.956	52.59
614.291	52.56
614.626	52.59
614.961	52.72
615.296	52.88
615.631	52.99
615.966	53.06
616.3	53.06
616.635	53.07
616.97	53.1
617.304	53.14
617.639	53.2
617.973	53.24
618.308	53.31
618.642	53.24
618.977	53.23
619.311	53.27
619.646	53.42
619.98	53.38
620.314	53.42
620.648	53.55
620.983	53.64
621.317	53.63
621.651	53.63
621.985	53.55
622.319	53.5
622.653	53.47
622.987	53.45
623.321	53.58
623.655	53.55
623.988	53.57
624.322	53.58
624.656	53.71
624.99	53.66
625.323	53.64
625.657	53.66
625.99	53.71
626.324	53.79
626.657	53.88
626.991	54.01
627.324	54.02
627.658	53.96
627.991	53.91
628.324	53.97
628.657	54.03
628.991	54.05
629.324	54.1
629.657	54.12
629.99	54.17
630.323	54.08
630.656	54.18
630.989	54.28
631.322	54.32
631.655	54.35
631.987	54.29
632.32	54.4
632.653	54.49
632.986	54.41
633.318	54.44
633.651	54.43
633.984	54.29
634.316	54.28
634.649	54.22
634.981	54.29
635.313	54.27
635.646	54.26
635.978	54.32
636.31	54.3
636.643	54.3
636.975	54.35
637.307	54.46
637.639	54.46
637.971	54.4
638.303	54.36
638.635	54.22
638.967	54.31
639.299	54.14
639.631	54.17
639.963	54.22
640.295	54.12
640.626	54.04
640.958	54.19
641.29	54.35
641.621	54.53
641.953	54.56
642.285	54.58
642.616	54.59
642.948	54.62
643.279	54.75
643.61	54.87
643.942	54.77
644.273	54.85
644.604	54.95
644.936	54.98
645.267	55.07
645.598	55.18
645.929	55.16
646.26	55.27
646.591	55.26
646.922	55.4
647.253	55.47
647.584	55.44
647.915	55.52
648.245	55.47
648.576	55.37
648.907	55.31
649.238	55.39
649.568	55.4
649.899	55.45
650.229	55.52
650.56	55.41
650.89	55.47
651.221	55.44
651.551	55.37
651.882	55.51
652.212	55.45
652.542	55.5
652.872	55.58
653.203	55.57
653.533	55.69
653.863	55.74
654.193	55.71
654.523	55.77
654.853	55.72
655.183	55.94
655.513	55.98
655.843	56.07
656.172	56.04
656.502	55.97
656.832	55.9
657.162	55.78
657.491	55.83
657.821	55.91
658.15	55.96
658.48	55.96
658.809	55.9
659.139	55.94
659.468	55.82
659.798	55.89
660.127	55.82
660.456	55.71
660.785	55.59
661.115	55.67
661.444	55.78
661.773	55.76
662.102	55.57
662.431	55.57
662.76	55.43
663.089	55.52
663.418	55.52
663.747	55.47
664.076	55.61
664.404	55.56
664.733	55.5
665.062	55.39
665.39	55.48
665.719	55.32
666.048	55.3
666.376	55.31
666.705	55.3
667.033	55.43
667.362	55.5
667.69	55.58
668.018	55.72
668.347	55.61
668.675	55.62
669.003	55.68
669.331	55.64
669.659	55.68
669.987	55.5
670.315	55.58
670.643	55.68
670.971	55.54
671.299	55.62
671.627	55.54
671.955	55.5
672.283	55.45
672.61	55.61
672.938	55.65
673.266	55.71
673.593	55.7
673.921	55.66
674.249	55.51
674.576	55.59
674.904	55.46
675.231	55.53
675.558	55.67
675.886	55.61
676.213	55.65
676.54	55.73
676.867	55.85
677.195	55.81
677.522	55.96
677.849	56.06
678.176	56.09
678.503	56.27
678.83	56.34
679.157	56.42
679.484	56.47
679.81	56.46
680.137	56.55
680.464	56.65
680.791	56.71
681.117	56.94
681.444	56.91
681.771	56.88
682.097	56.94
682.424	56.84
682.75	57
683.077	57.22
683.403	57.36
683.729	57.41
684.056	57.59
684.382	57.44
684.708	57.51
685.034	57.62
685.36	57.61
685.686	57.75
686.012	57.7
686.339	57.63
686.664	57.63
686.99	57.66
687.316	57.59
687.642	57.66
687.968	57.67
688.294	57.69
688.619	57.95
688.945	57.97
689.271	57.95
689.596	57.85
689.922	57.69
690.247	57.59
690.573	57.56
690.898	57.44
691.224	57.51
691.549	57.39
691.874	57.36
692.2	57.43
692.525	57.25
692.85	57.44
693.175	57.57
693.5	57.79
693.825	57.61
694.15	57.6
694.475	57.44
694.8	57.42
695.125	57.39
695.45	57.4
695.775	57.5
696.099	57.69
696.424	57.72
696.749	57.79
697.073	57.85
697.398	57.93
697.723	57.99
698.047	57.92
698.372	58.07
698.696	57.99
699.02	57.92
699.345	58.08
699.669	57.88
699.993	57.85
700.318	57.85
700.642	57.93
700.966	57.92
701.29	57.94
701.614	57.92
701.938	57.97
702.262	57.8
702.586	57.63
702.91	57.45
703.234	57.46
703.557	57.38
703.881	57.34
704.205	57.31
704.529	57.23
704.852	57.29
705.176	57.14
705.499	57.06
705.823	57.28
706.146	57.23
706.47	57.39
706.793	57.37
707.117	57.29
707.44	57.35
707.763	57.36
708.086	57.51
708.409	57.39
708.733	57.38
709.056	57.5
709.379	57.59
709.702	57.55
710.025	57.38
710.348	57.37
710.671	57.41
710.993	57.54
711.316	57.73
711.639	57.71
711.962	57.72
712.284	57.77
712.607	57.73
712.93	57.64
713.252	57.68
713.575	57.58
713.897	57.64
714.22	57.58
714.542	57.62
714.864	57.59
715.187	57.54
715.509	57.52
715.831	57.36
716.153	57.5
716.475	57.74
716.798	57.99
717.12	58.11
717.442	58.07
717.764	57.8
718.085	57.84
718.407	57.59
718.729	57.69
719.051	57.9
719.373	57.8
719.695	57.89
720.016	57.72
720.338	57.76
720.659	57.79
720.981	57.65
721.302	57.75
721.624	57.62
721.945	57.94
722.267	58
722.588	58.14
722.909	57.86
723.231	57.78
723.552	57.7
723.873	57.68
724.194	57.7
724.515	57.87
724.836	57.68
725.157	58.06
725.478	58.27
725.799	57.94
726.12	58.12
726.441	58.11
726.762	58.45
727.083	58.66
727.403	58.61
727.724	58.92
728.045	58.77
728.365	58.95
728.686	58.74
729.006	58.79
729.327	58.84
729.647	58.96
729.967	58.61
730.288	58.7
730.608	58.62
730.928	58.75
731.249	58.8
731.569	58.91
731.889	58.93
732.209	58.63
732.529	58.64
732.849	58.43
733.169	58.4
733.489	58.2
733.809	58.18
734.129	58.1
734.448	58.11
734.768	58.24
735.088	58.18
735.408	58.41
735.727	58.39
736.047	58.25
736.366	58.18
736.686	58.56
737.005	58.54
737.325	58.79
737.644	58.74
737.963	58.54
738.283	58.49
738.602	58.42
738.921	58.4
739.24	58.35
739.56	58.3
739.879	58.27
740.198	58.17
740.517	58.32
740.836	58.32
741.155	58.23
741.473	58.28
741.792	58.58
742.111	58.26
742.43	58.17
742.748	58.28
743.067	58.61
743.386	58.54
743.704	58.59
744.023	58.43
744.341	58.3
744.66	58.6
744.978	58.5
745.297	58.51
745.615	58.84
745.933	59.51
746.252	59.66
746.57	59.75
746.888	59.86
747.206	59.81
747.524	59.83
747.842	59.72
748.16	59.64
748.478	59.52
748.796	59.54
749.114	59.47
749.432	59.3
749.749	58.89
750.067	58.77
750.385	59.05
750.703	59.33
751.02	59.69
751.338	59.4
751.655	59.84
751.973	59.81
752.29	59.51
752.608	59.06
752.925	58.84
753.242	59.22
753.56	59.56
753.877	59.37
754.194	59.56
754.511	59.44
754.828	59.52
755.145	59.63
755.462	59.82
755.779	60.06
756.096	60.74
756.413	60.92
756.73	61.47
757.047	60.97
757.364	60.77
757.68	60.21
757.997	60.25
758.314	60.09
758.63	60.35
758.947	60.91
759.264	61.05
759.58	61.3
759.896	61.08
760.213	60.95
760.529	61.06
760.846	61.26
761.162	61.68
761.478	61.36
761.794	61.14
762.11	61.36
762.426	61.07
762.743	60.89
763.059	60.9
763.375	60.49
763.69	60.77
764.006	60.81
764.322	60.94
764.638	61.03
764.954	61.02
765.27	61
765.585	60.66
765.901	60.66
766.216	60.55
766.532	60.67
766.848	60.59
767.163	60.51
767.478	60.22
767.794	59.98
768.109	60.15
768.424	60.11
768.74	60.31
769.055	60.64
769.37	61
769.685	61.03
770	61.19
770.315	60.93
770.63	60.93
770.945	61.45
771.26	61.66
771.575	61.42
771.89	62.03
772.205	62.25
772.52	62.11
772.834	62.08
773.149	61.87
773.464	61.74
773.778	61.3
774.093	61.37
774.407	61.75
774.722	62.13
775.036	61.92
775.351	61.69
775.665	62.02
775.979	61.17
776.293	61
776.608	61.06
776.922	60.68
777.236	60.47
777.55	60.3
777.864	60.57
778.178	60.87
778.492	60.3
778.806	60.44
779.12	60.83
779.434	61.37
779.747	61.3
780.061	61.71
780.375	62.35
780.689	62.18
781.002	61.51
781.316	61.26
781.629	61.37
781.943	61.18
782.256	60.62
782.57	60.69
782.883	60.86
783.196	61.28
783.51	61.72
783.823	61.79
784.136	61.22
784.449	60.55
784.762	60.57
785.075	60.05
785.388	59.54
785.701	59.3
786.014	59.46
786.327	59.79
786.64	59.94
786.953	60.01
787.266	60.91
787.578	61.32
787.891	61.17
788.204	61.7
788.516	61.78
788.829	61.87
789.141	62.2
789.454	62.61
789.766	62.38
790.079	62.26
790.391	62.4
790.703	62.82
791.016	63.04
791.328	62.65
791.64	63.05
791.952	63.45
792.264	63.37
792.576	62.85
792.888	62.6
793.2	62.09
793.512	61.46
793.824	60.82
794.136	60.44
794.448	60.32
794.76	59.63
795.071	59.01
795.383	58.95
795.695	58.98
796.006	58.46
796.318	58.14
796.629	58.23
796.941	57.97
797.252	57.65
797.564	57.56
797.875	57.81
798.186	57.39
798.497	57.14
798.809	57.12
799.12	57.17
799.431	57.47
799.742	58.29
800.053	58.59
800.364	58.62
800.675	59.19
800.986	59.67
801.297	59.92
801.608	60.22
801.918	60.54
802.229	60.21
802.54	60.62
802.851	60.96
803.161	61.41
803.472	62.14
803.782	62.36
804.093	62.39
804.403	62.17
804.714	63.13
805.024	63.99
805.334	64.26
805.645	64.58
805.955	64.28
806.265	63.17
806.575	63.46
806.885	63.57
807.195	63.24
807.505	63.12
807.815	63.6
808.125	63.78
808.435	63.78
808.745	63.79
809.055	63.4
809.365	63.54
809.674	64.75
809.984	63.24
810.294	62.53
810.603	61.92
810.913	62.14
811.222	60.78
811.532	60.73
811.841	60.58
812.151	60.15
812.46	60.08
812.769	60.57
813.079	60.27
813.388	60.56
813.697	60.54
814.006	60.34
814.315	59.81
814.624	60.6
814.933	59.61
815.242	60.01
815.551	60.02
815.86	59.57
816.169	57.51
816.478	58.05
816.786	58.63
817.095	59.45
817.404	59.83
817.712	60.44
818.021	59.68
818.33	60
818.638	60.54
818.947	60.96
819.255	60.43
819.563	61.19
819.872	60.83
820.18	60.81
820.488	60.71
820.796	60.99
821.105	60.51
821.413	61.25
821.721	61.15
822.029	61.29
822.337	61.55
822.645	61.66
822.953	61.69
823.26	61.57
823.568	61.42
823.876	61.3
824.184	61.3
824.491	61.4
824.799	61.27
825.107	61.26
825.414	60.93
825.722	61.19
826.029	60.87
826.337	60.92
826.644	61.2
826.951	61.46
827.259	61.35
827.566	61.49
827.873	61.36
828.18	61.29
828.488	60.99
828.795	60.87
829.102	60.78
829.409	61.01
829.716	61.45
830.023	61.85
830.329	62.12
830.636	62.11
830.943	62.04
831.25	62.09
831.557	62
831.863	62.81
832.17	62.61
832.476	62.7
832.783	62.68
833.089	62.23
833.396	61.98
833.702	62.41
834.009	62.78
834.315	62.24
834.621	62.1
834.928	62.55
835.234	62.55
835.54	62.51
835.846	62.58
836.152	62.3
836.458	62.71
836.764	62.77
837.07	62.9
837.376	63.34
837.682	63.39
837.988	63.14
838.293	62.99
838.599	63.54
838.905	63.86
839.211	64.55
839.516	64.85
839.822	65.54
840.127	64.13
840.433	64.27
840.738	64.11
841.044	64.2
841.349	64.12
841.654	63.05
841.959	62.81
842.265	62.12
842.57	61.49
842.875	60.76
843.18	60.34
843.485	62.33
843.79	62.06
844.095	62.33
844.4	63.08
844.705	63.5
845.01	61.76
845.315	61.2
845.619	60.29
845.924	60.01
846.229	59.07
846.533	60.04
846.838	60.04
847.142	60.15
847.447	61.6
847.751	63.16
848.056	64
848.36	63.1
848.664	62.75
848.969	66.97
849.273	65.68
849.577	65.63
849.881	64.18
850.185	62.41
850.489	64.55
850.794	65.22
851.097	61.81
851.401	65.98
851.705	66.29
852.009	64.75
852.313	64.5
852.617	63.83
852.92	65.94
853.224	63.71
853.528	66.09
853.831	63.95
854.135	61.19
854.438	59.2
854.742	61.49
855.045	62.36
855.349	57.58
855.652	58.73
855.955	60.45
856.259	59.72
856.562	61.75
856.865	59.38
857.168	57.8
857.471	62.01
857.774	61.81
858.077	57.85
858.38	63.3
858.683	64.1
858.986	62.64
859.289	61.69
859.592	64.57
859.894	62.92
860.197	64.42
860.5	66.21
860.802	70.17
861.105	68.55
861.407	70.95
861.71	75.17
862.012	74.39
862.315	74.45
862.617	71.71
862.919	70.39
863.222	70.52
863.524	69.63
863.826	69.19
864.128	63.62
864.43	68.03
864.732	64.05
865.034	64.48
865.336	66.79
865.638	65.77
865.94	65.43
866.242	67.47
866.544	69.93
866.846	69.99
867.147	69.87
867.449	74.07
867.751	67.02
868.052	63.4
868.354	63.7
868.655	64.65
868.957	67.43
869.258	68.03
869.56	68.5
869.861	69.61
870.162	67.57
870.463	70.45
870.765	74.19
871.066	73.46
871.367	74.29
871.668	74.98
871.969	76.86
872.27	77.65
872.571	75.69
872.872	72.95
873.173	72.87
873.473	73.14
873.774	70.77
874.075	77.17
874.376	80.07
874.676	78.11
874.977	70.69
875.277	68.63
875.578	70.58
875.878	71.76
876.179	72.82
876.479	74.69
876.78	76.41
877.08	72.58
877.38	74.14
877.68	71.56
877.981	69.77
878.281	69.59
878.581	66.37
