Data from MVZ_BU26842_Reflection_00004.txt Node
Date: Tue Nov 19 12:18:18 EST 2019
User: vgr7
Spectrometer: USB2G7710
Scans to average: 3
Trigger mode: 4
Integration Time (sec): 2.000000E-2
Electric dark correction enabled: true
Boxcar width: 10
XAxis mode: Wavelengths
Number of Pixels in Spectrum: 2048
>>>>>Begin Spectral Data<<<<<
177.721	82.84
178.105	-177.78
178.488	204.17
178.871	18.52
179.254	550
179.636	-733.33
180.019	2.78
180.402	-9.09
180.785	194.44
181.168	-66.67
181.55	-19.79
181.933	-5.07
182.316	19.17
182.698	-36.63
183.081	-65.76
183.463	-275
183.846	263.79
184.228	516.67
184.611	79.91
184.993	43.06
185.376	35.92
185.758	35.99
186.14	48.21
186.522	51.99
186.904	43.75
187.287	6.25
187.669	3.75
188.051	7.53
188.433	5.93
188.815	-13.52
189.197	-19.96
189.579	-23.8
189.961	-35.38
190.342	-29.4
190.724	-58.61
191.106	-71.16
191.488	-108.84
191.869	-187.97
192.251	-201.95
192.633	-212.5
193.014	-253.17
193.396	-231.4
193.777	-162.93
194.159	-74.63
194.54	-55.59
194.922	-90.37
195.303	-103.13
195.684	-119.7
196.065	-104.86
196.447	-99.58
196.828	-62.31
197.209	-55.11
197.59	-17.19
197.971	-9.88
198.352	7.51
198.733	14.45
199.114	21.21
199.495	10.23
199.876	-13.22
200.257	-28.4
200.638	-15.84
201.018	-23.05
201.399	-32.95
201.78	-33.46
202.16	-43.57
202.541	-48.98
202.922	-49.01
203.302	-44.18
203.683	-46.88
204.063	-45.65
204.444	-34.91
204.824	-44.81
205.204	-49.18
205.585	-70.35
205.965	-71.18
206.345	-95.92
206.725	-108.92
207.106	-64.25
207.486	-74.26
207.866	-54.39
208.246	-31.27
208.626	-57.93
209.006	-72.12
209.386	-73.59
209.766	-59.17
210.145	-59.3
210.525	-68.55
210.905	-54.15
211.285	-53.11
211.664	-47.01
212.044	-41.15
212.424	-42.98
212.803	-49.8
213.183	-51.82
213.562	-29.81
213.942	-25
214.321	-24.49
214.701	-36.08
215.08	-59.6
215.459	-18.33
215.838	-21.54
216.218	-59.84
216.597	-33.58
216.976	-8.52
217.355	0.82
217.734	-5.35
218.113	11.49
218.492	24.72
218.871	42.39
219.25	58.33
219.629	60.6
220.008	45.51
220.387	53.57
220.766	57.58
221.144	69.67
221.523	39.3
221.902	48.31
222.28	55.65
222.659	79.1
223.037	81.09
223.416	43.57
223.794	43.45
224.173	38.39
224.551	39.57
224.929	24.57
225.308	18.67
225.686	14.37
226.064	12.58
226.442	6.97
226.821	4.08
227.199	-0.65
227.577	2.2
227.955	1.12
228.333	-3.25
228.711	-5.64
229.089	-0.81
229.467	0.25
229.845	-7.64
230.222	-9.63
230.6	-12.61
230.978	-12.22
231.356	-10.89
231.733	-13.62
232.111	-11.44
232.488	-11.73
232.866	-8.35
233.243	-10.04
233.621	-7.5
233.998	-7.65
234.376	-6.37
234.753	-5.83
235.13	-4.97
235.508	-6.2
235.885	-6
236.262	-3.82
236.639	-3.28
237.016	-3.84
237.393	-0.69
237.77	3.38
238.147	3.01
238.524	2.97
238.901	2.34
239.278	2.25
239.655	3.13
240.032	3.14
240.409	3.89
240.785	3.39
241.162	3.64
241.539	3.1
241.915	3.06
242.292	3.16
242.668	3.03
243.045	3.37
243.421	3.68
243.798	4.02
244.174	3.78
244.551	3.68
244.927	3.93
245.303	3.31
245.679	3
246.056	3.24
246.432	3.18
246.808	3.31
247.184	3.67
247.56	3.49
247.936	3.69
248.312	3.41
248.688	3.55
249.064	3.38
249.44	3.23
249.815	3.36
250.191	3.56
250.567	3.46
250.943	3.54
251.318	3.42
251.694	3.12
252.069	3.57
252.445	3.73
252.82	3.48
253.196	3.52
253.571	3.82
253.947	3.95
254.322	4.3
254.697	4.38
255.073	3.98
255.448	3.91
255.823	3.82
256.198	3.93
256.573	3.73
256.948	3.89
257.323	4.23
257.698	4.1
258.073	3.75
258.448	3.74
258.823	3.46
259.198	3.44
259.573	3.51
259.948	3.49
260.322	3.32
260.697	3.64
261.072	3.85
261.446	3.89
261.821	3.8
262.195	3.75
262.57	3.82
262.944	3.95
263.319	4.07
263.693	3.85
264.067	3.99
264.442	4.23
264.816	4.26
265.19	4.09
265.564	4.16
265.938	4.48
266.313	4.6
266.687	4.72
267.061	5
267.435	5.03
267.809	4.69
268.183	4.65
268.556	4.44
268.93	4.49
269.304	4.21
269.678	4.08
270.051	4.14
270.425	3.97
270.799	4.01
271.172	4.04
271.546	4.15
271.919	3.93
272.293	3.86
272.666	3.96
273.04	3.98
273.413	3.86
273.787	3.71
274.16	3.6
274.533	3.67
274.906	3.63
275.279	3.69
275.653	3.89
276.026	3.96
276.399	3.95
276.772	3.75
277.145	3.76
277.518	3.87
277.891	3.67
278.263	3.62
278.636	3.71
279.009	3.76
279.382	3.69
279.755	3.77
280.127	3.67
280.5	3.59
280.872	3.55
281.245	3.5
281.617	3.55
281.99	3.65
282.362	3.65
282.735	3.59
283.107	3.42
283.479	3.33
283.852	3.43
284.224	3.41
284.596	3.56
284.968	3.63
285.34	3.62
285.713	3.74
286.085	3.94
286.457	3.78
286.829	3.64
287.201	3.61
287.572	3.65
287.944	3.69
288.316	3.82
288.688	3.86
289.06	3.98
289.431	4.15
289.803	4.15
290.175	4.07
290.546	4.18
290.918	4.46
291.289	4.42
291.661	4.24
292.032	4.23
292.403	4.1
292.775	4.07
293.146	4.06
293.517	4.07
293.889	3.95
294.26	3.98
294.631	4.02
295.002	4.06
295.373	4.1
295.744	4.1
296.115	4
296.486	4.06
296.857	3.93
297.228	3.66
297.599	3.64
297.97	3.74
298.34	3.73
298.711	3.62
299.082	3.72
299.452	3.82
299.823	3.76
300.194	3.79
300.564	3.69
300.935	3.78
301.305	3.69
301.676	3.67
302.046	3.75
302.416	3.66
302.787	3.59
303.157	3.59
303.527	3.54
303.897	3.37
304.267	3.33
304.637	3.42
305.008	3.58
305.378	3.62
305.748	3.5
306.117	3.37
306.487	3.42
306.857	3.32
307.227	3.43
307.597	3.54
307.967	3.6
308.336	3.59
308.706	3.52
309.076	3.72
309.445	3.84
309.815	3.86
310.184	3.94
310.554	3.97
310.923	3.92
311.293	3.94
311.662	4.1
312.031	4.03
312.401	4.02
312.77	3.95
313.139	3.89
313.508	3.87
313.877	3.76
314.246	3.47
314.616	3.64
314.985	3.57
315.353	3.52
315.722	3.6
316.091	3.7
316.46	3.82
316.829	3.64
317.198	3.47
317.567	3.47
317.935	3.41
318.304	3.64
318.672	3.72
319.041	3.68
319.41	3.6
319.778	3.87
320.147	3.95
320.515	3.95
320.883	3.86
321.252	3.86
321.62	3.85
321.988	3.99
322.357	3.92
322.725	3.92
323.093	3.9
323.461	3.92
323.829	3.89
324.197	3.81
324.565	3.88
324.933	4.05
325.301	3.85
325.669	3.85
326.037	3.79
326.405	3.74
326.772	3.83
327.14	3.74
327.508	3.55
327.875	3.55
328.243	3.53
328.61	3.52
328.978	3.49
329.346	3.57
329.713	3.72
330.08	3.65
330.448	3.5
330.815	3.48
331.182	3.41
331.55	3.36
331.917	3.24
332.284	3.28
332.651	3.19
333.018	3.27
333.385	3.16
333.752	3.19
334.119	3.27
334.486	3.09
334.853	3.14
335.22	3.16
335.587	3.22
335.954	3.2
336.32	3.32
336.687	3.42
337.054	3.35
337.42	3.28
337.787	3.27
338.153	3.33
338.52	3.33
338.886	3.25
339.253	3.33
339.619	3.43
339.986	3.46
340.352	3.42
340.718	3.43
341.084	3.56
341.451	3.48
341.817	3.43
342.183	3.45
342.549	3.48
342.915	3.45
343.281	3.32
343.647	3.37
344.013	3.32
344.379	3.18
344.745	3.26
345.11	3.32
345.476	3.34
345.842	3.37
346.208	3.44
346.573	3.55
346.939	3.57
347.304	3.52
347.67	3.41
348.035	3.39
348.401	3.32
348.766	3.22
349.132	3.22
349.497	3.24
349.862	3.2
350.228	3.26
350.593	3.28
350.958	3.33
351.323	3.26
351.688	3.34
352.053	3.42
352.418	3.39
352.783	3.35
353.148	3.31
353.513	3.28
353.878	3.22
354.243	3.07
354.608	3.02
354.972	3.09
355.337	3.17
355.702	3.16
356.066	3.23
356.431	3.23
356.795	3.22
357.16	3.24
357.524	3.35
357.889	3.18
358.253	3.16
358.618	3.14
358.982	3.16
359.346	3.13
359.71	3.11
360.075	3.11
360.439	3.1
360.803	3.12
361.167	3.12
361.531	3.15
361.895	3.15
362.259	3.21
362.623	3.17
362.987	3.11
363.351	3.1
363.714	3.07
364.078	3.16
364.442	3.11
364.806	3.08
365.169	3.07
365.533	3.19
365.896	3.2
366.26	3.18
366.623	3.18
366.987	3.18
367.35	3.2
367.714	3.18
368.077	3.19
368.44	3.21
368.803	3.19
369.167	3.09
369.53	3.2
369.893	3.16
370.256	3.16
370.619	3.19
370.982	3.18
371.345	3.21
371.708	3.13
372.071	3.19
372.434	3.24
372.797	3.2
373.159	3.17
373.522	3.15
373.885	3.22
374.247	3.24
374.61	3.23
374.973	3.28
375.335	3.3
375.698	3.32
376.06	3.32
376.423	3.35
376.785	3.46
377.147	3.36
377.51	3.37
377.872	3.35
378.234	3.4
378.596	3.46
378.958	3.46
379.321	3.52
379.683	3.5
380.045	3.43
380.407	3.5
380.769	3.54
381.13	3.55
381.492	3.48
381.854	3.48
382.216	3.51
382.578	3.53
382.939	3.56
383.301	3.53
383.663	3.55
384.024	3.55
384.386	3.5
384.747	3.53
385.109	3.53
385.47	3.56
385.832	3.47
386.193	3.42
386.554	3.37
386.916	3.34
387.277	3.32
387.638	3.36
387.999	3.35
388.36	3.36
388.721	3.38
389.082	3.45
389.443	3.43
389.804	3.43
390.165	3.4
390.526	3.38
390.887	3.38
391.248	3.37
391.609	3.43
391.969	3.41
392.33	3.38
392.691	3.35
393.051	3.4
393.412	3.47
393.772	3.49
394.133	3.51
394.493	3.49
394.854	3.52
395.214	3.5
395.574	3.45
395.935	3.42
396.295	3.4
396.655	3.4
397.015	3.43
397.376	3.4
397.736	3.37
398.096	3.36
398.456	3.35
398.816	3.34
399.176	3.28
399.535	3.3
399.895	3.32
400.255	3.36
400.615	3.33
400.975	3.33
401.334	3.31
401.694	3.32
402.054	3.33
402.413	3.35
402.773	3.34
403.132	3.37
403.492	3.37
403.851	3.36
404.211	3.34
404.57	3.34
404.929	3.34
405.288	3.36
405.648	3.37
406.007	3.38
406.366	3.36
406.725	3.36
407.084	3.35
407.443	3.35
407.802	3.31
408.161	3.31
408.52	3.31
408.879	3.33
409.238	3.33
409.596	3.35
409.955	3.29
410.314	3.28
410.673	3.29
411.031	3.28
411.39	3.29
411.748	3.28
412.107	3.27
412.465	3.3
412.824	3.29
413.182	3.28
413.54	3.31
413.899	3.33
414.257	3.34
414.615	3.35
414.974	3.37
415.332	3.38
415.69	3.35
416.048	3.37
416.406	3.35
416.764	3.37
417.122	3.36
417.48	3.36
417.838	3.37
418.195	3.38
418.553	3.39
418.911	3.38
419.269	3.4
419.626	3.39
419.984	3.39
420.342	3.4
420.699	3.4
421.057	3.38
421.414	3.38
421.772	3.38
422.129	3.38
422.486	3.37
422.844	3.39
423.201	3.4
423.558	3.39
423.915	3.4
424.273	3.4
424.63	3.39
424.987	3.42
425.344	3.42
425.701	3.41
426.058	3.4
426.415	3.41
426.772	3.4
427.128	3.4
427.485	3.38
427.842	3.37
428.199	3.39
428.555	3.39
428.912	3.4
429.269	3.39
429.625	3.38
429.982	3.39
430.338	3.39
430.695	3.39
431.051	3.4
431.407	3.4
431.764	3.4
432.12	3.42
432.476	3.42
432.832	3.43
433.189	3.44
433.545	3.45
433.901	3.46
434.257	3.47
434.613	3.47
434.969	3.49
435.325	3.5
435.681	3.48
436.036	3.48
436.392	3.46
436.748	3.49
437.104	3.51
437.459	3.49
437.815	3.5
438.171	3.5
438.526	3.5
438.882	3.48
439.237	3.47
439.593	3.47
439.948	3.46
440.304	3.45
440.659	3.45
441.014	3.44
441.369	3.44
441.725	3.44
442.08	3.44
442.435	3.44
442.79	3.44
443.145	3.45
443.5	3.44
443.855	3.45
444.21	3.44
444.565	3.42
444.92	3.44
445.275	3.43
445.629	3.44
445.984	3.42
446.339	3.44
446.693	3.44
447.048	3.45
447.403	3.45
447.757	3.44
448.112	3.43
448.466	3.43
448.82	3.41
449.175	3.42
449.529	3.43
449.883	3.43
450.238	3.44
450.592	3.45
450.946	3.46
451.3	3.48
451.654	3.48
452.008	3.49
452.362	3.48
452.716	3.48
453.07	3.47
453.424	3.49
453.778	3.49
454.132	3.49
454.486	3.5
454.839	3.52
455.193	3.52
455.547	3.52
455.9	3.51
456.254	3.53
456.607	3.55
456.961	3.55
457.314	3.57
457.668	3.55
458.021	3.53
458.375	3.53
458.728	3.52
459.081	3.53
459.434	3.52
459.787	3.54
460.141	3.55
460.494	3.57
460.847	3.58
461.2	3.57
461.553	3.57
461.906	3.57
462.259	3.56
462.611	3.56
462.964	3.59
463.317	3.61
463.67	3.61
464.022	3.58
464.375	3.58
464.728	3.54
465.08	3.56
465.433	3.57
465.785	3.59
466.138	3.6
466.49	3.59
466.843	3.6
467.195	3.6
467.547	3.61
467.899	3.59
468.252	3.58
468.604	3.57
468.956	3.57
469.308	3.54
469.66	3.58
470.012	3.58
470.364	3.58
470.716	3.56
471.068	3.56
471.42	3.59
471.772	3.61
472.123	3.64
472.475	3.65
472.827	3.68
473.178	3.69
473.53	3.7
473.882	3.7
474.233	3.68
474.585	3.66
474.936	3.64
475.288	3.65
475.639	3.65
475.99	3.67
476.342	3.68
476.693	3.71
477.044	3.71
477.395	3.71
477.746	3.7
478.097	3.7
478.448	3.69
478.8	3.66
479.15	3.63
479.501	3.62
479.852	3.6
480.203	3.6
480.554	3.58
480.905	3.58
481.255	3.58
481.606	3.59
481.957	3.6
482.307	3.61
482.658	3.62
483.009	3.62
483.359	3.62
483.709	3.62
484.06	3.62
484.41	3.62
484.761	3.63
485.111	3.64
485.461	3.64
485.811	3.65
486.162	3.65
486.512	3.66
486.862	3.66
487.212	3.67
487.562	3.66
487.912	3.66
488.262	3.67
488.612	3.67
488.961	3.69
489.311	3.69
489.661	3.68
490.011	3.67
490.36	3.66
490.71	3.67
491.06	3.67
491.409	3.66
491.759	3.65
492.108	3.63
492.458	3.63
492.807	3.63
493.157	3.65
493.506	3.68
493.855	3.68
494.204	3.7
494.554	3.7
494.903	3.72
495.252	3.73
495.601	3.73
495.95	3.73
496.299	3.74
496.648	3.71
496.997	3.72
497.346	3.74
497.695	3.75
498.043	3.78
498.392	3.8
498.741	3.81
499.09	3.83
499.438	3.85
499.787	3.86
500.135	3.88
500.484	3.85
500.832	3.82
501.181	3.83
501.529	3.83
501.878	3.81
502.226	3.84
502.574	3.82
502.923	3.84
503.271	3.83
503.619	3.84
503.967	3.84
504.315	3.85
504.663	3.85
505.011	3.84
505.359	3.8
505.707	3.77
506.055	3.76
506.403	3.76
506.751	3.74
507.098	3.73
507.446	3.73
507.794	3.74
508.141	3.76
508.489	3.73
508.837	3.7
509.184	3.72
509.531	3.68
509.879	3.69
510.226	3.68
510.574	3.69
510.921	3.67
511.268	3.67
511.616	3.69
511.963	3.68
512.31	3.7
512.657	3.71
513.004	3.72
513.351	3.74
513.698	3.74
514.045	3.76
514.392	3.74
514.739	3.73
515.086	3.73
515.432	3.73
515.779	3.76
516.126	3.79
516.473	3.79
516.819	3.82
517.166	3.82
517.512	3.82
517.859	3.82
518.205	3.83
518.552	3.84
518.898	3.83
519.245	3.84
519.591	3.84
519.937	3.85
520.283	3.87
520.629	3.87
520.976	3.87
521.322	3.88
521.668	3.9
522.014	3.9
522.36	3.9
522.706	3.92
523.052	3.92
523.398	3.93
523.743	3.95
524.089	3.96
524.435	3.95
524.781	3.95
525.126	3.94
525.472	3.94
525.817	3.94
526.163	3.93
526.509	3.93
526.854	3.95
527.199	3.95
527.545	3.95
527.89	3.95
528.235	3.96
528.581	3.96
528.926	3.97
529.271	3.98
529.616	3.99
529.961	3.98
530.306	3.99
530.651	3.98
530.996	3.98
531.341	3.98
531.686	3.99
532.031	4
532.376	4.01
532.721	4.01
533.065	4.01
533.41	4.03
533.755	4.03
534.099	4.01
534.444	4.03
534.788	4.03
535.133	4.02
535.477	4.01
535.822	4
536.166	4
536.51	3.99
536.855	3.99
537.199	4
537.543	3.99
537.887	4
538.231	3.99
538.576	3.99
538.92	4
539.264	4.01
539.608	4.02
539.951	4.01
540.295	4.02
540.639	4.03
540.983	4.03
541.327	4.06
541.671	4.06
542.014	4.08
542.358	4.08
542.701	4.1
543.045	4.11
543.389	4.13
543.732	4.12
544.075	4.14
544.419	4.15
544.762	4.15
545.105	4.16
545.449	4.18
545.792	4.21
546.135	4.18
546.478	4.17
546.821	4.16
547.165	4.2
547.508	4.24
547.851	4.25
548.194	4.25
548.536	4.22
548.879	4.2
549.222	4.18
549.565	4.2
549.908	4.19
550.25	4.19
550.593	4.18
550.936	4.2
551.278	4.18
551.621	4.17
551.963	4.18
552.306	4.16
552.648	4.15
552.991	4.11
553.333	4.11
553.675	4.15
554.017	4.15
554.36	4.14
554.702	4.12
555.044	4.13
555.386	4.15
555.728	4.16
556.07	4.15
556.412	4.14
556.754	4.13
557.096	4.16
557.438	4.17
557.78	4.17
558.121	4.14
558.463	4.14
558.805	4.17
559.147	4.15
559.488	4.15
559.83	4.15
560.171	4.17
560.513	4.19
560.854	4.17
561.196	4.18
561.537	4.18
561.878	4.18
562.22	4.15
562.561	4.17
562.902	4.19
563.243	4.2
563.584	4.25
563.925	4.26
564.266	4.23
564.607	4.23
564.948	4.24
565.289	4.28
565.63	4.27
565.971	4.26
566.312	4.26
566.653	4.26
566.993	4.25
567.334	4.28
567.675	4.3
568.015	4.31
568.356	4.3
568.696	4.31
569.037	4.31
569.377	4.31
569.718	4.27
570.058	4.26
570.398	4.27
570.739	4.22
571.079	4.22
571.419	4.19
571.759	4.18
572.099	4.15
572.439	4.14
572.779	4.13
573.119	4.14
573.459	4.13
573.799	4.14
574.139	4.13
574.479	4.09
574.819	4.08
575.158	4.09
575.498	4.1
575.838	4.1
576.177	4.07
576.517	4.05
576.856	4.07
577.196	4.06
577.535	4.05
577.875	4.05
578.214	4.06
578.553	4.07
578.893	4.11
579.232	4.14
579.571	4.17
579.91	4.18
580.25	4.15
580.589	4.19
580.928	4.18
581.267	4.19
581.606	4.25
581.945	4.23
582.283	4.21
582.622	4.18
582.961	4.21
583.3	4.24
583.639	4.26
583.977	4.3
584.316	4.3
584.654	4.29
584.993	4.33
585.332	4.32
585.67	4.36
586.008	4.31
586.347	4.31
586.685	4.2
587.024	4.2
587.362	4.2
587.7	4.23
588.038	4.27
588.376	4.26
588.715	4.22
589.053	4.22
589.391	4.23
589.729	4.26
590.067	4.24
590.404	4.21
590.742	4.22
591.08	4.18
591.418	4.21
591.756	4.25
592.093	4.21
592.431	4.23
592.769	4.21
593.106	4.22
593.444	4.23
593.781	4.3
594.119	4.28
594.456	4.32
594.793	4.29
595.131	4.3
595.468	4.34
595.805	4.37
596.143	4.36
596.48	4.35
596.817	4.33
597.154	4.35
597.491	4.37
597.828	4.35
598.165	4.33
598.502	4.29
598.839	4.27
599.176	4.3
599.512	4.31
599.849	4.36
600.186	4.34
600.523	4.33
600.859	4.36
601.196	4.37
601.532	4.35
601.869	4.37
602.205	4.32
602.542	4.27
602.878	4.27
603.215	4.26
603.551	4.26
603.887	4.29
604.223	4.26
604.56	4.27
604.896	4.32
605.232	4.35
605.568	4.38
605.904	4.38
606.24	4.37
606.576	4.36
606.912	4.3
607.248	4.35
607.583	4.38
607.919	4.35
608.255	4.41
608.591	4.43
608.926	4.4
609.262	4.44
609.597	4.49
609.933	4.49
610.268	4.52
610.604	4.56
610.939	4.59
611.275	4.61
611.61	4.57
611.945	4.57
612.281	4.57
612.616	4.6
612.951	4.63
613.286	4.64
613.621	4.66
613.956	4.69
614.291	4.65
614.626	4.62
614.961	4.62
615.296	4.59
615.631	4.62
615.966	4.67
616.3	4.68
616.635	4.65
616.97	4.67
617.304	4.64
617.639	4.63
617.973	4.62
618.308	4.59
618.642	4.63
618.977	4.58
619.311	4.57
619.646	4.58
619.98	4.61
620.314	4.62
620.648	4.63
620.983	4.61
621.317	4.65
621.651	4.66
621.985	4.68
622.319	4.68
622.653	4.63
622.987	4.62
623.321	4.63
623.655	4.68
623.988	4.69
624.322	4.78
624.656	4.82
624.99	4.8
625.323	4.81
625.657	4.84
625.99	4.92
626.324	4.95
626.657	4.95
626.991	4.93
627.324	4.93
627.658	4.93
627.991	5.01
628.324	4.98
628.657	4.99
628.991	4.99
629.324	4.97
629.657	4.99
629.99	4.99
630.323	4.97
630.656	4.91
630.989	4.9
631.322	4.82
631.655	4.77
631.987	4.8
632.32	4.87
632.653	4.85
632.986	4.77
633.318	4.78
633.651	4.78
633.984	4.75
634.316	4.77
634.649	4.79
634.981	4.77
635.313	4.83
635.646	4.83
635.978	4.92
636.31	4.94
636.643	5
636.975	5.02
637.307	5.05
637.639	5.12
637.971	5.08
638.303	5.1
638.635	5.15
638.967	5.15
639.299	5.16
639.631	5.19
639.963	5.27
640.295	5.23
640.626	5.17
640.958	5.19
641.29	5.22
641.621	5.12
641.953	5.09
642.285	5.11
642.616	5.12
642.948	5.02
643.279	5.01
643.61	5.07
643.942	5.06
644.273	5.03
644.604	4.99
644.936	5.05
645.267	5.09
645.598	5.08
645.929	5
646.26	4.97
646.591	4.97
646.922	4.94
647.253	4.93
647.584	4.98
647.915	5
648.245	5
648.576	5.04
648.907	5.08
649.238	5.05
649.568	5.04
649.899	5
650.229	5.06
650.56	4.96
650.89	5.02
651.221	5
651.551	5.01
651.882	5.03
652.212	4.99
652.542	4.98
652.872	5.06
653.203	5.12
653.533	5.14
653.863	5.2
654.193	5.26
654.523	5.27
654.853	5.33
655.183	5.27
655.513	5.28
655.843	5.29
656.172	5.34
656.502	5.38
656.832	5.44
657.162	5.43
657.491	5.44
657.821	5.46
658.15	5.52
658.48	5.59
658.809	5.57
659.139	5.64
659.468	5.68
659.798	5.65
660.127	5.57
660.456	5.55
660.785	5.57
661.115	5.63
661.444	5.61
661.773	5.64
662.102	5.71
662.431	5.66
662.76	5.69
663.089	5.61
663.418	5.6
663.747	5.67
664.076	5.6
664.404	5.62
664.733	5.55
665.062	5.52
665.39	5.5
665.719	5.56
666.048	5.55
666.376	5.45
666.705	5.49
667.033	5.56
667.362	5.54
667.69	5.49
668.018	5.44
668.347	5.49
668.675	5.46
669.003	5.38
669.331	5.43
669.659	5.45
669.987	5.43
670.315	5.45
670.643	5.36
670.971	5.41
671.299	5.38
671.627	5.41
671.955	5.4
672.283	5.35
672.61	5.27
672.938	5.22
673.266	5.33
673.593	5.31
673.921	5.36
674.249	5.36
674.576	5.36
674.904	5.25
675.231	5.23
675.558	5.19
675.886	5.24
676.213	5.27
676.54	5.33
676.867	5.4
677.195	5.39
677.522	5.47
677.849	5.52
678.176	5.59
678.503	5.51
678.83	5.53
679.157	5.57
679.484	5.6
679.81	5.6
680.137	5.62
680.464	5.64
680.791	5.62
681.117	5.61
681.444	5.55
681.771	5.66
682.097	5.68
682.424	5.73
682.75	5.82
683.077	5.84
683.403	5.78
683.729	5.7
684.056	5.78
684.382	5.71
684.708	5.76
685.034	5.73
685.36	5.79
685.686	5.84
686.012	5.84
686.339	5.9
686.664	6.01
686.99	5.98
687.316	6
687.642	5.93
687.968	5.97
688.294	6.11
688.619	6.15
688.945	6.07
689.271	6.12
689.596	5.98
689.922	6.07
690.247	6.05
690.573	6.1
690.898	6.13
691.224	6.07
691.549	6.01
691.874	6.04
692.2	6.07
692.525	6.02
692.85	6.04
693.175	6.18
693.5	6.23
693.825	6.23
694.15	6.15
694.475	6.23
694.8	6.2
695.125	6.15
695.45	6.08
695.775	6.18
696.099	6.21
696.424	6.21
696.749	6.21
697.073	6.19
697.398	6.28
697.723	6.2
698.047	6.41
698.372	6.45
698.696	6.43
699.02	6.46
699.345	6.49
699.669	6.53
699.993	6.39
700.318	6.34
700.642	6.35
700.966	6.44
701.29	6.47
701.614	6.59
701.938	6.67
702.262	6.58
702.586	6.57
702.91	6.56
703.234	6.7
703.557	6.62
703.881	6.78
704.205	6.78
704.529	6.8
704.852	6.61
705.176	6.57
705.499	6.53
705.823	6.59
706.146	6.67
706.47	6.51
706.793	6.64
707.117	6.58
707.44	6.52
707.763	6.43
708.086	6.37
708.409	6.31
708.733	6.09
709.056	6.21
709.379	6.26
709.702	6.14
710.025	6.18
710.348	6.24
710.671	6.11
710.993	6.06
711.316	6.02
711.639	5.98
711.962	5.99
712.284	6.07
712.607	6.09
712.93	5.99
713.252	6.13
713.575	5.94
713.897	5.9
714.22	5.98
714.542	5.96
714.864	5.96
715.187	5.95
715.509	5.94
715.831	6.02
716.153	5.98
716.475	5.98
716.798	5.92
717.12	5.92
717.442	5.89
717.764	5.95
718.085	5.98
718.407	6.08
718.729	6.11
719.051	6.05
719.373	6.07
719.695	6.29
720.016	6.2
720.338	6.47
720.659	6.65
720.981	6.61
721.302	6.91
721.624	6.77
721.945	6.72
722.267	6.78
722.588	6.57
722.909	6.64
723.231	6.78
723.552	6.72
723.873	6.57
724.194	6.71
724.515	6.71
724.836	6.65
725.157	6.6
725.478	6.55
725.799	6.52
726.12	6.41
726.441	6.32
726.762	6.28
727.083	6.11
727.403	6.08
727.724	6.32
728.045	6.2
728.365	6.36
728.686	6.5
729.006	6.56
729.327	6.63
729.647	6.71
729.967	6.8
730.288	6.89
730.608	7.05
730.928	6.97
731.249	6.91
731.569	6.95
731.889	6.9
732.209	6.96
732.529	6.98
732.849	6.92
733.169	6.83
733.489	6.92
733.809	6.94
734.129	6.87
734.448	6.86
734.768	6.77
735.088	6.66
735.408	6.5
735.727	6.56
736.047	6.62
736.366	6.62
736.686	6.42
737.005	6.4
737.325	6.4
737.644	6.36
737.963	6.5
738.283	6.66
738.602	6.73
738.921	6.61
739.24	6.65
739.56	6.77
739.879	6.8
740.198	6.68
740.517	6.88
740.836	6.83
741.155	6.59
741.473	6.74
741.792	6.94
742.111	7.07
742.43	7.08
742.748	7.3
743.067	7.1
743.386	7.09
743.704	6.81
744.023	6.91
744.341	6.93
744.66	6.71
744.978	6.59
745.297	6.8
745.615	6.57
745.933	6.68
746.252	6.71
746.57	6.63
746.888	6.85
747.206	6.57
747.524	6.5
747.842	6.51
748.16	6.22
748.478	6.29
748.796	6.16
749.114	6.17
749.432	6.01
749.749	6.1
750.067	6.25
750.385	6.7
750.703	6.44
751.02	6.57
751.338	6.79
751.655	6.77
751.973	7.02
752.29	7.61
752.608	7.55
752.925	7.51
753.242	7.68
753.56	7.65
753.877	7.84
754.194	8.25
754.511	8.27
754.828	8.65
755.145	8.8
755.462	9.19
755.779	9.28
756.096	9.31
756.413	9.4
756.73	9.53
757.047	9.32
757.364	9.39
757.68	9.26
757.997	9.31
758.314	9.43
758.63	9.09
758.947	9.09
759.264	9.3
759.58	9.48
759.896	9.51
760.213	9.44
760.529	9.49
760.846	9.38
761.162	9.2
761.478	9.07
761.794	8.96
762.11	8.66
762.426	8.45
762.743	8.38
763.059	8.58
763.375	8.39
763.69	8.44
764.006	8.48
764.322	8.56
764.638	8.59
764.954	8.88
765.27	8.83
765.585	8.73
765.901	8.49
766.216	8.36
766.532	8.24
766.848	8.11
767.163	8
767.478	8.09
767.794	8.23
768.109	8.39
768.424	8.14
768.74	8.23
769.055	8.6
769.37	8.69
769.685	8.54
770	8.72
770.315	8.89
770.63	9.07
770.945	9.36
771.26	9.26
771.575	8.9
771.89	8.94
772.205	8.92
772.52	9.2
772.834	9.14
773.149	9.43
773.464	9.61
773.778	9.34
774.093	9.46
774.407	9.81
774.722	9.44
775.036	9.75
775.351	9.94
775.665	9.63
775.979	9.56
776.293	9.66
776.608	9.55
776.922	9.28
777.236	9.34
777.55	8.77
777.864	8.58
778.178	8.14
778.492	8.13
778.806	7.95
779.12	7.97
779.434	7.64
779.747	7.72
780.061	8.01
780.375	8.77
780.689	8.18
781.002	7.91
781.316	8.39
781.629	8.12
781.943	7.72
782.256	7.3
782.57	7.44
782.883	7.33
783.196	7.14
783.51	7.74
783.823	7.79
784.136	7.87
784.449	7.83
784.762	8.13
785.075	8.6
785.388	9.54
785.701	9.34
786.014	10.02
786.327	9.65
786.64	9.61
786.953	9.45
787.266	9.91
787.578	10
787.891	9.7
788.204	10.39
788.516	10.46
788.829	10.73
789.141	11.06
789.454	10.62
789.766	11.26
790.079	11.35
790.391	11.21
790.703	11.77
791.016	12.14
791.328	12.58
791.64	12.34
791.952	11.85
792.264	11.93
792.576	12.36
792.888	11.83
793.2	11.55
793.512	11.19
793.824	10.85
794.136	10.82
794.448	11.29
794.76	10.92
795.071	10.89
795.383	11.44
795.695	11.19
796.006	11.18
796.318	11.29
796.629	10.94
796.941	10.38
797.252	9.92
797.564	9.98
797.875	9.9
798.186	10.05
798.497	10.4
798.809	10.28
799.12	10.2
799.431	11.47
799.742	11.73
800.053	11.32
800.364	12
800.675	11.89
800.986	11.28
801.297	11.46
801.608	11.86
801.918	11.8
802.229	11.98
802.54	12.54
802.851	12.34
803.161	12.44
803.472	12.76
803.782	13.5
804.093	12.82
804.403	12.39
804.714	12.22
805.024	11.97
805.334	11.87
805.645	11.44
805.955	11.13
806.265	11.18
806.575	12.06
806.885	11.75
807.195	12.22
807.505	12.51
807.815	11.95
808.125	11.86
808.435	11.79
808.745	11.64
809.055	11.79
809.365	11.01
809.674	10.32
809.984	11.12
810.294	10.45
810.603	10.96
810.913	11.35
811.222	11.46
811.532	11.37
811.841	12.28
812.151	12.32
812.46	12.09
812.769	12.3
813.079	12.35
813.388	11.58
813.697	10.67
814.006	10.69
814.315	10.32
814.624	11.54
814.933	11.78
815.242	11.4
815.551	11.75
815.86	12.8
816.169	12.91
816.478	12.24
816.786	12.4
817.095	12.18
817.404	12.34
817.712	12.52
818.021	12.64
818.33	11.81
818.638	11.33
818.947	11.53
819.255	10.69
819.563	10.13
819.872	10.66
820.18	11.06
820.488	11.12
820.796	11.46
821.105	11.14
821.413	11.02
821.721	10.74
822.029	10.59
822.337	10.53
822.645	10.69
822.953	10.73
823.26	10.73
823.568	10.95
823.876	10.81
824.184	10.54
824.491	10.57
824.799	10.67
825.107	10.71
825.414	10.7
825.722	10.97
826.029	11.2
826.337	10.89
826.644	10.85
826.951	10.74
827.259	10.78
827.566	10.7
827.873	10.78
828.18	11.1
828.488	11.06
828.795	11.08
829.102	11.22
829.409	10.93
829.716	11.14
830.023	10.93
830.329	11.24
830.636	11.64
830.943	11.36
831.25	11.17
831.557	10.92
831.863	10.75
832.17	10.83
832.476	10.5
832.783	11.06
833.089	11.27
833.396	11.64
833.702	11.77
834.009	12.05
834.315	12.14
834.621	12.05
834.928	12.43
835.234	12.48
835.54	11.86
835.846	12.48
836.152	11.93
836.458	11.96
836.764	11.88
837.07	11.65
837.376	11.7
837.682	11.87
837.988	12.73
838.293	12.55
838.599	12.37
838.905	13.05
839.211	12.8
839.516	12.16
839.822	12.34
840.127	11.3
840.433	10.41
840.738	9.76
841.044	10.37
841.349	9.71
841.654	9.45
841.959	9.64
842.265	9.2
842.57	10.07
842.875	9.46
843.18	9.74
843.485	10.71
843.79	11.01
844.095	12.08
844.4	11.67
844.705	12.93
845.01	13.49
845.315	12.57
845.619	13.22
845.924	13.74
846.229	13.43
846.533	14.18
846.838	15.7
847.142	16.72
847.447	15.87
847.751	16.11
848.056	14.84
848.36	17.08
848.664	18.23
848.969	15.74
849.273	16.63
849.577	15.01
849.881	13.41
850.185	13.02
850.489	11.74
850.794	12.13
851.097	9.81
851.401	7.88
851.705	8.57
852.009	8.12
852.313	7.74
852.617	7.4
852.92	9.18
853.224	7.81
853.528	8.56
853.831	8.1
854.135	8.71
854.438	7.84
854.742	7.27
855.045	5.38
855.349	7.89
855.652	7.4
855.955	7.83
856.259	9.06
856.562	10.33
856.865	10.48
857.168	9.75
857.471	12.05
857.774	14.21
858.077	13.83
858.38	13.64
858.683	16.34
858.986	16.85
859.289	13.27
859.592	15.63
859.894	17.14
860.197	16.45
860.5	15.74
860.802	16.18
861.105	15.22
861.407	15.06
861.71	13.27
862.012	14.47
862.315	15.9
862.617	15.43
862.919	13.83
863.222	14.04
863.524	14.98
863.826	12.35
864.128	12.54
864.43	15
864.732	15.95
865.034	15.71
865.336	15.15
865.638	17.06
865.94	16.71
866.242	12.4
866.544	16.44
866.846	16.44
867.147	19.44
867.449	22.79
867.751	25.03
868.052	26.88
868.354	27.71
868.655	26.79
868.957	26.01
869.258	26.29
869.56	26.73
869.861	27.52
870.162	27.93
870.463	26.74
870.765	24.04
871.066	22.91
871.367	20.6
871.668	24.14
871.969	25.48
872.27	23.51
872.571	23.9
872.872	21.09
873.173	23.48
873.473	20.48
873.774	16.97
874.075	15.23
874.376	15.59
874.676	14.01
874.977	15.68
875.277	17.94
875.578	19.75
875.878	19.31
876.179	18.24
876.479	19.56
876.78	19.63
877.08	21.77
877.38	23.33
877.68	24.73
877.981	19.83
878.281	19.79
878.581	21.13
