Data from MVZ_BU5182_Reflection_00007.txt Node
Date: Tue Nov 19 12:19:17 EST 2019
User: vgr7
Spectrometer: USB2G7710
Scans to average: 3
Trigger mode: 4
Integration Time (sec): 2.000000E-2
Electric dark correction enabled: true
Boxcar width: 10
XAxis mode: Wavelengths
Number of Pixels in Spectrum: 2048
>>>>>Begin Spectral Data<<<<<
177.721	100.94
178.105	179.1
178.488	163.18
178.871	95.24
179.254	108.89
179.636	97.65
180.019	69.98
180.402	118.18
180.785	-67.82
181.168	-1661.9
181.55	165.36
181.933	87.42
182.316	14.53
182.698	51.83
183.081	32.59
183.463	10.64
183.846	22.88
184.228	36.23
184.611	36
184.993	22.93
185.376	34.55
185.758	35.41
186.14	33.89
186.522	39.84
186.904	15.41
187.287	7.17
187.669	-7.86
188.051	-3.11
188.433	-13.98
188.815	-8.71
189.197	-6.33
189.579	-22.2
189.961	-32.22
190.342	-35.27
190.724	-59.62
191.106	-70.77
191.488	-55.26
191.869	-48.75
192.251	-44.07
192.633	-33.01
193.014	-34.15
193.396	-31.03
193.777	-30
194.159	-28.93
194.54	-26.59
194.922	-21.14
195.303	-20.58
195.684	-6.55
196.065	-17.32
196.447	-10.62
196.828	-11.86
197.209	-6.53
197.59	9.12
197.971	13.35
198.352	3.62
198.733	2.99
199.114	-10.82
199.495	-5.87
199.876	-14.14
200.257	-11.69
200.638	-8.65
201.018	-7.61
201.399	-10.28
201.78	-5.99
202.16	-11.48
202.541	-20.7
202.922	-20.32
203.302	-12.84
203.683	-20.94
204.063	-4.84
204.444	-3.04
204.824	5.15
205.204	9.53
205.585	12.07
205.965	18.98
206.345	16.09
206.725	38.49
207.106	66.79
207.486	58.11
207.866	64.06
208.246	76.02
208.626	71.88
209.006	80.21
209.386	90.28
209.766	89.91
210.145	85.68
210.525	81.32
210.905	79.89
211.285	86.1
211.664	88.94
212.044	90.35
212.424	93.49
212.803	97.46
213.183	95.96
213.562	106.18
213.942	96.03
214.321	105.83
214.701	93.89
215.08	102.51
215.459	107.44
215.838	81.89
216.218	72.42
216.597	48.2
216.976	40.46
217.355	40.05
217.734	22.35
218.113	26.23
218.492	17.6
218.871	17.22
219.25	7.01
219.629	8.02
220.008	7.57
220.387	-1.75
220.766	0.49
221.144	-0.03
221.523	-2.54
221.902	-1.25
222.28	-1.96
222.659	12.1
223.037	4.46
223.416	3.75
223.794	6.18
224.173	3.67
224.551	11.79
224.929	9.93
225.308	14.02
225.686	16.8
226.064	16.95
226.442	17.22
226.821	20.61
227.199	24.67
227.577	23.83
227.955	21.7
228.333	19.83
228.711	19.43
229.089	20.52
229.467	20.14
229.845	16.44
230.222	16.3
230.6	10.9
230.978	10.65
231.356	9.71
231.733	9.72
232.111	9.1
232.488	9.05
232.866	8.47
233.243	7.24
233.621	6.41
233.998	5.77
234.376	7.59
234.753	5.35
235.13	5.73
235.508	4.87
235.885	3.87
236.262	6.24
236.639	4.81
237.016	3.41
237.393	4.79
237.77	5.18
238.147	5.7
238.524	6.94
238.901	5.55
239.278	4.4
239.655	4.42
240.032	4.71
240.409	3.85
240.785	3.22
241.162	3.4
241.539	3.86
241.915	3.69
242.292	3.62
242.668	4.04
243.045	3.83
243.421	3.73
243.798	4.02
244.174	3.34
244.551	3.85
244.927	3.92
245.303	3.18
245.679	3.23
246.056	3.26
246.432	3.11
246.808	3.76
247.184	3.89
247.56	3.67
247.936	3.61
248.312	3.78
248.688	4.1
249.064	4.08
249.44	3.8
249.815	3.79
250.191	3.59
250.567	3.51
250.943	3.32
251.318	3.27
251.694	3.05
252.069	3.37
252.445	3.22
252.82	3.37
253.196	3.64
253.571	3.66
253.947	3.57
254.322	3.79
254.697	3.34
255.073	3.38
255.448	3.58
255.823	3.46
256.198	3.5
256.573	3.36
256.948	3.24
257.323	3.46
257.698	3.46
258.073	3.64
258.448	3.84
258.823	4.04
259.198	4.18
259.573	4.25
259.948	4.22
260.322	4.1
260.697	4.27
261.072	4.28
261.446	4.37
261.821	4.22
262.195	4.16
262.57	4.29
262.944	4.39
263.319	4.4
263.693	4.41
264.067	4.4
264.442	4.36
264.816	4.46
265.19	4.34
265.564	4.5
265.938	4.5
266.313	4.27
266.687	4.15
267.061	4
267.435	3.96
267.809	3.93
268.183	4
268.556	3.72
268.93	3.71
269.304	3.53
269.678	3.56
270.051	3.54
270.425	3.42
270.799	3.25
271.172	3.2
271.546	3.46
271.919	3.49
272.293	3.68
272.666	3.65
273.04	3.69
273.413	3.41
273.787	3.37
274.16	3.17
274.533	3.07
274.906	2.98
275.279	3.17
275.653	3.33
276.026	3.21
276.399	3.37
276.772	3.36
277.145	3.33
277.518	3.45
277.891	3.44
278.263	3.56
278.636	3.97
279.009	3.96
279.382	3.73
279.755	3.63
280.127	3.57
280.5	3.45
280.872	3.48
281.245	3.66
281.617	3.64
281.99	3.85
282.362	3.92
282.735	4.04
283.107	3.85
283.479	3.77
283.852	3.93
284.224	3.78
284.596	3.82
284.968	3.93
285.34	3.88
285.713	3.75
286.085	3.67
286.457	3.47
286.829	3.49
287.201	3.42
287.572	3.56
287.944	3.59
288.316	3.6
288.688	3.76
289.06	3.71
289.431	3.78
289.803	3.87
290.175	3.83
290.546	3.78
290.918	3.81
291.289	3.63
291.661	3.54
292.032	3.59
292.403	3.63
292.775	3.63
293.146	3.78
293.517	3.91
293.889	3.92
294.26	3.85
294.631	3.93
295.002	4.18
295.373	4.04
295.744	4.11
296.115	4.17
296.486	4.07
296.857	4.16
297.228	4.1
297.599	4.08
297.97	4.23
298.34	4.45
298.711	4.63
299.082	4.73
299.452	4.74
299.823	4.81
300.194	4.82
300.564	4.87
300.935	4.85
301.305	4.97
301.676	4.92
302.046	5.03
302.416	5.18
302.787	5.12
303.157	5.24
303.527	5.31
303.897	5.43
304.267	5.57
304.637	5.59
305.008	5.66
305.378	5.78
305.748	5.63
306.117	5.43
306.487	5.37
306.857	5.5
307.227	5.47
307.597	5.52
307.967	5.54
308.336	5.49
308.706	5.35
309.076	5.4
309.445	5.55
309.815	5.69
310.184	5.64
310.554	5.52
310.923	5.54
311.293	5.48
311.662	5.58
312.031	5.55
312.401	5.5
312.77	5.4
313.139	5.26
313.508	5.46
313.877	5.56
314.246	5.48
314.616	5.53
314.985	5.61
315.353	5.66
315.722	5.74
316.091	5.77
316.46	6.03
316.829	6.07
317.198	6.07
317.567	6.15
317.935	6.18
318.304	6.42
318.672	6.49
319.041	6.71
319.41	6.51
319.778	6.55
320.147	6.68
320.515	6.79
320.883	6.74
321.252	6.8
321.62	6.86
321.988	6.97
322.357	6.86
322.725	6.96
323.093	6.93
323.461	6.78
323.829	6.73
324.197	6.74
324.565	6.7
324.933	6.67
325.301	6.37
325.669	6.3
326.037	6.28
326.405	6.24
326.772	6.13
327.14	6.16
327.508	6.13
327.875	6.1
328.243	6.14
328.61	6.29
328.978	6.25
329.346	6.22
329.713	6.29
330.08	6.33
330.448	6.32
330.815	6.37
331.182	6.56
331.55	6.63
331.917	6.51
332.284	6.48
332.651	6.51
333.018	6.76
333.385	6.9
333.752	7
334.119	7.08
334.486	7.15
334.853	7.27
335.22	7.25
335.587	7.31
335.954	7.26
336.32	7.41
336.687	7.38
337.054	7.42
337.42	7.41
337.787	7.52
338.153	7.65
338.52	7.64
338.886	7.51
339.253	7.53
339.619	7.67
339.986	7.7
340.352	7.67
340.718	7.58
341.084	7.54
341.451	7.55
341.817	7.64
342.183	7.48
342.549	7.7
342.915	7.83
343.281	7.88
343.647	7.91
344.013	7.82
344.379	7.84
344.745	7.88
345.11	7.94
345.476	7.95
345.842	7.93
346.208	7.96
346.573	8.06
346.939	8.12
347.304	8.11
347.67	8.19
348.035	8.28
348.401	8.33
348.766	8.32
349.132	8.24
349.497	8.19
349.862	8.36
350.228	8.17
350.593	8.08
350.958	8.11
351.323	8.19
351.688	8.22
352.053	8.21
352.418	8.19
352.783	8.14
353.148	8.04
353.513	7.95
353.878	7.87
354.243	7.81
354.608	7.86
354.972	7.87
355.337	7.78
355.702	7.72
356.066	7.77
356.431	7.76
356.795	7.73
357.16	7.7
357.524	7.65
357.889	7.65
358.253	7.61
358.618	7.57
358.982	7.58
359.346	7.53
359.71	7.51
360.075	7.57
360.439	7.58
360.803	7.62
361.167	7.62
361.531	7.64
361.895	7.65
362.259	7.61
362.623	7.57
362.987	7.55
363.351	7.55
363.714	7.58
364.078	7.54
364.442	7.51
364.806	7.57
365.169	7.5
365.533	7.5
365.896	7.54
366.26	7.5
366.623	7.42
366.987	7.46
367.35	7.53
367.714	7.45
368.077	7.45
368.44	7.43
368.803	7.45
369.167	7.42
369.53	7.42
369.893	7.38
370.256	7.3
370.619	7.31
370.982	7.23
371.345	7.16
371.708	7.17
372.071	7.21
372.434	7.07
372.797	7.07
373.159	7.04
373.522	6.95
373.885	6.87
374.247	6.83
374.61	6.78
374.973	6.7
375.335	6.74
375.698	6.64
376.06	6.63
376.423	6.58
376.785	6.61
377.147	6.53
377.51	6.5
377.872	6.51
378.234	6.49
378.596	6.53
378.958	6.51
379.321	6.47
379.683	6.44
380.045	6.41
380.407	6.43
380.769	6.36
381.13	6.37
381.492	6.34
381.854	6.34
382.216	6.35
382.578	6.26
382.939	6.12
383.301	6.1
383.663	6.09
384.024	6.06
384.386	6.02
384.747	6.03
385.109	5.99
385.47	6
385.832	5.9
386.193	5.82
386.554	5.73
386.916	5.71
387.277	5.65
387.638	5.71
387.999	5.7
388.36	5.66
388.721	5.66
389.082	5.69
389.443	5.66
389.804	5.6
390.165	5.58
390.526	5.63
390.887	5.62
391.248	5.58
391.609	5.57
391.969	5.52
392.33	5.5
392.691	5.48
393.051	5.42
393.412	5.46
393.772	5.45
394.133	5.43
394.493	5.39
394.854	5.39
395.214	5.35
395.574	5.29
395.935	5.23
396.295	5.18
396.655	5.11
397.015	5.1
397.376	5.08
397.736	5.03
398.096	4.98
398.456	4.94
398.816	4.9
399.176	4.83
399.535	4.81
399.895	4.8
400.255	4.79
400.615	4.76
400.975	4.72
401.334	4.71
401.694	4.7
402.054	4.72
402.413	4.68
402.773	4.65
403.132	4.65
403.492	4.67
403.851	4.65
404.211	4.65
404.57	4.66
404.929	4.62
405.288	4.65
405.648	4.61
406.007	4.61
406.366	4.61
406.725	4.64
407.084	4.62
407.443	4.59
407.802	4.59
408.161	4.62
408.52	4.62
408.879	4.64
409.238	4.65
409.596	4.59
409.955	4.6
410.314	4.55
410.673	4.55
411.031	4.58
411.39	4.59
411.748	4.63
412.107	4.6
412.465	4.59
412.824	4.56
413.182	4.59
413.54	4.59
413.899	4.58
414.257	4.54
414.615	4.56
414.974	4.56
415.332	4.57
415.69	4.54
416.048	4.51
416.406	4.5
416.764	4.48
417.122	4.47
417.48	4.49
417.838	4.5
418.195	4.48
418.553	4.42
418.911	4.4
419.269	4.37
419.626	4.35
419.984	4.33
420.342	4.34
420.699	4.33
421.057	4.3
421.414	4.3
421.772	4.31
422.129	4.27
422.486	4.27
422.844	4.25
423.201	4.25
423.558	4.24
423.915	4.22
424.273	4.22
424.63	4.22
424.987	4.18
425.344	4.17
425.701	4.15
426.058	4.18
426.415	4.17
426.772	4.14
427.128	4.15
427.485	4.17
427.842	4.17
428.199	4.14
428.555	4.15
428.912	4.13
429.269	4.11
429.625	4.1
429.982	4.09
430.338	4.08
430.695	4.04
431.051	4.05
431.407	4.07
431.764	4.06
432.12	4.07
432.476	4.1
432.832	4.11
433.189	4.11
433.545	4.09
433.901	4.1
434.257	4.12
434.613	4.1
434.969	4.09
435.325	4.08
435.681	4.1
436.036	4.11
436.392	4.11
436.748	4.12
437.104	4.12
437.459	4.13
437.815	4.12
438.171	4.14
438.526	4.15
438.882	4.16
439.237	4.16
439.593	4.17
439.948	4.17
440.304	4.15
440.659	4.18
441.014	4.18
441.369	4.17
441.725	4.18
442.08	4.17
442.435	4.17
442.79	4.16
443.145	4.16
443.5	4.16
443.855	4.16
444.21	4.16
444.565	4.16
444.92	4.16
445.275	4.16
445.629	4.15
445.984	4.14
446.339	4.13
446.693	4.13
447.048	4.09
447.403	4.09
447.757	4.09
448.112	4.08
448.466	4.1
448.82	4.1
449.175	4.08
449.529	4.07
449.883	4.07
450.238	4.07
450.592	4.05
450.946	4.04
451.3	4.04
451.654	4.05
452.008	4.04
452.362	4.05
452.716	4.04
453.07	4.05
453.424	4.05
453.778	4.04
454.132	4.03
454.486	4.05
454.839	4.04
455.193	4.05
455.547	4.02
455.9	3.99
456.254	4
456.607	4
456.961	4.01
457.314	4.01
457.668	4.01
458.021	4.01
458.375	4.01
458.728	4
459.081	4
459.434	4.01
459.787	4.01
460.141	4.01
460.494	4.02
460.847	4.02
461.2	4.02
461.553	4.04
461.906	4.05
462.259	4.06
462.611	4.07
462.964	4.1
463.317	4.11
463.67	4.12
464.022	4.12
464.375	4.11
464.728	4.13
465.08	4.11
465.433	4.13
465.785	4.16
466.138	4.17
466.49	4.17
466.843	4.17
467.195	4.18
467.547	4.18
467.899	4.21
468.252	4.23
468.604	4.23
468.956	4.23
469.308	4.21
469.66	4.23
470.012	4.2
470.364	4.21
470.716	4.21
471.068	4.2
471.42	4.22
471.772	4.24
472.123	4.23
472.475	4.29
472.827	4.29
473.178	4.29
473.53	4.32
473.882	4.33
474.233	4.34
474.585	4.32
474.936	4.34
475.288	4.32
475.639	4.32
475.99	4.33
476.342	4.35
476.693	4.39
477.044	4.37
477.395	4.39
477.746	4.38
478.097	4.38
478.448	4.37
478.8	4.38
479.15	4.38
479.501	4.39
479.852	4.37
480.203	4.36
480.554	4.36
480.905	4.34
481.255	4.33
481.606	4.32
481.957	4.34
482.307	4.33
482.658	4.32
483.009	4.33
483.359	4.32
483.709	4.31
484.06	4.3
484.41	4.31
484.761	4.32
485.111	4.32
485.461	4.32
485.811	4.31
486.162	4.32
486.512	4.32
486.862	4.32
487.212	4.34
487.562	4.33
487.912	4.33
488.262	4.33
488.612	4.34
488.961	4.34
489.311	4.34
489.661	4.35
490.011	4.35
490.36	4.34
490.71	4.34
491.06	4.35
491.409	4.34
491.759	4.33
492.108	4.33
492.458	4.32
492.807	4.34
493.157	4.37
493.506	4.36
493.855	4.37
494.204	4.37
494.554	4.35
494.903	4.39
495.252	4.41
495.601	4.43
495.95	4.45
496.299	4.49
496.648	4.5
496.997	4.53
497.346	4.58
497.695	4.61
498.043	4.67
498.392	4.69
498.741	4.75
499.09	4.82
499.438	4.85
499.787	4.9
500.135	4.92
500.484	4.94
500.832	5.01
501.181	5.04
501.529	5.1
501.878	5.17
502.226	5.2
502.574	5.26
502.923	5.32
503.271	5.38
503.619	5.45
503.967	5.49
504.315	5.55
504.663	5.61
505.011	5.67
505.359	5.72
505.707	5.79
506.055	5.85
506.403	5.89
506.751	5.97
507.098	6.05
507.446	6.17
507.794	6.25
508.141	6.32
508.489	6.42
508.837	6.5
509.184	6.6
509.531	6.69
509.879	6.78
510.226	6.87
510.574	6.98
510.921	7.06
511.268	7.18
511.616	7.32
511.963	7.43
512.31	7.56
512.657	7.69
513.004	7.82
513.351	7.97
513.698	8.12
514.045	8.28
514.392	8.46
514.739	8.6
515.086	8.77
515.432	8.95
515.779	9.12
516.126	9.3
516.473	9.44
516.819	9.6
517.166	9.73
517.512	9.88
517.859	10.02
518.205	10.13
518.552	10.24
518.898	10.35
519.245	10.46
519.591	10.58
519.937	10.7
520.283	10.85
520.629	11
520.976	11.16
521.322	11.31
521.668	11.43
522.014	11.63
522.36	11.79
522.706	11.95
523.052	12.14
523.398	12.3
523.743	12.53
524.089	12.71
524.435	12.91
524.781	13.11
525.126	13.24
525.472	13.44
525.817	13.59
526.163	13.7
526.509	13.82
526.854	13.93
527.199	14.06
527.545	14.17
527.89	14.28
528.235	14.37
528.581	14.51
528.926	14.64
529.271	14.74
529.616	14.86
529.961	14.98
530.306	15.09
530.651	15.21
530.996	15.34
531.341	15.49
531.686	15.64
532.031	15.76
532.376	15.93
532.721	16.06
533.065	16.23
533.41	16.43
533.755	16.63
534.099	16.84
534.444	17.01
534.788	17.18
535.133	17.34
535.477	17.56
535.822	17.73
536.166	17.93
536.51	18.15
536.855	18.38
537.199	18.62
537.543	18.88
537.887	19.13
538.231	19.37
538.576	19.6
538.92	19.84
539.264	20.09
539.608	20.35
539.951	20.57
540.295	20.77
540.639	20.94
540.983	21.12
541.327	21.31
541.671	21.51
542.014	21.71
542.358	21.91
542.701	22.08
543.045	22.25
543.389	22.42
543.732	22.59
544.075	22.76
544.419	22.95
544.762	23.14
545.105	23.36
545.449	23.58
545.792	23.82
546.135	24.05
546.478	24.3
546.821	24.53
547.165	24.82
547.508	25.1
547.851	25.38
548.194	25.64
548.536	25.9
548.879	26.2
549.222	26.43
549.565	26.69
549.908	26.95
550.25	27.2
550.593	27.5
550.936	27.75
551.278	28.08
551.621	28.31
551.963	28.54
552.306	28.73
552.648	28.94
552.991	29.19
553.333	29.41
553.675	29.64
554.017	29.81
554.36	29.98
554.702	30.18
555.044	30.46
555.386	30.66
555.728	30.92
556.07	31.07
556.412	31.31
556.754	31.51
557.096	31.72
557.438	31.95
557.78	32.18
558.121	32.4
558.463	32.67
558.805	32.93
559.147	33.22
559.488	33.47
559.83	33.62
560.171	33.77
560.513	33.96
560.854	34.1
561.196	34.3
561.537	34.51
561.878	34.67
562.22	34.91
562.561	35.1
562.902	35.22
563.243	35.35
563.584	35.52
563.925	35.71
564.266	35.9
564.607	36.06
564.948	36.2
565.289	36.38
565.63	36.49
565.971	36.62
566.312	36.77
566.653	36.87
566.993	37.06
567.334	37.19
567.675	37.38
568.015	37.52
568.356	37.68
568.696	37.81
569.037	37.91
569.377	37.95
569.718	38.05
570.058	38.18
570.398	38.31
570.739	38.44
571.079	38.53
571.419	38.66
571.759	38.7
572.099	38.79
572.439	38.87
572.779	38.92
573.119	39.03
573.459	39.07
573.799	39.24
574.139	39.37
574.479	39.51
574.819	39.55
575.158	39.66
575.498	39.78
575.838	39.86
576.177	39.97
576.517	40.05
576.856	40.19
577.196	40.3
577.535	40.49
577.875	40.56
578.214	40.64
578.553	40.67
578.893	40.86
579.232	40.95
579.571	41.04
579.91	41.1
580.25	41.18
580.589	41.27
580.928	41.3
581.267	41.23
581.606	41.26
581.945	41.31
582.283	41.4
582.622	41.42
582.961	41.5
583.3	41.56
583.639	41.68
583.977	41.69
584.316	41.77
584.654	41.8
584.993	41.85
585.332	41.94
585.67	42.11
586.008	42.12
586.347	42.22
586.685	42.32
587.024	42.44
587.362	42.42
587.7	42.51
588.038	42.66
588.376	42.9
588.715	43.07
589.053	43.19
589.391	43.15
589.729	43.21
590.067	43.32
590.404	43.37
590.742	43.41
591.08	43.51
591.418	43.58
591.756	43.62
592.093	43.72
592.431	43.79
592.769	43.79
593.106	43.81
593.444	43.89
593.781	43.99
594.119	44.12
594.456	44.18
594.793	44.2
595.131	44.21
595.468	44.19
595.805	44.21
596.143	44.23
596.48	44.37
596.817	44.44
597.154	44.43
597.491	44.46
597.828	44.48
598.165	44.55
598.502	44.55
598.839	44.56
599.176	44.63
599.512	44.74
599.849	44.79
600.186	44.9
600.523	44.91
600.859	44.89
601.196	44.9
601.532	44.99
601.869	45.07
602.205	45.11
602.542	45.16
602.878	45.22
603.215	45.26
603.551	45.26
603.887	45.32
604.223	45.36
604.56	45.46
604.896	45.54
605.232	45.6
605.568	45.59
605.904	45.65
606.24	45.7
606.576	45.67
606.912	45.72
607.248	45.79
607.583	45.81
607.919	45.79
608.255	45.79
608.591	45.85
608.926	45.86
609.262	45.86
609.597	45.89
609.933	45.83
610.268	45.88
610.604	45.86
610.939	45.86
611.275	45.9
611.61	45.87
611.945	45.83
612.281	45.83
612.616	45.93
612.951	46
613.286	45.99
613.621	46.02
613.956	46.02
614.291	45.93
614.626	45.98
614.961	46.08
615.296	46.16
615.631	46.09
615.966	46.08
616.3	46.25
616.635	46.27
616.97	46.31
617.304	46.3
617.639	46.34
617.973	46.32
618.308	46.38
618.642	46.34
618.977	46.32
619.311	46.19
619.646	46.23
619.98	46.17
620.314	46.21
620.648	46.27
620.983	46.31
621.317	46.44
621.651	46.48
621.985	46.5
622.319	46.57
622.653	46.66
622.987	46.73
623.321	46.69
623.655	46.71
623.988	46.71
624.322	46.74
624.656	46.83
624.99	46.86
625.323	46.83
625.657	46.91
625.99	47.03
626.324	47.18
626.657	47.17
626.991	47.22
627.324	47.22
627.658	47.2
627.991	47.21
628.324	47.23
628.657	47.22
628.991	47.26
629.324	47.21
629.657	47.16
629.99	47.15
630.323	47.14
630.656	47.16
630.989	47.2
631.322	47.16
631.655	47.07
631.987	47.13
632.32	47.16
632.653	47.17
632.986	47.07
633.318	47.02
633.651	47.08
633.984	47.07
634.316	47.05
634.649	47.12
634.981	47.17
635.313	47.14
635.646	47.13
635.978	47.08
636.31	47.07
636.643	47.12
636.975	47.14
637.307	47.17
637.639	47.21
637.971	47.26
638.303	47.41
638.635	47.52
638.967	47.59
639.299	47.67
639.631	47.64
639.963	47.63
640.295	47.72
640.626	47.77
640.958	47.74
641.29	47.69
641.621	47.7
641.953	47.57
642.285	47.63
642.616	47.68
642.948	47.82
643.279	47.92
643.61	47.94
643.942	48.01
644.273	48.02
644.604	47.98
644.936	48.01
645.267	48.04
645.598	48.06
645.929	47.96
646.26	47.87
646.591	47.95
646.922	48.1
647.253	48.15
647.584	48.1
647.915	48.25
648.245	48.38
648.576	48.37
648.907	48.63
649.238	48.6
649.568	48.6
649.899	48.56
650.229	48.51
650.56	48.6
650.89	48.56
651.221	48.42
651.551	48.41
651.882	48.34
652.212	48.22
652.542	48.25
652.872	48.26
653.203	48.4
653.533	48.41
653.863	48.37
654.193	48.41
654.523	48.29
654.853	48.28
655.183	48.29
655.513	48.31
655.843	48.1
656.172	48.18
656.502	48.15
656.832	48.13
657.162	48.26
657.491	48.32
657.821	48.44
658.15	48.51
658.48	48.56
658.809	48.62
659.139	48.63
659.468	48.57
659.798	48.57
660.127	48.45
660.456	48.39
660.785	48.52
661.115	48.49
661.444	48.58
661.773	48.53
662.102	48.49
662.431	48.49
662.76	48.55
663.089	48.56
663.418	48.65
663.747	48.75
664.076	48.71
664.404	48.74
664.733	48.64
665.062	48.75
665.39	48.81
665.719	48.83
666.048	48.85
666.376	48.97
666.705	48.91
667.033	49.05
667.362	49.06
667.69	49.02
668.018	49
668.347	48.99
668.675	49.13
669.003	49.16
669.331	49.17
669.659	49.31
669.987	49.13
670.315	49.06
670.643	49.01
670.971	48.91
671.299	48.74
671.627	48.75
671.955	48.63
672.283	48.69
672.61	48.64
672.938	48.7
673.266	48.62
673.593	48.8
673.921	48.74
674.249	48.9
674.576	48.88
674.904	48.9
675.231	48.94
675.558	48.82
675.886	48.98
676.213	48.99
676.54	49.02
676.867	49.24
677.195	49.4
677.522	49.34
677.849	49.35
678.176	49.45
678.503	49.48
678.83	49.48
679.157	49.39
679.484	49.51
679.81	49.47
680.137	49.63
680.464	49.51
680.791	49.61
681.117	49.51
681.444	49.54
681.771	49.57
682.097	49.7
682.424	49.84
682.75	49.8
683.077	49.81
683.403	49.66
683.729	49.57
684.056	49.54
684.382	49.62
684.708	49.7
685.034	49.69
685.36	49.68
685.686	49.92
686.012	49.93
686.339	49.81
686.664	49.86
686.99	49.68
687.316	49.9
687.642	49.73
687.968	49.9
688.294	49.78
688.619	49.69
688.945	49.49
689.271	49.23
689.596	49.11
689.922	49.16
690.247	49.2
690.573	49.15
690.898	49.15
691.224	48.93
691.549	48.94
691.874	48.8
692.2	48.78
692.525	48.51
692.85	48.43
693.175	48.41
693.5	48.52
693.825	48.66
694.15	48.68
694.475	48.71
694.8	48.71
695.125	48.9
695.45	48.86
695.775	48.85
696.099	49.19
696.424	49.25
696.749	49.2
697.073	49.17
697.398	49.27
697.723	49.26
698.047	49.33
698.372	49.35
698.696	49.52
699.02	49.53
699.345	49.65
699.669	49.83
699.993	50.04
700.318	50.05
700.642	50.02
700.966	49.82
701.29	49.93
701.614	49.61
701.938	49.58
702.262	49.65
702.586	49.74
702.91	49.59
703.234	49.44
703.557	49.28
703.881	49.38
704.205	49.28
704.529	49.29
704.852	49.43
705.176	49.35
705.499	49.2
705.823	49.1
706.146	49.09
706.47	49.08
706.793	48.93
707.117	48.91
707.44	48.81
707.763	48.91
708.086	48.93
708.409	49.39
708.733	49.4
709.056	49.54
709.379	49.6
709.702	49.51
710.025	49.56
710.348	49.74
710.671	49.96
710.993	49.85
711.316	49.96
711.639	49.79
711.962	49.93
712.284	50.01
712.607	50.11
712.93	50.15
713.252	50.19
713.575	50.14
713.897	50.12
714.22	50.12
714.542	49.97
714.864	49.86
715.187	49.9
715.509	49.9
715.831	49.86
716.153	49.71
716.475	49.72
716.798	49.93
717.12	50.03
717.442	49.73
717.764	49.83
718.085	49.84
718.407	49.97
718.729	49.71
719.051	49.67
719.373	49.72
719.695	49.55
720.016	49.33
720.338	49.37
720.659	49.21
720.981	49.35
721.302	49.81
721.624	49.83
721.945	49.57
722.267	49.44
722.588	49.3
722.909	49.58
723.231	49.55
723.552	49.64
723.873	49.45
724.194	49.56
724.515	49.76
724.836	49.25
725.157	49.24
725.478	49.46
725.799	49.6
726.12	49.5
726.441	49.73
726.762	49.79
727.083	49.61
727.403	49.73
727.724	49.79
728.045	49.61
728.365	49.71
728.686	49.82
729.006	49.97
729.327	50.11
729.647	50.16
729.967	50.18
730.288	49.9
730.608	50
730.928	50.24
731.249	49.96
731.569	50.31
731.889	50.65
732.209	50.72
732.529	50.54
732.849	50.78
733.169	50.77
733.489	50.82
733.809	50.89
734.129	50.83
734.448	50.57
734.768	50.51
735.088	50.64
735.408	50.55
735.727	50.62
736.047	50.74
736.366	50.48
736.686	50.77
737.005	50.83
737.325	50.67
737.644	50.36
737.963	50.79
738.283	50.67
738.602	50.47
738.921	50.7
739.24	50.81
739.56	50.72
739.879	50.72
740.198	50.52
740.517	50.85
740.836	51.09
741.155	51.18
741.473	51.09
741.792	51.01
742.111	51.22
742.43	51.08
742.748	51.23
743.067	51.1
743.386	51
743.704	51.39
744.023	51.65
744.341	51.75
744.66	51.59
744.978	51.65
745.297	51.52
745.615	51.47
745.933	51.59
746.252	51.46
746.57	51.21
746.888	51.64
747.206	51.61
747.524	51.55
747.842	51.38
748.16	51.56
748.478	51.39
748.796	51.24
749.114	51.35
749.432	51.42
749.749	51.8
750.067	51.69
750.385	51.4
750.703	51.03
751.02	51.04
751.338	51.25
751.655	51.3
751.973	51.54
752.29	51.21
752.608	50.89
752.925	50.76
753.242	51.01
753.56	50.75
753.877	50.84
754.194	50.88
754.511	51.1
754.828	50.88
755.145	50.92
755.462	50.67
755.779	50.57
756.096	50
756.413	50.11
756.73	50.07
757.047	50.24
757.364	50.56
757.68	50.41
757.997	50.26
758.314	50.38
758.63	50.21
758.947	50.4
759.264	50.75
759.58	51.06
759.896	50.95
760.213	50.86
760.529	50.8
760.846	50.93
761.162	51.23
761.478	51.39
761.794	51.61
762.11	51.73
762.426	51.61
762.743	51.81
763.059	51.95
763.375	51.77
763.69	51.44
764.006	51.4
764.322	51.7
764.638	51.71
764.954	51.93
765.27	51.98
765.585	52.06
765.901	52.14
766.216	52.16
766.532	52.34
766.848	52.5
767.163	52.45
767.478	52.34
767.794	52.31
768.109	52.29
768.424	52.27
768.74	52.46
769.055	52.85
769.37	52.86
769.685	52.34
770	52.44
770.315	52.34
770.63	52.48
770.945	52.15
771.26	52.09
771.575	51.56
771.89	51.55
772.205	51.21
772.52	51.21
772.834	51.08
773.149	51.02
773.464	50.88
773.778	50.97
774.093	50.64
774.407	50.55
774.722	51.01
775.036	50.98
775.351	51.02
775.665	51.02
775.979	51.01
776.293	51.65
776.608	52.11
776.922	52.67
777.236	52.71
777.55	52.88
777.864	53.25
778.178	53.27
778.492	53.02
778.806	53.62
779.12	53.42
779.434	53.41
779.747	53.27
780.061	53.46
780.375	52.79
780.689	53.48
781.002	52.7
781.316	52.51
781.629	52.22
781.943	52.04
782.256	51.84
782.57	51.96
782.883	51.79
783.196	51.74
783.51	52.16
783.823	51.91
784.136	51.59
784.449	51.59
784.762	51.88
785.075	52.05
785.388	52.02
785.701	51.94
786.014	52.02
786.327	52.34
786.64	52.29
786.953	52.99
787.266	52.56
787.578	53.01
787.891	52.95
788.204	53.36
788.516	53.68
788.829	53.61
789.141	53.79
789.454	53.78
789.766	53.46
790.079	53.14
790.391	53.11
790.703	53.14
791.016	52.53
791.328	52.16
791.64	52.33
791.952	52.28
792.264	52.46
792.576	52.61
792.888	53.04
793.2	53.33
793.512	53.32
793.824	53.8
794.136	54.25
794.448	53.62
794.76	53.19
795.071	52.88
795.383	52.79
795.695	52.33
796.006	52.48
796.318	52.38
796.629	52
796.941	52.34
797.252	52.41
797.564	52.47
797.875	52.71
798.186	52.72
798.497	52.49
798.809	51.87
799.12	51.85
799.431	51.43
799.742	51.32
800.053	50.99
800.364	50.88
800.675	50.9
800.986	51.2
801.297	51.56
801.608	52.15
801.918	53.29
802.229	52.93
802.54	52.78
802.851	53.44
803.161	54.05
803.472	53.79
803.782	54.44
804.093	54.87
804.403	55.09
804.714	54.19
805.024	53.73
805.334	54.34
805.645	53.73
805.955	53.15
806.265	53.8
806.575	53.64
806.885	53.3
807.195	52.9
807.505	52.84
807.815	52.56
808.125	51.73
808.435	50.38
808.745	51.41
809.055	51.31
809.365	50.74
809.674	50.44
809.984	50.89
810.294	50.14
810.603	49.55
810.913	49.1
811.222	49.39
811.532	50.62
811.841	50.92
812.151	50.93
812.46	50.77
812.769	50.76
813.079	51.8
813.388	52.12
813.697	52.25
814.006	52.89
814.315	52.48
814.624	52.78
814.933	52.62
815.242	52.09
815.551	52.33
815.86	52.33
816.169	52.5
816.478	52.29
816.786	52.42
817.095	53.04
817.404	53.64
817.712	54.24
818.021	53.92
818.33	53.2
818.638	54.4
818.947	54.4
819.255	53.34
819.563	52.47
819.872	51.87
820.18	51.86
820.488	51.67
820.796	51.6
821.105	51.9
821.413	52.19
821.721	52.09
822.029	52.13
822.337	51.89
822.645	51.93
822.953	52.03
823.26	52.06
823.568	52.01
823.876	52.11
824.184	51.94
824.491	51.88
824.799	52.04
825.107	51.86
825.414	51.93
825.722	52.01
826.029	52.36
826.337	52.61
826.644	52.62
826.951	52.73
827.259	52.96
827.566	52.78
827.873	52.68
828.18	52.99
828.488	53.07
828.795	53.37
829.102	53.38
829.409	53.36
829.716	53.46
830.023	53.39
830.329	52.71
830.636	53.17
830.943	53.37
831.25	53.28
831.557	52.84
831.863	53.04
832.17	53.41
832.476	53.61
832.783	53.53
833.089	53.4
833.396	53.54
833.702	53.52
834.009	53.83
834.315	54.25
834.621	53.79
834.928	53.71
835.234	53.81
835.54	53.71
835.846	53.63
836.152	53.44
836.458	54.23
836.764	55
837.07	55.19
837.376	54.81
837.682	55.08
837.988	56.03
838.293	55.9
838.599	55.21
838.905	53.82
839.211	54.12
839.516	54.54
839.822	54.22
840.127	54.2
840.433	54.24
840.738	53.18
841.044	53.3
841.349	53.35
841.654	53.97
841.959	53.77
842.265	54.02
842.57	54.88
842.875	52.68
843.18	53.55
843.485	52.96
843.79	52.6
844.095	52.53
844.4	52.02
844.705	53.63
845.01	55.49
845.315	56.78
845.619	57.02
845.924	58.02
846.229	58.06
846.533	58.72
846.838	56.32
847.142	58.14
847.447	58.5
847.751	57.97
848.056	57.4
848.36	60
848.664	60
848.969	59.55
849.273	61.98
849.577	61.73
849.881	60.35
850.185	60.3
850.489	60.83
850.794	61.06
851.097	59.07
851.401	58.08
851.705	58.08
852.009	56.9
852.313	56.08
852.617	57.43
852.92	57.14
853.224	62.7
853.528	62.5
853.831	62.49
854.135	64.62
854.438	65.56
854.742	63.23
855.045	64.05
855.349	64.49
855.652	63.64
855.955	62.45
856.259	66.23
856.562	67.87
856.865	69.47
857.168	66.6
857.471	65.56
857.774	64.8
858.077	64.31
858.38	66.47
858.683	67.64
858.986	65.83
859.289	67.66
859.592	66
859.894	68.15
860.197	69.58
860.5	65.6
860.802	62.72
861.105	61.14
861.407	58.22
861.71	58.1
862.012	58.18
862.315	57.36
862.617	56.19
862.919	55.14
863.222	51.39
863.524	52.77
863.826	50.32
864.128	48.25
864.43	50.35
864.732	49.05
865.034	47.13
865.336	48.15
865.638	45.91
865.94	45.97
866.242	43.35
866.544	45.7
866.846	49.78
867.147	51.85
867.449	56.13
867.751	59.81
868.052	59.8
868.354	59.81
868.655	61.52
868.957	60.89
869.258	59.24
869.56	62.24
869.861	62.88
870.162	66.28
870.463	68.43
870.765	67.85
871.066	66.64
871.367	67.06
871.668	68.48
871.969	69.1
872.27	68.19
872.571	67.78
872.872	65.22
873.173	63.86
873.473	64.11
873.774	61.77
874.075	58.73
874.376	59.43
874.676	61.08
874.977	59.5
875.277	56.63
875.578	58.22
875.878	56.18
876.179	56.03
876.479	55.29
876.78	57.11
877.08	55.63
877.38	57.31
877.68	58.53
877.981	56.64
878.281	57.05
878.581	55.62
