Data from MVZ_BU8942_Reflection_00013.txt Node
Date: Tue Nov 19 12:04:13 EST 2019
User: vgr7
Spectrometer: USB2G7710
Scans to average: 3
Trigger mode: 4
Integration Time (sec): 2.000000E-2
Electric dark correction enabled: true
Boxcar width: 10
XAxis mode: Wavelengths
Number of Pixels in Spectrum: 2048
>>>>>Begin Spectral Data<<<<<
177.721	127.52
178.105	119.48
178.488	-135.96
178.871	528.57
179.254	-440
179.636	-36.86
180.019	-63.37
180.402	4.55
180.785	-14
181.168	-458.14
181.55	1600
181.933	-192.37
182.316	-65.75
182.698	-58.45
183.081	-105.04
183.463	-147.93
183.846	-64.38
184.228	-61.43
184.611	-80.5
184.993	-65.79
185.376	1.38
185.758	-15.38
186.14	-97.87
186.522	-383.05
186.904	-321.88
187.287	-238.71
187.669	-176.32
188.051	-191.5
188.433	-197.83
188.815	-185.45
189.197	-116.38
189.579	-115.8
189.961	-224.32
190.342	-190.19
190.724	-127.08
191.106	-151.2
191.488	-107.97
191.869	-105.52
192.251	-65.72
192.633	-45.97
193.014	-40.04
193.396	-53.54
193.777	-27.69
194.159	-29.05
194.54	-10.27
194.922	-12.46
195.303	-26.8
195.684	-44.94
196.065	-43.69
196.447	-51.44
196.828	-50.57
197.209	-46.6
197.59	-23.8
197.971	-9.84
198.352	-3.32
198.733	-25.46
199.114	-74.58
199.495	-154.83
199.876	-160.15
200.257	-191.12
200.638	-146.84
201.018	-191.98
201.399	-120.81
201.78	-142.39
202.16	-126.53
202.541	-159.95
202.922	-197.83
203.302	-95.81
203.683	-117.5
204.063	-98.7
204.444	-41.44
204.824	-41.89
205.204	-9.76
205.585	-19.52
205.965	-38.7
206.345	-32.96
206.725	2.02
207.106	22.08
207.486	29.94
207.866	39.74
208.246	67.03
208.626	24.83
209.006	-6.12
209.386	-32.62
209.766	-17.07
210.145	20.84
210.525	-25.68
210.905	-54.96
211.285	-73.55
211.664	-42.24
212.044	-27.66
212.424	-46.49
212.803	-52.85
213.183	-63.29
213.562	-45.16
213.942	-46.87
214.321	-64.41
214.701	-121.41
215.08	-149.32
215.459	-103.97
215.838	-87.78
216.218	-105.45
216.597	-91.15
216.976	-102.16
217.355	-85.34
217.734	-97.85
218.113	-114.29
218.492	-81.08
218.871	-78.13
219.25	-94.24
219.629	-100.17
220.008	-100.16
220.387	-74.71
220.766	-72.4
221.144	-79.3
221.523	-100.76
221.902	-97.24
222.28	-56.11
222.659	-39.59
223.037	-32.38
223.416	-25.15
223.794	-7.46
224.173	-6
224.551	-5.6
224.929	0.69
225.308	4.46
225.686	7.94
226.064	8.67
226.442	11.24
226.821	18.56
227.199	15.74
227.577	18.85
227.955	19.51
228.333	20.39
228.711	21.98
229.089	21.34
229.467	19.76
229.845	15.68
230.222	11.49
230.6	8.22
230.978	8.59
231.356	6.46
231.733	5.17
232.111	3.78
232.488	4.99
232.866	6.4
233.243	6.3
233.621	5.99
233.998	4.9
234.376	3.66
234.753	1.36
235.13	1.33
235.508	1.32
235.885	-0.32
236.262	1.25
236.639	0.65
237.016	0.84
237.393	1
237.77	1.53
238.147	1.98
238.524	2.91
238.901	2.38
239.278	1.64
239.655	0.91
240.032	1.68
240.409	1.82
240.785	1.63
241.162	1.18
241.539	1.16
241.915	0.77
242.292	1.22
242.668	1.14
243.045	2.17
243.421	2.36
243.798	2.56
244.174	2.33
244.551	2.51
244.927	2.52
245.303	2.32
245.679	2.51
246.056	2.48
246.432	2.56
246.808	2.75
247.184	3
247.56	3.1
247.936	3.17
248.312	3.01
248.688	2.79
249.064	2.95
249.44	2.98
249.815	3.34
250.191	3.51
250.567	3.62
250.943	3.35
251.318	3.24
251.694	3.18
252.069	3.2
252.445	3.23
252.82	3.62
253.196	4.01
253.571	4.2
253.947	4.25
254.322	4.08
254.697	3.78
255.073	3.74
255.448	3.59
255.823	3.64
256.198	3.5
256.573	3.68
256.948	3.61
257.323	3.76
257.698	3.67
258.073	3.41
258.448	3.46
258.823	3.44
259.198	3.41
259.573	3.42
259.948	3.52
260.322	3.34
260.697	3.33
261.072	3.31
261.446	3.27
261.821	3.2
262.195	3.2
262.57	3.31
262.944	3.42
263.319	3.31
263.693	3.17
264.067	3.25
264.442	3.15
264.816	3.05
265.19	3.05
265.564	2.94
265.938	3.02
266.313	2.8
266.687	2.81
267.061	3.09
267.435	3.22
267.809	3.04
268.183	3.04
268.556	2.93
268.93	2.97
269.304	2.99
269.678	3.13
270.051	3.37
270.425	3.26
270.799	2.94
271.172	3.25
271.546	3.25
271.919	3.28
272.293	3.57
272.666	3.72
273.04	3.5
273.413	3.45
273.787	3.39
274.16	3.41
274.533	3.45
274.906	3.33
275.279	3.29
275.653	3.44
276.026	3.54
276.399	3.58
276.772	3.65
277.145	3.63
277.518	3.45
277.891	3.27
278.263	3.33
278.636	3.66
279.009	3.52
279.382	3.5
279.755	3.47
280.127	3.13
280.5	3.01
280.872	3.29
281.245	3.27
281.617	3.3
281.99	3.46
282.362	3.5
282.735	3.5
283.107	3.41
283.479	3.36
283.852	3.42
284.224	3.44
284.596	3.42
284.968	3.36
285.34	3.34
285.713	3.48
286.085	3.39
286.457	3.27
286.829	3.17
287.201	3.24
287.572	3.29
287.944	3.33
288.316	3.47
288.688	3.41
289.06	3.55
289.431	3.63
289.803	3.69
290.175	3.66
290.546	3.63
290.918	3.85
291.289	3.77
291.661	3.74
292.032	3.71
292.403	3.67
292.775	3.69
293.146	3.89
293.517	3.73
293.889	3.84
294.26	3.9
294.631	3.97
295.002	4.02
295.373	3.99
295.744	4.15
296.115	4.07
296.486	4.03
296.857	4.07
297.228	3.98
297.599	3.97
297.97	3.97
298.34	4.11
298.711	4.06
299.082	4.24
299.452	4.25
299.823	4.3
300.194	4.39
300.564	4.41
300.935	4.42
301.305	4.62
301.676	4.63
302.046	4.68
302.416	4.81
302.787	4.89
303.157	5.17
303.527	5.12
303.897	5
304.267	5.07
304.637	5.08
305.008	5.13
305.378	5.16
305.748	5.22
306.117	5.11
306.487	5.18
306.857	5.14
307.227	5.16
307.597	5.19
307.967	5.16
308.336	5.18
308.706	5.27
309.076	5.35
309.445	5.45
309.815	5.44
310.184	5.41
310.554	5.29
310.923	5.13
311.293	5.07
311.662	5.33
312.031	5.41
312.401	5.49
312.77	5.51
313.139	5.48
313.508	5.49
313.877	5.54
314.246	5.51
314.616	5.66
314.985	5.52
315.353	5.55
315.722	5.67
316.091	5.71
316.46	5.81
316.829	5.74
317.198	5.87
317.567	6
317.935	6.06
318.304	6.32
318.672	6.48
319.041	6.71
319.41	6.7
319.778	6.72
320.147	6.69
320.515	6.97
320.883	7.07
321.252	7.08
321.62	7.16
321.988	7.27
322.357	7.26
322.725	7.57
323.093	7.63
323.461	7.59
323.829	7.66
324.197	7.5
324.565	7.53
324.933	7.51
325.301	7.38
325.669	7.42
326.037	7.46
326.405	7.48
326.772	7.53
327.14	7.47
327.508	7.61
327.875	7.66
328.243	7.58
328.61	7.56
328.978	7.63
329.346	7.67
329.713	7.54
330.08	7.49
330.448	7.5
330.815	7.55
331.182	7.54
331.55	7.68
331.917	7.73
332.284	7.74
332.651	7.72
333.018	7.81
333.385	7.95
333.752	8.01
334.119	8
334.486	7.92
334.853	7.97
335.22	7.9
335.587	7.91
335.954	7.98
336.32	7.98
336.687	8.1
337.054	8.09
337.42	8.23
337.787	8.1
338.153	8.13
338.52	8.24
338.886	8.28
339.253	8.25
339.619	8.38
339.986	8.33
340.352	8.42
340.718	8.43
341.084	8.27
341.451	8.25
341.817	8.16
342.183	8.26
342.549	8.33
342.915	8.34
343.281	8.4
343.647	8.42
344.013	8.42
344.379	8.41
344.745	8.39
345.11	8.37
345.476	8.58
345.842	8.57
346.208	8.63
346.573	8.75
346.939	8.81
347.304	8.82
347.67	8.92
348.035	8.93
348.401	9
348.766	9.05
349.132	9.15
349.497	9.29
349.862	9.28
350.228	9.35
350.593	9.37
350.958	9.41
351.323	9.26
351.688	9.47
352.053	9.42
352.418	9.46
352.783	9.51
353.148	9.55
353.513	9.54
353.878	9.51
354.243	9.38
354.608	9.37
354.972	9.31
355.337	9.34
355.702	9.23
356.066	9.3
356.431	9.31
356.795	9.22
357.16	9.23
357.524	9.18
357.889	9.1
358.253	9.14
358.618	9.18
358.982	9.26
359.346	9.18
359.71	9.26
360.075	9.29
360.439	9.33
360.803	9.25
361.167	9.25
361.531	9.16
361.895	9.27
362.259	9.35
362.623	9.35
362.987	9.3
363.351	9.35
363.714	9.24
364.078	9.27
364.442	9.25
364.806	9.22
365.169	9.25
365.533	9.29
365.896	9.23
366.26	9.1
366.623	9.07
366.987	8.99
367.35	8.88
367.714	8.83
368.077	8.78
368.44	8.85
368.803	8.8
369.167	8.78
369.53	8.76
369.893	8.66
370.256	8.69
370.619	8.63
370.982	8.57
371.345	8.6
371.708	8.57
372.071	8.56
372.434	8.57
372.797	8.5
373.159	8.43
373.522	8.4
373.885	8.4
374.247	8.42
374.61	8.43
374.973	8.43
375.335	8.3
375.698	8.19
376.06	8.04
376.423	8.02
376.785	8.03
377.147	7.93
377.51	7.89
377.872	7.77
378.234	7.8
378.596	7.78
378.958	7.8
379.321	7.71
379.683	7.67
380.045	7.52
380.407	7.5
380.769	7.42
381.13	7.35
381.492	7.26
381.854	7.15
382.216	7.12
382.578	7.07
382.939	7.14
383.301	7.09
383.663	7.1
384.024	7.03
384.386	6.98
384.747	6.89
385.109	6.86
385.47	6.88
385.832	6.8
386.193	6.78
386.554	6.66
386.916	6.67
387.277	6.64
387.638	6.62
387.999	6.55
388.36	6.54
388.721	6.55
389.082	6.59
389.443	6.56
389.804	6.55
390.165	6.52
390.526	6.52
390.887	6.5
391.248	6.46
391.609	6.47
391.969	6.37
392.33	6.34
392.691	6.29
393.051	6.2
393.412	6.17
393.772	6.09
394.133	6.07
394.493	6
394.854	5.93
395.214	5.95
395.574	5.93
395.935	5.9
396.295	5.84
396.655	5.77
397.015	5.74
397.376	5.69
397.736	5.66
398.096	5.54
398.456	5.55
398.816	5.49
399.176	5.45
399.535	5.44
399.895	5.43
400.255	5.36
400.615	5.38
400.975	5.33
401.334	5.3
401.694	5.26
402.054	5.22
402.413	5.23
402.773	5.15
403.132	5.13
403.492	5.07
403.851	5.05
404.211	5.07
404.57	5.1
404.929	5.04
405.288	5
405.648	4.98
406.007	4.93
406.366	4.95
406.725	4.91
407.084	4.92
407.443	4.88
407.802	4.87
408.161	4.82
408.52	4.83
408.879	4.83
409.238	4.83
409.596	4.83
409.955	4.79
410.314	4.79
410.673	4.79
411.031	4.8
411.39	4.83
411.748	4.78
412.107	4.72
412.465	4.7
412.824	4.68
413.182	4.65
413.54	4.6
413.899	4.59
414.257	4.58
414.615	4.55
414.974	4.53
415.332	4.52
415.69	4.52
416.048	4.5
416.406	4.48
416.764	4.46
417.122	4.47
417.48	4.44
417.838	4.44
418.195	4.42
418.553	4.4
418.911	4.36
419.269	4.36
419.626	4.32
419.984	4.32
420.342	4.32
420.699	4.31
421.057	4.3
421.414	4.27
421.772	4.28
422.129	4.27
422.486	4.27
422.844	4.26
423.201	4.26
423.558	4.23
423.915	4.22
424.273	4.21
424.63	4.18
424.987	4.18
425.344	4.16
425.701	4.13
426.058	4.11
426.415	4.09
426.772	4.06
427.128	4.08
427.485	4.06
427.842	4.04
428.199	4.04
428.555	4.03
428.912	4.02
429.269	3.98
429.625	3.96
429.982	3.95
430.338	3.93
430.695	3.9
431.051	3.92
431.407	3.91
431.764	3.89
432.12	3.91
432.476	3.9
432.832	3.92
433.189	3.93
433.545	3.94
433.901	3.94
434.257	3.93
434.613	3.94
434.969	3.92
435.325	3.92
435.681	3.91
436.036	3.93
436.392	3.93
436.748	3.92
437.104	3.94
437.459	3.95
437.815	3.96
438.171	3.96
438.526	3.96
438.882	3.97
439.237	3.98
439.593	3.97
439.948	3.97
440.304	3.96
440.659	3.96
441.014	3.97
441.369	3.98
441.725	3.99
442.08	3.98
442.435	3.98
442.79	3.98
443.145	4
443.5	3.99
443.855	3.97
444.21	3.97
444.565	3.96
444.92	3.93
445.275	3.91
445.629	3.9
445.984	3.9
446.339	3.88
446.693	3.88
447.048	3.87
447.403	3.85
447.757	3.84
448.112	3.83
448.466	3.81
448.82	3.79
449.175	3.78
449.529	3.78
449.883	3.78
450.238	3.76
450.592	3.74
450.946	3.73
451.3	3.73
451.654	3.72
452.008	3.73
452.362	3.74
452.716	3.75
453.07	3.74
453.424	3.72
453.778	3.69
454.132	3.69
454.486	3.68
454.839	3.68
455.193	3.69
455.547	3.7
455.9	3.69
456.254	3.7
456.607	3.71
456.961	3.71
457.314	3.71
457.668	3.72
458.021	3.74
458.375	3.73
458.728	3.74
459.081	3.74
459.434	3.74
459.787	3.74
460.141	3.74
460.494	3.76
460.847	3.79
461.2	3.81
461.553	3.83
461.906	3.84
462.259	3.85
462.611	3.87
462.964	3.87
463.317	3.9
463.67	3.9
464.022	3.88
464.375	3.9
464.728	3.9
465.08	3.91
465.433	3.9
465.785	3.95
466.138	3.96
466.49	3.98
466.843	3.99
467.195	4.01
467.547	4.04
467.899	4.04
468.252	4.04
468.604	4.08
468.956	4.1
469.308	4.1
469.66	4.14
470.012	4.17
470.364	4.19
470.716	4.22
471.068	4.26
471.42	4.25
471.772	4.26
472.123	4.31
472.475	4.31
472.827	4.35
473.178	4.35
473.53	4.38
473.882	4.4
474.233	4.43
474.585	4.43
474.936	4.42
475.288	4.41
475.639	4.44
475.99	4.43
476.342	4.43
476.693	4.44
477.044	4.42
477.395	4.39
477.746	4.36
478.097	4.35
478.448	4.31
478.8	4.34
479.15	4.33
479.501	4.31
479.852	4.3
480.203	4.28
480.554	4.28
480.905	4.26
481.255	4.24
481.606	4.23
481.957	4.24
482.307	4.23
482.658	4.24
483.009	4.23
483.359	4.22
483.709	4.22
484.06	4.22
484.41	4.21
484.761	4.22
485.111	4.23
485.461	4.22
485.811	4.24
486.162	4.23
486.512	4.22
486.862	4.23
487.212	4.24
487.562	4.23
487.912	4.23
488.262	4.23
488.612	4.24
488.961	4.24
489.311	4.23
489.661	4.24
490.011	4.23
490.36	4.22
490.71	4.22
491.06	4.22
491.409	4.21
491.759	4.23
492.108	4.24
492.458	4.25
492.807	4.26
493.157	4.26
493.506	4.27
493.855	4.3
494.204	4.3
494.554	4.32
494.903	4.34
495.252	4.37
495.601	4.4
495.95	4.42
496.299	4.46
496.648	4.51
496.997	4.56
497.346	4.61
497.695	4.66
498.043	4.72
498.392	4.78
498.741	4.85
499.09	4.88
499.438	4.93
499.787	4.97
500.135	5.03
500.484	5.1
500.832	5.19
501.181	5.23
501.529	5.31
501.878	5.37
502.226	5.44
502.574	5.53
502.923	5.62
503.271	5.7
503.619	5.78
503.967	5.86
504.315	5.93
504.663	6.03
505.011	6.12
505.359	6.21
505.707	6.31
506.055	6.39
506.403	6.49
506.751	6.6
507.098	6.72
507.446	6.82
507.794	6.93
508.141	7.02
508.489	7.16
508.837	7.26
509.184	7.39
509.531	7.52
509.879	7.62
510.226	7.75
510.574	7.88
510.921	8.01
511.268	8.12
511.616	8.26
511.963	8.4
512.31	8.57
512.657	8.69
513.004	8.83
513.351	8.97
513.698	9.15
514.045	9.31
514.392	9.48
514.739	9.68
515.086	9.89
515.432	10.07
515.779	10.22
516.126	10.42
516.473	10.56
516.819	10.71
517.166	10.87
517.512	11.01
517.859	11.14
518.205	11.24
518.552	11.41
518.898	11.57
519.245	11.7
519.591	11.86
519.937	12.01
520.283	12.17
520.629	12.34
520.976	12.5
521.322	12.66
521.668	12.82
522.014	12.99
522.36	13.14
522.706	13.35
523.052	13.54
523.398	13.75
523.743	13.99
524.089	14.24
524.435	14.47
524.781	14.67
525.126	14.87
525.472	15.08
525.817	15.22
526.163	15.38
526.509	15.53
526.854	15.65
527.199	15.78
527.545	15.91
527.89	16.04
528.235	16.16
528.581	16.28
528.926	16.4
529.271	16.54
529.616	16.68
529.961	16.82
530.306	16.97
530.651	17.1
530.996	17.25
531.341	17.4
531.686	17.54
532.031	17.71
532.376	17.86
532.721	18.04
533.065	18.21
533.41	18.37
533.755	18.54
534.099	18.72
534.444	18.9
534.788	19.08
535.133	19.28
535.477	19.46
535.822	19.68
536.166	19.89
536.51	20.1
536.855	20.33
537.199	20.57
537.543	20.82
537.887	21.06
538.231	21.29
538.576	21.55
538.92	21.83
539.264	22.05
539.608	22.26
539.951	22.46
540.295	22.64
540.639	22.83
540.983	23.04
541.327	23.23
541.671	23.43
542.014	23.64
542.358	23.8
542.701	23.98
543.045	24.18
543.389	24.39
543.732	24.6
544.075	24.81
544.419	25.01
544.762	25.18
545.105	25.39
545.449	25.6
545.792	25.78
546.135	26
546.478	26.25
546.821	26.55
547.165	26.8
547.508	27.12
547.851	27.41
548.194	27.7
548.536	28
548.879	28.26
549.222	28.49
549.565	28.8
549.908	29.09
550.25	29.37
550.593	29.66
550.936	29.9
551.278	30.12
551.621	30.37
551.963	30.7
552.306	30.98
552.648	31.27
552.991	31.55
553.333	31.81
553.675	32.09
554.017	32.33
554.36	32.62
554.702	32.87
555.044	33.1
555.386	33.34
555.728	33.61
556.07	33.88
556.412	34.18
556.754	34.46
557.096	34.72
557.438	34.94
557.78	35.19
558.121	35.47
558.463	35.8
558.805	36.07
559.147	36.36
559.488	36.59
559.83	36.87
560.171	37.15
560.513	37.38
560.854	37.59
561.196	37.83
561.537	38.06
561.878	38.22
562.22	38.45
562.561	38.7
562.902	38.93
563.243	39.16
563.584	39.38
563.925	39.53
564.266	39.74
564.607	39.96
564.948	40.17
565.289	40.38
565.63	40.51
565.971	40.65
566.312	40.84
566.653	41.04
566.993	41.22
567.334	41.38
567.675	41.57
568.015	41.79
568.356	42.02
568.696	42.18
569.037	42.39
569.377	42.62
569.718	42.82
570.058	42.96
570.398	43.17
570.739	43.31
571.079	43.57
571.419	43.77
571.759	43.96
572.099	44.09
572.439	44.21
572.779	44.38
573.119	44.58
573.459	44.73
573.799	44.84
574.139	44.98
574.479	45.16
574.819	45.3
575.158	45.46
575.498	45.54
575.838	45.73
576.177	45.88
576.517	45.95
576.856	46.01
577.196	46.17
577.535	46.29
577.875	46.47
578.214	46.53
578.553	46.64
578.893	46.79
579.232	46.83
579.571	47.03
579.91	47.15
580.25	47.33
580.589	47.36
580.928	47.46
581.267	47.63
581.606	47.71
581.945	47.86
582.283	47.97
582.622	48.09
582.961	48.2
583.3	48.34
583.639	48.52
583.977	48.72
584.316	48.82
584.654	48.95
584.993	49.08
585.332	49.14
585.67	49.29
586.008	49.32
586.347	49.55
586.685	49.64
587.024	49.75
587.362	49.84
587.7	50
588.038	50.14
588.376	50.2
588.715	50.25
589.053	50.31
589.391	50.34
589.729	50.47
590.067	50.61
590.404	50.68
590.742	50.7
591.08	50.77
591.418	50.87
591.756	50.86
592.093	50.81
592.431	50.93
592.769	51.05
593.106	51.15
593.444	51.23
593.781	51.3
594.119	51.37
594.456	51.4
594.793	51.48
595.131	51.53
595.468	51.65
595.805	51.77
596.143	51.8
596.48	51.85
596.817	51.92
597.154	51.94
597.491	51.93
597.828	52.06
598.165	52.12
598.502	52.17
598.839	52.29
599.176	52.46
599.512	52.54
599.849	52.53
600.186	52.62
600.523	52.65
600.859	52.68
601.196	52.77
601.532	52.77
601.869	52.77
602.205	52.85
602.542	52.74
602.878	52.77
603.215	52.88
603.551	52.93
603.887	52.88
604.223	52.93
604.56	52.99
604.896	52.97
605.232	52.91
605.568	52.94
605.904	52.88
606.24	52.95
606.576	52.99
606.912	53.05
607.248	53.09
607.583	53.11
607.919	53.15
608.255	53.14
608.591	53.25
608.926	53.36
609.262	53.38
609.597	53.55
609.933	53.6
610.268	53.61
610.604	53.7
610.939	53.81
611.275	53.82
611.61	53.86
611.945	53.92
612.281	53.99
612.616	54.09
612.951	54.28
613.286	54.24
613.621	54.25
613.956	54.34
614.291	54.36
614.626	54.34
614.961	54.44
615.296	54.52
615.631	54.47
615.966	54.51
616.3	54.63
616.635	54.62
616.97	54.66
617.304	54.66
617.639	54.65
617.973	54.7
618.308	54.69
618.642	54.73
618.977	54.76
619.311	54.79
619.646	54.85
619.98	54.8
620.314	54.76
620.648	54.73
620.983	54.62
621.317	54.69
621.651	54.88
621.985	54.97
622.319	54.96
622.653	54.99
622.987	54.87
623.321	54.87
623.655	54.91
623.988	54.97
624.322	55.02
624.656	55.02
624.99	54.96
625.323	55
625.657	55.04
625.99	55.04
626.324	55.08
626.657	54.97
626.991	55.01
627.324	55.01
627.658	55.01
627.991	55
628.324	55.01
628.657	54.97
628.991	54.94
629.324	54.97
629.657	54.98
629.99	54.99
630.323	54.96
630.656	55.03
630.989	55.04
631.322	55.01
631.655	55.01
631.987	55.06
632.32	55.09
632.653	55.16
632.986	55.1
633.318	55.19
633.651	55.35
633.984	55.38
634.316	55.43
634.649	55.55
634.981	55.61
635.313	55.55
635.646	55.49
635.978	55.4
636.31	55.35
636.643	55.5
636.975	55.59
637.307	55.66
637.639	55.55
637.971	55.57
638.303	55.64
638.635	55.65
638.967	55.64
639.299	55.62
639.631	55.56
639.963	55.75
640.295	55.63
640.626	55.46
640.958	55.47
641.29	55.49
641.621	55.47
641.953	55.51
642.285	55.55
642.616	55.66
642.948	55.71
643.279	55.83
643.61	55.78
643.942	55.88
644.273	55.8
644.604	55.79
644.936	55.69
645.267	55.64
645.598	55.67
645.929	55.72
646.26	55.87
646.591	55.88
646.922	55.84
647.253	56.03
647.584	56.12
647.915	56.09
648.245	56.17
648.576	56.26
648.907	56.33
649.238	56.35
649.568	56.32
649.899	56.4
650.229	56.4
650.56	56.35
650.89	56.21
651.221	56.34
651.551	56.5
651.882	56.67
652.212	56.73
652.542	56.74
652.872	56.7
653.203	56.71
653.533	56.74
653.863	56.82
654.193	56.71
654.523	56.6
654.853	56.66
655.183	56.66
655.513	56.6
655.843	56.59
656.172	56.7
656.502	56.63
656.832	56.52
657.162	56.54
657.491	56.68
657.821	56.81
658.15	56.8
658.48	56.72
658.809	56.73
659.139	56.76
659.468	56.83
659.798	56.86
660.127	56.82
660.456	56.72
660.785	56.74
661.115	56.74
661.444	56.78
661.773	56.82
662.102	56.83
662.431	56.81
662.76	56.78
663.089	56.77
663.418	56.84
663.747	57.03
664.076	57.09
664.404	56.95
664.733	56.85
665.062	56.93
665.39	56.99
665.719	56.96
666.048	56.99
666.376	57
666.705	57.02
667.033	56.82
667.362	56.97
667.69	57
668.018	57.03
668.347	57.13
668.675	57.19
669.003	57.15
669.331	57.24
669.659	57.3
669.987	57.36
670.315	57.44
670.643	57.33
670.971	57.27
671.299	57.41
671.627	57.49
671.955	57.42
672.283	57.43
672.61	57.54
672.938	57.64
673.266	57.56
673.593	57.64
673.921	57.89
674.249	57.74
674.576	57.6
674.904	57.77
675.231	57.7
675.558	57.58
675.886	57.61
676.213	57.5
676.54	57.5
676.867	57.4
677.195	57.47
677.522	57.56
677.849	57.56
678.176	57.58
678.503	57.58
678.83	57.6
679.157	57.59
679.484	57.48
679.81	57.48
680.137	57.44
680.464	57.34
680.791	57.28
681.117	57.36
681.444	57.4
681.771	57.3
682.097	57.43
682.424	57.49
682.75	57.5
683.077	57.54
683.403	57.56
683.729	57.66
684.056	57.71
684.382	57.8
684.708	57.83
685.034	57.74
685.36	57.66
685.686	57.75
686.012	57.76
686.339	57.84
686.664	57.74
686.99	57.86
687.316	57.79
687.642	57.81
687.968	57.86
688.294	58.08
688.619	57.99
688.945	57.9
689.271	58.04
689.596	57.96
689.922	58.06
690.247	58.07
690.573	57.95
690.898	57.68
691.224	57.54
691.549	57.53
691.874	57.49
692.2	57.41
692.525	57.36
692.85	57.43
693.175	57.29
693.5	57.22
693.825	57.22
694.15	57.38
694.475	57.56
694.8	57.52
695.125	57.3
695.45	57.38
695.775	57.48
696.099	57.5
696.424	57.62
696.749	57.54
697.073	57.38
697.398	57.4
697.723	57.55
698.047	57.57
698.372	57.51
698.696	57.57
699.02	57.83
699.345	57.99
699.669	57.92
699.993	57.98
700.318	58.07
700.642	58.1
700.966	58.17
701.29	58.04
701.614	58
701.938	58.12
702.262	58.08
702.586	57.93
702.91	57.8
703.234	57.74
703.557	57.85
703.881	57.94
704.205	57.94
704.529	57.95
704.852	57.75
705.176	57.97
705.499	57.99
705.823	57.94
706.146	57.62
706.47	57.69
706.793	57.71
707.117	57.92
707.44	57.83
707.763	57.81
708.086	57.96
708.409	57.92
708.733	57.88
709.056	57.82
709.379	57.91
709.702	57.95
710.025	58.18
710.348	58.28
710.671	58.47
710.993	58.36
711.316	58.31
711.639	58.42
711.962	58.33
712.284	58.42
712.607	58.5
712.93	58.73
713.252	58.58
713.575	58.59
713.897	58.39
714.22	58.6
714.542	58.57
714.864	58.37
715.187	58.47
715.509	58.38
715.831	58.64
716.153	58.79
716.475	58.72
716.798	58.61
717.12	58.68
717.442	58.57
717.764	58.88
718.085	58.92
718.407	58.94
718.729	58.86
719.051	58.58
719.373	58.51
719.695	58.35
720.016	58.5
720.338	58.42
720.659	58.37
720.981	57.93
721.302	58
721.624	57.98
721.945	58.01
722.267	58.19
722.588	57.98
722.909	58.13
723.231	58.11
723.552	58.05
723.873	57.98
724.194	58.03
724.515	57.8
724.836	57.98
725.157	58.01
725.478	57.9
725.799	58.21
726.12	58.23
726.441	58.41
726.762	58.46
727.083	58.61
727.403	58.69
727.724	59.01
728.045	58.96
728.365	59.03
728.686	58.99
729.006	58.93
729.327	59.08
729.647	58.76
729.967	58.81
730.288	58.99
730.608	58.88
730.928	59.05
731.249	59.22
731.569	59.13
731.889	59.23
732.209	59.43
732.529	59.47
732.849	59.53
733.169	59.52
733.489	59.68
733.809	59.41
734.129	59.45
734.448	59.45
734.768	59.38
735.088	59.3
735.408	59.28
735.727	59.18
736.047	59.05
736.366	59.18
736.686	59.18
737.005	59.07
737.325	59
737.644	58.78
737.963	58.85
738.283	58.75
738.602	58.59
738.921	58.59
739.24	58.65
739.56	58.48
739.879	58.32
740.198	57.87
740.517	58.22
740.836	58.07
741.155	58.06
741.473	58.06
741.792	58.16
742.111	58.47
742.43	58.76
742.748	59.07
743.067	59.11
743.386	59.09
743.704	59.22
744.023	59.45
744.341	59.38
744.66	59.18
744.978	59.24
745.297	59.17
745.615	59.19
745.933	59.08
746.252	59.14
746.57	59.22
746.888	59.72
747.206	59.5
747.524	59.61
747.842	59.43
748.16	59.77
748.478	59.87
748.796	59.69
749.114	59.54
749.432	59.22
749.749	59.1
750.067	59.1
750.385	59.24
750.703	59.15
751.02	59.43
751.338	59.37
751.655	59.48
751.973	59.47
752.29	59.68
752.608	59.63
752.925	59.45
753.242	59.36
753.56	59.43
753.877	59.89
754.194	59.84
754.511	60.06
754.828	59.88
755.145	60.1
755.462	60.08
755.779	60.22
756.096	60.36
756.413	60.58
756.73	60.7
757.047	60.58
757.364	60.61
757.68	60.59
757.997	61.12
758.314	61
758.63	61.31
758.947	61.38
759.264	61.49
759.58	61.8
759.896	62
760.213	61.37
760.529	60.91
760.846	61.07
761.162	61.03
761.478	61.07
761.794	60.53
762.11	60.34
762.426	60.48
762.743	60.61
763.059	60.39
763.375	60.46
763.69	60.34
764.006	60.44
764.322	60.45
764.638	60.16
764.954	60.12
765.27	59.96
765.585	59.67
765.901	59.81
766.216	59.74
766.532	59.67
766.848	60.04
767.163	59.88
767.478	60.04
767.794	60.09
768.109	59.88
768.424	60.79
768.74	60.99
769.055	61.03
769.37	60.96
769.685	61.01
770	61.33
770.315	61.2
770.63	61.22
770.945	61.35
771.26	61.45
771.575	61.33
771.89	61.22
772.205	61.29
772.52	61.05
772.834	60.96
773.149	60.82
773.464	60.68
773.778	61.14
774.093	60.82
774.407	60.98
774.722	61.43
775.036	60.66
775.351	59.77
775.665	59.3
775.979	59.1
776.293	58.99
776.608	58.64
776.922	58.55
777.236	58.63
777.55	58.33
777.864	58.28
778.178	58.89
778.492	58.92
778.806	58.77
779.12	58.37
779.434	58.53
779.747	58.46
780.061	58.79
780.375	58.89
780.689	59.09
781.002	58.88
781.316	58.79
781.629	58.53
781.943	59.58
782.256	59.23
782.57	59.37
782.883	59.92
783.196	59.84
783.51	60.15
783.823	59.84
784.136	59.7
784.449	59.82
784.762	59.67
785.075	60.06
785.388	60.79
785.701	60.87
786.014	60.63
786.327	60.7
786.64	60.28
786.953	59.97
787.266	59.6
787.578	59.94
787.891	60.03
788.204	60.61
788.516	60.64
788.829	60.76
789.141	60.87
789.454	60.28
789.766	60.17
790.079	59.84
790.391	60.16
790.703	60.34
791.016	60.16
791.328	60.1
791.64	59.62
791.952	59.36
792.264	59.31
792.576	59.86
792.888	59.46
793.2	59.1
793.512	58.97
793.824	59.53
794.136	59.02
794.448	58.93
794.76	58.57
795.071	58.18
795.383	58.4
795.695	58.62
796.006	58.95
796.318	58.97
796.629	59.33
796.941	59.55
797.252	59.86
797.564	59.85
797.875	60.6
798.186	61.07
798.497	60.85
798.809	60.98
799.12	59.82
799.431	60.67
799.742	60.83
800.053	60.87
800.364	61
800.675	61.27
800.986	60.84
801.297	60.82
801.608	61.13
801.918	61.27
802.229	61.29
802.54	60.58
802.851	60.5
803.161	60.62
803.472	59.86
803.782	59.33
804.093	59.11
804.403	58.25
804.714	58.4
805.024	58.35
805.334	58.16
805.645	59.31
805.955	58.97
806.265	59.21
806.575	59.57
806.885	58.81
807.195	58.45
807.505	58.14
807.815	59.12
808.125	58.61
808.435	58.49
808.745	57.9
809.055	58.69
809.365	58.31
809.674	58.04
809.984	58.37
810.294	58.38
810.603	57.73
810.913	58.28
811.222	58.81
811.532	59.34
811.841	60.36
812.151	59.58
812.46	59.47
812.769	58.67
813.079	58.87
813.388	58.72
813.697	58.05
814.006	59.01
814.315	58.48
814.624	59.73
814.933	59.13
815.242	59.42
815.551	59.62
815.86	60.03
816.169	60.39
816.478	60.86
816.786	61.77
817.095	62.32
817.404	61.61
817.712	61.3
818.021	61.14
818.33	61.12
818.638	62.2
818.947	62.55
819.255	62.6
819.563	62.12
819.872	62.14
820.18	62.69
820.488	62.57
820.796	62.32
821.105	62.56
821.413	63.1
821.721	63.09
822.029	63.04
822.337	63.06
822.645	62.9
822.953	62.7
823.26	62.49
823.568	62.91
823.876	62.98
824.184	62.85
824.491	62.7
824.799	62.65
825.107	62.45
825.414	62.09
825.722	62.12
826.029	62.21
826.337	62.31
826.644	62.13
826.951	62.03
827.259	62.2
827.566	61.95
827.873	61.57
828.18	61.55
828.488	61.5
828.795	61.37
829.102	61.46
829.409	61.17
829.716	61.36
830.023	60.7
830.329	60.81
830.636	60.79
830.943	61.1
831.25	61.29
831.557	61.38
831.863	61.91
832.17	61.97
832.476	61.65
832.783	61.65
833.089	61.45
833.396	61.93
833.702	62.18
834.009	61.94
834.315	62.54
834.621	62.27
834.928	62.49
835.234	62.68
835.54	62.93
835.846	62.77
836.152	62.42
836.458	62.23
836.764	61.68
837.07	62.12
837.376	62.01
837.682	62.11
837.988	62.19
838.293	62.05
838.599	62.72
838.905	63.24
839.211	63.65
839.516	64.26
839.822	64.33
840.127	62.14
840.433	63.01
840.738	62.77
841.044	64.38
841.349	64.45
841.654	64.37
841.959	63.55
842.265	64.76
842.57	64.8
842.875	65.26
843.18	66.56
843.485	66.76
843.79	67.06
844.095	64.98
844.4	64.71
844.705	65.33
845.01	65.4
845.315	65.64
845.619	66.04
845.924	66.86
846.229	66.49
846.533	68.49
846.838	66.24
847.142	67.1
847.447	64.87
847.751	64.16
848.056	64.58
848.36	66.41
848.664	66.06
848.969	67.19
849.273	68.35
849.577	65.7
849.881	61
850.185	60.5
850.489	62.92
850.794	61.01
851.097	62.04
851.401	60.69
851.705	61.34
852.009	59.64
852.313	56.48
852.617	55.87
852.92	58.39
853.224	57.99
853.528	55.81
853.831	54.41
854.135	54.26
854.438	54.7
854.742	51.53
855.045	52.24
855.349	52.11
855.652	52.81
855.955	55.63
856.259	59.48
856.562	59.52
856.865	58.6
857.168	59.77
857.471	59.09
857.774	58.92
858.077	56.56
858.38	56.92
858.683	56.43
858.986	56.45
859.289	56.03
859.592	58.12
859.894	61.59
860.197	60.88
860.5	63.17
860.802	61.53
861.105	64.2
861.407	64.49
861.71	62.09
862.012	62.37
862.315	62.07
862.617	62.15
862.919	62.93
863.222	61.72
863.524	61.51
863.826	60.97
864.128	63.09
864.43	65.94
864.732	64.42
865.034	70.26
865.336	69.49
865.638	68.68
865.94	69.11
866.242	65.68
866.544	67.74
866.846	64.93
867.147	64.29
867.449	63.05
867.751	62.25
868.052	66.32
868.354	64.82
868.655	63.96
868.957	64.02
869.258	62.97
869.56	63.88
869.861	62.05
870.162	62.99
870.463	61.47
870.765	62.17
871.066	63.63
871.367	62.19
871.668	62.66
871.969	60.15
872.27	59.86
872.571	58.05
872.872	58.01
873.173	57.48
873.473	58.24
873.774	57.11
874.075	57.43
874.376	52.95
874.676	53.61
874.977	55.61
875.277	56.21
875.578	55.2
875.878	54.8
876.179	56.98
876.479	55.44
876.78	55.39
877.08	52.7
877.38	51.44
877.68	50.4
877.981	50.38
878.281	53.55
878.581	51.8
