Data from MVZ_BU62167_Reflection_00005.txt Node
Date: Tue Nov 19 12:14:26 EST 2019
User: vgr7
Spectrometer: USB2G7710
Scans to average: 3
Trigger mode: 4
Integration Time (sec): 2.000000E-2
Electric dark correction enabled: true
Boxcar width: 10
XAxis mode: Wavelengths
Number of Pixels in Spectrum: 2048
>>>>>Begin Spectral Data<<<<<
177.721	133.82
178.105	480.95
178.488	426.29
178.871	159.65
179.254	180.39
179.636	191.07
180.019	247.38
180.402	-18.75
180.785	-266.67
181.168	301.75
181.55	-163.29
181.933	-120.31
182.316	-171.54
182.698	-159.69
183.081	1451.85
183.463	260.13
183.846	365.43
184.228	-203.92
184.611	-60.75
184.993	-19.21
185.376	-57.73
185.758	-73.05
186.14	-222.22
186.522	-223.75
186.904	-184.31
187.287	-162.56
187.669	-284.85
188.051	-393.71
188.433	-14955.56
188.815	-2850.98
189.197	-568.72
189.579	940.14
189.961	797.74
190.342	-657.86
190.724	-2098.41
191.106	-206.79
191.488	-94.55
191.869	-98.52
192.251	-155.47
192.633	-133.69
193.014	-124.71
193.396	-103.85
193.777	-89.21
194.159	-68.53
194.54	-58.56
194.922	-71.04
195.303	-66.12
195.684	-82.43
196.065	-73
196.447	-49.46
196.828	-32.88
197.209	-44.91
197.59	-24.2
197.971	-15.7
198.352	-24.64
198.733	-21.14
199.114	-33.83
199.495	-47.4
199.876	-31.45
200.257	-14.91
200.638	-21.78
201.018	-24.3
201.399	-28.63
201.78	-27.22
202.16	-43.95
202.541	-37.3
202.922	-27.69
203.302	-25.07
203.683	-15.13
204.063	-17.28
204.444	-18.27
204.824	-21.79
205.204	-12.97
205.585	-17.43
205.965	-27.93
206.345	-24.73
206.725	-17.28
207.106	-18.68
207.486	-13.49
207.866	-20.01
208.246	-15.36
208.626	-28.05
209.006	-32.23
209.386	-24.36
209.766	-25.06
210.145	-13.06
210.525	-24.13
210.905	-17.17
211.285	-19.8
211.664	-9.07
212.044	-20.99
212.424	-23.21
212.803	-22.96
213.183	-25.06
213.562	-23.27
213.942	-18.59
214.321	-24
214.701	-27.57
215.08	-33.07
215.459	-34.31
215.838	-42.72
216.218	-51.63
216.597	-46.95
216.976	-41.19
217.355	-38.19
217.734	-33.44
218.113	-35.93
218.492	-35.41
218.871	-45.25
219.25	-55.66
219.629	-59
220.008	-44.73
220.387	-35.77
220.766	-38.16
221.144	-40.84
221.523	-43.42
221.902	-48.55
222.28	-46.43
222.659	-32.46
223.037	-41.05
223.416	-36.15
223.794	-26.67
224.173	-19.05
224.551	-15.37
224.929	-20.2
225.308	-16.09
225.686	-17.04
226.064	-15.05
226.442	-9.5
226.821	-3.61
227.199	2.34
227.577	-0.5
227.955	-1.01
228.333	-4.81
228.711	-3.71
229.089	-1.9
229.467	-1.24
229.845	-4.03
230.222	-2.82
230.6	-2.82
230.978	5.3
231.356	5.46
231.733	3.8
232.111	2.73
232.488	3.3
232.866	5.59
233.243	4.43
233.621	6.85
233.998	7.26
234.376	4.46
234.753	3.31
235.13	2.2
235.508	2.45
235.885	2.45
236.262	3.46
236.639	3.18
237.016	3.22
237.393	3.87
237.77	5.54
238.147	5.8
238.524	4.3
238.901	1.91
239.278	1.08
239.655	1.78
240.032	1.81
240.409	2.06
240.785	2.14
241.162	2.4
241.539	2.53
241.915	2.72
242.292	3.22
242.668	3.38
243.045	3.85
243.421	4.29
243.798	4.7
244.174	4.88
244.551	4.91
244.927	4.93
245.303	4.77
245.679	4.75
246.056	4.7
246.432	5.15
246.808	5.51
247.184	5.79
247.56	5.36
247.936	5.17
248.312	5.21
248.688	5.19
249.064	4.88
249.44	4.72
249.815	4.66
250.191	4.95
250.567	4.81
250.943	4.91
251.318	4.57
251.694	4.06
252.069	3.8
252.445	3.9
252.82	3.99
253.196	4.07
253.571	3.98
253.947	3.72
254.322	3.25
254.697	3.14
255.073	3.18
255.448	3.6
255.823	3.61
256.198	3.7
256.573	3.72
256.948	3.89
257.323	3.95
257.698	4.1
258.073	3.87
258.448	4.09
258.823	4
259.198	4.41
259.573	4.58
259.948	4.79
260.322	4.61
260.697	4.75
261.072	4.88
261.446	4.87
261.821	5
262.195	5.1
262.57	5.13
262.944	5.12
263.319	5.15
263.693	5.45
264.067	5.52
264.442	5.62
264.816	5.76
265.19	5.67
265.564	5.44
265.938	5.43
266.313	5.26
266.687	5.24
267.061	4.96
267.435	5.05
267.809	4.73
268.183	4.79
268.556	4.74
268.93	4.69
269.304	4.67
269.678	4.75
270.051	4.79
270.425	4.77
270.799	4.64
271.172	4.6
271.546	4.57
271.919	4.29
272.293	4.13
272.666	4.12
273.04	4.15
273.413	4.25
273.787	4.25
274.16	4.26
274.533	4.34
274.906	4.36
275.279	4.19
275.653	4.38
276.026	4.41
276.399	4.26
276.772	4.33
277.145	4.56
277.518	4.44
277.891	4.33
278.263	4.45
278.636	4.53
279.009	4.47
279.382	4.25
279.755	4.38
280.127	4.46
280.5	4.34
280.872	4.6
281.245	4.61
281.617	4.67
281.99	4.73
282.362	4.71
282.735	4.6
283.107	4.6
283.479	4.51
283.852	4.56
284.224	4.58
284.596	4.43
284.968	4.35
285.34	4.29
285.713	4.4
286.085	4.14
286.457	4.08
286.829	3.98
287.201	4.06
287.572	4.13
287.944	4.23
288.316	4.18
288.688	3.99
289.06	3.94
289.431	3.87
289.803	4.02
290.175	4
290.546	4.07
290.918	4.15
291.289	4.07
291.661	4.03
292.032	3.95
292.403	4.05
292.775	4.11
293.146	4.12
293.517	3.97
293.889	4.12
294.26	4.03
294.631	4.27
295.002	4.32
295.373	4.38
295.744	4.23
296.115	4.27
296.486	4.4
296.857	4.48
297.228	4.45
297.599	4.24
297.97	4.36
298.34	4.41
298.711	4.4
299.082	4.39
299.452	4.43
299.823	4.57
300.194	4.61
300.564	4.28
300.935	4.42
301.305	4.38
301.676	4.25
302.046	4.43
302.416	4.33
302.787	4.2
303.157	3.95
303.527	4.1
303.897	4.14
304.267	4.08
304.637	4.07
305.008	4.04
305.378	4.22
305.748	3.94
306.117	3.83
306.487	3.92
306.857	4.08
307.227	4.23
307.597	4.09
307.967	4.03
308.336	4.27
308.706	4.12
309.076	4.33
309.445	4.6
309.815	4.56
310.184	4.52
310.554	4.38
310.923	4.59
311.293	4.4
311.662	4.55
312.031	4.55
312.401	4.39
312.77	4.36
313.139	4.28
313.508	4.35
313.877	4.58
314.246	4.47
314.616	4.4
314.985	4.25
315.353	4.29
315.722	4.25
316.091	4.29
316.46	4.39
316.829	4.22
317.198	4.09
317.567	4.13
317.935	4.11
318.304	4.52
318.672	4.43
319.041	4.48
319.41	4.35
319.778	4.38
320.147	4.59
320.515	4.67
320.883	4.69
321.252	4.72
321.62	4.47
321.988	4.49
322.357	4.57
322.725	4.48
323.093	4.43
323.461	4.47
323.829	4.42
324.197	4.33
324.565	4.37
324.933	4.3
325.301	4.24
325.669	4.3
326.037	4.21
326.405	4.28
326.772	4.25
327.14	4.16
327.508	3.97
327.875	3.84
328.243	3.83
328.61	3.82
328.978	3.8
329.346	3.87
329.713	3.95
330.08	4.04
330.448	4.27
330.815	4.33
331.182	4.31
331.55	4.32
331.917	4.4
332.284	4.4
332.651	4.41
333.018	4.37
333.385	4.48
333.752	4.56
334.119	4.54
334.486	4.64
334.853	4.7
335.22	4.73
335.587	4.75
335.954	4.77
336.32	4.74
336.687	4.89
337.054	4.77
337.42	4.66
337.787	4.5
338.153	4.37
338.52	4.35
338.886	4.29
339.253	4.31
339.619	4.29
339.986	4.28
340.352	4.32
340.718	4.34
341.084	4.32
341.451	4.21
341.817	4.14
342.183	4.04
342.549	4.13
342.915	4.3
343.281	4.27
343.647	4.28
344.013	4.34
344.379	4.2
344.745	4.27
345.11	4.28
345.476	4.37
345.842	4.3
346.208	4.41
346.573	4.35
346.939	4.35
347.304	4.38
347.67	4.34
348.035	4.31
348.401	4.35
348.766	4.27
349.132	4.23
349.497	4.28
349.862	4.36
350.228	4.26
350.593	4.19
350.958	4.36
351.323	4.41
351.688	4.39
352.053	4.44
352.418	4.51
352.783	4.5
353.148	4.39
353.513	4.49
353.878	4.26
354.243	4.3
354.608	4.28
354.972	4.2
355.337	4.31
355.702	4.27
356.066	4.27
356.431	4.31
356.795	4.35
357.16	4.29
357.524	4.24
357.889	4.29
358.253	4.27
358.618	4.22
358.982	4.19
359.346	4.21
359.71	4.17
360.075	4.13
360.439	4.17
360.803	4.37
361.167	4.35
361.531	4.42
361.895	4.42
362.259	4.41
362.623	4.48
362.987	4.36
363.351	4.31
363.714	4.37
364.078	4.33
364.442	4.35
364.806	4.36
365.169	4.34
365.533	4.35
365.896	4.43
366.26	4.42
366.623	4.39
366.987	4.48
367.35	4.51
367.714	4.49
368.077	4.54
368.44	4.38
368.803	4.42
369.167	4.44
369.53	4.49
369.893	4.56
370.256	4.59
370.619	4.6
370.982	4.63
371.345	4.63
371.708	4.64
372.071	4.54
372.434	4.56
372.797	4.58
373.159	4.57
373.522	4.48
373.885	4.49
374.247	4.43
374.61	4.36
374.973	4.32
375.335	4.34
375.698	4.27
376.06	4.29
376.423	4.23
376.785	4.29
377.147	4.26
377.51	4.13
377.872	4.06
378.234	4.13
378.596	4.22
378.958	4.23
379.321	4.2
379.683	4.28
380.045	4.27
380.407	4.31
380.769	4.37
381.13	4.39
381.492	4.44
381.854	4.53
382.216	4.51
382.578	4.53
382.939	4.51
383.301	4.48
383.663	4.46
384.024	4.44
384.386	4.45
384.747	4.38
385.109	4.44
385.47	4.48
385.832	4.45
386.193	4.38
386.554	4.35
386.916	4.42
387.277	4.44
387.638	4.46
387.999	4.5
388.36	4.45
388.721	4.46
389.082	4.45
389.443	4.43
389.804	4.45
390.165	4.5
390.526	4.55
390.887	4.57
391.248	4.59
391.609	4.61
391.969	4.57
392.33	4.62
392.691	4.59
393.051	4.58
393.412	4.62
393.772	4.68
394.133	4.63
394.493	4.63
394.854	4.61
395.214	4.61
395.574	4.53
395.935	4.54
396.295	4.54
396.655	4.5
397.015	4.54
397.376	4.56
397.736	4.52
398.096	4.49
398.456	4.51
398.816	4.49
399.176	4.45
399.535	4.45
399.895	4.42
400.255	4.42
400.615	4.41
400.975	4.38
401.334	4.38
401.694	4.43
402.054	4.4
402.413	4.37
402.773	4.35
403.132	4.38
403.492	4.41
403.851	4.42
404.211	4.42
404.57	4.4
404.929	4.38
405.288	4.39
405.648	4.4
406.007	4.38
406.366	4.36
406.725	4.41
407.084	4.42
407.443	4.47
407.802	4.51
408.161	4.56
408.52	4.59
408.879	4.59
409.238	4.6
409.596	4.64
409.955	4.65
410.314	4.68
410.673	4.68
411.031	4.63
411.39	4.65
411.748	4.67
412.107	4.65
412.465	4.66
412.824	4.65
413.182	4.64
413.54	4.68
413.899	4.69
414.257	4.67
414.615	4.68
414.974	4.69
415.332	4.67
415.69	4.65
416.048	4.64
416.406	4.65
416.764	4.62
417.122	4.6
417.48	4.59
417.838	4.58
418.195	4.58
418.553	4.57
418.911	4.57
419.269	4.58
419.626	4.59
419.984	4.59
420.342	4.58
420.699	4.57
421.057	4.55
421.414	4.57
421.772	4.58
422.129	4.57
422.486	4.55
422.844	4.55
423.201	4.57
423.558	4.56
423.915	4.57
424.273	4.57
424.63	4.58
424.987	4.58
425.344	4.59
425.701	4.6
426.058	4.63
426.415	4.62
426.772	4.6
427.128	4.6
427.485	4.59
427.842	4.62
428.199	4.63
428.555	4.64
428.912	4.62
429.269	4.61
429.625	4.62
429.982	4.62
430.338	4.63
430.695	4.59
431.051	4.6
431.407	4.58
431.764	4.57
432.12	4.57
432.476	4.59
432.832	4.59
433.189	4.58
433.545	4.56
433.901	4.56
434.257	4.55
434.613	4.54
434.969	4.55
435.325	4.56
435.681	4.55
436.036	4.56
436.392	4.57
436.748	4.58
437.104	4.58
437.459	4.58
437.815	4.58
438.171	4.58
438.526	4.56
438.882	4.55
439.237	4.56
439.593	4.57
439.948	4.56
440.304	4.55
440.659	4.57
441.014	4.56
441.369	4.56
441.725	4.58
442.08	4.59
442.435	4.6
442.79	4.59
443.145	4.6
443.5	4.61
443.855	4.6
444.21	4.59
444.565	4.59
444.92	4.59
445.275	4.58
445.629	4.59
445.984	4.6
446.339	4.6
446.693	4.58
447.048	4.56
447.403	4.57
447.757	4.57
448.112	4.56
448.466	4.56
448.82	4.55
449.175	4.54
449.529	4.53
449.883	4.52
450.238	4.51
450.592	4.51
450.946	4.5
451.3	4.5
451.654	4.48
452.008	4.48
452.362	4.48
452.716	4.49
453.07	4.5
453.424	4.5
453.778	4.51
454.132	4.52
454.486	4.53
454.839	4.54
455.193	4.53
455.547	4.53
455.9	4.56
456.254	4.59
456.607	4.59
456.961	4.59
457.314	4.6
457.668	4.6
458.021	4.6
458.375	4.58
458.728	4.58
459.081	4.59
459.434	4.61
459.787	4.61
460.141	4.61
460.494	4.59
460.847	4.6
461.2	4.6
461.553	4.62
461.906	4.63
462.259	4.59
462.611	4.61
462.964	4.62
463.317	4.62
463.67	4.61
464.022	4.62
464.375	4.62
464.728	4.63
465.08	4.62
465.433	4.62
465.785	4.67
466.138	4.66
466.49	4.7
466.843	4.71
467.195	4.73
467.547	4.72
467.899	4.73
468.252	4.73
468.604	4.73
468.956	4.73
469.308	4.73
469.66	4.78
470.012	4.77
470.364	4.76
470.716	4.78
471.068	4.77
471.42	4.78
471.772	4.77
472.123	4.76
472.475	4.77
472.827	4.78
473.178	4.79
473.53	4.81
473.882	4.77
474.233	4.76
474.585	4.76
474.936	4.79
475.288	4.76
475.639	4.77
475.99	4.79
476.342	4.79
476.693	4.8
477.044	4.78
477.395	4.78
477.746	4.78
478.097	4.78
478.448	4.77
478.8	4.79
479.15	4.81
479.501	4.81
479.852	4.8
480.203	4.81
480.554	4.8
480.905	4.78
481.255	4.79
481.606	4.79
481.957	4.8
482.307	4.79
482.658	4.82
483.009	4.83
483.359	4.83
483.709	4.82
484.06	4.84
484.41	4.84
484.761	4.85
485.111	4.86
485.461	4.85
485.811	4.86
486.162	4.84
486.512	4.84
486.862	4.84
487.212	4.85
487.562	4.85
487.912	4.86
488.262	4.86
488.612	4.86
488.961	4.87
489.311	4.87
489.661	4.86
490.011	4.85
490.36	4.84
490.71	4.84
491.06	4.85
491.409	4.83
491.759	4.85
492.108	4.84
492.458	4.84
492.807	4.85
493.157	4.86
493.506	4.87
493.855	4.85
494.204	4.86
494.554	4.86
494.903	4.87
495.252	4.88
495.601	4.9
495.95	4.92
496.299	4.92
496.648	4.92
496.997	4.94
497.346	4.95
497.695	4.95
498.043	4.96
498.392	4.96
498.741	4.98
499.09	4.98
499.438	4.98
499.787	4.96
500.135	4.95
500.484	4.93
500.832	4.94
501.181	4.98
501.529	5
501.878	5
502.226	5.02
502.574	5.01
502.923	4.97
503.271	4.98
503.619	4.98
503.967	4.96
504.315	5
504.663	5
505.011	5
505.359	4.99
505.707	4.99
506.055	4.99
506.403	4.97
506.751	5
507.098	5.02
507.446	5.03
507.794	5.06
508.141	5.08
508.489	5.08
508.837	5.06
509.184	5.06
509.531	5.03
509.879	5.04
510.226	5.04
510.574	5.03
510.921	5.04
511.268	5.06
511.616	5.07
511.963	5.07
512.31	5.09
512.657	5.12
513.004	5.12
513.351	5.13
513.698	5.15
514.045	5.16
514.392	5.18
514.739	5.23
515.086	5.24
515.432	5.26
515.779	5.27
516.126	5.29
516.473	5.31
516.819	5.34
517.166	5.34
517.512	5.35
517.859	5.39
518.205	5.39
518.552	5.4
518.898	5.39
519.245	5.4
519.591	5.41
519.937	5.4
520.283	5.4
520.629	5.41
520.976	5.42
521.322	5.43
521.668	5.42
522.014	5.39
522.36	5.39
522.706	5.39
523.052	5.4
523.398	5.41
523.743	5.41
524.089	5.41
524.435	5.41
524.781	5.43
525.126	5.43
525.472	5.44
525.817	5.43
526.163	5.44
526.509	5.44
526.854	5.43
527.199	5.44
527.545	5.45
527.89	5.44
528.235	5.44
528.581	5.43
528.926	5.43
529.271	5.46
529.616	5.46
529.961	5.46
530.306	5.46
530.651	5.45
530.996	5.46
531.341	5.48
531.686	5.48
532.031	5.49
532.376	5.5
532.721	5.51
533.065	5.51
533.41	5.52
533.755	5.53
534.099	5.54
534.444	5.55
534.788	5.56
535.133	5.56
535.477	5.57
535.822	5.57
536.166	5.58
536.51	5.56
536.855	5.55
537.199	5.55
537.543	5.55
537.887	5.56
538.231	5.56
538.576	5.54
538.92	5.54
539.264	5.53
539.608	5.51
539.951	5.5
540.295	5.5
540.639	5.5
540.983	5.49
541.327	5.51
541.671	5.5
542.014	5.51
542.358	5.52
542.701	5.53
543.045	5.54
543.389	5.56
543.732	5.55
544.075	5.55
544.419	5.57
544.762	5.57
545.105	5.58
545.449	5.58
545.792	5.6
546.135	5.6
546.478	5.61
546.821	5.62
547.165	5.63
547.508	5.64
547.851	5.67
548.194	5.68
548.536	5.67
548.879	5.68
549.222	5.67
549.565	5.66
549.908	5.66
550.25	5.67
550.593	5.66
550.936	5.67
551.278	5.67
551.621	5.63
551.963	5.63
552.306	5.65
552.648	5.65
552.991	5.65
553.333	5.64
553.675	5.65
554.017	5.66
554.36	5.68
554.702	5.65
555.044	5.6
555.386	5.6
555.728	5.62
556.07	5.59
556.412	5.61
556.754	5.61
557.096	5.62
557.438	5.6
557.78	5.57
558.121	5.58
558.463	5.57
558.805	5.58
559.147	5.63
559.488	5.58
559.83	5.56
560.171	5.55
560.513	5.6
560.854	5.61
561.196	5.6
561.537	5.6
561.878	5.61
562.22	5.66
562.561	5.68
562.902	5.65
563.243	5.64
563.584	5.67
563.925	5.67
564.266	5.67
564.607	5.67
564.948	5.69
565.289	5.7
565.63	5.69
565.971	5.73
566.312	5.72
566.653	5.74
566.993	5.74
567.334	5.74
567.675	5.72
568.015	5.68
568.356	5.69
568.696	5.68
569.037	5.69
569.377	5.67
569.718	5.65
570.058	5.66
570.398	5.69
570.739	5.64
571.079	5.64
571.419	5.61
571.759	5.63
572.099	5.62
572.439	5.63
572.779	5.68
573.119	5.65
573.459	5.64
573.799	5.62
574.139	5.59
574.479	5.59
574.819	5.59
575.158	5.64
575.498	5.64
575.838	5.66
576.177	5.65
576.517	5.67
576.856	5.66
577.196	5.67
577.535	5.66
577.875	5.71
578.214	5.72
578.553	5.71
578.893	5.69
579.232	5.71
579.571	5.74
579.91	5.73
580.25	5.73
580.589	5.74
580.928	5.79
581.267	5.84
581.606	5.82
581.945	5.8
582.283	5.82
582.622	5.78
582.961	5.71
583.3	5.71
583.639	5.7
583.977	5.7
584.316	5.71
584.654	5.75
584.993	5.72
585.332	5.71
585.67	5.75
586.008	5.74
586.347	5.74
586.685	5.69
587.024	5.64
587.362	5.65
587.7	5.65
588.038	5.66
588.376	5.67
588.715	5.74
589.053	5.79
589.391	5.73
589.729	5.75
590.067	5.79
590.404	5.81
590.742	5.84
591.08	5.84
591.418	5.86
591.756	5.83
592.093	5.81
592.431	5.82
592.769	5.83
593.106	5.84
593.444	5.82
593.781	5.86
594.119	5.84
594.456	5.84
594.793	5.82
595.131	5.81
595.468	5.78
595.805	5.74
596.143	5.73
596.48	5.71
596.817	5.69
597.154	5.71
597.491	5.68
597.828	5.62
598.165	5.65
598.502	5.62
598.839	5.59
599.176	5.63
599.512	5.59
599.849	5.57
600.186	5.57
600.523	5.58
600.859	5.56
601.196	5.61
601.532	5.6
601.869	5.6
602.205	5.61
602.542	5.63
602.878	5.63
603.215	5.65
603.551	5.67
603.887	5.73
604.223	5.72
604.56	5.75
604.896	5.81
605.232	5.82
605.568	5.83
605.904	5.83
606.24	5.79
606.576	5.84
606.912	5.83
607.248	5.87
607.583	5.89
607.919	5.9
608.255	5.89
608.591	5.93
608.926	5.94
609.262	5.88
609.597	5.86
609.933	5.86
610.268	5.84
610.604	5.86
610.939	5.85
611.275	5.88
611.61	5.88
611.945	5.86
612.281	5.81
612.616	5.82
612.951	5.87
613.286	5.89
613.621	5.89
613.956	5.93
614.291	5.88
614.626	5.84
614.961	5.86
615.296	5.88
615.631	5.9
615.966	5.95
616.3	6.01
616.635	6.04
616.97	6.02
617.304	5.94
617.639	5.93
617.973	5.84
618.308	5.84
618.642	5.83
618.977	5.82
619.311	5.85
619.646	5.84
619.98	5.82
620.314	5.85
620.648	5.86
620.983	5.8
621.317	5.81
621.651	5.83
621.985	5.81
622.319	5.74
622.653	5.71
622.987	5.71
623.321	5.73
623.655	5.74
623.988	5.77
624.322	5.8
624.656	5.84
624.99	5.88
625.323	5.88
625.657	5.9
625.99	5.97
626.324	5.93
626.657	5.86
626.991	5.88
627.324	5.82
627.658	5.78
627.991	5.85
628.324	5.84
628.657	5.82
628.991	5.81
629.324	5.88
629.657	5.87
629.99	5.86
630.323	5.86
630.656	5.81
630.989	5.82
631.322	5.87
631.655	5.94
631.987	5.96
632.32	6.01
632.653	6.01
632.986	5.96
633.318	6.03
633.651	6.12
633.984	6.12
634.316	6.16
634.649	6.19
634.981	6.2
635.313	6.24
635.646	6.29
635.978	6.3
636.31	6.31
636.643	6.26
636.975	6.31
637.307	6.33
637.639	6.41
637.971	6.38
638.303	6.35
638.635	6.35
638.967	6.29
639.299	6.26
639.631	6.23
639.963	6.17
640.295	6.18
640.626	6.1
640.958	6.06
641.29	6.14
641.621	6.12
641.953	6.06
642.285	6.04
642.616	6.04
642.948	6.07
643.279	5.98
643.61	6.04
643.942	5.97
644.273	5.98
644.604	5.93
644.936	5.97
645.267	5.99
645.598	5.92
645.929	5.97
646.26	5.88
646.591	5.93
646.922	6.05
647.253	6.01
647.584	6.11
647.915	6.19
648.245	6.18
648.576	6.19
648.907	6.23
649.238	6.24
649.568	6.26
649.899	6.22
650.229	6.31
650.56	6.34
650.89	6.41
651.221	6.42
651.551	6.46
651.882	6.43
652.212	6.4
652.542	6.4
652.872	6.32
653.203	6.38
653.533	6.38
653.863	6.3
654.193	6.32
654.523	6.28
654.853	6.27
655.183	6.2
655.513	6.25
655.843	6.21
656.172	6.24
656.502	6.24
656.832	6.22
657.162	6.25
657.491	6.29
657.821	6.32
658.15	6.37
658.48	6.37
658.809	6.47
659.139	6.57
659.468	6.58
659.798	6.68
660.127	6.66
660.456	6.63
660.785	6.62
661.115	6.6
661.444	6.63
661.773	6.6
662.102	6.6
662.431	6.58
662.76	6.64
663.089	6.66
663.418	6.67
663.747	6.69
664.076	6.62
664.404	6.63
664.733	6.58
665.062	6.52
665.39	6.47
665.719	6.38
666.048	6.32
666.376	6.3
666.705	6.26
667.033	6.3
667.362	6.25
667.69	6.38
668.018	6.46
668.347	6.39
668.675	6.4
669.003	6.44
669.331	6.48
669.659	6.4
669.987	6.34
670.315	6.27
670.643	6.33
670.971	6.46
671.299	6.37
671.627	6.36
671.955	6.25
672.283	6.28
672.61	6.27
672.938	6.26
673.266	6.3
673.593	6.3
673.921	6.3
674.249	6.34
674.576	6.22
674.904	6.12
675.231	6.23
675.558	6.28
675.886	6.3
676.213	6.27
676.54	6.42
676.867	6.49
677.195	6.61
677.522	6.65
677.849	6.56
678.176	6.6
678.503	6.62
678.83	6.72
679.157	6.78
679.484	6.85
679.81	6.86
680.137	6.88
680.464	6.9
680.791	6.92
681.117	6.93
681.444	6.96
681.771	7.08
682.097	7.1
682.424	7.09
682.75	7.02
683.077	7.11
683.403	7.09
683.729	6.99
684.056	6.95
684.382	6.91
684.708	6.96
685.034	6.92
685.36	6.87
685.686	6.81
686.012	6.75
686.339	6.64
686.664	6.62
686.99	6.46
687.316	6.5
687.642	6.49
687.968	6.54
688.294	6.62
688.619	6.51
688.945	6.42
689.271	6.43
689.596	6.42
689.922	6.43
690.247	6.36
690.573	6.35
690.898	6.37
691.224	6.37
691.549	6.27
691.874	6.39
692.2	6.41
692.525	6.37
692.85	6.38
693.175	6.42
693.5	6.39
693.825	6.56
694.15	6.46
694.475	6.47
694.8	6.43
695.125	6.48
695.45	6.39
695.775	6.55
696.099	6.65
696.424	6.79
696.749	6.74
697.073	6.72
697.398	6.77
697.723	6.7
698.047	6.74
698.372	6.76
698.696	6.68
699.02	6.73
699.345	6.89
699.669	6.91
699.993	6.91
700.318	7.01
700.642	6.97
700.966	7.13
701.29	7.14
701.614	7.15
701.938	6.97
702.262	6.99
702.586	6.82
702.91	6.73
703.234	6.65
703.557	6.51
703.881	6.68
704.205	6.66
704.529	6.72
704.852	6.62
705.176	6.69
705.499	6.72
705.823	6.62
706.146	6.48
706.47	6.59
706.793	6.76
707.117	6.64
707.44	6.62
707.763	6.52
708.086	6.4
708.409	6.4
708.733	6.5
709.056	6.61
709.379	6.74
709.702	6.72
710.025	6.95
710.348	6.97
710.671	7.01
710.993	7.12
711.316	7.25
711.639	7.31
711.962	7.44
712.284	7.48
712.607	7.72
712.93	7.83
713.252	7.69
713.575	7.65
713.897	7.69
714.22	7.67
714.542	7.63
714.864	7.71
715.187	7.82
715.509	7.77
715.831	7.78
716.153	7.7
716.475	7.78
716.798	7.58
717.12	7.65
717.442	7.39
717.764	7.24
718.085	7.08
718.407	7.08
718.729	6.92
719.051	6.81
719.373	6.6
719.695	6.67
720.016	6.71
720.338	6.66
720.659	6.68
720.981	6.74
721.302	7.12
721.624	7.2
721.945	7.06
722.267	7.1
722.588	7.24
722.909	7.34
723.231	7.28
723.552	7.39
723.873	7.44
724.194	7.73
724.515	7.92
724.836	7.96
725.157	7.97
725.478	7.99
725.799	8.01
726.12	8.07
726.441	7.93
726.762	7.93
727.083	8.07
727.403	8.1
727.724	7.95
728.045	7.73
728.365	7.58
728.686	7.49
729.006	7.62
729.327	7.41
729.647	7.22
729.967	7.27
730.288	7.17
730.608	7.34
730.928	7.19
731.249	7.25
731.569	7.29
731.889	7.37
732.209	7.4
732.529	7.34
732.849	7.34
733.169	7.26
733.489	7.03
733.809	6.79
734.129	6.73
734.448	6.98
734.768	6.82
735.088	6.75
735.408	6.87
735.727	6.83
736.047	6.95
736.366	7.21
736.686	7.1
737.005	7.17
737.325	7.02
737.644	6.94
737.963	6.72
738.283	6.62
738.602	6.53
738.921	6.63
739.24	6.7
739.56	6.65
739.879	6.7
740.198	6.91
740.517	6.99
740.836	7.08
741.155	7.23
741.473	7.39
741.792	7.64
742.111	7.52
742.43	7.7
742.748	7.72
743.067	7.45
743.386	7.4
743.704	7.2
744.023	7.19
744.341	7.38
744.66	7.5
744.978	7.56
745.297	7.72
745.615	7.46
745.933	7.68
746.252	7.76
746.57	7.89
746.888	8.11
747.206	8.13
747.524	8.1
747.842	7.71
748.16	7.68
748.478	7.5
748.796	7.57
749.114	7.55
749.432	7.58
749.749	7.83
750.067	8.15
750.385	8.43
750.703	8.46
751.02	8.43
751.338	8.38
751.655	8.42
751.973	8.12
752.29	8.22
752.608	8.01
752.925	8.03
753.242	8.19
753.56	7.94
753.877	8.07
754.194	8.4
754.511	8.28
754.828	8.09
755.145	8.24
755.462	8.4
755.779	8.4
756.096	8.47
756.413	8.5
756.73	8.42
757.047	8.07
757.364	8.05
757.68	7.86
757.997	7.98
758.314	8.03
758.63	8.12
758.947	8.23
759.264	8.27
759.58	8.33
759.896	8.12
760.213	8.27
760.529	8.32
760.846	8.01
761.162	8.18
761.478	8.2
761.794	8.56
762.11	8.74
762.426	8.59
762.743	8.39
763.059	8.32
763.375	8.26
763.69	8.52
764.006	8.57
764.322	8.73
764.638	8.91
764.954	8.84
765.27	8.88
765.585	8.82
765.901	8.77
766.216	8.65
766.532	8.62
766.848	8.55
767.163	8.43
767.478	8.27
767.794	8.05
768.109	8.16
768.424	7.47
768.74	7.11
769.055	7.07
769.37	7.27
769.685	7.32
770	7.18
770.315	7.11
770.63	7
770.945	7.06
771.26	6.85
771.575	6.85
771.89	6.67
772.205	6.57
772.52	6.52
772.834	6.55
773.149	6.48
773.464	6.71
773.778	6.71
774.093	7.16
774.407	7.44
774.722	7.6
775.036	8.07
775.351	8.68
775.665	8.8
775.979	8.68
776.293	8.65
776.608	8.79
776.922	9.06
777.236	9.08
777.55	9.02
777.864	9.1
778.178	9.36
778.492	9.42
778.806	9.17
779.12	9.42
779.434	9.72
779.747	10.14
780.061	10.1
780.375	10
780.689	9.64
781.002	9.72
781.316	9.27
781.629	9.18
781.943	8.38
782.256	8
782.57	8.09
782.883	8.59
783.196	8.26
783.51	7.95
783.823	8.06
784.136	8.12
784.449	7.84
784.762	7.6
785.075	7.97
785.388	8.46
785.701	8.25
786.014	8.19
786.327	7.72
786.64	7.88
786.953	7.95
787.266	8.02
787.578	7.75
787.891	8.01
788.204	8.1
788.516	8.59
788.829	9.27
789.141	9.41
789.454	9.18
789.766	9.86
790.079	9.65
790.391	9.47
790.703	9.12
791.016	9.53
791.328	9.61
791.64	9.63
791.952	9.71
792.264	9.33
792.576	9.51
792.888	9.89
793.2	9.58
793.512	9.53
793.824	9.68
794.136	10.18
794.448	10.58
794.76	10.75
795.071	10.63
795.383	10.17
795.695	10.17
796.006	9.75
796.318	9.56
796.629	9.74
796.941	9.74
797.252	9.81
797.564	9.13
797.875	8.93
798.186	8.95
798.497	8.97
798.809	9.3
799.12	8.79
799.431	8.54
799.742	8.73
800.053	8.78
800.364	9.02
800.675	9.05
800.986	8.91
801.297	8.83
801.608	8.91
801.918	8.69
802.229	8.24
802.54	8.25
802.851	8.48
803.161	8.88
803.472	8.94
803.782	9.14
804.093	9.26
804.403	9.15
804.714	8.95
805.024	8.81
805.334	9.47
805.645	9.95
805.955	9.91
806.265	9.93
806.575	10.11
806.885	9.93
807.195	9.8
807.505	9.19
807.815	9.09
808.125	8.86
808.435	8.95
808.745	8.65
809.055	8.8
809.365	8.05
809.674	7.62
809.984	7.59
810.294	7.99
810.603	8.2
810.913	7.83
811.222	7.54
811.532	7.87
811.841	7.53
812.151	7.32
812.46	8.13
812.769	7.86
813.079	7.87
813.388	6.69
813.697	6.25
814.006	6.8
814.315	6.42
814.624	7.06
814.933	7.51
815.242	8.17
815.551	8.02
815.86	8.79
816.169	8.98
816.478	8.86
816.786	8.37
817.095	8.5
817.404	9.91
817.712	9.94
818.021	10.24
818.33	9.53
818.638	9.69
818.947	9.24
819.255	9.53
819.563	9.59
819.872	10.28
820.18	10.69
820.488	10.86
820.796	11.25
821.105	11.27
821.413	11.1
821.721	10.88
822.029	11.07
822.337	11.17
822.645	11.45
822.953	11.68
823.26	11.7
823.568	11.7
823.876	11.42
824.184	11.5
824.491	11.42
824.799	11.53
825.107	11.56
825.414	11.58
825.722	11.55
826.029	11.67
826.337	11.5
826.644	11.56
826.951	11.47
827.259	11.3
827.566	11.16
827.873	11.4
828.18	11.61
828.488	11.5
828.795	11.27
829.102	10.76
829.409	10.38
829.716	10.35
830.023	10.44
830.329	10.56
830.636	10.44
830.943	10.27
831.25	10.64
831.557	10.13
831.863	9.94
832.17	9.94
832.476	9.62
832.783	10.02
833.089	9.81
833.396	10.1
833.702	10.19
834.009	10.28
834.315	9.5
834.621	9.48
834.928	9.13
835.234	9.21
835.54	9.51
835.846	9.93
836.152	9.86
836.458	9.73
836.764	10.05
837.07	9.7
837.376	9.58
837.682	9.57
837.988	9.95
838.293	9.96
838.599	10.21
838.905	9.96
839.211	10.03
839.516	10.28
839.822	9.66
840.127	9.47
840.433	9.49
840.738	10.2
841.044	10.98
841.349	11.17
841.654	10.07
841.959	9.74
842.265	9.39
842.57	9.43
842.875	8.65
843.18	7.38
843.485	7.58
843.79	7.41
844.095	6.46
844.4	6.92
844.705	8.04
845.01	8.1
845.315	8.94
845.619	9.56
845.924	8.59
846.229	9.58
846.533	9.4
846.838	8.36
847.142	8.82
847.447	7.62
847.751	9.52
848.056	10.73
848.36	10.03
848.664	8.91
848.969	8.41
849.273	9.15
849.577	11.26
849.881	11.46
850.185	10.8
850.489	11.82
850.794	12.53
851.097	12.13
851.401	11.13
851.705	10.46
852.009	8.13
852.313	8.53
852.617	7.28
852.92	7.47
853.224	9.75
853.528	9.13
853.831	13.45
854.135	12.71
854.438	11.36
854.742	11.24
855.045	12.52
855.349	14.21
855.652	14.69
855.955	14.35
856.259	14.55
856.562	15.56
856.865	14.86
857.168	13.4
857.471	12.46
857.774	13.13
858.077	12.11
858.38	13.78
858.683	13.78
858.986	13.81
859.289	15.65
859.592	14.73
859.894	14.35
860.197	9.95
860.5	9.91
860.802	9.54
861.105	10.88
861.407	10.21
861.71	7.26
862.012	6.36
862.315	5.66
862.617	5.22
862.919	5.07
863.222	4.06
863.524	2.48
863.826	2.48
864.128	1.63
864.43	2.91
864.732	0.42
865.034	0.12
865.336	0.42
865.638	-2.45
865.94	-2.8
866.242	-2.35
866.544	-2.05
866.846	-2.1
867.147	0.29
867.449	0.03
867.751	-1.79
868.052	-1.72
868.354	-2.41
868.655	-3.04
868.957	-2.49
869.258	-4.22
869.56	-2.46
869.861	-3.6
870.162	-3.22
870.463	-2.59
870.765	-1.72
871.066	0.34
871.367	-2.03
871.668	-3.17
871.969	-3.32
872.27	-2.92
872.571	-3.4
872.872	-3.38
873.173	-4.19
873.473	-5.1
873.774	-6.84
874.075	-2.34
874.376	-1.55
874.676	-0.12
874.977	1.83
875.277	0.87
875.578	4.96
875.878	4.02
876.179	7.07
876.479	7
876.78	6.73
877.08	5.83
877.38	5.26
877.68	8.74
877.981	10.08
878.281	11.34
878.581	10.28
