Data from MVZ_BU65311_Reflection_00004.txt Node
Date: Tue Nov 19 12:20:07 EST 2019
User: vgr7
Spectrometer: USB2G7710
Scans to average: 3
Trigger mode: 4
Integration Time (sec): 2.000000E-2
Electric dark correction enabled: true
Boxcar width: 10
XAxis mode: Wavelengths
Number of Pixels in Spectrum: 2048
>>>>>Begin Spectral Data<<<<<
177.721	-212.17
178.105	-538.89
178.488	-38.89
178.871	-42.22
179.254	-51.85
179.636	-22.61
180.019	220.37
180.402	183.33
180.785	71.6
181.168	593.83
181.55	-242.59
181.933	-66.67
182.316	-295.83
182.698	106.94
183.081	16.67
183.463	-98.83
183.846	-87.76
184.228	-164.88
184.611	-68.38
184.993	-28.33
185.376	-29.45
185.758	4.4
186.14	-19.66
186.522	-29.01
186.904	-21.03
187.287	-39.6
187.669	-31.56
188.051	-32.41
188.433	-29.39
188.815	-42.41
189.197	-37.9
189.579	-24.38
189.961	-19.14
190.342	-18.35
190.724	-12.99
191.106	-2.32
191.488	-3.87
191.869	-0.89
192.251	-1.19
192.633	4.25
193.014	2.56
193.396	-0.06
193.777	8.67
194.159	8.62
194.54	9.22
194.922	2.68
195.303	10.18
195.684	13.9
196.065	19.49
196.447	19.42
196.828	17.54
197.209	16.95
197.59	13.93
197.971	18.28
198.352	26
198.733	18.93
199.114	8.02
199.495	15.79
199.876	21.68
200.257	15.66
200.638	4.76
201.018	-9.62
201.399	15.78
201.78	12.9
202.16	11.74
202.541	17.9
202.922	24.55
203.302	33.81
203.683	23.81
204.063	22.4
204.444	29.96
204.824	31.18
205.204	28.03
205.585	26.65
205.965	29.85
206.345	26.61
206.725	34.56
207.106	47.39
207.486	39.05
207.866	36.51
208.246	61.87
208.626	56.79
209.006	61.14
209.386	42.71
209.766	31.06
210.145	46.2
210.525	39.7
210.905	40.32
211.285	42.37
211.664	49.85
212.044	54.44
212.424	46.15
212.803	50.96
213.183	48.26
213.562	37.22
213.942	38.2
214.321	46.04
214.701	47.02
215.08	35.56
215.459	39.11
215.838	34.65
216.218	18.7
216.597	26.59
216.976	29.55
217.355	21.61
217.734	13.85
218.113	12.93
218.492	15.88
218.871	8.43
219.25	10.35
219.629	-12.01
220.008	-7.17
220.387	-0.74
220.766	9.99
221.144	5.97
221.523	10.84
221.902	12.38
222.28	6.49
222.659	8.64
223.037	13.73
223.416	11.7
223.794	11.4
224.173	6.6
224.551	10.99
224.929	10.53
225.308	17.61
225.686	22.34
226.064	13.59
226.442	15.87
226.821	18.42
227.199	12.87
227.577	13.37
227.955	12.06
228.333	7.14
228.711	5.02
229.089	7.41
229.467	8.34
229.845	2.48
230.222	4.32
230.6	0.63
230.978	-0.02
231.356	-1.19
231.733	-2.77
232.111	-1.17
232.488	-1.58
232.866	2.75
233.243	2.91
233.621	1.89
233.998	3.66
234.376	2.49
234.753	2.1
235.13	2.05
235.508	4.27
235.885	4.15
236.262	3.71
236.639	3.23
237.016	2.98
237.393	3.76
237.77	4.98
238.147	4.14
238.524	5.01
238.901	4.61
239.278	4.54
239.655	5.43
240.032	6.18
240.409	4.51
240.785	3.52
241.162	3.07
241.539	3.62
241.915	3.66
242.292	4.14
242.668	4.03
243.045	4.21
243.421	4.09
243.798	3.83
244.174	4.41
244.551	4.4
244.927	4.54
245.303	4.02
245.679	4.17
246.056	4.16
246.432	4.05
246.808	4.31
247.184	4.32
247.56	4.02
247.936	3.86
248.312	4.38
248.688	4.3
249.064	4.5
249.44	4.2
249.815	4.28
250.191	3.95
250.567	3.84
250.943	3.84
251.318	3.63
251.694	3.7
252.069	3.75
252.445	4.06
252.82	4.02
253.196	4.19
253.571	4.19
253.947	4.12
254.322	4.15
254.697	4.17
255.073	4.33
255.448	4.56
255.823	4.59
256.198	4.25
256.573	4.27
256.948	3.96
257.323	4.33
257.698	4.26
258.073	4.21
258.448	4.28
258.823	3.92
259.198	4.02
259.573	4.09
259.948	3.99
260.322	3.56
260.697	3.8
261.072	3.97
261.446	4.05
261.821	4.04
262.195	4.06
262.57	4.02
262.944	3.96
263.319	3.81
263.693	3.85
264.067	3.97
264.442	4.06
264.816	3.97
265.19	3.81
265.564	3.74
265.938	3.9
266.313	3.95
266.687	4.2
267.061	4.2
267.435	4.15
267.809	3.97
268.183	4.09
268.556	3.74
268.93	3.72
269.304	3.57
269.678	3.69
270.051	3.76
270.425	3.78
270.799	3.78
271.172	3.86
271.546	3.89
271.919	3.88
272.293	3.75
272.666	3.96
273.04	3.93
273.413	3.91
273.787	3.81
274.16	3.59
274.533	3.78
274.906	3.99
275.279	3.9
275.653	4.04
276.026	4.13
276.399	4.37
276.772	4.51
277.145	4.53
277.518	4.39
277.891	4.43
278.263	4.68
278.636	4.76
279.009	4.84
279.382	4.76
279.755	4.71
280.127	4.95
280.5	4.97
280.872	4.97
281.245	4.91
281.617	4.87
281.99	5.08
282.362	5.06
282.735	4.68
283.107	4.61
283.479	4.63
283.852	4.54
284.224	4.36
284.596	4.02
284.968	3.95
285.34	4.06
285.713	3.92
286.085	3.55
286.457	3.7
286.829	3.55
287.201	3.46
287.572	3.52
287.944	3.39
288.316	3.38
288.688	3.34
289.06	3.4
289.431	3.32
289.803	3.41
290.175	3.27
290.546	3.45
290.918	3.39
291.289	3.2
291.661	3.2
292.032	3.24
292.403	3.31
292.775	3.51
293.146	3.48
293.517	3.52
293.889	3.57
294.26	3.4
294.631	3.68
295.002	3.87
295.373	3.95
295.744	3.98
296.115	4
296.486	3.94
296.857	3.91
297.228	3.89
297.599	3.72
297.97	3.93
298.34	3.96
298.711	4.03
299.082	4.12
299.452	3.97
299.823	3.94
300.194	4.02
300.564	3.84
300.935	3.88
301.305	3.87
301.676	3.81
302.046	3.84
302.416	3.68
302.787	3.64
303.157	3.38
303.527	3.41
303.897	3.36
304.267	3.39
304.637	3.32
305.008	3.58
305.378	3.58
305.748	3.4
306.117	3.23
306.487	3.27
306.857	3.41
307.227	3.61
307.597	3.67
307.967	3.61
308.336	3.62
308.706	3.55
309.076	3.59
309.445	3.78
309.815	3.78
310.184	3.67
310.554	3.53
310.923	3.51
311.293	3.38
311.662	3.45
312.031	3.55
312.401	3.5
312.77	3.43
313.139	3.65
313.508	3.6
313.877	3.63
314.246	3.51
314.616	3.49
314.985	3.52
315.353	3.43
315.722	3.48
316.091	3.51
316.46	3.43
316.829	3.39
317.198	3.35
317.567	3.44
317.935	3.6
318.304	3.68
318.672	3.67
319.041	3.82
319.41	3.59
319.778	3.42
320.147	3.56
320.515	3.44
320.883	3.1
321.252	3.17
321.62	3.37
321.988	3.64
322.357	3.51
322.725	3.32
323.093	3.35
323.461	3.43
323.829	3.42
324.197	3.52
324.565	3.52
324.933	3.47
325.301	3.31
325.669	3.24
326.037	3.18
326.405	3.18
326.772	3.1
327.14	3.18
327.508	3.17
327.875	3.17
328.243	3.19
328.61	3.37
328.978	3.19
329.346	3.1
329.713	3.06
330.08	3.08
330.448	3.28
330.815	3.37
331.182	3.21
331.55	3.38
331.917	3.24
332.284	3.26
332.651	3.28
333.018	3.44
333.385	3.54
333.752	3.6
334.119	3.7
334.486	3.67
334.853	3.59
335.22	3.83
335.587	3.74
335.954	3.78
336.32	3.57
336.687	3.61
337.054	3.51
337.42	3.51
337.787	3.4
338.153	3.41
338.52	3.33
338.886	3.37
339.253	3.26
339.619	3.42
339.986	3.43
340.352	3.41
340.718	3.36
341.084	3.24
341.451	3.29
341.817	3.33
342.183	3.34
342.549	3.53
342.915	3.2
343.281	3.34
343.647	3.29
344.013	3.3
344.379	3.36
344.745	3.4
345.11	3.41
345.476	3.52
345.842	3.5
346.208	3.56
346.573	3.53
346.939	3.49
347.304	3.47
347.67	3.44
348.035	3.33
348.401	3.35
348.766	3.28
349.132	3.21
349.497	3.26
349.862	3.3
350.228	3.22
350.593	3.32
350.958	3.37
351.323	3.41
351.688	3.54
352.053	3.58
352.418	3.56
352.783	3.49
353.148	3.52
353.513	3.53
353.878	3.43
354.243	3.35
354.608	3.39
354.972	3.43
355.337	3.36
355.702	3.48
356.066	3.44
356.431	3.58
356.795	3.57
357.16	3.41
357.524	3.47
357.889	3.44
358.253	3.49
358.618	3.42
358.982	3.43
359.346	3.37
359.71	3.42
360.075	3.43
360.439	3.49
360.803	3.5
361.167	3.52
361.531	3.53
361.895	3.61
362.259	3.66
362.623	3.64
362.987	3.76
363.351	3.72
363.714	3.72
364.078	3.74
364.442	3.73
364.806	3.85
365.169	3.82
365.533	3.91
365.896	3.93
366.26	3.91
366.623	3.92
366.987	3.94
367.35	3.94
367.714	3.92
368.077	3.87
368.44	3.86
368.803	3.76
369.167	3.8
369.53	3.85
369.893	3.84
370.256	3.78
370.619	3.67
370.982	3.7
371.345	3.7
371.708	3.63
372.071	3.58
372.434	3.59
372.797	3.54
373.159	3.48
373.522	3.47
373.885	3.47
374.247	3.46
374.61	3.44
374.973	3.37
375.335	3.4
375.698	3.37
376.06	3.42
376.423	3.52
376.785	3.52
377.147	3.5
377.51	3.5
377.872	3.59
378.234	3.63
378.596	3.62
378.958	3.64
379.321	3.62
379.683	3.68
380.045	3.67
380.407	3.68
380.769	3.71
381.13	3.75
381.492	3.74
381.854	3.77
382.216	3.85
382.578	3.88
382.939	3.91
383.301	3.88
383.663	3.86
384.024	3.84
384.386	3.84
384.747	3.86
385.109	3.88
385.47	3.84
385.832	3.84
386.193	3.88
386.554	3.85
386.916	3.87
387.277	3.81
387.638	3.87
387.999	3.91
388.36	3.92
388.721	3.96
389.082	3.99
389.443	3.97
389.804	3.99
390.165	4
390.526	3.99
390.887	4.03
391.248	4
391.609	3.98
391.969	3.94
392.33	3.91
392.691	3.92
393.051	3.88
393.412	3.88
393.772	3.88
394.133	3.92
394.493	3.9
394.854	3.95
395.214	3.9
395.574	3.88
395.935	3.85
396.295	3.79
396.655	3.79
397.015	3.8
397.376	3.78
397.736	3.71
398.096	3.67
398.456	3.63
398.816	3.66
399.176	3.6
399.535	3.63
399.895	3.63
400.255	3.61
400.615	3.63
400.975	3.61
401.334	3.6
401.694	3.59
402.054	3.64
402.413	3.62
402.773	3.64
403.132	3.65
403.492	3.65
403.851	3.68
404.211	3.69
404.57	3.71
404.929	3.7
405.288	3.76
405.648	3.79
406.007	3.81
406.366	3.78
406.725	3.82
407.084	3.82
407.443	3.82
407.802	3.81
408.161	3.83
408.52	3.87
408.879	3.88
409.238	3.9
409.596	3.86
409.955	3.89
410.314	3.86
410.673	3.85
411.031	3.84
411.39	3.82
411.748	3.8
412.107	3.78
412.465	3.74
412.824	3.73
413.182	3.71
413.54	3.72
413.899	3.73
414.257	3.73
414.615	3.74
414.974	3.75
415.332	3.78
415.69	3.76
416.048	3.76
416.406	3.74
416.764	3.73
417.122	3.72
417.48	3.7
417.838	3.71
418.195	3.7
418.553	3.72
418.911	3.71
419.269	3.73
419.626	3.73
419.984	3.74
420.342	3.75
420.699	3.77
421.057	3.77
421.414	3.8
421.772	3.8
422.129	3.79
422.486	3.78
422.844	3.77
423.201	3.77
423.558	3.78
423.915	3.78
424.273	3.78
424.63	3.8
424.987	3.81
425.344	3.81
425.701	3.83
426.058	3.81
426.415	3.81
426.772	3.79
427.128	3.82
427.485	3.85
427.842	3.83
428.199	3.81
428.555	3.79
428.912	3.77
429.269	3.78
429.625	3.8
429.982	3.81
430.338	3.8
430.695	3.79
431.051	3.74
431.407	3.75
431.764	3.73
432.12	3.76
432.476	3.77
432.832	3.78
433.189	3.77
433.545	3.76
433.901	3.77
434.257	3.79
434.613	3.77
434.969	3.75
435.325	3.76
435.681	3.77
436.036	3.77
436.392	3.76
436.748	3.76
437.104	3.77
437.459	3.77
437.815	3.78
438.171	3.79
438.526	3.82
438.882	3.82
439.237	3.82
439.593	3.81
439.948	3.8
440.304	3.78
440.659	3.79
441.014	3.8
441.369	3.81
441.725	3.8
442.08	3.81
442.435	3.81
442.79	3.81
443.145	3.82
443.5	3.84
443.855	3.85
444.21	3.85
444.565	3.83
444.92	3.84
445.275	3.84
445.629	3.85
445.984	3.83
446.339	3.84
446.693	3.86
447.048	3.84
447.403	3.85
447.757	3.86
448.112	3.87
448.466	3.88
448.82	3.87
449.175	3.87
449.529	3.87
449.883	3.88
450.238	3.87
450.592	3.87
450.946	3.86
451.3	3.86
451.654	3.85
452.008	3.87
452.362	3.86
452.716	3.86
453.07	3.85
453.424	3.87
453.778	3.89
454.132	3.88
454.486	3.89
454.839	3.89
455.193	3.92
455.547	3.9
455.9	3.9
456.254	3.91
456.607	3.92
456.961	3.92
457.314	3.9
457.668	3.91
458.021	3.92
458.375	3.93
458.728	3.92
459.081	3.93
459.434	3.91
459.787	3.92
460.141	3.91
460.494	3.92
460.847	3.92
461.2	3.9
461.553	3.91
461.906	3.91
462.259	3.88
462.611	3.88
462.964	3.9
463.317	3.87
463.67	3.87
464.022	3.86
464.375	3.83
464.728	3.84
465.08	3.84
465.433	3.82
465.785	3.85
466.138	3.86
466.49	3.87
466.843	3.92
467.195	3.93
467.547	3.92
467.899	3.89
468.252	3.88
468.604	3.9
468.956	3.9
469.308	3.9
469.66	3.94
470.012	3.93
470.364	3.92
470.716	3.95
471.068	3.97
471.42	3.98
471.772	4.01
472.123	4.02
472.475	4.03
472.827	4.04
473.178	4.01
473.53	4.03
473.882	4.02
474.233	4
474.585	3.97
474.936	4
475.288	4.01
475.639	4.02
475.99	3.98
476.342	3.97
476.693	3.97
477.044	3.97
477.395	3.97
477.746	3.93
478.097	3.94
478.448	3.93
478.8	3.94
479.15	3.94
479.501	3.93
479.852	3.92
480.203	3.93
480.554	3.95
480.905	3.95
481.255	3.96
481.606	3.98
481.957	4
482.307	4.01
482.658	4.02
483.009	4.03
483.359	4.06
483.709	4.07
484.06	4.07
484.41	4.06
484.761	4.05
485.111	4.07
485.461	4.07
485.811	4.08
486.162	4.07
486.512	4.08
486.862	4.08
487.212	4.09
487.562	4.07
487.912	4.07
488.262	4.06
488.612	4.07
488.961	4.05
489.311	4.05
489.661	4.04
490.011	4.03
490.36	4.02
490.71	4.02
491.06	4.02
491.409	4.02
491.759	4.04
492.108	4.04
492.458	4.03
492.807	4.02
493.157	4.03
493.506	4.03
493.855	4.01
494.204	4.01
494.554	4.02
494.903	4.03
495.252	4.03
495.601	4.05
495.95	4.06
496.299	4.08
496.648	4.1
496.997	4.11
497.346	4.13
497.695	4.14
498.043	4.14
498.392	4.13
498.741	4.13
499.09	4.12
499.438	4.15
499.787	4.16
500.135	4.16
500.484	4.15
500.832	4.16
501.181	4.19
501.529	4.21
501.878	4.2
502.226	4.22
502.574	4.22
502.923	4.21
503.271	4.22
503.619	4.22
503.967	4.19
504.315	4.19
504.663	4.18
505.011	4.17
505.359	4.16
505.707	4.17
506.055	4.18
506.403	4.16
506.751	4.16
507.098	4.18
507.446	4.19
507.794	4.19
508.141	4.2
508.489	4.21
508.837	4.17
509.184	4.2
509.531	4.19
509.879	4.19
510.226	4.21
510.574	4.21
510.921	4.2
511.268	4.22
511.616	4.21
511.963	4.22
512.31	4.22
512.657	4.21
513.004	4.18
513.351	4.18
513.698	4.19
514.045	4.2
514.392	4.19
514.739	4.19
515.086	4.2
515.432	4.21
515.779	4.19
516.126	4.23
516.473	4.22
516.819	4.24
517.166	4.26
517.512	4.26
517.859	4.27
518.205	4.25
518.552	4.26
518.898	4.27
519.245	4.27
519.591	4.27
519.937	4.29
520.283	4.31
520.629	4.33
520.976	4.33
521.322	4.37
521.668	4.37
522.014	4.38
522.36	4.37
522.706	4.37
523.052	4.38
523.398	4.4
523.743	4.41
524.089	4.41
524.435	4.4
524.781	4.42
525.126	4.41
525.472	4.43
525.817	4.42
526.163	4.43
526.509	4.44
526.854	4.45
527.199	4.46
527.545	4.45
527.89	4.44
528.235	4.46
528.581	4.45
528.926	4.45
529.271	4.44
529.616	4.45
529.961	4.44
530.306	4.45
530.651	4.44
530.996	4.46
531.341	4.46
531.686	4.47
532.031	4.46
532.376	4.47
532.721	4.48
533.065	4.49
533.41	4.48
533.755	4.47
534.099	4.46
534.444	4.47
534.788	4.49
535.133	4.5
535.477	4.49
535.822	4.47
536.166	4.46
536.51	4.48
536.855	4.5
537.199	4.5
537.543	4.53
537.887	4.51
538.231	4.49
538.576	4.49
538.92	4.49
539.264	4.5
539.608	4.49
539.951	4.49
540.295	4.49
540.639	4.52
540.983	4.52
541.327	4.53
541.671	4.53
542.014	4.53
542.358	4.53
542.701	4.55
543.045	4.55
543.389	4.57
543.732	4.55
544.075	4.55
544.419	4.57
544.762	4.55
545.105	4.56
545.449	4.59
545.792	4.58
546.135	4.6
546.478	4.59
546.821	4.61
547.165	4.6
547.508	4.59
547.851	4.58
548.194	4.6
548.536	4.58
548.879	4.58
549.222	4.58
549.565	4.55
549.908	4.54
550.25	4.52
550.593	4.52
550.936	4.55
551.278	4.52
551.621	4.49
551.963	4.51
552.306	4.55
552.648	4.49
552.991	4.53
553.333	4.52
553.675	4.53
554.017	4.5
554.36	4.52
554.702	4.53
555.044	4.52
555.386	4.54
555.728	4.55
556.07	4.53
556.412	4.55
556.754	4.57
557.096	4.54
557.438	4.58
557.78	4.58
558.121	4.55
558.463	4.57
558.805	4.58
559.147	4.58
559.488	4.52
559.83	4.55
560.171	4.51
560.513	4.47
560.854	4.5
561.196	4.55
561.537	4.57
561.878	4.6
562.22	4.61
562.561	4.61
562.902	4.61
563.243	4.62
563.584	4.6
563.925	4.67
564.266	4.66
564.607	4.66
564.948	4.67
565.289	4.68
565.63	4.65
565.971	4.68
566.312	4.68
566.653	4.71
566.993	4.7
567.334	4.75
567.675	4.77
568.015	4.73
568.356	4.68
568.696	4.67
569.037	4.64
569.377	4.61
569.718	4.61
570.058	4.6
570.398	4.61
570.739	4.58
571.079	4.5
571.419	4.51
571.759	4.51
572.099	4.49
572.439	4.52
572.779	4.54
573.119	4.51
573.459	4.48
573.799	4.49
574.139	4.46
574.479	4.44
574.819	4.44
575.158	4.45
575.498	4.48
575.838	4.48
576.177	4.47
576.517	4.5
576.856	4.51
577.196	4.51
577.535	4.52
577.875	4.54
578.214	4.57
578.553	4.59
578.893	4.6
579.232	4.64
579.571	4.63
579.91	4.66
580.25	4.7
580.589	4.71
580.928	4.72
581.267	4.71
581.606	4.73
581.945	4.73
582.283	4.76
582.622	4.72
582.961	4.7
583.3	4.7
583.639	4.68
583.977	4.65
584.316	4.67
584.654	4.65
584.993	4.7
585.332	4.69
585.67	4.69
586.008	4.66
586.347	4.63
586.685	4.61
587.024	4.58
587.362	4.55
587.7	4.59
588.038	4.57
588.376	4.63
588.715	4.61
589.053	4.57
589.391	4.56
589.729	4.58
590.067	4.55
590.404	4.58
590.742	4.61
591.08	4.63
591.418	4.6
591.756	4.63
592.093	4.61
592.431	4.66
592.769	4.67
593.106	4.69
593.444	4.72
593.781	4.76
594.119	4.79
594.456	4.78
594.793	4.76
595.131	4.76
595.468	4.73
595.805	4.76
596.143	4.74
596.48	4.77
596.817	4.76
597.154	4.82
597.491	4.82
597.828	4.83
598.165	4.85
598.502	4.86
598.839	4.85
599.176	4.85
599.512	4.81
599.849	4.8
600.186	4.79
600.523	4.8
600.859	4.77
601.196	4.76
601.532	4.78
601.869	4.77
602.205	4.8
602.542	4.79
602.878	4.77
603.215	4.79
603.551	4.78
603.887	4.8
604.223	4.76
604.56	4.77
604.896	4.76
605.232	4.75
605.568	4.75
605.904	4.76
606.24	4.73
606.576	4.78
606.912	4.78
607.248	4.79
607.583	4.81
607.919	4.8
608.255	4.82
608.591	4.86
608.926	4.85
609.262	4.83
609.597	4.88
609.933	4.86
610.268	4.89
610.604	4.89
610.939	4.89
611.275	4.89
611.61	4.92
611.945	4.89
612.281	4.84
612.616	4.88
612.951	4.9
613.286	4.94
613.621	4.95
613.956	4.98
614.291	5.02
614.626	4.96
614.961	4.95
615.296	4.91
615.631	4.87
615.966	4.9
616.3	4.92
616.635	4.88
616.97	4.91
617.304	4.84
617.639	4.8
617.973	4.81
618.308	4.87
618.642	4.81
618.977	4.8
619.311	4.86
619.646	4.85
619.98	4.87
620.314	4.84
620.648	4.78
620.983	4.7
621.317	4.74
621.651	4.8
621.985	4.78
622.319	4.84
622.653	4.85
622.987	4.87
623.321	4.83
623.655	4.83
623.988	4.89
624.322	4.93
624.656	4.94
624.99	4.93
625.323	4.87
625.657	4.92
625.99	4.94
626.324	4.93
626.657	4.92
626.991	4.87
627.324	4.87
627.658	4.9
627.991	4.95
628.324	4.88
628.657	4.85
628.991	4.92
629.324	4.92
629.657	4.87
629.99	4.83
630.323	4.89
630.656	4.87
630.989	4.87
631.322	4.88
631.655	4.88
631.987	4.92
632.32	4.98
632.653	4.92
632.986	4.93
633.318	4.93
633.651	4.94
633.984	4.93
634.316	4.99
634.649	5
634.981	4.94
635.313	5.01
635.646	5
635.978	5
636.31	5.04
636.643	5.06
636.975	5.09
637.307	5.1
637.639	5.11
637.971	5
638.303	5.02
638.635	4.96
638.967	4.98
639.299	4.94
639.631	5.08
639.963	5.01
640.295	5.01
640.626	4.96
640.958	5.03
641.29	4.97
641.621	4.97
641.953	5.02
642.285	5
642.616	5.06
642.948	4.95
643.279	4.88
643.61	4.94
643.942	4.94
644.273	4.98
644.604	5.04
644.936	5.11
645.267	5.09
645.598	5.19
645.929	5.16
646.26	5.16
646.591	5.12
646.922	5.2
647.253	5.18
647.584	5.26
647.915	5.23
648.245	5.29
648.576	5.3
648.907	5.32
649.238	5.25
649.568	5.21
649.899	5.25
650.229	5.28
650.56	5.27
650.89	5.29
651.221	5.27
651.551	5.34
651.882	5.33
652.212	5.39
652.542	5.46
652.872	5.47
653.203	5.6
653.533	5.55
653.863	5.55
654.193	5.55
654.523	5.44
654.853	5.49
655.183	5.45
655.513	5.44
655.843	5.41
656.172	5.52
656.502	5.41
656.832	5.52
657.162	5.51
657.491	5.52
657.821	5.49
658.15	5.49
658.48	5.42
658.809	5.39
659.139	5.41
659.468	5.38
659.798	5.37
660.127	5.2
660.456	5.23
660.785	5.28
661.115	5.33
661.444	5.41
661.773	5.39
662.102	5.33
662.431	5.34
662.76	5.36
663.089	5.35
663.418	5.44
663.747	5.41
664.076	5.35
664.404	5.4
664.733	5.39
665.062	5.34
665.39	5.28
665.719	5.31
666.048	5.19
666.376	5.18
666.705	5.16
667.033	5.29
667.362	5.2
667.69	5.12
668.018	5.09
668.347	5.12
668.675	5.06
669.003	5.11
669.331	5.15
669.659	5.11
669.987	5.05
670.315	5.11
670.643	5.03
670.971	5.08
671.299	5.07
671.627	5.16
671.955	5.16
672.283	5.26
672.61	5.25
672.938	5.4
673.266	5.33
673.593	5.24
673.921	5.18
674.249	5.21
674.576	5.25
674.904	5.21
675.231	5.21
675.558	5.28
675.886	5.31
676.213	5.21
676.54	5.33
676.867	5.31
677.195	5.35
677.522	5.42
677.849	5.44
678.176	5.38
678.503	5.26
678.83	5.27
679.157	5.24
679.484	5.25
679.81	5.19
680.137	5.24
680.464	5.31
680.791	5.32
681.117	5.36
681.444	5.3
681.771	5.3
682.097	5.35
682.424	5.32
682.75	5.42
683.077	5.53
683.403	5.46
683.729	5.44
684.056	5.32
684.382	5.3
684.708	5.28
685.034	5.24
685.36	5.29
685.686	5.33
686.012	5.4
686.339	5.43
686.664	5.45
686.99	5.4
687.316	5.38
687.642	5.43
687.968	5.45
688.294	5.56
688.619	5.6
688.945	5.57
689.271	5.53
689.596	5.44
689.922	5.37
690.247	5.42
690.573	5.49
690.898	5.49
691.224	5.42
691.549	5.51
691.874	5.56
692.2	5.55
692.525	5.66
692.85	5.66
693.175	5.76
693.5	5.69
693.825	5.75
694.15	5.63
694.475	5.62
694.8	5.61
695.125	5.5
695.45	5.42
695.775	5.44
696.099	5.51
696.424	5.5
696.749	5.55
697.073	5.55
697.398	5.59
697.723	5.74
698.047	5.89
698.372	5.88
698.696	5.9
699.02	6.01
699.345	5.93
699.669	5.84
699.993	5.74
700.318	5.81
700.642	5.88
700.966	6
701.29	6.05
701.614	6.14
701.938	6.29
702.262	6.37
702.586	6.43
702.91	6.37
703.234	6.32
703.557	6.29
703.881	6.2
704.205	6.21
704.529	6.21
704.852	6.1
705.176	6.11
705.499	6.08
705.823	5.98
706.146	6
706.47	6.14
706.793	6.21
707.117	6.29
707.44	6.25
707.763	6.32
708.086	6.28
708.409	6.16
708.733	5.88
709.056	6.01
709.379	5.96
709.702	5.96
710.025	6.13
710.348	6.22
710.671	6.29
710.993	6.25
711.316	6.14
711.639	6.18
711.962	6.14
712.284	6.13
712.607	6.14
712.93	6.19
713.252	6.11
713.575	6.05
713.897	6.03
714.22	6.03
714.542	6.25
714.864	6.3
715.187	6.33
715.509	6.44
715.831	6.38
716.153	6.38
716.475	6.55
716.798	6.46
717.12	6.45
717.442	6.47
717.764	6.41
718.085	6.44
718.407	6.32
718.729	6.21
719.051	6.12
719.373	6.13
719.695	6
720.016	5.99
720.338	6.11
720.659	6.25
720.981	6.06
721.302	5.77
721.624	5.7
721.945	5.63
722.267	5.78
722.588	5.73
722.909	5.47
723.231	5.35
723.552	5.31
723.873	5.14
724.194	5.17
724.515	5.23
724.836	5.23
725.157	5.24
725.478	5.47
725.799	5.63
726.12	5.53
726.441	5.59
726.762	5.52
727.083	5.42
727.403	5.18
727.724	5.45
728.045	5.7
728.365	5.61
728.686	5.79
729.006	5.73
729.327	5.75
729.647	5.9
729.967	6.03
730.288	6.09
730.608	6.21
730.928	6.29
731.249	6.41
731.569	6.46
731.889	6.66
732.209	6.52
732.529	6.36
732.849	6.41
733.169	6.39
733.489	6.45
733.809	6.39
734.129	6.36
734.448	6.42
734.768	6.23
735.088	6.27
735.408	5.99
735.727	6.04
736.047	6.06
736.366	6.18
736.686	6
737.005	5.94
737.325	5.82
737.644	5.58
737.963	5.29
738.283	5.23
738.602	5.16
738.921	5.26
739.24	5.49
739.56	5.73
739.879	5.79
740.198	5.7
740.517	5.71
740.836	5.6
741.155	5.52
741.473	5.48
741.792	5.62
742.111	5.83
742.43	5.97
742.748	6.08
743.067	6.11
743.386	6.15
743.704	6.26
744.023	6.36
744.341	6.42
744.66	6.54
744.978	6.62
745.297	6.45
745.615	6.36
745.933	6.4
746.252	6.25
746.57	6.19
746.888	6.43
747.206	6.55
747.524	6.78
747.842	6.58
748.16	6.73
748.478	6.79
748.796	6.72
749.114	6.48
749.432	6.37
749.749	6.1
750.067	6.07
750.385	6.13
750.703	6.44
751.02	6.58
751.338	6.51
751.655	6.39
751.973	6.53
752.29	6.47
752.608	6.17
752.925	6.23
753.242	6.35
753.56	6.21
753.877	5.99
754.194	6.17
754.511	5.83
754.828	5.63
755.145	5.4
755.462	5.62
755.779	5.69
756.096	5.83
756.413	6.3
756.73	6.58
757.047	6.37
757.364	5.98
757.68	6.04
757.997	6.41
758.314	6.7
758.63	6.6
758.947	6.77
759.264	6.86
759.58	6.95
759.896	7.17
760.213	7.21
760.529	7.5
760.846	7.46
761.162	7.72
761.478	7.63
761.794	7.73
762.11	7.48
762.426	7.33
762.743	7.32
763.059	7.06
763.375	6.88
763.69	7.16
764.006	7.59
764.322	7.56
764.638	7.55
764.954	7.49
765.27	7.52
765.585	7.6
765.901	7.69
766.216	7.61
766.532	7.38
766.848	7.43
767.163	7.05
767.478	7.15
767.794	7.2
768.109	7.29
768.424	7.34
768.74	7.51
769.055	8.07
769.37	8.06
769.685	8.27
770	8.31
770.315	7.97
770.63	7.67
770.945	7.74
771.26	7.59
771.575	7.78
771.89	7.79
772.205	7.63
772.52	7.57
772.834	7.66
773.149	7.68
773.464	7.44
773.778	7.94
774.093	7.93
774.407	8.52
774.722	8.45
775.036	8.32
775.351	8.56
775.665	8.49
775.979	8.48
776.293	8.46
776.608	8.27
776.922	8.78
777.236	8.75
777.55	8.71
777.864	8.9
778.178	8.49
778.492	8.75
778.806	8.83
779.12	8.68
779.434	8.24
779.747	8.28
780.061	8.67
780.375	8.53
780.689	8.33
781.002	8
781.316	8.39
781.629	8.35
781.943	7.94
782.256	7.41
782.57	7.53
782.883	7.8
783.196	8.25
783.51	7.92
783.823	7.69
784.136	7.57
784.449	7.64
784.762	7.94
785.075	7.8
785.388	7.51
785.701	7.78
786.014	7.87
786.327	8.04
786.64	7.88
786.953	8.1
787.266	8.41
787.578	8.15
787.891	7.96
788.204	7.91
788.516	8.04
788.829	8.62
789.141	8.56
789.454	8.18
789.766	8.34
790.079	8.69
790.391	8.99
790.703	9.33
791.016	9.29
791.328	9.31
791.64	9.2
791.952	9.68
792.264	9.38
792.576	9.23
792.888	9
793.2	8.87
793.512	9.06
793.824	8.68
794.136	8.52
794.448	8.52
794.76	8.94
795.071	8.78
795.383	8.45
795.695	9.02
796.006	8.92
796.318	8.23
796.629	7.87
796.941	8.06
797.252	7.59
797.564	7.62
797.875	7.57
798.186	8.17
798.497	8.38
798.809	8.62
799.12	8.87
799.431	8.8
799.742	8.52
800.053	8.31
800.364	8.18
800.675	8.47
800.986	8.16
801.297	8.14
801.608	8.32
801.918	8.57
802.229	7.87
802.54	8.15
802.851	8.7
803.161	9.35
803.472	9.3
803.782	9.48
804.093	8.89
804.403	8.55
804.714	8.78
805.024	8.49
805.334	8.05
805.645	8.37
805.955	8.77
806.265	9.15
806.575	9.09
806.885	9.55
807.195	9.53
807.505	9.84
807.815	9.7
808.125	9.29
808.435	8.81
808.745	8.2
809.055	7.74
809.365	7.7
809.674	6.37
809.984	5.96
810.294	5.4
810.603	5.48
810.913	5.73
811.222	4.63
811.532	4.95
811.841	5.39
812.151	5.6
812.46	5.51
812.769	5.32
813.079	5.43
813.388	5.03
813.697	4.22
814.006	4.83
814.315	5.42
814.624	5.88
814.933	6.03
815.242	6.38
815.551	7.09
815.86	7.24
816.169	7.48
816.478	7.43
816.786	8.01
817.095	8.45
817.404	8.31
817.712	9.39
818.021	8.97
818.33	9.2
818.638	9.08
818.947	8.62
819.255	8.55
819.563	8.52
819.872	8.44
820.18	8.83
820.488	8.97
820.796	8.58
821.105	8.6
821.413	8.51
821.721	8.67
822.029	8.74
822.337	8.74
822.645	8.9
822.953	8.95
823.26	9.07
823.568	8.98
823.876	9.12
824.184	8.95
824.491	8.97
824.799	9.04
825.107	9.09
825.414	9.22
825.722	9.31
826.029	9.39
826.337	9.44
826.644	9.44
826.951	9.21
827.259	9.19
827.566	9.36
827.873	9.49
828.18	9.62
828.488	9.59
828.795	9.5
829.102	9.61
829.409	9.54
829.716	9.44
830.023	9.48
830.329	9.12
830.636	8.72
830.943	8.56
831.25	8.54
831.557	7.92
831.863	7.7
832.17	7.81
832.476	7.66
832.783	7.64
833.089	7.54
833.396	8.06
833.702	8.61
834.009	8.48
834.315	8.77
834.621	8.41
834.928	8.01
835.234	8.45
835.54	8.19
835.846	8.72
836.152	8.93
836.458	8.81
836.764	9.23
837.07	9.8
837.376	10.33
837.682	10.06
837.988	10.58
838.293	10.51
838.599	10.83
838.905	10.95
839.211	11.22
839.516	11.95
839.822	12.47
840.127	12.48
840.433	12.49
840.738	12.15
841.044	13.24
841.349	14.07
841.654	13.17
841.959	13.55
842.265	11.97
842.57	11.05
842.875	10.83
843.18	10.33
843.485	10.21
843.79	9.18
844.095	9.17
844.4	9.26
844.705	10.58
845.01	11.24
845.315	11.16
845.619	12.03
845.924	11.32
846.229	9.5
846.533	7.86
846.838	7.45
847.142	5.93
847.447	5.96
847.751	6.92
848.056	7.7
848.36	8.97
848.664	10.25
848.969	10.79
849.273	11.59
849.577	11.88
849.881	12.53
850.185	13.89
850.489	13.69
850.794	14.27
851.097	12.88
851.401	10.93
851.705	11.32
852.009	9.36
852.313	9.9
852.617	11.69
852.92	14.26
853.224	15.05
853.528	15.63
853.831	15.67
854.135	14.51
854.438	16.7
854.742	15.72
855.045	15.33
855.349	15.72
855.652	14.45
855.955	13.71
856.259	14.95
856.562	13.17
856.865	12.72
857.168	12.62
857.471	13.6
857.774	14.68
858.077	13.06
858.38	14.38
858.683	14.48
858.986	12.78
859.289	13.06
859.592	12.94
859.894	13.07
860.197	10.78
860.5	11.64
860.802	8.01
861.105	6.74
861.407	6.59
861.71	5.62
862.012	9.38
862.315	8.38
862.617	5.46
862.919	6.5
863.222	6.88
863.524	4.85
863.826	3.43
864.128	3.8
864.43	6.09
864.732	6.71
865.034	5.69
865.336	6.5
865.638	3.32
865.94	2.58
866.242	3.8
866.544	5.95
866.846	5.25
867.147	7.24
867.449	9.33
867.751	10.08
868.052	11.48
868.354	10.63
868.655	11.12
868.957	11.77
869.258	10.42
869.56	11.89
869.861	13.87
870.162	15.53
870.463	14.98
870.765	12.09
871.066	10.54
871.367	11.77
871.668	9.82
871.969	10.48
872.27	12.76
872.571	13.12
872.872	12.62
873.173	11.16
873.473	9.61
873.774	7.11
874.075	6.99
874.376	7.21
874.676	8.55
874.977	8.81
875.277	8.31
875.578	9.95
875.878	9.11
876.179	8.46
876.479	7.99
876.78	7.24
877.08	9.88
877.38	11.17
877.68	9.84
877.981	11.53
878.281	13.94
878.581	9.53
