Data from MVZ_BU123442_Reflection_00014.txt Node
Date: Tue Nov 19 12:12:43 EST 2019
User: vgr7
Spectrometer: USB2G7710
Scans to average: 3
Trigger mode: 4
Integration Time (sec): 2.000000E-2
Electric dark correction enabled: true
Boxcar width: 10
XAxis mode: Wavelengths
Number of Pixels in Spectrum: 2048
>>>>>Begin Spectral Data<<<<<
177.721	-42.54
178.105	-179.22
178.488	-151.17
178.871	-213.56
179.254	-284.21
179.636	22.36
180.019	-305.66
180.402	-0
180.785	21.69
181.168	18.69
181.55	5.25
181.933	21.21
182.316	24.94
182.698	16.13
183.081	9.13
183.463	31.35
183.846	55.42
184.228	114.64
184.611	146.44
184.993	-360
185.376	-2139.13
185.758	149.41
186.14	292.68
186.522	600
186.904	-624
187.287	-608.05
187.669	-87.27
188.051	-112.37
188.433	-93.59
188.815	-66.17
189.197	-36.9
189.579	-36.9
189.961	-40.45
190.342	-35.7
190.724	-41.42
191.106	-41.05
191.488	-35.24
191.869	-4.08
192.251	5.52
192.633	-16.05
193.014	-16.91
193.396	-0.89
193.777	2.68
194.159	10.12
194.54	33.35
194.922	33.64
195.303	56.17
195.684	6.38
196.065	1.04
196.447	-2.67
196.828	15.02
197.209	-11.05
197.59	-12.1
197.971	-2.34
198.352	-20.75
198.733	-25.86
199.114	-25.39
199.495	-18.52
199.876	-13.2
200.257	-22.51
200.638	17.5
201.018	13.12
201.399	17.63
201.78	42.19
202.16	21.58
202.541	-34.51
202.922	-14.57
203.302	-2.92
203.683	-16.22
204.063	-0
204.444	233.59
204.824	72.53
205.204	93.72
205.585	271.73
205.965	1261.02
206.345	-596.32
206.725	-1023.85
207.106	-850.33
207.486	-1147.83
207.866	-173.39
208.246	-333.61
208.626	1513.04
209.006	114.82
209.386	33.96
209.766	0
210.145	1.73
210.525	-11.06
210.905	22.94
211.285	43.24
211.664	41.04
212.044	24.69
212.424	9.8
212.803	-5.47
213.183	-14.5
213.562	-31.17
213.942	-22.42
214.321	-24.56
214.701	-34.01
215.08	-26.68
215.459	-22.13
215.838	-10.2
216.218	-6.13
216.597	3.95
216.976	-4.09
217.355	-6.57
217.734	-36.84
218.113	-28.54
218.492	-21.03
218.871	-32.8
219.25	-47.26
219.629	-49.61
220.008	-25.55
220.387	-24.95
220.766	-11.45
221.144	-2.65
221.523	-5.66
221.902	-10.68
222.28	-6.81
222.659	8.45
223.037	2.75
223.416	-2.85
223.794	-5.12
224.173	-15.94
224.551	-13.85
224.929	-13.77
225.308	-8.75
225.686	2.58
226.064	3.57
226.442	2.61
226.821	3.65
227.199	10.28
227.577	7.34
227.955	10.52
228.333	10.24
228.711	10.77
229.089	5.2
229.467	5.45
229.845	5.47
230.222	6.94
230.6	3.95
230.978	4.51
231.356	5.01
231.733	10.19
232.111	13.61
232.488	14.33
232.866	15.06
233.243	14.62
233.621	15.4
233.998	15.18
234.376	15.14
234.753	14.97
235.13	13.18
235.508	13.68
235.885	10.47
236.262	8.52
236.639	7.53
237.016	8.48
237.393	9.75
237.77	9.05
238.147	7.61
238.524	6.38
238.901	4.4
239.278	4.96
239.655	3.59
240.032	3.39
240.409	3.04
240.785	2.56
241.162	2.37
241.539	2.03
241.915	2.11
242.292	3.24
242.668	3.52
243.045	3.74
243.421	3.97
243.798	4.56
244.174	4.56
244.551	4.64
244.927	4.62
245.303	4.24
245.679	4.41
246.056	4.22
246.432	4.3
246.808	4.49
247.184	4.6
247.56	4.61
247.936	4.64
248.312	4.88
248.688	5.1
249.064	5.3
249.44	5.2
249.815	5.21
250.191	5.05
250.567	4.79
250.943	4.96
251.318	4.71
251.694	4.62
252.069	4.93
252.445	4.57
252.82	4.58
253.196	4.66
253.571	4.92
253.947	5.05
254.322	5.12
254.697	5.03
255.073	4.66
255.448	4.48
255.823	4.39
256.198	4.19
256.573	3.88
256.948	3.78
257.323	3.88
257.698	3.84
258.073	3.41
258.448	3.46
258.823	3.22
259.198	3.29
259.573	3.11
259.948	3.11
260.322	3.42
260.697	3.53
261.072	3.56
261.446	3.5
261.821	3.62
262.195	3.73
262.57	3.82
262.944	3.94
263.319	4.07
263.693	3.99
264.067	4
264.442	4.1
264.816	3.94
265.19	4.04
265.564	4.14
265.938	4.27
266.313	4.06
266.687	4.29
267.061	4.35
267.435	4.6
267.809	4.69
268.183	4.56
268.556	4.42
268.93	4.28
269.304	4.02
269.678	4.19
270.051	4.12
270.425	4.08
270.799	3.75
271.172	3.79
271.546	3.88
271.919	3.78
272.293	3.78
272.666	3.89
273.04	3.65
273.413	3.53
273.787	3.61
274.16	3.67
274.533	3.66
274.906	3.7
275.279	3.56
275.653	3.4
276.026	3.4
276.399	3.3
276.772	3.45
277.145	3.53
277.518	3.3
277.891	3.13
278.263	3.26
278.636	3.53
279.009	3.55
279.382	3.43
279.755	3.39
280.127	3.29
280.5	3.42
280.872	3.84
281.245	3.64
281.617	3.58
281.99	3.56
282.362	3.33
282.735	3.2
283.107	3.2
283.479	3.25
283.852	3.15
284.224	3.12
284.596	3.17
284.968	3.2
285.34	3.21
285.713	3.29
286.085	3.18
286.457	3.06
286.829	2.87
287.201	2.91
287.572	3.06
287.944	3.19
288.316	3.19
288.688	3.13
289.06	3.29
289.431	3.39
289.803	3.67
290.175	3.82
290.546	3.92
290.918	3.91
291.289	3.71
291.661	3.9
292.032	3.97
292.403	3.8
292.775	3.9
293.146	3.91
293.517	4.02
293.889	4.06
294.26	4.06
294.631	4.31
295.002	4.31
295.373	4.26
295.744	4.22
296.115	4.16
296.486	4.17
296.857	4.2
297.228	4.19
297.599	4.06
297.97	4.21
298.34	4.2
298.711	4.27
299.082	4.46
299.452	4.34
299.823	4.48
300.194	4.57
300.564	4.36
300.935	4.55
301.305	4.44
301.676	4.45
302.046	4.61
302.416	4.59
302.787	4.68
303.157	4.74
303.527	4.87
303.897	4.95
304.267	4.89
304.637	4.87
305.008	4.87
305.378	4.92
305.748	4.86
306.117	5
306.487	5.11
306.857	5.22
307.227	5.37
307.597	5.32
307.967	5.37
308.336	5.64
308.706	5.46
309.076	5.67
309.445	5.69
309.815	5.73
310.184	5.82
310.554	5.96
310.923	5.97
311.293	5.93
311.662	5.98
312.031	5.94
312.401	5.99
312.77	5.98
313.139	5.93
313.508	5.84
313.877	5.83
314.246	5.77
314.616	5.73
314.985	5.65
315.353	5.63
315.722	5.66
316.091	5.54
316.46	5.59
316.829	5.49
317.198	5.62
317.567	5.84
317.935	5.88
318.304	5.83
318.672	5.89
319.041	5.99
319.41	5.94
319.778	6.04
320.147	5.99
320.515	5.92
320.883	6
321.252	6.05
321.62	6.05
321.988	6.12
322.357	6.13
322.725	6.23
323.093	6.32
323.461	6.53
323.829	6.66
324.197	6.72
324.565	6.7
324.933	6.72
325.301	6.54
325.669	6.48
326.037	6.49
326.405	6.42
326.772	6.39
327.14	6.49
327.508	6.45
327.875	6.35
328.243	6.5
328.61	6.48
328.978	6.54
329.346	6.58
329.713	6.55
330.08	6.75
330.448	6.75
330.815	6.83
331.182	6.74
331.55	6.69
331.917	6.66
332.284	6.86
332.651	6.84
333.018	6.83
333.385	6.72
333.752	6.68
334.119	6.89
334.486	6.93
334.853	6.93
335.22	6.91
335.587	7.17
335.954	7.16
336.32	7.27
336.687	7.33
337.054	7.36
337.42	7.49
337.787	7.34
338.153	7.29
338.52	7.24
338.886	7.22
339.253	7.34
339.619	7.39
339.986	7.16
340.352	7.26
340.718	7.23
341.084	7.41
341.451	7.43
341.817	7.38
342.183	7.37
342.549	7.38
342.915	7.53
343.281	7.59
343.647	7.7
344.013	7.59
344.379	7.54
344.745	7.46
345.11	7.38
345.476	7.51
345.842	7.48
346.208	7.48
346.573	7.57
346.939	7.49
347.304	7.55
347.67	7.77
348.035	7.71
348.401	7.8
348.766	7.73
349.132	7.81
349.497	7.86
349.862	7.89
350.228	7.91
350.593	7.87
350.958	7.93
351.323	7.88
351.688	7.99
352.053	8.03
352.418	8.16
352.783	8.22
353.148	8.17
353.513	8.28
353.878	8.33
354.243	8.24
354.608	8.4
354.972	8.27
355.337	8.15
355.702	8.21
356.066	8.19
356.431	8.23
356.795	8.24
357.16	8.12
357.524	8.07
357.889	7.98
358.253	7.88
358.618	7.74
358.982	7.75
359.346	7.8
359.71	7.83
360.075	7.7
360.439	7.74
360.803	7.78
361.167	7.77
361.531	7.73
361.895	7.71
362.259	7.67
362.623	7.69
362.987	7.67
363.351	7.63
363.714	7.7
364.078	7.68
364.442	7.57
364.806	7.57
365.169	7.62
365.533	7.7
365.896	7.83
366.26	7.86
366.623	7.76
366.987	7.7
367.35	7.6
367.714	7.67
368.077	7.64
368.44	7.65
368.803	7.58
369.167	7.51
369.53	7.54
369.893	7.48
370.256	7.47
370.619	7.49
370.982	7.38
371.345	7.3
371.708	7.24
372.071	7.31
372.434	7.21
372.797	7.16
373.159	7.12
373.522	7.03
373.885	6.95
374.247	6.91
374.61	6.89
374.973	6.89
375.335	6.81
375.698	6.63
376.06	6.54
376.423	6.46
376.785	6.48
377.147	6.42
377.51	6.33
377.872	6.29
378.234	6.21
378.596	6.18
378.958	6.17
379.321	6.12
379.683	6.08
380.045	6.08
380.407	6.07
380.769	6.01
381.13	5.92
381.492	5.91
381.854	5.96
382.216	5.93
382.578	5.87
382.939	5.82
383.301	5.88
383.663	5.84
384.024	5.88
384.386	5.93
384.747	5.88
385.109	5.91
385.47	5.92
385.832	5.9
386.193	5.9
386.554	5.79
386.916	5.8
387.277	5.71
387.638	5.74
387.999	5.71
388.36	5.65
388.721	5.61
389.082	5.61
389.443	5.58
389.804	5.54
390.165	5.56
390.526	5.59
390.887	5.54
391.248	5.52
391.609	5.48
391.969	5.39
392.33	5.35
392.691	5.29
393.051	5.25
393.412	5.23
393.772	5.21
394.133	5.22
394.493	5.18
394.854	5.13
395.214	5.09
395.574	5
395.935	5
396.295	5.03
396.655	5.02
397.015	4.97
397.376	4.97
397.736	4.89
398.096	4.81
398.456	4.81
398.816	4.77
399.176	4.73
399.535	4.72
399.895	4.72
400.255	4.68
400.615	4.65
400.975	4.62
401.334	4.61
401.694	4.6
402.054	4.58
402.413	4.61
402.773	4.59
403.132	4.58
403.492	4.58
403.851	4.56
404.211	4.51
404.57	4.51
404.929	4.5
405.288	4.49
405.648	4.51
406.007	4.49
406.366	4.49
406.725	4.48
407.084	4.48
407.443	4.46
407.802	4.46
408.161	4.47
408.52	4.47
408.879	4.48
409.238	4.46
409.596	4.47
409.955	4.44
410.314	4.44
410.673	4.45
411.031	4.41
411.39	4.39
411.748	4.43
412.107	4.41
412.465	4.35
412.824	4.38
413.182	4.4
413.54	4.38
413.899	4.36
414.257	4.34
414.615	4.34
414.974	4.31
415.332	4.3
415.69	4.28
416.048	4.28
416.406	4.24
416.764	4.21
417.122	4.18
417.48	4.18
417.838	4.15
418.195	4.14
418.553	4.13
418.911	4.1
419.269	4.08
419.626	4.07
419.984	4.08
420.342	4.05
420.699	4.03
421.057	4.02
421.414	4.02
421.772	4.02
422.129	3.99
422.486	3.99
422.844	3.97
423.201	3.96
423.558	3.95
423.915	3.95
424.273	3.95
424.63	3.93
424.987	3.91
425.344	3.9
425.701	3.89
426.058	3.9
426.415	3.89
426.772	3.87
427.128	3.87
427.485	3.84
427.842	3.85
428.199	3.82
428.555	3.8
428.912	3.77
429.269	3.75
429.625	3.74
429.982	3.73
430.338	3.75
430.695	3.73
431.051	3.74
431.407	3.7
431.764	3.71
432.12	3.73
432.476	3.75
432.832	3.77
433.189	3.77
433.545	3.76
433.901	3.79
434.257	3.8
434.613	3.79
434.969	3.81
435.325	3.8
435.681	3.8
436.036	3.83
436.392	3.84
436.748	3.86
437.104	3.88
437.459	3.87
437.815	3.89
438.171	3.91
438.526	3.89
438.882	3.9
439.237	3.87
439.593	3.86
439.948	3.85
440.304	3.84
440.659	3.83
441.014	3.82
441.369	3.8
441.725	3.8
442.08	3.79
442.435	3.78
442.79	3.77
443.145	3.77
443.5	3.76
443.855	3.76
444.21	3.73
444.565	3.71
444.92	3.72
445.275	3.72
445.629	3.71
445.984	3.7
446.339	3.72
446.693	3.73
447.048	3.73
447.403	3.73
447.757	3.74
448.112	3.75
448.466	3.73
448.82	3.73
449.175	3.73
449.529	3.75
449.883	3.74
450.238	3.75
450.592	3.75
450.946	3.77
451.3	3.76
451.654	3.77
452.008	3.79
452.362	3.77
452.716	3.75
453.07	3.76
453.424	3.76
453.778	3.75
454.132	3.73
454.486	3.74
454.839	3.73
455.193	3.72
455.547	3.74
455.9	3.75
456.254	3.74
456.607	3.74
456.961	3.73
457.314	3.74
457.668	3.72
458.021	3.73
458.375	3.7
458.728	3.68
459.081	3.7
459.434	3.69
459.787	3.72
460.141	3.71
460.494	3.72
460.847	3.73
461.2	3.74
461.553	3.75
461.906	3.75
462.259	3.74
462.611	3.75
462.964	3.76
463.317	3.75
463.67	3.79
464.022	3.79
464.375	3.79
464.728	3.79
465.08	3.83
465.433	3.85
465.785	3.87
466.138	3.91
466.49	3.91
466.843	3.94
467.195	3.96
467.547	3.97
467.899	4
468.252	3.99
468.604	3.98
468.956	4
469.308	4.01
469.66	4.03
470.012	4.04
470.364	4.04
470.716	4.06
471.068	4.05
471.42	4.06
471.772	4.07
472.123	4.09
472.475	4.09
472.827	4.09
473.178	4.1
473.53	4.1
473.882	4.1
474.233	4.1
474.585	4.08
474.936	4.09
475.288	4.05
475.639	4.08
475.99	4.09
476.342	4.1
476.693	4.11
477.044	4.13
477.395	4.12
477.746	4.13
478.097	4.13
478.448	4.12
478.8	4.11
479.15	4.1
479.501	4.08
479.852	4.06
480.203	4.06
480.554	4.06
480.905	4.06
481.255	4.05
481.606	4.04
481.957	4.03
482.307	4.01
482.658	4.01
483.009	4
483.359	3.99
483.709	3.99
484.06	3.99
484.41	3.99
484.761	3.99
485.111	3.99
485.461	3.99
485.811	3.99
486.162	3.99
486.512	4
486.862	4.01
487.212	4.01
487.562	4
487.912	4
488.262	4
488.612	4.01
488.961	4.01
489.311	4.02
489.661	4.03
490.011	4.04
490.36	4.05
490.71	4.06
491.06	4.06
491.409	4.05
491.759	4.06
492.108	4.07
492.458	4.08
492.807	4.08
493.157	4.08
493.506	4.09
493.855	4.09
494.204	4.1
494.554	4.12
494.903	4.15
495.252	4.18
495.601	4.19
495.95	4.2
496.299	4.22
496.648	4.27
496.997	4.32
497.346	4.38
497.695	4.42
498.043	4.46
498.392	4.52
498.741	4.58
499.09	4.62
499.438	4.66
499.787	4.69
500.135	4.75
500.484	4.81
500.832	4.88
501.181	4.93
501.529	5
501.878	5.05
502.226	5.14
502.574	5.17
502.923	5.23
503.271	5.32
503.619	5.37
503.967	5.4
504.315	5.44
504.663	5.51
505.011	5.56
505.359	5.63
505.707	5.7
506.055	5.77
506.403	5.83
506.751	5.9
507.098	6.01
507.446	6.08
507.794	6.15
508.141	6.23
508.489	6.32
508.837	6.38
509.184	6.48
509.531	6.56
509.879	6.65
510.226	6.73
510.574	6.8
510.921	6.91
511.268	7.02
511.616	7.13
511.963	7.21
512.31	7.32
512.657	7.4
513.004	7.49
513.351	7.58
513.698	7.68
514.045	7.78
514.392	7.87
514.739	7.97
515.086	8.08
515.432	8.19
515.779	8.28
516.126	8.4
516.473	8.49
516.819	8.59
517.166	8.69
517.512	8.8
517.859	8.9
518.205	8.98
518.552	9.06
518.898	9.13
519.245	9.21
519.591	9.3
519.937	9.39
520.283	9.48
520.629	9.57
520.976	9.64
521.322	9.77
521.668	9.86
522.014	10.01
522.36	10.12
522.706	10.22
523.052	10.38
523.398	10.49
523.743	10.63
524.089	10.76
524.435	10.89
524.781	11.03
525.126	11.12
525.472	11.22
525.817	11.31
526.163	11.4
526.509	11.5
526.854	11.57
527.199	11.65
527.545	11.75
527.89	11.83
528.235	11.95
528.581	12.03
528.926	12.12
529.271	12.19
529.616	12.29
529.961	12.38
530.306	12.47
530.651	12.56
530.996	12.68
531.341	12.79
531.686	12.89
532.031	13.01
532.376	13.14
532.721	13.28
533.065	13.42
533.41	13.56
533.755	13.7
534.099	13.86
534.444	14.03
534.788	14.17
535.133	14.34
535.477	14.5
535.822	14.69
536.166	14.89
536.51	15.11
536.855	15.33
537.199	15.53
537.543	15.77
537.887	16.06
538.231	16.29
538.576	16.53
538.92	16.8
539.264	17.01
539.608	17.25
539.951	17.44
540.295	17.65
540.639	17.84
540.983	18.04
541.327	18.25
541.671	18.44
542.014	18.64
542.358	18.83
542.701	19
543.045	19.19
543.389	19.39
543.732	19.58
544.075	19.78
544.419	19.98
544.762	20.17
545.105	20.37
545.449	20.6
545.792	20.87
546.135	21.09
546.478	21.36
546.821	21.64
547.165	21.94
547.508	22.25
547.851	22.56
548.194	22.82
548.536	23.07
548.879	23.35
549.222	23.63
549.565	23.91
549.908	24.23
550.25	24.49
550.593	24.77
550.936	25.04
551.278	25.38
551.621	25.7
551.963	26.05
552.306	26.36
552.648	26.66
552.991	26.9
553.333	27.22
553.675	27.54
554.017	27.81
554.36	28.04
554.702	28.3
555.044	28.59
555.386	28.91
555.728	29.24
556.07	29.58
556.412	29.91
556.754	30.2
557.096	30.49
557.438	30.76
557.78	31.07
558.121	31.41
558.463	31.67
558.805	31.96
559.147	32.27
559.488	32.51
559.83	32.79
560.171	33.09
560.513	33.43
560.854	33.71
561.196	34
561.537	34.27
561.878	34.55
562.22	34.81
562.561	35.05
562.902	35.25
563.243	35.45
563.584	35.71
563.925	35.98
564.266	36.21
564.607	36.51
564.948	36.7
565.289	36.94
565.63	37.22
565.971	37.42
566.312	37.55
566.653	37.74
566.993	37.86
567.334	38.05
567.675	38.24
568.015	38.36
568.356	38.51
568.696	38.75
569.037	38.98
569.377	39.16
569.718	39.35
570.058	39.6
570.398	39.83
570.739	40.02
571.079	40.16
571.419	40.37
571.759	40.5
572.099	40.68
572.439	40.86
572.779	40.95
573.119	41.15
573.459	41.38
573.799	41.56
574.139	41.8
574.479	41.98
574.819	42.1
575.158	42.34
575.498	42.54
575.838	42.72
576.177	42.8
576.517	42.96
576.856	43.14
577.196	43.33
577.535	43.47
577.875	43.57
578.214	43.78
578.553	43.93
578.893	44.11
579.232	44.3
579.571	44.49
579.91	44.67
580.25	44.83
580.589	44.88
580.928	45.07
581.267	45.16
581.606	45.3
581.945	45.47
582.283	45.58
582.622	45.69
582.961	45.76
583.3	45.96
583.639	46.07
583.977	46.18
584.316	46.19
584.654	46.31
584.993	46.57
585.332	46.63
585.67	46.68
586.008	46.82
586.347	46.9
586.685	46.97
587.024	47.01
587.362	47.11
587.7	47.35
588.038	47.39
588.376	47.46
588.715	47.52
589.053	47.55
589.391	47.6
589.729	47.65
590.067	47.81
590.404	47.96
590.742	48.06
591.08	48.18
591.418	48.32
591.756	48.44
592.093	48.42
592.431	48.58
592.769	48.74
593.106	48.83
593.444	48.95
593.781	49.05
594.119	49.17
594.456	49.21
594.793	49.2
595.131	49.3
595.468	49.4
595.805	49.49
596.143	49.55
596.48	49.62
596.817	49.74
597.154	49.77
597.491	49.77
597.828	49.78
598.165	49.83
598.502	49.92
598.839	50
599.176	50.07
599.512	50.11
599.849	50.16
600.186	50.2
600.523	50.33
600.859	50.34
601.196	50.43
601.532	50.55
601.869	50.7
602.205	50.78
602.542	50.85
602.878	50.97
603.215	51.01
603.551	51.12
603.887	51.2
604.223	51.28
604.56	51.31
604.896	51.42
605.232	51.53
605.568	51.61
605.904	51.59
606.24	51.7
606.576	51.8
606.912	51.87
607.248	51.94
607.583	51.9
607.919	51.98
608.255	52.01
608.591	52.09
608.926	52.06
609.262	52.16
609.597	52.24
609.933	52.24
610.268	52.3
610.604	52.35
610.939	52.33
611.275	52.34
611.61	52.48
611.945	52.47
612.281	52.49
612.616	52.48
612.951	52.66
613.286	52.73
613.621	52.76
613.956	52.86
614.291	52.84
614.626	52.92
614.961	52.97
615.296	53.09
615.631	53.04
615.966	53.14
616.3	53.13
616.635	53.18
616.97	53.3
617.304	53.39
617.639	53.29
617.973	53.47
618.308	53.49
618.642	53.4
618.977	53.5
619.311	53.48
619.646	53.51
619.98	53.43
620.314	53.35
620.648	53.42
620.983	53.38
621.317	53.46
621.651	53.5
621.985	53.53
622.319	53.49
622.653	53.58
622.987	53.58
623.321	53.63
623.655	53.64
623.988	53.57
624.322	53.66
624.656	53.8
624.99	53.74
625.323	53.75
625.657	53.85
625.99	53.88
626.324	53.94
626.657	53.94
626.991	53.92
627.324	54.03
627.658	53.99
627.991	54.02
628.324	54.12
628.657	54.17
628.991	54.16
629.324	54.23
629.657	54.25
629.99	54.32
630.323	54.39
630.656	54.45
630.989	54.54
631.322	54.52
631.655	54.45
631.987	54.46
632.32	54.55
632.653	54.56
632.986	54.53
633.318	54.57
633.651	54.64
633.984	54.68
634.316	54.72
634.649	54.65
634.981	54.68
635.313	54.7
635.646	54.74
635.978	54.85
636.31	54.91
636.643	54.91
636.975	55.04
637.307	55.02
637.639	55.07
637.971	55.07
638.303	55.09
638.635	55.22
638.967	55.28
639.299	55.28
639.631	55.25
639.963	55.35
640.295	55.35
640.626	55.4
640.958	55.58
641.29	55.56
641.621	55.74
641.953	55.79
642.285	55.66
642.616	55.69
642.948	55.67
643.279	55.61
643.61	55.61
643.942	55.48
644.273	55.42
644.604	55.49
644.936	55.5
645.267	55.62
645.598	55.56
645.929	55.49
646.26	55.39
646.591	55.53
646.922	55.61
647.253	55.76
647.584	55.82
647.915	55.78
648.245	55.78
648.576	55.63
648.907	55.64
649.238	55.74
649.568	55.75
649.899	55.87
650.229	55.94
650.56	56.05
650.89	56.07
651.221	56.15
651.551	56
651.882	55.97
652.212	55.86
652.542	56.06
652.872	56.3
653.203	56.43
653.533	56.37
653.863	56.28
654.193	56.23
654.523	56.22
654.853	56.18
655.183	56.23
655.513	56.4
655.843	56.45
656.172	56.62
656.502	56.6
656.832	56.44
657.162	56.39
657.491	56.49
657.821	56.41
658.15	56.43
658.48	56.46
658.809	56.52
659.139	56.59
659.468	56.56
659.798	56.56
660.127	56.64
660.456	56.64
660.785	56.74
661.115	56.78
661.444	56.82
661.773	56.82
662.102	56.85
662.431	56.75
662.76	56.72
663.089	56.51
663.418	56.68
663.747	56.76
664.076	56.91
664.404	56.77
664.733	56.98
665.062	57.08
665.39	57.15
665.719	57.28
666.048	57.35
666.376	57.39
666.705	57.28
667.033	57.31
667.362	57.32
667.69	57.25
668.018	57.29
668.347	57.23
668.675	57.23
669.003	57.16
669.331	57.29
669.659	57.29
669.987	57.37
670.315	57.27
670.643	57.36
670.971	57.35
671.299	57.38
671.627	57.34
671.955	57.24
672.283	57.24
672.61	57.22
672.938	57.1
673.266	57.06
673.593	57.09
673.921	57.07
674.249	57.17
674.576	57.17
674.904	57.13
675.231	57.14
675.558	57.24
675.886	57.31
676.213	57.39
676.54	57.42
676.867	57.56
677.195	57.53
677.522	57.54
677.849	57.75
678.176	57.83
678.503	57.82
678.83	57.84
679.157	57.88
679.484	57.75
679.81	57.8
680.137	57.78
680.464	57.88
680.791	57.93
681.117	57.83
681.444	57.92
681.771	58.05
682.097	58.13
682.424	58.17
682.75	58.09
683.077	58.05
683.403	58.1
683.729	57.95
684.056	58.01
684.382	58.08
684.708	57.78
685.034	57.71
685.36	57.82
685.686	57.94
686.012	57.91
686.339	57.85
686.664	57.87
686.99	57.88
687.316	57.75
687.642	57.6
687.968	57.81
688.294	57.79
688.619	57.71
688.945	57.62
689.271	57.6
689.596	57.75
689.922	57.76
690.247	57.9
690.573	57.83
690.898	57.85
691.224	57.75
691.549	57.72
691.874	57.56
692.2	57.71
692.525	57.74
692.85	57.84
693.175	58.08
693.5	58.2
693.825	58.21
694.15	58.23
694.475	58.28
694.8	58.19
695.125	58.24
695.45	58.33
695.775	58.31
696.099	58.4
696.424	58.49
696.749	58.65
697.073	58.7
697.398	58.61
697.723	58.56
698.047	58.7
698.372	58.84
698.696	59.08
699.02	58.97
699.345	59.06
699.669	59.07
699.993	59.04
700.318	58.94
700.642	59.06
700.966	59.14
701.29	59.33
701.614	59.3
701.938	59.29
702.262	59.27
702.586	59.36
702.91	59.28
703.234	59.16
703.557	58.78
703.881	58.77
704.205	59.13
704.529	59.37
704.852	59.11
705.176	59.21
705.499	59.24
705.823	59.23
706.146	58.97
706.47	58.93
706.793	58.75
707.117	58.75
707.44	58.6
707.763	58.51
708.086	58.52
708.409	58.67
708.733	58.67
709.056	58.6
709.379	58.9
709.702	58.86
710.025	58.98
710.348	59.11
710.671	58.76
710.993	58.85
711.316	58.8
711.639	58.81
711.962	58.54
712.284	58.48
712.607	58.62
712.93	58.77
713.252	58.63
713.575	58.94
713.897	59.14
714.22	59.19
714.542	59.27
714.864	59.12
715.187	58.99
715.509	59.01
715.831	59.1
716.153	58.79
716.475	58.95
716.798	58.67
717.12	58.5
717.442	58.77
717.764	58.74
718.085	58.61
718.407	58.85
718.729	58.98
719.051	59.03
719.373	58.92
719.695	58.99
720.016	59.18
720.338	59.03
720.659	58.92
720.981	59.02
721.302	59.16
721.624	59.09
721.945	59.28
722.267	59.28
722.588	59.21
722.909	59.48
723.231	59.42
723.552	59.96
723.873	60.5
724.194	60.31
724.515	59.96
724.836	60.09
725.157	59.88
725.478	60.02
725.799	59.84
726.12	59.65
726.441	59.59
726.762	59.78
727.083	59.73
727.403	59.87
727.724	59.73
728.045	59.72
728.365	59.8
728.686	59.4
729.006	59.22
729.327	59.24
729.647	59.1
729.967	59.02
730.288	58.82
730.608	58.73
730.928	58.83
731.249	59.19
731.569	59.2
731.889	59.47
732.209	59.62
732.529	59.63
732.849	59.5
733.169	59.55
733.489	59.27
733.809	59.45
734.129	59.56
734.448	59.72
734.768	59.62
735.088	59.61
735.408	59.9
735.727	59.97
736.047	59.91
736.366	60.15
736.686	60.25
737.005	60.02
737.325	59.91
737.644	59.82
737.963	59.69
738.283	59.7
738.602	59.79
738.921	59.49
739.24	59.8
739.56	59.91
739.879	59.61
740.198	59.91
740.517	59.39
740.836	59.3
741.155	59.33
741.473	59.4
741.792	59.4
742.111	59.35
742.43	59.71
742.748	59.73
743.067	59.72
743.386	59.61
743.704	60.11
744.023	60.5
744.341	60.6
744.66	60.57
744.978	60.73
745.297	60.4
745.615	60.61
745.933	60.74
746.252	61.32
746.57	61.76
746.888	61.91
747.206	62.53
747.524	62.19
747.842	61.96
748.16	61.93
748.478	62.11
748.796	62.14
749.114	61.6
749.432	61.74
749.749	61.11
750.067	61.4
750.385	60.88
750.703	60.74
751.02	60.7
751.338	60.69
751.655	60.64
751.973	60.93
752.29	60.89
752.608	60.84
752.925	60.39
753.242	60.27
753.56	60.04
753.877	60.04
754.194	60.06
754.511	60.32
754.828	60.09
755.145	60
755.462	60.45
755.779	61.07
756.096	61.15
756.413	61.32
756.73	61.22
757.047	61.43
757.364	61.44
757.68	61.68
757.997	61.91
758.314	61.75
758.63	61.54
758.947	61.67
759.264	61.75
759.58	61.94
759.896	61.93
760.213	61.96
760.529	61.91
760.846	62.2
761.162	62.2
761.478	62.41
761.794	62.29
762.11	62.19
762.426	61.96
762.743	61.9
763.059	62.05
763.375	61.86
763.69	62
764.006	61.6
764.322	61.46
764.638	61.34
764.954	61.34
765.27	61.16
765.585	60.83
765.901	60.51
766.216	60.39
766.532	60.27
766.848	60.45
767.163	60.52
767.478	60.37
767.794	60.34
768.109	60.54
768.424	60.91
768.74	60.7
769.055	60.62
769.37	60.89
769.685	60.59
770	60.83
770.315	60.79
770.63	61.21
770.945	61.23
771.26	61.27
771.575	61.57
771.89	61.5
772.205	61.91
772.52	61.75
772.834	61.67
773.149	61.55
773.464	61.04
773.778	60.76
774.093	60.99
774.407	60.8
774.722	60.31
775.036	59.92
775.351	59.98
775.665	60.14
775.979	59.76
776.293	60.56
776.608	60.63
776.922	60.21
777.236	60.06
777.55	60.18
777.864	60.69
778.178	60.62
778.492	61.4
778.806	61.64
779.12	62.12
779.434	62.26
779.747	62.7
780.061	62.57
780.375	62.64
780.689	61.89
781.002	61.88
781.316	62.46
781.629	62.55
781.943	61.94
782.256	62.15
782.57	62.08
782.883	61.73
783.196	61.81
783.51	61.79
783.823	61.64
784.136	61.52
784.449	60.39
784.762	60.24
785.075	59.28
785.388	59.19
785.701	58.98
786.014	59
786.327	59.01
786.64	59.39
786.953	59.53
787.266	59.77
787.578	59.59
787.891	59.07
788.204	58.28
788.516	58.41
788.829	58.6
789.141	58.68
789.454	58.75
789.766	58.4
790.079	58.71
790.391	58.71
790.703	59.38
791.016	60.16
791.328	60.28
791.64	61.28
791.952	61.11
792.264	61.51
792.576	62.01
792.888	61.79
793.2	62.01
793.512	61.42
793.824	61.72
794.136	61.66
794.448	61.33
794.76	62.23
795.071	62.66
795.383	62.52
795.695	62.86
796.006	62.11
796.318	62.11
796.629	62.37
796.941	62.94
797.252	62.27
797.564	61.69
797.875	61.33
798.186	61.24
798.497	61.46
798.809	60.93
799.12	60.53
799.431	60.58
799.742	59.98
800.053	61
800.364	60.71
800.675	60.7
800.986	60.76
801.297	60.83
801.608	60.75
801.918	59.99
802.229	59.85
802.54	61.51
802.851	61.55
803.161	61.39
803.472	61.5
803.782	61.61
804.093	61.68
804.403	62.75
804.714	62.76
805.024	62.96
805.334	63.34
805.645	63.49
805.955	63.8
806.265	64.99
806.575	64.96
806.885	64.79
807.195	64.64
807.505	65.49
807.815	65.92
808.125	66.7
808.435	66.92
808.745	66.83
809.055	65.54
809.365	65.78
809.674	65.67
809.984	65.45
810.294	65.65
810.603	65.14
810.913	63.95
811.222	64.22
811.532	64.28
811.841	64.03
812.151	64.38
812.46	63.72
812.769	62.71
813.079	62.16
813.388	62.66
813.697	64.37
814.006	64.59
814.315	64.09
814.624	63.57
814.933	64.53
815.242	64.71
815.551	64.94
815.86	64.92
816.169	63.83
816.478	64.22
816.786	63.75
817.095	65.03
817.404	64.85
817.712	64.58
818.021	64.22
818.33	64.67
818.638	64.89
818.947	64.62
819.255	64.56
819.563	64.64
819.872	64.88
820.18	64.29
820.488	64.08
820.796	64.24
821.105	64.1
821.413	64.28
821.721	64.01
822.029	64.06
822.337	64.32
822.645	64.75
822.953	64.61
823.26	64.49
823.568	64.5
823.876	64.58
824.184	64.33
824.491	64.29
824.799	64.17
825.107	64.12
825.414	64.26
825.722	64.25
826.029	64.1
826.337	63.87
826.644	63.94
826.951	64.02
827.259	63.82
827.566	63.82
827.873	63.52
828.18	63.77
828.488	63.86
828.795	63.56
829.102	63.01
829.409	62.57
829.716	62.87
830.023	62.47
830.329	62.67
830.636	63.09
830.943	63.09
831.25	63.05
831.557	62.8
831.863	63.26
832.17	63.52
832.476	64.29
832.783	64.73
833.089	64.77
833.396	64.55
833.702	64.39
834.009	64.78
834.315	64.73
834.621	64.08
834.928	63.62
835.234	63.4
835.54	63.75
835.846	64.71
836.152	64.66
836.458	64.88
836.764	64.76
837.07	64.09
837.376	63.95
837.682	64.34
837.988	64.44
838.293	64.19
838.599	64.36
838.905	63.85
839.211	62.84
839.516	62.5
839.822	62.25
840.127	63.33
840.433	63.06
840.738	62.95
841.044	63.48
841.349	63.49
841.654	64.53
841.959	65.18
842.265	64.72
842.57	63.64
842.875	64.84
843.18	65.04
843.485	67.3
843.79	67.48
844.095	67.34
844.4	66.38
844.705	66.08
845.01	66.22
845.315	65.4
845.619	68.51
845.924	69.67
846.229	71.03
846.533	69.33
846.838	69.9
847.142	70.56
847.447	72.14
847.751	72.53
848.056	72.55
848.36	70.52
848.664	71.03
848.969	72.89
849.273	70.28
849.577	68.26
849.881	64.58
850.185	63.82
850.489	64.74
850.794	67.92
851.097	66.75
851.401	66.36
851.705	65.64
852.009	65.29
852.313	64.44
852.617	61.64
852.92	62.9
853.224	62.21
853.528	59.83
853.831	59.85
854.135	60.2
854.438	60.44
854.742	61.65
855.045	59.59
855.349	58.16
855.652	61.29
855.955	60.53
856.259	62.96
856.562	63.68
856.865	63.78
857.168	62.32
857.471	61.05
857.774	60.24
858.077	65.09
858.38	64.99
858.683	64.6
858.986	67.57
859.289	69.6
859.592	71.2
859.894	74.13
860.197	75.04
860.5	72.93
860.802	70.15
861.105	71.12
861.407	74.71
861.71	74.8
862.012	71.4
862.315	71.79
862.617	72.13
862.919	71.46
863.222	67.77
863.524	65.87
863.826	66.89
864.128	68.36
864.43	64.36
864.732	64.83
865.034	66.5
865.336	65.82
865.638	63.85
865.94	65.85
866.242	63.39
866.544	62.87
866.846	64.11
867.147	66.48
867.449	66.78
867.751	65.63
868.052	66.3
868.354	70.47
868.655	68.13
868.957	68.07
869.258	70.47
869.56	71.43
869.861	73.04
870.162	73.9
870.463	72.88
870.765	72.96
871.066	72.37
871.367	68.92
871.668	67.55
871.969	66.96
872.27	63.87
872.571	68.48
872.872	69.3
873.173	69.39
873.473	69.02
873.774	66.92
874.075	66.7
874.376	65.9
874.676	61.89
874.977	65.14
875.277	65.03
875.578	63.21
875.878	63.87
876.179	63.04
876.479	63.1
876.78	62.29
877.08	62.37
877.38	60.18
877.68	62.99
877.981	64.7
878.281	65.05
878.581	64.27
