Data from MVZ_BU5182_Reflection_00008.txt Node
Date: Tue Nov 19 12:19:19 EST 2019
User: vgr7
Spectrometer: USB2G7710
Scans to average: 3
Trigger mode: 4
Integration Time (sec): 2.000000E-2
Electric dark correction enabled: true
Boxcar width: 10
XAxis mode: Wavelengths
Number of Pixels in Spectrum: 2048
>>>>>Begin Spectral Data<<<<<
177.721	55.1
178.105	77.4
178.488	19.78
178.871	27.38
179.254	62.22
179.636	101.17
180.019	129.23
180.402	127.27
180.785	-2.3
181.168	-304.76
181.55	155.56
181.933	210.06
182.316	-408.55
182.698	-107.13
183.081	-60.2
183.463	-48.8
183.846	-54.56
184.228	-55.49
184.611	-65
184.993	-40.19
185.376	-44.48
185.758	-31.09
186.14	-42.58
186.522	-46.77
186.904	-50.98
187.287	-57.02
187.669	-49.32
188.051	-52.88
188.433	-84.56
188.815	-84.25
189.197	-83.63
189.579	-58.87
189.961	-49.56
190.342	-51.35
190.724	-62.15
191.106	-74.12
191.488	-82.86
191.869	-55.85
192.251	-62.74
192.633	-56.44
193.014	-59.5
193.396	-62.4
193.777	-56.76
194.159	-56.47
194.54	-57.47
194.922	-54.55
195.303	-56.1
195.684	-59.66
196.065	-53.67
196.447	-36.66
196.828	-46.1
197.209	-42.96
197.59	-48.06
197.971	-56
198.352	-57.38
198.733	-52.47
199.114	-56.51
199.495	-54.41
199.876	-63.63
200.257	-55.91
200.638	-49.98
201.018	-56.16
201.399	-52.1
201.78	-61.71
202.16	-72.83
202.541	-74.17
202.922	-69.12
203.302	-55.15
203.683	-50.15
204.063	-62.11
204.444	-102.67
204.824	-72.09
205.204	-56.51
205.585	-34.37
205.965	-43.24
206.345	-37.46
206.725	-39.53
207.106	-27.15
207.486	-23.32
207.866	-17.84
208.246	-23.16
208.626	-31.89
209.006	-33.91
209.386	-33.99
209.766	-29.55
210.145	-26.71
210.525	-34.14
210.905	-28.02
211.285	-21.08
211.664	-16.91
212.044	-10.48
212.424	-0.55
212.803	-6.46
213.183	-1.62
213.562	-11.04
213.942	-2.3
214.321	1.58
214.701	0.09
215.08	-2.31
215.459	6.17
215.838	-15.76
216.218	-3.9
216.597	-0.57
216.976	0.08
217.355	-7.08
217.734	-5.63
218.113	-9.45
218.492	-2.16
218.871	-13.59
219.25	-17.55
219.629	-25.71
220.008	-22.35
220.387	-24.24
220.766	-18.06
221.144	-26.43
221.523	-18.67
221.902	-17.7
222.28	-16.15
222.659	-4.34
223.037	-7.38
223.416	-7.5
223.794	-1.42
224.173	-6.99
224.551	-3.86
224.929	-2.79
225.308	4.92
225.686	8.8
226.064	10.92
226.442	9.52
226.821	9.92
227.199	6.48
227.577	8.51
227.955	9.31
228.333	8.71
228.711	7.2
229.089	7.57
229.467	4.72
229.845	4.36
230.222	5.22
230.6	3.29
230.978	3.92
231.356	1.57
231.733	3.02
232.111	6.64
232.488	7.2
232.866	9.78
233.243	9.42
233.621	8.91
233.998	10.56
234.376	12.58
234.753	14.81
235.13	16.01
235.508	14.55
235.885	12.97
236.262	12.47
236.639	11.23
237.016	10.55
237.393	10.21
237.77	9.99
238.147	8.82
238.524	8.62
238.901	7.09
239.278	7.05
239.655	6.31
240.032	6.07
240.409	5.83
240.785	5.57
241.162	5.4
241.539	4.66
241.915	3.12
242.292	2.92
242.668	2.77
243.045	3.13
243.421	3.66
243.798	4
244.174	4.11
244.551	4.43
244.927	4.63
245.303	4.35
245.679	4.29
246.056	4.45
246.432	4.12
246.808	4.35
247.184	4.3
247.56	4.04
247.936	3.97
248.312	4.01
248.688	3.9
249.064	3.86
249.44	3.81
249.815	4.52
250.191	4.27
250.567	4.55
250.943	4.38
251.318	4.08
251.694	3.86
252.069	3.86
252.445	3.79
252.82	3.78
253.196	3.78
253.571	4.07
253.947	3.82
254.322	3.84
254.697	3.87
255.073	3.83
255.448	3.92
255.823	3.69
256.198	3.4
256.573	3.62
256.948	3.56
257.323	3.74
257.698	3.54
258.073	3.63
258.448	3.46
258.823	3.29
259.198	3.4
259.573	3.39
259.948	3.48
260.322	3.34
260.697	3.28
261.072	3.33
261.446	3.24
261.821	3.24
262.195	3.35
262.57	3.31
262.944	3.39
263.319	3.39
263.693	3.4
264.067	3.46
264.442	3.38
264.816	3.32
265.19	3.19
265.564	3.12
265.938	3.11
266.313	2.97
266.687	2.99
267.061	2.98
267.435	3.08
267.809	2.77
268.183	2.88
268.556	2.68
268.93	2.82
269.304	2.73
269.678	2.67
270.051	2.75
270.425	2.73
270.799	2.42
271.172	2.55
271.546	2.81
271.919	2.89
272.293	2.82
272.666	2.86
273.04	2.82
273.413	2.86
273.787	2.88
274.16	2.93
274.533	2.98
274.906	3.06
275.279	2.92
275.653	3.15
276.026	3.11
276.399	3.19
276.772	3.19
277.145	3.23
277.518	3.3
277.891	3.16
278.263	3.25
278.636	3.45
279.009	3.4
279.382	3.14
279.755	3.01
280.127	3.06
280.5	2.93
280.872	2.97
281.245	2.8
281.617	2.82
281.99	2.83
282.362	2.89
282.735	2.84
283.107	2.81
283.479	2.71
283.852	2.71
284.224	2.79
284.596	2.82
284.968	2.67
285.34	2.66
285.713	2.6
286.085	2.56
286.457	2.49
286.829	2.52
287.201	2.49
287.572	2.56
287.944	2.61
288.316	2.73
288.688	2.8
289.06	2.93
289.431	2.92
289.803	2.95
290.175	2.83
290.546	2.98
290.918	3.16
291.289	3.17
291.661	3.19
292.032	3.19
292.403	3.11
292.775	3.34
293.146	3.41
293.517	3.55
293.889	3.62
294.26	3.73
294.631	3.69
295.002	3.78
295.373	3.79
295.744	3.76
296.115	3.7
296.486	3.7
296.857	3.75
297.228	3.66
297.599	3.67
297.97	3.82
298.34	3.77
298.711	3.83
299.082	3.93
299.452	4.04
299.823	4.18
300.194	4.25
300.564	4.23
300.935	4.32
301.305	4.38
301.676	4.27
302.046	4.28
302.416	4.48
302.787	4.4
303.157	4.46
303.527	4.52
303.897	4.43
304.267	4.44
304.637	4.4
305.008	4.5
305.378	4.55
305.748	4.55
306.117	4.54
306.487	4.52
306.857	4.56
307.227	4.54
307.597	4.48
307.967	4.53
308.336	4.43
308.706	4.48
309.076	4.5
309.445	4.88
309.815	4.9
310.184	4.75
310.554	4.85
310.923	4.83
311.293	4.85
311.662	5.1
312.031	5.19
312.401	5.23
312.77	5.38
313.139	5.36
313.508	5.44
313.877	5.51
314.246	5.57
314.616	5.51
314.985	5.49
315.353	5.58
315.722	5.64
316.091	5.94
316.46	5.86
316.829	5.83
317.198	5.72
317.567	5.8
317.935	5.9
318.304	6.19
318.672	6.29
319.041	6.26
319.41	6.09
319.778	6.11
320.147	6.15
320.515	6.06
320.883	6.05
321.252	6.05
321.62	6.04
321.988	5.99
322.357	6.04
322.725	6.2
323.093	6.02
323.461	5.98
323.829	5.84
324.197	5.94
324.565	6.06
324.933	6.04
325.301	6.01
325.669	6.08
326.037	5.99
326.405	6.07
326.772	6.12
327.14	6.21
327.508	6.05
327.875	5.98
328.243	5.9
328.61	6.06
328.978	6.04
329.346	6.01
329.713	5.98
330.08	6.14
330.448	6.17
330.815	6.33
331.182	6.38
331.55	6.52
331.917	6.46
332.284	6.53
332.651	6.44
333.018	6.44
333.385	6.49
333.752	6.43
334.119	6.41
334.486	6.47
334.853	6.52
335.22	6.66
335.587	6.78
335.954	6.97
336.32	6.94
336.687	6.96
337.054	7.18
337.42	7.2
337.787	7.14
338.153	7.11
338.52	7.2
338.886	7.26
339.253	7.09
339.619	7.27
339.986	7.15
340.352	7.23
340.718	7.31
341.084	7.32
341.451	7.37
341.817	7.36
342.183	7.42
342.549	7.39
342.915	7.6
343.281	7.6
343.647	7.46
344.013	7.36
344.379	7.45
344.745	7.36
345.11	7.49
345.476	7.65
345.842	7.69
346.208	7.67
346.573	7.62
346.939	7.87
347.304	7.82
347.67	7.94
348.035	8
348.401	8.21
348.766	8.13
349.132	8.26
349.497	8.28
349.862	8.27
350.228	8.33
350.593	8.14
350.958	8.23
351.323	8.41
351.688	8.57
352.053	8.6
352.418	8.61
352.783	8.49
353.148	8.34
353.513	8.25
353.878	8.25
354.243	8.2
354.608	8.15
354.972	8.16
355.337	8.24
355.702	8.16
356.066	8.08
356.431	8.27
356.795	8.06
357.16	8.08
357.524	7.95
357.889	7.88
358.253	7.91
358.618	7.92
358.982	7.96
359.346	7.87
359.71	7.78
360.075	7.76
360.439	7.82
360.803	7.85
361.167	7.86
361.531	7.88
361.895	7.91
362.259	7.92
362.623	7.89
362.987	7.8
363.351	7.87
363.714	7.82
364.078	7.7
364.442	7.79
364.806	7.8
365.169	7.83
365.533	7.83
365.896	7.87
366.26	7.82
366.623	7.68
366.987	7.67
367.35	7.78
367.714	7.82
368.077	7.7
368.44	7.67
368.803	7.61
369.167	7.54
369.53	7.51
369.893	7.4
370.256	7.32
370.619	7.31
370.982	7.2
371.345	7.16
371.708	7.14
372.071	7.08
372.434	6.98
372.797	6.99
373.159	6.97
373.522	6.91
373.885	6.79
374.247	6.73
374.61	6.7
374.973	6.6
375.335	6.52
375.698	6.57
376.06	6.5
376.423	6.44
376.785	6.38
377.147	6.32
377.51	6.34
377.872	6.36
378.234	6.3
378.596	6.31
378.958	6.32
379.321	6.24
379.683	6.23
380.045	6.27
380.407	6.22
380.769	6.19
381.13	6.16
381.492	6.16
381.854	6.18
382.216	6.15
382.578	6.13
382.939	6.08
383.301	6.03
383.663	6.02
384.024	6.07
384.386	6.09
384.747	6.04
385.109	5.99
385.47	5.93
385.832	5.89
386.193	5.85
386.554	5.78
386.916	5.78
387.277	5.71
387.638	5.61
387.999	5.62
388.36	5.64
388.721	5.61
389.082	5.59
389.443	5.56
389.804	5.53
390.165	5.53
390.526	5.52
390.887	5.47
391.248	5.45
391.609	5.43
391.969	5.4
392.33	5.44
392.691	5.43
393.051	5.42
393.412	5.4
393.772	5.38
394.133	5.36
394.493	5.3
394.854	5.31
395.214	5.28
395.574	5.22
395.935	5.17
396.295	5.17
396.655	5.19
397.015	5.17
397.376	5.19
397.736	5.11
398.096	5.1
398.456	5.08
398.816	5.04
399.176	4.99
399.535	4.94
399.895	4.89
400.255	4.84
400.615	4.81
400.975	4.8
401.334	4.76
401.694	4.76
402.054	4.77
402.413	4.72
402.773	4.73
403.132	4.71
403.492	4.73
403.851	4.7
404.211	4.63
404.57	4.6
404.929	4.55
405.288	4.57
405.648	4.51
406.007	4.49
406.366	4.53
406.725	4.52
407.084	4.5
407.443	4.5
407.802	4.49
408.161	4.5
408.52	4.52
408.879	4.51
409.238	4.46
409.596	4.42
409.955	4.41
410.314	4.37
410.673	4.38
411.031	4.33
411.39	4.3
411.748	4.32
412.107	4.31
412.465	4.29
412.824	4.26
413.182	4.33
413.54	4.34
413.899	4.27
414.257	4.24
414.615	4.25
414.974	4.27
415.332	4.27
415.69	4.22
416.048	4.17
416.406	4.17
416.764	4.17
417.122	4.17
417.48	4.19
417.838	4.22
418.195	4.22
418.553	4.2
418.911	4.17
419.269	4.16
419.626	4.15
419.984	4.17
420.342	4.17
420.699	4.13
421.057	4.14
421.414	4.16
421.772	4.17
422.129	4.15
422.486	4.13
422.844	4.13
423.201	4.13
423.558	4.12
423.915	4.1
424.273	4.11
424.63	4.11
424.987	4.11
425.344	4.07
425.701	4.05
426.058	4.06
426.415	4.06
426.772	4.06
427.128	4.06
427.485	4.05
427.842	4.04
428.199	4.05
428.555	4.03
428.912	3.99
429.269	3.97
429.625	4
429.982	4.02
430.338	4.02
430.695	4.03
431.051	4.03
431.407	4.04
431.764	4.02
432.12	4.04
432.476	4.03
432.832	4.04
433.189	4.05
433.545	4.04
433.901	4.04
434.257	4.03
434.613	4.03
434.969	4
435.325	4.02
435.681	4
436.036	4.01
436.392	4.01
436.748	4.02
437.104	4.01
437.459	4
437.815	3.99
438.171	3.99
438.526	4.03
438.882	4.04
439.237	4.03
439.593	4.04
439.948	4.03
440.304	4.04
440.659	4.05
441.014	4.06
441.369	4.06
441.725	4.06
442.08	4.07
442.435	4.08
442.79	4.06
443.145	4.05
443.5	4.03
443.855	4.04
444.21	4.05
444.565	4.05
444.92	4.04
445.275	4.06
445.629	4.06
445.984	4.03
446.339	4.04
446.693	4.06
447.048	4.03
447.403	4.02
447.757	4.01
448.112	4.01
448.466	3.99
448.82	4
449.175	4
449.529	3.97
449.883	3.95
450.238	3.96
450.592	3.97
450.946	3.97
451.3	3.94
451.654	3.91
452.008	3.88
452.362	3.87
452.716	3.82
453.07	3.81
453.424	3.8
453.778	3.78
454.132	3.74
454.486	3.75
454.839	3.77
455.193	3.76
455.547	3.78
455.9	3.8
456.254	3.77
456.607	3.77
456.961	3.79
457.314	3.79
457.668	3.78
458.021	3.79
458.375	3.8
458.728	3.82
459.081	3.82
459.434	3.84
459.787	3.86
460.141	3.87
460.494	3.88
460.847	3.85
461.2	3.88
461.553	3.9
461.906	3.9
462.259	3.89
462.611	3.91
462.964	3.89
463.317	3.9
463.67	3.92
464.022	3.93
464.375	3.92
464.728	3.92
465.08	3.96
465.433	3.95
465.785	3.95
466.138	3.95
466.49	3.97
466.843	3.99
467.195	4
467.547	4.01
467.899	4.03
468.252	4.07
468.604	4.06
468.956	4.05
469.308	4.08
469.66	4.11
470.012	4.12
470.364	4.12
470.716	4.14
471.068	4.18
471.42	4.18
471.772	4.22
472.123	4.25
472.475	4.23
472.827	4.25
473.178	4.26
473.53	4.29
473.882	4.3
474.233	4.3
474.585	4.27
474.936	4.29
475.288	4.27
475.639	4.3
475.99	4.28
476.342	4.3
476.693	4.28
477.044	4.27
477.395	4.26
477.746	4.25
478.097	4.24
478.448	4.22
478.8	4.23
479.15	4.2
479.501	4.18
479.852	4.2
480.203	4.19
480.554	4.19
480.905	4.19
481.255	4.2
481.606	4.2
481.957	4.22
482.307	4.21
482.658	4.21
483.009	4.19
483.359	4.2
483.709	4.2
484.06	4.21
484.41	4.2
484.761	4.22
485.111	4.22
485.461	4.2
485.811	4.2
486.162	4.2
486.512	4.2
486.862	4.22
487.212	4.21
487.562	4.2
487.912	4.2
488.262	4.19
488.612	4.19
488.961	4.19
489.311	4.18
489.661	4.19
490.011	4.19
490.36	4.19
490.71	4.19
491.06	4.2
491.409	4.18
491.759	4.19
492.108	4.18
492.458	4.18
492.807	4.2
493.157	4.21
493.506	4.22
493.855	4.23
494.204	4.23
494.554	4.25
494.903	4.27
495.252	4.29
495.601	4.31
495.95	4.32
496.299	4.36
496.648	4.4
496.997	4.41
497.346	4.46
497.695	4.48
498.043	4.52
498.392	4.54
498.741	4.6
499.09	4.65
499.438	4.69
499.787	4.75
500.135	4.8
500.484	4.83
500.832	4.88
501.181	4.93
501.529	4.98
501.878	5.05
502.226	5.14
502.574	5.2
502.923	5.26
503.271	5.32
503.619	5.39
503.967	5.45
504.315	5.51
504.663	5.58
505.011	5.67
505.359	5.74
505.707	5.82
506.055	5.89
506.403	5.99
506.751	6.06
507.098	6.15
507.446	6.24
507.794	6.34
508.141	6.43
508.489	6.55
508.837	6.66
509.184	6.75
509.531	6.84
509.879	6.92
510.226	7.02
510.574	7.13
510.921	7.22
511.268	7.36
511.616	7.47
511.963	7.58
512.31	7.7
512.657	7.83
513.004	7.94
513.351	8.09
513.698	8.21
514.045	8.38
514.392	8.57
514.739	8.72
515.086	8.86
515.432	9.04
515.779	9.18
516.126	9.32
516.473	9.47
516.819	9.64
517.166	9.8
517.512	9.92
517.859	10.08
518.205	10.23
518.552	10.34
518.898	10.48
519.245	10.59
519.591	10.72
519.937	10.86
520.283	11.01
520.629	11.13
520.976	11.27
521.322	11.44
521.668	11.55
522.014	11.71
522.36	11.87
522.706	12.04
523.052	12.22
523.398	12.44
523.743	12.61
524.089	12.79
524.435	12.97
524.781	13.17
525.126	13.28
525.472	13.43
525.817	13.57
526.163	13.71
526.509	13.82
526.854	13.94
527.199	14.04
527.545	14.16
527.89	14.28
528.235	14.4
528.581	14.5
528.926	14.63
529.271	14.75
529.616	14.88
529.961	14.99
530.306	15.1
530.651	15.2
530.996	15.35
531.341	15.49
531.686	15.65
532.031	15.8
532.376	15.96
532.721	16.09
533.065	16.26
533.41	16.43
533.755	16.63
534.099	16.81
534.444	16.99
534.788	17.17
535.133	17.34
535.477	17.54
535.822	17.72
536.166	17.91
536.51	18.12
536.855	18.33
537.199	18.58
537.543	18.86
537.887	19.1
538.231	19.34
538.576	19.56
538.92	19.78
539.264	19.99
539.608	20.22
539.951	20.44
540.295	20.62
540.639	20.82
540.983	21.02
541.327	21.21
541.671	21.42
542.014	21.6
542.358	21.8
542.701	21.95
543.045	22.14
543.389	22.3
543.732	22.5
544.075	22.69
544.419	22.88
544.762	23.05
545.105	23.26
545.449	23.47
545.792	23.71
546.135	23.94
546.478	24.2
546.821	24.46
547.165	24.72
547.508	25.03
547.851	25.29
548.194	25.51
548.536	25.79
548.879	26.02
549.222	26.31
549.565	26.52
549.908	26.77
550.25	26.98
550.593	27.3
550.936	27.58
551.278	27.87
551.621	28.11
551.963	28.36
552.306	28.6
552.648	28.83
552.991	29.08
553.333	29.28
553.675	29.49
554.017	29.76
554.36	30.01
554.702	30.26
555.044	30.48
555.386	30.72
555.728	30.9
556.07	31.11
556.412	31.33
556.754	31.58
557.096	31.87
557.438	32.15
557.78	32.35
558.121	32.55
558.463	32.75
558.805	32.97
559.147	33.18
559.488	33.38
559.83	33.59
560.171	33.8
560.513	33.96
560.854	34.16
561.196	34.34
561.537	34.5
561.878	34.61
562.22	34.79
562.561	35
562.902	35.17
563.243	35.38
563.584	35.53
563.925	35.72
564.266	35.88
564.607	36.02
564.948	36.2
565.289	36.33
565.63	36.47
565.971	36.66
566.312	36.83
566.653	36.97
566.993	37.1
567.334	37.22
567.675	37.41
568.015	37.56
568.356	37.7
568.696	37.82
569.037	37.95
569.377	38.07
569.718	38.18
570.058	38.32
570.398	38.39
570.739	38.52
571.079	38.56
571.419	38.68
571.759	38.8
572.099	38.87
572.439	38.97
572.779	39.06
573.119	39.11
573.459	39.22
573.799	39.36
574.139	39.46
574.479	39.54
574.819	39.64
575.158	39.75
575.498	39.83
575.838	39.94
576.177	40.02
576.517	40.11
576.856	40.18
577.196	40.31
577.535	40.39
577.875	40.47
578.214	40.58
578.553	40.64
578.893	40.74
579.232	40.81
579.571	40.91
579.91	40.97
580.25	41
580.589	41.05
580.928	41.07
581.267	41.19
581.606	41.3
581.945	41.33
582.283	41.39
582.622	41.48
582.961	41.59
583.3	41.73
583.639	41.86
583.977	41.99
584.316	42
584.654	42.12
584.993	42.13
585.332	42.25
585.67	42.32
586.008	42.38
586.347	42.5
586.685	42.53
587.024	42.61
587.362	42.74
587.7	42.76
588.038	42.89
588.376	43
588.715	43.08
589.053	43.11
589.391	43.08
589.729	43.11
590.067	43.15
590.404	43.19
590.742	43.23
591.08	43.28
591.418	43.4
591.756	43.45
592.093	43.58
592.431	43.58
592.769	43.66
593.106	43.66
593.444	43.65
593.781	43.87
594.119	43.92
594.456	43.88
594.793	44.01
595.131	44.06
595.468	44.08
595.805	44.14
596.143	44.25
596.48	44.31
596.817	44.38
597.154	44.42
597.491	44.49
597.828	44.48
598.165	44.5
598.502	44.46
598.839	44.54
599.176	44.59
599.512	44.63
599.849	44.65
600.186	44.74
600.523	44.79
600.859	44.68
601.196	44.77
601.532	44.93
601.869	44.89
602.205	44.91
602.542	44.94
602.878	44.95
603.215	44.97
603.551	45.06
603.887	45.11
604.223	45.17
604.56	45.15
604.896	45.27
605.232	45.3
605.568	45.41
605.904	45.42
606.24	45.47
606.576	45.52
606.912	45.64
607.248	45.67
607.583	45.74
607.919	45.79
608.255	45.73
608.591	45.72
608.926	45.79
609.262	45.75
609.597	45.7
609.933	45.73
610.268	45.74
610.604	45.75
610.939	45.77
611.275	45.73
611.61	45.68
611.945	45.56
612.281	45.57
612.616	45.52
612.951	45.53
613.286	45.58
613.621	45.62
613.956	45.62
614.291	45.57
614.626	45.59
614.961	45.63
615.296	45.69
615.631	45.68
615.966	45.64
616.3	45.78
616.635	45.93
616.97	45.86
617.304	45.88
617.639	45.86
617.973	45.83
618.308	45.87
618.642	45.95
618.977	46.06
619.311	46.08
619.646	46.04
619.98	46.05
620.314	45.94
620.648	45.96
620.983	45.89
621.317	45.91
621.651	45.88
621.985	46
622.319	46.14
622.653	46.3
622.987	46.33
623.321	46.33
623.655	46.33
623.988	46.38
624.322	46.38
624.656	46.45
624.99	46.44
625.323	46.39
625.657	46.44
625.99	46.44
626.324	46.59
626.657	46.63
626.991	46.64
627.324	46.69
627.658	46.68
627.991	46.73
628.324	46.82
628.657	46.9
628.991	46.77
629.324	46.69
629.657	46.61
629.99	46.7
630.323	46.79
630.656	46.77
630.989	46.81
631.322	46.83
631.655	46.8
631.987	46.85
632.32	46.97
632.653	46.97
632.986	46.97
633.318	46.83
633.651	46.98
633.984	47.03
634.316	47.05
634.649	46.96
634.981	46.97
635.313	46.94
635.646	46.85
635.978	46.92
636.31	46.99
636.643	46.93
636.975	46.8
637.307	46.76
637.639	46.71
637.971	46.71
638.303	46.65
638.635	46.78
638.967	46.87
639.299	46.87
639.631	46.93
639.963	46.9
640.295	46.91
640.626	46.85
640.958	46.82
641.29	46.82
641.621	47.09
641.953	47.02
642.285	47.03
642.616	47.1
642.948	47.17
643.279	47.09
643.61	47.15
643.942	47.29
644.273	47.27
644.604	47.39
644.936	47.45
645.267	47.59
645.598	47.49
645.929	47.38
646.26	47.38
646.591	47.3
646.922	47.46
647.253	47.52
647.584	47.52
647.915	47.6
648.245	47.6
648.576	47.44
648.907	47.51
649.238	47.6
649.568	47.59
649.899	47.65
650.229	47.76
650.56	47.89
650.89	47.91
651.221	47.83
651.551	47.8
651.882	47.77
652.212	47.79
652.542	47.82
652.872	47.84
653.203	47.93
653.533	47.93
653.863	47.84
654.193	47.91
654.523	47.93
654.853	47.99
655.183	48.08
655.513	48.21
655.843	48.11
656.172	48.2
656.502	48.16
656.832	48.02
657.162	48.09
657.491	48.05
657.821	48.07
658.15	48.2
658.48	48.14
658.809	48.06
659.139	47.97
659.468	47.98
659.798	48
660.127	47.8
660.456	47.79
660.785	47.84
661.115	47.86
661.444	47.88
661.773	47.8
662.102	47.83
662.431	47.76
662.76	47.95
663.089	47.85
663.418	47.89
663.747	47.98
664.076	47.95
664.404	47.94
664.733	47.89
665.062	47.83
665.39	47.96
665.719	48.15
666.048	48.19
666.376	48.24
666.705	48.26
667.033	48.33
667.362	48.34
667.69	48.27
668.018	48.13
668.347	48.05
668.675	48.01
669.003	47.84
669.331	47.87
669.659	47.72
669.987	47.77
670.315	47.95
670.643	47.83
670.971	47.81
671.299	47.83
671.627	47.86
671.955	47.81
672.283	47.87
672.61	47.91
672.938	48.01
673.266	47.98
673.593	47.97
673.921	47.97
674.249	48.06
674.576	48.15
674.904	48.35
675.231	48.48
675.558	48.51
675.886	48.72
676.213	48.73
676.54	48.82
676.867	48.87
677.195	48.83
677.522	48.99
677.849	48.95
678.176	48.95
678.503	49.03
678.83	49.01
679.157	48.91
679.484	48.84
679.81	48.73
680.137	48.71
680.464	48.74
680.791	48.82
681.117	48.74
681.444	48.8
681.771	48.71
682.097	48.7
682.424	48.68
682.75	48.54
683.077	48.34
683.403	48.34
683.729	48.27
684.056	48.2
684.382	48.19
684.708	48.17
685.034	48.22
685.36	48.05
685.686	48.3
686.012	48.34
686.339	48.25
686.664	48.36
686.99	48.44
687.316	48.45
687.642	48.48
687.968	48.57
688.294	48.54
688.619	48.55
688.945	48.4
689.271	48.36
689.596	48.48
689.922	48.66
690.247	48.54
690.573	48.55
690.898	48.65
691.224	48.67
691.549	48.7
691.874	48.57
692.2	48.73
692.525	48.43
692.85	48.35
693.175	48.64
693.5	48.61
693.825	48.87
694.15	48.92
694.475	48.78
694.8	48.66
695.125	48.61
695.45	48.59
695.775	48.65
696.099	48.7
696.424	48.79
696.749	48.87
697.073	48.95
697.398	49.15
697.723	49.07
698.047	49.01
698.372	49.09
698.696	49.18
699.02	49.09
699.345	49.18
699.669	49.3
699.993	49.27
700.318	49.19
700.642	48.87
700.966	48.74
701.29	48.86
701.614	48.83
701.938	48.87
702.262	48.95
702.586	49.04
702.91	49.12
703.234	48.89
703.557	48.86
703.881	48.81
704.205	48.56
704.529	48.62
704.852	48.54
705.176	48.59
705.499	48.5
705.823	48.4
706.146	48.27
706.47	48.32
706.793	48.18
707.117	48.23
707.44	48.11
707.763	48.21
708.086	48.21
708.409	48.31
708.733	48.39
709.056	48.27
709.379	48.11
709.702	48.07
710.025	48.28
710.348	48.41
710.671	48.65
710.993	48.53
711.316	48.55
711.639	48.47
711.962	48.5
712.284	48.52
712.607	48.59
712.93	48.65
713.252	48.58
713.575	48.49
713.897	48.56
714.22	48.78
714.542	48.68
714.864	48.54
715.187	48.85
715.509	48.7
715.831	48.81
716.153	48.81
716.475	48.89
716.798	48.73
717.12	48.59
717.442	48.3
717.764	48.51
718.085	48.63
718.407	48.9
718.729	48.47
719.051	48.41
719.373	48.47
719.695	48.45
720.016	48.39
720.338	48.44
720.659	48.46
720.981	48.47
721.302	48.75
721.624	48.68
721.945	48.25
722.267	48.18
722.588	48.08
722.909	48.11
723.231	48.17
723.552	48.18
723.873	48.4
724.194	48.68
724.515	48.71
724.836	48.37
725.157	48.32
725.478	48.47
725.799	48.66
726.12	48.72
726.441	48.98
726.762	49.13
727.083	49.28
727.403	49.14
727.724	49.31
728.045	49.07
728.365	49.17
728.686	49.35
729.006	49.42
729.327	49.64
729.647	49.76
729.967	49.43
730.288	49.48
730.608	49.15
730.928	48.97
731.249	48.67
731.569	48.66
731.889	48.85
732.209	49
732.529	48.89
732.849	49.04
733.169	49.22
733.489	49.08
733.809	49.05
734.129	48.96
734.448	48.65
734.768	48.73
735.088	48.72
735.408	48.56
735.727	48.63
736.047	48.55
736.366	48.49
736.686	48.71
737.005	48.59
737.325	48.65
737.644	48.77
737.963	48.91
738.283	49.08
738.602	48.9
738.921	48.9
739.24	49.26
739.56	49.31
739.879	48.9
740.198	48.93
740.517	48.82
740.836	48.98
741.155	49.02
741.473	48.81
741.792	48.96
742.111	49.32
742.43	49.4
742.748	49.29
743.067	49.49
743.386	49.4
743.704	49.68
744.023	49.8
744.341	49.55
744.66	49.7
744.978	49.84
745.297	49.88
745.615	49.88
745.933	49.54
746.252	49.14
746.57	49.38
746.888	49.35
747.206	49.49
747.524	49.71
747.842	50.09
748.16	50.41
748.478	50.37
748.796	50.33
749.114	49.97
749.432	50.13
749.749	50.02
750.067	50.04
750.385	50.22
750.703	50.08
751.02	50.24
751.338	50.04
751.655	49.91
751.973	50.02
752.29	50
752.608	49.95
752.925	50.34
753.242	50.33
753.56	50.24
753.877	50.09
754.194	49.85
754.511	49.67
754.828	49.71
755.145	49.72
755.462	49.63
755.779	50
756.096	49.93
756.413	50.28
756.73	50.4
757.047	49.94
757.364	50.21
757.68	50.27
757.997	50.4
758.314	50.37
758.63	50.09
758.947	50.25
759.264	50.45
759.58	50.32
759.896	50.3
760.213	50.34
760.529	50.63
760.846	50.78
761.162	50.42
761.478	50.19
761.794	50.18
762.11	50.22
762.426	49.94
762.743	49.75
763.059	49.53
763.375	49.51
763.69	49.69
764.006	49.71
764.322	49.73
764.638	49.89
764.954	49.93
765.27	50.03
765.585	50.13
765.901	50.11
766.216	50.05
766.532	50.11
766.848	50.28
767.163	50.04
767.478	49.84
767.794	50.2
768.109	50.35
768.424	50.15
768.74	50.2
769.055	50.49
769.37	50.47
769.685	50.44
770	50.21
770.315	50.34
770.63	50.31
770.945	50.23
771.26	50.12
771.575	50.19
771.89	49.77
772.205	49.61
772.52	49.47
772.834	49.55
773.149	48.97
773.464	48.71
773.778	48.86
774.093	48.85
774.407	48.96
774.722	48.71
775.036	48.97
775.351	48.97
775.665	48.93
775.979	49.29
776.293	49.06
776.608	49.31
776.922	49.2
777.236	48.82
777.55	49.13
777.864	48.71
778.178	48.29
778.492	48.22
778.806	48.52
779.12	48.26
779.434	48.75
779.747	49.02
780.061	49.24
780.375	49.1
780.689	49.4
781.002	49.58
781.316	50.23
781.629	50.51
781.943	50.76
782.256	50.47
782.57	49.96
782.883	50.24
783.196	50.47
783.51	50.46
783.823	50.92
784.136	50.29
784.449	50.88
784.762	51.27
785.075	51.91
785.388	51.62
785.701	51.97
786.014	51.49
786.327	51.93
786.64	51.54
786.953	52.07
787.266	52.15
787.578	51.68
787.891	51.29
788.204	51.57
788.516	50.92
788.829	51.15
789.141	51.54
789.454	51.77
789.766	51.38
790.079	51.48
790.391	50.72
790.703	51.21
791.016	50.78
791.328	50.39
791.64	50.02
791.952	49.44
792.264	49.51
792.576	48.94
792.888	48.85
793.2	49.22
793.512	48.72
793.824	48.52
794.136	48.55
794.448	48.29
794.76	47.59
795.071	47.95
795.383	47.86
795.695	47.68
796.006	47.45
796.318	47.71
796.629	47.51
796.941	48.62
797.252	48.39
797.564	48.12
797.875	48.66
798.186	49.1
798.497	49.32
798.809	49.24
799.12	49.92
799.431	50.37
799.742	50.56
800.053	50.81
800.364	50.56
800.675	50.93
800.986	51.12
801.297	51.27
801.608	50.98
801.918	51.94
802.229	51.41
802.54	50.93
802.851	50.37
803.161	50.49
803.472	50.02
803.782	50.42
804.093	51.4
804.403	51.29
804.714	51.39
805.024	51.54
805.334	51.61
805.645	51.31
805.955	50.27
806.265	50.22
806.575	49.67
806.885	50.05
807.195	50.15
807.505	49.62
807.815	49.9
808.125	49.94
808.435	49.42
808.745	49.83
809.055	50.03
809.365	51.01
809.674	50.65
809.984	50.74
810.294	50.23
810.603	49.03
810.913	48.51
811.222	48.05
811.532	47.69
811.841	47.48
812.151	47.89
812.46	48.02
812.769	48.22
813.079	49.56
813.388	49.47
813.697	49.03
814.006	50.27
814.315	49.83
814.624	50.33
814.933	50.86
815.242	51.64
815.551	52.36
815.86	51.82
816.169	51.79
816.478	51.51
816.786	51.72
817.095	51.7
817.404	52.39
817.712	52.4
818.021	53.04
818.33	53.17
818.638	52.47
818.947	52.11
819.255	51.58
819.563	50.74
819.872	50.73
820.18	50.6
820.488	50.38
820.796	50.25
821.105	50.25
821.413	50.12
821.721	49.83
822.029	49.76
822.337	49.95
822.645	49.99
822.953	50.29
823.26	50.29
823.568	50.32
823.876	50.4
824.184	50.49
824.491	50.64
824.799	50.52
825.107	50.4
825.414	50.43
825.722	50.49
826.029	50.5
826.337	50.51
826.644	50.49
826.951	50.54
827.259	50.62
827.566	50.66
827.873	50.57
828.18	50.91
828.488	51.13
828.795	51.13
829.102	51.12
829.409	50.78
829.716	50.61
830.023	50.78
830.329	50.15
830.636	50.27
830.943	50.06
831.25	50.24
831.557	50.52
831.863	50.37
832.17	50.24
832.476	50.25
832.783	50.57
833.089	51.03
833.396	51.28
833.702	50.97
834.009	50.86
834.315	50.95
834.621	50.64
834.928	50.34
835.234	49.85
835.54	50.5
835.846	50.24
836.152	51
836.458	51.55
836.764	51.62
837.07	52.04
837.376	52.11
837.682	51.78
837.988	51.93
838.293	52.51
838.599	52.78
838.905	53.55
839.211	52.16
839.516	51.83
839.822	51.27
840.127	52.29
840.433	52.62
840.738	51.57
841.044	51.96
841.349	52.37
841.654	52.68
841.959	52.36
842.265	52.94
842.57	52.78
842.875	52.33
843.18	53.29
843.485	50.79
843.79	49.71
844.095	51.12
844.4	50.58
844.705	49.18
845.01	49.56
845.315	49.28
845.619	50.75
845.924	49.7
846.229	48.93
846.533	48.28
846.838	47
847.142	48.17
847.447	48.13
847.751	47.16
848.056	46.68
848.36	46.82
848.664	46.09
848.969	43.24
849.273	42.39
849.577	42.98
849.881	45.08
850.185	45.9
850.489	45.62
850.794	45.98
851.097	47.56
851.401	45.49
851.705	43.97
852.009	43.46
852.313	44.02
852.617	43.88
852.92	45.72
853.224	47.91
853.528	48.78
853.831	48.72
854.135	50.23
854.438	52.24
854.742	51.31
855.045	53.84
855.349	55.74
855.652	54.36
855.955	54.48
856.259	52.48
856.562	53.66
856.865	54.79
857.168	53.59
857.471	53.08
857.774	54.69
858.077	56.62
858.38	58.48
858.683	59.1
858.986	59.83
859.289	57.51
859.592	58.04
859.894	60.37
860.197	60.67
860.5	58.84
860.802	57.08
861.105	57.66
861.407	55.18
861.71	57.15
862.012	59.57
862.315	58.32
862.617	58.64
862.919	56.74
863.222	54.02
863.524	56.65
863.826	58.14
864.128	56.68
864.43	52.88
864.732	51.38
865.034	51
865.336	52.5
865.638	52.77
865.94	50.12
866.242	47.9
866.544	48.4
866.846	49.02
867.147	51.08
867.449	51.98
867.751	52.48
868.052	51.17
868.354	50.34
868.655	51.47
868.957	52.52
869.258	51.52
869.56	53.95
869.861	53.39
870.162	52.2
870.463	51.65
870.765	54.49
871.066	54.59
871.367	54.31
871.668	55.88
871.969	56.31
872.27	55.52
872.571	55.23
872.872	54.55
873.173	54.96
873.473	50.24
873.774	47.24
874.075	49.49
874.376	48.65
874.676	51.43
874.977	52.68
875.277	49.5
875.578	51.35
875.878	50.19
876.179	50.1
876.479	50.38
876.78	51.77
877.08	51.14
877.38	52.08
877.68	53.36
877.981	49.56
878.281	50.19
878.581	51.52
