Data from MVZ_BU65311_Reflection_00001.txt Node
Date: Tue Nov 19 12:20:02 EST 2019
User: vgr7
Spectrometer: USB2G7710
Scans to average: 3
Trigger mode: 4
Integration Time (sec): 2.000000E-2
Electric dark correction enabled: true
Boxcar width: 10
XAxis mode: Wavelengths
Number of Pixels in Spectrum: 2048
>>>>>Begin Spectral Data<<<<<
177.721	-550.79
178.105	-1316.67
178.488	74.64
178.871	53.33
179.254	66.67
179.636	25.29
180.019	-122.22
180.402	233.33
180.785	48.15
181.168	-307.41
181.55	155.56
181.933	1100
182.316	537.5
182.698	-254.17
183.081	-292.86
183.463	-198.25
183.846	-184.81
184.228	-275
184.611	-162.89
184.993	-130
185.376	-118.45
185.758	-29.44
186.14	-53.85
186.522	-49.5
186.904	-52.31
187.287	-56.05
187.669	-49.33
188.051	-54.14
188.433	-52.96
188.815	-60.38
189.197	-40.66
189.579	-42.71
189.961	-47.59
190.342	-37.16
190.724	-38.17
191.106	-33.71
191.488	-25.25
191.869	-9.41
192.251	-10.9
192.633	-13.11
193.014	-16.06
193.396	-17.8
193.777	-18.67
194.159	-21.11
194.54	-15.51
194.922	-13.87
195.303	-6.11
195.684	-15.18
196.065	-16.54
196.447	-18.57
196.828	-19.34
197.209	-28.87
197.59	-30.4
197.971	-24.52
198.352	-30.31
198.733	-34.69
199.114	-35.89
199.495	-43.76
199.876	-62.04
200.257	-65.86
200.638	-58.16
201.018	-38.14
201.399	-40.21
201.78	-46.89
202.16	-38.03
202.541	-44.54
202.922	-47.56
203.302	-82.31
203.683	-78.57
204.063	-60.94
204.444	-64.11
204.824	-72.58
205.204	-37.78
205.585	-28.13
205.965	-35.59
206.345	-33.52
206.725	-30.37
207.106	-19.47
207.486	-21.43
207.866	-6.52
208.246	-1.54
208.626	-9.79
209.006	-29.21
209.386	-28.61
209.766	-27.27
210.145	-28.67
210.525	-39.33
210.905	-25.55
211.285	-21.12
211.664	-14.41
212.044	-22.3
212.424	-14.62
212.803	-12.66
213.183	-21.88
213.562	-18.45
213.942	-22.29
214.321	-22.95
214.701	-22.74
215.08	-35.63
215.459	-33.71
215.838	-47.28
216.218	-51.03
216.597	-55.01
216.976	-62.01
217.355	-68.71
217.734	-69.83
218.113	-70.4
218.492	-66.67
218.871	-71.26
219.25	-67.06
219.629	-78.86
220.008	-66.26
220.387	-66.67
220.766	-58.11
221.144	-57.59
221.523	-65.94
221.902	-50.2
222.28	-40.71
222.659	-26.38
223.037	-22.6
223.416	-26.32
223.794	-11.11
224.173	-13.78
224.551	-10.35
224.929	-8.43
225.308	-7.63
225.686	-13.75
226.064	-13.41
226.442	-8.1
226.821	-7.31
227.199	-10.03
227.577	-8.95
227.955	-6.34
228.333	-7.17
228.711	-6.46
229.089	-7.36
229.467	-8.43
229.845	-11.39
230.222	-13.55
230.6	-13.68
230.978	-12.06
231.356	-7.68
231.733	-7.2
232.111	-5.25
232.488	-3.67
232.866	-0.61
233.243	-1.51
233.621	-0.78
233.998	-1.06
234.376	-1.96
234.753	-3.26
235.13	-2.39
235.508	-1.29
235.885	0.49
236.262	0.61
236.639	0.91
237.016	1.6
237.393	3.4
237.77	5.08
238.147	6.04
238.524	6.16
238.901	4.14
239.278	4.01
239.655	2.93
240.032	3.85
240.409	3.69
240.785	3.04
241.162	3.26
241.539	4.27
241.915	3.96
242.292	4.71
242.668	5.11
243.045	5.41
243.421	5.44
243.798	4.86
244.174	5.24
244.551	5.59
244.927	5.65
245.303	5.38
245.679	5.05
246.056	4.8
246.432	4.73
246.808	5.36
247.184	5.09
247.56	5
247.936	4.85
248.312	4.85
248.688	5.01
249.064	4.76
249.44	4.38
249.815	4.46
250.191	3.94
250.567	3.8
250.943	3.86
251.318	3.53
251.694	3.46
252.069	3.25
252.445	3
252.82	3.22
253.196	3.26
253.571	3.64
253.947	3.82
254.322	3.58
254.697	3.43
255.073	3.51
255.448	3.71
255.823	3.59
256.198	3.58
256.573	3.58
256.948	3.93
257.323	4.25
257.698	4.21
258.073	4.21
258.448	4.47
258.823	4.25
259.198	4.53
259.573	4.28
259.948	4.26
260.322	4.05
260.697	4.1
261.072	4.13
261.446	4.14
261.821	4.07
262.195	3.96
262.57	3.95
262.944	3.92
263.319	4
263.693	4.05
264.067	4.12
264.442	4.14
264.816	4.14
265.19	3.87
265.564	3.84
265.938	3.98
266.313	3.72
266.687	3.61
267.061	3.3
267.435	3.61
267.809	3.46
268.183	3.34
268.556	2.97
268.93	2.98
269.304	2.89
269.678	3.19
270.051	3.33
270.425	3.19
270.799	3.13
271.172	3.07
271.546	3.05
271.919	2.96
272.293	3.09
272.666	3.06
273.04	3.33
273.413	3.41
273.787	3.34
274.16	3.04
274.533	3.12
274.906	3.14
275.279	2.94
275.653	3.11
276.026	3.2
276.399	3.25
276.772	3.35
277.145	3.37
277.518	3.04
277.891	3.03
278.263	3.11
278.636	3.13
279.009	3.31
279.382	3.32
279.755	3.26
280.127	3
280.5	3.06
280.872	2.89
281.245	2.9
281.617	2.84
281.99	3.18
282.362	3.14
282.735	3.12
283.107	3.26
283.479	3.25
283.852	3.43
284.224	3.64
284.596	3.52
284.968	3.45
285.34	3.42
285.713	3.36
286.085	3.37
286.457	3.48
286.829	3.32
287.201	3.3
287.572	3.41
287.944	3.54
288.316	3.46
288.688	3.6
289.06	3.7
289.431	3.82
289.803	3.83
290.175	3.9
290.546	3.97
290.918	3.93
291.289	3.65
291.661	3.56
292.032	3.28
292.403	3.28
292.775	3.28
293.146	3.39
293.517	3.42
293.889	3.53
294.26	3.46
294.631	3.54
295.002	3.56
295.373	3.52
295.744	3.48
296.115	3.5
296.486	3.36
296.857	3.26
297.228	3.06
297.599	2.99
297.97	3.01
298.34	3.01
298.711	3.09
299.082	3.29
299.452	3.23
299.823	3.31
300.194	3.24
300.564	3.11
300.935	3.14
301.305	3
301.676	2.74
302.046	2.73
302.416	2.66
302.787	2.56
303.157	2.56
303.527	2.71
303.897	2.67
304.267	2.64
304.637	2.63
305.008	2.85
305.378	2.85
305.748	2.71
306.117	2.5
306.487	2.48
306.857	2.59
307.227	2.84
307.597	2.92
307.967	2.9
308.336	3.07
308.706	2.91
309.076	3.12
309.445	3.15
309.815	3.29
310.184	3.28
310.554	3.31
310.923	3.24
311.293	3.06
311.662	3.13
312.031	3.1
312.401	3.11
312.77	3.05
313.139	2.97
313.508	2.93
313.877	3
314.246	3.01
314.616	2.96
314.985	2.68
315.353	2.61
315.722	2.84
316.091	2.89
316.46	2.95
316.829	2.9
317.198	3
317.567	2.85
317.935	2.91
318.304	3.03
318.672	3
319.041	3.09
319.41	2.96
319.778	3
320.147	3.01
320.515	3.02
320.883	3.06
321.252	3.18
321.62	3.41
321.988	3.34
322.357	3.36
322.725	3.48
323.093	3.33
323.461	3.1
323.829	2.91
324.197	2.99
324.565	3.01
324.933	2.93
325.301	2.85
325.669	2.81
326.037	2.7
326.405	2.75
326.772	2.76
327.14	2.78
327.508	2.65
327.875	2.54
328.243	2.6
328.61	2.43
328.978	2.39
329.346	2.33
329.713	2.39
330.08	2.37
330.448	2.38
330.815	2.53
331.182	2.46
331.55	2.52
331.917	2.46
332.284	2.41
332.651	2.38
333.018	2.34
333.385	2.39
333.752	2.4
334.119	2.28
334.486	2.34
334.853	2.33
335.22	2.49
335.587	2.4
335.954	2.44
336.32	2.65
336.687	2.84
337.054	2.87
337.42	2.85
337.787	2.71
338.153	2.65
338.52	2.76
338.886	2.9
339.253	2.8
339.619	2.91
339.986	2.9
340.352	2.96
340.718	3.04
341.084	2.98
341.451	3.05
341.817	3.22
342.183	3.13
342.549	3.13
342.915	3.12
343.281	3.23
343.647	3.14
344.013	3.2
344.379	3.15
344.745	3.15
345.11	3.2
345.476	3.37
345.842	3.34
346.208	3.19
346.573	3.18
346.939	3.36
347.304	3.3
347.67	3.25
348.035	3.26
348.401	3.35
348.766	3.32
349.132	3.35
349.497	3.27
349.862	3.34
350.228	3.39
350.593	3.3
350.958	3.48
351.323	3.41
351.688	3.4
352.053	3.32
352.418	3.33
352.783	3.33
353.148	3.31
353.513	3.38
353.878	3.48
354.243	3.51
354.608	3.46
354.972	3.49
355.337	3.58
355.702	3.61
356.066	3.58
356.431	3.6
356.795	3.6
357.16	3.63
357.524	3.52
357.889	3.53
358.253	3.6
358.618	3.49
358.982	3.57
359.346	3.51
359.71	3.56
360.075	3.64
360.439	3.63
360.803	3.64
361.167	3.58
361.531	3.55
361.895	3.53
362.259	3.5
362.623	3.48
362.987	3.49
363.351	3.47
363.714	3.54
364.078	3.59
364.442	3.52
364.806	3.55
365.169	3.6
365.533	3.63
365.896	3.7
366.26	3.71
366.623	3.71
366.987	3.73
367.35	3.82
367.714	3.7
368.077	3.72
368.44	3.67
368.803	3.71
369.167	3.68
369.53	3.68
369.893	3.71
370.256	3.76
370.619	3.72
370.982	3.7
371.345	3.6
371.708	3.6
372.071	3.66
372.434	3.62
372.797	3.66
373.159	3.56
373.522	3.48
373.885	3.44
374.247	3.46
374.61	3.47
374.973	3.37
375.335	3.41
375.698	3.38
376.06	3.39
376.423	3.41
376.785	3.5
377.147	3.45
377.51	3.48
377.872	3.4
378.234	3.44
378.596	3.51
378.958	3.57
379.321	3.53
379.683	3.56
380.045	3.61
380.407	3.56
380.769	3.59
381.13	3.62
381.492	3.7
381.854	3.7
382.216	3.74
382.578	3.71
382.939	3.67
383.301	3.66
383.663	3.66
384.024	3.65
384.386	3.63
384.747	3.65
385.109	3.65
385.47	3.72
385.832	3.67
386.193	3.66
386.554	3.6
386.916	3.64
387.277	3.56
387.638	3.56
387.999	3.61
388.36	3.62
388.721	3.68
389.082	3.68
389.443	3.68
389.804	3.69
390.165	3.76
390.526	3.78
390.887	3.81
391.248	3.8
391.609	3.81
391.969	3.82
392.33	3.8
392.691	3.77
393.051	3.74
393.412	3.78
393.772	3.78
394.133	3.77
394.493	3.77
394.854	3.84
395.214	3.86
395.574	3.81
395.935	3.83
396.295	3.8
396.655	3.78
397.015	3.8
397.376	3.78
397.736	3.71
398.096	3.69
398.456	3.65
398.816	3.66
399.176	3.65
399.535	3.65
399.895	3.67
400.255	3.67
400.615	3.67
400.975	3.68
401.334	3.65
401.694	3.71
402.054	3.71
402.413	3.74
402.773	3.71
403.132	3.73
403.492	3.72
403.851	3.71
404.211	3.66
404.57	3.67
404.929	3.69
405.288	3.73
405.648	3.73
406.007	3.75
406.366	3.77
406.725	3.76
407.084	3.76
407.443	3.79
407.802	3.8
408.161	3.81
408.52	3.79
408.879	3.81
409.238	3.76
409.596	3.73
409.955	3.7
410.314	3.72
410.673	3.73
411.031	3.72
411.39	3.71
411.748	3.73
412.107	3.69
412.465	3.69
412.824	3.68
413.182	3.69
413.54	3.74
413.899	3.75
414.257	3.74
414.615	3.74
414.974	3.72
415.332	3.74
415.69	3.76
416.048	3.76
416.406	3.74
416.764	3.77
417.122	3.79
417.48	3.78
417.838	3.76
418.195	3.75
418.553	3.76
418.911	3.74
419.269	3.78
419.626	3.78
419.984	3.77
420.342	3.78
420.699	3.79
421.057	3.77
421.414	3.77
421.772	3.79
422.129	3.79
422.486	3.8
422.844	3.78
423.201	3.77
423.558	3.79
423.915	3.81
424.273	3.81
424.63	3.81
424.987	3.82
425.344	3.81
425.701	3.81
426.058	3.81
426.415	3.81
426.772	3.8
427.128	3.81
427.485	3.84
427.842	3.83
428.199	3.83
428.555	3.84
428.912	3.84
429.269	3.8
429.625	3.8
429.982	3.81
430.338	3.8
430.695	3.8
431.051	3.8
431.407	3.79
431.764	3.8
432.12	3.82
432.476	3.82
432.832	3.84
433.189	3.84
433.545	3.84
433.901	3.86
434.257	3.82
434.613	3.82
434.969	3.79
435.325	3.78
435.681	3.79
436.036	3.78
436.392	3.76
436.748	3.8
437.104	3.79
437.459	3.79
437.815	3.82
438.171	3.81
438.526	3.8
438.882	3.81
439.237	3.8
439.593	3.8
439.948	3.78
440.304	3.78
440.659	3.79
441.014	3.78
441.369	3.81
441.725	3.83
442.08	3.83
442.435	3.85
442.79	3.87
443.145	3.87
443.5	3.86
443.855	3.88
444.21	3.88
444.565	3.89
444.92	3.89
445.275	3.87
445.629	3.86
445.984	3.87
446.339	3.86
446.693	3.86
447.048	3.84
447.403	3.83
447.757	3.84
448.112	3.85
448.466	3.88
448.82	3.86
449.175	3.86
449.529	3.88
449.883	3.86
450.238	3.86
450.592	3.85
450.946	3.87
451.3	3.87
451.654	3.84
452.008	3.85
452.362	3.85
452.716	3.85
453.07	3.87
453.424	3.88
453.778	3.89
454.132	3.88
454.486	3.91
454.839	3.92
455.193	3.9
455.547	3.91
455.9	3.88
456.254	3.89
456.607	3.89
456.961	3.88
457.314	3.9
457.668	3.88
458.021	3.89
458.375	3.89
458.728	3.87
459.081	3.91
459.434	3.88
459.787	3.9
460.141	3.93
460.494	3.94
460.847	3.93
461.2	3.94
461.553	3.95
461.906	3.95
462.259	3.94
462.611	3.96
462.964	3.96
463.317	3.98
463.67	3.98
464.022	3.99
464.375	3.97
464.728	3.96
465.08	3.98
465.433	4
465.785	4
466.138	4.01
466.49	4.01
466.843	4.06
467.195	4.04
467.547	4.04
467.899	4.06
468.252	4.06
468.604	4.04
468.956	4.03
469.308	4.04
469.66	4.06
470.012	4.04
470.364	4.06
470.716	4.07
471.068	4.08
471.42	4.08
471.772	4.1
472.123	4.09
472.475	4.11
472.827	4.1
473.178	4.08
473.53	4.1
473.882	4.08
474.233	4.03
474.585	4.05
474.936	4.05
475.288	4.03
475.639	4.05
475.99	4.05
476.342	4.07
476.693	4.07
477.044	4.07
477.395	4.07
477.746	4.06
478.097	4.06
478.448	4.05
478.8	4.05
479.15	4.05
479.501	4.05
479.852	4.03
480.203	4.04
480.554	4.07
480.905	4.07
481.255	4.07
481.606	4.09
481.957	4.09
482.307	4.09
482.658	4.1
483.009	4.09
483.359	4.09
483.709	4.1
484.06	4.11
484.41	4.12
484.761	4.14
485.111	4.14
485.461	4.14
485.811	4.15
486.162	4.15
486.512	4.16
486.862	4.17
487.212	4.19
487.562	4.19
487.912	4.18
488.262	4.18
488.612	4.18
488.961	4.18
489.311	4.17
489.661	4.18
490.011	4.17
490.36	4.18
490.71	4.18
491.06	4.16
491.409	4.15
491.759	4.14
492.108	4.12
492.458	4.12
492.807	4.13
493.157	4.13
493.506	4.15
493.855	4.15
494.204	4.14
494.554	4.13
494.903	4.14
495.252	4.13
495.601	4.14
495.95	4.15
496.299	4.15
496.648	4.16
496.997	4.17
497.346	4.18
497.695	4.19
498.043	4.18
498.392	4.21
498.741	4.21
499.09	4.21
499.438	4.24
499.787	4.24
500.135	4.24
500.484	4.22
500.832	4.23
501.181	4.22
501.529	4.23
501.878	4.23
502.226	4.2
502.574	4.23
502.923	4.24
503.271	4.24
503.619	4.26
503.967	4.27
504.315	4.27
504.663	4.28
505.011	4.28
505.359	4.28
505.707	4.29
506.055	4.29
506.403	4.29
506.751	4.26
507.098	4.27
507.446	4.26
507.794	4.26
508.141	4.26
508.489	4.29
508.837	4.27
509.184	4.27
509.531	4.3
509.879	4.29
510.226	4.27
510.574	4.29
510.921	4.26
511.268	4.29
511.616	4.31
511.963	4.32
512.31	4.33
512.657	4.33
513.004	4.31
513.351	4.31
513.698	4.33
514.045	4.34
514.392	4.35
514.739	4.35
515.086	4.37
515.432	4.37
515.779	4.38
516.126	4.4
516.473	4.41
516.819	4.4
517.166	4.42
517.512	4.44
517.859	4.44
518.205	4.44
518.552	4.43
518.898	4.42
519.245	4.39
519.591	4.4
519.937	4.45
520.283	4.46
520.629	4.45
520.976	4.45
521.322	4.44
521.668	4.45
522.014	4.46
522.36	4.47
522.706	4.48
523.052	4.48
523.398	4.47
523.743	4.45
524.089	4.47
524.435	4.47
524.781	4.47
525.126	4.47
525.472	4.5
525.817	4.5
526.163	4.48
526.509	4.5
526.854	4.51
527.199	4.5
527.545	4.51
527.89	4.52
528.235	4.51
528.581	4.51
528.926	4.51
529.271	4.51
529.616	4.52
529.961	4.51
530.306	4.5
530.651	4.52
530.996	4.54
531.341	4.54
531.686	4.56
532.031	4.57
532.376	4.58
532.721	4.58
533.065	4.58
533.41	4.61
533.755	4.62
534.099	4.62
534.444	4.63
534.788	4.61
535.133	4.62
535.477	4.63
535.822	4.66
536.166	4.67
536.51	4.69
536.855	4.66
537.199	4.66
537.543	4.66
537.887	4.67
538.231	4.65
538.576	4.66
538.92	4.63
539.264	4.65
539.608	4.65
539.951	4.65
540.295	4.64
540.639	4.64
540.983	4.62
541.327	4.62
541.671	4.63
542.014	4.64
542.358	4.63
542.701	4.66
543.045	4.65
543.389	4.64
543.732	4.63
544.075	4.63
544.419	4.65
544.762	4.66
545.105	4.66
545.449	4.68
545.792	4.68
546.135	4.66
546.478	4.64
546.821	4.67
547.165	4.67
547.508	4.69
547.851	4.67
548.194	4.69
548.536	4.68
548.879	4.65
549.222	4.65
549.565	4.66
549.908	4.63
550.25	4.59
550.593	4.61
550.936	4.59
551.278	4.6
551.621	4.59
551.963	4.59
552.306	4.56
552.648	4.55
552.991	4.54
553.333	4.54
553.675	4.58
554.017	4.54
554.36	4.54
554.702	4.54
555.044	4.55
555.386	4.58
555.728	4.58
556.07	4.57
556.412	4.58
556.754	4.55
557.096	4.54
557.438	4.6
557.78	4.59
558.121	4.62
558.463	4.6
558.805	4.63
559.147	4.65
559.488	4.66
559.83	4.65
560.171	4.69
560.513	4.71
560.854	4.69
561.196	4.72
561.537	4.73
561.878	4.73
562.22	4.75
562.561	4.76
562.902	4.78
563.243	4.79
563.584	4.82
563.925	4.88
564.266	4.91
564.607	4.88
564.948	4.88
565.289	4.87
565.63	4.85
565.971	4.82
566.312	4.81
566.653	4.83
566.993	4.84
567.334	4.8
567.675	4.81
568.015	4.82
568.356	4.81
568.696	4.83
569.037	4.8
569.377	4.79
569.718	4.77
570.058	4.76
570.398	4.76
570.739	4.71
571.079	4.68
571.419	4.68
571.759	4.69
572.099	4.68
572.439	4.68
572.779	4.71
573.119	4.74
573.459	4.72
573.799	4.71
574.139	4.71
574.479	4.73
574.819	4.73
575.158	4.74
575.498	4.73
575.838	4.7
576.177	4.69
576.517	4.71
576.856	4.72
577.196	4.78
577.535	4.82
577.875	4.84
578.214	4.84
578.553	4.85
578.893	4.91
579.232	4.9
579.571	4.94
579.91	4.95
580.25	4.94
580.589	4.93
580.928	5
581.267	4.96
581.606	4.94
581.945	4.92
582.283	4.87
582.622	4.86
582.961	4.87
583.3	4.85
583.639	4.81
583.977	4.81
584.316	4.75
584.654	4.73
584.993	4.77
585.332	4.81
585.67	4.76
586.008	4.73
586.347	4.75
586.685	4.71
587.024	4.72
587.362	4.7
587.7	4.75
588.038	4.71
588.376	4.71
588.715	4.74
589.053	4.76
589.391	4.79
589.729	4.84
590.067	4.84
590.404	4.91
590.742	4.92
591.08	4.95
591.418	4.95
591.756	4.96
592.093	4.93
592.431	4.93
592.769	4.96
593.106	4.92
593.444	4.9
593.781	4.93
594.119	4.93
594.456	4.93
594.793	4.89
595.131	4.88
595.468	4.93
595.805	4.94
596.143	4.96
596.48	4.94
596.817	4.94
597.154	4.97
597.491	4.91
597.828	4.93
598.165	4.88
598.502	4.85
598.839	4.81
599.176	4.84
599.512	4.82
599.849	4.84
600.186	4.82
600.523	4.84
600.859	4.85
601.196	4.86
601.532	4.89
601.869	4.9
602.205	4.9
602.542	4.87
602.878	4.86
603.215	4.81
603.551	4.84
603.887	4.81
604.223	4.79
604.56	4.83
604.896	4.83
605.232	4.87
605.568	4.89
605.904	4.88
606.24	4.86
606.576	4.86
606.912	4.85
607.248	4.91
607.583	4.92
607.919	4.91
608.255	4.87
608.591	4.89
608.926	4.91
609.262	4.89
609.597	4.91
609.933	4.89
610.268	4.96
610.604	4.93
610.939	4.97
611.275	4.92
611.61	4.91
611.945	4.87
612.281	4.86
612.616	4.86
612.951	4.89
613.286	4.89
613.621	4.92
613.956	4.9
614.291	4.89
614.626	4.9
614.961	4.88
615.296	4.91
615.631	4.9
615.966	4.89
616.3	4.91
616.635	4.89
616.97	4.86
617.304	4.81
617.639	4.82
617.973	4.84
618.308	4.89
618.642	4.86
618.977	4.88
619.311	4.86
619.646	4.9
619.98	4.92
620.314	4.91
620.648	4.88
620.983	4.92
621.317	4.92
621.651	4.9
621.985	4.89
622.319	4.88
622.653	4.88
622.987	4.83
623.321	4.83
623.655	4.8
623.988	4.87
624.322	4.87
624.656	4.88
624.99	4.82
625.323	4.83
625.657	4.92
625.99	4.95
626.324	4.95
626.657	4.94
626.991	4.95
627.324	5
627.658	5.03
627.991	5.02
628.324	5
628.657	5.02
628.991	5.08
629.324	5.12
629.657	5.12
629.99	5.19
630.323	5.22
630.656	5.28
630.989	5.26
631.322	5.35
631.655	5.34
631.987	5.4
632.32	5.43
632.653	5.36
632.986	5.34
633.318	5.37
633.651	5.36
633.984	5.4
634.316	5.43
634.649	5.37
634.981	5.34
635.313	5.4
635.646	5.44
635.978	5.42
636.31	5.4
636.643	5.41
636.975	5.47
637.307	5.45
637.639	5.45
637.971	5.48
638.303	5.42
638.635	5.43
638.967	5.44
639.299	5.47
639.631	5.51
639.963	5.54
640.295	5.58
640.626	5.53
640.958	5.47
641.29	5.42
641.621	5.44
641.953	5.44
642.285	5.35
642.616	5.34
642.948	5.33
643.279	5.37
643.61	5.4
643.942	5.31
644.273	5.36
644.604	5.36
644.936	5.36
645.267	5.37
645.598	5.38
645.929	5.28
646.26	5.18
646.591	5.25
646.922	5.28
647.253	5.23
647.584	5.21
647.915	5.29
648.245	5.27
648.576	5.29
648.907	5.41
649.238	5.4
649.568	5.37
649.899	5.38
650.229	5.33
650.56	5.33
650.89	5.32
651.221	5.23
651.551	5.25
651.882	5.29
652.212	5.29
652.542	5.31
652.872	5.34
653.203	5.4
653.533	5.39
653.863	5.39
654.193	5.36
654.523	5.44
654.853	5.39
655.183	5.43
655.513	5.44
655.843	5.34
656.172	5.45
656.502	5.42
656.832	5.42
657.162	5.42
657.491	5.44
657.821	5.44
658.15	5.51
658.48	5.52
658.809	5.48
659.139	5.49
659.468	5.47
659.798	5.52
660.127	5.51
660.456	5.4
660.785	5.4
661.115	5.44
661.444	5.44
661.773	5.48
662.102	5.43
662.431	5.43
662.76	5.42
663.089	5.41
663.418	5.39
663.747	5.45
664.076	5.47
664.404	5.44
664.733	5.46
665.062	5.43
665.39	5.43
665.719	5.42
666.048	5.34
666.376	5.4
666.705	5.42
667.033	5.39
667.362	5.51
667.69	5.46
668.018	5.48
668.347	5.52
668.675	5.45
669.003	5.46
669.331	5.49
669.659	5.45
669.987	5.44
670.315	5.5
670.643	5.36
670.971	5.35
671.299	5.35
671.627	5.42
671.955	5.41
672.283	5.36
672.61	5.37
672.938	5.44
673.266	5.34
673.593	5.25
673.921	5.23
674.249	5.21
674.576	5.29
674.904	5.31
675.231	5.32
675.558	5.42
675.886	5.46
676.213	5.34
676.54	5.48
676.867	5.43
677.195	5.44
677.522	5.57
677.849	5.6
678.176	5.61
678.503	5.57
678.83	5.6
679.157	5.58
679.484	5.62
679.81	5.67
680.137	5.79
680.464	5.92
680.791	5.96
681.117	5.98
681.444	5.91
681.771	5.9
682.097	5.94
682.424	5.92
682.75	5.99
683.077	6.07
683.403	6.02
683.729	5.98
684.056	6
684.382	6.04
684.708	6.02
685.034	6.02
685.36	5.98
685.686	5.99
686.012	6.09
686.339	6.08
686.664	6.02
686.99	5.95
687.316	5.78
687.642	5.85
687.968	5.91
688.294	5.99
688.619	5.99
688.945	5.95
689.271	5.85
689.596	5.71
689.922	5.82
690.247	5.88
690.573	5.97
690.898	6.06
691.224	6.01
691.549	6.08
691.874	6.05
692.2	6.06
692.525	5.91
692.85	5.87
693.175	5.88
693.5	5.89
693.825	5.87
694.15	5.92
694.475	5.94
694.8	5.91
695.125	5.87
695.45	5.85
695.775	5.86
696.099	6.01
696.424	6.12
696.749	6.05
697.073	6.11
697.398	6.18
697.723	6.13
698.047	6.07
698.372	5.99
698.696	6.03
699.02	6.12
699.345	6.33
699.669	6.37
699.993	6.28
700.318	6.3
700.642	6.28
700.966	6.27
701.29	6.2
701.614	6.12
701.938	6.14
702.262	6.08
702.586	6.06
702.91	5.96
703.234	5.77
703.557	5.73
703.881	5.64
704.205	5.65
704.529	5.63
704.852	5.75
705.176	5.84
705.499	5.76
705.823	5.76
706.146	5.61
706.47	5.57
706.793	5.73
707.117	5.79
707.44	5.79
707.763	5.9
708.086	6.02
708.409	6.03
708.733	6.2
709.056	6.4
709.379	6.48
709.702	6.48
710.025	6.7
710.348	6.84
710.671	6.76
710.993	6.55
711.316	6.54
711.639	6.54
711.962	6.61
712.284	6.63
712.607	6.55
712.93	6.6
713.252	6.59
713.575	6.57
713.897	6.43
714.22	6.53
714.542	6.63
714.864	6.34
715.187	6.39
715.509	6.24
715.831	6.19
716.153	6.07
716.475	6.2
716.798	6.19
717.12	6.09
717.442	6.07
717.764	6.09
718.085	6.05
718.407	6.08
718.729	6.09
719.051	6.17
719.373	6.15
719.695	6.09
720.016	6.21
720.338	6.18
720.659	6.31
720.981	6.44
721.302	6.47
721.624	6.9
721.945	6.91
722.267	6.93
722.588	6.88
722.909	6.82
723.231	6.55
723.552	6.64
723.873	6.63
724.194	6.74
724.515	6.9
724.836	6.88
725.157	6.53
725.478	6.4
725.799	6.55
726.12	6.55
726.441	6.68
726.762	6.56
727.083	6.72
727.403	6.68
727.724	6.37
728.045	6.28
728.365	6.17
728.686	6.13
729.006	6.08
729.327	6.09
729.647	6.11
729.967	6.23
730.288	6.23
730.608	6.32
730.928	6.31
731.249	6.49
731.569	6.63
731.889	6.9
732.209	6.94
732.529	6.67
732.849	6.65
733.169	6.6
733.489	6.54
733.809	6.39
734.129	6.45
734.448	6.59
734.768	6.66
735.088	6.64
735.408	6.73
735.727	6.92
736.047	6.89
736.366	6.96
736.686	6.87
737.005	6.77
737.325	6.7
737.644	6.68
737.963	6.57
738.283	6.49
738.602	6.59
738.921	6.51
739.24	6.7
739.56	6.97
739.879	6.98
740.198	7.3
740.517	7.14
740.836	7.14
741.155	7.27
741.473	7.24
741.792	7.15
742.111	7.12
742.43	7.06
742.748	7.18
743.067	7.36
743.386	7.55
743.704	7.7
744.023	7.83
744.341	8
744.66	7.71
744.978	7.66
745.297	7.48
745.615	7.55
745.933	7.56
746.252	7.41
746.57	7.49
746.888	7.3
747.206	7.54
747.524	7.65
747.842	7.33
748.16	7.34
748.478	7.37
748.796	7.33
749.114	7.42
749.432	7.35
749.749	7.03
750.067	7
750.385	6.78
750.703	6.64
751.02	6.6
751.338	6.92
751.655	6.92
751.973	6.76
752.29	6.54
752.608	6.32
752.925	6.16
753.242	6.1
753.56	5.81
753.877	5.82
754.194	5.71
754.511	5.96
754.828	5.57
755.145	5.79
755.462	5.75
755.779	5.74
756.096	5.63
756.413	5.89
756.73	6.06
757.047	5.88
757.364	6.08
757.68	6.06
757.997	5.97
758.314	6.19
758.63	6.41
758.947	6.77
759.264	6.85
759.58	7.17
759.896	7.11
760.213	7.35
760.529	7.2
760.846	7.11
761.162	7.2
761.478	7.43
761.794	7.3
762.11	7.41
762.426	7.23
762.743	7.44
763.059	7.49
763.375	7.44
763.69	7.62
764.006	7.62
764.322	7.72
764.638	7.83
764.954	7.81
765.27	7.88
765.585	8.04
765.901	7.95
766.216	7.89
766.532	8.08
766.848	8.25
767.163	8.24
767.478	8.45
767.794	8.4
768.109	8.5
768.424	8.46
768.74	8.29
769.055	8.5
769.37	8.16
769.685	8.21
770	8.21
770.315	8.22
770.63	8.35
770.945	8.35
771.26	8.08
771.575	8.12
771.89	7.94
772.205	7.42
772.52	7.59
772.834	7.48
773.149	7.26
773.464	7.4
773.778	7.54
774.093	7.14
774.407	6.87
774.722	6.93
775.036	6.98
775.351	7.21
775.665	6.87
775.979	7.47
776.293	7.33
776.608	7.18
776.922	7.04
777.236	6.57
777.55	6.37
777.864	6.6
778.178	6.45
778.492	6.22
778.806	6.37
779.12	6.64
779.434	6.78
779.747	6.38
780.061	6.32
780.375	6.66
780.689	7.25
781.002	7.74
781.316	7.62
781.629	7.81
781.943	7.6
782.256	7.56
782.57	7.14
782.883	7.45
783.196	7.48
783.51	7.65
783.823	8.06
784.136	7.9
784.449	7.28
784.762	7.66
785.075	8.3
785.388	8.83
785.701	8.5
786.014	8.42
786.327	8.59
786.64	7.91
786.953	7.49
787.266	7.03
787.578	6.83
787.891	6.39
788.204	6.42
788.516	6.25
788.829	6.51
789.141	7.02
789.454	6.85
789.766	6.94
790.079	6.99
790.391	6.3
790.703	6.46
791.016	6.97
791.328	6.66
791.64	6.79
791.952	6.41
792.264	6.27
792.576	6.16
792.888	6.76
793.2	7.05
793.512	7.13
793.824	7.51
794.136	7.35
794.448	7.72
794.76	7.91
795.071	8.06
795.383	7.41
795.695	7.17
796.006	7.07
796.318	6.94
796.629	7.38
796.941	7.71
797.252	7.15
797.564	7.41
797.875	7.27
798.186	7.16
798.497	6.94
798.809	7.02
799.12	6.92
799.431	6.4
799.742	6.35
800.053	6
800.364	6.11
800.675	6.68
800.986	7.14
801.297	6.56
801.608	7.02
801.918	7.83
802.229	7.64
802.54	7.29
802.851	7.36
803.161	6.76
803.472	7.12
803.782	8.27
804.093	7.63
804.403	7.51
804.714	7.51
805.024	7.65
805.334	7.92
805.645	8.24
805.955	8.59
806.265	8.85
806.575	9.25
806.885	9.36
807.195	9
807.505	8.2
807.815	8.57
808.125	8.45
808.435	8.5
808.745	8.24
809.055	8.19
809.365	8.04
809.674	8.43
809.984	8.17
810.294	7.89
810.603	7.77
810.913	8.24
811.222	8.26
811.532	8.4
811.841	8.52
812.151	8.36
812.46	8.2
812.769	8.17
813.079	8.9
813.388	8.72
813.697	8.15
814.006	8.34
814.315	7.73
814.624	7.92
814.933	8.08
815.242	7.76
815.551	8.69
815.86	9.1
816.169	8.12
816.478	8.74
816.786	8.19
817.095	8.62
817.404	8.29
817.712	8.16
818.021	8.31
818.33	8.57
818.638	8.65
818.947	8.7
819.255	8.75
819.563	8.35
819.872	8.04
820.18	8.27
820.488	8.43
820.796	8.81
821.105	8.84
821.413	8.72
821.721	8.93
822.029	8.81
822.337	8.83
822.645	9.12
822.953	9.21
823.26	9.41
823.568	9.37
823.876	9.5
824.184	9.48
824.491	9.35
824.799	9.22
825.107	9.26
825.414	9.27
825.722	9.17
826.029	9.45
826.337	9.55
826.644	9.74
826.951	9.73
827.259	9.95
827.566	9.96
827.873	10.18
828.18	10.35
828.488	10.67
828.795	11.03
829.102	11.26
829.409	10.93
829.716	11.04
830.023	11.27
830.329	11.11
830.636	10.89
830.943	11.07
831.25	10.97
831.557	10.67
831.863	11
832.17	11.29
832.476	11.17
832.783	10.87
833.089	10.59
833.396	10.77
833.702	10.59
834.009	10.48
834.315	10.25
834.621	10.03
834.928	9.46
835.234	9.04
835.54	8.49
835.846	8.8
836.152	8.56
836.458	8.75
836.764	9.4
837.07	10.02
837.376	9.92
837.682	10.59
837.988	10.92
838.293	10.22
838.599	9.87
838.905	9.23
839.211	9.49
839.516	9.27
839.822	10.33
840.127	10.67
840.433	11.12
840.738	11.5
841.044	12.23
841.349	12.85
841.654	11.98
841.959	12.34
842.265	12.22
842.57	12.25
842.875	10.89
843.18	9.2
843.485	8.93
843.79	9.25
844.095	7.7
844.4	8.2
844.705	8.77
845.01	9.52
845.315	10.13
845.619	10.74
845.924	10.89
846.229	8.79
846.533	6.87
846.838	5.85
847.142	5.16
847.447	4
847.751	3.15
848.056	3.75
848.36	4.29
848.664	4.35
848.969	4.15
849.273	4.01
849.577	4.43
849.881	4.8
850.185	5.19
850.489	6.47
850.794	6.94
851.097	7.82
851.401	6.99
851.705	6.38
852.009	6.75
852.313	6.51
852.617	6.45
852.92	8.28
853.224	9.99
853.528	10.9
853.831	10.19
854.135	12.85
854.438	13.42
854.742	12.46
855.045	11.15
855.349	11.82
855.652	12.9
855.955	12.71
856.259	12.54
856.562	11.55
856.865	11.87
857.168	11.55
857.471	12.13
857.774	13.18
858.077	12.99
858.38	13.47
858.683	15.22
858.986	15.35
859.289	13.61
859.592	14.56
859.894	13.21
860.197	13.63
860.5	10.53
860.802	10.47
861.105	9.4
861.407	11.68
861.71	10.04
862.012	10.73
862.315	12.17
862.617	10.55
862.919	11.2
863.222	12.93
863.524	12.41
863.826	10.29
864.128	11.33
864.43	13.39
864.732	12.35
865.034	11.19
865.336	12.74
865.638	13.34
865.94	12.61
866.242	12.74
866.544	14.1
866.846	15.06
867.147	15.94
867.449	15.47
867.751	14.71
868.052	16.17
868.354	16.21
868.655	16.96
868.957	16.8
869.258	14.87
869.56	15.5
869.861	17.12
870.162	17.61
870.463	17.69
870.765	16.17
871.066	16.3
871.367	15.38
871.668	13.4
871.969	12.65
872.27	12.29
872.571	13.05
872.872	12.13
873.173	13.18
873.473	11.74
873.774	13.97
874.075	14.81
874.376	12.46
874.676	13.16
874.977	10.82
875.277	12.94
875.578	15
875.878	11.97
876.179	9.96
876.479	10.68
876.78	8.97
877.08	8.41
877.38	9.03
877.68	10.67
877.981	12.48
878.281	13.81
878.581	11.67
