Data from MVZ_BU57658_Reflection_00012.txt Node
Date: Tue Nov 19 12:13:40 EST 2019
User: vgr7
Spectrometer: USB2G7710
Scans to average: 3
Trigger mode: 4
Integration Time (sec): 2.000000E-2
Electric dark correction enabled: true
Boxcar width: 10
XAxis mode: Wavelengths
Number of Pixels in Spectrum: 2048
>>>>>Begin Spectral Data<<<<<
177.721	484.18
178.105	135.09
178.488	122.08
178.871	8.33
179.254	-233.33
179.636	227.45
180.019	-219.73
180.402	200
180.785	23.58
181.168	106.27
181.55	72.34
181.933	118.21
182.316	60.64
182.698	42.23
183.081	18.88
183.463	28.81
183.846	23.13
184.228	31.49
184.611	32.5
184.993	17.04
185.376	4.76
185.758	47.44
186.14	92.25
186.522	118.97
186.904	713.33
187.287	340.55
187.669	142.67
188.051	78.04
188.433	487.39
188.815	-225.67
189.197	-134.43
189.579	-24.03
189.961	-54.53
190.342	-31.12
190.724	-37.62
191.106	-38.67
191.488	-29.42
191.869	-34.22
192.251	-29.95
192.633	-22.67
193.014	-24.24
193.396	-25.26
193.777	-13.36
194.159	0.48
194.54	5.37
194.922	7.05
195.303	15.75
195.684	-10.06
196.065	-29.39
196.447	-18.12
196.828	6.95
197.209	11.54
197.59	26.49
197.971	31.86
198.352	-85.19
198.733	263.12
199.114	-78.4
199.495	887.88
199.876	398.25
200.257	3766.67
200.638	258.73
201.018	163.06
201.399	70.04
201.78	156.28
202.16	833.33
202.541	2178.43
202.922	-3387.18
203.302	-188.11
203.683	-114.22
204.063	-56.49
204.444	-68.22
204.824	-91.28
205.204	-92.01
205.585	-121.97
205.965	-124.23
206.345	-83.69
206.725	-108.25
207.106	-90.81
207.486	-86.67
207.866	-99.52
208.246	-97.48
208.626	-136.82
209.006	-186.26
209.386	-302.71
209.766	-450.62
210.145	-497.8
210.525	-651.11
210.905	-228.61
211.285	-175.36
211.664	-209.8
212.044	-367.66
212.424	2290.48
212.803	121.86
213.183	109.52
213.562	38.27
213.942	111.99
214.321	124.02
214.701	63.15
215.08	89
215.459	134.9
215.838	187.89
216.218	148.41
216.597	130.46
216.976	120.2
217.355	97.45
217.734	84.07
218.113	74.36
218.492	52.24
218.871	30.33
219.25	11.48
219.629	7.97
220.008	6.27
220.387	-6.34
220.766	2.21
221.144	-6.87
221.523	-17.7
221.902	-19.33
222.28	-17.15
222.659	-9.56
223.037	-17.31
223.416	-24.64
223.794	-7.08
224.173	-9.21
224.551	-12.63
224.929	-11.56
225.308	-14.77
225.686	-10.86
226.064	-14.54
226.442	-4.51
226.821	-2.82
227.199	1.84
227.577	2.89
227.955	2.89
228.333	4.82
228.711	2.94
229.089	3.78
229.467	4.69
229.845	5.31
230.222	6.58
230.6	4.9
230.978	4.36
231.356	3.17
231.733	-0.3
232.111	-0.51
232.488	0.15
232.866	-1.31
233.243	0.37
233.621	1.74
233.998	2.4
234.376	1.42
234.753	-0.17
235.13	-1.78
235.508	-3.01
235.885	-2.7
236.262	-3.86
236.639	-3.73
237.016	-3.16
237.393	-1.78
237.77	0.45
238.147	0.74
238.524	2.93
238.901	3
239.278	2.59
239.655	2.94
240.032	3.46
240.409	3.76
240.785	4.22
241.162	4.62
241.539	3.94
241.915	3.78
242.292	3.92
242.668	4.45
243.045	4.9
243.421	5.48
243.798	5.43
244.174	5.82
244.551	5.73
244.927	5.6
245.303	4.87
245.679	4.38
246.056	4.06
246.432	3.73
246.808	3.81
247.184	4.01
247.56	3.9
247.936	3.82
248.312	3.53
248.688	3.5
249.064	3.25
249.44	3.32
249.815	3.57
250.191	3.47
250.567	3.5
250.943	3.57
251.318	3.35
251.694	3.1
252.069	3.01
252.445	2.98
252.82	3.11
253.196	3.41
253.571	3.56
253.947	3.52
254.322	3.55
254.697	3.71
255.073	3.6
255.448	3.61
255.823	3.45
256.198	3.47
256.573	3.59
256.948	3.83
257.323	4.09
257.698	3.89
258.073	4.03
258.448	3.91
258.823	3.73
259.198	3.63
259.573	3.52
259.948	3.57
260.322	3.43
260.697	3.43
261.072	3.47
261.446	3.44
261.821	3.42
262.195	3.31
262.57	3.08
262.944	3.15
263.319	3.19
263.693	3.25
264.067	3.43
264.442	3.34
264.816	3.3
265.19	3.12
265.564	3
265.938	3.08
266.313	3.15
266.687	3.02
267.061	3.2
267.435	3.39
267.809	3.11
268.183	3.23
268.556	3.08
268.93	2.98
269.304	3.03
269.678	3.11
270.051	3.17
270.425	3.16
270.799	2.88
271.172	2.81
271.546	2.91
271.919	2.97
272.293	3.07
272.666	2.94
273.04	3.08
273.413	3.16
273.787	3.13
274.16	3.05
274.533	3.23
274.906	3.29
275.279	3.22
275.653	3.47
276.026	3.57
276.399	3.64
276.772	3.85
277.145	3.94
277.518	3.91
277.891	3.85
278.263	4.15
278.636	4.33
279.009	4.53
279.382	4.42
279.755	4.24
280.127	4.09
280.5	4.1
280.872	4.06
281.245	4.01
281.617	3.99
281.99	3.93
282.362	3.78
282.735	3.74
283.107	3.79
283.479	3.69
283.852	3.54
284.224	3.62
284.596	3.57
284.968	3.46
285.34	3.63
285.713	3.83
286.085	3.78
286.457	4.01
286.829	3.86
287.201	3.99
287.572	4.16
287.944	4.31
288.316	4.3
288.688	4.25
289.06	4.29
289.431	4.33
289.803	4.37
290.175	4.42
290.546	4.41
290.918	4.42
291.289	4.38
291.661	4.58
292.032	4.53
292.403	4.46
292.775	4.51
293.146	4.51
293.517	4.42
293.889	4.29
294.26	4.12
294.631	4.24
295.002	4.15
295.373	4.05
295.744	3.99
296.115	4.14
296.486	4.29
296.857	4.26
297.228	4.3
297.599	4.31
297.97	4.49
298.34	4.45
298.711	4.46
299.082	4.46
299.452	4.39
299.823	4.38
300.194	4.46
300.564	4.41
300.935	4.36
301.305	4.36
301.676	4.38
302.046	4.42
302.416	4.38
302.787	4.37
303.157	4.42
303.527	4.55
303.897	4.51
304.267	4.46
304.637	4.59
305.008	4.52
305.378	4.7
305.748	4.56
306.117	4.67
306.487	4.79
306.857	4.9
307.227	5.12
307.597	5.2
307.967	5.23
308.336	5.35
308.706	5.6
309.076	5.74
309.445	5.91
309.815	5.8
310.184	5.87
310.554	5.99
310.923	5.9
311.293	5.89
311.662	5.93
312.031	5.99
312.401	6.01
312.77	6.12
313.139	6.01
313.508	6.09
313.877	6.04
314.246	5.99
314.616	6.04
314.985	5.97
315.353	6.02
315.722	6.13
316.091	6.2
316.46	6.09
316.829	6.17
317.198	6.07
317.567	6.34
317.935	6.39
318.304	6.33
318.672	6.49
319.041	6.59
319.41	6.7
319.778	6.97
320.147	6.98
320.515	7.08
320.883	7.2
321.252	7.32
321.62	7.44
321.988	7.63
322.357	7.86
322.725	7.89
323.093	7.85
323.461	7.73
323.829	7.71
324.197	7.64
324.565	7.51
324.933	7.66
325.301	7.52
325.669	7.54
326.037	7.57
326.405	7.56
326.772	7.55
327.14	7.53
327.508	7.29
327.875	7.38
328.243	7.26
328.61	7.46
328.978	7.44
329.346	7.35
329.713	7.33
330.08	7.29
330.448	7.22
330.815	7.31
331.182	7.38
331.55	7.45
331.917	7.42
332.284	7.53
332.651	7.52
333.018	7.45
333.385	7.53
333.752	7.78
334.119	7.88
334.486	7.93
334.853	7.9
335.22	7.89
335.587	7.85
335.954	7.97
336.32	7.97
336.687	8.05
337.054	8.19
337.42	8.14
337.787	8.01
338.153	8.09
338.52	8.16
338.886	8.28
339.253	8.19
339.619	8.27
339.986	8.19
340.352	8.11
340.718	8.29
341.084	8.16
341.451	8.13
341.817	8.16
342.183	8.09
342.549	8.12
342.915	8.15
343.281	8.07
343.647	8.02
344.013	7.89
344.379	7.85
344.745	7.86
345.11	7.84
345.476	8.1
345.842	8.1
346.208	8.04
346.573	8
346.939	8.01
347.304	8.02
347.67	8.04
348.035	8.05
348.401	8.12
348.766	8.17
349.132	8.1
349.497	8.1
349.862	8.07
350.228	8.03
350.593	8.09
350.958	8.14
351.323	8.16
351.688	8.26
352.053	8.29
352.418	8.24
352.783	8.24
353.148	8.02
353.513	7.96
353.878	8.03
354.243	7.99
354.608	8.17
354.972	8.18
355.337	8.16
355.702	8.15
356.066	8.06
356.431	8.05
356.795	7.98
357.16	7.93
357.524	7.91
357.889	7.99
358.253	7.94
358.618	7.96
358.982	7.93
359.346	7.85
359.71	7.91
360.075	7.96
360.439	7.94
360.803	8
361.167	8.03
361.531	7.9
361.895	7.9
362.259	7.74
362.623	7.72
362.987	7.7
363.351	7.64
363.714	7.66
364.078	7.65
364.442	7.67
364.806	7.68
365.169	7.71
365.533	7.7
365.896	7.73
366.26	7.7
366.623	7.67
366.987	7.6
367.35	7.5
367.714	7.41
368.077	7.42
368.44	7.38
368.803	7.31
369.167	7.28
369.53	7.24
369.893	7.2
370.256	7.09
370.619	7.01
370.982	6.97
371.345	6.93
371.708	6.9
372.071	6.84
372.434	6.78
372.797	6.7
373.159	6.58
373.522	6.52
373.885	6.52
374.247	6.45
374.61	6.45
374.973	6.43
375.335	6.44
375.698	6.39
376.06	6.28
376.423	6.27
376.785	6.27
377.147	6.27
377.51	6.3
377.872	6.29
378.234	6.34
378.596	6.38
378.958	6.35
379.321	6.29
379.683	6.3
380.045	6.25
380.407	6.23
380.769	6.18
381.13	6.02
381.492	5.92
381.854	5.82
382.216	5.83
382.578	5.74
382.939	5.69
383.301	5.63
383.663	5.62
384.024	5.57
384.386	5.53
384.747	5.45
385.109	5.39
385.47	5.41
385.832	5.36
386.193	5.32
386.554	5.27
386.916	5.25
387.277	5.17
387.638	5.17
387.999	5.12
388.36	5.06
388.721	5.07
389.082	5.12
389.443	5.21
389.804	5.19
390.165	5.15
390.526	5.11
390.887	5.1
391.248	5.06
391.609	5.07
391.969	5.07
392.33	5.09
392.691	5.08
393.051	5.02
393.412	5
393.772	5
394.133	4.97
394.493	4.9
394.854	4.88
395.214	4.86
395.574	4.86
395.935	4.87
396.295	4.85
396.655	4.78
397.015	4.72
397.376	4.66
397.736	4.63
398.096	4.58
398.456	4.54
398.816	4.52
399.176	4.44
399.535	4.41
399.895	4.34
400.255	4.27
400.615	4.22
400.975	4.21
401.334	4.22
401.694	4.22
402.054	4.24
402.413	4.25
402.773	4.22
403.132	4.19
403.492	4.17
403.851	4.13
404.211	4.14
404.57	4.1
404.929	4.08
405.288	4.1
405.648	4.1
406.007	4.15
406.366	4.17
406.725	4.19
407.084	4.2
407.443	4.19
407.802	4.18
408.161	4.16
408.52	4.14
408.879	4.09
409.238	4.1
409.596	4.1
409.955	4.08
410.314	4.06
410.673	4.08
411.031	4.06
411.39	4.1
411.748	4.07
412.107	4.07
412.465	4.06
412.824	4.07
413.182	4.04
413.54	4
413.899	3.96
414.257	3.93
414.615	3.89
414.974	3.89
415.332	3.91
415.69	3.93
416.048	3.93
416.406	3.89
416.764	3.85
417.122	3.82
417.48	3.81
417.838	3.79
418.195	3.76
418.553	3.75
418.911	3.71
419.269	3.72
419.626	3.71
419.984	3.7
420.342	3.7
420.699	3.71
421.057	3.69
421.414	3.68
421.772	3.67
422.129	3.67
422.486	3.65
422.844	3.63
423.201	3.63
423.558	3.61
423.915	3.63
424.273	3.64
424.63	3.65
424.987	3.64
425.344	3.66
425.701	3.65
426.058	3.67
426.415	3.68
426.772	3.67
427.128	3.69
427.485	3.67
427.842	3.67
428.199	3.64
428.555	3.62
428.912	3.62
429.269	3.6
429.625	3.61
429.982	3.62
430.338	3.62
430.695	3.6
431.051	3.6
431.407	3.61
431.764	3.58
432.12	3.55
432.476	3.54
432.832	3.53
433.189	3.53
433.545	3.51
433.901	3.5
434.257	3.5
434.613	3.49
434.969	3.49
435.325	3.47
435.681	3.49
436.036	3.52
436.392	3.54
436.748	3.56
437.104	3.57
437.459	3.58
437.815	3.58
438.171	3.59
438.526	3.58
438.882	3.56
439.237	3.56
439.593	3.58
439.948	3.58
440.304	3.57
440.659	3.58
441.014	3.59
441.369	3.6
441.725	3.61
442.08	3.59
442.435	3.61
442.79	3.6
443.145	3.58
443.5	3.54
443.855	3.54
444.21	3.53
444.565	3.51
444.92	3.5
445.275	3.52
445.629	3.51
445.984	3.51
446.339	3.51
446.693	3.53
447.048	3.5
447.403	3.48
447.757	3.49
448.112	3.48
448.466	3.46
448.82	3.46
449.175	3.46
449.529	3.46
449.883	3.46
450.238	3.45
450.592	3.46
450.946	3.48
451.3	3.47
451.654	3.46
452.008	3.46
452.362	3.44
452.716	3.42
453.07	3.43
453.424	3.43
453.778	3.43
454.132	3.42
454.486	3.43
454.839	3.47
455.193	3.47
455.547	3.48
455.9	3.49
456.254	3.45
456.607	3.46
456.961	3.47
457.314	3.46
457.668	3.47
458.021	3.47
458.375	3.48
458.728	3.47
459.081	3.48
459.434	3.5
459.787	3.53
460.141	3.51
460.494	3.51
460.847	3.51
461.2	3.52
461.553	3.54
461.906	3.54
462.259	3.52
462.611	3.51
462.964	3.53
463.317	3.53
463.67	3.57
464.022	3.58
464.375	3.58
464.728	3.58
465.08	3.6
465.433	3.61
465.785	3.62
466.138	3.65
466.49	3.66
466.843	3.67
467.195	3.66
467.547	3.67
467.899	3.68
468.252	3.68
468.604	3.69
468.956	3.7
469.308	3.69
469.66	3.71
470.012	3.72
470.364	3.71
470.716	3.7
471.068	3.7
471.42	3.7
471.772	3.69
472.123	3.7
472.475	3.7
472.827	3.72
473.178	3.71
473.53	3.73
473.882	3.74
474.233	3.71
474.585	3.71
474.936	3.72
475.288	3.72
475.639	3.74
475.99	3.73
476.342	3.72
476.693	3.73
477.044	3.73
477.395	3.73
477.746	3.73
478.097	3.76
478.448	3.72
478.8	3.72
479.15	3.73
479.501	3.72
479.852	3.72
480.203	3.73
480.554	3.73
480.905	3.72
481.255	3.71
481.606	3.73
481.957	3.72
482.307	3.71
482.658	3.71
483.009	3.69
483.359	3.7
483.709	3.7
484.06	3.7
484.41	3.71
484.761	3.71
485.111	3.71
485.461	3.7
485.811	3.7
486.162	3.7
486.512	3.7
486.862	3.7
487.212	3.7
487.562	3.69
487.912	3.68
488.262	3.68
488.612	3.69
488.961	3.68
489.311	3.68
489.661	3.7
490.011	3.7
490.36	3.71
490.71	3.69
491.06	3.7
491.409	3.7
491.759	3.69
492.108	3.69
492.458	3.7
492.807	3.71
493.157	3.74
493.506	3.77
493.855	3.78
494.204	3.8
494.554	3.82
494.903	3.85
495.252	3.88
495.601	3.9
495.95	3.91
496.299	3.93
496.648	3.96
496.997	3.98
497.346	4.01
497.695	4.02
498.043	4.08
498.392	4.1
498.741	4.12
499.09	4.2
499.438	4.24
499.787	4.29
500.135	4.32
500.484	4.36
500.832	4.39
501.181	4.44
501.529	4.5
501.878	4.54
502.226	4.58
502.574	4.62
502.923	4.65
503.271	4.72
503.619	4.81
503.967	4.87
504.315	4.93
504.663	5.02
505.011	5.13
505.359	5.2
505.707	5.29
506.055	5.41
506.403	5.49
506.751	5.59
507.098	5.68
507.446	5.8
507.794	5.89
508.141	5.98
508.489	6.11
508.837	6.23
509.184	6.33
509.531	6.46
509.879	6.59
510.226	6.71
510.574	6.83
510.921	6.93
511.268	7.08
511.616	7.24
511.963	7.39
512.31	7.55
512.657	7.7
513.004	7.84
513.351	8.01
513.698	8.16
514.045	8.35
514.392	8.52
514.739	8.7
515.086	8.89
515.432	9.1
515.779	9.28
516.126	9.46
516.473	9.65
516.819	9.82
517.166	10
517.512	10.2
517.859	10.38
518.205	10.53
518.552	10.68
518.898	10.85
519.245	11.01
519.591	11.17
519.937	11.29
520.283	11.51
520.629	11.64
520.976	11.85
521.322	12.04
521.668	12.23
522.014	12.45
522.36	12.65
522.706	12.87
523.052	13.13
523.398	13.35
523.743	13.61
524.089	13.86
524.435	14.11
524.781	14.35
525.126	14.57
525.472	14.77
525.817	14.99
526.163	15.15
526.509	15.32
526.854	15.47
527.199	15.66
527.545	15.79
527.89	15.98
528.235	16.12
528.581	16.28
528.926	16.44
529.271	16.59
529.616	16.77
529.961	16.95
530.306	17.08
530.651	17.28
530.996	17.46
531.341	17.68
531.686	17.9
532.031	18.1
532.376	18.32
532.721	18.57
533.065	18.79
533.41	19.06
533.755	19.31
534.099	19.58
534.444	19.81
534.788	20.06
535.133	20.3
535.477	20.56
535.822	20.84
536.166	21.14
536.51	21.43
536.855	21.73
537.199	22.04
537.543	22.4
537.887	22.73
538.231	23.08
538.576	23.38
538.92	23.7
539.264	24.03
539.608	24.32
539.951	24.61
540.295	24.88
540.639	25.14
540.983	25.37
541.327	25.6
541.671	25.85
542.014	26.13
542.358	26.41
542.701	26.63
543.045	26.89
543.389	27.16
543.732	27.42
544.075	27.7
544.419	27.97
544.762	28.25
545.105	28.53
545.449	28.83
545.792	29.14
546.135	29.41
546.478	29.74
546.821	30.08
547.165	30.41
547.508	30.73
547.851	31.02
548.194	31.37
548.536	31.75
548.879	32.1
549.222	32.38
549.565	32.67
549.908	33.03
550.25	33.3
550.593	33.59
550.936	33.93
551.278	34.21
551.621	34.56
551.963	34.88
552.306	35.14
552.648	35.36
552.991	35.66
553.333	35.97
553.675	36.23
554.017	36.52
554.36	36.74
554.702	36.99
555.044	37.25
555.386	37.47
555.728	37.7
556.07	37.93
556.412	38.2
556.754	38.43
557.096	38.72
557.438	38.98
557.78	39.28
558.121	39.55
558.463	39.81
558.805	40.07
559.147	40.26
559.488	40.5
559.83	40.77
560.171	40.96
560.513	41.19
560.854	41.46
561.196	41.69
561.537	41.93
561.878	42.2
562.22	42.46
562.561	42.72
562.902	42.94
563.243	43.13
563.584	43.31
563.925	43.52
564.266	43.7
564.607	43.88
564.948	44
565.289	44.09
565.63	44.3
565.971	44.46
566.312	44.66
566.653	44.86
566.993	45
567.334	45.21
567.675	45.35
568.015	45.45
568.356	45.66
568.696	45.82
569.037	45.92
569.377	46.1
569.718	46.25
570.058	46.42
570.398	46.66
570.739	46.84
571.079	47
571.419	47.18
571.759	47.33
572.099	47.48
572.439	47.68
572.779	47.75
573.119	47.93
573.459	48.07
573.799	48.19
574.139	48.37
574.479	48.5
574.819	48.69
575.158	48.87
575.498	48.93
575.838	49.06
576.177	49.24
576.517	49.37
576.856	49.51
577.196	49.66
577.535	49.78
577.875	49.95
578.214	50.05
578.553	50.13
578.893	50.29
579.232	50.47
579.571	50.58
579.91	50.78
580.25	50.81
580.589	50.86
580.928	50.94
581.267	50.99
581.606	51.05
581.945	51.1
582.283	51.19
582.622	51.28
582.961	51.34
583.3	51.39
583.639	51.44
583.977	51.55
584.316	51.68
584.654	51.87
584.993	51.93
585.332	52.08
585.67	52.15
586.008	52.32
586.347	52.44
586.685	52.52
587.024	52.57
587.362	52.65
587.7	52.75
588.038	52.91
588.376	53.06
588.715	53.15
589.053	53.25
589.391	53.31
589.729	53.36
590.067	53.48
590.404	53.51
590.742	53.61
591.08	53.65
591.418	53.66
591.756	53.56
592.093	53.63
592.431	53.72
592.769	53.81
593.106	53.87
593.444	53.97
593.781	54.05
594.119	54.1
594.456	54.18
594.793	54.28
595.131	54.36
595.468	54.43
595.805	54.52
596.143	54.67
596.48	54.69
596.817	54.8
597.154	54.86
597.491	54.97
597.828	55.03
598.165	55.13
598.502	55.2
598.839	55.36
599.176	55.46
599.512	55.48
599.849	55.54
600.186	55.59
600.523	55.65
600.859	55.67
601.196	55.71
601.532	55.77
601.869	55.82
602.205	55.84
602.542	55.86
602.878	55.87
603.215	55.82
603.551	55.87
603.887	55.88
604.223	55.96
604.56	55.95
604.896	55.99
605.232	55.95
605.568	55.94
605.904	55.93
606.24	55.95
606.576	55.93
606.912	55.95
607.248	55.96
607.583	55.89
607.919	55.97
608.255	56.07
608.591	56.06
608.926	56.13
609.262	56.19
609.597	56.25
609.933	56.3
610.268	56.34
610.604	56.3
610.939	56.4
611.275	56.36
611.61	56.45
611.945	56.49
612.281	56.61
612.616	56.74
612.951	56.83
613.286	56.89
613.621	56.94
613.956	57
614.291	56.96
614.626	57.06
614.961	57.11
615.296	57.08
615.631	57.28
615.966	57.19
616.3	57.11
616.635	57.21
616.97	57.31
617.304	57.27
617.639	57.4
617.973	57.33
618.308	57.38
618.642	57.4
618.977	57.38
619.311	57.33
619.646	57.28
619.98	57.3
620.314	57.26
620.648	57.33
620.983	57.32
621.317	57.45
621.651	57.57
621.985	57.64
622.319	57.58
622.653	57.51
622.987	57.69
623.321	57.79
623.655	57.75
623.988	57.71
624.322	57.73
624.656	57.79
624.99	57.87
625.323	58
625.657	58.07
625.99	58.19
626.324	58.27
626.657	58.36
626.991	58.33
627.324	58.39
627.658	58.41
627.991	58.45
628.324	58.44
628.657	58.35
628.991	58.39
629.324	58.51
629.657	58.54
629.99	58.55
630.323	58.64
630.656	58.64
630.989	58.72
631.322	58.77
631.655	58.89
631.987	58.9
632.32	58.84
632.653	58.76
632.986	58.68
633.318	58.64
633.651	58.58
633.984	58.61
634.316	58.6
634.649	58.67
634.981	58.77
635.313	58.7
635.646	58.85
635.978	58.84
636.31	58.85
636.643	58.87
636.975	58.8
637.307	58.65
637.639	58.64
637.971	58.58
638.303	58.61
638.635	58.44
638.967	58.4
639.299	58.5
639.631	58.6
639.963	58.68
640.295	58.84
640.626	58.87
640.958	58.94
641.29	58.88
641.621	58.77
641.953	58.81
642.285	58.88
642.616	58.75
642.948	58.72
643.279	58.8
643.61	58.74
643.942	58.75
644.273	58.8
644.604	58.89
644.936	58.96
645.267	58.98
645.598	58.99
645.929	59.15
646.26	59.01
646.591	59.07
646.922	59.17
647.253	58.95
647.584	59.01
647.915	59.13
648.245	59.21
648.576	59.18
648.907	59.09
649.238	59.13
649.568	59.34
649.899	59.38
650.229	59.32
650.56	59.58
650.89	59.73
651.221	59.83
651.551	59.77
651.882	59.7
652.212	59.71
652.542	59.98
652.872	60.01
653.203	60.14
653.533	60.03
653.863	59.92
654.193	60.1
654.523	60.13
654.853	60.07
655.183	60.09
655.513	60.24
655.843	60.21
656.172	60.34
656.502	60.22
656.832	60.22
657.162	60.36
657.491	60.25
657.821	60.16
658.15	60.2
658.48	60.36
658.809	60.33
659.139	60.38
659.468	60.34
659.798	60.28
660.127	60.32
660.456	60.37
660.785	60.51
661.115	60.51
661.444	60.55
661.773	60.55
662.102	60.56
662.431	60.48
662.76	60.49
663.089	60.43
663.418	60.45
663.747	60.51
664.076	60.4
664.404	60.46
664.733	60.55
665.062	60.68
665.39	60.65
665.719	60.7
666.048	60.59
666.376	60.52
666.705	60.54
667.033	60.53
667.362	60.53
667.69	60.57
668.018	60.53
668.347	60.56
668.675	60.6
669.003	60.58
669.331	60.66
669.659	60.75
669.987	60.81
670.315	60.89
670.643	60.9
670.971	60.96
671.299	60.92
671.627	61.11
671.955	61.01
672.283	60.99
672.61	61.07
672.938	61.3
673.266	61.36
673.593	61.32
673.921	61.35
674.249	61.42
674.576	61.24
674.904	61.35
675.231	61.37
675.558	61.44
675.886	61.57
676.213	61.6
676.54	61.63
676.867	61.46
677.195	61.37
677.522	61.3
677.849	61.32
678.176	61.29
678.503	61.13
678.83	61.06
679.157	61.11
679.484	61.22
679.81	61.37
680.137	61.36
680.464	61.42
680.791	61.45
681.117	61.42
681.444	61.56
681.771	61.55
682.097	61.4
682.424	61.26
682.75	61.16
683.077	61.19
683.403	61.27
683.729	61.42
684.056	61.45
684.382	61.51
684.708	61.54
685.034	61.69
685.36	61.69
685.686	61.66
686.012	61.64
686.339	61.55
686.664	61.49
686.99	61.48
687.316	61.53
687.642	61.45
687.968	61.59
688.294	61.55
688.619	61.55
688.945	61.69
689.271	61.94
689.596	62.15
689.922	62.08
690.247	61.98
690.573	62.04
690.898	62.16
691.224	62.32
691.549	62.3
691.874	62.07
692.2	62.01
692.525	62.23
692.85	62.18
693.175	62.31
693.5	62.16
693.825	62.13
694.15	62.27
694.475	62.34
694.8	62.44
695.125	62.35
695.45	62.51
695.775	62.53
696.099	62.5
696.424	62.46
696.749	62.64
697.073	62.57
697.398	62.39
697.723	62.43
698.047	62.24
698.372	62.26
698.696	62.21
699.02	62.31
699.345	62.31
699.669	62.26
699.993	62.12
700.318	62.29
700.642	62.49
700.966	62.34
701.29	62.31
701.614	62.17
701.938	62.13
702.262	61.95
702.586	61.92
702.91	61.79
703.234	61.62
703.557	61.48
703.881	61.68
704.205	61.82
704.529	61.74
704.852	61.75
705.176	61.86
705.499	62.08
705.823	61.89
706.146	61.8
706.47	62.03
706.793	62.03
707.117	61.63
707.44	61.4
707.763	61.31
708.086	61.28
708.409	61.36
708.733	61.5
709.056	61.57
709.379	61.64
709.702	61.71
710.025	61.9
710.348	62.16
710.671	62.06
710.993	61.93
711.316	61.95
711.639	62.04
711.962	61.81
712.284	61.74
712.607	61.96
712.93	62.03
713.252	62
713.575	62.06
713.897	62.32
714.22	62.42
714.542	62.62
714.864	62.46
715.187	62.25
715.509	62.34
715.831	62.34
716.153	62.31
716.475	62.21
716.798	62.13
717.12	61.94
717.442	62.05
717.764	62.1
718.085	61.97
718.407	62.01
718.729	62.31
719.051	62.29
719.373	62.06
719.695	61.92
720.016	62.13
720.338	62.32
720.659	62.43
720.981	62.46
721.302	62.29
721.624	62.39
721.945	62.6
722.267	62.37
722.588	62.38
722.909	62.61
723.231	62.74
723.552	62.71
723.873	62.79
724.194	62.72
724.515	62.92
724.836	63.11
725.157	62.83
725.478	62.72
725.799	62.67
726.12	62.86
726.441	63.05
726.762	62.81
727.083	62.9
727.403	62.53
727.724	62.63
728.045	62.74
728.365	62.94
728.686	63.03
729.006	63.22
729.327	63.41
729.647	63.43
729.967	63.53
730.288	63.73
730.608	63.58
730.928	63.55
731.249	63.58
731.569	63.44
731.889	63.55
732.209	63.49
732.529	63.94
732.849	63.81
733.169	63.84
733.489	63.79
733.809	63.52
734.129	63.69
734.448	63.47
734.768	63.5
735.088	63.41
735.408	63.53
735.727	63.79
736.047	63.72
736.366	63.55
736.686	63.46
737.005	63.61
737.325	63.54
737.644	63.69
737.963	63.75
738.283	63.84
738.602	64.2
738.921	64.34
739.24	63.89
739.56	64.06
739.879	63.84
740.198	63.9
740.517	63.87
740.836	63.89
741.155	64.29
741.473	64.2
741.792	64.29
742.111	63.82
742.43	63.77
742.748	63.73
743.067	63.84
743.386	63.92
743.704	63.75
744.023	64.11
744.341	64.37
744.66	64.06
744.978	64.06
745.297	64.01
745.615	64.07
745.933	64.11
746.252	64.4
746.57	64.44
746.888	64.67
747.206	65.07
747.524	64.69
747.842	64
748.16	64.19
748.478	64.23
748.796	64.5
749.114	64.32
749.432	64.17
749.749	64.39
750.067	64.19
750.385	64.36
750.703	64.32
751.02	64.29
751.338	64.19
751.655	64.51
751.973	64.57
752.29	64.51
752.608	64.42
752.925	64.54
753.242	64.46
753.56	63.83
753.877	63.1
754.194	63.64
754.511	63.67
754.828	63.72
755.145	63.27
755.462	63.3
755.779	63.4
756.096	63.88
756.413	63.56
756.73	63.69
757.047	63.43
757.364	63.53
757.68	63.33
757.997	64.08
758.314	63.8
758.63	63.5
758.947	63.37
759.264	63.75
759.58	63.89
759.896	64.42
760.213	64.87
760.529	65.22
760.846	65.35
761.162	65.65
761.478	65.45
761.794	65.86
762.11	66
762.426	66.02
762.743	65.78
763.059	65.76
763.375	65.83
763.69	65.87
764.006	66.06
764.322	66.23
764.638	66.17
764.954	65.89
765.27	66.15
765.585	66.52
765.901	66.4
766.216	66.2
766.532	65.98
766.848	65.83
767.163	65.91
767.478	66.09
767.794	65.92
768.109	66.13
768.424	66.21
768.74	65.73
769.055	66
769.37	65.8
769.685	66.03
770	65.83
770.315	65.53
770.63	64.89
770.945	64.75
771.26	64.27
771.575	64.91
771.89	64.79
772.205	64.28
772.52	64.61
772.834	64.88
773.149	64.86
773.464	65.08
773.778	65.19
774.093	64.77
774.407	65.22
774.722	64.97
775.036	64.84
775.351	65.61
775.665	64.97
775.979	65.5
776.293	65.48
776.608	65.51
776.922	66.08
777.236	66.44
777.55	65.93
777.864	66.17
778.178	66.11
778.492	66.11
778.806	65.81
779.12	65.45
779.434	65.2
779.747	65.51
780.061	65.39
780.375	65.81
780.689	66.34
781.002	65.77
781.316	66.07
781.629	66.75
781.943	66.19
782.256	66.06
782.57	65.91
782.883	65.97
783.196	65.88
783.51	65.71
783.823	65.67
784.136	66.17
784.449	65.92
784.762	65.49
785.075	65.69
785.388	66.14
785.701	65.96
786.014	66.19
786.327	66.03
786.64	65.79
786.953	65.61
787.266	65.13
787.578	65.35
787.891	65.76
788.204	65.01
788.516	65.12
788.829	64.93
789.141	64.88
789.454	64.51
789.766	64.73
790.079	64.68
790.391	64.63
790.703	65.02
791.016	64.84
791.328	65.28
791.64	65.44
791.952	65.49
792.264	65.28
792.576	64.7
792.888	65.1
793.2	65.71
793.512	65.29
793.824	65.85
794.136	65.73
794.448	65.53
794.76	65.89
795.071	65.96
795.383	66.43
795.695	66.43
796.006	66.73
796.318	66.85
796.629	66.26
796.941	66.17
797.252	65.45
797.564	66.1
797.875	65.83
798.186	64.86
798.497	64.84
798.809	65
799.12	65.14
799.431	64.84
799.742	64.66
800.053	64.78
800.364	64.81
800.675	64.86
800.986	64.34
801.297	64.27
801.608	64.45
801.918	64.28
802.229	64.11
802.54	64.08
802.851	62.7
803.161	63.11
803.472	63.48
803.782	64.08
804.093	62.78
804.403	63.79
804.714	64.84
805.024	64.74
805.334	65.25
805.645	64.96
805.955	64.53
806.265	64.8
806.575	65.29
806.885	64.7
807.195	65.39
807.505	65.23
807.815	65.53
808.125	65.63
808.435	66.32
808.745	66.24
809.055	66.54
809.365	68.79
809.674	69.03
809.984	68.9
810.294	68.3
810.603	69.18
810.913	68.1
811.222	68.41
811.532	68.82
811.841	68.65
812.151	69.39
812.46	68.97
812.769	69.36
813.079	69.23
813.388	69.47
813.697	69
814.006	69.55
814.315	68.46
814.624	68.68
814.933	68.44
815.242	69.33
815.551	69.29
815.86	67.86
816.169	66.5
816.478	66.51
816.786	66.2
817.095	67.12
817.404	67.61
817.712	66.16
818.021	65.83
818.33	65.71
818.638	65.37
818.947	66.01
819.255	65.07
819.563	65.6
819.872	65.02
820.18	65.44
820.488	65.3
820.796	65.57
821.105	65.53
821.413	65.42
821.721	65.61
822.029	65.5
822.337	65.98
822.645	66.25
822.953	66.27
823.26	66.4
823.568	66.25
823.876	66.3
824.184	66.6
824.491	66.62
824.799	66.83
825.107	66.79
825.414	66.71
825.722	66.98
826.029	66.74
826.337	67.01
826.644	66.85
826.951	66.97
827.259	67.09
827.566	67.21
827.873	67.56
828.18	67.66
828.488	67.94
828.795	67.53
829.102	67.93
829.409	67.89
829.716	67.99
830.023	67.83
830.329	67.76
830.636	67.57
830.943	67.86
831.25	67.63
831.557	67.81
831.863	67.88
832.17	67.94
832.476	67.94
832.783	68.01
833.089	68.59
833.396	69.12
833.702	69.36
834.009	69.45
834.315	69.18
834.621	69.03
834.928	69.11
835.234	69.64
835.54	69.39
835.846	69.46
836.152	69.59
836.458	69.79
836.764	69.51
837.07	68.95
837.376	68.45
837.682	67.83
837.988	68.62
838.293	68.97
838.599	69.36
838.905	70.17
839.211	70.19
839.516	70.37
839.822	69.71
840.127	69.89
840.433	70.35
840.738	69.72
841.044	68.73
841.349	68.29
841.654	67.47
841.959	66.53
842.265	67.61
842.57	67.65
842.875	67.34
843.18	68.27
843.485	69.07
843.79	68.78
844.095	69.3
844.4	68.56
844.705	69.51
845.01	68.87
845.315	68.2
845.619	67.64
845.924	67.58
846.229	67.65
846.533	65.7
846.838	64.26
847.142	65.44
847.447	65.76
847.751	65.31
848.056	65.25
848.36	66.79
848.664	67.64
848.969	67.95
849.273	68.79
849.577	68.99
849.881	68.35
850.185	70.42
850.489	74.47
850.794	73.85
851.097	73.31
851.401	73.35
851.705	72.93
852.009	74.52
852.313	72.37
852.617	73.69
852.92	73.76
853.224	74.62
853.528	71.63
853.831	70.31
854.135	70.8
854.438	72.54
854.742	73.99
855.045	73
855.349	70.22
855.652	72.13
855.955	73.9
856.259	76.47
856.562	76.54
856.865	74.62
857.168	72.6
857.471	68.88
857.774	68.06
858.077	67.08
858.38	66.69
858.683	67.32
858.986	66.39
859.289	67.09
859.592	68.21
859.894	68.6
860.197	71.93
860.5	73.07
860.802	72.38
861.105	70.92
861.407	67.93
861.71	67.14
862.012	66.42
862.315	61.37
862.617	60.19
862.919	60.09
863.222	59.14
863.524	59.95
863.826	61.7
864.128	61.46
864.43	62.83
864.732	63.88
865.034	63.34
865.336	63.42
865.638	63.67
865.94	62.87
866.242	64.35
866.544	61.05
866.846	60.53
867.147	61.11
867.449	62.01
867.751	62.24
868.052	63.57
868.354	62.93
868.655	64.45
868.957	63.95
869.258	66.53
869.56	68.44
869.861	71.44
870.162	70.67
870.463	73.66
870.765	70.96
871.066	66.64
871.367	64.41
871.668	66.06
871.969	65.63
872.27	63.58
872.571	64.72
872.872	65.95
873.173	62.99
873.473	62.2
873.774	60.26
874.075	63.58
874.376	64.1
874.676	67.64
874.977	71.21
875.277	73.61
875.578	69.38
875.878	67.57
876.179	65.13
876.479	66.38
876.78	63.76
877.08	65.93
877.38	70.38
877.68	73.9
877.981	71.07
878.281	71.65
878.581	74.02
