Data from MVZ_BU163026_Reflection_00012.txt Node
Date: Tue Nov 19 12:06:10 EST 2019
User: vgr7
Spectrometer: USB2G7710
Scans to average: 3
Trigger mode: 4
Integration Time (sec): 2.000000E-2
Electric dark correction enabled: true
Boxcar width: 10
XAxis mode: Wavelengths
Number of Pixels in Spectrum: 2048
>>>>>Begin Spectral Data<<<<<
177.721	31.33
178.105	-143.24
178.488	-33.11
178.871	-29.85
179.254	-20
179.636	14.05
180.019	46.17
180.402	350
180.785	809.09
181.168	-94.2
181.55	-3.45
181.933	437.08
182.316	49.26
182.698	55.29
183.081	69.89
183.463	49.46
183.846	50.7
184.228	57.1
184.611	38.96
184.993	21.14
185.376	35.74
185.758	24.37
186.14	38.72
186.522	42.05
186.904	45.45
187.287	63.94
187.669	55.46
188.051	43.02
188.433	37.68
188.815	45.42
189.197	47.55
189.579	37.72
189.961	23.34
190.342	33.1
190.724	52.48
191.106	31.18
191.488	33.91
191.869	17.21
192.251	25.4
192.633	41.89
193.014	82.71
193.396	94.89
193.777	46.14
194.159	77.7
194.54	216.88
194.922	-847.37
195.303	-116
195.684	23.86
196.065	129.56
196.447	-216.58
196.828	5554.55
197.209	524.78
197.59	1709.76
197.971	1568.09
198.352	391.83
198.733	270.57
199.114	543.35
199.495	259.15
199.876	317.92
200.257	168.07
200.638	271.25
201.018	354.36
201.399	1658.44
201.78	2254.93
202.16	338.83
202.541	243.07
202.922	238.6
203.302	244.95
203.683	207.28
204.063	135.29
204.444	127.31
204.824	128.24
205.204	1345.28
205.585	1197.56
205.965	353.52
206.345	2.83
206.725	13.53
207.106	100
207.486	57.84
207.866	118.49
208.246	83.62
208.626	87.32
209.006	113.78
209.386	124.97
209.766	174.16
210.145	134.26
210.525	179.52
210.905	208.06
211.285	116.93
211.664	96.14
212.044	92.31
212.424	80.58
212.803	85.18
213.183	110.57
213.562	107.73
213.942	83.41
214.321	81.42
214.701	94.48
215.08	63.23
215.459	72.11
215.838	47.5
216.218	26.62
216.597	35.88
216.976	75.24
217.355	79.75
217.734	58.58
218.113	68.54
218.492	61.56
218.871	53.85
219.25	55.54
219.629	45
220.008	43.26
220.387	56.97
220.766	64.01
221.144	53.81
221.523	48.31
221.902	53.89
222.28	57.71
222.659	56.05
223.037	54.57
223.416	55.62
223.794	44.15
224.173	47.32
224.551	39.52
224.929	26.33
225.308	22.91
225.686	24.57
226.064	17.55
226.442	16.47
226.821	9.36
227.199	13.49
227.577	15.02
227.955	12.43
228.333	8.29
228.711	6.03
229.089	7.45
229.467	9.83
229.845	10.03
230.222	14.6
230.6	13.64
230.978	12.32
231.356	12.83
231.733	14.28
232.111	12.97
232.488	13.18
232.866	14.51
233.243	15.81
233.621	15.39
233.998	13.4
234.376	12.94
234.753	13.51
235.13	11.81
235.508	11.82
235.885	11.94
236.262	12.11
236.639	11.52
237.016	10.67
237.393	10
237.77	10.23
238.147	8.55
238.524	8.14
238.901	7.22
239.278	5.49
239.655	5.62
240.032	5.44
240.409	5.68
240.785	5.12
241.162	4.28
241.539	4.14
241.915	4.32
242.292	4.79
242.668	5.05
243.045	5.14
243.421	5.22
243.798	4.9
244.174	4.88
244.551	4.95
244.927	4.91
245.303	4.2
245.679	4.12
246.056	3.88
246.432	3.92
246.808	4.47
247.184	4.59
247.56	4.52
247.936	4.82
248.312	5.06
248.688	5.23
249.064	5.21
249.44	5.1
249.815	5.16
250.191	4.98
250.567	4.72
250.943	4.58
251.318	4.33
251.694	3.88
252.069	3.83
252.445	3.79
252.82	4.18
253.196	4.25
253.571	4.14
253.947	4.09
254.322	4.21
254.697	4.11
255.073	3.95
255.448	4
255.823	3.74
256.198	3.26
256.573	3.1
256.948	3.04
257.323	3.29
257.698	3.29
258.073	3.33
258.448	3.33
258.823	3.45
259.198	3.58
259.573	3.81
259.948	4
260.322	3.77
260.697	3.61
261.072	3.94
261.446	3.89
261.821	3.94
262.195	3.74
262.57	3.82
262.944	4
263.319	3.97
263.693	3.89
264.067	3.98
264.442	3.88
264.816	3.86
265.19	3.78
265.564	3.68
265.938	3.68
266.313	3.88
266.687	3.74
267.061	3.47
267.435	3.43
267.809	3.07
268.183	3.31
268.556	3.09
268.93	2.98
269.304	2.88
269.678	2.93
270.051	3.04
270.425	2.87
270.799	2.43
271.172	2.52
271.546	2.67
271.919	2.5
272.293	2.51
272.666	2.64
273.04	2.64
273.413	2.73
273.787	2.78
274.16	2.54
274.533	2.58
274.906	2.85
275.279	2.93
275.653	3.17
276.026	3.03
276.399	2.97
276.772	3.01
277.145	2.92
277.518	2.79
277.891	2.66
278.263	2.63
278.636	3.09
279.009	2.95
279.382	2.66
279.755	2.85
280.127	2.91
280.5	2.66
280.872	2.67
281.245	2.67
281.617	2.52
281.99	2.62
282.362	2.72
282.735	2.5
283.107	2.41
283.479	2.15
283.852	2.2
284.224	2.38
284.596	2.26
284.968	2.41
285.34	2.42
285.713	2.44
286.085	2.47
286.457	2.43
286.829	2.48
287.201	2.65
287.572	2.67
287.944	2.68
288.316	2.79
288.688	2.88
289.06	2.9
289.431	3.01
289.803	3.11
290.175	3.02
290.546	3.09
290.918	3.28
291.289	3.45
291.661	3.64
292.032	3.69
292.403	3.72
292.775	3.75
293.146	3.79
293.517	3.92
293.889	4.02
294.26	3.99
294.631	3.99
295.002	4.06
295.373	4.02
295.744	4.06
296.115	4.04
296.486	4.03
296.857	3.97
297.228	3.87
297.599	3.75
297.97	3.75
298.34	3.69
298.711	3.55
299.082	3.62
299.452	3.46
299.823	3.48
300.194	3.55
300.564	3.62
300.935	3.77
301.305	3.72
301.676	3.57
302.046	3.54
302.416	3.55
302.787	3.45
303.157	3.48
303.527	3.55
303.897	3.59
304.267	3.64
304.637	3.66
305.008	3.83
305.378	3.94
305.748	4.12
306.117	4.23
306.487	4.36
306.857	4.43
307.227	4.56
307.597	4.53
307.967	4.52
308.336	4.38
308.706	4.24
309.076	4.32
309.445	4.44
309.815	4.45
310.184	4.36
310.554	4.47
310.923	4.44
311.293	4.41
311.662	4.48
312.031	4.54
312.401	4.63
312.77	4.56
313.139	4.48
313.508	4.41
313.877	4.4
314.246	4.42
314.616	4.34
314.985	4.35
315.353	4.4
315.722	4.45
316.091	4.69
316.46	4.72
316.829	4.62
317.198	4.53
317.567	4.57
317.935	4.66
318.304	4.78
318.672	4.9
319.041	5
319.41	5.02
319.778	4.93
320.147	4.93
320.515	4.88
320.883	4.95
321.252	5.07
321.62	5.21
321.988	5.28
322.357	5.31
322.725	5.2
323.093	5.2
323.461	5.23
323.829	5.11
324.197	5.21
324.565	5.34
324.933	5.48
325.301	5.49
325.669	5.54
326.037	5.36
326.405	5.31
326.772	5.35
327.14	5.38
327.508	5.46
327.875	5.49
328.243	5.55
328.61	5.64
328.978	5.4
329.346	5.41
329.713	5.37
330.08	5.42
330.448	5.5
330.815	5.44
331.182	5.35
331.55	5.48
331.917	5.39
332.284	5.36
332.651	5.34
333.018	5.32
333.385	5.37
333.752	5.51
334.119	5.53
334.486	5.47
334.853	5.52
335.22	5.47
335.587	5.51
335.954	5.51
336.32	5.42
336.687	5.66
337.054	5.6
337.42	5.63
337.787	5.52
338.153	5.56
338.52	5.87
338.886	5.96
339.253	5.87
339.619	6.05
339.986	5.96
340.352	6.1
340.718	6.22
341.084	6.15
341.451	6.22
341.817	6.29
342.183	6.32
342.549	6.3
342.915	6.32
343.281	6.29
343.647	6.47
344.013	6.51
344.379	6.53
344.745	6.63
345.11	6.59
345.476	6.77
345.842	6.76
346.208	6.5
346.573	6.54
346.939	6.62
347.304	6.69
347.67	6.84
348.035	6.7
348.401	6.71
348.766	6.76
349.132	6.73
349.497	6.69
349.862	6.65
350.228	6.72
350.593	6.67
350.958	6.69
351.323	6.53
351.688	6.6
352.053	6.64
352.418	6.52
352.783	6.63
353.148	6.53
353.513	6.47
353.878	6.51
354.243	6.47
354.608	6.49
354.972	6.36
355.337	6.4
355.702	6.38
356.066	6.26
356.431	6.28
356.795	6.27
357.16	6.31
357.524	6.36
357.889	6.23
358.253	6.27
358.618	6.23
358.982	6.22
359.346	6.15
359.71	6.07
360.075	6.1
360.439	6.05
360.803	6.11
361.167	6.06
361.531	6.13
361.895	6.04
362.259	6.03
362.623	6.03
362.987	5.96
363.351	5.94
363.714	5.99
364.078	5.99
364.442	6
364.806	6.02
365.169	5.94
365.533	6.06
365.896	6.11
366.26	6.14
366.623	6.11
366.987	6.15
367.35	6.23
367.714	6.2
368.077	6.14
368.44	6.07
368.803	6.15
369.167	6.09
369.53	6.16
369.893	6.14
370.256	6.06
370.619	5.97
370.982	6
371.345	5.92
371.708	5.88
372.071	5.73
372.434	5.61
372.797	5.6
373.159	5.52
373.522	5.37
373.885	5.37
374.247	5.38
374.61	5.28
374.973	5.2
375.335	5.17
375.698	5.13
376.06	5.09
376.423	4.99
376.785	5.06
377.147	4.96
377.51	4.85
377.872	4.89
378.234	4.9
378.596	4.88
378.958	4.91
379.321	4.82
379.683	4.91
380.045	4.83
380.407	4.84
380.769	4.77
381.13	4.82
381.492	4.79
381.854	4.81
382.216	4.86
382.578	4.85
382.939	4.84
383.301	4.81
383.663	4.8
384.024	4.82
384.386	4.76
384.747	4.79
385.109	4.8
385.47	4.71
385.832	4.65
386.193	4.63
386.554	4.53
386.916	4.55
387.277	4.44
387.638	4.48
387.999	4.47
388.36	4.47
388.721	4.41
389.082	4.38
389.443	4.3
389.804	4.29
390.165	4.23
390.526	4.21
390.887	4.17
391.248	4.13
391.609	4.1
391.969	4.02
392.33	3.97
392.691	3.94
393.051	3.96
393.412	3.97
393.772	3.96
394.133	3.96
394.493	3.93
394.854	3.93
395.214	3.88
395.574	3.82
395.935	3.79
396.295	3.77
396.655	3.71
397.015	3.72
397.376	3.68
397.736	3.7
398.096	3.68
398.456	3.7
398.816	3.7
399.176	3.66
399.535	3.71
399.895	3.73
400.255	3.73
400.615	3.69
400.975	3.67
401.334	3.62
401.694	3.6
402.054	3.59
402.413	3.58
402.773	3.59
403.132	3.57
403.492	3.59
403.851	3.57
404.211	3.56
404.57	3.55
404.929	3.49
405.288	3.44
405.648	3.4
406.007	3.39
406.366	3.38
406.725	3.37
407.084	3.32
407.443	3.3
407.802	3.31
408.161	3.33
408.52	3.31
408.879	3.31
409.238	3.31
409.596	3.32
409.955	3.33
410.314	3.31
410.673	3.32
411.031	3.28
411.39	3.28
411.748	3.29
412.107	3.27
412.465	3.22
412.824	3.23
413.182	3.23
413.54	3.2
413.899	3.18
414.257	3.2
414.615	3.21
414.974	3.21
415.332	3.16
415.69	3.13
416.048	3.13
416.406	3.1
416.764	3.09
417.122	3.06
417.48	3.05
417.838	3.05
418.195	3.04
418.553	3.02
418.911	3.02
419.269	3.01
419.626	3.02
419.984	3.06
420.342	3.06
420.699	3.05
421.057	3.04
421.414	3.03
421.772	3
422.129	2.98
422.486	2.97
422.844	2.97
423.201	2.96
423.558	2.95
423.915	2.96
424.273	2.96
424.63	2.97
424.987	2.96
425.344	2.95
425.701	2.94
426.058	2.95
426.415	2.94
426.772	2.94
427.128	2.9
427.485	2.89
427.842	2.9
428.199	2.91
428.555	2.91
428.912	2.89
429.269	2.9
429.625	2.9
429.982	2.9
430.338	2.92
430.695	2.94
431.051	2.94
431.407	2.92
431.764	2.94
432.12	2.93
432.476	2.93
432.832	2.94
433.189	2.94
433.545	2.93
433.901	2.94
434.257	2.94
434.613	2.96
434.969	2.97
435.325	2.95
435.681	2.96
436.036	2.96
436.392	2.97
436.748	2.97
437.104	2.96
437.459	2.94
437.815	2.94
438.171	2.94
438.526	2.96
438.882	2.97
439.237	2.95
439.593	2.95
439.948	2.95
440.304	2.95
440.659	2.96
441.014	2.95
441.369	2.95
441.725	2.94
442.08	2.94
442.435	2.93
442.79	2.91
443.145	2.9
443.5	2.9
443.855	2.9
444.21	2.9
444.565	2.91
444.92	2.93
445.275	2.93
445.629	2.93
445.984	2.91
446.339	2.9
446.693	2.92
447.048	2.91
447.403	2.9
447.757	2.9
448.112	2.89
448.466	2.9
448.82	2.9
449.175	2.91
449.529	2.92
449.883	2.92
450.238	2.94
450.592	2.95
450.946	2.93
451.3	2.94
451.654	2.91
452.008	2.91
452.362	2.89
452.716	2.85
453.07	2.84
453.424	2.85
453.778	2.85
454.132	2.82
454.486	2.84
454.839	2.85
455.193	2.83
455.547	2.85
455.9	2.84
456.254	2.84
456.607	2.83
456.961	2.81
457.314	2.79
457.668	2.78
458.021	2.77
458.375	2.79
458.728	2.79
459.081	2.82
459.434	2.81
459.787	2.82
460.141	2.84
460.494	2.84
460.847	2.85
461.2	2.87
461.553	2.88
461.906	2.9
462.259	2.89
462.611	2.91
462.964	2.91
463.317	2.92
463.67	2.93
464.022	2.94
464.375	2.95
464.728	2.99
465.08	3
465.433	3.01
465.785	3.01
466.138	3.02
466.49	3.02
466.843	3.04
467.195	3.07
467.547	3.07
467.899	3.07
468.252	3.05
468.604	3.06
468.956	3.06
469.308	3.04
469.66	3.05
470.012	3.04
470.364	3.06
470.716	3.07
471.068	3.09
471.42	3.09
471.772	3.1
472.123	3.09
472.475	3.09
472.827	3.09
473.178	3.08
473.53	3.1
473.882	3.12
474.233	3.14
474.585	3.13
474.936	3.13
475.288	3.15
475.639	3.17
475.99	3.17
476.342	3.16
476.693	3.16
477.044	3.14
477.395	3.14
477.746	3.12
478.097	3.09
478.448	3.08
478.8	3.06
479.15	3.04
479.501	3.04
479.852	3.05
480.203	3.04
480.554	3.05
480.905	3.04
481.255	3.02
481.606	3
481.957	3.01
482.307	3
482.658	3.01
483.009	3
483.359	3
483.709	3
484.06	3
484.41	2.99
484.761	3
485.111	3.01
485.461	3.01
485.811	3.02
486.162	3.03
486.512	3.04
486.862	3.04
487.212	3.04
487.562	3.04
487.912	3.06
488.262	3.05
488.612	3.06
488.961	3.06
489.311	3.07
489.661	3.08
490.011	3.06
490.36	3.07
490.71	3.07
491.06	3.08
491.409	3.09
491.759	3.1
492.108	3.09
492.458	3.1
492.807	3.11
493.157	3.12
493.506	3.12
493.855	3.13
494.204	3.13
494.554	3.14
494.903	3.15
495.252	3.14
495.601	3.15
495.95	3.17
496.299	3.2
496.648	3.2
496.997	3.23
497.346	3.26
497.695	3.27
498.043	3.31
498.392	3.34
498.741	3.37
499.09	3.42
499.438	3.45
499.787	3.47
500.135	3.49
500.484	3.5
500.832	3.51
501.181	3.55
501.529	3.62
501.878	3.7
502.226	3.74
502.574	3.79
502.923	3.84
503.271	3.88
503.619	3.94
503.967	3.99
504.315	4.04
504.663	4.11
505.011	4.18
505.359	4.21
505.707	4.26
506.055	4.31
506.403	4.36
506.751	4.45
507.098	4.53
507.446	4.63
507.794	4.7
508.141	4.8
508.489	4.87
508.837	4.92
509.184	4.96
509.531	5.05
509.879	5.11
510.226	5.2
510.574	5.29
510.921	5.34
511.268	5.45
511.616	5.53
511.963	5.61
512.31	5.72
512.657	5.81
513.004	5.9
513.351	6
513.698	6.11
514.045	6.21
514.392	6.3
514.739	6.39
515.086	6.51
515.432	6.61
515.779	6.72
516.126	6.84
516.473	6.95
516.819	7.07
517.166	7.17
517.512	7.25
517.859	7.35
518.205	7.42
518.552	7.52
518.898	7.59
519.245	7.68
519.591	7.77
519.937	7.86
520.283	7.95
520.629	8.04
520.976	8.15
521.322	8.25
521.668	8.35
522.014	8.46
522.36	8.56
522.706	8.68
523.052	8.82
523.398	8.92
523.743	9.05
524.089	9.18
524.435	9.28
524.781	9.41
525.126	9.53
525.472	9.66
525.817	9.75
526.163	9.86
526.509	9.94
526.854	10.03
527.199	10.1
527.545	10.19
527.89	10.27
528.235	10.36
528.581	10.46
528.926	10.56
529.271	10.66
529.616	10.77
529.961	10.86
530.306	10.95
530.651	11.05
530.996	11.15
531.341	11.28
531.686	11.42
532.031	11.54
532.376	11.68
532.721	11.82
533.065	11.95
533.41	12.09
533.755	12.24
534.099	12.39
534.444	12.55
534.788	12.68
535.133	12.86
535.477	13.03
535.822	13.2
536.166	13.41
536.51	13.61
536.855	13.8
537.199	14.04
537.543	14.27
537.887	14.5
538.231	14.74
538.576	14.96
538.92	15.19
539.264	15.41
539.608	15.61
539.951	15.79
540.295	15.99
540.639	16.17
540.983	16.37
541.327	16.58
541.671	16.79
542.014	17.01
542.358	17.2
542.701	17.39
543.045	17.55
543.389	17.73
543.732	17.91
544.075	18.13
544.419	18.32
544.762	18.52
545.105	18.77
545.449	19.01
545.792	19.27
546.135	19.55
546.478	19.83
546.821	20.12
547.165	20.44
547.508	20.77
547.851	21.08
548.194	21.42
548.536	21.71
548.879	22.05
549.222	22.37
549.565	22.65
549.908	22.94
550.25	23.3
550.593	23.59
550.936	23.92
551.278	24.25
551.621	24.57
551.963	24.94
552.306	25.29
552.648	25.62
552.991	25.95
553.333	26.19
553.675	26.49
554.017	26.82
554.36	27.16
554.702	27.43
555.044	27.74
555.386	27.98
555.728	28.26
556.07	28.52
556.412	28.81
556.754	29.12
557.096	29.47
557.438	29.76
557.78	30.14
558.121	30.47
558.463	30.79
558.805	31.15
559.147	31.44
559.488	31.73
559.83	32.03
560.171	32.3
560.513	32.6
560.854	32.9
561.196	33.2
561.537	33.49
561.878	33.81
562.22	34.15
562.561	34.42
562.902	34.79
563.243	35.07
563.584	35.4
563.925	35.68
564.266	35.89
564.607	36.16
564.948	36.34
565.289	36.58
565.63	36.79
565.971	37
566.312	37.19
566.653	37.41
566.993	37.63
567.334	37.89
567.675	38.16
568.015	38.39
568.356	38.57
568.696	38.74
569.037	38.92
569.377	39.1
569.718	39.31
570.058	39.45
570.398	39.66
570.739	39.83
571.079	40.03
571.419	40.22
571.759	40.39
572.099	40.64
572.439	40.82
572.779	41.04
573.119	41.17
573.459	41.36
573.799	41.5
574.139	41.63
574.479	41.81
574.819	41.93
575.158	42.08
575.498	42.25
575.838	42.42
576.177	42.56
576.517	42.72
576.856	42.91
577.196	43.1
577.535	43.23
577.875	43.33
578.214	43.48
578.553	43.7
578.893	43.88
579.232	44.04
579.571	44.21
579.91	44.35
580.25	44.54
580.589	44.73
580.928	44.86
581.267	45
581.606	45.12
581.945	45.2
582.283	45.3
582.622	45.43
582.961	45.61
583.3	45.74
583.639	45.88
583.977	45.98
584.316	46.11
584.654	46.26
584.993	46.46
585.332	46.65
585.67	46.77
586.008	46.87
586.347	46.97
586.685	47.05
587.024	47.06
587.362	47.12
587.7	47.22
588.038	47.43
588.376	47.64
588.715	47.71
589.053	47.89
589.391	48.02
589.729	48.1
590.067	48.18
590.404	48.27
590.742	48.4
591.08	48.56
591.418	48.72
591.756	48.75
592.093	48.83
592.431	48.92
592.769	49.01
593.106	49.09
593.444	49.23
593.781	49.36
594.119	49.5
594.456	49.68
594.793	49.72
595.131	49.8
595.468	49.8
595.805	49.92
596.143	49.95
596.48	50
596.817	50.18
597.154	50.21
597.491	50.33
597.828	50.43
598.165	50.45
598.502	50.47
598.839	50.56
599.176	50.61
599.512	50.69
599.849	50.82
600.186	50.93
600.523	50.86
600.859	50.94
601.196	51.03
601.532	51.09
601.869	51.21
602.205	51.24
602.542	51.36
602.878	51.4
603.215	51.42
603.551	51.5
603.887	51.46
604.223	51.53
604.56	51.5
604.896	51.54
605.232	51.59
605.568	51.55
605.904	51.64
606.24	51.69
606.576	51.74
606.912	51.74
607.248	51.77
607.583	51.92
607.919	51.97
608.255	51.98
608.591	52.01
608.926	51.97
609.262	51.99
609.597	51.97
609.933	52.07
610.268	52.23
610.604	52.25
610.939	52.32
611.275	52.42
611.61	52.51
611.945	52.52
612.281	52.66
612.616	52.83
612.951	52.84
613.286	52.94
613.621	52.95
613.956	52.94
614.291	53.04
614.626	53.07
614.961	53.13
615.296	53.27
615.631	53.34
615.966	53.46
616.3	53.45
616.635	53.51
616.97	53.47
617.304	53.46
617.639	53.44
617.973	53.5
618.308	53.43
618.642	53.48
618.977	53.46
619.311	53.35
619.646	53.42
619.98	53.44
620.314	53.39
620.648	53.42
620.983	53.51
621.317	53.46
621.651	53.5
621.985	53.52
622.319	53.42
622.653	53.35
622.987	53.31
623.321	53.45
623.655	53.55
623.988	53.51
624.322	53.56
624.656	53.76
624.99	53.76
625.323	53.78
625.657	53.75
625.99	53.8
626.324	53.87
626.657	53.84
626.991	53.95
627.324	53.95
627.658	53.99
627.991	53.88
628.324	53.95
628.657	53.93
628.991	53.97
629.324	54.07
629.657	54.08
629.99	54.15
630.323	54.16
630.656	54.14
630.989	54.26
631.322	54.24
631.655	54.17
631.987	54.19
632.32	54.21
632.653	54.32
632.986	54.37
633.318	54.46
633.651	54.51
633.984	54.46
634.316	54.48
634.649	54.47
634.981	54.58
635.313	54.54
635.646	54.56
635.978	54.55
636.31	54.51
636.643	54.58
636.975	54.61
637.307	54.5
637.639	54.5
637.971	54.54
638.303	54.56
638.635	54.56
638.967	54.53
639.299	54.58
639.631	54.55
639.963	54.4
640.295	54.32
640.626	54.31
640.958	54.39
641.29	54.6
641.621	54.63
641.953	54.7
642.285	54.8
642.616	54.87
642.948	54.91
643.279	55.02
643.61	55.13
643.942	55.1
644.273	55.29
644.604	55.24
644.936	55.25
645.267	55.27
645.598	55.31
645.929	55.25
646.26	55.26
646.591	55.35
646.922	55.56
647.253	55.51
647.584	55.5
647.915	55.52
648.245	55.45
648.576	55.45
648.907	55.39
649.238	55.43
649.568	55.45
649.899	55.51
650.229	55.56
650.56	55.47
650.89	55.64
651.221	55.62
651.551	55.79
651.882	55.86
652.212	55.98
652.542	56.02
652.872	56
653.203	56.13
653.533	56.09
653.863	56.15
654.193	56.23
654.523	56.41
654.853	56.49
655.183	56.52
655.513	56.52
655.843	56.69
656.172	56.74
656.502	56.7
656.832	56.52
657.162	56.37
657.491	56.43
657.821	56.39
658.15	56.37
658.48	56.31
658.809	56.27
659.139	56.24
659.468	56.19
659.798	56.32
660.127	56.23
660.456	56.25
660.785	56.1
661.115	56.07
661.444	56.03
661.773	55.98
662.102	55.92
662.431	55.9
662.76	55.76
663.089	55.66
663.418	55.62
663.747	55.77
664.076	55.94
664.404	56.02
664.733	56.09
665.062	56.08
665.39	56.15
665.719	56.12
666.048	56.08
666.376	56.15
666.705	56.19
667.033	56.15
667.362	56.18
667.69	56.25
668.018	56.31
668.347	56.2
668.675	56.14
669.003	56.14
669.331	56.18
669.659	56.29
669.987	56.3
670.315	56.3
670.643	56.24
670.971	56.24
671.299	56.14
671.627	55.96
671.955	55.96
672.283	55.87
672.61	55.96
672.938	55.98
673.266	55.94
673.593	55.96
673.921	55.97
674.249	55.88
674.576	55.86
674.904	55.94
675.231	55.92
675.558	56.05
675.886	56.25
676.213	56.21
676.54	56.3
676.867	56.28
677.195	56.35
677.522	56.4
677.849	56.36
678.176	56.38
678.503	56.56
678.83	56.59
679.157	56.67
679.484	56.71
679.81	56.85
680.137	57.01
680.464	57.12
680.791	57.26
681.117	57.29
681.444	57.27
681.771	57.3
682.097	57.58
682.424	57.47
682.75	57.36
683.077	57.6
683.403	57.38
683.729	57.41
684.056	57.6
684.382	57.48
684.708	57.63
685.034	57.76
685.36	57.7
685.686	57.77
686.012	57.72
686.339	57.63
686.664	57.52
686.99	57.33
687.316	57.15
687.642	57.08
687.968	57.2
688.294	57.35
688.619	57.38
688.945	57.16
689.271	57.04
689.596	56.95
689.922	56.86
690.247	57
690.573	57.12
690.898	57.06
691.224	57.17
691.549	56.95
691.874	56.91
692.2	57.04
692.525	57.09
692.85	57.32
693.175	57.53
693.5	57.4
693.825	57.51
694.15	57.73
694.475	57.74
694.8	57.66
695.125	57.56
695.45	57.49
695.775	57.65
696.099	57.89
696.424	57.99
696.749	58.03
697.073	58.18
697.398	58.17
697.723	58.12
698.047	58.21
698.372	58.42
698.696	58.43
699.02	58.43
699.345	58.44
699.669	58.14
699.993	58.16
700.318	58.43
700.642	58.45
700.966	58.39
701.29	58.48
701.614	58.55
701.938	58.77
702.262	58.73
702.586	58.7
702.91	58.72
703.234	58.7
703.557	58.62
703.881	58.38
704.205	58.37
704.529	58.22
704.852	58.13
705.176	58
705.499	57.9
705.823	57.91
706.146	57.81
706.47	58.14
706.793	58.09
707.117	57.91
707.44	57.97
707.763	58.05
708.086	57.98
708.409	57.87
708.733	57.85
709.056	57.83
709.379	57.91
709.702	57.83
710.025	57.82
710.348	57.96
710.671	58.14
710.993	58.04
711.316	58.12
711.639	58.34
711.962	58.26
712.284	58.43
712.607	58.35
712.93	58.49
713.252	58.49
713.575	58.46
713.897	58.56
714.22	58.58
714.542	58.58
714.864	58.72
715.187	58.84
715.509	58.83
715.831	58.8
716.153	58.78
716.475	58.77
716.798	59.03
717.12	59.04
717.442	59.12
717.764	59.17
718.085	59.46
718.407	59.21
718.729	59.28
719.051	59.29
719.373	59.28
719.695	59.26
720.016	59.2
720.338	59.21
720.659	59.1
720.981	59.08
721.302	59.01
721.624	58.79
721.945	58.82
722.267	58.94
722.588	59.25
722.909	59.14
723.231	59.12
723.552	59.01
723.873	59.08
724.194	59.15
724.515	59.45
724.836	59.27
725.157	59.58
725.478	59.63
725.799	59.64
726.12	59.83
726.441	60.02
726.762	60.3
727.083	60.41
727.403	60.56
727.724	60.6
728.045	60.64
728.365	60.86
728.686	60.86
729.006	60.72
729.327	60.81
729.647	60.72
729.967	60.68
730.288	60.54
730.608	60.24
730.928	60.05
731.249	59.62
731.569	59.66
731.889	59.75
732.209	59.49
732.529	59.25
732.849	59.05
733.169	58.77
733.489	58.48
733.809	58.19
734.129	58
734.448	57.93
734.768	57.93
735.088	57.75
735.408	57.85
735.727	57.83
736.047	57.67
736.366	57.47
736.686	57.74
737.005	57.82
737.325	58.14
737.644	58.08
737.963	58.51
738.283	58.61
738.602	58.33
738.921	58.7
739.24	58.79
739.56	58.86
739.879	58.8
740.198	58.8
740.517	59.24
740.836	59.28
741.155	59.22
741.473	59.29
741.792	59.6
742.111	59.32
742.43	59.32
742.748	59.55
743.067	60.03
743.386	60
743.704	60.16
744.023	59.95
744.341	60.15
744.66	60.15
744.978	59.94
745.297	59.9
745.615	60.06
745.933	60.16
746.252	60.27
746.57	60.36
746.888	60.38
747.206	60.26
747.524	60.09
747.842	60.3
748.16	60.37
748.478	59.93
748.796	59.98
749.114	59.93
749.432	59.84
749.749	59.93
750.067	59.71
750.385	59.72
750.703	60.12
751.02	60.13
751.338	59.87
751.655	60.19
751.973	60.54
752.29	60.29
752.608	60.23
752.925	60.55
753.242	60.99
753.56	61.42
753.877	61.26
754.194	61.45
754.511	61.33
754.828	61.39
755.145	61.73
755.462	62.23
755.779	62.01
756.096	62.16
756.413	62.02
756.73	62.05
757.047	61.79
757.364	61.53
757.68	61.4
757.997	61.55
758.314	61.38
758.63	61.44
758.947	61.36
759.264	61.48
759.58	61.43
759.896	61.31
760.213	61.13
760.529	60.92
760.846	60.73
761.162	60.85
761.478	60.51
761.794	60.28
762.11	60.21
762.426	60.41
762.743	60.3
763.059	60.32
763.375	60.29
763.69	60.39
764.006	60.41
764.322	60.54
764.638	60.78
764.954	60.82
765.27	60.68
765.585	60.69
765.901	60.48
766.216	60.18
766.532	60.12
766.848	59.92
767.163	60.19
767.478	60.27
767.794	60.02
768.109	60.06
768.424	60.24
768.74	59.94
769.055	59.95
769.37	60.07
769.685	60.11
770	60.31
770.315	60.18
770.63	60.58
770.945	61.05
771.26	61.07
771.575	61.08
771.89	61.16
772.205	61.5
772.52	61.98
772.834	62.03
773.149	61.99
773.464	62.06
773.778	61.38
774.093	61.6
774.407	62.01
774.722	62.21
775.036	62.15
775.351	62.58
775.665	63.07
775.979	62.63
776.293	62.05
776.608	61.74
776.922	61.86
777.236	61.01
777.55	60.46
777.864	60.32
778.178	59.93
778.492	60.2
778.806	60.3
779.12	59.84
779.434	59.89
779.747	59.98
780.061	60.25
780.375	60.73
780.689	60.63
781.002	60.07
781.316	60.1
781.629	59.95
781.943	59.83
782.256	59.09
782.57	59.06
782.883	59.73
783.196	60.13
783.51	60.43
783.823	60.49
784.136	60.05
784.449	59.91
784.762	60.45
785.075	60.02
785.388	59.59
785.701	60.14
786.014	60.52
786.327	60.95
786.64	61.48
786.953	61.54
787.266	62.2
787.578	62.87
787.891	63.16
788.204	63.21
788.516	63.24
788.829	63.41
789.141	64
789.454	63.93
789.766	63.88
790.079	63.02
790.391	63.24
790.703	63.5
791.016	63.36
791.328	62.7
791.64	62.48
791.952	62.78
792.264	62.75
792.576	62.64
792.888	62.39
793.2	61.55
793.512	61.9
793.824	61.54
794.136	61.07
794.448	60.43
794.76	60.55
795.071	60.41
795.383	60.3
795.695	59.95
796.006	59.83
796.318	60.18
796.629	60.86
796.941	61.44
797.252	61.6
797.564	61.5
797.875	62.17
798.186	62.2
798.497	62.33
798.809	62.05
799.12	61.94
799.431	62.15
799.742	62.72
800.053	62.33
800.364	62.21
800.675	62.86
800.986	63.26
801.297	62.93
801.608	62.15
801.918	62.55
802.229	62.78
802.54	62.82
802.851	62.45
803.161	62.21
803.472	61.38
803.782	61.82
804.093	61.9
804.403	61.63
804.714	62.01
805.024	61.95
805.334	61.85
805.645	62.56
805.955	61.23
806.265	60.92
806.575	60.58
806.885	59.77
807.195	59.5
807.505	59.12
807.815	60.19
808.125	61.23
808.435	61.51
808.745	61.32
809.055	60.8
809.365	60.3
809.674	60.97
809.984	61.24
810.294	60.84
810.603	61.11
810.913	61.38
811.222	60.93
811.532	61.28
811.841	61.85
812.151	60.7
812.46	61.29
812.769	61.6
813.079	61.93
813.388	62.86
813.697	62.59
814.006	62.89
814.315	61.73
814.624	61.54
814.933	61.66
815.242	62.21
815.551	63.08
815.86	63.49
816.169	63.1
816.478	62.61
816.786	62.75
817.095	62.87
817.404	63.36
817.712	63.7
818.021	63.24
818.33	63.27
818.638	63.64
818.947	63.38
819.255	62.65
819.563	62.8
819.872	61.7
820.18	61.67
820.488	61.05
820.796	61.06
821.105	60.74
821.413	60.42
821.721	60.31
822.029	60.44
822.337	60.91
822.645	60.68
822.953	60.8
823.26	60.7
823.568	60.63
823.876	60.36
824.184	60.31
824.491	60.15
824.799	59.88
825.107	59.9
825.414	59.71
825.722	59.76
826.029	59.61
826.337	59.85
826.644	60.04
826.951	60.47
827.259	60.37
827.566	60.43
827.873	60.78
828.18	60.51
828.488	60.23
828.795	59.7
829.102	59.9
829.409	59.77
829.716	59.49
830.023	59.52
830.329	59.31
830.636	59.17
830.943	59.52
831.25	59.66
831.557	59.43
831.863	59.75
832.17	59.37
832.476	59.72
832.783	60.05
833.089	59.5
833.396	59
833.702	59.47
834.009	60.04
834.315	59.34
834.621	59.88
834.928	59.39
835.234	59.21
835.54	59.63
835.846	60.07
836.152	60.03
836.458	60.27
836.764	60.85
837.07	60.58
837.376	61
837.682	60.72
837.988	61.23
838.293	61.88
838.599	62.73
838.905	62.22
839.211	62.62
839.516	62.88
839.822	63.83
840.127	63.78
840.433	64.22
840.738	64.64
841.044	64.41
841.349	65.53
841.654	65.39
841.959	65.41
842.265	65.6
842.57	67.47
842.875	67.83
843.18	67.99
843.485	69.21
843.79	68.3
844.095	70.19
844.4	71.54
844.705	71.29
845.01	69.98
845.315	70.08
845.619	71.16
845.924	71.97
846.229	71.69
846.533	71.7
846.838	71.94
847.142	71.8
847.447	73.06
847.751	73.91
848.056	74.57
848.36	73.44
848.664	73.81
848.969	73.52
849.273	72.49
849.577	72
849.881	73.52
850.185	74.07
850.489	73.46
850.794	70.97
851.097	70.41
851.401	72.34
851.705	73.76
852.009	69.82
852.313	68.97
852.617	70.37
852.92	70.95
853.224	71.53
853.528	72.33
853.831	71.13
854.135	73.03
854.438	74.79
854.742	74.88
855.045	74.73
855.349	72.21
855.652	73.97
855.955	74.9
856.259	76.79
856.562	75.24
856.865	74.72
857.168	75.14
857.471	80.21
857.774	81.18
858.077	79.66
858.38	82.42
858.683	81.37
858.986	80.51
859.289	81.51
859.592	80.76
859.894	80.3
860.197	79.75
860.5	77.04
860.802	79.07
861.105	76.1
861.407	74.28
861.71	78.09
862.012	77.54
862.315	77.39
862.617	74.36
862.919	75.77
863.222	77.76
863.524	79.11
863.826	71.82
864.128	70.62
864.43	74.14
864.732	73.84
865.034	76.71
865.336	76.08
865.638	75.24
865.94	74.27
866.242	76.95
866.544	77.91
866.846	80.33
867.147	76.75
867.449	81.78
867.751	81.96
868.052	78.61
868.354	77.17
868.655	76.05
868.957	78.17
869.258	79.87
869.56	75.27
869.861	72.13
870.162	74.02
870.463	73.3
870.765	69.31
871.066	70.25
871.367	68.47
871.668	70.54
871.969	71.12
872.27	75.05
872.571	76.69
872.872	81.1
873.173	81.02
873.473	85.62
873.774	82.79
874.075	83.2
874.376	90.09
874.676	87.46
874.977	88.38
875.277	85.62
875.578	83.84
875.878	88.88
876.179	91.77
876.479	94.63
876.78	97.83
877.08	102.33
877.38	103.31
877.68	104.78
877.981	102.24
878.281	103.3
878.581	96.34
