Data from MVZ_BU78245_Reflection_00003.txt Node
Date: Tue Nov 19 12:01:03 EST 2019
User: vgr7
Spectrometer: USB2G7710
Scans to average: 3
Trigger mode: 4
Integration Time (sec): 2.000000E-2
Electric dark correction enabled: true
Boxcar width: 10
XAxis mode: Wavelengths
Number of Pixels in Spectrum: 2048
>>>>>Begin Spectral Data<<<<<
177.721	16.67
178.105	25.93
178.488	-111.38
178.871	-1233.33
179.254	29.17
179.636	61.06
180.019	11.03
180.402	-237.5
180.785	-11.46
181.168	-69.4
181.55	-804.76
181.933	-389.58
182.316	368.52
182.698	-548.15
183.081	-188.19
183.463	-144.59
183.846	-139.77
184.228	-126.72
184.611	-99.66
184.993	-71.67
185.376	-113.54
185.758	-95.16
186.14	-98.48
186.522	-165.5
186.904	-148.61
187.287	-153.91
187.669	-126.26
188.051	-88.99
188.433	-133.71
188.815	-103.93
189.197	-87.01
189.579	-70.96
189.961	-90.27
190.342	-85.79
190.724	-129.53
191.106	-104.52
191.488	-139.38
191.869	-89.46
192.251	-83.54
192.633	-86.78
193.014	-92.58
193.396	-70.39
193.777	-62.26
194.159	-58.96
194.54	-39.53
194.922	-35.44
195.303	-21.81
195.684	-39.25
196.065	-45.05
196.447	-39.67
196.828	-58.08
197.209	-42.23
197.59	-40.9
197.971	-21.17
198.352	-21.52
198.733	-21.42
199.114	-13.04
199.495	-7.32
199.876	-16.89
200.257	-7.43
200.638	-17.11
201.018	-21.84
201.399	-21.44
201.78	-13.62
202.16	-18.36
202.541	-21.21
202.922	-13.02
203.302	-8.78
203.683	-0.89
204.063	-7.98
204.444	0.78
204.824	7.73
205.204	-2
205.585	-7.63
205.965	-23.06
206.345	-23.41
206.725	-21.79
207.106	-39.19
207.486	-43.03
207.866	-25.27
208.246	-18.06
208.626	-10.01
209.006	-10.06
209.386	-3.32
209.766	-33.33
210.145	-31.06
210.525	-36.41
210.905	-35.9
211.285	-40.85
211.664	-31.62
212.044	-42.45
212.424	-44.68
212.803	-63.53
213.183	-79.8
213.562	-64.55
213.942	-87.57
214.321	-75.62
214.701	-71.63
215.08	-80.05
215.459	-72
215.838	-120.85
216.218	-178.12
216.597	-138.44
216.976	-182.38
217.355	-154.79
217.734	-149.14
218.113	-144.94
218.492	-142.52
218.871	-138.89
219.25	-113.37
219.629	-152.16
220.008	-91.32
220.387	-68.15
220.766	-43.05
221.144	-17.03
221.523	-36.54
221.902	-20.26
222.28	-17.8
222.659	-7.89
223.037	-4.26
223.416	-10.07
223.794	-5.3
224.173	2.26
224.551	-1.48
224.929	-3.95
225.308	0.85
225.686	3.05
226.064	0.76
226.442	-1.36
226.821	-3.65
227.199	-3.79
227.577	-4.79
227.955	-8.77
228.333	-9.4
228.711	-11.28
229.089	-13.22
229.467	-12.13
229.845	-13.07
230.222	-13.94
230.6	-14.94
230.978	-12.27
231.356	-9.38
231.733	-7.68
232.111	-9.1
232.488	-6.15
232.866	-3.48
233.243	-6.31
233.621	-6.19
233.998	-7.26
234.376	-6.12
234.753	-5.71
235.13	-3.49
235.508	-3.14
235.885	-2.39
236.262	-2.18
236.639	-1.36
237.016	-0.7
237.393	0.7
237.77	2.14
238.147	2.05
238.524	2.12
238.901	0.7
239.278	-0.03
239.655	-0.4
240.032	-0.31
240.409	0.07
240.785	0.05
241.162	0.57
241.539	1.3
241.915	1.73
242.292	1.87
242.668	1.95
243.045	1.99
243.421	2.57
243.798	3.15
244.174	3.02
244.551	2.64
244.927	2.87
245.303	2.85
245.679	2.76
246.056	2.66
246.432	2.96
246.808	3.52
247.184	3.94
247.56	3.83
247.936	3.84
248.312	3.77
248.688	3.5
249.064	3.33
249.44	3.23
249.815	3.46
250.191	3.25
250.567	3.23
250.943	2.89
251.318	2.72
251.694	2.17
252.069	2.27
252.445	2.61
252.82	2.58
253.196	2.34
253.571	2.18
253.947	2.18
254.322	1.99
254.697	1.32
255.073	1.18
255.448	1.09
255.823	1.36
256.198	1.34
256.573	1.55
256.948	1.88
257.323	1.94
257.698	1.88
258.073	2.07
258.448	2.16
258.823	2.17
259.198	1.97
259.573	2.01
259.948	1.9
260.322	1.84
260.697	1.86
261.072	1.99
261.446	1.97
261.821	1.94
262.195	1.69
262.57	1.9
262.944	1.69
263.319	1.84
263.693	1.87
264.067	1.84
264.442	1.64
264.816	1.53
265.19	1.59
265.564	1.54
265.938	1.48
266.313	1.17
266.687	1.17
267.061	1.66
267.435	1.79
267.809	1.7
268.183	1.65
268.556	1.62
268.93	1.82
269.304	1.72
269.678	1.86
270.051	2.12
270.425	1.88
270.799	2.06
271.172	2
271.546	1.97
271.919	2.04
272.293	2.29
272.666	2.12
273.04	2.08
273.413	2
273.787	1.91
274.16	2.01
274.533	2.03
274.906	1.82
275.279	1.78
275.653	1.97
276.026	2.06
276.399	2.11
276.772	2.14
277.145	2.31
277.518	2.16
277.891	2.05
278.263	2.3
278.636	2.35
279.009	2.42
279.382	2.29
279.755	2.25
280.127	2.29
280.5	2.47
280.872	2.53
281.245	2.65
281.617	2.71
281.99	2.75
282.362	2.82
282.735	2.86
283.107	2.7
283.479	2.71
283.852	2.64
284.224	2.61
284.596	2.46
284.968	2.47
285.34	2.62
285.713	2.71
286.085	2.66
286.457	2.59
286.829	2.57
287.201	2.55
287.572	2.59
287.944	2.6
288.316	2.62
288.688	2.72
289.06	2.62
289.431	2.67
289.803	2.84
290.175	2.86
290.546	2.72
290.918	2.95
291.289	2.8
291.661	2.9
292.032	2.88
292.403	2.88
292.775	3.01
293.146	3.06
293.517	2.99
293.889	3.17
294.26	3.16
294.631	3.22
295.002	3.28
295.373	3.28
295.744	3.26
296.115	3.29
296.486	3.22
296.857	3.35
297.228	3.1
297.599	2.89
297.97	2.81
298.34	2.96
298.711	2.87
299.082	3.03
299.452	3.02
299.823	3.04
300.194	3.11
300.564	2.91
300.935	2.77
301.305	2.89
301.676	2.73
302.046	2.73
302.416	2.7
302.787	2.79
303.157	2.64
303.527	2.71
303.897	2.55
304.267	2.51
304.637	2.4
305.008	2.63
305.378	2.74
305.748	2.75
306.117	2.64
306.487	2.58
306.857	2.71
307.227	2.86
307.597	2.9
307.967	2.96
308.336	3.06
308.706	3.06
309.076	2.94
309.445	2.93
309.815	3.03
310.184	2.99
310.554	3.04
310.923	3
311.293	2.91
311.662	3.03
312.031	3.06
312.401	3.07
312.77	3.02
313.139	3.02
313.508	2.95
313.877	3.05
314.246	3.18
314.616	3.07
314.985	2.86
315.353	2.86
315.722	2.89
316.091	2.99
316.46	3.04
316.829	3.14
317.198	3.18
317.567	3.15
317.935	3.2
318.304	3.2
318.672	3.45
319.041	3.49
319.41	3.44
319.778	3.46
320.147	3.69
320.515	3.68
320.883	3.71
321.252	3.83
321.62	3.88
321.988	3.92
322.357	3.97
322.725	4.05
323.093	3.92
323.461	3.67
323.829	3.55
324.197	3.53
324.565	3.58
324.933	3.47
325.301	3.34
325.669	3.13
326.037	3.1
326.405	3.04
326.772	3.1
327.14	3.13
327.508	3.14
327.875	2.95
328.243	2.85
328.61	2.79
328.978	2.73
329.346	2.63
329.713	2.49
330.08	2.46
330.448	2.48
330.815	2.49
331.182	2.48
331.55	2.48
331.917	2.36
332.284	2.17
332.651	2.25
333.018	2.23
333.385	2.33
333.752	2.28
334.119	2.25
334.486	2.2
334.853	2.22
335.22	2.03
335.587	2.02
335.954	2.1
336.32	2.04
336.687	2.06
337.054	2.11
337.42	2.21
337.787	2.1
338.153	2.2
338.52	2.32
338.886	2.4
339.253	2.3
339.619	2.48
339.986	2.46
340.352	2.5
340.718	2.61
341.084	2.71
341.451	2.73
341.817	2.76
342.183	2.79
342.549	2.81
342.915	2.96
343.281	2.97
343.647	2.98
344.013	3.02
344.379	3.02
344.745	3.05
345.11	3.01
345.476	3.08
345.842	2.96
346.208	2.9
346.573	2.9
346.939	2.94
347.304	2.96
347.67	3.06
348.035	2.97
348.401	3.04
348.766	2.99
349.132	3.02
349.497	3.1
349.862	3
350.228	2.94
350.593	2.84
350.958	2.95
351.323	2.93
351.688	2.91
352.053	2.89
352.418	2.86
352.783	2.88
353.148	2.9
353.513	2.88
353.878	2.89
354.243	2.82
354.608	3
354.972	2.91
355.337	2.92
355.702	2.97
356.066	2.87
356.431	2.92
356.795	2.87
357.16	2.74
357.524	2.83
357.889	2.88
358.253	2.91
358.618	2.81
358.982	2.8
359.346	2.76
359.71	2.81
360.075	2.79
360.439	2.79
360.803	2.81
361.167	2.84
361.531	2.85
361.895	2.86
362.259	2.81
362.623	2.87
362.987	2.89
363.351	2.91
363.714	2.92
364.078	2.94
364.442	2.95
364.806	3.01
365.169	2.88
365.533	2.79
365.896	2.78
366.26	2.73
366.623	2.73
366.987	2.76
367.35	2.77
367.714	2.77
368.077	2.76
368.44	2.71
368.803	2.67
369.167	2.64
369.53	2.63
369.893	2.62
370.256	2.57
370.619	2.5
370.982	2.38
371.345	2.39
371.708	2.33
372.071	2.23
372.434	2.22
372.797	2.3
373.159	2.38
373.522	2.42
373.885	2.5
374.247	2.53
374.61	2.54
374.973	2.57
375.335	2.59
375.698	2.51
376.06	2.53
376.423	2.59
376.785	2.66
377.147	2.7
377.51	2.68
377.872	2.66
378.234	2.71
378.596	2.75
378.958	2.79
379.321	2.8
379.683	2.96
380.045	2.98
380.407	3.01
380.769	2.96
381.13	2.94
381.492	2.91
381.854	2.89
382.216	2.94
382.578	2.9
382.939	2.91
383.301	2.97
383.663	3
384.024	2.99
384.386	2.95
384.747	2.9
385.109	2.87
385.47	2.92
385.832	2.89
386.193	2.89
386.554	2.88
386.916	2.86
387.277	2.81
387.638	2.83
387.999	2.82
388.36	2.88
388.721	2.92
389.082	2.97
389.443	3.01
389.804	3.01
390.165	3.02
390.526	3.03
390.887	3.07
391.248	3.04
391.609	3.09
391.969	3.1
392.33	3.12
392.691	3.13
393.051	3.15
393.412	3.14
393.772	3.2
394.133	3.17
394.493	3.18
394.854	3.15
395.214	3.12
395.574	3.13
395.935	3.12
396.295	3.09
396.655	3.05
397.015	3.03
397.376	3.04
397.736	3
398.096	3
398.456	3
398.816	2.99
399.176	2.93
399.535	2.92
399.895	2.94
400.255	2.96
400.615	2.95
400.975	2.97
401.334	2.91
401.694	2.94
402.054	2.95
402.413	2.99
402.773	3.01
403.132	3.02
403.492	3.01
403.851	3.01
404.211	3.03
404.57	3.04
404.929	3.03
405.288	3.1
405.648	3.08
406.007	3.07
406.366	3.06
406.725	3.07
407.084	3.07
407.443	3.06
407.802	3.04
408.161	3.04
408.52	3.05
408.879	3.11
409.238	3.08
409.596	3.11
409.955	3.09
410.314	3.08
410.673	3.06
411.031	3.05
411.39	3.03
411.748	3.05
412.107	3.05
412.465	3.06
412.824	3.03
413.182	3.07
413.54	3.08
413.899	3.13
414.257	3.15
414.615	3.14
414.974	3.14
415.332	3.16
415.69	3.15
416.048	3.16
416.406	3.12
416.764	3.12
417.122	3.1
417.48	3.12
417.838	3.12
418.195	3.13
418.553	3.14
418.911	3.16
419.269	3.16
419.626	3.17
419.984	3.17
420.342	3.17
420.699	3.15
421.057	3.14
421.414	3.14
421.772	3.14
422.129	3.13
422.486	3.14
422.844	3.13
423.201	3.13
423.558	3.12
423.915	3.13
424.273	3.16
424.63	3.18
424.987	3.18
425.344	3.19
425.701	3.18
426.058	3.19
426.415	3.19
426.772	3.19
427.128	3.18
427.485	3.18
427.842	3.19
428.199	3.2
428.555	3.21
428.912	3.18
429.269	3.18
429.625	3.19
429.982	3.19
430.338	3.2
430.695	3.21
431.051	3.22
431.407	3.23
431.764	3.23
432.12	3.21
432.476	3.21
432.832	3.21
433.189	3.24
433.545	3.21
433.901	3.21
434.257	3.2
434.613	3.18
434.969	3.19
435.325	3.19
435.681	3.17
436.036	3.18
436.392	3.18
436.748	3.18
437.104	3.19
437.459	3.19
437.815	3.19
438.171	3.17
438.526	3.18
438.882	3.16
439.237	3.16
439.593	3.17
439.948	3.18
440.304	3.16
440.659	3.15
441.014	3.16
441.369	3.17
441.725	3.15
442.08	3.17
442.435	3.17
442.79	3.16
443.145	3.17
443.5	3.17
443.855	3.19
444.21	3.2
444.565	3.19
444.92	3.2
445.275	3.19
445.629	3.22
445.984	3.21
446.339	3.22
446.693	3.23
447.048	3.21
447.403	3.21
447.757	3.2
448.112	3.2
448.466	3.21
448.82	3.21
449.175	3.22
449.529	3.23
449.883	3.23
450.238	3.24
450.592	3.24
450.946	3.25
451.3	3.24
451.654	3.22
452.008	3.23
452.362	3.24
452.716	3.24
453.07	3.23
453.424	3.23
453.778	3.22
454.132	3.19
454.486	3.22
454.839	3.23
455.193	3.26
455.547	3.25
455.9	3.27
456.254	3.26
456.607	3.28
456.961	3.26
457.314	3.25
457.668	3.24
458.021	3.25
458.375	3.23
458.728	3.23
459.081	3.25
459.434	3.24
459.787	3.23
460.141	3.24
460.494	3.24
460.847	3.24
461.2	3.25
461.553	3.29
461.906	3.3
462.259	3.28
462.611	3.26
462.964	3.27
463.317	3.24
463.67	3.24
464.022	3.22
464.375	3.23
464.728	3.21
465.08	3.2
465.433	3.2
465.785	3.21
466.138	3.21
466.49	3.2
466.843	3.21
467.195	3.22
467.547	3.21
467.899	3.22
468.252	3.22
468.604	3.22
468.956	3.18
469.308	3.15
469.66	3.17
470.012	3.18
470.364	3.21
470.716	3.21
471.068	3.21
471.42	3.24
471.772	3.26
472.123	3.28
472.475	3.28
472.827	3.28
473.178	3.29
473.53	3.3
473.882	3.3
474.233	3.31
474.585	3.3
474.936	3.29
475.288	3.3
475.639	3.31
475.99	3.29
476.342	3.29
476.693	3.29
477.044	3.28
477.395	3.27
477.746	3.25
478.097	3.26
478.448	3.27
478.8	3.25
479.15	3.24
479.501	3.25
479.852	3.28
480.203	3.28
480.554	3.29
480.905	3.3
481.255	3.3
481.606	3.31
481.957	3.32
482.307	3.33
482.658	3.33
483.009	3.33
483.359	3.34
483.709	3.36
484.06	3.37
484.41	3.38
484.761	3.38
485.111	3.38
485.461	3.38
485.811	3.38
486.162	3.4
486.512	3.4
486.862	3.4
487.212	3.4
487.562	3.4
487.912	3.4
488.262	3.39
488.612	3.39
488.961	3.39
489.311	3.39
489.661	3.4
490.011	3.39
490.36	3.39
490.71	3.4
491.06	3.4
491.409	3.39
491.759	3.38
492.108	3.37
492.458	3.39
492.807	3.39
493.157	3.39
493.506	3.37
493.855	3.36
494.204	3.37
494.554	3.37
494.903	3.38
495.252	3.37
495.601	3.37
495.95	3.39
496.299	3.39
496.648	3.39
496.997	3.39
497.346	3.39
497.695	3.39
498.043	3.38
498.392	3.37
498.741	3.39
499.09	3.38
499.438	3.4
499.787	3.39
500.135	3.39
500.484	3.4
500.832	3.42
501.181	3.43
501.529	3.45
501.878	3.46
502.226	3.45
502.574	3.47
502.923	3.47
503.271	3.49
503.619	3.47
503.967	3.45
504.315	3.45
504.663	3.44
505.011	3.46
505.359	3.43
505.707	3.44
506.055	3.44
506.403	3.44
506.751	3.45
507.098	3.45
507.446	3.47
507.794	3.46
508.141	3.47
508.489	3.49
508.837	3.46
509.184	3.43
509.531	3.43
509.879	3.4
510.226	3.4
510.574	3.41
510.921	3.41
511.268	3.41
511.616	3.42
511.963	3.45
512.31	3.45
512.657	3.46
513.004	3.45
513.351	3.45
513.698	3.46
514.045	3.46
514.392	3.46
514.739	3.45
515.086	3.46
515.432	3.45
515.779	3.44
516.126	3.48
516.473	3.47
516.819	3.48
517.166	3.5
517.512	3.5
517.859	3.49
518.205	3.49
518.552	3.49
518.898	3.47
519.245	3.45
519.591	3.45
519.937	3.49
520.283	3.48
520.629	3.48
520.976	3.46
521.322	3.46
521.668	3.48
522.014	3.47
522.36	3.46
522.706	3.48
523.052	3.49
523.398	3.47
523.743	3.5
524.089	3.51
524.435	3.51
524.781	3.53
525.126	3.53
525.472	3.55
525.817	3.56
526.163	3.57
526.509	3.58
526.854	3.59
527.199	3.57
527.545	3.59
527.89	3.59
528.235	3.61
528.581	3.61
528.926	3.59
529.271	3.6
529.616	3.61
529.961	3.6
530.306	3.6
530.651	3.61
530.996	3.6
531.341	3.61
531.686	3.61
532.031	3.6
532.376	3.59
532.721	3.58
533.065	3.58
533.41	3.59
533.755	3.59
534.099	3.58
534.444	3.59
534.788	3.58
535.133	3.58
535.477	3.58
535.822	3.58
536.166	3.59
536.51	3.59
536.855	3.61
537.199	3.61
537.543	3.61
537.887	3.6
538.231	3.62
538.576	3.6
538.92	3.6
539.264	3.61
539.608	3.63
539.951	3.65
540.295	3.66
540.639	3.66
540.983	3.65
541.327	3.66
541.671	3.68
542.014	3.68
542.358	3.7
542.701	3.7
543.045	3.7
543.389	3.71
543.732	3.71
544.075	3.7
544.419	3.71
544.762	3.72
545.105	3.73
545.449	3.73
545.792	3.76
546.135	3.77
546.478	3.78
546.821	3.79
547.165	3.79
547.508	3.78
547.851	3.79
548.194	3.81
548.536	3.8
548.879	3.78
549.222	3.78
549.565	3.75
549.908	3.73
550.25	3.73
550.593	3.72
550.936	3.72
551.278	3.73
551.621	3.71
551.963	3.71
552.306	3.71
552.648	3.72
552.991	3.73
553.333	3.71
553.675	3.72
554.017	3.7
554.36	3.7
554.702	3.7
555.044	3.69
555.386	3.69
555.728	3.7
556.07	3.7
556.412	3.69
556.754	3.71
557.096	3.74
557.438	3.74
557.78	3.74
558.121	3.74
558.463	3.72
558.805	3.74
559.147	3.73
559.488	3.71
559.83	3.7
560.171	3.7
560.513	3.68
560.854	3.65
561.196	3.65
561.537	3.66
561.878	3.65
562.22	3.65
562.561	3.64
562.902	3.66
563.243	3.64
563.584	3.66
563.925	3.69
564.266	3.66
564.607	3.67
564.948	3.64
565.289	3.61
565.63	3.63
565.971	3.63
566.312	3.65
566.653	3.69
566.993	3.67
567.334	3.65
567.675	3.68
568.015	3.67
568.356	3.68
568.696	3.68
569.037	3.67
569.377	3.66
569.718	3.67
570.058	3.63
570.398	3.65
570.739	3.62
571.079	3.6
571.419	3.62
571.759	3.62
572.099	3.61
572.439	3.63
572.779	3.64
573.119	3.63
573.459	3.58
573.799	3.52
574.139	3.53
574.479	3.54
574.819	3.53
575.158	3.55
575.498	3.56
575.838	3.55
576.177	3.56
576.517	3.61
576.856	3.59
577.196	3.63
577.535	3.63
577.875	3.67
578.214	3.66
578.553	3.66
578.893	3.67
579.232	3.72
579.571	3.72
579.91	3.72
580.25	3.73
580.589	3.77
580.928	3.79
581.267	3.82
581.606	3.79
581.945	3.79
582.283	3.8
582.622	3.77
582.961	3.81
583.3	3.8
583.639	3.76
583.977	3.78
584.316	3.77
584.654	3.79
584.993	3.74
585.332	3.74
585.67	3.72
586.008	3.71
586.347	3.72
586.685	3.72
587.024	3.72
587.362	3.73
587.7	3.73
588.038	3.76
588.376	3.76
588.715	3.8
589.053	3.8
589.391	3.8
589.729	3.84
590.067	3.81
590.404	3.79
590.742	3.81
591.08	3.81
591.418	3.8
591.756	3.79
592.093	3.83
592.431	3.85
592.769	3.92
593.106	3.93
593.444	3.91
593.781	3.91
594.119	3.9
594.456	3.88
594.793	3.88
595.131	3.87
595.468	3.86
595.805	3.87
596.143	3.88
596.48	3.86
596.817	3.84
597.154	3.86
597.491	3.86
597.828	3.84
598.165	3.85
598.502	3.86
598.839	3.88
599.176	3.9
599.512	3.87
599.849	3.78
600.186	3.77
600.523	3.79
600.859	3.81
601.196	3.8
601.532	3.84
601.869	3.83
602.205	3.84
602.542	3.81
602.878	3.81
603.215	3.81
603.551	3.82
603.887	3.83
604.223	3.81
604.56	3.82
604.896	3.87
605.232	3.87
605.568	3.89
605.904	3.86
606.24	3.84
606.576	3.87
606.912	3.91
607.248	3.9
607.583	3.88
607.919	3.86
608.255	3.87
608.591	3.85
608.926	3.88
609.262	3.88
609.597	3.91
609.933	3.88
610.268	3.91
610.604	3.9
610.939	3.87
611.275	3.9
611.61	3.88
611.945	3.83
612.281	3.87
612.616	3.85
612.951	3.9
613.286	3.88
613.621	3.89
613.956	3.91
614.291	3.95
614.626	3.94
614.961	4
615.296	4.05
615.631	4.01
615.966	4
616.3	3.99
616.635	3.96
616.97	3.96
617.304	3.95
617.639	4
617.973	4.03
618.308	4.05
618.642	4.04
618.977	4.04
619.311	4.01
619.646	4.02
619.98	3.97
620.314	3.95
620.648	3.93
620.983	3.89
621.317	3.91
621.651	3.92
621.985	3.82
622.319	3.83
622.653	3.88
622.987	3.87
623.321	3.87
623.655	3.9
623.988	3.88
624.322	3.86
624.656	3.87
624.99	3.9
625.323	3.86
625.657	3.9
625.99	3.89
626.324	3.84
626.657	3.8
626.991	3.84
627.324	3.83
627.658	3.85
627.991	3.85
628.324	3.82
628.657	3.8
628.991	3.89
629.324	3.84
629.657	3.8
629.99	3.8
630.323	3.83
630.656	3.8
630.989	3.77
631.322	3.73
631.655	3.7
631.987	3.67
632.32	3.66
632.653	3.66
632.986	3.68
633.318	3.7
633.651	3.76
633.984	3.72
634.316	3.71
634.649	3.7
634.981	3.68
635.313	3.68
635.646	3.69
635.978	3.71
636.31	3.74
636.643	3.73
636.975	3.71
637.307	3.72
637.639	3.74
637.971	3.81
638.303	3.85
638.635	3.82
638.967	3.87
639.299	3.87
639.631	3.83
639.963	3.82
640.295	3.78
640.626	3.72
640.958	3.74
641.29	3.8
641.621	3.76
641.953	3.79
642.285	3.88
642.616	3.97
642.948	3.96
643.279	3.92
643.61	4.01
643.942	4.04
644.273	3.99
644.604	3.91
644.936	3.94
645.267	3.99
645.598	4.01
645.929	3.96
646.26	3.96
646.591	3.96
646.922	4.03
647.253	4.05
647.584	4.08
647.915	4.13
648.245	4.17
648.576	4.09
648.907	4.14
649.238	4.05
649.568	3.97
649.899	3.91
650.229	3.93
650.56	3.81
650.89	3.82
651.221	3.79
651.551	3.95
651.882	3.93
652.212	3.93
652.542	3.99
652.872	4.03
653.203	4.01
653.533	4.07
653.863	3.99
654.193	4.05
654.523	4.02
654.853	3.98
655.183	4.02
655.513	4.12
655.843	4.03
656.172	4.11
656.502	4.09
656.832	4.08
657.162	4.08
657.491	4.12
657.821	4.14
658.15	4.19
658.48	4.11
658.809	4.15
659.139	4.14
659.468	4.05
659.798	4.04
660.127	4.06
660.456	4.1
660.785	4.1
661.115	4.07
661.444	4.22
661.773	4.29
662.102	4.18
662.431	4.13
662.76	4.2
663.089	4.19
663.418	4.28
663.747	4.34
664.076	4.36
664.404	4.43
664.733	4.41
665.062	4.46
665.39	4.41
665.719	4.34
666.048	4.29
666.376	4.36
666.705	4.34
667.033	4.35
667.362	4.3
667.69	4.34
668.018	4.34
668.347	4.21
668.675	4.08
669.003	4.14
669.331	4.19
669.659	4.25
669.987	4.19
670.315	4.16
670.643	4.18
670.971	4.2
671.299	4.18
671.627	4.2
671.955	4.23
672.283	4.29
672.61	4.32
672.938	4.38
673.266	4.43
673.593	4.38
673.921	4.35
674.249	4.33
674.576	4.3
674.904	4.28
675.231	4.28
675.558	4.3
675.886	4.32
676.213	4.36
676.54	4.28
676.867	4.32
677.195	4.3
677.522	4.25
677.849	4.27
678.176	4.31
678.503	4.32
678.83	4.25
679.157	4.25
679.484	4.22
679.81	4.14
680.137	4.12
680.464	4.21
680.791	4.24
681.117	4.35
681.444	4.4
681.771	4.46
682.097	4.58
682.424	4.59
682.75	4.59
683.077	4.58
683.403	4.57
683.729	4.49
684.056	4.47
684.382	4.45
684.708	4.41
685.034	4.31
685.36	4.27
685.686	4.33
686.012	4.37
686.339	4.45
686.664	4.52
686.99	4.34
687.316	4.28
687.642	4.33
687.968	4.16
688.294	4.13
688.619	4.12
688.945	3.95
689.271	3.95
689.596	3.88
689.922	3.9
690.247	3.98
690.573	4.11
690.898	4.14
691.224	4.19
691.549	4.29
691.874	4.33
692.2	4.33
692.525	4.31
692.85	4.23
693.175	4.21
693.5	4.1
693.825	4.35
694.15	4.41
694.475	4.35
694.8	4.41
695.125	4.46
695.45	4.47
695.775	4.53
696.099	4.65
696.424	4.69
696.749	4.71
697.073	4.58
697.398	4.46
697.723	4.47
698.047	4.5
698.372	4.49
698.696	4.49
699.02	4.48
699.345	4.48
699.669	4.65
699.993	4.73
700.318	4.83
700.642	4.82
700.966	4.82
701.29	4.88
701.614	4.98
701.938	4.95
702.262	4.89
702.586	4.86
702.91	4.77
703.234	4.78
703.557	4.68
703.881	4.77
704.205	4.75
704.529	4.78
704.852	4.57
705.176	4.5
705.499	4.45
705.823	4.39
706.146	4.34
706.47	4.2
706.793	4.11
707.117	4.09
707.44	4
707.763	3.9
708.086	3.74
708.409	3.69
708.733	3.59
709.056	3.71
709.379	3.83
709.702	3.94
710.025	3.98
710.348	3.95
710.671	4.02
710.993	4.09
711.316	4
711.639	4.11
711.962	4.2
712.284	4.41
712.607	4.57
712.93	4.61
713.252	4.62
713.575	4.66
713.897	4.68
714.22	4.8
714.542	4.91
714.864	4.99
715.187	4.92
715.509	4.92
715.831	4.9
716.153	4.84
716.475	4.81
716.798	4.77
717.12	4.91
717.442	4.86
717.764	4.91
718.085	5.13
718.407	5.16
718.729	5.04
719.051	4.88
719.373	4.77
719.695	4.64
720.016	4.68
720.338	4.49
720.659	4.58
720.981	4.26
721.302	4.29
721.624	4.29
721.945	4.27
722.267	4.44
722.588	4.32
722.909	4.22
723.231	4.18
723.552	4.16
723.873	4.09
724.194	4.15
724.515	4.25
724.836	4.11
725.157	4.14
725.478	4.24
725.799	4.29
726.12	4.35
726.441	4.51
726.762	4.56
727.083	4.64
727.403	4.43
727.724	4.71
728.045	4.91
728.365	4.72
728.686	4.72
729.006	4.71
729.327	4.71
729.647	4.68
729.967	4.67
730.288	4.78
730.608	4.85
730.928	4.9
731.249	4.79
731.569	4.76
731.889	4.64
732.209	4.52
732.529	4.6
732.849	4.43
733.169	4.47
733.489	4.16
733.809	4.19
734.129	4.2
734.448	4.17
734.768	3.89
735.088	4.18
735.408	4.14
735.727	4.2
736.047	4.22
736.366	4.45
736.686	4.43
737.005	4.33
737.325	4.16
737.644	3.81
737.963	3.82
738.283	3.82
738.602	4.03
738.921	4.28
739.24	4.36
739.56	4.64
739.879	4.4
740.198	4.61
740.517	4.68
740.836	4.63
741.155	4.62
741.473	4.67
741.792	4.45
742.111	4.61
742.43	4.73
742.748	4.84
743.067	4.62
743.386	4.54
743.704	4.71
744.023	4.82
744.341	5.22
744.66	5
744.978	4.93
745.297	5.08
745.615	4.81
745.933	4.75
746.252	4.65
746.57	4.78
746.888	5.03
747.206	4.88
747.524	5
747.842	4.89
748.16	5.07
748.478	5.1
748.796	4.97
749.114	4.79
749.432	4.75
749.749	4.82
750.067	4.85
750.385	4.85
750.703	4.89
751.02	4.65
751.338	4.64
751.655	4.85
751.973	4.63
752.29	4.72
752.608	4.5
752.925	4.61
753.242	4.78
753.56	4.48
753.877	4.59
754.194	4.49
754.511	4.55
754.828	4.19
755.145	4.35
755.462	4.4
755.779	4.29
756.096	4.35
756.413	4.61
756.73	4.62
757.047	4.43
757.364	4.5
757.68	4.57
757.997	4.97
758.314	5.01
758.63	4.95
758.947	4.83
759.264	4.95
759.58	4.87
759.896	4.74
760.213	4.82
760.529	4.91
760.846	4.98
761.162	5.16
761.478	5.32
761.794	5.4
762.11	5.35
762.426	5.26
762.743	5.3
763.059	5.32
763.375	5.65
763.69	5.78
764.006	5.7
764.322	5.71
764.638	5.76
764.954	5.67
765.27	5.74
765.585	5.9
765.901	5.69
766.216	5.68
766.532	5.63
766.848	5.61
767.163	5.55
767.478	5.35
767.794	5.17
768.109	5.14
768.424	4.86
768.74	5.11
769.055	5.45
769.37	5.28
769.685	5.16
770	4.97
770.315	4.97
770.63	5.07
770.945	5.05
771.26	4.57
771.575	4.59
771.89	4.6
772.205	4.6
772.52	4.71
772.834	4.67
773.149	4.72
773.464	4.88
773.778	4.84
774.093	5.13
774.407	5.25
774.722	5.16
775.036	5.38
775.351	5.04
775.665	4.91
775.979	5.32
776.293	5.17
776.608	5.04
776.922	4.8
777.236	4.89
777.55	4.61
777.864	4.95
778.178	4.75
778.492	4.66
778.806	4.62
779.12	4.49
779.434	4.82
779.747	5.19
780.061	4.53
780.375	4.87
780.689	4.9
781.002	4.74
781.316	4.84
781.629	4.8
781.943	4.92
782.256	4.69
782.57	4.16
782.883	4.37
783.196	4.4
783.51	4.8
783.823	4.8
784.136	5.09
784.449	5.03
784.762	5.45
785.075	5.81
785.388	5.82
785.701	5.99
786.014	5.72
786.327	5.01
786.64	5.59
786.953	5.44
787.266	5.46
787.578	5.86
787.891	6.14
788.204	5.95
788.516	6.2
788.829	6.46
789.141	6.93
789.454	7.06
789.766	7.07
790.079	7.1
790.391	6.91
790.703	6.98
791.016	7.07
791.328	7.1
791.64	6.95
791.952	6.68
792.264	6.57
792.576	6.73
792.888	7.52
793.2	7.02
793.512	6.67
793.824	6.72
794.136	6.01
794.448	5.95
794.76	6.23
795.071	5.51
795.383	5.19
795.695	4.98
796.006	4.84
796.318	4.83
796.629	4.54
796.941	4.33
797.252	4.42
797.564	4.18
797.875	3.69
798.186	3.25
798.497	3.48
798.809	3.94
799.12	3.51
799.431	3.34
799.742	4.43
800.053	4.55
800.364	4.23
800.675	5.21
800.986	5.2
801.297	4.94
801.608	5.07
801.918	5.1
802.229	5.03
802.54	4.83
802.851	4.75
803.161	4.43
803.472	4.69
803.782	4.27
804.093	4.71
804.403	5.18
804.714	5.71
805.024	5.38
805.334	5.67
805.645	6.29
805.955	5.93
806.265	5.53
806.575	5.77
806.885	6.28
807.195	6
807.505	6.08
807.815	6.63
808.125	6.91
808.435	6.62
808.745	6.92
809.055	7.05
809.365	7.22
809.674	7.33
809.984	7.28
810.294	7.8
810.603	7.94
810.913	7.66
811.222	7.13
811.532	7.76
811.841	7.97
812.151	7.71
812.46	8.07
812.769	7.75
813.079	7.61
813.388	8.23
813.697	7.4
814.006	7.6
814.315	7.82
814.624	8.33
814.933	9.06
815.242	8.73
815.551	8.77
815.86	8.78
816.169	9.03
816.478	8.54
816.786	8.05
817.095	7.78
817.404	7.42
817.712	7.59
818.021	6.99
818.33	6.18
818.638	5.89
818.947	6.11
819.255	5.96
819.563	6.06
819.872	5.8
820.18	6.43
820.488	6.6
820.796	6.55
821.105	6.34
821.413	6.26
821.721	6.31
822.029	6.42
822.337	6.36
822.645	6.54
822.953	6.67
823.26	6.87
823.568	6.89
823.876	7.03
824.184	7.06
824.491	7.28
824.799	7.26
825.107	7.4
825.414	7.47
825.722	7.51
826.029	7.41
826.337	7.41
826.644	7.34
826.951	7.23
827.259	7.2
827.566	7.44
827.873	7.49
828.18	7.49
828.488	7.44
828.795	7.34
829.102	7.11
829.409	7.13
829.716	7.06
830.023	7.02
830.329	7.03
830.636	6.87
830.943	6.51
831.25	6.94
831.557	6.58
831.863	6.33
832.17	6.64
832.476	6.87
832.783	7.19
833.089	6.78
833.396	6.6
833.702	6.67
834.009	6.14
834.315	6.22
834.621	6.45
834.928	6.23
835.234	6.51
835.54	6.45
835.846	6.09
836.152	5.69
836.458	5.45
836.764	5.74
837.07	5.94
837.376	6.09
837.682	5.46
837.988	5.95
838.293	5.67
838.599	5.05
838.905	5.31
839.211	4.65
839.516	4.88
839.822	4.68
840.127	3.78
840.433	4.17
840.738	3.8
841.044	3.61
841.349	3.64
841.654	3.64
841.959	4.38
842.265	4.78
842.57	6.66
842.875	6.84
843.18	5.18
843.485	5.68
843.79	5.27
844.095	6.33
844.4	5.21
844.705	4.7
845.01	5.82
845.315	4.89
845.619	5.25
845.924	5.1
846.229	5.98
846.533	6.89
846.838	7.08
847.142	6.67
847.447	6.21
847.751	6.05
848.056	6.78
848.36	5.48
848.664	5.27
848.969	1.82
849.273	1.02
849.577	2.54
849.881	1.79
850.185	0.91
850.489	-0.81
850.794	0.22
851.097	1.85
851.401	0.47
851.705	0.71
852.009	0.86
852.313	-1.34
852.617	-3.2
852.92	-2.82
853.224	-4.34
853.528	-3.6
853.831	-4.29
854.135	-3.07
854.438	-5.65
854.742	-6.25
855.045	-6.8
855.349	-7.38
855.652	-5.31
855.955	-6.21
856.259	-4.82
856.562	-2.51
856.865	-0.09
857.168	0.76
857.471	-0.01
857.774	0.3
858.077	-0.91
858.38	-1.33
858.683	3.93
858.986	5.8
859.289	5.36
859.592	7.52
859.894	8.08
860.197	8.46
860.5	6.44
860.802	6.41
861.105	7.97
861.407	10.05
861.71	13.26
862.012	13.48
862.315	14.57
862.617	13.2
862.919	13.76
863.222	11.01
863.524	10.8
863.826	11.09
864.128	13.51
864.43	13.41
864.732	14.42
865.034	11.12
865.336	9.54
865.638	8.39
865.94	6.84
866.242	5.96
866.544	8.72
866.846	9.43
867.147	13.11
867.449	11.53
867.751	11.1
868.052	9.94
868.354	9.84
868.655	9.98
868.957	9.18
869.258	5.67
869.56	5.83
869.861	4.13
870.162	5.05
870.463	2.69
870.765	3.26
871.066	0.55
871.367	0.38
871.668	-0.54
871.969	-1.48
872.27	0.03
872.571	0.25
872.872	-2.65
873.173	0.31
873.473	-2.96
873.774	-0.77
874.075	-1.56
874.376	-2.04
874.676	-1.69
874.977	-2.23
875.277	-2.86
875.578	0.59
875.878	1.16
876.179	2
876.479	0.45
876.78	0.33
877.08	0.76
877.38	2.44
877.68	4.2
877.981	6.94
878.281	10.48
878.581	9.75
