Data from MVZ_BU95633_Reflection_00010.txt Node
Date: Tue Nov 19 12:21:14 EST 2019
User: vgr7
Spectrometer: USB2G7710
Scans to average: 3
Trigger mode: 4
Integration Time (sec): 2.000000E-2
Electric dark correction enabled: true
Boxcar width: 10
XAxis mode: Wavelengths
Number of Pixels in Spectrum: 2048
>>>>>Begin Spectral Data<<<<<
177.721	107.48
178.105	112.08
178.488	221.59
178.871	523.33
179.254	-96.97
179.636	336.32
180.019	241.03
180.402	107.14
180.785	-3.51
181.168	-10.72
181.55	29.1
181.933	73.59
182.316	115.37
182.698	52.09
183.081	113.63
183.463	84.35
183.846	50.05
184.228	77.45
184.611	144.51
184.993	107.53
185.376	155.56
185.758	536.51
186.14	-19.05
186.522	67.35
186.904	29.89
187.287	-275.97
187.669	-3.6
188.051	-53.92
188.433	-157.74
188.815	-88.33
189.197	-83.28
189.579	-66.67
189.961	-75.96
190.342	-92.94
190.724	-91.2
191.106	-69.48
191.488	-55
191.869	-21.46
192.251	-19.83
192.633	-25.61
193.014	-26.73
193.396	-66.67
193.777	-33.41
194.159	-55.77
194.54	-55.21
194.922	-82.48
195.303	-62.43
195.684	-106.32
196.065	-64.03
196.447	-32.74
196.828	-49.06
197.209	-56.11
197.59	-28.71
197.971	-27
198.352	-18.96
198.733	-17
199.114	-3.85
199.495	-5.1
199.876	-18.04
200.257	-18.72
200.638	-13.36
201.018	-20.43
201.399	8.84
201.78	22.49
202.16	27.66
202.541	21.61
202.922	13.46
203.302	8.44
203.683	18.27
204.063	-6.49
204.444	10.42
204.824	8.17
205.204	17.63
205.585	12.31
205.965	23.88
206.345	32.35
206.725	31.99
207.106	35.38
207.486	40.56
207.866	50.53
208.246	44.66
208.626	38.58
209.006	36.19
209.386	27.54
209.766	11.17
210.145	7.53
210.525	8.19
210.905	22.01
211.285	30
211.664	36.74
212.044	45.8
212.424	39.83
212.803	30.37
213.183	28.19
213.562	30.8
213.942	14.9
214.321	-3.65
214.701	-16.12
215.08	-32.02
215.459	-22.97
215.838	-34.38
216.218	-43.97
216.597	-37.51
216.976	-36.42
217.355	-39.91
217.734	-47.09
218.113	-59.76
218.492	-64.32
218.871	-64.6
219.25	-76.45
219.629	-107.09
220.008	-114.95
220.387	-104.91
220.766	-85
221.144	-93.21
221.523	-101.64
221.902	-69.97
222.28	-46.55
222.659	-28.19
223.037	-31.9
223.416	-31.95
223.794	-25.85
224.173	-23.2
224.551	-17.82
224.929	-8.56
225.308	-6.01
225.686	-2.53
226.064	-6.57
226.442	-6.85
226.821	-7.58
227.199	-4.47
227.577	-0.53
227.955	7.26
228.333	8.21
228.711	13.01
229.089	15.68
229.467	14.67
229.845	11.96
230.222	10.77
230.6	12.17
230.978	13.96
231.356	10.79
231.733	11.17
232.111	7.3
232.488	4.74
232.866	2.41
233.243	2.88
233.621	5.09
233.998	7.42
234.376	9.03
234.753	10.72
235.13	8.46
235.508	7.44
235.885	5.89
236.262	5.7
236.639	2.17
237.016	0.48
237.393	0.08
237.77	1.15
238.147	2.01
238.524	1.27
238.901	2.26
239.278	2.57
239.655	2.66
240.032	3.54
240.409	3.8
240.785	3.7
241.162	3.7
241.539	2.85
241.915	2.84
242.292	1.99
242.668	2.25
243.045	2.41
243.421	2.79
243.798	2.53
244.174	2.28
244.551	2.36
244.927	2.29
245.303	2.2
245.679	2.36
246.056	2.23
246.432	2.44
246.808	2.66
247.184	2.45
247.56	2.12
247.936	2.32
248.312	2.18
248.688	2.37
249.064	2.33
249.44	2.27
249.815	2.16
250.191	2.43
250.567	2.13
250.943	2.15
251.318	2.05
251.694	1.93
252.069	1.91
252.445	2.16
252.82	2.35
253.196	2.45
253.571	2.3
253.947	2.22
254.322	1.7
254.697	1.64
255.073	2.18
255.448	2.38
255.823	2.05
256.198	2.33
256.573	2.37
256.948	2.5
257.323	2.7
257.698	2.75
258.073	2.79
258.448	2.92
258.823	2.79
259.198	2.76
259.573	2.7
259.948	2.91
260.322	2.91
260.697	3.02
261.072	2.99
261.446	3.1
261.821	3.17
262.195	3.36
262.57	3.11
262.944	2.9
263.319	3.09
263.693	3.13
264.067	3.31
264.442	3.07
264.816	3.01
265.19	2.96
265.564	2.94
265.938	2.7
266.313	2.61
266.687	2.82
267.061	2.86
267.435	3.24
267.809	3.06
268.183	2.83
268.556	2.49
268.93	2.55
269.304	2.41
269.678	2.39
270.051	2.36
270.425	2.45
270.799	2.53
271.172	2.39
271.546	2.58
271.919	2.48
272.293	2.63
272.666	2.61
273.04	2.59
273.413	2.59
273.787	2.76
274.16	2.69
274.533	2.68
274.906	2.65
275.279	2.44
275.653	2.64
276.026	2.87
276.399	3.07
276.772	3.18
277.145	3.19
277.518	3.25
277.891	3.2
278.263	3.16
278.636	3.09
279.009	3.17
279.382	3.04
279.755	2.89
280.127	2.8
280.5	2.68
280.872	2.65
281.245	2.84
281.617	2.76
281.99	2.74
282.362	2.66
282.735	2.7
283.107	2.8
283.479	2.75
283.852	2.69
284.224	2.61
284.596	2.52
284.968	2.63
285.34	2.61
285.713	2.76
286.085	2.59
286.457	2.76
286.829	2.82
287.201	2.77
287.572	2.78
287.944	2.97
288.316	3.07
288.688	3.28
289.06	3.17
289.431	3.25
289.803	3.43
290.175	3.43
290.546	3.43
290.918	3.25
291.289	2.92
291.661	2.97
292.032	3.09
292.403	3.09
292.775	3.15
293.146	3.23
293.517	3.11
293.889	3.29
294.26	3.18
294.631	3.11
295.002	3.06
295.373	3.18
295.744	3.05
296.115	3.13
296.486	3.06
296.857	3.14
297.228	3.02
297.599	2.96
297.97	3.13
298.34	3.12
298.711	3.47
299.082	3.68
299.452	3.59
299.823	3.53
300.194	3.63
300.564	3.53
300.935	3.51
301.305	3.51
301.676	3.47
302.046	3.53
302.416	3.5
302.787	3.65
303.157	3.62
303.527	3.71
303.897	3.66
304.267	3.48
304.637	3.44
305.008	3.52
305.378	3.63
305.748	3.38
306.117	3.25
306.487	3.04
306.857	3.16
307.227	3.39
307.597	3.51
307.967	3.58
308.336	3.6
308.706	3.66
309.076	3.79
309.445	3.93
309.815	3.95
310.184	4.03
310.554	4.05
310.923	3.98
311.293	4.01
311.662	4.26
312.031	4.38
312.401	4.44
312.77	4.46
313.139	4.46
313.508	4.58
313.877	4.87
314.246	4.89
314.616	4.97
314.985	4.9
315.353	4.91
315.722	4.9
316.091	5.09
316.46	4.96
316.829	5.05
317.198	4.92
317.567	4.96
317.935	4.89
318.304	5.08
318.672	5.17
319.041	5.24
319.41	5.18
319.778	5.28
320.147	5.29
320.515	5.29
320.883	5.25
321.252	5.42
321.62	5.45
321.988	5.56
322.357	5.48
322.725	5.52
323.093	5.56
323.461	5.67
323.829	5.69
324.197	5.82
324.565	5.68
324.933	5.73
325.301	5.72
325.669	5.92
326.037	5.87
326.405	5.8
326.772	5.83
327.14	5.63
327.508	5.62
327.875	5.74
328.243	5.69
328.61	5.66
328.978	5.51
329.346	5.33
329.713	5.33
330.08	5.48
330.448	5.51
330.815	5.48
331.182	5.28
331.55	5.15
331.917	5.15
332.284	5.2
332.651	5.31
333.018	5.32
333.385	5.33
333.752	5.4
334.119	5.45
334.486	5.43
334.853	5.42
335.22	5.29
335.587	5.12
335.954	5.22
336.32	5.33
336.687	5.48
337.054	5.49
337.42	5.49
337.787	5.35
338.153	5.4
338.52	5.41
338.886	5.56
339.253	5.59
339.619	5.61
339.986	5.59
340.352	5.68
340.718	5.76
341.084	5.75
341.451	5.78
341.817	5.93
342.183	5.82
342.549	5.91
342.915	6.12
343.281	6.19
343.647	6.33
344.013	6.25
344.379	6.12
344.745	6.19
345.11	6.28
345.476	6.38
345.842	6.28
346.208	6.31
346.573	6.26
346.939	6.33
347.304	6.35
347.67	6.35
348.035	6.36
348.401	6.4
348.766	6.36
349.132	6.31
349.497	6.31
349.862	6.38
350.228	6.27
350.593	6.21
350.958	6.2
351.323	6.05
351.688	6.18
352.053	6.27
352.418	6.3
352.783	6.25
353.148	6.25
353.513	6.29
353.878	6.28
354.243	6.21
354.608	6.18
354.972	6.15
355.337	6.16
355.702	6.06
356.066	5.9
356.431	5.85
356.795	5.93
357.16	5.89
357.524	5.85
357.889	5.91
358.253	5.89
358.618	5.88
358.982	5.86
359.346	5.72
359.71	5.67
360.075	5.65
360.439	5.64
360.803	5.67
361.167	5.62
361.531	5.64
361.895	5.66
362.259	5.67
362.623	5.66
362.987	5.69
363.351	5.63
363.714	5.66
364.078	5.68
364.442	5.61
364.806	5.59
365.169	5.59
365.533	5.64
365.896	5.67
366.26	5.6
366.623	5.63
366.987	5.68
367.35	5.63
367.714	5.59
368.077	5.54
368.44	5.45
368.803	5.36
369.167	5.24
369.53	5.21
369.893	5.21
370.256	5.14
370.619	5.05
370.982	5.03
371.345	4.99
371.708	4.94
372.071	4.82
372.434	4.78
372.797	4.75
373.159	4.71
373.522	4.63
373.885	4.67
374.247	4.63
374.61	4.67
374.973	4.67
375.335	4.66
375.698	4.59
376.06	4.55
376.423	4.62
376.785	4.57
377.147	4.55
377.51	4.48
377.872	4.48
378.234	4.51
378.596	4.51
378.958	4.52
379.321	4.48
379.683	4.52
380.045	4.52
380.407	4.49
380.769	4.39
381.13	4.36
381.492	4.31
381.854	4.28
382.216	4.2
382.578	4.19
382.939	4.13
383.301	4.08
383.663	4.08
384.024	4.04
384.386	4.08
384.747	4.05
385.109	4.04
385.47	4.1
385.832	4.01
386.193	3.96
386.554	3.88
386.916	3.91
387.277	3.86
387.638	3.79
387.999	3.81
388.36	3.85
388.721	3.86
389.082	3.85
389.443	3.84
389.804	3.79
390.165	3.75
390.526	3.78
390.887	3.82
391.248	3.79
391.609	3.81
391.969	3.83
392.33	3.83
392.691	3.81
393.051	3.74
393.412	3.76
393.772	3.76
394.133	3.79
394.493	3.74
394.854	3.72
395.214	3.69
395.574	3.66
395.935	3.63
396.295	3.55
396.655	3.5
397.015	3.49
397.376	3.48
397.736	3.46
398.096	3.46
398.456	3.42
398.816	3.41
399.176	3.33
399.535	3.28
399.895	3.23
400.255	3.2
400.615	3.2
400.975	3.19
401.334	3.21
401.694	3.19
402.054	3.16
402.413	3.17
402.773	3.17
403.132	3.13
403.492	3.14
403.851	3.15
404.211	3.18
404.57	3.17
404.929	3.15
405.288	3.14
405.648	3.11
406.007	3.11
406.366	3.1
406.725	3.1
407.084	3.1
407.443	3.13
407.802	3.11
408.161	3.08
408.52	3.07
408.879	3.07
409.238	3.05
409.596	3.1
409.955	3.09
410.314	3.12
410.673	3.11
411.031	3.12
411.39	3.12
411.748	3.08
412.107	3.06
412.465	3.09
412.824	3.09
413.182	3.08
413.54	3.1
413.899	3.09
414.257	3.1
414.615	3.1
414.974	3.09
415.332	3.12
415.69	3.1
416.048	3.1
416.406	3.04
416.764	3.05
417.122	3.02
417.48	3.01
417.838	3.01
418.195	3.02
418.553	2.97
418.911	2.94
419.269	2.94
419.626	2.93
419.984	2.92
420.342	2.92
420.699	2.92
421.057	2.91
421.414	2.92
421.772	2.91
422.129	2.9
422.486	2.86
422.844	2.85
423.201	2.84
423.558	2.83
423.915	2.84
424.273	2.84
424.63	2.84
424.987	2.81
425.344	2.8
425.701	2.79
426.058	2.79
426.415	2.81
426.772	2.8
427.128	2.8
427.485	2.8
427.842	2.79
428.199	2.79
428.555	2.77
428.912	2.75
429.269	2.73
429.625	2.73
429.982	2.74
430.338	2.75
430.695	2.75
431.051	2.78
431.407	2.78
431.764	2.77
432.12	2.77
432.476	2.81
432.832	2.79
433.189	2.79
433.545	2.81
433.901	2.79
434.257	2.82
434.613	2.84
434.969	2.85
435.325	2.86
435.681	2.85
436.036	2.86
436.392	2.86
436.748	2.87
437.104	2.86
437.459	2.87
437.815	2.87
438.171	2.88
438.526	2.88
438.882	2.88
439.237	2.88
439.593	2.87
439.948	2.84
440.304	2.85
440.659	2.85
441.014	2.85
441.369	2.87
441.725	2.86
442.08	2.84
442.435	2.82
442.79	2.81
443.145	2.81
443.5	2.82
443.855	2.79
444.21	2.8
444.565	2.81
444.92	2.8
445.275	2.8
445.629	2.8
445.984	2.79
446.339	2.79
446.693	2.78
447.048	2.79
447.403	2.8
447.757	2.8
448.112	2.8
448.466	2.81
448.82	2.78
449.175	2.78
449.529	2.79
449.883	2.79
450.238	2.81
450.592	2.8
450.946	2.79
451.3	2.82
451.654	2.8
452.008	2.8
452.362	2.8
452.716	2.79
453.07	2.78
453.424	2.76
453.778	2.76
454.132	2.75
454.486	2.75
454.839	2.74
455.193	2.74
455.547	2.74
455.9	2.75
456.254	2.75
456.607	2.75
456.961	2.73
457.314	2.75
457.668	2.74
458.021	2.74
458.375	2.74
458.728	2.73
459.081	2.76
459.434	2.73
459.787	2.76
460.141	2.76
460.494	2.78
460.847	2.77
461.2	2.78
461.553	2.78
461.906	2.8
462.259	2.8
462.611	2.79
462.964	2.81
463.317	2.81
463.67	2.84
464.022	2.85
464.375	2.86
464.728	2.85
465.08	2.85
465.433	2.84
465.785	2.86
466.138	2.88
466.49	2.84
466.843	2.89
467.195	2.87
467.547	2.87
467.899	2.85
468.252	2.87
468.604	2.84
468.956	2.86
469.308	2.85
469.66	2.85
470.012	2.86
470.364	2.88
470.716	2.87
471.068	2.86
471.42	2.86
471.772	2.88
472.123	2.88
472.475	2.9
472.827	2.9
473.178	2.91
473.53	2.92
473.882	2.94
474.233	2.92
474.585	2.94
474.936	2.93
475.288	2.95
475.639	2.95
475.99	2.97
476.342	2.99
476.693	2.98
477.044	3
477.395	3.01
477.746	2.99
478.097	3.02
478.448	3
478.8	3
479.15	2.99
479.501	2.98
479.852	2.96
480.203	2.96
480.554	2.97
480.905	2.97
481.255	2.95
481.606	2.96
481.957	2.97
482.307	2.97
482.658	2.96
483.009	2.96
483.359	2.95
483.709	2.95
484.06	2.95
484.41	2.95
484.761	2.96
485.111	2.96
485.461	2.95
485.811	2.95
486.162	2.95
486.512	2.95
486.862	2.96
487.212	2.96
487.562	2.97
487.912	2.96
488.262	2.95
488.612	2.97
488.961	2.98
489.311	2.97
489.661	2.98
490.011	2.98
490.36	2.98
490.71	3
491.06	3
491.409	2.99
491.759	2.99
492.108	2.98
492.458	2.97
492.807	2.97
493.157	2.99
493.506	3
493.855	3.01
494.204	3
494.554	3.01
494.903	3
495.252	3
495.601	3.05
495.95	3.06
496.299	3.06
496.648	3.1
496.997	3.12
497.346	3.15
497.695	3.18
498.043	3.21
498.392	3.23
498.741	3.27
499.09	3.33
499.438	3.37
499.787	3.42
500.135	3.46
500.484	3.49
500.832	3.53
501.181	3.59
501.529	3.65
501.878	3.7
502.226	3.77
502.574	3.83
502.923	3.87
503.271	3.91
503.619	3.99
503.967	4.04
504.315	4.13
504.663	4.22
505.011	4.31
505.359	4.38
505.707	4.47
506.055	4.56
506.403	4.66
506.751	4.74
507.098	4.83
507.446	4.95
507.794	5.07
508.141	5.19
508.489	5.31
508.837	5.42
509.184	5.54
509.531	5.66
509.879	5.8
510.226	5.96
510.574	6.1
510.921	6.24
511.268	6.38
511.616	6.54
511.963	6.71
512.31	6.87
512.657	7.04
513.004	7.24
513.351	7.46
513.698	7.67
514.045	7.92
514.392	8.15
514.739	8.38
515.086	8.59
515.432	8.83
515.779	9.07
516.126	9.32
516.473	9.56
516.819	9.77
517.166	10
517.512	10.19
517.859	10.39
518.205	10.58
518.552	10.78
518.898	10.99
519.245	11.18
519.591	11.38
519.937	11.6
520.283	11.83
520.629	12.03
520.976	12.25
521.322	12.48
521.668	12.72
522.014	13
522.36	13.28
522.706	13.56
523.052	13.84
523.398	14.14
523.743	14.47
524.089	14.81
524.435	15.07
524.781	15.36
525.126	15.63
525.472	15.9
525.817	16.12
526.163	16.32
526.509	16.51
526.854	16.7
527.199	16.87
527.545	17.02
527.89	17.19
528.235	17.38
528.581	17.55
528.926	17.74
529.271	17.89
529.616	18.05
529.961	18.21
530.306	18.38
530.651	18.57
530.996	18.74
531.341	18.94
531.686	19.18
532.031	19.38
532.376	19.61
532.721	19.8
533.065	20.04
533.41	20.26
533.755	20.48
534.099	20.7
534.444	20.93
534.788	21.15
535.133	21.39
535.477	21.56
535.822	21.77
536.166	22
536.51	22.26
536.855	22.51
537.199	22.79
537.543	23.05
537.887	23.3
538.231	23.6
538.576	23.86
538.92	24.1
539.264	24.34
539.608	24.53
539.951	24.77
540.295	24.98
540.639	25.19
540.983	25.37
541.327	25.56
541.671	25.75
542.014	25.98
542.358	26.17
542.701	26.38
543.045	26.56
543.389	26.74
543.732	26.89
544.075	27.06
544.419	27.24
544.762	27.41
545.105	27.62
545.449	27.8
545.792	28.04
546.135	28.25
546.478	28.45
546.821	28.71
547.165	28.9
547.508	29.12
547.851	29.31
548.194	29.56
548.536	29.81
548.879	30.02
549.222	30.21
549.565	30.37
549.908	30.51
550.25	30.74
550.593	30.93
550.936	31.14
551.278	31.35
551.621	31.56
551.963	31.81
552.306	31.97
552.648	32.13
552.991	32.25
553.333	32.38
553.675	32.58
554.017	32.73
554.36	32.95
554.702	33.02
555.044	33.2
555.386	33.37
555.728	33.52
556.07	33.65
556.412	33.75
556.754	33.91
557.096	34.14
557.438	34.3
557.78	34.47
558.121	34.67
558.463	34.88
558.805	35.09
559.147	35.2
559.488	35.38
559.83	35.51
560.171	35.64
560.513	35.83
560.854	35.97
561.196	36.15
561.537	36.17
561.878	36.43
562.22	36.58
562.561	36.7
562.902	36.85
563.243	37
563.584	37.16
563.925	37.33
564.266	37.4
564.607	37.51
564.948	37.61
565.289	37.71
565.63	37.85
565.971	37.96
566.312	38.08
566.653	38.16
566.993	38.24
567.334	38.34
567.675	38.37
568.015	38.45
568.356	38.45
568.696	38.61
569.037	38.68
569.377	38.73
569.718	38.84
570.058	38.91
570.398	38.99
570.739	39.04
571.079	39.11
571.419	39.24
571.759	39.32
572.099	39.38
572.439	39.46
572.779	39.46
573.119	39.52
573.459	39.59
573.799	39.71
574.139	39.8
574.479	39.92
574.819	40.02
575.158	40.11
575.498	40.22
575.838	40.25
576.177	40.29
576.517	40.4
576.856	40.44
577.196	40.58
577.535	40.7
577.875	40.75
578.214	40.88
578.553	40.92
578.893	40.96
579.232	41.09
579.571	41.17
579.91	41.3
580.25	41.36
580.589	41.47
580.928	41.58
581.267	41.62
581.606	41.65
581.945	41.82
582.283	41.89
582.622	41.96
582.961	42.07
583.3	42.13
583.639	42.23
583.977	42.35
584.316	42.35
584.654	42.42
584.993	42.51
585.332	42.55
585.67	42.64
586.008	42.75
586.347	42.74
586.685	42.81
587.024	42.91
587.362	42.93
587.7	43
588.038	43.05
588.376	43.15
588.715	43.27
589.053	43.28
589.391	43.39
589.729	43.46
590.067	43.53
590.404	43.61
590.742	43.67
591.08	43.69
591.418	43.76
591.756	43.78
592.093	43.88
592.431	43.97
592.769	43.99
593.106	44.08
593.444	44.22
593.781	44.24
594.119	44.23
594.456	44.32
594.793	44.36
595.131	44.39
595.468	44.44
595.805	44.45
596.143	44.54
596.48	44.59
596.817	44.63
597.154	44.7
597.491	44.75
597.828	44.81
598.165	44.83
598.502	44.89
598.839	44.88
599.176	44.93
599.512	44.93
599.849	45.06
600.186	45.08
600.523	45.15
600.859	45.33
601.196	45.41
601.532	45.47
601.869	45.53
602.205	45.56
602.542	45.64
602.878	45.71
603.215	45.67
603.551	45.63
603.887	45.69
604.223	45.76
604.56	45.72
604.896	45.73
605.232	45.73
605.568	45.71
605.904	45.85
606.24	45.83
606.576	45.9
606.912	45.92
607.248	45.97
607.583	45.94
607.919	45.86
608.255	45.91
608.591	45.92
608.926	45.98
609.262	45.96
609.597	45.98
609.933	45.98
610.268	46.06
610.604	46.16
610.939	46.2
611.275	46.26
611.61	46.41
611.945	46.45
612.281	46.57
612.616	46.66
612.951	46.56
613.286	46.64
613.621	46.67
613.956	46.68
614.291	46.74
614.626	46.84
614.961	46.88
615.296	46.92
615.631	46.97
615.966	46.92
616.3	47.04
616.635	47.05
616.97	47.08
617.304	47.22
617.639	47.23
617.973	47.22
618.308	47.14
618.642	47.13
618.977	47.13
619.311	47.22
619.646	47.2
619.98	47.36
620.314	47.47
620.648	47.49
620.983	47.51
621.317	47.53
621.651	47.55
621.985	47.6
622.319	47.62
622.653	47.74
622.987	47.87
623.321	47.93
623.655	48
623.988	48.03
624.322	48
624.656	48.01
624.99	47.99
625.323	47.95
625.657	48.01
625.99	47.97
626.324	47.95
626.657	48.03
626.991	48.12
627.324	48
627.658	48
627.991	48.05
628.324	48.02
628.657	48.03
628.991	48.02
629.324	47.99
629.657	47.96
629.99	47.9
630.323	47.76
630.656	47.77
630.989	47.79
631.322	47.85
631.655	47.92
631.987	48.04
632.32	48.22
632.653	48.24
632.986	48.25
633.318	48.3
633.651	48.37
633.984	48.23
634.316	48.31
634.649	48.31
634.981	48.28
635.313	48.34
635.646	48.41
635.978	48.43
636.31	48.46
636.643	48.36
636.975	48.41
637.307	48.62
637.639	48.57
637.971	48.53
638.303	48.45
638.635	48.46
638.967	48.43
639.299	48.4
639.631	48.33
639.963	48.43
640.295	48.35
640.626	48.18
640.958	48.31
641.29	48.25
641.621	48.31
641.953	48.29
642.285	48.32
642.616	48.4
642.948	48.42
643.279	48.54
643.61	48.75
643.942	48.74
644.273	48.71
644.604	48.71
644.936	48.79
645.267	48.77
645.598	48.66
645.929	48.67
646.26	48.67
646.591	48.71
646.922	48.79
647.253	48.83
647.584	48.93
647.915	48.9
648.245	49.06
648.576	49.08
648.907	49.21
649.238	49.13
649.568	49.05
649.899	49.08
650.229	49.01
650.56	48.96
650.89	49.02
651.221	49.01
651.551	49.07
651.882	49.22
652.212	49.2
652.542	49.36
652.872	49.38
653.203	49.38
653.533	49.44
653.863	49.43
654.193	49.53
654.523	49.58
654.853	49.59
655.183	49.68
655.513	49.76
655.843	49.7
656.172	49.81
656.502	49.73
656.832	49.77
657.162	49.81
657.491	49.79
657.821	49.74
658.15	49.73
658.48	49.76
658.809	49.54
659.139	49.63
659.468	49.62
659.798	49.67
660.127	49.66
660.456	49.7
660.785	49.71
661.115	49.72
661.444	49.76
661.773	49.78
662.102	49.71
662.431	49.7
662.76	49.65
663.089	49.73
663.418	49.84
663.747	49.91
664.076	49.92
664.404	49.86
664.733	49.92
665.062	49.99
665.39	49.85
665.719	49.95
666.048	50.11
666.376	50.01
666.705	50
667.033	50.12
667.362	49.96
667.69	50.03
668.018	49.96
668.347	49.92
668.675	49.94
669.003	49.81
669.331	49.86
669.659	50.01
669.987	49.93
670.315	49.94
670.643	49.9
670.971	49.93
671.299	50.1
671.627	50.25
671.955	50.28
672.283	50.33
672.61	50.4
672.938	50.35
673.266	50.44
673.593	50.35
673.921	50.36
674.249	50.47
674.576	50.5
674.904	50.54
675.231	50.59
675.558	50.7
675.886	50.84
676.213	50.85
676.54	50.76
676.867	50.72
677.195	50.82
677.522	50.8
677.849	50.84
678.176	50.84
678.503	50.79
678.83	50.72
679.157	50.86
679.484	50.88
679.81	50.88
680.137	50.88
680.464	50.86
680.791	50.94
681.117	51.06
681.444	51.01
681.771	50.94
682.097	50.95
682.424	50.89
682.75	50.96
683.077	50.92
683.403	50.96
683.729	50.97
684.056	50.9
684.382	50.88
684.708	50.85
685.034	50.9
685.36	50.91
685.686	50.81
686.012	50.91
686.339	50.96
686.664	51.04
686.99	51.02
687.316	51.23
687.642	51.15
687.968	51.07
688.294	51.08
688.619	51.2
688.945	51.27
689.271	51.31
689.596	51.29
689.922	51.29
690.247	51.45
690.573	51.39
690.898	51.36
691.224	51.44
691.549	51.48
691.874	51.31
692.2	51.17
692.525	51.23
692.85	51.17
693.175	51.2
693.5	51.08
693.825	51.17
694.15	50.99
694.475	50.99
694.8	51.07
695.125	51.27
695.45	51.11
695.775	51.01
696.099	51.05
696.424	50.95
696.749	50.94
697.073	50.94
697.398	51.15
697.723	51.31
698.047	51.18
698.372	51.16
698.696	51.19
699.02	51.35
699.345	51.41
699.669	51.41
699.993	51.33
700.318	51.33
700.642	51.36
700.966	51.55
701.29	51.54
701.614	51.53
701.938	51.41
702.262	51.47
702.586	51.44
702.91	51.32
703.234	51.57
703.557	51.55
703.881	51.44
704.205	51.35
704.529	51.22
704.852	51.43
705.176	51.45
705.499	51.38
705.823	51.29
706.146	51.56
706.47	51.5
706.793	51.5
707.117	51.53
707.44	51.43
707.763	51.37
708.086	51.4
708.409	51.07
708.733	50.97
709.056	51.14
709.379	51.26
709.702	51.46
710.025	51.45
710.348	51.59
710.671	51.59
710.993	51.55
711.316	51.57
711.639	51.52
711.962	51.53
712.284	51.6
712.607	51.6
712.93	51.33
713.252	51.35
713.575	51.3
713.897	51.26
714.22	51.41
714.542	51.56
714.864	51.48
715.187	51.82
715.509	51.96
715.831	51.96
716.153	51.96
716.475	51.79
716.798	51.68
717.12	51.57
717.442	51.52
717.764	51.55
718.085	51.57
718.407	51.56
718.729	51.49
719.051	51.62
719.373	51.6
719.695	51.62
720.016	51.49
720.338	51.56
720.659	51.72
720.981	51.35
721.302	51.34
721.624	51.33
721.945	51.27
722.267	51.2
722.588	51.08
722.909	51.06
723.231	51.5
723.552	51.71
723.873	51.8
724.194	51.82
724.515	52.08
724.836	51.88
725.157	51.89
725.478	51.87
725.799	51.79
726.12	51.82
726.441	52.08
726.762	52.08
727.083	52.4
727.403	52.11
727.724	52.16
728.045	52.09
728.365	52.17
728.686	52.12
729.006	52.18
729.327	52.57
729.647	52.68
729.967	52.33
730.288	52.05
730.608	52.27
730.928	52.46
731.249	52.23
731.569	52.42
731.889	52.42
732.209	52.69
732.529	52.77
732.849	52.7
733.169	52.74
733.489	52.82
733.809	52.44
734.129	52.64
734.448	52.93
734.768	52.98
735.088	53.12
735.408	53.18
735.727	53.06
736.047	52.84
736.366	52.86
736.686	52.86
737.005	53.01
737.325	52.61
737.644	52.38
737.963	52.47
738.283	52.54
738.602	52.86
738.921	52.65
739.24	52.5
739.56	52.52
739.879	52.49
740.198	52.49
740.517	53.08
740.836	53.05
741.155	53.32
741.473	53.08
741.792	52.82
742.111	52.93
742.43	53.03
742.748	53.17
743.067	53.23
743.386	53.36
743.704	53.23
744.023	53.8
744.341	54
744.66	53.98
744.978	54.02
745.297	53.8
745.615	53.58
745.933	53.76
746.252	53.94
746.57	53.93
746.888	53.55
747.206	52.97
747.524	53.16
747.842	52.62
748.16	52.94
748.478	53.11
748.796	52.95
749.114	53.03
749.432	52.98
749.749	52.7
750.067	52.79
750.385	52.91
750.703	52.4
751.02	52.13
751.338	52.08
751.655	51.91
751.973	51.69
752.29	51.91
752.608	51.69
752.925	51.58
753.242	51.56
753.56	51.87
753.877	51.81
754.194	51.55
754.511	51.75
754.828	51.76
755.145	51.98
755.462	52.1
755.779	51.91
756.096	51.89
756.413	51.95
756.73	51.71
757.047	51.99
757.364	52.29
757.68	52.37
757.997	52.44
758.314	52.52
758.63	52.9
758.947	53.27
759.264	53.6
759.58	53.95
759.896	53.84
760.213	53.86
760.529	54.31
760.846	54.36
761.162	54.26
761.478	54.08
761.794	53.95
762.11	54.19
762.426	54.29
762.743	53.99
763.059	54.12
763.375	54.21
763.69	53.85
764.006	53.75
764.322	53.99
764.638	54.19
764.954	54.36
765.27	54.46
765.585	54.31
765.901	54.28
766.216	53.98
766.532	54.29
766.848	54.49
767.163	54.31
767.478	54.56
767.794	54.62
768.109	54.63
768.424	54.65
768.74	54.56
769.055	54.38
769.37	54.88
769.685	54.75
770	54.84
770.315	55.3
770.63	55.08
770.945	54.73
771.26	54.72
771.575	54.25
771.89	53.74
772.205	53.56
772.52	53.58
772.834	53.87
773.149	52.96
773.464	52.46
773.778	52.72
774.093	52.39
774.407	52.29
774.722	52.32
775.036	52.4
775.351	51.85
775.665	52.03
775.979	51.92
776.293	51.8
776.608	51.13
776.922	50.91
777.236	51.28
777.55	51.6
777.864	51.17
778.178	51.29
778.492	51.68
778.806	51.89
779.12	51.62
779.434	51.32
779.747	51.72
780.061	52.1
780.375	51.66
780.689	51.84
781.002	52.03
781.316	51.98
781.629	51.6
781.943	51.54
782.256	51.64
782.57	51.12
782.883	51.41
783.196	51.76
783.51	51.27
783.823	51.53
784.136	51.31
784.449	51.35
784.762	51.76
785.075	51.77
785.388	51.68
785.701	51.29
786.014	51.8
786.327	51.84
786.64	51.58
786.953	51.74
787.266	51.96
787.578	52.11
787.891	52.18
788.204	52.49
788.516	52.82
788.829	52.74
789.141	53.54
789.454	52.55
789.766	53.43
790.079	53.79
790.391	53.58
790.703	54.07
791.016	54.43
791.328	54.45
791.64	54.19
791.952	54.33
792.264	54.59
792.576	54.03
792.888	54.16
793.2	54.16
793.512	53.97
793.824	53.61
794.136	52.95
794.448	52.55
794.76	52.21
795.071	52.81
795.383	52.61
795.695	52.05
796.006	52.93
796.318	52.69
796.629	52.89
796.941	52.88
797.252	52.16
797.564	52.1
797.875	51.56
798.186	51.15
798.497	51.09
798.809	51
799.12	51.21
799.431	51.03
799.742	51.55
800.053	51.87
800.364	52.29
800.675	53.04
800.986	52.88
801.297	52.86
801.608	52.51
801.918	52.51
802.229	52.11
802.54	51.69
802.851	51.96
803.161	52.15
803.472	51.84
803.782	51.93
804.093	52.07
804.403	52.3
804.714	52.72
805.024	52.32
805.334	53.18
805.645	53.16
805.955	53.42
806.265	53.51
806.575	53.31
806.885	52.79
807.195	52.74
807.505	52.75
807.815	52.44
808.125	52.57
808.435	52.89
808.745	53.28
809.055	54.74
809.365	54.84
809.674	54.35
809.984	54.88
810.294	55.1
810.603	54.87
810.913	54.4
811.222	54.04
811.532	54.48
811.841	54.18
812.151	53.51
812.46	53.34
812.769	53.36
813.079	53.41
813.388	53.32
813.697	52.98
814.006	53.72
814.315	54.57
814.624	54.41
814.933	54.3
815.242	54.43
815.551	54.34
815.86	53.54
816.169	53.94
816.478	53.6
816.786	53.06
817.095	53.04
817.404	53.14
817.712	53.8
818.021	53.38
818.33	53.29
818.638	54.56
818.947	54.93
819.255	54.57
819.563	54.8
819.872	54.72
820.18	55.31
820.488	55.27
820.796	55.27
821.105	55.47
821.413	55.63
821.721	55.64
822.029	55.23
822.337	55.36
822.645	55.67
822.953	55.63
823.26	55.92
823.568	55.78
823.876	55.92
824.184	55.73
824.491	55.92
824.799	56.06
825.107	56.07
825.414	55.9
825.722	55.82
826.029	55.66
826.337	55.84
826.644	55.54
826.951	55.43
827.259	55.55
827.566	55.34
827.873	55.11
828.18	55.18
828.488	55.37
828.795	55.04
829.102	54.76
829.409	54.6
829.716	54.56
830.023	54.73
830.329	54.75
830.636	55.25
830.943	55.07
831.25	54.42
831.557	53.6
831.863	53.99
832.17	54.71
832.476	55.1
832.783	55
833.089	54.96
833.396	55.27
833.702	55.1
834.009	55.32
834.315	55.72
834.621	55.32
834.928	54.93
835.234	55.12
835.54	54.48
835.846	54.68
836.152	54.22
836.458	54.05
836.764	53.91
837.07	53.7
837.376	53.76
837.682	53.69
837.988	54.03
838.293	53.71
838.599	53.23
838.905	52.44
839.211	52.05
839.516	51.76
839.822	51.39
840.127	50.22
840.433	49.85
840.738	49.07
841.044	49.86
841.349	50.87
841.654	50.42
841.959	51.06
842.265	51.71
842.57	51.76
842.875	51.19
843.18	51.46
843.485	50.75
843.79	51.52
844.095	52.17
844.4	52.86
844.705	53.34
845.01	52.04
845.315	52.09
845.619	53.77
845.924	54.01
846.229	54.58
846.533	55.72
846.838	56.13
847.142	55.94
847.447	55.81
847.751	54.29
848.056	55.69
848.36	56.52
848.664	55.71
848.969	55.88
849.273	56.44
849.577	56.21
849.881	56.05
850.185	54.56
850.489	56.4
850.794	55.45
851.097	54.27
851.401	55.89
851.705	55.26
852.009	54.29
852.313	54.88
852.617	54.45
852.92	56.29
853.224	57
853.528	59.82
853.831	59.08
854.135	58.31
854.438	57.14
854.742	53.9
855.045	53.39
855.349	54.09
855.652	55.04
855.955	53.46
856.259	54.49
856.562	53.61
856.865	52.94
857.168	53.48
857.471	54.24
857.774	51.37
858.077	55.39
858.38	55.66
858.683	57.13
858.986	57.26
859.289	55.65
859.592	53.36
859.894	51.38
860.197	50.14
860.5	52.04
860.802	52.48
861.105	54.27
861.407	56.87
861.71	55.59
862.012	52.78
862.315	53.38
862.617	52.84
862.919	53.83
863.222	51.6
863.524	52.03
863.826	49.7
864.128	53.15
864.43	51.54
864.732	50.83
865.034	47.86
865.336	47.32
865.638	48.44
865.94	50.14
866.242	50.45
866.544	51.63
866.846	51.93
867.147	52.65
867.449	53.91
867.751	50.34
868.052	51.6
868.354	55.08
868.655	55.63
868.957	54.29
869.258	53.48
869.56	55.64
869.861	54.97
870.162	55.32
870.463	54.42
870.765	53.6
871.066	53.17
871.367	53.52
871.668	56.04
871.969	53.11
872.27	50.44
872.571	51.24
872.872	51.16
873.173	52.32
873.473	52.58
873.774	48.92
874.075	51.25
874.376	49.76
874.676	48.45
874.977	47.94
875.277	48.34
875.578	48.06
875.878	47.38
876.179	47.38
876.479	49.08
876.78	49.27
877.08	49.34
877.38	48
877.68	50.2
877.981	47.72
878.281	50.42
878.581	52.32
