Data from MVZ_BU34099_Reflection_00008.txt Node
Date: Tue Nov 19 12:15:35 EST 2019
User: vgr7
Spectrometer: USB2G7710
Scans to average: 3
Trigger mode: 4
Integration Time (sec): 2.000000E-2
Electric dark correction enabled: true
Boxcar width: 10
XAxis mode: Wavelengths
Number of Pixels in Spectrum: 2048
>>>>>Begin Spectral Data<<<<<
177.721	444.36
178.105	-443.1
178.488	-839.25
178.871	20.75
179.254	181.82
179.636	-93.07
180.019	-6.23
180.402	-350
180.785	-57.55
181.168	-96.34
181.55	2292.31
181.933	987.76
182.316	204.65
182.698	8.84
183.081	211.94
183.463	-707.69
183.846	129.8
184.228	436.73
184.611	1600
184.993	-542.86
185.376	-38.23
185.758	34.54
186.14	83.64
186.522	-14.85
186.904	-22.07
187.287	-31.16
187.669	9.82
188.051	-1.62
188.433	-2.14
188.815	45.01
189.197	20.37
189.579	30.64
189.961	39.45
190.342	24.95
190.724	5.96
191.106	18.15
191.488	13.15
191.869	15.71
192.251	18.52
192.633	7.44
193.014	11.62
193.396	10.13
193.777	-1.02
194.159	9.23
194.54	15.47
194.922	6.75
195.303	0.81
195.684	-30.25
196.065	-21.62
196.447	-16.53
196.828	-27.47
197.209	-30.76
197.59	-20.79
197.971	-28.67
198.352	-46.15
198.733	-38.09
199.114	-42.65
199.495	-49.08
199.876	-50.87
200.257	-46.72
200.638	-55.48
201.018	-61.88
201.399	-40.76
201.78	-38.01
202.16	-48.63
202.541	-61.56
202.922	-66.99
203.302	-80.73
203.683	-72.92
204.063	-65.37
204.444	-61.98
204.824	-59.4
205.204	-28.07
205.585	-46.5
205.965	-56.69
206.345	-38.21
206.725	-39.01
207.106	-31.98
207.486	-35.33
207.866	-30.99
208.246	-27.36
208.626	-28.23
209.006	-24.01
209.386	-31.06
209.766	-31.42
210.145	-24.73
210.525	-25.33
210.905	-14.92
211.285	-2.54
211.664	9.79
212.044	10.96
212.424	14.45
212.803	8.93
213.183	4.71
213.562	15.27
213.942	20.13
214.321	18.22
214.701	19.34
215.08	6.96
215.459	27.96
215.838	37.81
216.218	30.05
216.597	42.33
216.976	46.86
217.355	47.38
217.734	53.6
218.113	50.76
218.492	52.04
218.871	50.11
219.25	53.59
219.629	41.63
220.008	50.97
220.387	45.98
220.766	33.62
221.144	24.34
221.523	23.41
221.902	35.74
222.28	41.58
222.659	31.03
223.037	33.47
223.416	29.23
223.794	31.14
224.173	26.54
224.551	23.41
224.929	19.84
225.308	10.23
225.686	8.63
226.064	3.89
226.442	7.43
226.821	7.92
227.199	10.41
227.577	9.74
227.955	6.85
228.333	2.63
228.711	5.55
229.089	7.54
229.467	6.98
229.845	4.38
230.222	2.97
230.6	4.27
230.978	4.27
231.356	4.18
231.733	3.87
232.111	6.07
232.488	7.57
232.866	8.99
233.243	10.02
233.621	10.72
233.998	10.44
234.376	9.32
234.753	8.67
235.13	7.18
235.508	9.82
235.885	9.21
236.262	11.08
236.639	9
237.016	9.07
237.393	8.67
237.77	8.67
238.147	8.82
238.524	9.04
238.901	8.51
239.278	7.21
239.655	7.01
240.032	6.99
240.409	6.36
240.785	5.62
241.162	5.42
241.539	4.83
241.915	5.05
242.292	5.68
242.668	5.37
243.045	5.25
243.421	5.5
243.798	5.76
244.174	5.48
244.551	5.69
244.927	5.32
245.303	4.88
245.679	4.82
246.056	5.05
246.432	4.85
246.808	4.78
247.184	4.89
247.56	4.8
247.936	4.78
248.312	4.65
248.688	4.54
249.064	4.53
249.44	4.45
249.815	4.59
250.191	4.45
250.567	4.43
250.943	4.46
251.318	4.15
251.694	3.85
252.069	3.89
252.445	3.98
252.82	4.12
253.196	4.28
253.571	4.74
253.947	4.22
254.322	4.11
254.697	4.11
255.073	4.02
255.448	3.84
255.823	3.55
256.198	3.64
256.573	3.53
256.948	3.77
257.323	3.9
257.698	3.81
258.073	3.75
258.448	3.95
258.823	3.83
259.198	3.84
259.573	3.8
259.948	3.85
260.322	3.66
260.697	3.58
261.072	3.57
261.446	3.35
261.821	3.28
262.195	3.25
262.57	3.33
262.944	3.34
263.319	3.51
263.693	3.54
264.067	3.66
264.442	3.83
264.816	3.77
265.19	3.74
265.564	3.74
265.938	3.8
266.313	3.52
266.687	3.56
267.061	3.52
267.435	3.55
267.809	3.43
268.183	3.58
268.556	3.61
268.93	3.61
269.304	3.54
269.678	3.89
270.051	4.01
270.425	3.98
270.799	3.9
271.172	3.81
271.546	3.9
271.919	3.75
272.293	3.71
272.666	3.62
273.04	3.66
273.413	3.6
273.787	3.5
274.16	3.63
274.533	3.64
274.906	3.58
275.279	3.56
275.653	3.65
276.026	3.73
276.399	3.73
276.772	3.78
277.145	3.62
277.518	3.48
277.891	3.37
278.263	3.36
278.636	3.62
279.009	3.65
279.382	3.55
279.755	3.4
280.127	3.51
280.5	3.52
280.872	3.69
281.245	3.74
281.617	3.96
281.99	3.88
282.362	3.85
282.735	3.87
283.107	3.91
283.479	3.73
283.852	3.63
284.224	3.65
284.596	3.66
284.968	3.77
285.34	3.84
285.713	3.81
286.085	3.81
286.457	3.74
286.829	3.77
287.201	3.79
287.572	3.91
287.944	3.84
288.316	3.98
288.688	3.83
289.06	3.85
289.431	3.74
289.803	3.95
290.175	4.12
290.546	4.06
290.918	4.12
291.289	4.22
291.661	4.31
292.032	4.27
292.403	4.34
292.775	4.51
293.146	4.59
293.517	4.71
293.889	4.74
294.26	4.76
294.631	4.71
295.002	4.72
295.373	4.72
295.744	4.78
296.115	4.75
296.486	4.69
296.857	4.69
297.228	4.66
297.599	4.54
297.97	4.55
298.34	4.71
298.711	4.66
299.082	4.67
299.452	4.62
299.823	4.66
300.194	4.76
300.564	4.74
300.935	4.77
301.305	4.76
301.676	4.84
302.046	4.96
302.416	4.96
302.787	5.08
303.157	5.13
303.527	5.24
303.897	5.22
304.267	5.46
304.637	5.6
305.008	5.75
305.378	5.82
305.748	5.9
306.117	5.87
306.487	5.99
306.857	6.15
307.227	6.3
307.597	6.4
307.967	6.39
308.336	6.5
308.706	6.35
309.076	6.35
309.445	6.42
309.815	6.29
310.184	6.41
310.554	6.43
310.923	6.57
311.293	6.49
311.662	6.57
312.031	6.56
312.401	6.55
312.77	6.49
313.139	6.51
313.508	6.56
313.877	6.6
314.246	6.72
314.616	6.76
314.985	6.65
315.353	6.73
315.722	6.88
316.091	7.05
316.46	7.11
316.829	7.32
317.198	7.45
317.567	7.73
317.935	7.75
318.304	8.07
318.672	8.03
319.041	8.2
319.41	8.25
319.778	8.51
320.147	8.62
320.515	8.83
320.883	8.94
321.252	8.92
321.62	9.13
321.988	9.19
322.357	9.24
322.725	9.48
323.093	9.46
323.461	9.39
323.829	9.17
324.197	9.33
324.565	9.3
324.933	9.23
325.301	9.14
325.669	9.15
326.037	8.97
326.405	9.07
326.772	9.06
327.14	9.02
327.508	8.94
327.875	9
328.243	8.87
328.61	8.9
328.978	9
329.346	8.95
329.713	9.07
330.08	9.07
330.448	9.01
330.815	9.14
331.182	9.25
331.55	9.36
331.917	9.24
332.284	9.27
332.651	9.34
333.018	9.32
333.385	9.53
333.752	9.65
334.119	9.64
334.486	9.71
334.853	9.8
335.22	9.79
335.587	9.84
335.954	9.85
336.32	9.89
336.687	9.95
337.054	10.05
337.42	9.89
337.787	9.99
338.153	10.14
338.52	10.1
338.886	10.05
339.253	10.07
339.619	10.25
339.986	10.35
340.352	10.5
340.718	10.57
341.084	10.56
341.451	10.62
341.817	10.59
342.183	10.64
342.549	10.75
342.915	10.77
343.281	10.81
343.647	10.99
344.013	10.99
344.379	10.98
344.745	10.97
345.11	11.09
345.476	11.09
345.842	11.11
346.208	11.13
346.573	11.22
346.939	11.31
347.304	11.36
347.67	11.28
348.035	11.18
348.401	11.23
348.766	11.21
349.132	11.18
349.497	11.35
349.862	11.37
350.228	11.3
350.593	11.3
350.958	11.28
351.323	11.26
351.688	11.32
352.053	11.22
352.418	11.25
352.783	11.21
353.148	11.17
353.513	11.15
353.878	11.18
354.243	11.14
354.608	11.09
354.972	10.98
355.337	11.03
355.702	10.99
356.066	10.9
356.431	10.86
356.795	10.96
357.16	10.88
357.524	10.8
357.889	10.8
358.253	10.82
358.618	10.76
358.982	10.76
359.346	10.71
359.71	10.8
360.075	10.73
360.439	10.78
360.803	10.82
361.167	10.79
361.531	10.77
361.895	10.71
362.259	10.75
362.623	10.73
362.987	10.75
363.351	10.72
363.714	10.74
364.078	10.73
364.442	10.68
364.806	10.62
365.169	10.63
365.533	10.65
365.896	10.63
366.26	10.57
366.623	10.53
366.987	10.54
367.35	10.45
367.714	10.43
368.077	10.33
368.44	10.3
368.803	10.25
369.167	10.21
369.53	10.25
369.893	10.21
370.256	10.23
370.619	10.15
370.982	10.14
371.345	10.15
371.708	10.22
372.071	10.08
372.434	10.06
372.797	10.09
373.159	9.94
373.522	9.81
373.885	9.77
374.247	9.67
374.61	9.62
374.973	9.58
375.335	9.56
375.698	9.5
376.06	9.41
376.423	9.35
376.785	9.29
377.147	9.2
377.51	9.08
377.872	8.97
378.234	8.91
378.596	8.85
378.958	8.71
379.321	8.59
379.683	8.58
380.045	8.48
380.407	8.36
380.769	8.32
381.13	8.3
381.492	8.28
381.854	8.22
382.216	8.2
382.578	8.14
382.939	8.02
383.301	7.96
383.663	7.9
384.024	7.83
384.386	7.79
384.747	7.76
385.109	7.73
385.47	7.69
385.832	7.68
386.193	7.65
386.554	7.64
386.916	7.64
387.277	7.54
387.638	7.55
387.999	7.51
388.36	7.48
388.721	7.42
389.082	7.4
389.443	7.38
389.804	7.29
390.165	7.27
390.526	7.28
390.887	7.26
391.248	7.2
391.609	7.18
391.969	7.15
392.33	7.1
392.691	7.04
393.051	7
393.412	6.95
393.772	6.92
394.133	6.88
394.493	6.76
394.854	6.78
395.214	6.71
395.574	6.68
395.935	6.61
396.295	6.59
396.655	6.49
397.015	6.42
397.376	6.4
397.736	6.28
398.096	6.21
398.456	6.16
398.816	6.08
399.176	6
399.535	5.9
399.895	5.86
400.255	5.81
400.615	5.79
400.975	5.73
401.334	5.68
401.694	5.66
402.054	5.64
402.413	5.57
402.773	5.55
403.132	5.48
403.492	5.49
403.851	5.43
404.211	5.46
404.57	5.48
404.929	5.42
405.288	5.44
405.648	5.38
406.007	5.35
406.366	5.35
406.725	5.36
407.084	5.41
407.443	5.39
407.802	5.4
408.161	5.37
408.52	5.34
408.879	5.35
409.238	5.32
409.596	5.3
409.955	5.26
410.314	5.24
410.673	5.25
411.031	5.22
411.39	5.27
411.748	5.24
412.107	5.2
412.465	5.19
412.824	5.17
413.182	5.17
413.54	5.13
413.899	5.11
414.257	5.05
414.615	5
414.974	5
415.332	4.97
415.69	4.91
416.048	4.91
416.406	4.85
416.764	4.83
417.122	4.8
417.48	4.78
417.838	4.77
418.195	4.73
418.553	4.7
418.911	4.66
419.269	4.63
419.626	4.61
419.984	4.6
420.342	4.59
420.699	4.56
421.057	4.54
421.414	4.53
421.772	4.52
422.129	4.48
422.486	4.47
422.844	4.44
423.201	4.44
423.558	4.4
423.915	4.39
424.273	4.37
424.63	4.36
424.987	4.35
425.344	4.34
425.701	4.33
426.058	4.33
426.415	4.31
426.772	4.3
427.128	4.27
427.485	4.26
427.842	4.24
428.199	4.23
428.555	4.21
428.912	4.21
429.269	4.21
429.625	4.22
429.982	4.18
430.338	4.16
430.695	4.14
431.051	4.13
431.407	4.13
431.764	4.1
432.12	4.08
432.476	4.06
432.832	4.04
433.189	4.03
433.545	4
433.901	4
434.257	3.99
434.613	3.98
434.969	3.97
435.325	3.97
435.681	3.96
436.036	3.96
436.392	3.95
436.748	3.94
437.104	3.93
437.459	3.92
437.815	3.92
438.171	3.93
438.526	3.93
438.882	3.93
439.237	3.93
439.593	3.95
439.948	3.97
440.304	3.95
440.659	3.98
441.014	3.99
441.369	4
441.725	3.99
442.08	3.99
442.435	4
442.79	3.97
443.145	3.97
443.5	3.97
443.855	3.98
444.21	3.98
444.565	3.97
444.92	3.98
445.275	3.99
445.629	3.97
445.984	3.97
446.339	3.97
446.693	3.96
447.048	3.93
447.403	3.9
447.757	3.9
448.112	3.86
448.466	3.84
448.82	3.83
449.175	3.82
449.529	3.8
449.883	3.77
450.238	3.78
450.592	3.76
450.946	3.76
451.3	3.74
451.654	3.71
452.008	3.71
452.362	3.7
452.716	3.69
453.07	3.69
453.424	3.69
453.778	3.68
454.132	3.67
454.486	3.68
454.839	3.68
455.193	3.68
455.547	3.71
455.9	3.71
456.254	3.7
456.607	3.7
456.961	3.71
457.314	3.73
457.668	3.73
458.021	3.73
458.375	3.71
458.728	3.69
459.081	3.71
459.434	3.7
459.787	3.71
460.141	3.72
460.494	3.71
460.847	3.7
461.2	3.71
461.553	3.76
461.906	3.78
462.259	3.77
462.611	3.79
462.964	3.76
463.317	3.8
463.67	3.82
464.022	3.84
464.375	3.86
464.728	3.87
465.08	3.89
465.433	3.92
465.785	3.97
466.138	3.99
466.49	3.99
466.843	4.01
467.195	4.02
467.547	4.03
467.899	4.05
468.252	4.08
468.604	4.07
468.956	4.08
469.308	4.07
469.66	4.12
470.012	4.1
470.364	4.12
470.716	4.1
471.068	4.1
471.42	4.1
471.772	4.11
472.123	4.12
472.475	4.13
472.827	4.14
473.178	4.12
473.53	4.14
473.882	4.15
474.233	4.16
474.585	4.17
474.936	4.18
475.288	4.2
475.639	4.19
475.99	4.17
476.342	4.16
476.693	4.15
477.044	4.13
477.395	4.14
477.746	4.14
478.097	4.12
478.448	4.1
478.8	4.08
479.15	4.08
479.501	4.08
479.852	4.07
480.203	4.07
480.554	4.09
480.905	4.09
481.255	4.08
481.606	4.09
481.957	4.07
482.307	4.06
482.658	4.06
483.009	4.06
483.359	4.06
483.709	4.06
484.06	4.08
484.41	4.09
484.761	4.09
485.111	4.1
485.461	4.1
485.811	4.1
486.162	4.11
486.512	4.11
486.862	4.11
487.212	4.11
487.562	4.09
487.912	4.09
488.262	4.08
488.612	4.08
488.961	4.09
489.311	4.09
489.661	4.11
490.011	4.12
490.36	4.13
490.71	4.14
491.06	4.15
491.409	4.16
491.759	4.15
492.108	4.15
492.458	4.14
492.807	4.15
493.157	4.18
493.506	4.19
493.855	4.19
494.204	4.22
494.554	4.24
494.903	4.28
495.252	4.31
495.601	4.36
495.95	4.38
496.299	4.4
496.648	4.45
496.997	4.48
497.346	4.51
497.695	4.55
498.043	4.59
498.392	4.62
498.741	4.63
499.09	4.7
499.438	4.76
499.787	4.82
500.135	4.85
500.484	4.88
500.832	4.93
501.181	5
501.529	5.05
501.878	5.09
502.226	5.16
502.574	5.22
502.923	5.26
503.271	5.33
503.619	5.4
503.967	5.44
504.315	5.51
504.663	5.57
505.011	5.62
505.359	5.69
505.707	5.75
506.055	5.83
506.403	5.91
506.751	5.97
507.098	6.07
507.446	6.16
507.794	6.26
508.141	6.33
508.489	6.39
508.837	6.43
509.184	6.51
509.531	6.58
509.879	6.64
510.226	6.73
510.574	6.81
510.921	6.87
511.268	6.97
511.616	7.04
511.963	7.11
512.31	7.19
512.657	7.25
513.004	7.33
513.351	7.4
513.698	7.48
514.045	7.55
514.392	7.62
514.739	7.69
515.086	7.79
515.432	7.87
515.779	7.96
516.126	8.08
516.473	8.16
516.819	8.22
517.166	8.32
517.512	8.39
517.859	8.44
518.205	8.53
518.552	8.6
518.898	8.67
519.245	8.73
519.591	8.81
519.937	8.88
520.283	8.97
520.629	9.08
520.976	9.16
521.322	9.26
521.668	9.37
522.014	9.48
522.36	9.57
522.706	9.68
523.052	9.82
523.398	9.94
523.743	10.07
524.089	10.24
524.435	10.37
524.781	10.5
525.126	10.62
525.472	10.72
525.817	10.82
526.163	10.91
526.509	11.01
526.854	11.1
527.199	11.19
527.545	11.28
527.89	11.36
528.235	11.45
528.581	11.55
528.926	11.65
529.271	11.75
529.616	11.85
529.961	11.95
530.306	12.04
530.651	12.14
530.996	12.26
531.341	12.38
531.686	12.49
532.031	12.62
532.376	12.76
532.721	12.89
533.065	13.04
533.41	13.21
533.755	13.36
534.099	13.52
534.444	13.7
534.788	13.87
535.133	14.03
535.477	14.19
535.822	14.37
536.166	14.55
536.51	14.74
536.855	14.94
537.199	15.18
537.543	15.42
537.887	15.65
538.231	15.89
538.576	16.11
538.92	16.33
539.264	16.54
539.608	16.76
539.951	16.97
540.295	17.14
540.639	17.32
540.983	17.52
541.327	17.71
541.671	17.9
542.014	18.08
542.358	18.27
542.701	18.47
543.045	18.65
543.389	18.84
543.732	19.05
544.075	19.28
544.419	19.49
544.762	19.7
545.105	19.94
545.449	20.18
545.792	20.46
546.135	20.76
546.478	21.09
546.821	21.38
547.165	21.7
547.508	22.04
547.851	22.36
548.194	22.65
548.536	22.95
548.879	23.28
549.222	23.63
549.565	23.95
549.908	24.28
550.25	24.64
550.593	24.96
550.936	25.28
551.278	25.61
551.621	25.92
551.963	26.3
552.306	26.6
552.648	26.89
552.991	27.14
553.333	27.41
553.675	27.69
554.017	27.97
554.36	28.25
554.702	28.49
555.044	28.76
555.386	29.03
555.728	29.33
556.07	29.61
556.412	29.9
556.754	30.2
557.096	30.52
557.438	30.76
557.78	31.06
558.121	31.36
558.463	31.66
558.805	31.99
559.147	32.29
559.488	32.58
559.83	32.9
560.171	33.17
560.513	33.46
560.854	33.74
561.196	33.99
561.537	34.25
561.878	34.58
562.22	34.81
562.561	35.09
562.902	35.33
563.243	35.57
563.584	35.83
563.925	36.08
564.266	36.3
564.607	36.57
564.948	36.81
565.289	37.02
565.63	37.22
565.971	37.44
566.312	37.59
566.653	37.81
566.993	38.02
567.334	38.31
567.675	38.56
568.015	38.7
568.356	38.93
568.696	39.08
569.037	39.29
569.377	39.51
569.718	39.69
570.058	39.9
570.398	40.09
570.739	40.27
571.079	40.47
571.419	40.64
571.759	40.83
572.099	40.99
572.439	41.2
572.779	41.37
573.119	41.52
573.459	41.68
573.799	41.85
574.139	41.96
574.479	42.03
574.819	42.16
575.158	42.34
575.498	42.46
575.838	42.67
576.177	42.78
576.517	42.97
576.856	43.17
577.196	43.34
577.535	43.45
577.875	43.61
578.214	43.74
578.553	43.88
578.893	44.01
579.232	44.26
579.571	44.38
579.91	44.47
580.25	44.6
580.589	44.73
580.928	44.86
581.267	45
581.606	45.17
581.945	45.28
582.283	45.41
582.622	45.54
582.961	45.67
583.3	45.85
583.639	45.89
583.977	45.98
584.316	46.1
584.654	46.2
584.993	46.28
585.332	46.3
585.67	46.44
586.008	46.55
586.347	46.6
586.685	46.72
587.024	46.77
587.362	46.88
587.7	46.99
588.038	47.11
588.376	47.19
588.715	47.27
589.053	47.3
589.391	47.36
589.729	47.48
590.067	47.51
590.404	47.58
590.742	47.8
591.08	47.89
591.418	47.97
591.756	48.13
592.093	48.22
592.431	48.42
592.769	48.49
593.106	48.57
593.444	48.55
593.781	48.57
594.119	48.75
594.456	48.85
594.793	48.86
595.131	48.85
595.468	48.95
595.805	49.05
596.143	49.15
596.48	49.23
596.817	49.23
597.154	49.32
597.491	49.39
597.828	49.35
598.165	49.34
598.502	49.37
598.839	49.43
599.176	49.54
599.512	49.53
599.849	49.56
600.186	49.58
600.523	49.68
600.859	49.78
601.196	49.79
601.532	49.79
601.869	49.82
602.205	49.87
602.542	49.78
602.878	49.78
603.215	49.91
603.551	49.94
603.887	50.02
604.223	50.09
604.56	50.08
604.896	50.12
605.232	50.25
605.568	50.33
605.904	50.36
606.24	50.4
606.576	50.44
606.912	50.52
607.248	50.57
607.583	50.66
607.919	50.68
608.255	50.71
608.591	50.78
608.926	50.95
609.262	51.05
609.597	51.16
609.933	51.23
610.268	51.2
610.604	51.26
610.939	51.29
611.275	51.23
611.61	51.31
611.945	51.38
612.281	51.31
612.616	51.38
612.951	51.37
613.286	51.27
613.621	51.38
613.956	51.35
614.291	51.42
614.626	51.43
614.961	51.39
615.296	51.48
615.631	51.44
615.966	51.43
616.3	51.48
616.635	51.56
616.97	51.54
617.304	51.48
617.639	51.51
617.973	51.49
618.308	51.6
618.642	51.59
618.977	51.59
619.311	51.73
619.646	51.65
619.98	51.67
620.314	51.71
620.648	51.75
620.983	51.8
621.317	51.8
621.651	51.79
621.985	51.88
622.319	51.9
622.653	51.97
622.987	52.03
623.321	51.97
623.655	51.95
623.988	52
624.322	52.14
624.656	52.18
624.99	52.16
625.323	52.15
625.657	52.18
625.99	52.2
626.324	52.17
626.657	52.21
626.991	52.3
627.324	52.35
627.658	52.27
627.991	52.31
628.324	52.27
628.657	52.35
628.991	52.36
629.324	52.33
629.657	52.42
629.99	52.34
630.323	52.47
630.656	52.49
630.989	52.5
631.322	52.46
631.655	52.39
631.987	52.46
632.32	52.53
632.653	52.48
632.986	52.54
633.318	52.46
633.651	52.5
633.984	52.47
634.316	52.47
634.649	52.47
634.981	52.42
635.313	52.51
635.646	52.46
635.978	52.52
636.31	52.62
636.643	52.5
636.975	52.6
637.307	52.56
637.639	52.62
637.971	52.67
638.303	52.71
638.635	52.83
638.967	52.88
639.299	52.91
639.631	52.99
639.963	53.03
640.295	53.14
640.626	53.1
640.958	53.14
641.29	53.2
641.621	53.22
641.953	53.37
642.285	53.4
642.616	53.41
642.948	53.41
643.279	53.39
643.61	53.45
643.942	53.4
644.273	53.43
644.604	53.51
644.936	53.44
645.267	53.36
645.598	53.37
645.929	53.39
646.26	53.38
646.591	53.42
646.922	53.35
647.253	53.4
647.584	53.39
647.915	53.29
648.245	53.33
648.576	53.4
648.907	53.44
649.238	53.43
649.568	53.53
649.899	53.61
650.229	53.46
650.56	53.47
650.89	53.53
651.221	53.49
651.551	53.43
651.882	53.52
652.212	53.54
652.542	53.48
652.872	53.52
653.203	53.52
653.533	53.42
653.863	53.56
654.193	53.47
654.523	53.63
654.853	53.71
655.183	53.7
655.513	53.68
655.843	53.6
656.172	53.7
656.502	53.6
656.832	53.53
657.162	53.79
657.491	53.8
657.821	53.75
658.15	53.85
658.48	53.85
658.809	53.77
659.139	53.85
659.468	53.87
659.798	53.85
660.127	53.87
660.456	53.92
660.785	53.81
661.115	53.82
661.444	53.77
661.773	53.86
662.102	53.87
662.431	53.98
662.76	54.02
663.089	53.95
663.418	54
663.747	54.06
664.076	53.88
664.404	53.89
664.733	53.91
665.062	53.93
665.39	53.91
665.719	53.93
666.048	53.92
666.376	53.91
666.705	54.03
667.033	54.08
667.362	54.09
667.69	54.07
668.018	54.19
668.347	54.1
668.675	54.05
669.003	54.06
669.331	53.99
669.659	54.08
669.987	54.02
670.315	54.07
670.643	54.13
670.971	54.18
671.299	54.17
671.627	54.28
671.955	54.21
672.283	54.31
672.61	54.37
672.938	54.31
673.266	54.49
673.593	54.37
673.921	54.41
674.249	54.49
674.576	54.6
674.904	54.54
675.231	54.63
675.558	54.59
675.886	54.46
676.213	54.45
676.54	54.48
676.867	54.52
677.195	54.46
677.522	54.46
677.849	54.55
678.176	54.62
678.503	54.48
678.83	54.45
679.157	54.48
679.484	54.49
679.81	54.51
680.137	54.35
680.464	54.35
680.791	54.22
681.117	54.2
681.444	54.23
681.771	54.29
682.097	54.34
682.424	54.42
682.75	54.46
683.077	54.6
683.403	54.57
683.729	54.57
684.056	54.66
684.382	54.59
684.708	54.53
685.034	54.43
685.36	54.51
685.686	54.38
686.012	54.33
686.339	54.26
686.664	54.37
686.99	54.41
687.316	54.57
687.642	54.63
687.968	54.74
688.294	54.67
688.619	54.71
688.945	54.66
689.271	54.54
689.596	54.56
689.922	54.5
690.247	54.41
690.573	54.44
690.898	54.51
691.224	54.49
691.549	54.53
691.874	54.65
692.2	54.73
692.525	54.97
692.85	55.08
693.175	55.22
693.5	55.23
693.825	55.39
694.15	55.3
694.475	55.29
694.8	55.15
695.125	55.3
695.45	55.08
695.775	54.98
696.099	55.15
696.424	55.15
696.749	55.07
697.073	55.21
697.398	55.23
697.723	55.19
698.047	55.22
698.372	55.27
698.696	55.19
699.02	55.21
699.345	55.28
699.669	55.22
699.993	55.23
700.318	55.29
700.642	55.08
700.966	55.12
701.29	55.09
701.614	55.1
701.938	54.98
702.262	55.13
702.586	55.37
702.91	55.35
703.234	55.51
703.557	55.5
703.881	55.3
704.205	55.44
704.529	55.49
704.852	55.54
705.176	55.54
705.499	55.73
705.823	55.56
706.146	55.44
706.47	55.56
706.793	55.5
707.117	55.36
707.44	55.46
707.763	55.29
708.086	55.47
708.409	55.5
708.733	55.4
709.056	55.43
709.379	55.33
709.702	55.32
710.025	55.25
710.348	55.24
710.671	55.48
710.993	55.14
711.316	55.06
711.639	54.93
711.962	55.04
712.284	55.03
712.607	55.17
712.93	55.16
713.252	55.11
713.575	55.05
713.897	55.08
714.22	55.08
714.542	55.12
714.864	54.99
715.187	54.93
715.509	55.04
715.831	55.01
716.153	54.83
716.475	54.77
716.798	54.74
717.12	55.09
717.442	54.88
717.764	54.99
718.085	54.92
718.407	54.94
718.729	54.63
719.051	54.44
719.373	54.55
719.695	54.55
720.016	54.4
720.338	54.53
720.659	54.51
720.981	54.7
721.302	54.9
721.624	55.08
721.945	55.03
722.267	55.07
722.588	55.06
722.909	55.12
723.231	55.2
723.552	55.54
723.873	55.04
724.194	55.15
724.515	55.25
724.836	55.32
725.157	55.49
725.478	55.81
725.799	55.94
726.12	55.57
726.441	55.4
726.762	55.67
727.083	55.68
727.403	55.54
727.724	55.41
728.045	55.25
728.365	55.08
728.686	55.11
729.006	55.18
729.327	55.18
729.647	55.2
729.967	55.17
730.288	54.85
730.608	55.28
730.928	55.29
731.249	55.32
731.569	55.31
731.889	55.21
732.209	55.07
732.529	55.16
732.849	55.33
733.169	55.45
733.489	55.31
733.809	55.28
734.129	55.58
734.448	55.5
734.768	55.5
735.088	55.61
735.408	55.68
735.727	55.59
736.047	55.72
736.366	55.94
736.686	56.01
737.005	56.08
737.325	55.94
737.644	55.85
737.963	56.01
738.283	55.98
738.602	55.85
738.921	56.06
739.24	55.87
739.56	56.13
739.879	56.21
740.198	56.24
740.517	56.4
740.836	56.17
741.155	56.32
741.473	56.46
741.792	56.33
742.111	56.24
742.43	56.36
742.748	56.46
743.067	56.32
743.386	56.32
743.704	56.29
744.023	55.98
744.341	56.16
744.66	55.95
744.978	55.95
745.297	56.26
745.615	56.25
745.933	56.43
746.252	56.12
746.57	56.21
746.888	56.23
747.206	56.13
747.524	56.16
747.842	56.19
748.16	56.13
748.478	56.32
748.796	56.5
749.114	56.32
749.432	56.14
749.749	56.22
750.067	56.23
750.385	56.22
750.703	56.3
751.02	56.44
751.338	56.53
751.655	56.37
751.973	56.24
752.29	55.87
752.608	55.69
752.925	55.69
753.242	55.42
753.56	55.17
753.877	54.95
754.194	54.86
754.511	54.82
754.828	54.69
755.145	54.69
755.462	54.66
755.779	54.68
756.096	54.73
756.413	54.36
756.73	54.2
757.047	54.08
757.364	54.25
757.68	54.04
757.997	54.05
758.314	54.38
758.63	54.45
758.947	54.49
759.264	54.79
759.58	54.81
759.896	54.85
760.213	55.22
760.529	55.59
760.846	55.85
761.162	55.76
761.478	56.1
761.794	56.52
762.11	56.65
762.426	56.68
762.743	56.65
763.059	57.19
763.375	57.19
763.69	57.28
764.006	57.28
764.322	57.31
764.638	57.43
764.954	57.44
765.27	57.34
765.585	57.6
765.901	57.51
766.216	57.68
766.532	57.78
766.848	57.66
767.163	57.53
767.478	57.2
767.794	57.26
768.109	57.25
768.424	56.86
768.74	57.01
769.055	57.02
769.37	57
769.685	56.82
770	57.05
770.315	57.15
770.63	57.07
770.945	56.92
771.26	56.44
771.575	56.36
771.89	56.53
772.205	55.97
772.52	55.93
772.834	55.68
773.149	55.58
773.464	55.63
773.778	55.69
774.093	56.09
774.407	56.26
774.722	55.67
775.036	55.55
775.351	55.17
775.665	55.25
775.979	55.22
776.293	55.15
776.608	54.87
776.922	55.07
777.236	55.11
777.55	55.39
777.864	55.79
778.178	56.11
778.492	56.19
778.806	56.71
779.12	57.29
779.434	57.27
779.747	57.25
780.061	57.15
780.375	56.86
780.689	56.92
781.002	56.71
781.316	57.54
781.629	58.03
781.943	58.25
782.256	58.55
782.57	58.78
782.883	58.76
783.196	58.9
783.51	58.55
783.823	58.37
784.136	57.71
784.449	57.7
784.762	57.56
785.075	57.32
785.388	57.08
785.701	56.31
786.014	56.24
786.327	56.73
786.64	56.78
786.953	56.83
787.266	56.69
787.578	56.6
787.891	56.26
788.204	56.1
788.516	55.96
788.829	55.99
789.141	55.81
789.454	55.53
789.766	55.72
790.079	55.58
790.391	55.99
790.703	56.5
791.016	56.47
791.328	56.32
791.64	56.6
791.952	56.54
792.264	56.31
792.576	56.42
792.888	56.2
793.2	56.93
793.512	57.5
793.824	57.63
794.136	58.13
794.448	57.76
794.76	57.47
795.071	57.37
795.383	57.14
795.695	57.32
796.006	57.5
796.318	57.53
796.629	57.7
796.941	57.86
797.252	57.92
797.564	58.25
797.875	58.22
798.186	57.62
798.497	58.2
798.809	59
799.12	59.41
799.431	59.3
799.742	58.53
800.053	57.77
800.364	57.78
800.675	57.03
800.986	57.32
801.297	57.2
801.608	57.18
801.918	57.03
802.229	57.31
802.54	56.61
802.851	55.96
803.161	56.26
803.472	56
803.782	55.84
804.093	55.07
804.403	55.4
804.714	55.9
805.024	55.77
805.334	55.23
805.645	54.79
805.955	54.82
806.265	55.01
806.575	55.22
806.885	55.8
807.195	56.47
807.505	56.36
807.815	56.09
808.125	55.86
808.435	56.01
808.745	55.54
809.055	56.3
809.365	56.52
809.674	56.89
809.984	57.03
810.294	56.69
810.603	56.69
810.913	56.23
811.222	56.87
811.532	56.09
811.841	56.75
812.151	56.44
812.46	56.39
812.769	55.88
813.079	56.31
813.388	55.58
813.697	55.07
814.006	55.36
814.315	55.91
814.624	56.39
814.933	56.52
815.242	57.16
815.551	57.75
815.86	58.68
816.169	58.15
816.478	57.91
816.786	58.36
817.095	59.01
817.404	58.9
817.712	58.67
818.021	59.09
818.33	58.8
818.638	59.22
818.947	58.82
819.255	59.25
819.563	58.91
819.872	58.34
820.18	58.6
820.488	58.52
820.796	58.31
821.105	58.44
821.413	58.16
821.721	57.82
822.029	57.57
822.337	57.5
822.645	57.41
822.953	57.42
823.26	57.28
823.568	57.27
823.876	57.28
824.184	57.13
824.491	57.25
824.799	57.31
825.107	57.2
825.414	57.24
825.722	57.13
826.029	57.08
826.337	57.37
826.644	57.31
826.951	57.37
827.259	57.48
827.566	57.46
827.873	57.63
828.18	57.72
828.488	58.05
828.795	58.08
829.102	58.3
829.409	58.24
829.716	58.75
830.023	58.85
830.329	58.75
830.636	58.9
830.943	58.45
831.25	57.93
831.557	58.06
831.863	57.89
832.17	58.09
832.476	58.49
832.783	58.49
833.089	58.25
833.396	58.04
833.702	57.88
834.009	57.29
834.315	57.73
834.621	57.93
834.928	57.38
835.234	57.06
835.54	57.38
835.846	57.53
836.152	56.9
836.458	56.93
836.764	57.49
837.07	57.42
837.376	57.97
837.682	58.46
837.988	58.75
838.293	59.87
838.599	59.42
838.905	59.76
839.211	59.13
839.516	58.98
839.822	58.63
840.127	58.74
840.433	58.95
840.738	58.95
841.044	58.86
841.349	58.82
841.654	58.99
841.959	58.77
842.265	58.75
842.57	60.16
842.875	58.99
843.18	58.17
843.485	58.49
843.79	58.49
844.095	57.81
844.4	58.61
844.705	57.61
845.01	57.73
845.315	56.52
845.619	58.27
845.924	58.24
846.229	58.35
846.533	57.17
846.838	57.71
847.142	54.95
847.447	55.73
847.751	55.56
848.056	55.63
848.36	54.85
848.664	55.34
848.969	54.6
849.273	55.27
849.577	55.13
849.881	54.39
850.185	54.45
850.489	56.33
850.794	55.04
851.097	55.38
851.401	54.36
851.705	55.04
852.009	54.94
852.313	55.68
852.617	54.9
852.92	55.42
853.224	55.56
853.528	55.96
853.831	53.76
854.135	55.44
854.438	55.59
854.742	57.47
855.045	55.44
855.349	55.74
855.652	58.92
855.955	57.79
856.259	57.2
856.562	56.11
856.865	55.78
857.168	55.57
857.471	55.26
857.774	57.53
858.077	56
858.38	55.87
858.683	57.4
858.986	60.35
859.289	60.73
859.592	61.57
859.894	63.46
860.197	63.38
860.5	64.63
860.802	63.69
861.105	60.12
861.407	61.42
861.71	60.54
862.012	58.29
862.315	59.33
862.617	59.62
862.919	60.13
863.222	58.11
863.524	56.42
863.826	56.14
864.128	57.39
864.43	58.53
864.732	58.84
865.034	58.72
865.336	55.82
865.638	55.86
865.94	56.82
866.242	55.9
866.544	59.28
866.846	57.76
867.147	60.69
867.449	61.04
867.751	59.49
868.052	61.62
868.354	61.62
868.655	62.28
868.957	64.97
869.258	66.97
869.56	67.76
869.861	69.4
870.162	68.39
870.463	63.76
870.765	63.17
871.066	62.16
871.367	61.13
871.668	61.43
871.969	59.73
872.27	58.54
872.571	59.85
872.872	56.49
873.173	55.21
873.473	50.71
873.774	50.29
874.075	53.89
874.376	49.32
874.676	50.94
874.977	51.49
875.277	47.13
875.578	45.32
875.878	45.29
876.179	44.21
876.479	44.5
876.78	46.78
877.08	45.69
877.38	44.53
877.68	44.36
877.981	45.45
878.281	49.5
878.581	47.03
