Data from MVZ_BU123442_Reflection_00002.txt Node
Date: Tue Nov 19 12:12:20 EST 2019
User: vgr7
Spectrometer: USB2G7710
Scans to average: 3
Trigger mode: 4
Integration Time (sec): 2.000000E-2
Electric dark correction enabled: true
Boxcar width: 10
XAxis mode: Wavelengths
Number of Pixels in Spectrum: 2048
>>>>>Begin Spectral Data<<<<<
177.721	108.86
178.105	177.92
178.488	118.66
178.871	125.42
179.254	289.47
179.636	81.37
180.019	213.21
180.402	223.08
180.785	-218.07
181.168	-216.61
181.55	-118.66
181.933	-54.64
182.316	-100.92
182.698	-49.81
183.081	-50.4
183.463	-118.71
183.846	-125.56
184.228	-218.95
184.611	-327.65
184.993	1180
185.376	5969.57
185.758	-516.6
186.14	-573.17
186.522	-973.39
186.904	916
187.287	764.43
187.669	383.64
188.051	390.97
188.433	350.7
188.815	176.01
189.197	170.28
189.579	148.32
189.961	162.6
190.342	160.96
190.724	117.26
191.106	81.55
191.488	63.02
191.869	46.26
192.251	44.78
192.633	49.6
193.014	61.16
193.396	41.92
193.777	46.46
194.159	45.49
194.54	60.2
194.922	61.67
195.303	87.23
195.684	80.38
196.065	55.92
196.447	33.28
196.828	21.79
197.209	23.23
197.59	32.51
197.971	33.07
198.352	31.4
198.733	23.17
199.114	32.79
199.495	33.03
199.876	40.94
200.257	56.9
200.638	69.92
201.018	100
201.399	144.07
201.78	157.21
202.16	199.28
202.541	222.45
202.922	181.94
203.302	153.48
203.683	440.54
204.063	270.15
204.444	901.53
204.824	297.8
205.204	234.65
205.585	382.67
205.965	1371.19
206.345	-323.31
206.725	-725.69
207.106	-734.44
207.486	-865.22
207.866	-224.32
208.246	-497.51
208.626	3621.74
209.006	164.69
209.386	91.91
209.766	68.7
210.145	68.36
210.525	41.94
210.905	54.81
211.285	28.92
211.664	23.78
212.044	49.3
212.424	32.61
212.803	39.03
213.183	31.12
213.562	53.25
213.942	62.63
214.321	79.03
214.701	63.68
215.08	35.05
215.459	34.26
215.838	13.97
216.218	-17.05
216.597	-9.91
216.976	-3.83
217.355	1.51
217.734	-17.52
218.113	-23.46
218.492	-9.43
218.871	-2.51
219.25	12.02
219.629	16.4
220.008	9.6
220.387	13.27
220.766	3.85
221.144	1.17
221.523	-20.87
221.902	-10.48
222.28	-15.69
222.659	-3.18
223.037	6.83
223.416	3.96
223.794	7.82
224.173	22.18
224.551	20.49
224.929	22.03
225.308	21.07
225.686	21.71
226.064	15.1
226.442	13.82
226.821	9.24
227.199	6.19
227.577	3.05
227.955	-0.44
228.333	-3.77
228.711	-0.92
229.089	2.33
229.467	-0.24
229.845	-5.71
230.222	-1.68
230.6	-3.69
230.978	-6.25
231.356	-4.84
231.733	-6.1
232.111	-5.71
232.488	-3.85
232.866	-5.25
233.243	-3.79
233.621	-0.1
233.998	0.69
234.376	-0.26
234.753	0.84
235.13	0.43
235.508	0.45
235.885	0.7
236.262	0.47
236.639	-1.72
237.016	-1.88
237.393	-0.1
237.77	2.14
238.147	0.23
238.524	0.69
238.901	0.25
239.278	0.45
239.655	0.21
240.032	-0.32
240.409	-0.02
240.785	0.26
241.162	-0.12
241.539	-0.7
241.915	0.01
242.292	0.61
242.668	0.99
243.045	2.04
243.421	2.46
243.798	2.64
244.174	2.87
244.551	3.2
244.927	3.24
245.303	2.96
245.679	2.47
246.056	2.72
246.432	2.84
246.808	3.11
247.184	3.18
247.56	3.2
247.936	3.4
248.312	3.37
248.688	3.25
249.064	3.49
249.44	3.25
249.815	3.23
250.191	3.31
250.567	3.02
250.943	2.58
251.318	2.32
251.694	2.17
252.069	2.07
252.445	2.05
252.82	2
253.196	2.31
253.571	2.78
253.947	3.01
254.322	2.76
254.697	2.69
255.073	2.71
255.448	2.96
255.823	2.58
256.198	2.32
256.573	2.65
256.948	2.48
257.323	2.98
257.698	3.03
258.073	2.81
258.448	3.02
258.823	3.1
259.198	3.13
259.573	3.02
259.948	3.17
260.322	3.03
260.697	2.77
261.072	2.53
261.446	2.38
261.821	2.1
262.195	2.19
262.57	2.34
262.944	2.32
263.319	2.46
263.693	2.59
264.067	2.68
264.442	2.3
264.816	2.31
265.19	2.09
265.564	1.9
265.938	1.94
266.313	1.82
266.687	1.82
267.061	1.73
267.435	1.96
267.809	1.65
268.183	1.61
268.556	1.75
268.93	1.89
269.304	1.92
269.678	1.97
270.051	1.97
270.425	1.76
270.799	1.66
271.172	1.61
271.546	1.76
271.919	1.84
272.293	2.27
272.666	2.22
273.04	2.3
273.413	2.3
273.787	2.35
274.16	2.21
274.533	2.09
274.906	2.23
275.279	2.23
275.653	2.35
276.026	2.51
276.399	2.47
276.772	2.46
277.145	2.51
277.518	2.49
277.891	2.38
278.263	2.42
278.636	2.34
279.009	2.25
279.382	2.33
279.755	2.13
280.127	2.07
280.5	1.98
280.872	1.99
281.245	2.08
281.617	2.27
281.99	2.16
282.362	2.35
282.735	2.34
283.107	2.23
283.479	2.25
283.852	2.29
284.224	2.43
284.596	2.32
284.968	2.2
285.34	2.21
285.713	2.3
286.085	2.18
286.457	2.26
286.829	2.15
287.201	1.94
287.572	1.99
287.944	1.92
288.316	2
288.688	2.06
289.06	2
289.431	1.86
289.803	2.08
290.175	1.91
290.546	1.84
290.918	1.94
291.289	1.94
291.661	1.83
292.032	1.98
292.403	2.2
292.775	2.34
293.146	2.53
293.517	2.42
293.889	2.48
294.26	2.54
294.631	2.69
295.002	2.85
295.373	2.83
295.744	2.91
296.115	2.79
296.486	2.78
296.857	2.85
297.228	2.84
297.599	2.93
297.97	3.02
298.34	3.03
298.711	3.01
299.082	2.94
299.452	2.99
299.823	2.78
300.194	2.67
300.564	2.55
300.935	2.58
301.305	2.7
301.676	2.66
302.046	2.64
302.416	2.64
302.787	2.61
303.157	2.73
303.527	2.72
303.897	2.71
304.267	2.64
304.637	2.72
305.008	2.65
305.378	2.55
305.748	2.46
306.117	2.5
306.487	2.45
306.857	2.56
307.227	2.64
307.597	2.65
307.967	2.63
308.336	2.75
308.706	2.61
309.076	2.57
309.445	2.64
309.815	2.62
310.184	2.61
310.554	2.53
310.923	2.38
311.293	2.17
311.662	2.22
312.031	2.17
312.401	2
312.77	2.02
313.139	1.92
313.508	1.92
313.877	1.87
314.246	1.93
314.616	1.93
314.985	1.85
315.353	1.86
315.722	2.08
316.091	2.03
316.46	1.97
316.829	1.97
317.198	2.04
317.567	2.21
317.935	2.19
318.304	2.21
318.672	2.38
319.041	2.49
319.41	2.56
319.778	2.73
320.147	2.71
320.515	2.69
320.883	2.78
321.252	2.86
321.62	2.92
321.988	2.93
322.357	2.9
322.725	2.83
323.093	2.65
323.461	2.49
323.829	2.57
324.197	2.54
324.565	2.54
324.933	2.46
325.301	2.32
325.669	2.27
326.037	2.25
326.405	2.2
326.772	2.21
327.14	2.24
327.508	2.13
327.875	2.28
328.243	2.28
328.61	2.22
328.978	2.11
329.346	2.21
329.713	2.21
330.08	2.27
330.448	2.32
330.815	2.6
331.182	2.57
331.55	2.4
331.917	2.35
332.284	2.33
332.651	2.46
333.018	2.48
333.385	2.62
333.752	2.59
334.119	2.61
334.486	2.59
334.853	2.44
335.22	2.41
335.587	2.34
335.954	2.22
336.32	2.13
336.687	2.34
337.054	2.31
337.42	2.29
337.787	2.21
338.153	2.21
338.52	2.11
338.886	2.18
339.253	2.19
339.619	2.4
339.986	2.46
340.352	2.43
340.718	2.46
341.084	2.32
341.451	2.43
341.817	2.45
342.183	2.52
342.549	2.7
342.915	2.67
343.281	2.75
343.647	2.9
344.013	3.04
344.379	2.94
344.745	2.87
345.11	2.82
345.476	2.86
345.842	2.83
346.208	2.86
346.573	2.85
346.939	2.93
347.304	2.93
347.67	2.85
348.035	2.81
348.401	2.88
348.766	2.84
349.132	2.83
349.497	2.86
349.862	2.82
350.228	2.73
350.593	2.81
350.958	2.82
351.323	2.79
351.688	2.86
352.053	2.8
352.418	2.88
352.783	2.87
353.148	2.84
353.513	2.88
353.878	2.87
354.243	2.82
354.608	2.83
354.972	2.78
355.337	2.76
355.702	2.71
356.066	2.65
356.431	2.66
356.795	2.58
357.16	2.52
357.524	2.63
357.889	2.58
358.253	2.56
358.618	2.56
358.982	2.59
359.346	2.41
359.71	2.43
360.075	2.42
360.439	2.47
360.803	2.55
361.167	2.47
361.531	2.5
361.895	2.48
362.259	2.46
362.623	2.44
362.987	2.54
363.351	2.49
363.714	2.49
364.078	2.55
364.442	2.57
364.806	2.56
365.169	2.49
365.533	2.56
365.896	2.64
366.26	2.61
366.623	2.56
366.987	2.71
367.35	2.75
367.714	2.72
368.077	2.73
368.44	2.67
368.803	2.71
369.167	2.55
369.53	2.66
369.893	2.69
370.256	2.65
370.619	2.62
370.982	2.68
371.345	2.75
371.708	2.7
372.071	2.73
372.434	2.7
372.797	2.75
373.159	2.7
373.522	2.59
373.885	2.54
374.247	2.62
374.61	2.58
374.973	2.53
375.335	2.56
375.698	2.51
376.06	2.52
376.423	2.56
376.785	2.66
377.147	2.56
377.51	2.53
377.872	2.56
378.234	2.51
378.596	2.53
378.958	2.43
379.321	2.46
379.683	2.46
380.045	2.46
380.407	2.42
380.769	2.48
381.13	2.47
381.492	2.55
381.854	2.58
382.216	2.63
382.578	2.72
382.939	2.67
383.301	2.68
383.663	2.68
384.024	2.68
384.386	2.69
384.747	2.71
385.109	2.74
385.47	2.8
385.832	2.8
386.193	2.78
386.554	2.81
386.916	2.84
387.277	2.79
387.638	2.85
387.999	2.87
388.36	2.8
388.721	2.82
389.082	2.8
389.443	2.73
389.804	2.67
390.165	2.65
390.526	2.65
390.887	2.63
391.248	2.62
391.609	2.63
391.969	2.6
392.33	2.62
392.691	2.57
393.051	2.55
393.412	2.58
393.772	2.62
394.133	2.58
394.493	2.54
394.854	2.59
395.214	2.53
395.574	2.52
395.935	2.55
396.295	2.57
396.655	2.55
397.015	2.57
397.376	2.6
397.736	2.6
398.096	2.58
398.456	2.62
398.816	2.61
399.176	2.59
399.535	2.63
399.895	2.64
400.255	2.69
400.615	2.66
400.975	2.66
401.334	2.63
401.694	2.67
402.054	2.69
402.413	2.67
402.773	2.71
403.132	2.7
403.492	2.72
403.851	2.69
404.211	2.7
404.57	2.7
404.929	2.68
405.288	2.64
405.648	2.7
406.007	2.68
406.366	2.71
406.725	2.72
407.084	2.7
407.443	2.7
407.802	2.7
408.161	2.76
408.52	2.78
408.879	2.8
409.238	2.79
409.596	2.75
409.955	2.75
410.314	2.78
410.673	2.78
411.031	2.75
411.39	2.8
411.748	2.81
412.107	2.81
412.465	2.83
412.824	2.84
413.182	2.8
413.54	2.79
413.899	2.79
414.257	2.76
414.615	2.78
414.974	2.79
415.332	2.77
415.69	2.73
416.048	2.71
416.406	2.7
416.764	2.7
417.122	2.71
417.48	2.72
417.838	2.71
418.195	2.72
418.553	2.72
418.911	2.71
419.269	2.7
419.626	2.68
419.984	2.67
420.342	2.68
420.699	2.7
421.057	2.72
421.414	2.7
421.772	2.73
422.129	2.72
422.486	2.72
422.844	2.73
423.201	2.74
423.558	2.75
423.915	2.76
424.273	2.78
424.63	2.8
424.987	2.8
425.344	2.8
425.701	2.79
426.058	2.8
426.415	2.8
426.772	2.8
427.128	2.84
427.485	2.86
427.842	2.86
428.199	2.87
428.555	2.86
428.912	2.88
429.269	2.87
429.625	2.88
429.982	2.86
430.338	2.83
430.695	2.82
431.051	2.82
431.407	2.81
431.764	2.79
432.12	2.78
432.476	2.8
432.832	2.81
433.189	2.82
433.545	2.82
433.901	2.82
434.257	2.81
434.613	2.8
434.969	2.79
435.325	2.79
435.681	2.76
436.036	2.75
436.392	2.77
436.748	2.76
437.104	2.76
437.459	2.78
437.815	2.8
438.171	2.81
438.526	2.82
438.882	2.82
439.237	2.81
439.593	2.81
439.948	2.79
440.304	2.78
440.659	2.79
441.014	2.79
441.369	2.79
441.725	2.8
442.08	2.81
442.435	2.82
442.79	2.82
443.145	2.83
443.5	2.83
443.855	2.82
444.21	2.81
444.565	2.81
444.92	2.79
445.275	2.79
445.629	2.79
445.984	2.79
446.339	2.79
446.693	2.8
447.048	2.79
447.403	2.8
447.757	2.81
448.112	2.8
448.466	2.79
448.82	2.81
449.175	2.8
449.529	2.79
449.883	2.79
450.238	2.8
450.592	2.81
450.946	2.82
451.3	2.83
451.654	2.83
452.008	2.83
452.362	2.85
452.716	2.82
453.07	2.8
453.424	2.78
453.778	2.77
454.132	2.78
454.486	2.79
454.839	2.78
455.193	2.77
455.547	2.79
455.9	2.81
456.254	2.8
456.607	2.81
456.961	2.82
457.314	2.82
457.668	2.81
458.021	2.8
458.375	2.81
458.728	2.81
459.081	2.82
459.434	2.83
459.787	2.85
460.141	2.88
460.494	2.89
460.847	2.91
461.2	2.92
461.553	2.93
461.906	2.94
462.259	2.92
462.611	2.94
462.964	2.94
463.317	2.92
463.67	2.91
464.022	2.9
464.375	2.89
464.728	2.9
465.08	2.9
465.433	2.89
465.785	2.9
466.138	2.91
466.49	2.89
466.843	2.91
467.195	2.89
467.547	2.86
467.899	2.87
468.252	2.85
468.604	2.85
468.956	2.82
469.308	2.8
469.66	2.84
470.012	2.83
470.364	2.83
470.716	2.83
471.068	2.84
471.42	2.85
471.772	2.87
472.123	2.85
472.475	2.89
472.827	2.89
473.178	2.9
473.53	2.88
473.882	2.9
474.233	2.88
474.585	2.89
474.936	2.93
475.288	2.92
475.639	2.93
475.99	2.91
476.342	2.93
476.693	2.96
477.044	2.96
477.395	2.96
477.746	2.96
478.097	2.99
478.448	2.98
478.8	2.97
479.15	2.96
479.501	2.96
479.852	2.96
480.203	2.96
480.554	2.96
480.905	2.98
481.255	2.99
481.606	2.98
481.957	2.97
482.307	2.96
482.658	2.97
483.009	2.96
483.359	2.98
483.709	2.99
484.06	2.99
484.41	2.99
484.761	3
485.111	3.01
485.461	3
485.811	3.01
486.162	3.01
486.512	3.02
486.862	3.02
487.212	3.02
487.562	3.02
487.912	3.03
488.262	3.03
488.612	3.02
488.961	3.02
489.311	3.04
489.661	3.06
490.011	3.04
490.36	3.06
490.71	3.05
491.06	3.05
491.409	3.05
491.759	3.07
492.108	3.06
492.458	3.05
492.807	3.05
493.157	3.05
493.506	3.06
493.855	3.06
494.204	3.06
494.554	3.05
494.903	3.05
495.252	3.06
495.601	3.06
495.95	3.07
496.299	3.08
496.648	3.08
496.997	3.07
497.346	3.1
497.695	3.1
498.043	3.1
498.392	3.11
498.741	3.1
499.09	3.07
499.438	3.1
499.787	3.1
500.135	3.1
500.484	3.08
500.832	3.08
501.181	3.09
501.529	3.11
501.878	3.13
502.226	3.11
502.574	3.12
502.923	3.13
503.271	3.13
503.619	3.13
503.967	3.12
504.315	3.11
504.663	3.12
505.011	3.13
505.359	3.14
505.707	3.13
506.055	3.15
506.403	3.17
506.751	3.15
507.098	3.16
507.446	3.17
507.794	3.18
508.141	3.19
508.489	3.2
508.837	3.2
509.184	3.19
509.531	3.2
509.879	3.17
510.226	3.17
510.574	3.16
510.921	3.17
511.268	3.19
511.616	3.2
511.963	3.18
512.31	3.16
512.657	3.17
513.004	3.16
513.351	3.15
513.698	3.15
514.045	3.17
514.392	3.18
514.739	3.17
515.086	3.19
515.432	3.2
515.779	3.2
516.126	3.21
516.473	3.19
516.819	3.19
517.166	3.23
517.512	3.23
517.859	3.24
518.205	3.23
518.552	3.22
518.898	3.21
519.245	3.21
519.591	3.24
519.937	3.23
520.283	3.23
520.629	3.23
520.976	3.24
521.322	3.22
521.668	3.21
522.014	3.23
522.36	3.23
522.706	3.23
523.052	3.22
523.398	3.23
523.743	3.26
524.089	3.27
524.435	3.23
524.781	3.25
525.126	3.26
525.472	3.26
525.817	3.27
526.163	3.26
526.509	3.27
526.854	3.25
527.199	3.27
527.545	3.28
527.89	3.29
528.235	3.29
528.581	3.3
528.926	3.3
529.271	3.3
529.616	3.3
529.961	3.29
530.306	3.28
530.651	3.28
530.996	3.29
531.341	3.29
531.686	3.3
532.031	3.29
532.376	3.29
532.721	3.29
533.065	3.28
533.41	3.3
533.755	3.29
534.099	3.31
534.444	3.31
534.788	3.3
535.133	3.3
535.477	3.29
535.822	3.28
536.166	3.3
536.51	3.3
536.855	3.3
537.199	3.31
537.543	3.34
537.887	3.33
538.231	3.32
538.576	3.33
538.92	3.33
539.264	3.35
539.608	3.36
539.951	3.36
540.295	3.37
540.639	3.38
540.983	3.39
541.327	3.4
541.671	3.4
542.014	3.41
542.358	3.44
542.701	3.44
543.045	3.44
543.389	3.46
543.732	3.46
544.075	3.47
544.419	3.48
544.762	3.46
545.105	3.48
545.449	3.51
545.792	3.52
546.135	3.54
546.478	3.53
546.821	3.53
547.165	3.54
547.508	3.56
547.851	3.56
548.194	3.59
548.536	3.61
548.879	3.59
549.222	3.57
549.565	3.57
549.908	3.57
550.25	3.58
550.593	3.56
550.936	3.56
551.278	3.55
551.621	3.54
551.963	3.56
552.306	3.54
552.648	3.51
552.991	3.49
553.333	3.48
553.675	3.51
554.017	3.54
554.36	3.56
554.702	3.54
555.044	3.56
555.386	3.54
555.728	3.53
556.07	3.53
556.412	3.56
556.754	3.49
557.096	3.51
557.438	3.5
557.78	3.51
558.121	3.51
558.463	3.5
558.805	3.54
559.147	3.53
559.488	3.53
559.83	3.54
560.171	3.58
560.513	3.58
560.854	3.54
561.196	3.52
561.537	3.5
561.878	3.51
562.22	3.51
562.561	3.49
562.902	3.48
563.243	3.51
563.584	3.49
563.925	3.52
564.266	3.51
564.607	3.52
564.948	3.53
565.289	3.54
565.63	3.56
565.971	3.55
566.312	3.56
566.653	3.56
566.993	3.55
567.334	3.56
567.675	3.56
568.015	3.54
568.356	3.53
568.696	3.55
569.037	3.53
569.377	3.53
569.718	3.55
570.058	3.57
570.398	3.55
570.739	3.56
571.079	3.54
571.419	3.56
571.759	3.58
572.099	3.54
572.439	3.55
572.779	3.53
573.119	3.51
573.459	3.51
573.799	3.52
574.139	3.54
574.479	3.51
574.819	3.52
575.158	3.54
575.498	3.53
575.838	3.51
576.177	3.47
576.517	3.46
576.856	3.49
577.196	3.46
577.535	3.46
577.875	3.44
578.214	3.47
578.553	3.43
578.893	3.38
579.232	3.42
579.571	3.42
579.91	3.45
580.25	3.46
580.589	3.45
580.928	3.39
581.267	3.35
581.606	3.34
581.945	3.33
582.283	3.34
582.622	3.36
582.961	3.38
583.3	3.41
583.639	3.43
583.977	3.39
584.316	3.42
584.654	3.41
584.993	3.42
585.332	3.43
585.67	3.46
586.008	3.48
586.347	3.45
586.685	3.45
587.024	3.43
587.362	3.42
587.7	3.43
588.038	3.51
588.376	3.53
588.715	3.52
589.053	3.56
589.391	3.55
589.729	3.53
590.067	3.55
590.404	3.58
590.742	3.56
591.08	3.56
591.418	3.59
591.756	3.63
592.093	3.63
592.431	3.63
592.769	3.65
593.106	3.65
593.444	3.69
593.781	3.66
594.119	3.62
594.456	3.62
594.793	3.66
595.131	3.65
595.468	3.7
595.805	3.71
596.143	3.7
596.48	3.69
596.817	3.72
597.154	3.73
597.491	3.72
597.828	3.72
598.165	3.72
598.502	3.68
598.839	3.67
599.176	3.69
599.512	3.7
599.849	3.66
600.186	3.7
600.523	3.69
600.859	3.71
601.196	3.77
601.532	3.79
601.869	3.78
602.205	3.74
602.542	3.67
602.878	3.69
603.215	3.66
603.551	3.69
603.887	3.69
604.223	3.63
604.56	3.63
604.896	3.67
605.232	3.67
605.568	3.69
605.904	3.7
606.24	3.74
606.576	3.75
606.912	3.72
607.248	3.7
607.583	3.69
607.919	3.67
608.255	3.63
608.591	3.63
608.926	3.58
609.262	3.63
609.597	3.65
609.933	3.62
610.268	3.62
610.604	3.61
610.939	3.63
611.275	3.67
611.61	3.7
611.945	3.67
612.281	3.67
612.616	3.69
612.951	3.69
613.286	3.64
613.621	3.66
613.956	3.72
614.291	3.75
614.626	3.75
614.961	3.76
615.296	3.81
615.631	3.85
615.966	3.9
616.3	3.88
616.635	3.9
616.97	3.94
617.304	3.91
617.639	3.9
617.973	3.89
618.308	3.85
618.642	3.81
618.977	3.81
619.311	3.8
619.646	3.77
619.98	3.79
620.314	3.79
620.648	3.75
620.983	3.74
621.317	3.73
621.651	3.73
621.985	3.78
622.319	3.75
622.653	3.74
622.987	3.73
623.321	3.77
623.655	3.79
623.988	3.83
624.322	3.89
624.656	3.89
624.99	3.87
625.323	3.86
625.657	3.9
625.99	3.95
626.324	3.92
626.657	3.93
626.991	3.92
627.324	3.85
627.658	3.88
627.991	3.94
628.324	3.92
628.657	3.95
628.991	3.95
629.324	3.96
629.657	3.96
629.99	3.93
630.323	3.9
630.656	3.91
630.989	3.87
631.322	3.87
631.655	3.89
631.987	3.9
632.32	3.96
632.653	3.91
632.986	3.85
633.318	3.81
633.651	3.79
633.984	3.82
634.316	3.88
634.649	3.84
634.981	3.79
635.313	3.81
635.646	3.79
635.978	3.82
636.31	3.79
636.643	3.78
636.975	3.75
637.307	3.76
637.639	3.73
637.971	3.71
638.303	3.68
638.635	3.65
638.967	3.6
639.299	3.62
639.631	3.69
639.963	3.68
640.295	3.72
640.626	3.75
640.958	3.76
641.29	3.72
641.621	3.72
641.953	3.69
642.285	3.67
642.616	3.68
642.948	3.65
643.279	3.68
643.61	3.72
643.942	3.82
644.273	3.84
644.604	3.95
644.936	3.95
645.267	3.91
645.598	3.93
645.929	3.96
646.26	3.87
646.591	3.81
646.922	3.85
647.253	3.85
647.584	3.81
647.915	3.75
648.245	3.77
648.576	3.79
648.907	3.81
649.238	3.79
649.568	3.76
649.899	3.75
650.229	3.74
650.56	3.72
650.89	3.74
651.221	3.77
651.551	3.67
651.882	3.63
652.212	3.68
652.542	3.69
652.872	3.69
653.203	3.8
653.533	3.87
653.863	3.91
654.193	3.92
654.523	3.94
654.853	3.93
655.183	4
655.513	3.97
655.843	3.96
656.172	4.07
656.502	4.11
656.832	4.15
657.162	4.1
657.491	4.07
657.821	4.02
658.15	4.04
658.48	4.15
658.809	4.2
659.139	4.22
659.468	4.24
659.798	4.25
660.127	4.16
660.456	4.12
660.785	4.1
661.115	4.15
661.444	4.16
661.773	4.14
662.102	4.16
662.431	4.25
662.76	4.22
663.089	4.19
663.418	4.17
663.747	4.17
664.076	4.26
664.404	4.36
664.733	4.42
665.062	4.34
665.39	4.3
665.719	4.3
666.048	4.26
666.376	4.29
666.705	4.35
667.033	4.47
667.362	4.49
667.69	4.51
668.018	4.51
668.347	4.51
668.675	4.55
669.003	4.5
669.331	4.5
669.659	4.5
669.987	4.43
670.315	4.41
670.643	4.37
670.971	4.32
671.299	4.3
671.627	4.28
671.955	4.28
672.283	4.15
672.61	4.23
672.938	4.26
673.266	4.27
673.593	4.27
673.921	4.19
674.249	4.16
674.576	4.16
674.904	4.1
675.231	4.09
675.558	4.08
675.886	4.13
676.213	4.12
676.54	4.23
676.867	4.23
677.195	4.22
677.522	4.19
677.849	4.22
678.176	4.18
678.503	4.16
678.83	4.24
679.157	4.31
679.484	4.25
679.81	4.26
680.137	4.28
680.464	4.3
680.791	4.36
681.117	4.41
681.444	4.38
681.771	4.45
682.097	4.47
682.424	4.43
682.75	4.47
683.077	4.48
683.403	4.49
683.729	4.48
684.056	4.61
684.382	4.72
684.708	4.76
685.034	4.8
685.36	4.85
685.686	4.77
686.012	4.81
686.339	4.8
686.664	4.75
686.99	4.69
687.316	4.63
687.642	4.6
687.968	4.61
688.294	4.58
688.619	4.59
688.945	4.57
689.271	4.72
689.596	4.68
689.922	4.68
690.247	4.67
690.573	4.78
690.898	4.7
691.224	4.63
691.549	4.57
691.874	4.56
692.2	4.53
692.525	4.67
692.85	4.62
693.175	4.75
693.5	4.68
693.825	4.62
694.15	4.67
694.475	4.53
694.8	4.5
695.125	4.66
695.45	4.68
695.775	4.75
696.099	4.75
696.424	4.74
696.749	4.78
697.073	4.69
697.398	4.73
697.723	4.57
698.047	4.63
698.372	4.71
698.696	4.72
699.02	4.73
699.345	4.66
699.669	4.73
699.993	4.68
700.318	4.9
700.642	4.99
700.966	4.96
701.29	5.15
701.614	5.21
701.938	5.07
702.262	5.09
702.586	5.12
702.91	5.09
703.234	5.06
703.557	5.05
703.881	5.16
704.205	5.02
704.529	5.18
704.852	5.18
705.176	5.19
705.499	5.11
705.823	5.06
706.146	4.99
706.47	4.92
706.793	4.96
707.117	4.78
707.44	4.67
707.763	4.81
708.086	4.85
708.409	4.79
708.733	4.76
709.056	4.74
709.379	4.75
709.702	4.83
710.025	4.82
710.348	4.81
710.671	4.85
710.993	4.9
711.316	5.02
711.639	4.95
711.962	5.05
712.284	5.07
712.607	5.2
712.93	5.19
713.252	5.11
713.575	5.1
713.897	5.08
714.22	5.08
714.542	4.94
714.864	4.8
715.187	4.84
715.509	4.91
715.831	4.91
716.153	4.78
716.475	4.76
716.798	4.68
717.12	4.62
717.442	4.59
717.764	4.57
718.085	4.46
718.407	4.52
718.729	4.25
719.051	4.33
719.373	4.34
719.695	4.37
720.016	4.39
720.338	4.26
720.659	4.45
720.981	4.41
721.302	4.59
721.624	4.46
721.945	4.38
722.267	4.37
722.588	4.33
722.909	4.39
723.231	4.22
723.552	4.49
723.873	4.67
724.194	4.6
724.515	4.75
724.836	4.83
725.157	4.77
725.478	4.95
725.799	4.73
726.12	4.61
726.441	4.65
726.762	4.64
727.083	4.91
727.403	4.74
727.724	4.92
728.045	5
728.365	5.18
728.686	5.3
729.006	5.47
729.327	5.49
729.647	5.66
729.967	5.71
730.288	5.58
730.608	5.47
730.928	5.56
731.249	5.7
731.569	5.74
731.889	5.79
732.209	5.8
732.529	5.92
732.849	5.81
733.169	5.85
733.489	5.87
733.809	5.76
734.129	5.81
734.448	5.77
734.768	5.52
735.088	5.37
735.408	5.21
735.727	5.18
736.047	5.21
736.366	4.97
736.686	4.96
737.005	5.25
737.325	5.22
737.644	5.08
737.963	4.89
738.283	4.81
738.602	4.89
738.921	5.14
739.24	5.13
739.56	5.51
739.879	5.4
740.198	5.52
740.517	5.52
740.836	5.49
741.155	5.57
741.473	5.7
741.792	5.89
742.111	6.01
742.43	6.05
742.748	5.98
743.067	6.01
743.386	5.81
743.704	5.66
744.023	5.7
744.341	5.9
744.66	5.79
744.978	5.72
745.297	5.67
745.615	5.57
745.933	5.6
746.252	5.44
746.57	5.44
746.888	5.43
747.206	5.46
747.524	5.43
747.842	5.44
748.16	5.64
748.478	5.66
748.796	5.75
749.114	5.54
749.432	5.55
749.749	5.84
750.067	6.11
750.385	6.08
750.703	6.36
751.02	6.38
751.338	6.36
751.655	6.38
751.973	6.42
752.29	6.26
752.608	6.12
752.925	6.24
753.242	6.66
753.56	6.6
753.877	6.53
754.194	6.81
754.511	6.67
754.828	6.23
755.145	6.21
755.462	6.02
755.779	6.07
756.096	6.15
756.413	6.3
756.73	6.09
757.047	5.93
757.364	5.66
757.68	5.58
757.997	5.84
758.314	6.21
758.63	5.96
758.947	5.9
759.264	6.1
759.58	6.05
759.896	5.91
760.213	6.02
760.529	6.06
760.846	6.08
761.162	5.92
761.478	5.92
761.794	6.12
762.11	6.47
762.426	6.37
762.743	6.38
763.059	6.38
763.375	6.66
763.69	6.81
764.006	6.99
764.322	6.96
764.638	6.73
764.954	6.49
765.27	6.72
765.585	6.89
765.901	6.81
766.216	6.9
766.532	6.71
766.848	6.63
767.163	6.62
767.478	6.51
767.794	6.82
768.109	7.2
768.424	7.07
768.74	6.8
769.055	7.07
769.37	6.78
769.685	6.24
770	6.15
770.315	6.06
770.63	5.89
770.945	5.98
771.26	6.32
771.575	6.26
771.89	6.01
772.205	5.8
772.52	6.03
772.834	5.56
773.149	5.7
773.464	5.86
773.778	5.77
774.093	5.64
774.407	5.6
774.722	5.01
775.036	4.93
775.351	5.04
775.665	5.22
775.979	5.49
776.293	5.84
776.608	5.74
776.922	5.79
777.236	5.77
777.55	5.41
777.864	5.42
778.178	5.93
778.492	6.03
778.806	6.29
779.12	5.99
779.434	6.23
779.747	6.1
780.061	6.3
780.375	6.55
780.689	6.67
781.002	6.47
781.316	6.93
781.629	7.09
781.943	7.27
782.256	6.48
782.57	6.86
782.883	6.91
783.196	6.73
783.51	6.93
783.823	6.77
784.136	6.89
784.449	6.84
784.762	6.66
785.075	6.9
785.388	6.72
785.701	7.32
786.014	7.06
786.327	7.47
786.64	7.11
786.953	7.01
787.266	6.98
787.578	7.23
787.891	7.02
788.204	6.7
788.516	6.6
788.829	6.83
789.141	6.83
789.454	6.53
789.766	7.2
790.079	7.24
790.391	7.23
790.703	7.06
791.016	7.21
791.328	7.13
791.64	7.06
791.952	7.07
792.264	6.57
792.576	6.67
792.888	6.08
793.2	5.92
793.512	5.95
793.824	6.68
794.136	6.59
794.448	6.95
794.76	7.66
795.071	7.4
795.383	7.94
795.695	7.74
796.006	8.04
796.318	7.81
796.629	7.81
796.941	8.12
797.252	8.35
797.564	8.19
797.875	7.88
798.186	8.16
798.497	7.76
798.809	8.21
799.12	8.42
799.431	8.13
799.742	8.48
800.053	7.98
800.364	7.22
800.675	7.49
800.986	8.06
801.297	7.19
801.608	7.07
801.918	6.45
802.229	6.49
802.54	6.68
802.851	6.44
803.161	6.07
803.472	6.18
803.782	6.59
804.093	6.11
804.403	6.41
804.714	5.84
805.024	6.29
805.334	6.08
805.645	6.49
805.955	7.06
806.265	7.24
806.575	7.59
806.885	7.35
807.195	7.16
807.505	6.51
807.815	6.92
808.125	7.29
808.435	8
808.745	7.52
809.055	7.72
809.365	7.53
809.674	7.57
809.984	7.24
810.294	6.3
810.603	6.43
810.913	6.24
811.222	6.64
811.532	6.34
811.841	6.54
812.151	6.4
812.46	6.96
812.769	6.5
813.079	6.7
813.388	7.22
813.697	6.26
814.006	6.63
814.315	6.33
814.624	7
814.933	6.27
815.242	5.94
815.551	5.27
815.86	6
816.169	5.71
816.478	6
816.786	6.13
817.095	6.77
817.404	6.78
817.712	6.78
818.021	6.71
818.33	6.93
818.638	6.73
818.947	6.69
819.255	7.27
819.563	7.29
819.872	7
820.18	7.81
820.488	7.47
820.796	7.72
821.105	7.7
821.413	7.8
821.721	7.91
822.029	7.93
822.337	7.61
822.645	7.84
822.953	7.8
823.26	8.11
823.568	8.04
823.876	8.13
824.184	8.02
824.491	8.07
824.799	8.16
825.107	8.28
825.414	8.14
825.722	8
826.029	8.17
826.337	8.4
826.644	8.19
826.951	8.36
827.259	8.39
827.566	8.28
827.873	8.52
828.18	8.74
828.488	8.81
828.795	9.21
829.102	9.07
829.409	9.27
829.716	9.01
830.023	9.19
830.329	9.25
830.636	9.73
830.943	9.74
831.25	9.19
831.557	9.07
831.863	9.53
832.17	9.65
832.476	9.05
832.783	8.77
833.089	9.39
833.396	9.35
833.702	9.94
834.009	9.93
834.315	9.59
834.621	9.71
834.928	9.78
835.234	9.71
835.54	9.63
835.846	9.44
836.152	9.35
836.458	9.29
836.764	9.43
837.07	8.84
837.376	8.77
837.682	9.1
837.988	9.42
838.293	9.8
838.599	10.08
838.905	10.29
839.211	10.7
839.516	10.97
839.822	11.32
840.127	10.37
840.433	10.69
840.738	11.12
841.044	10.39
841.349	10.16
841.654	10.33
841.959	11.42
842.265	11.48
842.57	12.19
842.875	12.31
843.18	13.2
843.485	13.78
843.79	14.81
844.095	14.72
844.4	14.39
844.705	14.31
845.01	15.54
845.315	15.95
845.619	16.96
845.924	13.58
846.229	12.15
846.533	11.75
846.838	11.93
847.142	10.65
847.447	10.48
847.751	11.87
848.056	9.57
848.36	9.93
848.664	10.74
848.969	8.97
849.273	7.9
849.577	7.01
849.881	6.86
850.185	5.38
850.489	6.93
850.794	6.77
851.097	5.23
851.401	1.76
851.705	1.49
852.009	0.91
852.313	4.25
852.617	5.77
852.92	8.47
853.224	9.02
853.528	9.32
853.831	11.66
854.135	11.87
854.438	14.29
854.742	12.93
855.045	12.55
855.349	13.13
855.652	15.11
855.955	14.33
856.259	15.04
856.562	16.66
856.865	16.32
857.168	14.68
857.471	14.62
857.774	17.89
858.077	19.27
858.38	19.18
858.683	18.13
858.986	16.92
859.289	16.55
859.592	16.27
859.894	17.43
860.197	15.18
860.5	14.88
860.802	14.31
861.105	14.88
861.407	15.99
861.71	16.54
862.012	15.01
862.315	14.8
862.617	12.93
862.919	13.07
863.222	12.59
863.524	13.35
863.826	11.64
864.128	10.06
864.43	11.23
864.732	11.35
865.034	12.25
865.336	14.78
865.638	14.96
865.94	13.15
866.242	13.23
866.544	16.78
866.846	15.86
867.147	16.42
867.449	15.14
867.751	13.35
868.052	13.5
868.354	16.42
868.655	16.5
868.957	16.9
869.258	17.44
869.56	18.57
869.861	19.25
870.162	23.52
870.463	22.62
870.765	21.99
871.066	22.46
871.367	20.41
871.668	19.58
871.969	17.38
872.27	19.57
872.571	20.33
872.872	17.91
873.173	18.24
873.473	17.34
873.774	17.87
874.075	18.65
874.376	19.08
874.676	14.62
874.977	13.41
875.277	15.66
875.578	14.78
875.878	13.35
876.179	13.57
876.479	11.38
876.78	11.94
877.08	11.67
877.38	9.83
877.68	11.83
877.981	10.63
878.281	10.78
878.581	9.22
