Data from MVZ_BU88648_Reflection_00010.txt Node
Date: Tue Nov 19 12:02:10 EST 2019
User: vgr7
Spectrometer: USB2G7710
Scans to average: 3
Trigger mode: 4
Integration Time (sec): 2.000000E-2
Electric dark correction enabled: true
Boxcar width: 10
XAxis mode: Wavelengths
Number of Pixels in Spectrum: 2048
>>>>>Begin Spectral Data<<<<<
177.721	-458.82
178.105	-159.04
178.488	-118.2
178.871	-196.15
179.254	-103.85
179.636	-616.22
180.019	-85.6
180.402	337.5
180.785	-6.98
181.168	-60.84
181.55	-471.43
181.933	628.85
182.316	-953.57
182.698	-763.64
183.081	-255.63
183.463	-272.99
183.846	-289.59
184.228	-222.45
184.611	-204.99
184.993	-169.15
185.376	-205.91
185.758	-171.15
186.14	-208.86
186.522	-205.68
186.904	-183.96
187.287	-253.92
187.669	-156.52
188.051	-223.01
188.433	-185.6
188.815	-223.43
189.197	-238.31
189.579	-218.18
189.961	-227.29
190.342	-199.81
190.724	-226.53
191.106	-223.6
191.488	-151.35
191.869	-144.46
192.251	-139.4
192.633	-158.89
193.014	-198.05
193.396	-188.42
193.777	-170.74
194.159	-121.67
194.54	-88.94
194.922	-100.22
195.303	-99.03
195.684	-135.15
196.065	-130.21
196.447	-129.28
196.828	-131.4
197.209	-118.65
197.59	-60.97
197.971	-34.21
198.352	-36.13
198.733	-41.65
199.114	-54.15
199.495	-71.05
199.876	-139
200.257	-159.55
200.638	-111.66
201.018	-117.11
201.399	-105.04
201.78	-95.9
202.16	-110.29
202.541	-112.87
202.922	-132.05
203.302	-142.27
203.683	-131.25
204.063	-102.51
204.444	-95.76
204.824	-82.95
205.204	-77.82
205.585	-101.64
205.965	-107
206.345	-108.73
206.725	-86.25
207.106	-79.3
207.486	-66.37
207.866	-44.75
208.246	-35.95
208.626	-24.62
209.006	-24.28
209.386	-36.44
209.766	-55.6
210.145	-53.2
210.525	-67.29
210.905	-45.18
211.285	-23.74
211.664	-15
212.044	-24.15
212.424	-26.57
212.803	-29.79
213.183	-41.69
213.562	-29.81
213.942	-30.54
214.321	-31.35
214.701	-38.04
215.08	-39.54
215.459	-43.93
215.838	-53.07
216.218	-60.62
216.597	-72.48
216.976	-64.2
217.355	-46.21
217.734	-42.86
218.113	-43.14
218.492	-33.94
218.871	-33.87
219.25	-53.41
219.629	-60.36
220.008	-65.94
220.387	-82.38
220.766	-52.99
221.144	-34.33
221.523	-39.77
221.902	-45.09
222.28	-34.56
222.659	-18.13
223.037	-23.18
223.416	-23.77
223.794	-6.64
224.173	-18.56
224.551	-8.9
224.929	-23.95
225.308	-34.07
225.686	-28.12
226.064	-27.96
226.442	-22.92
226.821	-22.04
227.199	-18.32
227.577	-17.32
227.955	-14.26
228.333	-12.47
228.711	-14.3
229.089	-14.59
229.467	-14.34
229.845	-10.83
230.222	-8.49
230.6	-5.19
230.978	-3.91
231.356	-3.37
231.733	-4.67
232.111	-2.32
232.488	-2.61
232.866	1.27
233.243	3.78
233.621	3.95
233.998	4.96
234.376	4.78
234.753	3.02
235.13	3.8
235.508	4.84
235.885	5.36
236.262	3.87
236.639	3.26
237.016	2.83
237.393	3.45
237.77	1.89
238.147	0.45
238.524	-0.37
238.901	-0.09
239.278	-0.16
239.655	-0.44
240.032	-0.51
240.409	0.52
240.785	0.4
241.162	0.42
241.539	0.77
241.915	0.87
242.292	0.96
242.668	1.44
243.045	2.11
243.421	2.49
243.798	2.77
244.174	3.6
244.551	3.98
244.927	4.24
245.303	3.72
245.679	3.78
246.056	3.9
246.432	3.75
246.808	3.81
247.184	4.07
247.56	4.19
247.936	4.34
248.312	4.23
248.688	4.01
249.064	3.96
249.44	3.76
249.815	3.85
250.191	3.88
250.567	3.93
250.943	3.9
251.318	3.68
251.694	3.39
252.069	3.22
252.445	2.83
252.82	2.94
253.196	3.31
253.571	3.38
253.947	3.52
254.322	3.4
254.697	3.54
255.073	3.49
255.448	3.44
255.823	3.56
256.198	3.65
256.573	3.84
256.948	3.97
257.323	4.27
257.698	4.18
258.073	4.03
258.448	4.07
258.823	3.69
259.198	3.6
259.573	3.54
259.948	3.47
260.322	3.46
260.697	3.36
261.072	3.37
261.446	3.2
261.821	3.02
262.195	2.99
262.57	2.97
262.944	3.12
263.319	3.16
263.693	3.17
264.067	2.82
264.442	2.8
264.816	2.58
265.19	2.46
265.564	2.3
265.938	2.27
266.313	2.11
266.687	2.33
267.061	2.26
267.435	2.39
267.809	2.49
268.183	2.68
268.556	2.61
268.93	2.83
269.304	3.13
269.678	3.43
270.051	3.48
270.425	3.27
270.799	2.9
271.172	2.9
271.546	2.97
271.919	3.03
272.293	3.18
272.666	3.35
273.04	3.34
273.413	3.43
273.787	3.58
274.16	3.51
274.533	3.41
274.906	3.62
275.279	3.65
275.653	3.57
276.026	3.44
276.399	3.56
276.772	3.43
277.145	3.29
277.518	2.96
277.891	3.15
278.263	3.3
278.636	3.5
279.009	3.56
279.382	3.3
279.755	3.43
280.127	3.29
280.5	3.25
280.872	3.11
281.245	3.12
281.617	2.96
281.99	2.89
282.362	3.09
282.735	2.92
283.107	2.76
283.479	2.67
283.852	2.82
284.224	2.72
284.596	2.64
284.968	2.7
285.34	2.8
285.713	2.8
286.085	2.83
286.457	2.85
286.829	2.75
287.201	3
287.572	3.08
287.944	3.01
288.316	2.95
288.688	3.1
289.06	3.07
289.431	3.15
289.803	3.39
290.175	3.29
290.546	3.25
290.918	3.22
291.289	3.24
291.661	3.11
292.032	3.19
292.403	3.18
292.775	3.2
293.146	3.21
293.517	3.22
293.889	3.15
294.26	3.07
294.631	3.2
295.002	3.04
295.373	3.01
295.744	2.93
296.115	2.91
296.486	2.85
296.857	2.89
297.228	2.81
297.599	2.63
297.97	2.72
298.34	2.79
298.711	2.91
299.082	2.99
299.452	2.98
299.823	2.86
300.194	2.93
300.564	2.87
300.935	2.87
301.305	2.85
301.676	2.8
302.046	2.79
302.416	2.67
302.787	2.64
303.157	2.65
303.527	2.84
303.897	2.84
304.267	2.77
304.637	2.84
305.008	3
305.378	3.05
305.748	3.1
306.117	3.06
306.487	2.96
306.857	3.1
307.227	3.39
307.597	3.52
307.967	3.34
308.336	3.4
308.706	3.44
309.076	3.53
309.445	3.74
309.815	3.85
310.184	3.84
310.554	3.9
310.923	3.85
311.293	3.95
311.662	4.07
312.031	4
312.401	3.86
312.77	3.73
313.139	3.91
313.508	3.74
313.877	3.87
314.246	3.92
314.616	3.92
314.985	3.78
315.353	3.79
315.722	4.02
316.091	4
316.46	3.98
316.829	3.94
317.198	3.93
317.567	3.91
317.935	4
318.304	4.12
318.672	4.11
319.041	4.07
319.41	3.93
319.778	4.09
320.147	4.2
320.515	4.22
320.883	4.1
321.252	4.3
321.62	4.26
321.988	4.43
322.357	4.26
322.725	4.31
323.093	4.18
323.461	4.04
323.829	4.01
324.197	4.12
324.565	4.09
324.933	3.94
325.301	3.89
325.669	3.88
326.037	3.85
326.405	3.87
326.772	3.94
327.14	4.07
327.508	4.11
327.875	4.06
328.243	4.18
328.61	4.13
328.978	4.17
329.346	4.26
329.713	4.37
330.08	4.41
330.448	4.37
330.815	4.49
331.182	4.6
331.55	4.6
331.917	4.58
332.284	4.59
332.651	4.74
333.018	4.82
333.385	4.96
333.752	4.99
334.119	5.09
334.486	5
334.853	4.99
335.22	4.91
335.587	4.88
335.954	4.79
336.32	4.85
336.687	4.77
337.054	4.7
337.42	4.65
337.787	4.79
338.153	4.78
338.52	4.9
338.886	4.9
339.253	4.93
339.619	4.96
339.986	5.14
340.352	5.2
340.718	5.25
341.084	5.13
341.451	5.18
341.817	5.22
342.183	5.3
342.549	5.41
342.915	5.55
343.281	5.63
343.647	5.77
344.013	5.88
344.379	5.83
344.745	5.87
345.11	5.93
345.476	5.94
345.842	5.94
346.208	5.99
346.573	6.08
346.939	6.11
347.304	6.1
347.67	5.95
348.035	5.9
348.401	5.86
348.766	6
349.132	5.94
349.497	5.93
349.862	5.83
350.228	5.81
350.593	5.73
350.958	5.86
351.323	5.9
351.688	5.9
352.053	5.93
352.418	5.94
352.783	5.88
353.148	5.88
353.513	5.89
353.878	5.84
354.243	5.8
354.608	5.85
354.972	5.86
355.337	5.95
355.702	6.04
356.066	6.09
356.431	5.99
356.795	6.06
357.16	6.08
357.524	6.05
357.889	6.03
358.253	6.01
358.618	5.93
358.982	5.81
359.346	5.78
359.71	5.8
360.075	5.8
360.439	5.77
360.803	5.74
361.167	5.73
361.531	5.66
361.895	5.62
362.259	5.6
362.623	5.63
362.987	5.55
363.351	5.46
363.714	5.46
364.078	5.46
364.442	5.36
364.806	5.27
365.169	5.31
365.533	5.3
365.896	5.41
366.26	5.41
366.623	5.38
366.987	5.39
367.35	5.39
367.714	5.39
368.077	5.4
368.44	5.48
368.803	5.47
369.167	5.53
369.53	5.58
369.893	5.52
370.256	5.53
370.619	5.46
370.982	5.41
371.345	5.31
371.708	5.32
372.071	5.34
372.434	5.31
372.797	5.29
373.159	5.21
373.522	5.11
373.885	5.14
374.247	5.09
374.61	5.01
374.973	4.95
375.335	4.87
375.698	4.82
376.06	4.7
376.423	4.64
376.785	4.6
377.147	4.49
377.51	4.53
377.872	4.48
378.234	4.54
378.596	4.52
378.958	4.58
379.321	4.54
379.683	4.59
380.045	4.61
380.407	4.56
380.769	4.53
381.13	4.5
381.492	4.39
381.854	4.4
382.216	4.41
382.578	4.37
382.939	4.39
383.301	4.35
383.663	4.36
384.024	4.32
384.386	4.3
384.747	4.35
385.109	4.32
385.47	4.31
385.832	4.27
386.193	4.29
386.554	4.22
386.916	4.19
387.277	4.06
387.638	4.06
387.999	4.08
388.36	4.08
388.721	4.09
389.082	4.12
389.443	4.15
389.804	4.12
390.165	4.16
390.526	4.14
390.887	4.11
391.248	4.1
391.609	4.13
391.969	4.11
392.33	4.02
392.691	4
393.051	3.95
393.412	3.93
393.772	3.89
394.133	3.9
394.493	3.91
394.854	3.95
395.214	3.91
395.574	3.88
395.935	3.85
396.295	3.81
396.655	3.76
397.015	3.71
397.376	3.71
397.736	3.63
398.096	3.6
398.456	3.61
398.816	3.6
399.176	3.57
399.535	3.54
399.895	3.58
400.255	3.55
400.615	3.56
400.975	3.57
401.334	3.57
401.694	3.55
402.054	3.5
402.413	3.49
402.773	3.49
403.132	3.49
403.492	3.5
403.851	3.45
404.211	3.46
404.57	3.46
404.929	3.43
405.288	3.47
405.648	3.47
406.007	3.48
406.366	3.43
406.725	3.41
407.084	3.43
407.443	3.43
407.802	3.44
408.161	3.42
408.52	3.42
408.879	3.41
409.238	3.4
409.596	3.43
409.955	3.42
410.314	3.4
410.673	3.39
411.031	3.36
411.39	3.39
411.748	3.41
412.107	3.38
412.465	3.38
412.824	3.37
413.182	3.34
413.54	3.32
413.899	3.33
414.257	3.38
414.615	3.36
414.974	3.32
415.332	3.33
415.69	3.31
416.048	3.29
416.406	3.28
416.764	3.28
417.122	3.26
417.48	3.26
417.838	3.27
418.195	3.25
418.553	3.24
418.911	3.24
419.269	3.23
419.626	3.25
419.984	3.26
420.342	3.27
420.699	3.28
421.057	3.28
421.414	3.28
421.772	3.26
422.129	3.24
422.486	3.25
422.844	3.23
423.201	3.23
423.558	3.24
423.915	3.24
424.273	3.24
424.63	3.24
424.987	3.23
425.344	3.23
425.701	3.24
426.058	3.27
426.415	3.27
426.772	3.26
427.128	3.25
427.485	3.24
427.842	3.23
428.199	3.22
428.555	3.22
428.912	3.23
429.269	3.21
429.625	3.27
429.982	3.25
430.338	3.26
430.695	3.23
431.051	3.22
431.407	3.21
431.764	3.19
432.12	3.22
432.476	3.22
432.832	3.24
433.189	3.24
433.545	3.23
433.901	3.22
434.257	3.22
434.613	3.21
434.969	3.22
435.325	3.23
435.681	3.23
436.036	3.21
436.392	3.21
436.748	3.22
437.104	3.2
437.459	3.21
437.815	3.22
438.171	3.26
438.526	3.27
438.882	3.27
439.237	3.29
439.593	3.27
439.948	3.28
440.304	3.26
440.659	3.26
441.014	3.25
441.369	3.25
441.725	3.26
442.08	3.25
442.435	3.26
442.79	3.24
443.145	3.23
443.5	3.24
443.855	3.23
444.21	3.22
444.565	3.2
444.92	3.2
445.275	3.2
445.629	3.18
445.984	3.17
446.339	3.15
446.693	3.15
447.048	3.13
447.403	3.12
447.757	3.11
448.112	3.1
448.466	3.11
448.82	3.11
449.175	3.11
449.529	3.1
449.883	3.08
450.238	3.07
450.592	3.08
450.946	3.09
451.3	3.11
451.654	3.08
452.008	3.12
452.362	3.13
452.716	3.12
453.07	3.13
453.424	3.12
453.778	3.13
454.132	3.11
454.486	3.13
454.839	3.13
455.193	3.13
455.547	3.15
455.9	3.12
456.254	3.13
456.607	3.11
456.961	3.11
457.314	3.12
457.668	3.11
458.021	3.12
458.375	3.11
458.728	3.1
459.081	3.11
459.434	3.1
459.787	3.1
460.141	3.09
460.494	3.08
460.847	3.09
461.2	3.09
461.553	3.1
461.906	3.1
462.259	3.1
462.611	3.11
462.964	3.09
463.317	3.1
463.67	3.1
464.022	3.13
464.375	3.13
464.728	3.13
465.08	3.15
465.433	3.13
465.785	3.14
466.138	3.14
466.49	3.14
466.843	3.17
467.195	3.19
467.547	3.18
467.899	3.2
468.252	3.19
468.604	3.2
468.956	3.21
469.308	3.21
469.66	3.22
470.012	3.22
470.364	3.23
470.716	3.24
471.068	3.25
471.42	3.25
471.772	3.25
472.123	3.27
472.475	3.25
472.827	3.26
473.178	3.27
473.53	3.27
473.882	3.26
474.233	3.24
474.585	3.22
474.936	3.25
475.288	3.23
475.639	3.27
475.99	3.28
476.342	3.27
476.693	3.28
477.044	3.29
477.395	3.28
477.746	3.28
478.097	3.28
478.448	3.27
478.8	3.27
479.15	3.25
479.501	3.24
479.852	3.25
480.203	3.25
480.554	3.26
480.905	3.26
481.255	3.28
481.606	3.29
481.957	3.3
482.307	3.29
482.658	3.29
483.009	3.3
483.359	3.3
483.709	3.3
484.06	3.31
484.41	3.31
484.761	3.32
485.111	3.32
485.461	3.33
485.811	3.33
486.162	3.33
486.512	3.34
486.862	3.34
487.212	3.35
487.562	3.34
487.912	3.34
488.262	3.35
488.612	3.34
488.961	3.34
489.311	3.35
489.661	3.36
490.011	3.36
490.36	3.34
490.71	3.34
491.06	3.33
491.409	3.33
491.759	3.34
492.108	3.33
492.458	3.34
492.807	3.34
493.157	3.36
493.506	3.38
493.855	3.38
494.204	3.39
494.554	3.39
494.903	3.41
495.252	3.43
495.601	3.43
495.95	3.42
496.299	3.41
496.648	3.44
496.997	3.44
497.346	3.46
497.695	3.48
498.043	3.49
498.392	3.52
498.741	3.53
499.09	3.56
499.438	3.6
499.787	3.63
500.135	3.63
500.484	3.65
500.832	3.65
501.181	3.67
501.529	3.69
501.878	3.73
502.226	3.77
502.574	3.81
502.923	3.85
503.271	3.89
503.619	3.96
503.967	3.97
504.315	4
504.663	4.02
505.011	4.07
505.359	4.12
505.707	4.16
506.055	4.22
506.403	4.23
506.751	4.24
507.098	4.29
507.446	4.37
507.794	4.41
508.141	4.47
508.489	4.51
508.837	4.55
509.184	4.61
509.531	4.67
509.879	4.7
510.226	4.76
510.574	4.83
510.921	4.85
511.268	4.93
511.616	5.02
511.963	5.09
512.31	5.17
512.657	5.23
513.004	5.29
513.351	5.34
513.698	5.44
514.045	5.52
514.392	5.59
514.739	5.66
515.086	5.76
515.432	5.87
515.779	5.95
516.126	6.04
516.473	6.11
516.819	6.2
517.166	6.26
517.512	6.36
517.859	6.43
518.205	6.51
518.552	6.56
518.898	6.62
519.245	6.7
519.591	6.77
519.937	6.85
520.283	6.94
520.629	7.05
520.976	7.13
521.322	7.24
521.668	7.3
522.014	7.37
522.36	7.46
522.706	7.57
523.052	7.72
523.398	7.84
523.743	7.94
524.089	8.07
524.435	8.2
524.781	8.32
525.126	8.43
525.472	8.54
525.817	8.66
526.163	8.76
526.509	8.85
526.854	8.93
527.199	9.01
527.545	9.09
527.89	9.17
528.235	9.25
528.581	9.34
528.926	9.44
529.271	9.53
529.616	9.61
529.961	9.69
530.306	9.76
530.651	9.83
530.996	9.96
531.341	10.06
531.686	10.17
532.031	10.28
532.376	10.38
532.721	10.49
533.065	10.6
533.41	10.72
533.755	10.84
534.099	10.95
534.444	11.08
534.788	11.18
535.133	11.29
535.477	11.41
535.822	11.55
536.166	11.69
536.51	11.83
536.855	12
537.199	12.15
537.543	12.34
537.887	12.54
538.231	12.7
538.576	12.84
538.92	13
539.264	13.17
539.608	13.33
539.951	13.47
540.295	13.62
540.639	13.76
540.983	13.89
541.327	14.06
541.671	14.2
542.014	14.38
542.358	14.51
542.701	14.66
543.045	14.77
543.389	14.92
543.732	15.05
544.075	15.21
544.419	15.36
544.762	15.52
545.105	15.67
545.449	15.83
545.792	16.04
546.135	16.23
546.478	16.41
546.821	16.62
547.165	16.83
547.508	17.02
547.851	17.24
548.194	17.43
548.536	17.65
548.879	17.86
549.222	18.04
549.565	18.26
549.908	18.49
550.25	18.73
550.593	18.96
550.936	19.19
551.278	19.4
551.621	19.64
551.963	19.85
552.306	20.07
552.648	20.31
552.991	20.55
553.333	20.77
553.675	21.01
554.017	21.26
554.36	21.48
554.702	21.71
555.044	21.95
555.386	22.18
555.728	22.4
556.07	22.65
556.412	22.96
556.754	23.2
557.096	23.39
557.438	23.63
557.78	23.91
558.121	24.17
558.463	24.4
558.805	24.64
559.147	24.84
559.488	25.05
559.83	25.27
560.171	25.45
560.513	25.65
560.854	25.91
561.196	26.12
561.537	26.34
561.878	26.57
562.22	26.78
562.561	27.01
562.902	27.18
563.243	27.34
563.584	27.5
563.925	27.72
564.266	27.9
564.607	28.1
564.948	28.25
565.289	28.47
565.63	28.67
565.971	28.84
566.312	29.09
566.653	29.27
566.993	29.46
567.334	29.63
567.675	29.84
568.015	30
568.356	30.18
568.696	30.39
569.037	30.57
569.377	30.74
569.718	30.9
570.058	31.08
570.398	31.29
570.739	31.4
571.079	31.53
571.419	31.72
571.759	31.9
572.099	32.09
572.439	32.2
572.779	32.35
573.119	32.5
573.459	32.63
573.799	32.79
574.139	32.87
574.479	33.03
574.819	33.18
575.158	33.3
575.498	33.4
575.838	33.51
576.177	33.59
576.517	33.72
576.856	33.88
577.196	33.99
577.535	34.11
577.875	34.26
578.214	34.41
578.553	34.55
578.893	34.66
579.232	34.73
579.571	34.86
579.91	35.05
580.25	35.21
580.589	35.33
580.928	35.49
581.267	35.65
581.606	35.84
581.945	35.96
582.283	36.08
582.622	36.23
582.961	36.42
583.3	36.61
583.639	36.77
583.977	36.95
584.316	37.07
584.654	37.17
584.993	37.35
585.332	37.48
585.67	37.66
586.008	37.79
586.347	37.84
586.685	37.94
587.024	37.94
587.362	38
587.7	38.11
588.038	38.2
588.376	38.3
588.715	38.39
589.053	38.41
589.391	38.55
589.729	38.63
590.067	38.63
590.404	38.69
590.742	38.72
591.08	38.71
591.418	38.82
591.756	38.92
592.093	38.99
592.431	39.08
592.769	39.1
593.106	39.13
593.444	39.27
593.781	39.32
594.119	39.38
594.456	39.42
594.793	39.49
595.131	39.57
595.468	39.72
595.805	39.73
596.143	39.83
596.48	39.85
596.817	39.87
597.154	39.99
597.491	40.05
597.828	40.09
598.165	40.21
598.502	40.29
598.839	40.38
599.176	40.43
599.512	40.48
599.849	40.64
600.186	40.77
600.523	40.83
600.859	40.96
601.196	41.15
601.532	41.29
601.869	41.32
602.205	41.34
602.542	41.33
602.878	41.44
603.215	41.53
603.551	41.6
603.887	41.76
604.223	41.77
604.56	41.81
604.896	41.94
605.232	41.94
605.568	42
605.904	42.03
606.24	42.06
606.576	42.16
606.912	42.14
607.248	42.17
607.583	42.28
607.919	42.31
608.255	42.38
608.591	42.44
608.926	42.52
609.262	42.6
609.597	42.64
609.933	42.62
610.268	42.69
610.604	42.7
610.939	42.71
611.275	42.81
611.61	42.89
611.945	42.93
612.281	43.06
612.616	43.13
612.951	43.15
613.286	43.26
613.621	43.28
613.956	43.29
614.291	43.4
614.626	43.43
614.961	43.48
615.296	43.48
615.631	43.51
615.966	43.58
616.3	43.64
616.635	43.7
616.97	43.77
617.304	43.82
617.639	43.92
617.973	43.85
618.308	43.8
618.642	43.78
618.977	43.77
619.311	43.81
619.646	43.85
619.98	43.96
620.314	43.93
620.648	43.95
620.983	44.04
621.317	44
621.651	44.02
621.985	44.07
622.319	44.04
622.653	44.21
622.987	44.27
623.321	44.28
623.655	44.28
623.988	44.34
624.322	44.34
624.656	44.33
624.99	44.41
625.323	44.51
625.657	44.61
625.99	44.65
626.324	44.58
626.657	44.63
626.991	44.63
627.324	44.69
627.658	44.78
627.991	44.77
628.324	44.82
628.657	44.87
628.991	44.93
629.324	44.95
629.657	44.84
629.99	44.91
630.323	44.94
630.656	44.98
630.989	45
631.322	45.16
631.655	45.23
631.987	45.23
632.32	45.21
632.653	45.12
632.986	45.2
633.318	45.24
633.651	45.24
633.984	45.2
634.316	45.26
634.649	45.26
634.981	45.36
635.313	45.39
635.646	45.42
635.978	45.53
636.31	45.58
636.643	45.58
636.975	45.46
637.307	45.53
637.639	45.64
637.971	45.64
638.303	45.49
638.635	45.48
638.967	45.56
639.299	45.74
639.631	45.86
639.963	45.84
640.295	45.84
640.626	45.83
640.958	45.91
641.29	45.95
641.621	45.97
641.953	45.92
642.285	45.97
642.616	46.12
642.948	46.05
643.279	46.11
643.61	46.25
643.942	46.32
644.273	46.31
644.604	46.36
644.936	46.44
645.267	46.51
645.598	46.46
645.929	46.52
646.26	46.45
646.591	46.54
646.922	46.64
647.253	46.76
647.584	46.81
647.915	46.88
648.245	47.03
648.576	47.03
648.907	47.11
649.238	47.24
649.568	47.13
649.899	47.13
650.229	47.16
650.56	47.11
650.89	47.18
651.221	47.17
651.551	47.12
651.882	47.1
652.212	47.22
652.542	47.39
652.872	47.37
653.203	47.36
653.533	47.31
653.863	47.3
654.193	47.29
654.523	47.28
654.853	47.27
655.183	47.24
655.513	47.28
655.843	47.27
656.172	47.19
656.502	47.21
656.832	47.24
657.162	47.19
657.491	47.27
657.821	47.25
658.15	47.33
658.48	47.38
658.809	47.37
659.139	47.27
659.468	47.25
659.798	47.35
660.127	47.36
660.456	47.41
660.785	47.35
661.115	47.41
661.444	47.47
661.773	47.56
662.102	47.56
662.431	47.65
662.76	47.61
663.089	47.69
663.418	47.79
663.747	47.76
664.076	47.86
664.404	47.83
664.733	47.9
665.062	47.93
665.39	47.97
665.719	48.04
666.048	48.08
666.376	48.21
666.705	48.17
667.033	48.23
667.362	48.14
667.69	48.24
668.018	48.18
668.347	48.21
668.675	48.16
669.003	48.08
669.331	47.95
669.659	47.98
669.987	47.93
670.315	47.89
670.643	47.9
670.971	48
671.299	48.08
671.627	48.03
671.955	48.1
672.283	48.19
672.61	48.19
672.938	48.15
673.266	48
673.593	48.15
673.921	48.26
674.249	48.35
674.576	48.32
674.904	48.43
675.231	48.58
675.558	48.59
675.886	48.72
676.213	48.75
676.54	48.75
676.867	48.74
677.195	48.78
677.522	48.79
677.849	48.86
678.176	48.91
678.503	48.93
678.83	48.98
679.157	48.85
679.484	48.9
679.81	48.99
680.137	49.05
680.464	48.9
680.791	48.87
681.117	48.96
681.444	49.01
681.771	49.01
682.097	48.96
682.424	49.02
682.75	48.99
683.077	49.05
683.403	49.21
683.729	49.37
684.056	49.25
684.382	49.36
684.708	49.28
685.034	49.27
685.36	49.41
685.686	49.44
686.012	49.49
686.339	49.58
686.664	49.63
686.99	49.89
687.316	49.99
687.642	50.19
687.968	50.12
688.294	50.11
688.619	50.04
688.945	50.11
689.271	50.11
689.596	50.1
689.922	50.04
690.247	49.96
690.573	49.88
690.898	50.07
691.224	50.09
691.549	50.04
691.874	49.95
692.2	49.98
692.525	49.81
692.85	49.75
693.175	49.82
693.5	49.75
693.825	49.68
694.15	49.61
694.475	49.42
694.8	49.41
695.125	49.53
695.45	49.59
695.775	49.5
696.099	49.5
696.424	49.41
696.749	49.65
697.073	49.75
697.398	49.77
697.723	49.75
698.047	49.7
698.372	49.67
698.696	49.61
699.02	49.54
699.345	49.55
699.669	49.77
699.993	49.61
700.318	49.61
700.642	49.55
700.966	49.68
701.29	49.7
701.614	49.7
701.938	49.63
702.262	49.68
702.586	49.68
702.91	49.72
703.234	49.75
703.557	49.59
703.881	49.62
704.205	49.6
704.529	49.99
704.852	50.05
705.176	50.07
705.499	50.21
705.823	50.37
706.146	50.44
706.47	50.31
706.793	50.56
707.117	50.67
707.44	50.6
707.763	50.53
708.086	50.63
708.409	50.8
708.733	50.81
709.056	50.65
709.379	50.71
709.702	50.65
710.025	50.9
710.348	50.89
710.671	50.76
710.993	50.95
711.316	50.52
711.639	50.49
711.962	50.57
712.284	50.58
712.607	50.45
712.93	50.71
713.252	50.55
713.575	50.64
713.897	50.63
714.22	50.64
714.542	50.62
714.864	50.61
715.187	50.46
715.509	50.41
715.831	50.45
716.153	50.34
716.475	50.42
716.798	50.24
717.12	50.32
717.442	50.11
717.764	49.81
718.085	49.92
718.407	49.89
718.729	50.08
719.051	50.05
719.373	50.25
719.695	50.01
720.016	50.17
720.338	50.02
720.659	50
720.981	49.91
721.302	50.01
721.624	49.92
721.945	49.91
722.267	50.13
722.588	50.09
722.909	50.3
723.231	50.15
723.552	50.22
723.873	50.29
724.194	50.64
724.515	50.86
724.836	50.62
725.157	50.68
725.478	50.56
725.799	50.48
726.12	50.4
726.441	50.38
726.762	50.38
727.083	50.19
727.403	50.11
727.724	50.25
728.045	50.11
728.365	50.18
728.686	50.3
729.006	50.19
729.327	50.36
729.647	50.12
729.967	50.08
730.288	50.16
730.608	50.15
730.928	50.19
731.249	50.27
731.569	50.3
731.889	50.33
732.209	50.3
732.529	50.45
732.849	50.44
733.169	50.42
733.489	50.27
733.809	50.49
734.129	50.57
734.448	50.61
734.768	50.59
735.088	50.6
735.408	50.43
735.727	50.49
736.047	50.6
736.366	50.56
736.686	50.79
737.005	50.83
737.325	50.91
737.644	50.68
737.963	50.92
738.283	51.01
738.602	51.05
738.921	50.84
739.24	51.03
739.56	50.94
739.879	50.95
740.198	51.28
740.517	51.19
740.836	51.19
741.155	50.89
741.473	51.06
741.792	51.08
742.111	51.27
742.43	51.04
742.748	51.02
743.067	51.29
743.386	51.14
743.704	51.06
744.023	51.02
744.341	51.21
744.66	50.52
744.978	50.61
745.297	50.5
745.615	50.68
745.933	50.36
746.252	50.34
746.57	50.5
746.888	50.33
747.206	50.55
747.524	50.74
747.842	50.91
748.16	50.8
748.478	50.36
748.796	50.67
749.114	50.71
749.432	50.55
749.749	50.37
750.067	50.41
750.385	50.64
750.703	50.52
751.02	50.44
751.338	50.8
751.655	50.8
751.973	50.66
752.29	50.64
752.608	50.63
752.925	50.82
753.242	50.69
753.56	50.81
753.877	50.16
754.194	50.1
754.511	50.17
754.828	50.37
755.145	50.78
755.462	50.29
755.779	50.45
756.096	50.74
756.413	50.95
756.73	51.05
757.047	51.11
757.364	51.05
757.68	50.97
757.997	50.97
758.314	51.17
758.63	51.01
758.947	51.07
759.264	51.54
759.58	51.49
759.896	51.66
760.213	51.65
760.529	52.07
760.846	52.12
761.162	51.91
761.478	51.89
761.794	51.96
762.11	51.99
762.426	51.7
762.743	51.75
763.059	51.91
763.375	52.15
763.69	52.04
764.006	52.14
764.322	52.43
764.638	52.46
764.954	52.13
765.27	52.5
765.585	52.5
765.901	52.21
766.216	52.4
766.532	52.32
766.848	52.27
767.163	52.11
767.478	51.94
767.794	52.2
768.109	51.94
768.424	51.75
768.74	51.8
769.055	51.91
769.37	51.59
769.685	51.4
770	50.92
770.315	50.91
770.63	51.2
770.945	51.06
771.26	50.76
771.575	50.91
771.89	50.94
772.205	50.88
772.52	50.74
772.834	50.04
773.149	50.19
773.464	50.07
773.778	50.38
774.093	50.66
774.407	50.49
774.722	50.46
775.036	50.49
775.351	50.72
775.665	51.12
775.979	51.24
776.293	50.75
776.608	50.87
776.922	50.9
777.236	50.52
777.55	50.08
777.864	50.11
778.178	50.37
778.492	50.3
778.806	50.26
779.12	50.45
779.434	50.97
779.747	51.01
780.061	51.29
780.375	51.44
780.689	51.3
781.002	51.39
781.316	51.73
781.629	51.49
781.943	51.43
782.256	50.7
782.57	50.44
782.883	50.69
783.196	50.76
783.51	51.08
783.823	51.05
784.136	51.17
784.449	51.36
784.762	51.61
785.075	51.59
785.388	51.56
785.701	51.44
786.014	51.6
786.327	51.5
786.64	51.47
786.953	50.88
787.266	50.88
787.578	50.62
787.891	50.39
788.204	51.02
788.516	51.25
788.829	51.91
789.141	52.15
789.454	52.27
789.766	51.97
790.079	51.32
790.391	51.4
790.703	51.69
791.016	51.57
791.328	51.16
791.64	50.91
791.952	51.1
792.264	51.48
792.576	50.7
792.888	50.52
793.2	49.89
793.512	50.01
793.824	50.33
794.136	50.62
794.448	50.67
794.76	50.68
795.071	50.39
795.383	49.96
795.695	49.74
796.006	49.59
796.318	49.44
796.629	49.43
796.941	49.51
797.252	49.55
797.564	50.2
797.875	50.23
798.186	50.82
798.497	50.64
798.809	50.29
799.12	50.84
799.431	51.02
799.742	51.42
800.053	51.88
800.364	51.56
800.675	51.29
800.986	51.59
801.297	51.13
801.608	51.4
801.918	51.64
802.229	52.19
802.54	52.42
802.851	52.89
803.161	53.58
803.472	52.98
803.782	53.43
804.093	52.76
804.403	52.73
804.714	52.08
805.024	52.01
805.334	52.16
805.645	51.94
805.955	51.88
806.265	52.42
806.575	52.21
806.885	51.89
807.195	52.36
807.505	52.3
807.815	52.65
808.125	52.21
808.435	52.17
808.745	51.81
809.055	52.39
809.365	53.09
809.674	52.69
809.984	52.84
810.294	52.31
810.603	52.52
810.913	52.51
811.222	52.58
811.532	52.96
811.841	52.73
812.151	53.25
812.46	53.24
812.769	52.49
813.079	52.46
813.388	52.26
813.697	51.8
814.006	52.08
814.315	51.53
814.624	51.32
814.933	51.39
815.242	51.33
815.551	50.64
815.86	50.3
816.169	50.56
816.478	50.96
816.786	50.96
817.095	51
817.404	50.56
817.712	50.91
818.021	51.3
818.33	51.51
818.638	51.7
818.947	52.07
819.255	52.57
819.563	52.59
819.872	53.23
820.18	53
820.488	53.21
820.796	53.62
821.105	53.81
821.413	54.1
821.721	53.93
822.029	54.24
822.337	54.06
822.645	53.87
822.953	53.84
823.26	53.86
823.568	53.96
823.876	54.34
824.184	54.35
824.491	54.27
824.799	54.36
825.107	54.44
825.414	54.25
825.722	54.1
826.029	54.1
826.337	53.95
826.644	54.29
826.951	54.15
827.259	54.04
827.566	54.2
827.873	53.94
828.18	53.95
828.488	53.61
828.795	53.42
829.102	53.43
829.409	53.24
829.716	53.23
830.023	52.85
830.329	52.51
830.636	52.25
830.943	52.37
831.25	52.57
831.557	52.1
831.863	52.6
832.17	52.75
832.476	52.81
832.783	52.61
833.089	52.23
833.396	51.57
833.702	51.47
834.009	50.88
834.315	51.07
834.621	51.48
834.928	51.39
835.234	51.78
835.54	52.12
835.846	51.78
836.152	51.67
836.458	51.85
836.764	50.99
837.07	51.04
837.376	50.92
837.682	49.61
837.988	49.88
838.293	49.76
838.599	49.6
838.905	49.54
839.211	49.72
839.516	49.05
839.822	50.55
840.127	50.46
840.433	50.34
840.738	50.08
841.044	49.06
841.349	48.71
841.654	48.14
841.959	47.18
842.265	47.54
842.57	47.44
842.875	46.44
843.18	46.88
843.485	47.18
843.79	45.07
844.095	46.54
844.4	46.27
844.705	45.58
845.01	45.24
845.315	45.92
845.619	45.2
845.924	43.77
846.229	43.56
846.533	43.79
846.838	44.19
847.142	43.62
847.447	45.37
847.751	46.11
848.056	46.46
848.36	47.1
848.664	49.16
848.969	46.98
849.273	46.68
849.577	46.51
849.881	45.93
850.185	49.3
850.489	52.37
850.794	51.42
851.097	51.59
851.401	51.82
851.705	48.82
852.009	49.35
852.313	51.75
852.617	48.44
852.92	48.26
853.224	47.46
853.528	46.88
853.831	46.63
854.135	47.17
854.438	46.17
854.742	44.13
855.045	41.82
855.349	43.75
855.652	45.01
855.955	46.02
856.259	46.22
856.562	45.55
856.865	42.9
857.168	42.55
857.471	40.34
857.774	40.77
858.077	41.12
858.38	41.14
858.683	43.46
858.986	42.47
859.289	42.74
859.592	44.06
859.894	44.46
860.197	42.04
860.5	43.6
860.802	46.59
861.105	48.24
861.407	47.63
861.71	44.5
862.012	45.3
862.315	44.7
862.617	42.8
862.919	41.7
863.222	41.52
863.524	41.56
863.826	43.15
864.128	42.65
864.43	43.14
864.732	43.08
865.034	43.65
865.336	43.84
865.638	43.53
865.94	43.84
866.242	45.66
866.544	47.67
866.846	47.17
867.147	46.12
867.449	45.23
867.751	46.81
868.052	52.47
868.354	50.85
868.655	51.22
868.957	50.96
869.258	50.17
869.56	49.85
869.861	48.67
870.162	45.94
870.463	46.31
870.765	47.09
871.066	49.54
871.367	45.35
871.668	43.77
871.969	42.41
872.27	41.87
872.571	40.21
872.872	39.47
873.173	36.98
873.473	34.83
873.774	38.64
874.075	38.44
874.376	36.43
874.676	38.91
874.977	40.62
875.277	41.32
875.578	45.09
875.878	44.38
876.179	46.34
876.479	48.75
876.78	49.33
877.08	48.16
877.38	44.9
877.68	48.12
877.981	53.59
878.281	54.85
878.581	54.64
