Data from MVZ_BU8940_Reflection_00012.txt Node
Date: Tue Nov 19 12:16:39 EST 2019
User: vgr7
Spectrometer: USB2G7710
Scans to average: 3
Trigger mode: 4
Integration Time (sec): 2.000000E-2
Electric dark correction enabled: true
Boxcar width: 10
XAxis mode: Wavelengths
Number of Pixels in Spectrum: 2048
>>>>>Begin Spectral Data<<<<<
177.721	-430.83
178.105	-292.05
178.488	-768.02
178.871	-317.86
179.254	-134.15
179.636	742.86
180.019	-56.07
180.402	240
180.785	-2420
181.168	189.11
181.55	-102.07
181.933	-44.29
182.316	-48.69
182.698	-14.01
183.081	23.54
183.463	26
183.846	18.31
184.228	2
184.611	-46.09
184.993	-152.1
185.376	-165.16
185.758	-209.75
186.14	-191.59
186.522	-503.02
186.904	-517.14
187.287	-289.73
187.669	-337.29
188.051	-170.78
188.433	-320.66
188.815	-221.8
189.197	-251.79
189.579	-2008.11
189.961	193.48
190.342	422.15
190.724	-397.33
191.106	-4005.26
191.488	3410.34
191.869	-53900
192.251	-5438.46
192.633	-1225.58
193.014	-76.47
193.396	12.05
193.777	667.57
194.159	175.95
194.54	5.51
194.922	38.62
195.303	46.9
195.684	57.85
196.065	-66.01
196.447	-49.69
196.828	-66.2
197.209	-128.7
197.59	-132.47
197.971	-27.66
198.352	-103.29
198.733	-180.28
199.114	-175.62
199.495	497.59
199.876	-482.52
200.257	-243.95
200.638	-196.82
201.018	-208.97
201.399	582.52
201.78	645.45
202.16	651.35
202.541	-1719.67
202.922	1212.36
203.302	391.83
203.683	460
204.063	700
204.444	634.65
204.824	-923.53
205.204	-6130.77
205.585	-2996.77
205.965	2083.05
206.345	549.1
206.725	1020.79
207.106	359.05
207.486	-1360.87
207.866	6203.45
208.246	702.51
208.626	735.47
209.006	193.89
209.386	482.47
209.766	2757.14
210.145	-19614.29
210.525	3614.29
210.905	576.39
211.285	364.11
211.664	215.6
212.044	135.48
212.424	130.48
212.803	112.73
213.183	277.05
213.562	146.15
213.942	91.51
214.321	71.67
214.701	52.48
215.08	6.35
215.459	12.97
215.838	-17.58
216.218	-45.36
216.597	-62.73
216.976	-128.43
217.355	-16.99
217.734	34.07
218.113	1047.37
218.492	-8.6
218.871	155.81
219.25	-1016.28
219.629	-569.42
220.008	-568.25
220.387	-1594.12
220.766	496.89
221.144	176.62
221.523	138.52
221.902	107.88
222.28	141.74
222.659	94.56
223.037	115.8
223.416	82.13
223.794	68.62
224.173	62.13
224.551	55.05
224.929	61.19
225.308	53.23
225.686	26.81
226.064	15.69
226.442	20.66
226.821	13.82
227.199	5.81
227.577	3.38
227.955	3.76
228.333	2.18
228.711	2.95
229.089	9.12
229.467	7.3
229.845	3.2
230.222	4.65
230.6	0.34
230.978	0.95
231.356	2.48
231.733	3.45
232.111	6.48
232.488	8.78
232.866	6.31
233.243	5.1
233.621	7.84
233.998	10.56
234.376	7.94
234.753	5.37
235.13	5.76
235.508	5.58
235.885	4.23
236.262	3.77
236.639	2.45
237.016	2.83
237.393	4.27
237.77	7.52
238.147	7.34
238.524	7.82
238.901	6.74
239.278	5.72
239.655	6.15
240.032	5.8
240.409	5.25
240.785	5.33
241.162	5.68
241.539	5.5
241.915	5.52
242.292	5.45
242.668	5.9
243.045	6.12
243.421	6.52
243.798	6.61
244.174	6.37
244.551	6.54
244.927	6.25
245.303	5.78
245.679	5.31
246.056	4.91
246.432	4.7
246.808	4.76
247.184	4.7
247.56	4.5
247.936	4.72
248.312	4.79
248.688	4.7
249.064	4.68
249.44	4.53
249.815	4.53
250.191	4.7
250.567	4.57
250.943	4.53
251.318	4.33
251.694	4.09
252.069	4.2
252.445	4.05
252.82	3.98
253.196	4.15
253.571	4.53
253.947	4.82
254.322	5.39
254.697	5.7
255.073	5.87
255.448	5.89
255.823	5.83
256.198	5.64
256.573	5.73
256.948	5.51
257.323	5.6
257.698	5.21
258.073	4.94
258.448	5.04
258.823	4.96
259.198	4.74
259.573	4.63
259.948	4.62
260.322	4.55
260.697	4.59
261.072	4.58
261.446	4.46
261.821	4.43
262.195	4.3
262.57	4.18
262.944	4.13
263.319	4.15
263.693	3.87
264.067	3.92
264.442	3.72
264.816	3.86
265.19	3.73
265.564	3.75
265.938	3.75
266.313	3.53
266.687	3.54
267.061	3.57
267.435	3.81
267.809	3.49
268.183	3.78
268.556	3.58
268.93	3.74
269.304	3.55
269.678	3.59
270.051	3.61
270.425	3.69
270.799	3.66
271.172	3.64
271.546	3.96
271.919	3.89
272.293	3.98
272.666	3.89
273.04	4.02
273.413	4.23
273.787	4.49
274.16	4.49
274.533	4.41
274.906	4.42
275.279	4.27
275.653	4.68
276.026	4.77
276.399	4.86
276.772	4.86
277.145	4.9
277.518	4.87
277.891	4.87
278.263	5.01
278.636	5.18
279.009	5.16
279.382	5.05
279.755	5.19
280.127	5.4
280.5	5.14
280.872	5.24
281.245	5.04
281.617	4.79
281.99	4.82
282.362	4.8
282.735	4.87
283.107	4.81
283.479	4.69
283.852	4.4
284.224	4.47
284.596	4.26
284.968	4.15
285.34	4.06
285.713	4.12
286.085	3.88
286.457	3.94
286.829	3.88
287.201	3.83
287.572	3.65
287.944	3.55
288.316	3.78
288.688	3.66
289.06	3.63
289.431	3.78
289.803	3.82
290.175	3.95
290.546	3.98
290.918	4.15
291.289	3.93
291.661	4.14
292.032	3.96
292.403	4.12
292.775	4.25
293.146	4.52
293.517	4.44
293.889	4.51
294.26	4.43
294.631	4.42
295.002	4.41
295.373	4.5
295.744	4.4
296.115	4.36
296.486	4.3
296.857	4.47
297.228	4.34
297.599	4.46
297.97	4.41
298.34	4.3
298.711	4.36
299.082	4.56
299.452	4.36
299.823	4.43
300.194	4.48
300.564	4.44
300.935	4.32
301.305	4.35
301.676	4.38
302.046	4.45
302.416	4.68
302.787	4.8
303.157	4.79
303.527	5.07
303.897	5.06
304.267	5.14
304.637	5.09
305.008	5.26
305.378	5.35
305.748	5.3
306.117	5.22
306.487	5.08
306.857	4.99
307.227	5.37
307.597	5.43
307.967	5.38
308.336	5.45
308.706	5.51
309.076	5.59
309.445	5.69
309.815	5.66
310.184	5.65
310.554	5.52
310.923	5.5
311.293	5.27
311.662	5.3
312.031	5.36
312.401	5.29
312.77	5.28
313.139	5.1
313.508	5.12
313.877	5.32
314.246	5.41
314.616	5.6
314.985	5.44
315.353	5.59
315.722	5.83
316.091	5.79
316.46	5.87
316.829	5.89
317.198	5.88
317.567	6.07
317.935	6.09
318.304	6.37
318.672	6.53
319.041	6.68
319.41	6.82
319.778	6.88
320.147	6.99
320.515	7.05
320.883	7.23
321.252	7.47
321.62	7.57
321.988	7.69
322.357	7.72
322.725	7.88
323.093	7.75
323.461	7.72
323.829	7.83
324.197	7.71
324.565	7.63
324.933	7.77
325.301	7.68
325.669	7.5
326.037	7.49
326.405	7.59
326.772	7.62
327.14	7.6
327.508	7.62
327.875	7.58
328.243	7.57
328.61	7.45
328.978	7.27
329.346	7.31
329.713	7.27
330.08	7.32
330.448	7.29
330.815	7.3
331.182	7.18
331.55	7.26
331.917	7.37
332.284	7.58
332.651	7.57
333.018	7.61
333.385	7.65
333.752	7.64
334.119	7.63
334.486	7.7
334.853	7.72
335.22	7.75
335.587	7.76
335.954	7.73
336.32	7.83
336.687	7.97
337.054	8.02
337.42	8.06
337.787	7.87
338.153	7.96
338.52	8.04
338.886	8.13
339.253	8.11
339.619	8.03
339.986	8.03
340.352	7.97
340.718	8
341.084	8.05
341.451	8.04
341.817	8.08
342.183	8.06
342.549	8.17
342.915	8.22
343.281	8.39
343.647	8.47
344.013	8.45
344.379	8.52
344.745	8.49
345.11	8.42
345.476	8.64
345.842	8.69
346.208	8.84
346.573	8.82
346.939	8.84
347.304	9.04
347.67	8.9
348.035	8.9
348.401	8.82
348.766	8.89
349.132	8.96
349.497	8.96
349.862	9.01
350.228	9.03
350.593	8.98
350.958	8.92
351.323	8.87
351.688	8.97
352.053	8.91
352.418	8.86
352.783	9.04
353.148	9.04
353.513	8.91
353.878	8.87
354.243	8.78
354.608	8.82
354.972	8.67
355.337	8.86
355.702	8.89
356.066	8.94
356.431	9.02
356.795	9.02
357.16	9.02
357.524	9.03
357.889	8.95
358.253	9.02
358.618	9.1
358.982	9.15
359.346	9.08
359.71	9.07
360.075	9.08
360.439	9.06
360.803	9.06
361.167	9.13
361.531	9.07
361.895	9.11
362.259	9.14
362.623	9.22
362.987	9.1
363.351	9
363.714	9.05
364.078	8.97
364.442	8.95
364.806	8.94
365.169	8.89
365.533	8.89
365.896	8.83
366.26	8.76
366.623	8.65
366.987	8.7
367.35	8.79
367.714	8.81
368.077	8.71
368.44	8.69
368.803	8.6
369.167	8.56
369.53	8.56
369.893	8.5
370.256	8.38
370.619	8.41
370.982	8.4
371.345	8.41
371.708	8.38
372.071	8.38
372.434	8.38
372.797	8.41
373.159	8.41
373.522	8.42
373.885	8.34
374.247	8.38
374.61	8.28
374.973	8.16
375.335	8.11
375.698	8.11
376.06	8.03
376.423	8.03
376.785	8.05
377.147	8
377.51	7.95
377.872	7.93
378.234	7.9
378.596	7.95
378.958	7.87
379.321	7.85
379.683	7.8
380.045	7.73
380.407	7.71
380.769	7.63
381.13	7.57
381.492	7.61
381.854	7.61
382.216	7.62
382.578	7.61
382.939	7.66
383.301	7.61
383.663	7.55
384.024	7.53
384.386	7.52
384.747	7.5
385.109	7.47
385.47	7.47
385.832	7.43
386.193	7.38
386.554	7.35
386.916	7.31
387.277	7.26
387.638	7.22
387.999	7.21
388.36	7.24
388.721	7.24
389.082	7.21
389.443	7.19
389.804	7.2
390.165	7.18
390.526	7.03
390.887	7.04
391.248	7.03
391.609	6.97
391.969	6.91
392.33	6.88
392.691	6.91
393.051	6.94
393.412	6.92
393.772	6.92
394.133	6.88
394.493	6.85
394.854	6.84
395.214	6.81
395.574	6.71
395.935	6.63
396.295	6.6
396.655	6.58
397.015	6.56
397.376	6.45
397.736	6.38
398.096	6.37
398.456	6.31
398.816	6.28
399.176	6.26
399.535	6.22
399.895	6.21
400.255	6.14
400.615	6.07
400.975	6.08
401.334	6.03
401.694	6.01
402.054	6.02
402.413	5.98
402.773	5.97
403.132	5.97
403.492	5.97
403.851	5.94
404.211	5.9
404.57	5.89
404.929	5.92
405.288	5.94
405.648	5.94
406.007	5.93
406.366	5.93
406.725	5.91
407.084	5.93
407.443	5.88
407.802	5.89
408.161	5.87
408.52	5.84
408.879	5.87
409.238	5.87
409.596	5.86
409.955	5.87
410.314	5.87
410.673	5.88
411.031	5.89
411.39	5.9
411.748	5.89
412.107	5.84
412.465	5.82
412.824	5.77
413.182	5.76
413.54	5.75
413.899	5.73
414.257	5.76
414.615	5.71
414.974	5.75
415.332	5.73
415.69	5.73
416.048	5.69
416.406	5.65
416.764	5.62
417.122	5.59
417.48	5.57
417.838	5.57
418.195	5.56
418.553	5.52
418.911	5.48
419.269	5.47
419.626	5.46
419.984	5.43
420.342	5.43
420.699	5.42
421.057	5.39
421.414	5.4
421.772	5.36
422.129	5.35
422.486	5.33
422.844	5.31
423.201	5.29
423.558	5.28
423.915	5.27
424.273	5.26
424.63	5.24
424.987	5.25
425.344	5.24
425.701	5.21
426.058	5.22
426.415	5.23
426.772	5.21
427.128	5.21
427.485	5.21
427.842	5.21
428.199	5.21
428.555	5.21
428.912	5.17
429.269	5.17
429.625	5.17
429.982	5.17
430.338	5.2
430.695	5.21
431.051	5.22
431.407	5.23
431.764	5.23
432.12	5.25
432.476	5.23
432.832	5.22
433.189	5.23
433.545	5.21
433.901	5.2
434.257	5.2
434.613	5.2
434.969	5.21
435.325	5.23
435.681	5.24
436.036	5.26
436.392	5.28
436.748	5.3
437.104	5.27
437.459	5.26
437.815	5.25
438.171	5.27
438.526	5.26
438.882	5.26
439.237	5.27
439.593	5.27
439.948	5.26
440.304	5.25
440.659	5.28
441.014	5.27
441.369	5.28
441.725	5.28
442.08	5.27
442.435	5.27
442.79	5.26
443.145	5.25
443.5	5.23
443.855	5.24
444.21	5.23
444.565	5.25
444.92	5.26
445.275	5.25
445.629	5.22
445.984	5.22
446.339	5.23
446.693	5.22
447.048	5.19
447.403	5.2
447.757	5.19
448.112	5.17
448.466	5.18
448.82	5.16
449.175	5.15
449.529	5.15
449.883	5.13
450.238	5.1
450.592	5.1
450.946	5.12
451.3	5.1
451.654	5.11
452.008	5.14
452.362	5.12
452.716	5.12
453.07	5.11
453.424	5.09
453.778	5.08
454.132	5.08
454.486	5.09
454.839	5.07
455.193	5.09
455.547	5.1
455.9	5.09
456.254	5.12
456.607	5.14
456.961	5.16
457.314	5.17
457.668	5.16
458.021	5.15
458.375	5.14
458.728	5.14
459.081	5.12
459.434	5.11
459.787	5.12
460.141	5.13
460.494	5.14
460.847	5.14
461.2	5.15
461.553	5.16
461.906	5.18
462.259	5.18
462.611	5.19
462.964	5.2
463.317	5.2
463.67	5.2
464.022	5.21
464.375	5.2
464.728	5.2
465.08	5.22
465.433	5.25
465.785	5.29
466.138	5.31
466.49	5.35
466.843	5.38
467.195	5.39
467.547	5.39
467.899	5.42
468.252	5.45
468.604	5.47
468.956	5.49
469.308	5.5
469.66	5.53
470.012	5.54
470.364	5.55
470.716	5.56
471.068	5.58
471.42	5.58
471.772	5.59
472.123	5.63
472.475	5.64
472.827	5.66
473.178	5.66
473.53	5.64
473.882	5.63
474.233	5.61
474.585	5.63
474.936	5.62
475.288	5.61
475.639	5.61
475.99	5.6
476.342	5.6
476.693	5.59
477.044	5.56
477.395	5.58
477.746	5.57
478.097	5.57
478.448	5.53
478.8	5.53
479.15	5.54
479.501	5.5
479.852	5.48
480.203	5.48
480.554	5.48
480.905	5.47
481.255	5.46
481.606	5.46
481.957	5.46
482.307	5.46
482.658	5.47
483.009	5.47
483.359	5.47
483.709	5.47
484.06	5.47
484.41	5.49
484.761	5.49
485.111	5.49
485.461	5.49
485.811	5.49
486.162	5.49
486.512	5.49
486.862	5.5
487.212	5.52
487.562	5.51
487.912	5.51
488.262	5.51
488.612	5.52
488.961	5.52
489.311	5.51
489.661	5.52
490.011	5.51
490.36	5.51
490.71	5.51
491.06	5.5
491.409	5.52
491.759	5.51
492.108	5.53
492.458	5.53
492.807	5.55
493.157	5.58
493.506	5.6
493.855	5.61
494.204	5.64
494.554	5.66
494.903	5.71
495.252	5.75
495.601	5.77
495.95	5.81
496.299	5.87
496.648	5.93
496.997	5.97
497.346	6.02
497.695	6.07
498.043	6.12
498.392	6.19
498.741	6.23
499.09	6.29
499.438	6.36
499.787	6.44
500.135	6.5
500.484	6.54
500.832	6.6
501.181	6.67
501.529	6.74
501.878	6.83
502.226	6.91
502.574	6.99
502.923	7.07
503.271	7.18
503.619	7.28
503.967	7.38
504.315	7.52
504.663	7.62
505.011	7.74
505.359	7.86
505.707	7.97
506.055	8.11
506.403	8.23
506.751	8.32
507.098	8.46
507.446	8.61
507.794	8.78
508.141	8.94
508.489	9.08
508.837	9.21
509.184	9.37
509.531	9.49
509.879	9.62
510.226	9.76
510.574	9.89
510.921	10.02
511.268	10.16
511.616	10.3
511.963	10.47
512.31	10.64
512.657	10.84
513.004	11
513.351	11.16
513.698	11.31
514.045	11.49
514.392	11.67
514.739	11.84
515.086	12.03
515.432	12.18
515.779	12.34
516.126	12.52
516.473	12.65
516.819	12.81
517.166	12.95
517.512	13.12
517.859	13.29
518.205	13.42
518.552	13.56
518.898	13.68
519.245	13.83
519.591	13.95
519.937	14.03
520.283	14.17
520.629	14.31
520.976	14.48
521.322	14.62
521.668	14.75
522.014	14.95
522.36	15.09
522.706	15.28
523.052	15.46
523.398	15.67
523.743	15.88
524.089	16.09
524.435	16.32
524.781	16.5
525.126	16.66
525.472	16.85
525.817	16.99
526.163	17.16
526.509	17.28
526.854	17.41
527.199	17.56
527.545	17.67
527.89	17.79
528.235	17.93
528.581	18.07
528.926	18.23
529.271	18.34
529.616	18.49
529.961	18.64
530.306	18.78
530.651	18.9
530.996	19.04
531.341	19.21
531.686	19.36
532.031	19.52
532.376	19.68
532.721	19.84
533.065	20.02
533.41	20.2
533.755	20.41
534.099	20.62
534.444	20.83
534.788	21.04
535.133	21.24
535.477	21.41
535.822	21.64
536.166	21.85
536.51	22.1
536.855	22.33
537.199	22.56
537.543	22.83
537.887	23.13
538.231	23.44
538.576	23.68
538.92	23.96
539.264	24.25
539.608	24.52
539.951	24.74
540.295	24.98
540.639	25.17
540.983	25.36
541.327	25.56
541.671	25.76
542.014	25.97
542.358	26.17
542.701	26.39
543.045	26.57
543.389	26.79
543.732	26.97
544.075	27.19
544.419	27.41
544.762	27.63
545.105	27.85
545.449	28.07
545.792	28.32
546.135	28.59
546.478	28.85
546.821	29.12
547.165	29.45
547.508	29.71
547.851	30.05
548.194	30.36
548.536	30.65
548.879	30.96
549.222	31.25
549.565	31.58
549.908	31.89
550.25	32.16
550.593	32.42
550.936	32.75
551.278	33.04
551.621	33.3
551.963	33.62
552.306	33.86
552.648	34.15
552.991	34.45
553.333	34.66
553.675	34.89
554.017	35.17
554.36	35.41
554.702	35.64
555.044	35.88
555.386	36.1
555.728	36.33
556.07	36.55
556.412	36.77
556.754	36.98
557.096	37.21
557.438	37.49
557.78	37.69
558.121	37.9
558.463	38.06
558.805	38.34
559.147	38.54
559.488	38.81
559.83	39.03
560.171	39.22
560.513	39.46
560.854	39.72
561.196	39.84
561.537	40.02
561.878	40.24
562.22	40.48
562.561	40.62
562.902	40.86
563.243	41.05
563.584	41.26
563.925	41.43
564.266	41.5
564.607	41.67
564.948	41.84
565.289	41.97
565.63	42.21
565.971	42.34
566.312	42.49
566.653	42.63
566.993	42.83
567.334	42.98
567.675	43.17
568.015	43.3
568.356	43.51
568.696	43.71
569.037	43.88
569.377	43.98
569.718	44.18
570.058	44.29
570.398	44.44
570.739	44.57
571.079	44.7
571.419	44.89
571.759	45.01
572.099	45.17
572.439	45.29
572.779	45.42
573.119	45.54
573.459	45.68
573.799	45.83
574.139	45.88
574.479	45.99
574.819	46.05
575.158	46.11
575.498	46.2
575.838	46.26
576.177	46.33
576.517	46.46
576.856	46.59
577.196	46.7
577.535	46.77
577.875	46.84
578.214	46.97
578.553	47.14
578.893	47.28
579.232	47.38
579.571	47.54
579.91	47.59
580.25	47.69
580.589	47.8
580.928	47.78
581.267	47.89
581.606	47.97
581.945	48.06
582.283	48.16
582.622	48.24
582.961	48.26
583.3	48.32
583.639	48.36
583.977	48.44
584.316	48.46
584.654	48.58
584.993	48.68
585.332	48.78
585.67	48.79
586.008	48.76
586.347	48.84
586.685	48.9
587.024	48.99
587.362	49.07
587.7	49.1
588.038	49.22
588.376	49.26
588.715	49.36
589.053	49.41
589.391	49.43
589.729	49.51
590.067	49.71
590.404	49.81
590.742	49.84
591.08	49.9
591.418	50.02
591.756	50.05
592.093	50.03
592.431	50.08
592.769	50.2
593.106	50.36
593.444	50.44
593.781	50.51
594.119	50.51
594.456	50.58
594.793	50.65
595.131	50.68
595.468	50.78
595.805	50.77
596.143	50.8
596.48	50.91
596.817	50.95
597.154	50.98
597.491	50.98
597.828	51.06
598.165	51.17
598.502	51.17
598.839	51.21
599.176	51.34
599.512	51.38
599.849	51.53
600.186	51.54
600.523	51.54
600.859	51.56
601.196	51.71
601.532	51.72
601.869	51.78
602.205	51.83
602.542	51.82
602.878	51.91
603.215	51.99
603.551	52.06
603.887	52.08
604.223	52.01
604.56	52.11
604.896	52.2
605.232	52.15
605.568	52.23
605.904	52.29
606.24	52.32
606.576	52.43
606.912	52.37
607.248	52.49
607.583	52.56
607.919	52.6
608.255	52.61
608.591	52.68
608.926	52.71
609.262	52.7
609.597	52.69
609.933	52.67
610.268	52.72
610.604	52.7
610.939	52.77
611.275	52.81
611.61	52.77
611.945	52.7
612.281	52.71
612.616	52.76
612.951	52.76
613.286	52.69
613.621	52.67
613.956	52.69
614.291	52.57
614.626	52.63
614.961	52.6
615.296	52.57
615.631	52.6
615.966	52.55
616.3	52.74
616.635	52.88
616.97	52.93
617.304	52.95
617.639	52.97
617.973	52.96
618.308	52.95
618.642	53.05
618.977	53.07
619.311	53.19
619.646	53.32
619.98	53.35
620.314	53.39
620.648	53.35
620.983	53.34
621.317	53.45
621.651	53.44
621.985	53.6
622.319	53.6
622.653	53.64
622.987	53.69
623.321	53.68
623.655	53.76
623.988	53.83
624.322	53.97
624.656	54.09
624.99	54.22
625.323	54.31
625.657	54.27
625.99	54.33
626.324	54.3
626.657	54.12
626.991	54.14
627.324	54.3
627.658	54.37
627.991	54.44
628.324	54.46
628.657	54.49
628.991	54.51
629.324	54.58
629.657	54.56
629.99	54.62
630.323	54.63
630.656	54.64
630.989	54.59
631.322	54.48
631.655	54.37
631.987	54.27
632.32	54.37
632.653	54.46
632.986	54.37
633.318	54.35
633.651	54.49
633.984	54.51
634.316	54.5
634.649	54.52
634.981	54.46
635.313	54.44
635.646	54.51
635.978	54.49
636.31	54.64
636.643	54.67
636.975	54.61
637.307	54.62
637.639	54.61
637.971	54.67
638.303	54.8
638.635	54.78
638.967	54.82
639.299	54.8
639.631	54.71
639.963	54.89
640.295	54.95
640.626	55.01
640.958	54.98
641.29	54.89
641.621	54.85
641.953	54.89
642.285	54.97
642.616	54.92
642.948	54.88
643.279	54.72
643.61	54.8
643.942	54.96
644.273	54.9
644.604	54.93
644.936	54.93
645.267	54.78
645.598	54.9
645.929	54.85
646.26	54.89
646.591	55.02
646.922	55.03
647.253	55.08
647.584	55.12
647.915	55.12
648.245	55.08
648.576	55.33
648.907	55.38
649.238	55.32
649.568	55.25
649.899	55.3
650.229	55.21
650.56	55.32
650.89	55.35
651.221	55.43
651.551	55.45
651.882	55.53
652.212	55.55
652.542	55.63
652.872	55.64
653.203	55.6
653.533	55.65
653.863	55.68
654.193	55.73
654.523	55.76
654.853	55.86
655.183	55.95
655.513	55.79
655.843	55.82
656.172	56.01
656.502	56.11
656.832	56.2
657.162	56.36
657.491	56.34
657.821	56.25
658.15	56.26
658.48	56.22
658.809	56.16
659.139	56.26
659.468	56.23
659.798	56.29
660.127	56.27
660.456	56.29
660.785	56.23
661.115	56.12
661.444	56.02
661.773	56.08
662.102	56.13
662.431	56.11
662.76	56.14
663.089	55.96
663.418	56.11
663.747	56.08
664.076	56.08
664.404	56.2
664.733	56.34
665.062	56.45
665.39	56.47
665.719	56.53
666.048	56.51
666.376	56.44
666.705	56.62
667.033	56.68
667.362	56.61
667.69	56.71
668.018	56.81
668.347	56.97
668.675	56.76
669.003	56.89
669.331	57
669.659	57.05
669.987	57.12
670.315	57.08
670.643	56.93
670.971	56.95
671.299	56.68
671.627	56.51
671.955	56.39
672.283	56.36
672.61	56.31
672.938	56.4
673.266	56.54
673.593	56.39
673.921	56.48
674.249	56.58
674.576	56.6
674.904	56.57
675.231	56.33
675.558	56.51
675.886	56.41
676.213	56.26
676.54	56.27
676.867	56.27
677.195	56.32
677.522	56.66
677.849	56.65
678.176	56.73
678.503	56.85
678.83	57.05
679.157	57.22
679.484	57.29
679.81	57.28
680.137	57.24
680.464	57.18
680.791	57.12
681.117	57.03
681.444	57.02
681.771	57.05
682.097	57.1
682.424	57.15
682.75	57.2
683.077	57.35
683.403	57.42
683.729	57.48
684.056	57.33
684.382	57.14
684.708	57.14
685.034	57.18
685.36	57.23
685.686	57.11
686.012	57.08
686.339	57.17
686.664	57.2
686.99	57.27
687.316	57.4
687.642	57.43
687.968	57.46
688.294	57.48
688.619	57.37
688.945	57.43
689.271	57.44
689.596	57.5
689.922	57.56
690.247	57.47
690.573	57.63
690.898	58.03
691.224	58.06
691.549	58.08
691.874	58.12
692.2	58.04
692.525	57.94
692.85	57.85
693.175	57.84
693.5	57.74
693.825	57.53
694.15	57.5
694.475	57.65
694.8	57.7
695.125	57.68
695.45	57.71
695.775	57.77
696.099	57.71
696.424	57.56
696.749	57.67
697.073	57.71
697.398	57.53
697.723	57.31
698.047	57.48
698.372	57.48
698.696	57.49
699.02	57.63
699.345	57.72
699.669	57.92
699.993	57.84
700.318	57.79
700.642	58
700.966	57.98
701.29	57.81
701.614	57.85
701.938	58.07
702.262	58.28
702.586	58.31
702.91	58.5
703.234	58.53
703.557	58.34
703.881	58.24
704.205	58.3
704.529	58.35
704.852	58.11
705.176	58.19
705.499	58.17
705.823	58.01
706.146	58.09
706.47	57.76
706.793	58.02
707.117	58.11
707.44	58.11
707.763	58.18
708.086	58.32
708.409	58.2
708.733	57.94
709.056	57.85
709.379	57.88
709.702	57.79
710.025	57.81
710.348	57.78
710.671	57.89
710.993	58.03
711.316	57.97
711.639	58.11
711.962	58.03
712.284	58.1
712.607	58
712.93	57.92
713.252	57.91
713.575	57.72
713.897	57.89
714.22	57.74
714.542	57.8
714.864	57.72
715.187	57.81
715.509	57.82
715.831	58.03
716.153	58.02
716.475	58.09
716.798	57.99
717.12	58.11
717.442	58.08
717.764	58.04
718.085	57.93
718.407	57.89
718.729	57.99
719.051	57.98
719.373	58.18
719.695	58.38
720.016	58.69
720.338	58.85
720.659	58.86
720.981	58.93
721.302	59.07
721.624	58.96
721.945	59
722.267	59
722.588	58.96
722.909	59
723.231	58.75
723.552	58.74
723.873	58.84
724.194	59.01
724.515	59.11
724.836	59.03
725.157	58.96
725.478	59.15
725.799	58.91
726.12	58.86
726.441	58.53
726.762	58.21
727.083	58.35
727.403	58.23
727.724	58.11
728.045	58.15
728.365	58.38
728.686	58.19
729.006	58.32
729.327	57.98
729.647	58.02
729.967	58.05
730.288	58.03
730.608	57.88
730.928	57.57
731.249	57.53
731.569	57.77
731.889	57.88
732.209	57.58
732.529	57.91
732.849	57.95
733.169	58.14
733.489	58.22
733.809	57.98
734.129	58.02
734.448	58.25
734.768	58.19
735.088	58.23
735.408	58.39
735.727	58.22
736.047	58.27
736.366	58.08
736.686	58.07
737.005	58.37
737.325	58.49
737.644	58.61
737.963	58.21
738.283	58.3
738.602	58.25
738.921	58.66
739.24	58.23
739.56	58.43
739.879	58.48
740.198	58.64
740.517	58.78
740.836	58.65
741.155	58.69
741.473	58.69
741.792	58.48
742.111	58.53
742.43	58.82
742.748	59.21
743.067	59.28
743.386	59.41
743.704	59.32
744.023	59.4
744.341	59.56
744.66	59.91
744.978	59.63
745.297	59.51
745.615	59.32
745.933	59.61
746.252	59.38
746.57	59.63
746.888	59.61
747.206	59.48
747.524	59.44
747.842	59.42
748.16	59.42
748.478	59.72
748.796	59.53
749.114	59.37
749.432	59.66
749.749	59.89
750.067	60.01
750.385	60
750.703	59.75
751.02	59.86
751.338	59.71
751.655	59.91
751.973	60.03
752.29	59.96
752.608	59.86
752.925	59.88
753.242	59.41
753.56	59.12
753.877	59.27
754.194	59.56
754.511	59.14
754.828	58.9
755.145	58.49
755.462	58.4
755.779	58.46
756.096	57.88
756.413	57.71
756.73	57.87
757.047	57.88
757.364	57.97
757.68	57.56
757.997	57.98
758.314	57.93
758.63	58.16
758.947	58.13
759.264	58.51
759.58	58.4
759.896	58.87
760.213	59.31
760.529	59.44
760.846	59.38
761.162	59.53
761.478	59.77
761.794	60.03
762.11	60.42
762.426	60.09
762.743	60.2
763.059	60.43
763.375	60.24
763.69	60.44
764.006	60.25
764.322	60.41
764.638	60.37
764.954	60.57
765.27	60.66
765.585	60.7
765.901	60.62
766.216	60.84
766.532	60.53
766.848	60.56
767.163	60.49
767.478	60.42
767.794	60.78
768.109	60.69
768.424	60.82
768.74	60.53
769.055	60.85
769.37	60.9
769.685	60.7
770	60.97
770.315	60.47
770.63	60.56
770.945	60.82
771.26	60.78
771.575	60.62
771.89	60.49
772.205	60.31
772.52	60.28
772.834	60.54
773.149	60.53
773.464	60.46
773.778	60.23
774.093	60.59
774.407	60.2
774.722	59.94
775.036	59.91
775.351	60.17
775.665	60.12
775.979	59.84
776.293	60.03
776.608	59.51
776.922	59.83
777.236	60.16
777.55	60.06
777.864	59.61
778.178	59.14
778.492	58.99
778.806	59.35
779.12	59.19
779.434	58.4
779.747	58.71
780.061	58.52
780.375	58.69
780.689	58.49
781.002	58.76
781.316	58.84
781.629	58.89
781.943	58.65
782.256	58.4
782.57	58.7
782.883	58.79
783.196	59
783.51	59.25
783.823	58.9
784.136	58.93
784.449	59.44
784.762	60.12
785.075	59.39
785.388	58.83
785.701	58.58
786.014	59.11
786.327	58.58
786.64	58.34
786.953	58.5
787.266	58.8
787.578	58.98
787.891	59.28
788.204	59.01
788.516	59.19
788.829	60.23
789.141	60.3
789.454	60.23
789.766	60.67
790.079	60.37
790.391	60.9
790.703	60.61
791.016	60.66
791.328	61.04
791.64	61.58
791.952	62.59
792.264	62.64
792.576	62.89
792.888	63.46
793.2	64.57
793.512	64.48
793.824	63.99
794.136	63.32
794.448	63.67
794.76	63.89
795.071	63.77
795.383	62.85
795.695	62.68
796.006	62.2
796.318	61.97
796.629	61.88
796.941	61.71
797.252	61.78
797.564	61.93
797.875	60.68
798.186	61.17
798.497	60.72
798.809	60.81
799.12	60.57
799.431	61.12
799.742	60.39
800.053	60.2
800.364	60.77
800.675	61.52
800.986	61.24
801.297	61.22
801.608	60.72
801.918	61.07
802.229	61.11
802.54	61.28
802.851	61.21
803.161	61.44
803.472	61.71
803.782	62.05
804.093	62.13
804.403	62.65
804.714	62.68
805.024	62.39
805.334	63.09
805.645	63.09
805.955	62.52
806.265	62.66
806.575	63.62
806.885	63.51
807.195	63.91
807.505	63.46
807.815	63.83
808.125	64.49
808.435	63.9
808.745	64.37
809.055	64.56
809.365	64.32
809.674	64.36
809.984	64.41
810.294	63.83
810.603	63.63
810.913	64.47
811.222	62.96
811.532	62.76
811.841	62.88
812.151	63.63
812.46	63.22
812.769	62.69
813.079	61.24
813.388	60.26
813.697	60.06
814.006	60.32
814.315	59.93
814.624	60.6
814.933	60.67
815.242	60.56
815.551	60.58
815.86	60.79
816.169	60.67
816.478	60.07
816.786	61.5
817.095	61.58
817.404	60.84
817.712	61.7
818.021	62.42
818.33	62.31
818.638	61.99
818.947	61.77
819.255	61.92
819.563	62.49
819.872	62.31
820.18	61.92
820.488	61.96
820.796	62.18
821.105	62.19
821.413	62.04
821.721	61.75
822.029	61.58
822.337	61.2
822.645	61.19
822.953	61.18
823.26	60.75
823.568	60.79
823.876	61.05
824.184	61.02
824.491	61.06
824.799	61.14
825.107	61.02
825.414	61.13
825.722	61.3
826.029	61.28
826.337	61.28
826.644	61.51
826.951	61.56
827.259	61.6
827.566	61.67
827.873	62.22
828.18	62.44
828.488	62.66
828.795	63.44
829.102	63.3
829.409	63.14
829.716	63.93
830.023	63.76
830.329	63.56
830.636	63.99
830.943	63.78
831.25	63.43
831.557	63.56
831.863	63.81
832.17	63.47
832.476	62.6
832.783	62.9
833.089	62.49
833.396	61.92
833.702	61.19
834.009	60.99
834.315	60.44
834.621	60.27
834.928	59.94
835.234	60.08
835.54	60.88
835.846	61.86
836.152	61.01
836.458	61.23
836.764	61.64
837.07	61.51
837.376	61.97
837.682	62.45
837.988	62.38
838.293	62.68
838.599	62.93
838.905	64.21
839.211	64.78
839.516	64.88
839.822	65.69
840.127	65.67
840.433	64.22
840.738	64.45
841.044	65.82
841.349	66.94
841.654	66.46
841.959	66.8
842.265	64.98
842.57	64.56
842.875	64.63
843.18	63.78
843.485	65.64
843.79	65.34
844.095	65.2
844.4	67.24
844.705	66.57
845.01	66.97
845.315	67.5
845.619	69.07
845.924	68.81
846.229	69.16
846.533	69.97
846.838	73.67
847.142	72.73
847.447	70.68
847.751	72.03
848.056	70.4
848.36	69.38
848.664	71.35
848.969	73.68
849.273	75.34
849.577	74.69
849.881	72.85
850.185	69.66
850.489	68.72
850.794	66.43
851.097	67.22
851.401	65.9
851.705	66.16
852.009	66.33
852.313	67.33
852.617	67.17
852.92	67.11
853.224	66.8
853.528	67.93
853.831	70.14
854.135	68.77
854.438	68.1
854.742	67.3
855.045	67.74
855.349	68.99
855.652	66.47
855.955	68.96
856.259	69.45
856.562	71.92
856.865	71.36
857.168	70.38
857.471	67.31
857.774	67.36
858.077	64.5
858.38	62.82
858.683	63.84
858.986	64.37
859.289	67.22
859.592	65.53
859.894	65.55
860.197	65.58
860.5	67.47
860.802	69.61
861.105	70.13
861.407	68.59
861.71	67.21
862.012	68.47
862.315	65.31
862.617	62.5
862.919	63.7
863.222	65.63
863.524	65.55
863.826	69.19
864.128	67.55
864.43	69.72
864.732	67.11
865.034	66.62
865.336	66.09
865.638	63.81
865.94	64.4
866.242	65.65
866.544	61.52
866.846	58.2
867.147	57.98
867.449	60.71
867.751	63.75
868.052	63.81
868.354	64.49
868.655	65.48
868.957	66.66
869.258	68.69
869.56	67.85
869.861	68.78
870.162	65.33
870.463	66.86
870.765	63.55
871.066	63.77
871.367	62.07
871.668	61.85
871.969	58.56
872.27	58.17
872.571	61.73
872.872	66.05
873.173	67.65
873.473	68.56
873.774	68.35
874.075	66.16
874.376	65.67
874.676	65.45
874.977	67.97
875.277	69.91
875.578	68.62
875.878	68.32
876.179	67.99
876.479	70.45
876.78	71.82
877.08	75.91
877.38	79.01
877.68	81.04
877.981	83.53
878.281	92.1
878.581	95.93
