Data from MVZ_BU65311_Reflection_00009.txt Node
Date: Tue Nov 19 12:20:17 EST 2019
User: vgr7
Spectrometer: USB2G7710
Scans to average: 3
Trigger mode: 4
Integration Time (sec): 2.000000E-2
Electric dark correction enabled: true
Boxcar width: 10
XAxis mode: Wavelengths
Number of Pixels in Spectrum: 2048
>>>>>Begin Spectral Data<<<<<
177.721	32.54
178.105	350
178.488	3.99
178.871	-26.67
179.254	-16.67
179.636	77.01
180.019	86.11
180.402	233.33
180.785	-12.96
181.168	-1140.74
181.55	780.56
181.933	4287.5
182.316	2818.75
182.698	-1077.08
183.081	-908.93
183.463	-421.93
183.846	-282.91
184.228	-341.96
184.611	-227.32
184.993	-222.5
185.376	-266.5
185.758	-147.46
186.14	-160.26
186.522	-88.54
186.904	-96.15
187.287	-107.8
187.669	-94
188.051	-92.36
188.433	-108.87
188.815	-110.92
189.197	-75.53
189.579	-70.72
189.961	-55.12
190.342	-57.1
190.724	-58.55
191.106	-57.72
191.488	-68.84
191.869	-81.49
192.251	-69.64
192.633	-66.52
193.014	-57.5
193.396	-59.25
193.777	-48.78
194.159	-40.34
194.54	-40.39
194.922	-39.98
195.303	-37.02
195.684	-38.31
196.065	-42.39
196.447	-34.65
196.828	-34.58
197.209	-33.59
197.59	-24.78
197.971	-20.17
198.352	-7.63
198.733	-11.92
199.114	-20.85
199.495	-9.41
199.876	-10.53
200.257	-11.99
200.638	-26.91
201.018	-42.42
201.399	-47.49
201.78	-54.66
202.16	-71.13
202.541	-82.15
202.922	-86.96
203.302	-103.07
203.683	-115.18
204.063	-94.53
204.444	-69.48
204.824	-65.32
205.204	-69.74
205.585	-66.43
205.965	-91.38
206.345	-95.31
206.725	-80.21
207.106	-57.08
207.486	-66.43
207.866	-38.47
208.246	-36.89
208.626	-23.68
209.006	-22.89
209.386	-18.39
209.766	-18.75
210.145	-13.43
210.525	-17.42
210.905	-9.72
211.285	-5.07
211.664	5.86
212.044	1.53
212.424	-12.36
212.803	-19.65
213.183	-25.52
213.562	-20.87
213.942	-26.73
214.321	-29.61
214.701	-40.34
215.08	-54.35
215.459	-47.36
215.838	-62.76
216.218	-61.82
216.597	-66.82
216.976	-66.2
217.355	-70.25
217.734	-68.25
218.113	-64.24
218.492	-75.47
218.871	-69.54
219.25	-74.76
219.629	-87.67
220.008	-83.99
220.387	-77.22
220.766	-63.76
221.144	-44.46
221.523	-50.11
221.902	-42.79
222.28	-36.73
222.659	-26.78
223.037	-25.4
223.416	-32.89
223.794	-30.34
224.173	-33.51
224.551	-25
224.929	-27.51
225.308	-28.6
225.686	-35.34
226.064	-32.68
226.442	-23.57
226.821	-22.15
227.199	-20.36
227.577	-22.23
227.955	-17.72
228.333	-17.44
228.711	-19.06
229.089	-23.89
229.467	-24.59
229.845	-22.5
230.222	-18.83
230.6	-17.67
230.978	-12.77
231.356	-9.41
231.733	-6.3
232.111	-6.38
232.488	-6.06
232.866	-4.47
233.243	-2.99
233.621	-0.89
233.998	-1.59
234.376	-1.65
234.753	-2.14
235.13	-2.68
235.508	-0.06
235.885	-1.31
236.262	-2.35
236.639	-1.27
237.016	-0.81
237.393	-0.51
237.77	1.76
238.147	-0.25
238.524	0.75
238.901	-1.33
239.278	-1.9
239.655	-1.76
240.032	-1.58
240.409	-1.58
240.785	-1.36
241.162	-1.52
241.539	-0.98
241.915	-1.41
242.292	-0.76
242.668	0.24
243.045	1.03
243.421	0.48
243.798	0.66
244.174	1
244.551	1.22
244.927	1.51
245.303	1.49
245.679	1.27
246.056	1.54
246.432	1.17
246.808	1.67
247.184	1.66
247.56	1.43
247.936	1.45
248.312	1.34
248.688	1.58
249.064	1.63
249.44	1.57
249.815	1.93
250.191	2.01
250.567	1.58
250.943	1.21
251.318	1.25
251.694	1.49
252.069	1.6
252.445	1.27
252.82	1.76
253.196	1.84
253.571	1.97
253.947	1.78
254.322	2.02
254.697	2.06
255.073	2.07
255.448	2.28
255.823	2.41
256.198	2.47
256.573	2.46
256.948	2.65
257.323	2.69
257.698	2.79
258.073	2.65
258.448	2.9
258.823	2.97
259.198	3.31
259.573	2.85
259.948	2.78
260.322	2.85
260.697	2.63
261.072	2.55
261.446	2.36
261.821	2.62
262.195	2.47
262.57	2.25
262.944	2.34
263.319	2.41
263.693	2.34
264.067	2.38
264.442	2.37
264.816	2.34
265.19	2.23
265.564	2.08
265.938	2
266.313	1.6
266.687	1.74
267.061	1.46
267.435	1.94
267.809	1.94
268.183	1.92
268.556	1.79
268.93	1.79
269.304	1.93
269.678	1.71
270.051	1.88
270.425	1.92
270.799	1.86
271.172	1.76
271.546	2.05
271.919	2
272.293	2.06
272.666	2.03
273.04	2.16
273.413	1.9
273.787	1.77
274.16	1.83
274.533	1.89
274.906	2.17
275.279	2.05
275.653	2.16
276.026	2.19
276.399	2.34
276.772	2.44
277.145	2.43
277.518	2.37
277.891	2.35
278.263	2.68
278.636	2.72
279.009	2.92
279.382	2.77
279.755	2.95
280.127	2.63
280.5	2.53
280.872	2.6
281.245	2.79
281.617	2.91
281.99	3
282.362	2.87
282.735	2.79
283.107	2.48
283.479	2.36
283.852	2.32
284.224	2.34
284.596	2.29
284.968	2.31
285.34	2.52
285.713	2.52
286.085	2.28
286.457	2.24
286.829	2.13
287.201	2.12
287.572	2.03
287.944	2.21
288.316	2.31
288.688	2.31
289.06	2.4
289.431	2.56
289.803	2.61
290.175	2.53
290.546	2.39
290.918	2.67
291.289	2.68
291.661	2.86
292.032	2.84
292.403	2.9
292.775	2.93
293.146	2.79
293.517	2.69
293.889	2.67
294.26	2.9
294.631	3
295.002	2.98
295.373	2.9
295.744	2.92
296.115	2.98
296.486	3.02
296.857	3.11
297.228	2.87
297.599	2.76
297.97	2.96
298.34	2.91
298.711	3.03
299.082	3.12
299.452	2.95
299.823	2.98
300.194	2.92
300.564	2.86
300.935	2.98
301.305	3.02
301.676	3.06
302.046	2.94
302.416	2.89
302.787	2.76
303.157	2.91
303.527	3.01
303.897	2.66
304.267	2.56
304.637	2.36
305.008	2.54
305.378	2.62
305.748	2.56
306.117	2.75
306.487	2.64
306.857	2.78
307.227	2.97
307.597	2.81
307.967	2.86
308.336	2.75
308.706	2.72
309.076	2.98
309.445	3.05
309.815	2.97
310.184	2.98
310.554	3.08
310.923	2.9
311.293	2.86
311.662	3.09
312.031	3.15
312.401	3.09
312.77	3.09
313.139	3.21
313.508	3.24
313.877	3.08
314.246	3.07
314.616	2.91
314.985	2.96
315.353	3.29
315.722	3.37
316.091	3.59
316.46	3.44
316.829	3.26
317.198	3.47
317.567	3.5
317.935	3.48
318.304	3.53
318.672	3.59
319.041	3.54
319.41	3.41
319.778	3.44
320.147	3.63
320.515	3.69
320.883	3.57
321.252	3.57
321.62	3.67
321.988	3.69
322.357	3.73
322.725	3.63
323.093	3.45
323.461	3.46
323.829	3.5
324.197	3.5
324.565	3.54
324.933	3.32
325.301	3.34
325.669	3.27
326.037	3.37
326.405	3.7
326.772	3.86
327.14	4.1
327.508	4.03
327.875	3.93
328.243	3.9
328.61	3.98
328.978	4.01
329.346	4.05
329.713	4.27
330.08	4.27
330.448	4.32
330.815	4.37
331.182	4.33
331.55	4.11
331.917	4.22
332.284	4.4
332.651	4.55
333.018	4.62
333.385	4.76
333.752	4.68
334.119	4.62
334.486	4.54
334.853	4.55
335.22	4.54
335.587	4.47
335.954	4.53
336.32	4.53
336.687	4.5
337.054	4.48
337.42	4.41
337.787	4.49
338.153	4.49
338.52	4.52
338.886	4.52
339.253	4.6
339.619	4.7
339.986	4.63
340.352	4.71
340.718	4.78
341.084	4.82
341.451	4.97
341.817	4.89
342.183	4.94
342.549	5.08
342.915	5.17
343.281	5.29
343.647	5.18
344.013	5.27
344.379	5.35
344.745	5.48
345.11	5.45
345.476	5.45
345.842	5.41
346.208	5.47
346.573	5.66
346.939	5.74
347.304	5.81
347.67	5.75
348.035	5.59
348.401	5.56
348.766	5.51
349.132	5.47
349.497	5.51
349.862	5.57
350.228	5.38
350.593	5.35
350.958	5.37
351.323	5.57
351.688	5.57
352.053	5.48
352.418	5.53
352.783	5.49
353.148	5.54
353.513	5.51
353.878	5.55
354.243	5.43
354.608	5.53
354.972	5.49
355.337	5.53
355.702	5.61
356.066	5.61
356.431	5.64
356.795	5.67
357.16	5.71
357.524	5.66
357.889	5.72
358.253	5.74
358.618	5.67
358.982	5.61
359.346	5.55
359.71	5.62
360.075	5.67
360.439	5.72
360.803	5.74
361.167	5.72
361.531	5.58
361.895	5.58
362.259	5.53
362.623	5.5
362.987	5.51
363.351	5.49
363.714	5.52
364.078	5.51
364.442	5.5
364.806	5.5
365.169	5.5
365.533	5.51
365.896	5.54
366.26	5.59
366.623	5.59
366.987	5.76
367.35	5.79
367.714	5.65
368.077	5.67
368.44	5.67
368.803	5.76
369.167	5.87
369.53	5.86
369.893	5.81
370.256	5.88
370.619	5.91
370.982	5.81
371.345	5.84
371.708	5.84
372.071	5.8
372.434	5.75
372.797	5.77
373.159	5.74
373.522	5.68
373.885	5.7
374.247	5.64
374.61	5.43
374.973	5.36
375.335	5.37
375.698	5.33
376.06	5.29
376.423	5.24
376.785	5.19
377.147	5.23
377.51	5.19
377.872	5.15
378.234	5.06
378.596	5.09
378.958	5.05
379.321	5.06
379.683	5.1
380.045	5.12
380.407	5.08
380.769	5.07
381.13	5.1
381.492	5.11
381.854	5.15
382.216	5.19
382.578	5.19
382.939	5.18
383.301	5.18
383.663	5.15
384.024	5.2
384.386	5.22
384.747	5.16
385.109	5.18
385.47	5.15
385.832	5.15
386.193	5.14
386.554	5.08
386.916	5.08
387.277	4.99
387.638	4.94
387.999	4.92
388.36	4.9
388.721	4.88
389.082	4.86
389.443	4.83
389.804	4.81
390.165	4.8
390.526	4.79
390.887	4.77
391.248	4.74
391.609	4.73
391.969	4.71
392.33	4.72
392.691	4.72
393.051	4.73
393.412	4.75
393.772	4.77
394.133	4.77
394.493	4.71
394.854	4.73
395.214	4.68
395.574	4.68
395.935	4.69
396.295	4.65
396.655	4.64
397.015	4.6
397.376	4.6
397.736	4.53
398.096	4.51
398.456	4.47
398.816	4.48
399.176	4.42
399.535	4.41
399.895	4.4
400.255	4.36
400.615	4.35
400.975	4.36
401.334	4.33
401.694	4.31
402.054	4.32
402.413	4.3
402.773	4.35
403.132	4.38
403.492	4.35
403.851	4.33
404.211	4.31
404.57	4.34
404.929	4.31
405.288	4.34
405.648	4.37
406.007	4.41
406.366	4.38
406.725	4.4
407.084	4.37
407.443	4.35
407.802	4.38
408.161	4.36
408.52	4.35
408.879	4.37
409.238	4.37
409.596	4.38
409.955	4.41
410.314	4.37
410.673	4.33
411.031	4.3
411.39	4.32
411.748	4.32
412.107	4.3
412.465	4.28
412.824	4.27
413.182	4.24
413.54	4.22
413.899	4.22
414.257	4.2
414.615	4.18
414.974	4.18
415.332	4.18
415.69	4.16
416.048	4.13
416.406	4.09
416.764	4.1
417.122	4.07
417.48	4.07
417.838	4.07
418.195	4.06
418.553	4.06
418.911	4.06
419.269	4.04
419.626	4.04
419.984	4.06
420.342	4.03
420.699	4.01
421.057	3.99
421.414	3.99
421.772	3.97
422.129	3.99
422.486	4
422.844	3.98
423.201	3.98
423.558	3.99
423.915	4
424.273	3.99
424.63	3.99
424.987	3.97
425.344	3.98
425.701	3.98
426.058	3.95
426.415	3.92
426.772	3.92
427.128	3.92
427.485	3.92
427.842	3.93
428.199	3.93
428.555	3.93
428.912	3.92
429.269	3.92
429.625	3.89
429.982	3.89
430.338	3.89
430.695	3.87
431.051	3.87
431.407	3.84
431.764	3.83
432.12	3.87
432.476	3.87
432.832	3.85
433.189	3.86
433.545	3.87
433.901	3.9
434.257	3.89
434.613	3.85
434.969	3.83
435.325	3.84
435.681	3.84
436.036	3.86
436.392	3.89
436.748	3.9
437.104	3.91
437.459	3.91
437.815	3.92
438.171	3.94
438.526	3.93
438.882	3.95
439.237	3.97
439.593	3.96
439.948	3.95
440.304	3.94
440.659	3.92
441.014	3.93
441.369	3.93
441.725	3.92
442.08	3.94
442.435	3.96
442.79	3.96
443.145	3.96
443.5	3.94
443.855	3.93
444.21	3.92
444.565	3.92
444.92	3.91
445.275	3.9
445.629	3.87
445.984	3.87
446.339	3.87
446.693	3.87
447.048	3.86
447.403	3.87
447.757	3.88
448.112	3.87
448.466	3.87
448.82	3.87
449.175	3.88
449.529	3.88
449.883	3.86
450.238	3.87
450.592	3.88
450.946	3.89
451.3	3.89
451.654	3.89
452.008	3.89
452.362	3.87
452.716	3.88
453.07	3.88
453.424	3.87
453.778	3.87
454.132	3.83
454.486	3.82
454.839	3.81
455.193	3.81
455.547	3.83
455.9	3.82
456.254	3.82
456.607	3.81
456.961	3.81
457.314	3.82
457.668	3.82
458.021	3.83
458.375	3.84
458.728	3.86
459.081	3.87
459.434	3.87
459.787	3.88
460.141	3.89
460.494	3.92
460.847	3.92
461.2	3.92
461.553	3.96
461.906	3.97
462.259	3.95
462.611	3.95
462.964	3.97
463.317	3.97
463.67	3.99
464.022	4.01
464.375	4.01
464.728	4.02
465.08	4
465.433	3.98
465.785	3.99
466.138	3.98
466.49	3.97
466.843	3.97
467.195	4
467.547	3.97
467.899	3.99
468.252	4.01
468.604	4.02
468.956	4.03
469.308	4.02
469.66	4.07
470.012	4.09
470.364	4.08
470.716	4.11
471.068	4.13
471.42	4.13
471.772	4.16
472.123	4.17
472.475	4.21
472.827	4.22
473.178	4.24
473.53	4.22
473.882	4.23
474.233	4.25
474.585	4.26
474.936	4.29
475.288	4.3
475.639	4.31
475.99	4.31
476.342	4.32
476.693	4.32
477.044	4.31
477.395	4.3
477.746	4.32
478.097	4.32
478.448	4.32
478.8	4.3
479.15	4.29
479.501	4.27
479.852	4.26
480.203	4.25
480.554	4.25
480.905	4.26
481.255	4.25
481.606	4.25
481.957	4.26
482.307	4.24
482.658	4.25
483.009	4.24
483.359	4.25
483.709	4.24
484.06	4.25
484.41	4.25
484.761	4.26
485.111	4.26
485.461	4.25
485.811	4.24
486.162	4.25
486.512	4.26
486.862	4.27
487.212	4.28
487.562	4.29
487.912	4.29
488.262	4.29
488.612	4.3
488.961	4.3
489.311	4.29
489.661	4.3
490.011	4.28
490.36	4.28
490.71	4.27
491.06	4.29
491.409	4.3
491.759	4.31
492.108	4.31
492.458	4.32
492.807	4.33
493.157	4.34
493.506	4.37
493.855	4.36
494.204	4.37
494.554	4.38
494.903	4.39
495.252	4.41
495.601	4.44
495.95	4.44
496.299	4.48
496.648	4.52
496.997	4.55
497.346	4.61
497.695	4.64
498.043	4.69
498.392	4.71
498.741	4.75
499.09	4.8
499.438	4.86
499.787	4.9
500.135	4.96
500.484	5.01
500.832	5.04
501.181	5.09
501.529	5.17
501.878	5.23
502.226	5.3
502.574	5.35
502.923	5.4
503.271	5.49
503.619	5.57
503.967	5.63
504.315	5.72
504.663	5.8
505.011	5.88
505.359	5.97
505.707	6.06
506.055	6.14
506.403	6.22
506.751	6.28
507.098	6.36
507.446	6.45
507.794	6.57
508.141	6.68
508.489	6.8
508.837	6.9
509.184	7.02
509.531	7.15
509.879	7.29
510.226	7.44
510.574	7.56
510.921	7.66
511.268	7.79
511.616	7.91
511.963	8.07
512.31	8.22
512.657	8.37
513.004	8.49
513.351	8.64
513.698	8.85
514.045	9.06
514.392	9.28
514.739	9.45
515.086	9.66
515.432	9.86
515.779	10.07
516.126	10.27
516.473	10.46
516.819	10.65
517.166	10.81
517.512	10.98
517.859	11.18
518.205	11.37
518.552	11.58
518.898	11.77
519.245	11.94
519.591	12.12
519.937	12.31
520.283	12.58
520.629	12.81
520.976	13.02
521.322	13.25
521.668	13.53
522.014	13.81
522.36	14.06
522.706	14.31
523.052	14.56
523.398	14.86
523.743	15.17
524.089	15.45
524.435	15.71
524.781	15.97
525.126	16.2
525.472	16.44
525.817	16.64
526.163	16.84
526.509	17.02
526.854	17.21
527.199	17.4
527.545	17.53
527.89	17.68
528.235	17.84
528.581	18
528.926	18.15
529.271	18.3
529.616	18.47
529.961	18.66
530.306	18.84
530.651	19.02
530.996	19.2
531.341	19.42
531.686	19.63
532.031	19.87
532.376	20.09
532.721	20.33
533.065	20.56
533.41	20.78
533.755	21
534.099	21.24
534.444	21.44
534.788	21.67
535.133	21.89
535.477	22.11
535.822	22.33
536.166	22.57
536.51	22.82
536.855	23.07
537.199	23.32
537.543	23.57
537.887	23.84
538.231	24.13
538.576	24.41
538.92	24.67
539.264	24.88
539.608	25.12
539.951	25.31
540.295	25.53
540.639	25.75
540.983	25.98
541.327	26.19
541.671	26.4
542.014	26.61
542.358	26.84
542.701	27.02
543.045	27.21
543.389	27.43
543.732	27.65
544.075	27.86
544.419	28.06
544.762	28.28
545.105	28.54
545.449	28.73
545.792	28.98
546.135	29.23
546.478	29.51
546.821	29.78
547.165	30.09
547.508	30.36
547.851	30.6
548.194	30.86
548.536	31.12
548.879	31.38
549.222	31.66
549.565	31.9
549.908	32.19
550.25	32.44
550.593	32.67
550.936	32.86
551.278	33.12
551.621	33.44
551.963	33.73
552.306	33.92
552.648	34.2
552.991	34.37
553.333	34.61
553.675	34.82
554.017	35.02
554.36	35.23
554.702	35.38
555.044	35.61
555.386	35.85
555.728	36.09
556.07	36.27
556.412	36.43
556.754	36.64
557.096	36.81
557.438	37.05
557.78	37.22
558.121	37.52
558.463	37.78
558.805	37.96
559.147	38.14
559.488	38.34
559.83	38.53
560.171	38.77
560.513	38.93
560.854	39.08
561.196	39.29
561.537	39.45
561.878	39.67
562.22	39.86
562.561	39.98
562.902	40.13
563.243	40.38
563.584	40.53
563.925	40.67
564.266	40.79
564.607	40.93
564.948	41.1
565.289	41.21
565.63	41.26
565.971	41.36
566.312	41.46
566.653	41.58
566.993	41.7
567.334	41.79
567.675	41.9
568.015	42.08
568.356	42.18
568.696	42.32
569.037	42.35
569.377	42.46
569.718	42.54
570.058	42.61
570.398	42.69
570.739	42.84
571.079	42.99
571.419	43.16
571.759	43.25
572.099	43.33
572.439	43.41
572.779	43.56
573.119	43.67
573.459	43.72
573.799	43.85
574.139	43.92
574.479	44.06
574.819	44.14
575.158	44.16
575.498	44.34
575.838	44.36
576.177	44.56
576.517	44.71
576.856	44.85
577.196	45.02
577.535	45.15
577.875	45.28
578.214	45.32
578.553	45.41
578.893	45.53
579.232	45.68
579.571	45.89
579.91	46.03
580.25	46.2
580.589	46.37
580.928	46.44
581.267	46.59
581.606	46.69
581.945	46.83
582.283	46.96
582.622	47.01
582.961	47.13
583.3	47.2
583.639	47.24
583.977	47.32
584.316	47.44
584.654	47.49
584.993	47.64
585.332	47.8
585.67	47.84
586.008	47.93
586.347	47.99
586.685	47.99
587.024	48.03
587.362	48.12
587.7	48.27
588.038	48.36
588.376	48.4
588.715	48.45
589.053	48.47
589.391	48.55
589.729	48.56
590.067	48.71
590.404	48.77
590.742	48.85
591.08	48.93
591.418	48.98
591.756	49.02
592.093	48.99
592.431	49.08
592.769	49.22
593.106	49.32
593.444	49.44
593.781	49.52
594.119	49.51
594.456	49.46
594.793	49.51
595.131	49.54
595.468	49.59
595.805	49.64
596.143	49.74
596.48	49.84
596.817	49.86
597.154	49.88
597.491	49.87
597.828	49.92
598.165	49.99
598.502	49.98
598.839	50.02
599.176	50.04
599.512	50.05
599.849	50.08
600.186	50.08
600.523	50.07
600.859	50.07
601.196	50.15
601.532	50.19
601.869	50.26
602.205	50.28
602.542	50.38
602.878	50.38
603.215	50.45
603.551	50.46
603.887	50.49
604.223	50.48
604.56	50.55
604.896	50.55
605.232	50.57
605.568	50.66
605.904	50.73
606.24	50.81
606.576	50.87
606.912	50.91
607.248	51.03
607.583	51.04
607.919	51.11
608.255	51.19
608.591	51.34
608.926	51.36
609.262	51.41
609.597	51.41
609.933	51.5
610.268	51.52
610.604	51.64
610.939	51.81
611.275	51.97
611.61	52.09
611.945	52.2
612.281	52.21
612.616	52.26
612.951	52.38
613.286	52.37
613.621	52.47
613.956	52.45
614.291	52.47
614.626	52.6
614.961	52.68
615.296	52.74
615.631	52.81
615.966	52.84
616.3	52.97
616.635	53.04
616.97	53.1
617.304	53.06
617.639	53.03
617.973	53.11
618.308	53.07
618.642	53.04
618.977	53.01
619.311	53.17
619.646	53.26
619.98	53.13
620.314	53.21
620.648	53.22
620.983	53.28
621.317	53.32
621.651	53.38
621.985	53.43
622.319	53.4
622.653	53.36
622.987	53.41
623.321	53.32
623.655	53.28
623.988	53.29
624.322	53.34
624.656	53.36
624.99	53.26
625.323	53.21
625.657	53.35
625.99	53.36
626.324	53.28
626.657	53.2
626.991	53.32
627.324	53.33
627.658	53.39
627.991	53.44
628.324	53.47
628.657	53.42
628.991	53.44
629.324	53.47
629.657	53.47
629.99	53.42
630.323	53.56
630.656	53.55
630.989	53.6
631.322	53.66
631.655	53.62
631.987	53.66
632.32	53.72
632.653	53.65
632.986	53.71
633.318	53.77
633.651	53.86
633.984	53.94
634.316	53.99
634.649	53.95
634.981	54.02
635.313	54.08
635.646	54.21
635.978	54.27
636.31	54.33
636.643	54.45
636.975	54.53
637.307	54.5
637.639	54.62
637.971	54.69
638.303	54.77
638.635	54.87
638.967	54.97
639.299	55.09
639.631	55.14
639.963	55.2
640.295	55.28
640.626	55.32
640.958	55.39
641.29	55.47
641.621	55.42
641.953	55.38
642.285	55.34
642.616	55.41
642.948	55.37
643.279	55.34
643.61	55.29
643.942	55.34
644.273	55.56
644.604	55.61
644.936	55.52
645.267	55.5
645.598	55.52
645.929	55.45
646.26	55.4
646.591	55.39
646.922	55.48
647.253	55.54
647.584	55.51
647.915	55.44
648.245	55.25
648.576	55.28
648.907	55.35
649.238	55.32
649.568	55.12
649.899	55.2
650.229	55.24
650.56	55.24
650.89	55.24
651.221	55.04
651.551	55.15
651.882	55.1
652.212	55.1
652.542	55.12
652.872	55.2
653.203	55.16
653.533	55.13
653.863	55.14
654.193	55.04
654.523	55.1
654.853	55.07
655.183	55.05
655.513	55.03
655.843	54.98
656.172	55
656.502	55.05
656.832	55.04
657.162	55.13
657.491	55.24
657.821	55.19
658.15	55.18
658.48	55.1
658.809	55.21
659.139	55.32
659.468	55.23
659.798	55.11
660.127	55.31
660.456	55.37
660.785	55.28
661.115	55.41
661.444	55.45
661.773	55.56
662.102	55.71
662.431	55.93
662.76	56.04
663.089	56.17
663.418	56.2
663.747	56.25
664.076	56.02
664.404	56
664.733	56.06
665.062	56.22
665.39	56.25
665.719	56.28
666.048	56.19
666.376	56.15
666.705	56.22
667.033	56.11
667.362	56.22
667.69	56.33
668.018	56.21
668.347	56.15
668.675	56.13
669.003	56.3
669.331	56.22
669.659	56.19
669.987	56.08
670.315	56.17
670.643	56.05
670.971	56.35
671.299	56.38
671.627	56.28
671.955	56.2
672.283	56.31
672.61	56.39
672.938	56.42
673.266	56.69
673.593	56.76
673.921	56.9
674.249	56.85
674.576	56.77
674.904	56.85
675.231	56.91
675.558	56.85
675.886	56.88
676.213	56.8
676.54	56.82
676.867	56.8
677.195	56.64
677.522	56.78
677.849	56.68
678.176	56.46
678.503	56.58
678.83	56.56
679.157	56.43
679.484	56.38
679.81	56.54
680.137	56.44
680.464	56.49
680.791	56.33
681.117	56.31
681.444	56.35
681.771	56.24
682.097	56.2
682.424	56.24
682.75	55.99
683.077	56.08
683.403	56
683.729	56.11
684.056	56.27
684.382	56.05
684.708	55.96
685.034	55.95
685.36	55.74
685.686	55.76
686.012	55.88
686.339	55.87
686.664	55.71
686.99	55.62
687.316	55.56
687.642	55.66
687.968	55.63
688.294	55.64
688.619	55.76
688.945	55.75
689.271	55.73
689.596	55.92
689.922	55.89
690.247	55.94
690.573	55.96
690.898	55.92
691.224	56.21
691.549	56.32
691.874	56.61
692.2	56.72
692.525	56.9
692.85	56.7
693.175	56.52
693.5	56.52
693.825	56.72
694.15	56.68
694.475	56.64
694.8	56.76
695.125	56.69
695.45	56.53
695.775	56.58
696.099	56.62
696.424	56.68
696.749	56.68
697.073	56.81
697.398	56.6
697.723	56.68
698.047	56.44
698.372	56.45
698.696	56.31
699.02	56.55
699.345	56.51
699.669	56.54
699.993	56.71
700.318	56.7
700.642	56.63
700.966	56.78
701.29	56.81
701.614	56.67
701.938	56.65
702.262	56.71
702.586	56.77
702.91	56.81
703.234	56.77
703.557	57.01
703.881	57.09
704.205	57.38
704.529	57.26
704.852	57.53
705.176	57.62
705.499	57.75
705.823	57.62
706.146	57.57
706.47	57.69
706.793	57.62
707.117	57.71
707.44	57.79
707.763	57.82
708.086	57.67
708.409	57.8
708.733	58.02
709.056	58.26
709.379	58.19
709.702	58.07
710.025	58.06
710.348	58.16
710.671	57.94
710.993	58.11
711.316	58.33
711.639	58.21
711.962	58.24
712.284	58.15
712.607	58.03
712.93	58.21
713.252	58.33
713.575	58.58
713.897	58.67
714.22	58.46
714.542	58.25
714.864	58.29
715.187	58.41
715.509	58.34
715.831	57.95
716.153	57.85
716.475	58.12
716.798	58.09
717.12	57.67
717.442	57.52
717.764	57.42
718.085	57.26
718.407	57.38
718.729	57.43
719.051	57.63
719.373	57.64
719.695	57.53
720.016	57.43
720.338	57.11
720.659	57.27
720.981	57.46
721.302	57.47
721.624	57.61
721.945	57.44
722.267	57.9
722.588	58.34
722.909	58.31
723.231	58.01
723.552	58.05
723.873	58.29
724.194	58.49
724.515	58.33
724.836	58.37
725.157	58.51
725.478	58.46
725.799	58.44
726.12	58.54
726.441	58.2
726.762	58.05
727.083	58.01
727.403	57.47
727.724	57.43
728.045	57.43
728.365	57.35
728.686	57.34
729.006	57.19
729.327	57.03
729.647	56.97
729.967	57.07
730.288	57.22
730.608	57.02
730.928	56.94
731.249	56.77
731.569	56.69
731.889	56.44
732.209	56.5
732.529	56.45
732.849	56.74
733.169	57.03
733.489	57.36
733.809	57.23
734.129	57.23
734.448	57.23
734.768	57.11
735.088	57.25
735.408	57.33
735.727	57.12
736.047	57.32
736.366	57.44
736.686	57.35
737.005	57.14
737.325	57.32
737.644	57.36
737.963	57.66
738.283	58.11
738.602	58.52
738.921	58.3
739.24	58.25
739.56	57.84
739.879	57.72
740.198	57.51
740.517	57.62
740.836	58.09
741.155	58.32
741.473	58.68
741.792	58.66
742.111	58.88
742.43	58.83
742.748	58.62
743.067	59.05
743.386	59.46
743.704	59.43
744.023	59.64
744.341	59.59
744.66	59.73
744.978	59.16
745.297	58.9
745.615	58.91
745.933	58.71
746.252	59.48
746.57	59.53
746.888	59.67
747.206	60.05
747.524	59.59
747.842	59.27
748.16	59.18
748.478	59.34
748.796	59.01
749.114	58.85
749.432	58.69
749.749	58.4
750.067	58.05
750.385	58.12
750.703	58.18
751.02	58.54
751.338	58.16
751.655	58.45
751.973	58.14
752.29	58.16
752.608	58.47
752.925	57.6
753.242	57.95
753.56	57.6
753.877	57.51
754.194	57.74
754.511	57.97
754.828	57.73
755.145	57.59
755.462	57.6
755.779	57.95
756.096	58.31
756.413	58.21
756.73	58.3
757.047	58.22
757.364	58.06
757.68	57.77
757.997	57.91
758.314	57.87
758.63	57.96
758.947	58.3
759.264	58.13
759.58	57.87
759.896	57.26
760.213	57.39
760.529	57.35
760.846	57.32
761.162	57.48
761.478	57.62
761.794	57.59
762.11	57.81
762.426	57.56
762.743	57.45
763.059	57.37
763.375	57.41
763.69	57.49
764.006	57.3
764.322	57.03
764.638	57.26
764.954	57.19
765.27	57.57
765.585	57.09
765.901	57.08
766.216	57.34
766.532	57.43
766.848	57.48
767.163	57.47
767.478	57.4
767.794	57.25
768.109	57.51
768.424	57.6
768.74	57.54
769.055	57.47
769.37	57.56
769.685	58.07
770	57.95
770.315	58.24
770.63	58.44
770.945	59.23
771.26	59.13
771.575	59.3
771.89	58.71
772.205	59.04
772.52	59.62
772.834	59.8
773.149	60.08
773.464	60.15
773.778	60.33
774.093	60.47
774.407	60.66
774.722	60.56
775.036	60.27
775.351	60.21
775.665	60.52
775.979	60.39
776.293	59.79
776.608	59.88
776.922	59.68
777.236	59.72
777.55	58.58
777.864	58.21
778.178	58.14
778.492	59.07
778.806	59.01
779.12	58.39
779.434	58.16
779.747	58.46
780.061	58.55
780.375	57.98
780.689	57.91
781.002	57.11
781.316	56.92
781.629	56.94
781.943	56.8
782.256	56.87
782.57	57.3
782.883	57.58
783.196	57.41
783.51	57.38
783.823	57.62
784.136	58.03
784.449	58.15
784.762	58.6
785.075	58.22
785.388	58.28
785.701	58.13
786.014	58.41
786.327	58.28
786.64	58.12
786.953	58.31
787.266	58.11
787.578	58.64
787.891	58.68
788.204	59.13
788.516	59.4
788.829	58.87
789.141	59.04
789.454	58.48
789.766	58.46
790.079	58.36
790.391	57.84
790.703	58.45
791.016	58.29
791.328	57.92
791.64	58.31
791.952	58.2
792.264	57.98
792.576	57.58
792.888	57.35
793.2	57.36
793.512	57.89
793.824	58.01
794.136	57.48
794.448	56.99
794.76	56.18
795.071	55.75
795.383	56.06
795.695	55.06
796.006	55.42
796.318	55.55
796.629	55.91
796.941	55.81
797.252	55.04
797.564	55.78
797.875	55.86
798.186	55.42
798.497	55.42
798.809	55.62
799.12	55.37
799.431	55.07
799.742	54.69
800.053	53.76
800.364	53.69
800.675	53.93
800.986	54
801.297	53.94
801.608	54.18
801.918	53.86
802.229	54.16
802.54	54.12
802.851	53.95
803.161	53.73
803.472	54.07
803.782	53.87
804.093	52.87
804.403	52.81
804.714	52.75
805.024	53.36
805.334	53.77
805.645	54.15
805.955	54.74
806.265	55.43
806.575	55.84
806.885	55.59
807.195	56.3
807.505	57.01
807.815	56.94
808.125	56.92
808.435	56.6
808.745	56.53
809.055	56.71
809.365	56.53
809.674	56.62
809.984	56.83
810.294	57.53
810.603	57.69
810.913	57
811.222	56.47
811.532	56.06
811.841	56.26
812.151	56.22
812.46	55.75
812.769	54.77
813.079	55.27
813.388	55.76
813.697	54.58
814.006	53.77
814.315	53.03
814.624	52.96
814.933	53.41
815.242	52.88
815.551	53.5
815.86	53.54
816.169	52.46
816.478	52.25
816.786	51.71
817.095	52.02
817.404	52.33
817.712	51.93
818.021	51.87
818.33	51.84
818.638	52.67
818.947	53.56
819.255	54.57
819.563	54.27
819.872	54.18
820.18	54.71
820.488	54.74
820.796	55.58
821.105	55.42
821.413	55.78
821.721	56.04
822.029	55.56
822.337	55.68
822.645	55.96
822.953	55.98
823.26	56.17
823.568	56.17
823.876	56.17
824.184	56.45
824.491	56.69
824.799	56.81
825.107	56.67
825.414	56.51
825.722	56.15
826.029	56.3
826.337	56.53
826.644	56.35
826.951	56.32
827.259	56.37
827.566	56.47
827.873	56.49
828.18	56.72
828.488	57.21
828.795	57.38
829.102	57.17
829.409	57.14
829.716	57.17
830.023	57.02
830.329	57.25
830.636	57.27
830.943	56.6
831.25	56.41
831.557	56.57
831.863	56.42
832.17	56.66
832.476	56.39
832.783	56.16
833.089	55.67
833.396	56.04
833.702	55.83
834.009	55.96
834.315	55.46
834.621	55.08
834.928	54.84
835.234	54.41
835.54	54.64
835.846	54.62
836.152	54.46
836.458	54.22
836.764	53.8
837.07	52.91
837.376	53.07
837.682	52.87
837.988	51.94
838.293	51.63
838.599	52.18
838.905	52.69
839.211	52.82
839.516	53.02
839.822	53.22
840.127	52.65
840.433	52.12
840.738	52.37
841.044	52.47
841.349	51.62
841.654	51.21
841.959	51.41
842.265	50.94
842.57	52.17
842.875	53.22
843.18	53.85
843.485	55.19
843.79	55.43
844.095	54.29
844.4	55.41
844.705	56.21
845.01	55.24
845.315	54.38
845.619	53.37
845.924	54.48
846.229	55.45
846.533	53.77
846.838	54.05
847.142	53.37
847.447	52.88
847.751	53.36
848.056	53.75
848.36	53.92
848.664	54.12
848.969	50.51
849.273	50.42
849.577	50.37
849.881	49.4
850.185	49.35
850.489	49.4
850.794	48.35
851.097	49.15
851.401	47.59
851.705	48.13
852.009	49.11
852.313	49.67
852.617	46.24
852.92	48.92
853.224	48.95
853.528	48.01
853.831	46.87
854.135	47.55
854.438	47.61
854.742	47.6
855.045	46.46
855.349	49.05
855.652	50
855.955	49.75
856.259	51.79
856.562	52.86
856.865	52.19
857.168	53.77
857.471	52.26
857.774	54.13
858.077	52.68
858.38	55.36
858.683	54.28
858.986	57.47
859.289	57.01
859.592	56.65
859.894	58.19
860.197	59.12
860.5	57.45
860.802	58.7
861.105	58.37
861.407	59.24
861.71	59.71
862.012	57.19
862.315	57.91
862.617	54.88
862.919	53.22
863.222	58.91
863.524	58.26
863.826	58.72
864.128	56.38
864.43	57.1
864.732	53.42
865.034	54.46
865.336	51.96
865.638	50.91
865.94	52.29
866.242	51.15
866.544	51.84
866.846	54.65
867.147	52.29
867.449	52.79
867.751	52.76
868.052	50.95
868.354	51.19
868.655	51.3
868.957	53.5
869.258	53.81
869.56	50.68
869.861	50.37
870.162	49.26
870.463	51.03
870.765	49.68
871.066	51.12
871.367	50.75
871.668	51.34
871.969	49.69
872.27	47.76
872.571	48.75
872.872	46.34
873.173	44.46
873.473	48.26
873.774	45.77
874.075	47.89
874.376	47.08
874.676	47.68
874.977	47.4
875.277	43.88
875.578	44.46
875.878	44.04
876.179	44.71
876.479	45.82
876.78	45.37
877.08	46.62
877.38	45.07
877.68	44.93
877.981	45.57
878.281	48.92
878.581	50.39
