Data from MVZ_BU28167_Reflection_00014.txt Node
Date: Tue Nov 19 12:17:45 EST 2019
User: vgr7
Spectrometer: USB2G7710
Scans to average: 3
Trigger mode: 4
Integration Time (sec): 2.000000E-2
Electric dark correction enabled: true
Boxcar width: 10
XAxis mode: Wavelengths
Number of Pixels in Spectrum: 2048
>>>>>Begin Spectral Data<<<<<
177.721	257.66
178.105	-261.11
178.488	55.71
178.871	55.21
179.254	288.89
179.636	102.16
180.019	8.68
180.402	-25
180.785	83.33
181.168	98.11
181.55	29.72
181.933	28.76
182.316	17.15
182.698	-3.56
183.081	13.21
183.463	38.69
183.846	42.28
184.228	37.66
184.611	40.63
184.993	12.93
185.376	5.77
185.758	-17.57
186.14	3.83
186.522	4.2
186.904	-12.32
187.287	-13.19
187.669	-10.93
188.051	3.95
188.433	19.07
188.815	9.8
189.197	4.76
189.579	10.46
189.961	13.36
190.342	33.67
190.724	124.92
191.106	142.79
191.488	95.31
191.869	441.27
192.251	-586.27
192.633	-129.17
193.014	2183.33
193.396	214.58
193.777	2683.33
194.159	391.67
194.54	19.19
194.922	-129.89
195.303	-272.22
195.684	-1045.83
196.065	-247.22
196.447	123.81
196.828	88.1
197.209	-11.11
197.59	-17.42
197.971	-20.37
198.352	-28.65
198.733	-20.45
199.114	-37.35
199.495	-30.72
199.876	-85.61
200.257	-104.25
200.638	-52.78
201.018	-69.4
201.399	-733.33
201.78	-205.56
202.16	-19.05
202.541	-52.78
202.922	627.78
203.302	36.99
203.683	26.98
204.063	-13.33
204.444	21.73
204.824	42.22
205.204	58.33
205.585	98.88
205.965	98.84
206.345	82.11
206.725	136.23
207.106	147.89
207.486	167.62
207.866	167.06
208.246	135.77
208.626	167.63
209.006	151.88
209.386	339.9
209.766	440.74
210.145	337.44
210.525	358.97
210.905	266.67
211.285	309.4
211.664	347.62
212.044	344.86
212.424	351.21
212.803	156.55
213.183	258.97
213.562	274.36
213.942	236.57
214.321	419.44
214.701	179.6
215.08	139.55
215.459	125.82
215.838	125.16
216.218	29.82
216.597	64.99
216.976	53.55
217.355	21.82
217.734	33.88
218.113	37.28
218.492	59.84
218.871	73.96
219.25	67.05
219.629	61.22
220.008	59.23
220.387	64.37
220.766	89.04
221.144	70.49
221.523	52.38
221.902	67.57
222.28	43.59
222.659	57.02
223.037	52.38
223.416	41.03
223.794	43.72
224.173	57.61
224.551	52.18
224.929	41.03
225.308	47.42
225.686	26.22
226.064	12.77
226.442	7.11
226.821	3.66
227.199	2.44
227.577	5.64
227.955	8.29
228.333	2.26
228.711	0.23
229.089	-0.44
229.467	-3.37
229.845	-4.57
230.222	0.25
230.6	-1.69
230.978	2.58
231.356	3.82
231.733	2.55
232.111	0.85
232.488	-0.3
232.866	4.19
233.243	4.57
233.621	7.92
233.998	9.17
234.376	8.74
234.753	7.62
235.13	6.89
235.508	5.77
235.885	4.88
236.262	4.91
236.639	3.06
237.016	2.49
237.393	4.75
237.77	5.89
238.147	4.67
238.524	4.68
238.901	3.01
239.278	2.52
239.655	2.46
240.032	2.08
240.409	2.37
240.785	1.59
241.162	1.39
241.539	1.64
241.915	1.3
242.292	1.64
242.668	2.31
243.045	2.78
243.421	2.91
243.798	3.38
244.174	3.43
244.551	3.94
244.927	3.91
245.303	3.91
245.679	3.54
246.056	3.8
246.432	3.67
246.808	3.86
247.184	4.01
247.56	3.95
247.936	4.02
248.312	4.07
248.688	4.2
249.064	4.02
249.44	3.6
249.815	4.03
250.191	4.14
250.567	3.84
250.943	3.73
251.318	3.71
251.694	3.16
252.069	3.55
252.445	3.27
252.82	3.28
253.196	3.18
253.571	3.44
253.947	3.18
254.322	2.88
254.697	2.93
255.073	3.04
255.448	3.21
255.823	3.31
256.198	3.23
256.573	3.23
256.948	3.53
257.323	3.82
257.698	3.54
258.073	3.54
258.448	3.67
258.823	3.42
259.198	3.42
259.573	3.45
259.948	3.3
260.322	3.49
260.697	3.49
261.072	3.39
261.446	3.22
261.821	3.06
262.195	3.23
262.57	3.3
262.944	3.15
263.319	3.1
263.693	3.08
264.067	3.25
264.442	3.19
264.816	3.03
265.19	2.85
265.564	2.91
265.938	2.73
266.313	2.54
266.687	2.68
267.061	2.48
267.435	2.68
267.809	2.57
268.183	2.47
268.556	2.51
268.93	2.71
269.304	2.68
269.678	2.88
270.051	2.93
270.425	2.76
270.799	2.91
271.172	2.86
271.546	3.02
271.919	2.91
272.293	2.93
272.666	2.9
273.04	3.08
273.413	2.95
273.787	3.05
274.16	3.15
274.533	3.19
274.906	3.23
275.279	3.29
275.653	3.37
276.026	3.44
276.399	3.45
276.772	3.25
277.145	3.34
277.518	3.27
277.891	3.29
278.263	3.2
278.636	3.17
279.009	3.42
279.382	3.18
279.755	3.38
280.127	3.44
280.5	3.41
280.872	3.21
281.245	3.35
281.617	3.45
281.99	3.48
282.362	3.37
282.735	3.48
283.107	3.22
283.479	3.42
283.852	3.28
284.224	3.05
284.596	3.22
284.968	3.12
285.34	3.12
285.713	3.09
286.085	3.18
286.457	3.2
286.829	3
287.201	2.99
287.572	2.85
287.944	2.84
288.316	2.86
288.688	2.97
289.06	2.82
289.431	2.77
289.803	2.87
290.175	2.94
290.546	2.78
290.918	2.82
291.289	2.57
291.661	2.72
292.032	3.02
292.403	2.99
292.775	3.23
293.146	3.33
293.517	3.46
293.889	3.45
294.26	3.34
294.631	3.47
295.002	3.64
295.373	3.58
295.744	3.65
296.115	3.82
296.486	3.92
296.857	3.98
297.228	3.88
297.599	3.82
297.97	3.83
298.34	4.09
298.711	4.28
299.082	4.34
299.452	4.35
299.823	4.29
300.194	4.4
300.564	4.33
300.935	4.37
301.305	4.23
301.676	4.21
302.046	4.32
302.416	4.27
302.787	4.27
303.157	4.51
303.527	4.6
303.897	4.57
304.267	4.52
304.637	4.76
305.008	4.98
305.378	4.98
305.748	4.97
306.117	4.86
306.487	4.79
306.857	4.82
307.227	4.9
307.597	4.98
307.967	4.81
308.336	4.9
308.706	4.83
309.076	4.94
309.445	5.06
309.815	5.31
310.184	5.4
310.554	5.46
310.923	5.4
311.293	5.48
311.662	5.5
312.031	5.52
312.401	5.35
312.77	5.32
313.139	5.35
313.508	5.69
313.877	5.74
314.246	5.85
314.616	6.06
314.985	5.99
315.353	6.04
315.722	6.43
316.091	6.43
316.46	6.61
316.829	6.83
317.198	6.91
317.567	6.72
317.935	6.91
318.304	7.01
318.672	6.98
319.041	6.94
319.41	7.07
319.778	7.16
320.147	7.45
320.515	7.55
320.883	7.61
321.252	7.44
321.62	7.66
321.988	7.68
322.357	7.56
322.725	7.69
323.093	7.59
323.461	7.44
323.829	7.66
324.197	7.66
324.565	7.67
324.933	7.85
325.301	7.92
325.669	7.74
326.037	7.71
326.405	7.6
326.772	7.7
327.14	7.7
327.508	7.68
327.875	7.73
328.243	7.82
328.61	7.88
328.978	7.91
329.346	7.85
329.713	7.94
330.08	8.05
330.448	7.89
330.815	8.01
331.182	7.93
331.55	7.86
331.917	7.68
332.284	7.78
332.651	7.61
333.018	7.58
333.385	7.6
333.752	7.64
334.119	8
334.486	7.83
334.853	7.76
335.22	7.81
335.587	7.84
335.954	7.63
336.32	7.67
336.687	7.68
337.054	7.74
337.42	7.69
337.787	7.67
338.153	7.88
338.52	7.92
338.886	7.94
339.253	7.95
339.619	8.16
339.986	7.91
340.352	7.93
340.718	8.02
341.084	8.13
341.451	8.21
341.817	8.11
342.183	8.29
342.549	8.55
342.915	8.74
343.281	8.78
343.647	8.94
344.013	8.91
344.379	8.91
344.745	8.9
345.11	8.96
345.476	9.07
345.842	9.17
346.208	9.21
346.573	9.34
346.939	9.35
347.304	9.3
347.67	9.39
348.035	9.44
348.401	9.5
348.766	9.52
349.132	9.55
349.497	9.61
349.862	9.72
350.228	9.67
350.593	9.58
350.958	9.55
351.323	9.58
351.688	9.67
352.053	9.71
352.418	9.77
352.783	9.74
353.148	9.7
353.513	9.57
353.878	9.51
354.243	9.38
354.608	9.38
354.972	9.43
355.337	9.52
355.702	9.46
356.066	9.47
356.431	9.54
356.795	9.47
357.16	9.45
357.524	9.38
357.889	9.33
358.253	9.34
358.618	9.32
358.982	9.3
359.346	9.32
359.71	9.26
360.075	9.3
360.439	9.33
360.803	9.37
361.167	9.47
361.531	9.5
361.895	9.54
362.259	9.57
362.623	9.52
362.987	9.45
363.351	9.49
363.714	9.36
364.078	9.36
364.442	9.36
364.806	9.37
365.169	9.29
365.533	9.27
365.896	9.15
366.26	9.16
366.623	9.08
366.987	9.03
367.35	9.11
367.714	9.04
368.077	9.05
368.44	8.97
368.803	8.81
369.167	8.79
369.53	8.78
369.893	8.72
370.256	8.7
370.619	8.65
370.982	8.51
371.345	8.56
371.708	8.47
372.071	8.45
372.434	8.36
372.797	8.33
373.159	8.29
373.522	8.25
373.885	8.14
374.247	8.18
374.61	8.1
374.973	8.02
375.335	7.95
375.698	7.75
376.06	7.69
376.423	7.62
376.785	7.5
377.147	7.39
377.51	7.32
377.872	7.28
378.234	7.29
378.596	7.37
378.958	7.29
379.321	7.21
379.683	7.2
380.045	7.16
380.407	7.16
380.769	6.99
381.13	6.96
381.492	6.94
381.854	6.86
382.216	6.8
382.578	6.77
382.939	6.72
383.301	6.74
383.663	6.72
384.024	6.72
384.386	6.74
384.747	6.69
385.109	6.7
385.47	6.67
385.832	6.64
386.193	6.51
386.554	6.47
386.916	6.46
387.277	6.37
387.638	6.34
387.999	6.27
388.36	6.31
388.721	6.33
389.082	6.3
389.443	6.27
389.804	6.24
390.165	6.18
390.526	6.16
390.887	6.17
391.248	6.1
391.609	6.09
391.969	6.03
392.33	6
392.691	5.91
393.051	5.88
393.412	5.82
393.772	5.8
394.133	5.76
394.493	5.71
394.854	5.69
395.214	5.62
395.574	5.58
395.935	5.52
396.295	5.49
396.655	5.41
397.015	5.38
397.376	5.36
397.736	5.31
398.096	5.26
398.456	5.18
398.816	5.18
399.176	5.08
399.535	4.99
399.895	4.96
400.255	4.97
400.615	4.94
400.975	4.89
401.334	4.88
401.694	4.81
402.054	4.8
402.413	4.74
402.773	4.71
403.132	4.71
403.492	4.71
403.851	4.64
404.211	4.66
404.57	4.65
404.929	4.64
405.288	4.62
405.648	4.57
406.007	4.54
406.366	4.5
406.725	4.53
407.084	4.59
407.443	4.57
407.802	4.51
408.161	4.46
408.52	4.43
408.879	4.42
409.238	4.45
409.596	4.44
409.955	4.47
410.314	4.48
410.673	4.45
411.031	4.38
411.39	4.39
411.748	4.38
412.107	4.32
412.465	4.25
412.824	4.23
413.182	4.27
413.54	4.29
413.899	4.29
414.257	4.25
414.615	4.22
414.974	4.25
415.332	4.27
415.69	4.27
416.048	4.25
416.406	4.19
416.764	4.16
417.122	4.13
417.48	4.09
417.838	4.06
418.195	4.05
418.553	4.04
418.911	4.03
419.269	4.01
419.626	3.99
419.984	3.96
420.342	3.94
420.699	3.89
421.057	3.85
421.414	3.82
421.772	3.8
422.129	3.77
422.486	3.73
422.844	3.7
423.201	3.69
423.558	3.68
423.915	3.68
424.273	3.67
424.63	3.66
424.987	3.65
425.344	3.65
425.701	3.64
426.058	3.64
426.415	3.61
426.772	3.59
427.128	3.57
427.485	3.59
427.842	3.59
428.199	3.58
428.555	3.59
428.912	3.58
429.269	3.59
429.625	3.59
429.982	3.59
430.338	3.59
430.695	3.59
431.051	3.6
431.407	3.61
431.764	3.59
432.12	3.6
432.476	3.63
432.832	3.62
433.189	3.6
433.545	3.58
433.901	3.59
434.257	3.59
434.613	3.6
434.969	3.6
435.325	3.6
435.681	3.61
436.036	3.62
436.392	3.62
436.748	3.62
437.104	3.63
437.459	3.64
437.815	3.64
438.171	3.64
438.526	3.62
438.882	3.63
439.237	3.64
439.593	3.63
439.948	3.6
440.304	3.61
440.659	3.63
441.014	3.63
441.369	3.64
441.725	3.65
442.08	3.65
442.435	3.65
442.79	3.64
443.145	3.64
443.5	3.64
443.855	3.63
444.21	3.62
444.565	3.61
444.92	3.62
445.275	3.6
445.629	3.58
445.984	3.57
446.339	3.55
446.693	3.55
447.048	3.52
447.403	3.51
447.757	3.5
448.112	3.47
448.466	3.45
448.82	3.44
449.175	3.44
449.529	3.44
449.883	3.41
450.238	3.4
450.592	3.39
450.946	3.37
451.3	3.37
451.654	3.37
452.008	3.36
452.362	3.35
452.716	3.35
453.07	3.34
453.424	3.36
453.778	3.34
454.132	3.32
454.486	3.33
454.839	3.35
455.193	3.34
455.547	3.34
455.9	3.37
456.254	3.37
456.607	3.35
456.961	3.36
457.314	3.37
457.668	3.37
458.021	3.38
458.375	3.36
458.728	3.37
459.081	3.36
459.434	3.35
459.787	3.37
460.141	3.38
460.494	3.4
460.847	3.41
461.2	3.43
461.553	3.45
461.906	3.46
462.259	3.45
462.611	3.45
462.964	3.47
463.317	3.48
463.67	3.5
464.022	3.53
464.375	3.5
464.728	3.5
465.08	3.52
465.433	3.53
465.785	3.57
466.138	3.58
466.49	3.6
466.843	3.62
467.195	3.62
467.547	3.63
467.899	3.64
468.252	3.66
468.604	3.68
468.956	3.69
469.308	3.7
469.66	3.71
470.012	3.73
470.364	3.76
470.716	3.77
471.068	3.76
471.42	3.78
471.772	3.82
472.123	3.86
472.475	3.88
472.827	3.88
473.178	3.89
473.53	3.91
473.882	3.93
474.233	3.95
474.585	3.96
474.936	3.97
475.288	3.96
475.639	3.98
475.99	3.96
476.342	3.99
476.693	4
477.044	4.01
477.395	4
477.746	4
478.097	4
478.448	3.99
478.8	3.95
479.15	3.94
479.501	3.91
479.852	3.89
480.203	3.86
480.554	3.85
480.905	3.82
481.255	3.8
481.606	3.77
481.957	3.75
482.307	3.74
482.658	3.73
483.009	3.72
483.359	3.71
483.709	3.69
484.06	3.69
484.41	3.69
484.761	3.69
485.111	3.68
485.461	3.67
485.811	3.66
486.162	3.66
486.512	3.66
486.862	3.66
487.212	3.66
487.562	3.66
487.912	3.65
488.262	3.67
488.612	3.68
488.961	3.68
489.311	3.7
489.661	3.7
490.011	3.7
490.36	3.7
490.71	3.71
491.06	3.73
491.409	3.74
491.759	3.73
492.108	3.74
492.458	3.74
492.807	3.75
493.157	3.78
493.506	3.81
493.855	3.85
494.204	3.86
494.554	3.88
494.903	3.91
495.252	3.94
495.601	3.96
495.95	4
496.299	4.04
496.648	4.09
496.997	4.14
497.346	4.21
497.695	4.27
498.043	4.33
498.392	4.38
498.741	4.41
499.09	4.5
499.438	4.58
499.787	4.65
500.135	4.71
500.484	4.78
500.832	4.85
501.181	4.93
501.529	5.06
501.878	5.17
502.226	5.3
502.574	5.42
502.923	5.52
503.271	5.62
503.619	5.76
503.967	5.89
504.315	6.02
504.663	6.16
505.011	6.32
505.359	6.48
505.707	6.64
506.055	6.82
506.403	7.01
506.751	7.15
507.098	7.34
507.446	7.54
507.794	7.71
508.141	7.9
508.489	8.11
508.837	8.27
509.184	8.44
509.531	8.61
509.879	8.81
510.226	9
510.574	9.22
510.921	9.41
511.268	9.62
511.616	9.85
511.963	10.07
512.31	10.28
512.657	10.49
513.004	10.72
513.351	10.95
513.698	11.21
514.045	11.49
514.392	11.76
514.739	12.04
515.086	12.31
515.432	12.61
515.779	12.87
516.126	13.17
516.473	13.46
516.819	13.74
517.166	13.99
517.512	14.23
517.859	14.45
518.205	14.69
518.552	14.89
518.898	15.1
519.245	15.31
519.591	15.54
519.937	15.78
520.283	16.03
520.629	16.29
520.976	16.54
521.322	16.81
521.668	17.1
522.014	17.34
522.36	17.66
522.706	17.91
523.052	18.23
523.398	18.51
523.743	18.87
524.089	19.2
524.435	19.48
524.781	19.79
525.126	20.07
525.472	20.35
525.817	20.6
526.163	20.84
526.509	21.06
526.854	21.25
527.199	21.45
527.545	21.65
527.89	21.85
528.235	22.03
528.581	22.22
528.926	22.39
529.271	22.6
529.616	22.78
529.961	22.98
530.306	23.16
530.651	23.4
530.996	23.61
531.341	23.82
531.686	24.08
532.031	24.33
532.376	24.61
532.721	24.84
533.065	25.11
533.41	25.35
533.755	25.64
534.099	25.93
534.444	26.19
534.788	26.43
535.133	26.68
535.477	26.95
535.822	27.22
536.166	27.53
536.51	27.81
536.855	28.13
537.199	28.45
537.543	28.79
537.887	29.11
538.231	29.41
538.576	29.74
538.92	30.03
539.264	30.33
539.608	30.57
539.951	30.87
540.295	31.11
540.639	31.4
540.983	31.62
541.327	31.86
541.671	32.1
542.014	32.34
542.358	32.57
542.701	32.77
543.045	33.03
543.389	33.22
543.732	33.45
544.075	33.67
544.419	33.94
544.762	34.18
545.105	34.4
545.449	34.69
545.792	34.96
546.135	35.25
546.478	35.54
546.821	35.88
547.165	36.14
547.508	36.42
547.851	36.68
548.194	36.99
548.536	37.26
548.879	37.56
549.222	37.81
549.565	38.08
549.908	38.37
550.25	38.59
550.593	38.88
550.936	39.19
551.278	39.47
551.621	39.68
551.963	39.95
552.306	40.2
552.648	40.43
552.991	40.68
553.333	40.92
553.675	41.16
554.017	41.37
554.36	41.57
554.702	41.8
555.044	42.01
555.386	42.16
555.728	42.35
556.07	42.59
556.412	42.86
556.754	43.06
557.096	43.32
557.438	43.56
557.78	43.8
558.121	44.06
558.463	44.22
558.805	44.44
559.147	44.67
559.488	44.82
559.83	45
560.171	45.23
560.513	45.4
560.854	45.48
561.196	45.64
561.537	45.87
561.878	46.1
562.22	46.32
562.561	46.51
562.902	46.72
563.243	46.82
563.584	46.98
563.925	47.17
564.266	47.28
564.607	47.4
564.948	47.53
565.289	47.67
565.63	47.86
565.971	47.99
566.312	48.12
566.653	48.24
566.993	48.41
567.334	48.52
567.675	48.66
568.015	48.82
568.356	48.93
568.696	48.98
569.037	49.07
569.377	49.14
569.718	49.24
570.058	49.36
570.398	49.53
570.739	49.62
571.079	49.65
571.419	49.79
571.759	49.87
572.099	49.99
572.439	50.01
572.779	50.12
573.119	50.23
573.459	50.33
573.799	50.48
574.139	50.58
574.479	50.71
574.819	50.85
575.158	50.92
575.498	51.03
575.838	51.21
576.177	51.38
576.517	51.58
576.856	51.7
577.196	51.77
577.535	51.87
577.875	51.99
578.214	52.17
578.553	52.26
578.893	52.4
579.232	52.5
579.571	52.7
579.91	52.72
580.25	52.89
580.589	52.95
580.928	53.04
581.267	53.11
581.606	53.27
581.945	53.26
582.283	53.32
582.622	53.41
582.961	53.45
583.3	53.47
583.639	53.48
583.977	53.62
584.316	53.77
584.654	53.87
584.993	53.91
585.332	54.04
585.67	54.11
586.008	54.19
586.347	54.34
586.685	54.37
587.024	54.51
587.362	54.49
587.7	54.61
588.038	54.68
588.376	54.71
588.715	54.67
589.053	54.77
589.391	54.89
589.729	55.03
590.067	55.09
590.404	55.04
590.742	55.13
591.08	55.12
591.418	55.13
591.756	55.1
592.093	55.18
592.431	55.21
592.769	55.31
593.106	55.39
593.444	55.32
593.781	55.41
594.119	55.42
594.456	55.55
594.793	55.54
595.131	55.57
595.468	55.68
595.805	55.68
596.143	55.7
596.48	55.72
596.817	55.73
597.154	55.77
597.491	55.92
597.828	55.89
598.165	55.98
598.502	56.05
598.839	56.16
599.176	56.19
599.512	56.2
599.849	56.3
600.186	56.28
600.523	56.4
600.859	56.41
601.196	56.48
601.532	56.48
601.869	56.48
602.205	56.59
602.542	56.64
602.878	56.71
603.215	56.85
603.551	57.01
603.887	57.06
604.223	57.1
604.56	57.1
604.896	57.11
605.232	57.1
605.568	57.17
605.904	57.16
606.24	57.16
606.576	57.17
606.912	57.15
607.248	57.18
607.583	57.18
607.919	57.24
608.255	57.29
608.591	57.37
608.926	57.52
609.262	57.51
609.597	57.44
609.933	57.52
610.268	57.43
610.604	57.42
610.939	57.41
611.275	57.4
611.61	57.48
611.945	57.5
612.281	57.55
612.616	57.51
612.951	57.6
613.286	57.72
613.621	57.89
613.956	57.92
614.291	58
614.626	58.13
614.961	58.22
615.296	58.18
615.631	58.24
615.966	58.16
616.3	58.11
616.635	58.1
616.97	58.05
617.304	58.27
617.639	58.16
617.973	58.12
618.308	58.25
618.642	58.24
618.977	58.32
619.311	58.39
619.646	58.48
619.98	58.52
620.314	58.53
620.648	58.49
620.983	58.42
621.317	58.53
621.651	58.56
621.985	58.44
622.319	58.51
622.653	58.36
622.987	58.46
623.321	58.59
623.655	58.67
623.988	58.74
624.322	58.58
624.656	58.69
624.99	58.7
625.323	58.71
625.657	58.72
625.99	58.8
626.324	58.8
626.657	58.78
626.991	58.82
627.324	58.73
627.658	58.75
627.991	58.94
628.324	58.84
628.657	58.74
628.991	58.76
629.324	58.69
629.657	58.83
629.99	58.79
630.323	58.81
630.656	58.82
630.989	58.81
631.322	58.9
631.655	58.96
631.987	59.1
632.32	59.05
632.653	59.07
632.986	59.01
633.318	59.03
633.651	59.12
633.984	59.1
634.316	59.14
634.649	59.19
634.981	59.16
635.313	59.27
635.646	59.28
635.978	59.35
636.31	59.49
636.643	59.52
636.975	59.59
637.307	59.64
637.639	59.68
637.971	59.69
638.303	59.68
638.635	59.6
638.967	59.59
639.299	59.65
639.631	59.69
639.963	59.64
640.295	59.64
640.626	59.68
640.958	59.64
641.29	59.7
641.621	59.61
641.953	59.61
642.285	59.58
642.616	59.81
642.948	59.83
643.279	59.78
643.61	59.79
643.942	59.76
644.273	59.78
644.604	59.89
644.936	59.95
645.267	60.01
645.598	59.99
645.929	60.02
646.26	60.05
646.591	60.16
646.922	60.29
647.253	60.25
647.584	60.17
647.915	60.27
648.245	60.27
648.576	60.24
648.907	60.23
649.238	60.19
649.568	60.11
649.899	60.39
650.229	60.51
650.56	60.45
650.89	60.46
651.221	60.34
651.551	60.36
651.882	60.41
652.212	60.41
652.542	60.6
652.872	60.62
653.203	60.6
653.533	60.54
653.863	60.55
654.193	60.64
654.523	60.65
654.853	60.67
655.183	60.74
655.513	60.88
655.843	60.84
656.172	61.04
656.502	61.01
656.832	60.75
657.162	60.67
657.491	60.69
657.821	60.73
658.15	60.71
658.48	60.67
658.809	60.66
659.139	60.66
659.468	60.54
659.798	60.45
660.127	60.51
660.456	60.49
660.785	60.51
661.115	60.55
661.444	60.51
661.773	60.46
662.102	60.33
662.431	60.3
662.76	60.32
663.089	60.18
663.418	60.19
663.747	60.39
664.076	60.39
664.404	60.46
664.733	60.37
665.062	60.54
665.39	60.57
665.719	60.65
666.048	60.52
666.376	60.52
666.705	60.54
667.033	60.67
667.362	60.69
667.69	60.7
668.018	60.66
668.347	60.65
668.675	60.65
669.003	60.64
669.331	60.75
669.659	60.76
669.987	60.95
670.315	61.11
670.643	61.06
670.971	61.17
671.299	60.98
671.627	61.13
671.955	61.19
672.283	61.26
672.61	61.06
672.938	61.27
673.266	61.33
673.593	61.37
673.921	61.29
674.249	61.26
674.576	61.18
674.904	61.01
675.231	61.07
675.558	60.92
675.886	61.02
676.213	60.87
676.54	60.89
676.867	60.7
677.195	60.65
677.522	60.63
677.849	60.51
678.176	60.65
678.503	60.47
678.83	60.49
679.157	60.52
679.484	60.72
679.81	60.65
680.137	60.63
680.464	60.69
680.791	60.75
681.117	60.66
681.444	60.65
681.771	60.7
682.097	60.81
682.424	61.1
682.75	61.11
683.077	61.24
683.403	61.27
683.729	61.36
684.056	61.39
684.382	61.33
684.708	61.32
685.034	61.23
685.36	61.33
685.686	61.26
686.012	61.02
686.339	60.89
686.664	60.93
686.99	60.97
687.316	61.07
687.642	61.08
687.968	61.29
688.294	61.42
688.619	61.63
688.945	61.69
689.271	61.65
689.596	61.72
689.922	61.68
690.247	61.63
690.573	61.62
690.898	61.48
691.224	61.57
691.549	61.72
691.874	61.99
692.2	62.08
692.525	62.14
692.85	62.24
693.175	62.13
693.5	61.9
693.825	61.99
694.15	61.63
694.475	61.67
694.8	61.7
695.125	61.5
695.45	61.4
695.775	61.17
696.099	61.15
696.424	61.09
696.749	60.95
697.073	61.03
697.398	61
697.723	61.1
698.047	61.23
698.372	61.18
698.696	61.3
699.02	61.19
699.345	61.1
699.669	61.04
699.993	61.18
700.318	61.43
700.642	61.32
700.966	61.53
701.29	61.29
701.614	61.17
701.938	61.29
702.262	61.33
702.586	61.67
702.91	61.63
703.234	61.72
703.557	61.88
703.881	62
704.205	62.05
704.529	61.91
704.852	61.71
705.176	61.83
705.499	61.49
705.823	61.56
706.146	61.31
706.47	61.5
706.793	61.6
707.117	61.32
707.44	61.27
707.763	61.15
708.086	61.1
708.409	61.1
708.733	61.07
709.056	61.32
709.379	61.19
709.702	61.4
710.025	61.4
710.348	61.39
710.671	61.15
710.993	61.01
711.316	61.13
711.639	61.02
711.962	61.11
712.284	61.23
712.607	61.21
712.93	61.43
713.252	61.41
713.575	61.3
713.897	61.51
714.22	61.49
714.542	61.59
714.864	61.97
715.187	62.3
715.509	62.46
715.831	62.28
716.153	62.18
716.475	61.96
716.798	61.93
717.12	61.9
717.442	61.82
717.764	62.05
718.085	61.99
718.407	62.22
718.729	61.96
719.051	61.9
719.373	62
719.695	62.18
720.016	62.22
720.338	62.14
720.659	62.11
720.981	62.36
721.302	62.61
721.624	62.44
721.945	62.3
722.267	62.24
722.588	62.14
722.909	62.22
723.231	62.31
723.552	62.41
723.873	62.43
724.194	62.84
724.515	62.65
724.836	62.57
725.157	62.57
725.478	62.69
725.799	62.9
726.12	62.75
726.441	62.84
726.762	62.87
727.083	63.05
727.403	62.99
727.724	62.85
728.045	62.74
728.365	62.63
728.686	62.37
729.006	62.47
729.327	62.44
729.647	62.34
729.967	62.31
730.288	62.41
730.608	62.53
730.928	62.48
731.249	62.72
731.569	62.75
731.889	62.64
732.209	62.51
732.529	62.36
732.849	62.34
733.169	62.29
733.489	62.13
733.809	62.06
734.129	62.28
734.448	62.49
734.768	62.29
735.088	62.61
735.408	62.74
735.727	62.56
736.047	62.79
736.366	62.77
736.686	62.69
737.005	62.76
737.325	62.76
737.644	62.51
737.963	62.5
738.283	62.55
738.602	62.83
738.921	63.26
739.24	63.18
739.56	63.4
739.879	63.48
740.198	63.7
740.517	63.74
740.836	63.49
741.155	63.46
741.473	63.6
741.792	63.21
742.111	63.14
742.43	63.6
742.748	63.54
743.067	63.68
743.386	63.92
743.704	63.69
744.023	63.73
744.341	63.91
744.66	63.62
744.978	63.57
745.297	63.4
745.615	63.35
745.933	63.78
746.252	63.58
746.57	63.45
746.888	63.2
747.206	62.93
747.524	62.98
747.842	62.95
748.16	63.28
748.478	63.45
748.796	63.34
749.114	62.96
749.432	62.83
749.749	62.76
750.067	62.65
750.385	62.75
750.703	62.55
751.02	62.96
751.338	62.85
751.655	62.77
751.973	62.77
752.29	62.48
752.608	62.3
752.925	62.49
753.242	62.6
753.56	62.67
753.877	63.26
754.194	62.97
754.511	63.13
754.828	62.8
755.145	62.78
755.462	63.1
755.779	62.92
756.096	62.85
756.413	63
756.73	63
757.047	62.49
757.364	62.86
757.68	62.68
757.997	62.9
758.314	62.96
758.63	62.42
758.947	62.8
759.264	62.74
759.58	63.04
759.896	62.64
760.213	62.37
760.529	61.85
760.846	62.11
761.162	62.15
761.478	62
761.794	61.88
762.11	61.62
762.426	61.92
762.743	62.03
763.059	61.6
763.375	61.44
763.69	61.77
764.006	61.46
764.322	61.34
764.638	61.3
764.954	61.33
765.27	61.9
765.585	61.61
765.901	61.73
766.216	61.75
766.532	62.08
766.848	62.15
767.163	62.3
767.478	62.03
767.794	61.88
768.109	61.73
768.424	61.97
768.74	62.39
769.055	62.32
769.37	62.22
769.685	62.98
770	63.35
770.315	63.53
770.63	63.54
770.945	64.03
771.26	64.29
771.575	64.68
771.89	64.18
772.205	64.49
772.52	64.08
772.834	63.48
773.149	63.52
773.464	64.05
773.778	63.57
774.093	63.72
774.407	63.79
774.722	64.12
775.036	63.86
775.351	63.32
775.665	63.14
775.979	63.24
776.293	62.29
776.608	62.3
776.922	62.17
777.236	62.63
777.55	61.55
777.864	61.72
778.178	61.38
778.492	61.41
778.806	61.28
779.12	61.67
779.434	62.01
779.747	62.33
780.061	62.27
780.375	62.84
780.689	63.51
781.002	62.81
781.316	62.51
781.629	62.71
781.943	63.47
782.256	63.68
782.57	64.16
782.883	64.09
783.196	64.25
783.51	63.7
783.823	63.45
784.136	63.75
784.449	63.69
784.762	63.77
785.075	63.49
785.388	63.48
785.701	62.77
786.014	62.96
786.327	62.15
786.64	61.8
786.953	61.97
787.266	60.99
787.578	61.82
787.891	62.43
788.204	62.98
788.516	62.52
788.829	62.57
789.141	62.42
789.454	62.95
789.766	62.73
790.079	63.05
790.391	62.84
790.703	63.08
791.016	63.07
791.328	63.02
791.64	63.19
791.952	62.5
792.264	63.22
792.576	63.4
792.888	63.5
793.2	63.55
793.512	63.46
793.824	64
794.136	64.33
794.448	63.82
794.76	62.76
795.071	63.39
795.383	63.19
795.695	63.4
796.006	63.46
796.318	63.23
796.629	63
796.941	63.39
797.252	63.05
797.564	62.84
797.875	62.64
798.186	63.17
798.497	63.6
798.809	63.5
799.12	63.82
799.431	64.05
799.742	63.63
800.053	64.04
800.364	64.05
800.675	63.04
800.986	63.38
801.297	64.17
801.608	63.17
801.918	63.2
802.229	62.86
802.54	63.23
802.851	63.2
803.161	63.45
803.472	63.37
803.782	63.89
804.093	63.28
804.403	63.14
804.714	63
805.024	63.11
805.334	62.76
805.645	61.67
805.955	61.38
806.265	62.17
806.575	61.78
806.885	61.5
807.195	61.82
807.505	61.81
807.815	61.39
808.125	61.79
808.435	61.68
808.745	61.18
809.055	61.25
809.365	61.34
809.674	61.34
809.984	61.25
810.294	60.93
810.603	61.67
810.913	61.44
811.222	61.25
811.532	61.03
811.841	61.09
812.151	61.21
812.46	61.29
812.769	60.94
813.079	61.13
813.388	62.64
813.697	63.05
814.006	63
814.315	62.95
814.624	62.7
814.933	63.4
815.242	63.24
815.551	62.55
815.86	63.03
816.169	63.18
816.478	63.14
816.786	63.03
817.095	62.73
817.404	63.79
817.712	63.65
818.021	63.99
818.33	64.13
818.638	63.56
818.947	63.24
819.255	63.38
819.563	63.36
819.872	62.72
820.18	62.83
820.488	62.49
820.796	62.62
821.105	62.55
821.413	62.59
821.721	62.74
822.029	62.88
822.337	63.05
822.645	63.26
822.953	63.28
823.26	63.44
823.568	63.34
823.876	63.21
824.184	63.35
824.491	63.2
824.799	63.08
825.107	63.41
825.414	63.6
825.722	63.67
826.029	63.48
826.337	63.72
826.644	63.63
826.951	63.87
827.259	63.78
827.566	64.2
827.873	64.22
828.18	64.37
828.488	64.41
828.795	64.05
829.102	63.82
829.409	63.86
829.716	64
830.023	64.17
830.329	64.54
830.636	64.27
830.943	64.36
831.25	64.87
831.557	64.06
831.863	64.37
832.17	64.5
832.476	65.33
832.783	65.02
833.089	64.78
833.396	64.91
833.702	65.42
834.009	64.72
834.315	64.51
834.621	64.42
834.928	64.06
835.234	64.41
835.54	64.23
835.846	64.05
836.152	63.89
836.458	64.15
836.764	63.91
837.07	64.24
837.376	64.94
837.682	65.35
837.988	66.6
838.293	66.3
838.599	66.43
838.905	66.2
839.211	66.33
839.516	67
839.822	67.07
840.127	66.9
840.433	67.35
840.738	67.02
841.044	67.34
841.349	66.82
841.654	66.03
841.959	66.53
842.265	67
842.57	66.78
842.875	67.03
843.18	65.77
843.485	65.54
843.79	64.27
844.095	62.93
844.4	62.64
844.705	61.94
845.01	62.18
845.315	59.36
845.619	59.89
845.924	59.16
846.229	58.7
846.533	57.58
846.838	58.22
847.142	58.97
847.447	57.85
847.751	59.66
848.056	60.22
848.36	59.18
848.664	59.79
848.969	58.49
849.273	57.84
849.577	59.13
849.881	61.05
850.185	61.05
850.489	59.73
850.794	58.72
851.097	58.45
851.401	57.28
851.705	61.1
852.009	60.8
852.313	62.55
852.617	63.41
852.92	64.93
853.224	64.94
853.528	64.19
853.831	66.19
854.135	67.63
854.438	67.41
854.742	69.59
855.045	70.68
855.349	69.23
855.652	67.77
855.955	69.59
856.259	66.94
856.562	67.82
856.865	70.58
857.168	70.31
857.471	72.8
857.774	73.71
858.077	72.28
858.38	72.33
858.683	70.19
858.986	71.32
859.289	71.66
859.592	70.51
859.894	71.37
860.197	72.05
860.5	72.31
860.802	73.87
861.105	73.01
861.407	71.9
861.71	77.53
862.012	81.54
862.315	81.94
862.617	80.03
862.919	79.68
863.222	79.22
863.524	79.22
863.826	77.3
864.128	74.47
864.43	74.69
864.732	73.48
865.034	74.02
865.336	74.56
865.638	72.67
865.94	74.33
866.242	74.73
866.544	73.77
866.846	73.55
867.147	75.73
867.449	76.33
867.751	77.12
868.052	77.48
868.354	76.2
868.655	75.37
868.957	78.05
869.258	80.01
869.56	78.76
869.861	77.08
870.162	76.68
870.463	78.54
870.765	77.53
871.066	76.29
871.367	78.92
871.668	75.58
871.969	78.94
872.27	77.44
872.571	78.64
872.872	78.75
873.173	76.83
873.473	72.41
873.774	74.53
874.075	70.24
874.376	66.39
874.676	65.84
874.977	64.88
875.277	63.42
875.578	64.51
875.878	65.37
876.179	68.26
876.479	68.92
876.78	68.01
877.08	70.38
877.38	72.54
877.68	69.74
877.981	71.47
878.281	68.9
878.581	69.1
