Data from MVZ_BU8942_Reflection_00012.txt Node
Date: Tue Nov 19 12:04:11 EST 2019
User: vgr7
Spectrometer: USB2G7710
Scans to average: 3
Trigger mode: 4
Integration Time (sec): 2.000000E-2
Electric dark correction enabled: true
Boxcar width: 10
XAxis mode: Wavelengths
Number of Pixels in Spectrum: 2048
>>>>>Begin Spectral Data<<<<<
177.721	-61.12
178.105	-127.27
178.488	-745.51
178.871	1357.14
179.254	-430
179.636	65.33
180.019	186.63
180.402	163.64
180.785	47
181.168	-417.44
181.55	2225
181.933	-355.51
182.316	-254.97
182.698	-447.54
183.081	-448.56
183.463	-468.18
183.846	-166.27
184.228	-228.48
184.611	-253.73
184.993	-348.68
185.376	-226.12
185.758	-166.61
186.14	-186.17
186.522	-444.49
186.904	-273.44
187.287	-189.17
187.669	-190.79
188.051	-129.76
188.433	-94.04
188.815	-178.92
189.197	-108.44
189.579	-55.07
189.961	-119.11
190.342	-95.5
190.724	-72.17
191.106	-78.83
191.488	-45.15
191.869	-57.03
192.251	-48.37
192.633	-41.81
193.014	-33.01
193.396	-34.7
193.777	-30.26
194.159	-25.76
194.54	-15.37
194.922	-29.75
195.303	-32.73
195.684	-35.91
196.065	-55.67
196.447	-56.55
196.828	-25.48
197.209	-12.25
197.59	-15.2
197.971	2.46
198.352	12.31
198.733	2.88
199.114	11.52
199.495	-90.15
199.876	-103.87
200.257	-91.61
200.638	-36.87
201.018	-53.63
201.399	-70.69
201.78	-39.93
202.16	-64.8
202.541	-113.7
202.922	-131.95
203.302	-95.2
203.683	-135.63
204.063	-94.16
204.444	-81.76
204.824	-126.35
205.204	-105.65
205.585	-99.7
205.965	-207.36
206.345	-173.55
206.725	-81.57
207.106	-69.72
207.486	-41.62
207.866	-30.92
208.246	-33.83
208.626	-114.69
209.006	-108.89
209.386	-146.19
209.766	-206.1
210.145	-120.98
210.525	-106.08
210.905	-76.14
211.285	-57.54
211.664	-15.95
212.044	-20.44
212.424	-25.52
212.803	-26.02
213.183	-32.59
213.562	-39.03
213.942	-36.75
214.321	-27.54
214.701	-64.76
215.08	-95.5
215.459	-75.21
215.838	-49.85
216.218	-43.23
216.597	-14.32
216.976	-1.91
217.355	4.04
217.734	-49.16
218.113	-59.58
218.492	-29.28
218.871	-19.14
219.25	-42.54
219.629	-64.27
220.008	-71.51
220.387	-69.12
220.766	-56.02
221.144	-47.01
221.523	-58.05
221.902	-44.49
222.28	-42.31
222.659	-15.03
223.037	-5.34
223.416	-5.67
223.794	-15.37
224.173	-16.8
224.551	-21.1
224.929	-20.49
225.308	-21.12
225.686	-20.2
226.064	-19.46
226.442	-22.4
226.821	-23.48
227.199	-24.12
227.577	-20.4
227.955	-15.47
228.333	-15.2
228.711	-13.53
229.089	-16.09
229.467	-12.96
229.845	-12.59
230.222	-12.82
230.6	-16.56
230.978	-17.19
231.356	-17.79
231.733	-14.97
232.111	-14.23
232.488	-11.38
232.866	-10.01
233.243	-8.88
233.621	-5.46
233.998	-3.06
234.376	-3.73
234.753	-3.31
235.13	0.56
235.508	1.74
235.885	0.64
236.262	-0.31
236.639	-1.84
237.016	-1.2
237.393	0.73
237.77	1.16
238.147	2.12
238.524	2.71
238.901	2.5
239.278	2.2
239.655	2.76
240.032	2.94
240.409	3.06
240.785	2.86
241.162	2.2
241.539	2.43
241.915	1.97
242.292	2.81
242.668	3.09
243.045	2.98
243.421	2.78
243.798	2.91
244.174	3.29
244.551	3.57
244.927	3.72
245.303	3.35
245.679	3.38
246.056	3.31
246.432	3.3
246.808	3.42
247.184	3.68
247.56	3.33
247.936	3.3
248.312	3.31
248.688	3.28
249.064	3.36
249.44	3.16
249.815	3.42
250.191	3.23
250.567	3.07
250.943	2.64
251.318	2.5
251.694	2.15
252.069	1.93
252.445	1.86
252.82	1.85
253.196	2.05
253.571	2.15
253.947	1.79
254.322	1.65
254.697	1.33
255.073	0.8
255.448	0.67
255.823	0.52
256.198	0.43
256.573	0.57
256.948	0.62
257.323	0.71
257.698	0.69
258.073	0.71
258.448	0.92
258.823	1.03
259.198	1.32
259.573	1.37
259.948	1.54
260.322	1.37
260.697	1.48
261.072	1.37
261.446	1.3
261.821	1.54
262.195	1.67
262.57	1.88
262.944	2.09
263.319	2.41
263.693	2.44
264.067	2.72
264.442	2.79
264.816	2.99
265.19	2.98
265.564	2.83
265.938	2.8
266.313	2.4
266.687	2.47
267.061	2.33
267.435	2.76
267.809	2.84
268.183	3.05
268.556	2.82
268.93	3.05
269.304	3.08
269.678	3.17
270.051	3.03
270.425	2.96
270.799	2.68
271.172	2.63
271.546	2.81
271.919	2.61
272.293	2.57
272.666	2.54
273.04	2.48
273.413	2.55
273.787	2.64
274.16	2.8
274.533	2.99
274.906	3.04
275.279	2.91
275.653	2.96
276.026	2.94
276.399	3.05
276.772	2.89
277.145	2.77
277.518	2.33
277.891	2.56
278.263	2.62
278.636	2.99
279.009	2.86
279.382	2.82
279.755	2.85
280.127	2.75
280.5	2.75
280.872	3.09
281.245	3.11
281.617	3.09
281.99	3.13
282.362	3.07
282.735	2.95
283.107	2.9
283.479	2.85
283.852	2.94
284.224	2.99
284.596	3.01
284.968	3.07
285.34	3.08
285.713	2.97
286.085	2.83
286.457	2.61
286.829	2.67
287.201	2.61
287.572	2.7
287.944	2.83
288.316	2.77
288.688	2.77
289.06	2.93
289.431	3.06
289.803	3.1
290.175	2.91
290.546	3
290.918	3.06
291.289	2.97
291.661	2.89
292.032	2.87
292.403	2.86
292.775	2.93
293.146	3.11
293.517	3.15
293.889	3.18
294.26	3.39
294.631	3.43
295.002	3.48
295.373	3.43
295.744	3.47
296.115	3.49
296.486	3.44
296.857	3.32
297.228	3.15
297.599	3.29
297.97	3.62
298.34	3.51
298.711	3.57
299.082	3.67
299.452	3.7
299.823	3.58
300.194	3.64
300.564	3.49
300.935	3.6
301.305	3.56
301.676	3.58
302.046	3.54
302.416	3.36
302.787	3.47
303.157	3.49
303.527	3.47
303.897	3.43
304.267	3.4
304.637	3.52
305.008	3.56
305.378	3.44
305.748	3.23
306.117	3.37
306.487	3.29
306.857	3.28
307.227	3.46
307.597	3.56
307.967	3.61
308.336	3.73
308.706	3.72
309.076	3.81
309.445	3.98
309.815	3.94
310.184	4.13
310.554	4.15
310.923	4.08
311.293	4.04
311.662	4.21
312.031	4.19
312.401	4.02
312.77	4.08
313.139	4.13
313.508	4.14
313.877	4.13
314.246	4.05
314.616	4.05
314.985	3.89
315.353	3.87
315.722	3.92
316.091	4.05
316.46	3.98
316.829	3.97
317.198	4.11
317.567	4.32
317.935	4.32
318.304	4.35
318.672	4.44
319.041	4.56
319.41	4.48
319.778	4.49
320.147	4.72
320.515	4.72
320.883	4.75
321.252	4.95
321.62	5.05
321.988	5.29
322.357	5.35
322.725	5.62
323.093	5.81
323.461	5.71
323.829	5.53
324.197	5.59
324.565	5.56
324.933	5.44
325.301	5.19
325.669	5.25
326.037	5.24
326.405	5.2
326.772	5.17
327.14	5.35
327.508	5.48
327.875	5.46
328.243	5.54
328.61	5.52
328.978	5.5
329.346	5.48
329.713	5.57
330.08	5.56
330.448	5.38
330.815	5.41
331.182	5.62
331.55	5.88
331.917	5.95
332.284	6.09
332.651	6.11
333.018	6.32
333.385	6.36
333.752	6.38
334.119	6.5
334.486	6.52
334.853	6.39
335.22	6.33
335.587	6.34
335.954	6.28
336.32	6.28
336.687	6.29
337.054	6.31
337.42	6.14
337.787	6.16
338.153	6.25
338.52	6.34
338.886	6.27
339.253	6.13
339.619	6.23
339.986	6.21
340.352	6.24
340.718	6.3
341.084	6.25
341.451	6.25
341.817	6.36
342.183	6.43
342.549	6.48
342.915	6.51
343.281	6.5
343.647	6.61
344.013	6.7
344.379	6.74
344.745	6.79
345.11	6.85
345.476	7.02
345.842	7.02
346.208	6.94
346.573	6.94
346.939	7.07
347.304	7.07
347.67	7.14
348.035	7.14
348.401	7.17
348.766	7.16
349.132	7.3
349.497	7.19
349.862	7.17
350.228	7.23
350.593	7.38
350.958	7.49
351.323	7.54
351.688	7.51
352.053	7.55
352.418	7.59
352.783	7.59
353.148	7.48
353.513	7.4
353.878	7.25
354.243	7.25
354.608	7.36
354.972	7.46
355.337	7.49
355.702	7.52
356.066	7.43
356.431	7.47
356.795	7.39
357.16	7.4
357.524	7.44
357.889	7.45
358.253	7.37
358.618	7.33
358.982	7.24
359.346	7.26
359.71	7.21
360.075	7.21
360.439	7.21
360.803	7.27
361.167	7.24
361.531	7.32
361.895	7.31
362.259	7.23
362.623	7.11
362.987	7.11
363.351	7.07
363.714	7.08
364.078	7.1
364.442	7.03
364.806	7.06
365.169	6.95
365.533	6.88
365.896	6.9
366.26	6.88
366.623	6.79
366.987	6.78
367.35	6.82
367.714	6.76
368.077	6.76
368.44	6.72
368.803	6.73
369.167	6.66
369.53	6.63
369.893	6.64
370.256	6.62
370.619	6.53
370.982	6.45
371.345	6.52
371.708	6.44
372.071	6.41
372.434	6.41
372.797	6.42
373.159	6.42
373.522	6.31
373.885	6.29
374.247	6.38
374.61	6.3
374.973	6.3
375.335	6.3
375.698	6.21
376.06	6.12
376.423	6.12
376.785	6.13
377.147	6.1
377.51	6.03
377.872	6.02
378.234	5.97
378.596	5.98
378.958	5.9
379.321	5.86
379.683	5.89
380.045	5.75
380.407	5.77
380.769	5.73
381.13	5.66
381.492	5.59
381.854	5.54
382.216	5.53
382.578	5.43
382.939	5.42
383.301	5.44
383.663	5.44
384.024	5.43
384.386	5.41
384.747	5.39
385.109	5.27
385.47	5.23
385.832	5.22
386.193	5.19
386.554	5.12
386.916	5.12
387.277	5.08
387.638	5.11
387.999	5.06
388.36	5.03
388.721	5.05
389.082	5.02
389.443	5
389.804	4.99
390.165	5.05
390.526	5
390.887	4.95
391.248	4.93
391.609	4.91
391.969	4.88
392.33	4.85
392.691	4.93
393.051	4.91
393.412	4.86
393.772	4.81
394.133	4.79
394.493	4.75
394.854	4.73
395.214	4.66
395.574	4.61
395.935	4.61
396.295	4.61
396.655	4.59
397.015	4.62
397.376	4.58
397.736	4.46
398.096	4.45
398.456	4.48
398.816	4.48
399.176	4.43
399.535	4.42
399.895	4.39
400.255	4.34
400.615	4.29
400.975	4.29
401.334	4.3
401.694	4.29
402.054	4.28
402.413	4.26
402.773	4.26
403.132	4.24
403.492	4.21
403.851	4.23
404.211	4.22
404.57	4.18
404.929	4.16
405.288	4.15
405.648	4.15
406.007	4.1
406.366	4.07
406.725	4.08
407.084	4.06
407.443	4.06
407.802	4.07
408.161	4.07
408.52	4.04
408.879	4.03
409.238	4.01
409.596	4.03
409.955	4.03
410.314	4.02
410.673	4.06
411.031	4.04
411.39	4.02
411.748	4.01
412.107	3.99
412.465	3.95
412.824	3.94
413.182	3.9
413.54	3.93
413.899	3.9
414.257	3.9
414.615	3.88
414.974	3.91
415.332	3.89
415.69	3.88
416.048	3.9
416.406	3.86
416.764	3.87
417.122	3.84
417.48	3.82
417.838	3.82
418.195	3.78
418.553	3.77
418.911	3.73
419.269	3.73
419.626	3.71
419.984	3.69
420.342	3.69
420.699	3.68
421.057	3.66
421.414	3.66
421.772	3.64
422.129	3.62
422.486	3.6
422.844	3.58
423.201	3.57
423.558	3.55
423.915	3.54
424.273	3.54
424.63	3.54
424.987	3.54
425.344	3.52
425.701	3.52
426.058	3.51
426.415	3.49
426.772	3.47
427.128	3.47
427.485	3.49
427.842	3.47
428.199	3.47
428.555	3.46
428.912	3.45
429.269	3.43
429.625	3.43
429.982	3.42
430.338	3.42
430.695	3.38
431.051	3.4
431.407	3.39
431.764	3.37
432.12	3.37
432.476	3.36
432.832	3.35
433.189	3.34
433.545	3.32
433.901	3.32
434.257	3.33
434.613	3.32
434.969	3.3
435.325	3.29
435.681	3.29
436.036	3.3
436.392	3.3
436.748	3.3
437.104	3.31
437.459	3.31
437.815	3.31
438.171	3.34
438.526	3.32
438.882	3.33
439.237	3.35
439.593	3.36
439.948	3.37
440.304	3.37
440.659	3.39
441.014	3.4
441.369	3.42
441.725	3.43
442.08	3.45
442.435	3.44
442.79	3.44
443.145	3.44
443.5	3.45
443.855	3.44
444.21	3.43
444.565	3.43
444.92	3.43
445.275	3.43
445.629	3.42
445.984	3.44
446.339	3.45
446.693	3.43
447.048	3.41
447.403	3.4
447.757	3.39
448.112	3.38
448.466	3.38
448.82	3.36
449.175	3.34
449.529	3.32
449.883	3.31
450.238	3.31
450.592	3.3
450.946	3.28
451.3	3.29
451.654	3.29
452.008	3.28
452.362	3.27
452.716	3.27
453.07	3.26
453.424	3.25
453.778	3.21
454.132	3.19
454.486	3.21
454.839	3.22
455.193	3.21
455.547	3.21
455.9	3.21
456.254	3.22
456.607	3.23
456.961	3.25
457.314	3.27
457.668	3.25
458.021	3.24
458.375	3.24
458.728	3.23
459.081	3.25
459.434	3.25
459.787	3.26
460.141	3.26
460.494	3.27
460.847	3.28
461.2	3.29
461.553	3.3
461.906	3.29
462.259	3.27
462.611	3.29
462.964	3.3
463.317	3.28
463.67	3.28
464.022	3.3
464.375	3.27
464.728	3.29
465.08	3.32
465.433	3.35
465.785	3.34
466.138	3.36
466.49	3.35
466.843	3.37
467.195	3.39
467.547	3.39
467.899	3.38
468.252	3.39
468.604	3.42
468.956	3.44
469.308	3.46
469.66	3.51
470.012	3.53
470.364	3.56
470.716	3.59
471.068	3.6
471.42	3.6
471.772	3.63
472.123	3.62
472.475	3.62
472.827	3.6
473.178	3.65
473.53	3.64
473.882	3.65
474.233	3.63
474.585	3.62
474.936	3.63
475.288	3.63
475.639	3.65
475.99	3.63
476.342	3.64
476.693	3.62
477.044	3.6
477.395	3.59
477.746	3.53
478.097	3.56
478.448	3.56
478.8	3.55
479.15	3.54
479.501	3.55
479.852	3.56
480.203	3.59
480.554	3.58
480.905	3.58
481.255	3.6
481.606	3.6
481.957	3.6
482.307	3.6
482.658	3.6
483.009	3.59
483.359	3.59
483.709	3.58
484.06	3.58
484.41	3.58
484.761	3.59
485.111	3.6
485.461	3.6
485.811	3.6
486.162	3.6
486.512	3.62
486.862	3.62
487.212	3.62
487.562	3.61
487.912	3.6
488.262	3.61
488.612	3.6
488.961	3.61
489.311	3.6
489.661	3.6
490.011	3.58
490.36	3.58
490.71	3.58
491.06	3.6
491.409	3.6
491.759	3.6
492.108	3.6
492.458	3.6
492.807	3.59
493.157	3.58
493.506	3.61
493.855	3.6
494.204	3.61
494.554	3.61
494.903	3.63
495.252	3.64
495.601	3.65
495.95	3.65
496.299	3.66
496.648	3.68
496.997	3.71
497.346	3.77
497.695	3.81
498.043	3.84
498.392	3.87
498.741	3.91
499.09	3.97
499.438	3.98
499.787	4.02
500.135	4.07
500.484	4.11
500.832	4.13
501.181	4.17
501.529	4.21
501.878	4.26
502.226	4.3
502.574	4.35
502.923	4.4
503.271	4.46
503.619	4.52
503.967	4.59
504.315	4.64
504.663	4.71
505.011	4.77
505.359	4.82
505.707	4.86
506.055	4.93
506.403	4.99
506.751	5.09
507.098	5.17
507.446	5.23
507.794	5.33
508.141	5.42
508.489	5.51
508.837	5.58
509.184	5.67
509.531	5.75
509.879	5.84
510.226	5.92
510.574	6.01
510.921	6.09
511.268	6.2
511.616	6.29
511.963	6.35
512.31	6.45
512.657	6.57
513.004	6.64
513.351	6.74
513.698	6.84
514.045	6.94
514.392	7.06
514.739	7.17
515.086	7.31
515.432	7.46
515.779	7.59
516.126	7.75
516.473	7.84
516.819	7.96
517.166	8.08
517.512	8.18
517.859	8.29
518.205	8.4
518.552	8.52
518.898	8.64
519.245	8.76
519.591	8.86
519.937	8.95
520.283	9.09
520.629	9.22
520.976	9.36
521.322	9.48
521.668	9.61
522.014	9.75
522.36	9.85
522.706	9.96
523.052	10.12
523.398	10.26
523.743	10.47
524.089	10.62
524.435	10.78
524.781	10.97
525.126	11.11
525.472	11.24
525.817	11.34
526.163	11.43
526.509	11.55
526.854	11.66
527.199	11.78
527.545	11.89
527.89	11.98
528.235	12.07
528.581	12.17
528.926	12.27
529.271	12.38
529.616	12.5
529.961	12.6
530.306	12.69
530.651	12.8
530.996	12.91
531.341	13.06
531.686	13.18
532.031	13.3
532.376	13.42
532.721	13.57
533.065	13.73
533.41	13.88
533.755	14.02
534.099	14.15
534.444	14.29
534.788	14.44
535.133	14.62
535.477	14.78
535.822	14.98
536.166	15.13
536.51	15.31
536.855	15.48
537.199	15.72
537.543	15.93
537.887	16.13
538.231	16.34
538.576	16.54
538.92	16.77
539.264	16.97
539.608	17.14
539.951	17.32
540.295	17.52
540.639	17.7
540.983	17.88
541.327	18.07
541.671	18.25
542.014	18.41
542.358	18.54
542.701	18.69
543.045	18.87
543.389	19.06
543.732	19.25
544.075	19.43
544.419	19.6
544.762	19.79
545.105	20
545.449	20.22
545.792	20.43
546.135	20.64
546.478	20.88
546.821	21.16
547.165	21.41
547.508	21.64
547.851	21.88
548.194	22.14
548.536	22.4
548.879	22.66
549.222	22.91
549.565	23.21
549.908	23.5
550.25	23.74
550.593	24.03
550.936	24.27
551.278	24.52
551.621	24.79
551.963	25.14
552.306	25.44
552.648	25.67
552.991	25.93
553.333	26.21
553.675	26.49
554.017	26.74
554.36	27.02
554.702	27.3
555.044	27.58
555.386	27.88
555.728	28.16
556.07	28.4
556.412	28.7
556.754	28.95
557.096	29.26
557.438	29.52
557.78	29.79
558.121	30.1
558.463	30.46
558.805	30.74
559.147	31.02
559.488	31.32
559.83	31.61
560.171	31.9
560.513	32.23
560.854	32.53
561.196	32.84
561.537	33.11
561.878	33.37
562.22	33.65
562.561	33.92
562.902	34.24
563.243	34.56
563.584	34.84
563.925	35.09
564.266	35.29
564.607	35.55
564.948	35.82
565.289	36.1
565.63	36.31
565.971	36.52
566.312	36.69
566.653	36.95
566.993	37.23
567.334	37.45
567.675	37.62
568.015	37.84
568.356	38.13
568.696	38.41
569.037	38.64
569.377	38.9
569.718	39.11
570.058	39.33
570.398	39.56
570.739	39.79
571.079	40.05
571.419	40.34
571.759	40.62
572.099	40.84
572.439	41.07
572.779	41.3
573.119	41.54
573.459	41.82
573.799	41.94
574.139	42.14
574.479	42.35
574.819	42.56
575.158	42.74
575.498	42.88
575.838	43.05
576.177	43.24
576.517	43.43
576.856	43.62
577.196	43.81
577.535	43.99
577.875	44.16
578.214	44.35
578.553	44.53
578.893	44.67
579.232	44.8
579.571	44.93
579.91	45.04
580.25	45.26
580.589	45.39
580.928	45.55
581.267	45.65
581.606	45.82
581.945	46.03
582.283	46.18
582.622	46.34
582.961	46.55
583.3	46.7
583.639	46.93
583.977	47.18
584.316	47.3
584.654	47.46
584.993	47.64
585.332	47.76
585.67	47.86
586.008	47.98
586.347	48.16
586.685	48.25
587.024	48.42
587.362	48.55
587.7	48.64
588.038	48.83
588.376	48.91
588.715	49.02
589.053	49.04
589.391	49.23
589.729	49.32
590.067	49.38
590.404	49.48
590.742	49.46
591.08	49.48
591.418	49.64
591.756	49.71
592.093	49.76
592.431	49.92
592.769	50.04
593.106	50.18
593.444	50.31
593.781	50.42
594.119	50.64
594.456	50.74
594.793	50.88
595.131	51
595.468	51.19
595.805	51.33
596.143	51.49
596.48	51.62
596.817	51.72
597.154	51.77
597.491	51.81
597.828	51.94
598.165	52.01
598.502	51.98
598.839	52.09
599.176	52.28
599.512	52.42
599.849	52.54
600.186	52.6
600.523	52.65
600.859	52.83
601.196	52.8
601.532	52.74
601.869	52.8
602.205	52.86
602.542	52.87
602.878	52.9
603.215	52.91
603.551	52.94
603.887	52.99
604.223	53.08
604.56	53.19
604.896	53.23
605.232	53.32
605.568	53.5
605.904	53.49
606.24	53.54
606.576	53.54
606.912	53.61
607.248	53.7
607.583	53.76
607.919	53.77
608.255	53.83
608.591	54.02
608.926	54.06
609.262	54.12
609.597	54.16
609.933	54.27
610.268	54.35
610.604	54.36
610.939	54.37
611.275	54.46
611.61	54.54
611.945	54.64
612.281	54.64
612.616	54.65
612.951	54.75
613.286	54.75
613.621	54.76
613.956	54.84
614.291	54.86
614.626	54.81
614.961	54.85
615.296	54.98
615.631	54.94
615.966	55.04
616.3	55.11
616.635	55.14
616.97	55.11
617.304	55.14
617.639	55.18
617.973	55.24
618.308	55.27
618.642	55.24
618.977	55.21
619.311	55.31
619.646	55.28
619.98	55.39
620.314	55.4
620.648	55.46
620.983	55.36
621.317	55.41
621.651	55.55
621.985	55.52
622.319	55.42
622.653	55.41
622.987	55.35
623.321	55.33
623.655	55.36
623.988	55.45
624.322	55.46
624.656	55.4
624.99	55.45
625.323	55.37
625.657	55.45
625.99	55.53
626.324	55.56
626.657	55.7
626.991	55.67
627.324	55.65
627.658	55.67
627.991	55.68
628.324	55.64
628.657	55.61
628.991	55.7
629.324	55.78
629.657	55.94
629.99	55.98
630.323	56
630.656	56.07
630.989	56.06
631.322	56.06
631.655	56.19
631.987	56.16
632.32	56.18
632.653	56.15
632.986	56.08
633.318	56.11
633.651	56.08
633.984	56.03
634.316	56.1
634.649	56.09
634.981	56.22
635.313	56.26
635.646	56.38
635.978	56.35
636.31	56.29
636.643	56.27
636.975	56.34
637.307	56.44
637.639	56.52
637.971	56.52
638.303	56.61
638.635	56.61
638.967	56.65
639.299	56.75
639.631	56.86
639.963	56.96
640.295	56.91
640.626	56.8
640.958	56.9
641.29	56.93
641.621	57.02
641.953	56.9
642.285	56.95
642.616	57.04
642.948	57.12
643.279	57.16
643.61	57.2
643.942	57.26
644.273	57.28
644.604	57.2
644.936	57.19
645.267	57.13
645.598	57.1
645.929	57.16
646.26	57.23
646.591	57.15
646.922	57.05
647.253	57.2
647.584	57.26
647.915	57.26
648.245	57.41
648.576	57.46
648.907	57.61
649.238	57.64
649.568	57.46
649.899	57.44
650.229	57.59
650.56	57.64
650.89	57.53
651.221	57.47
651.551	57.54
651.882	57.61
652.212	57.66
652.542	57.73
652.872	57.84
653.203	57.95
653.533	58.03
653.863	58.24
654.193	58.16
654.523	58.1
654.853	58.28
655.183	58.2
655.513	58.32
655.843	58.32
656.172	58.45
656.502	58.53
656.832	58.59
657.162	58.49
657.491	58.55
657.821	58.66
658.15	58.76
658.48	58.71
658.809	58.74
659.139	58.79
659.468	58.83
659.798	58.76
660.127	58.74
660.456	58.72
660.785	58.7
661.115	58.65
661.444	58.75
661.773	58.73
662.102	58.86
662.431	58.75
662.76	58.78
663.089	58.7
663.418	58.78
663.747	58.79
664.076	58.83
664.404	58.77
664.733	58.71
665.062	58.67
665.39	58.89
665.719	58.8
666.048	58.81
666.376	58.78
666.705	58.87
667.033	58.65
667.362	58.61
667.69	58.66
668.018	58.73
668.347	58.85
668.675	58.86
669.003	58.78
669.331	58.73
669.659	58.66
669.987	58.61
670.315	58.53
670.643	58.5
670.971	58.64
671.299	58.57
671.627	58.67
671.955	58.61
672.283	58.47
672.61	58.54
672.938	58.68
673.266	58.74
673.593	58.74
673.921	58.93
674.249	58.79
674.576	58.75
674.904	58.83
675.231	58.69
675.558	58.7
675.886	58.65
676.213	58.77
676.54	58.85
676.867	59.02
677.195	59.13
677.522	59.2
677.849	59.23
678.176	59.33
678.503	59.35
678.83	59.48
679.157	59.61
679.484	59.5
679.81	59.43
680.137	59.38
680.464	59.3
680.791	59.25
681.117	59.56
681.444	59.57
681.771	59.72
682.097	59.85
682.424	59.75
682.75	59.68
683.077	59.7
683.403	59.76
683.729	59.79
684.056	59.77
684.382	59.78
684.708	59.72
685.034	59.74
685.36	59.67
685.686	59.71
686.012	59.5
686.339	59.56
686.664	59.6
686.99	59.57
687.316	59.61
687.642	59.57
687.968	59.48
688.294	59.5
688.619	59.4
688.945	59.34
689.271	59.48
689.596	59.73
689.922	59.64
690.247	59.53
690.573	59.23
690.898	59.27
691.224	59.29
691.549	59.22
691.874	59.15
692.2	59.18
692.525	58.99
692.85	59.08
693.175	59.31
693.5	59.31
693.825	59.39
694.15	59.46
694.475	59.63
694.8	59.68
695.125	59.72
695.45	59.63
695.775	59.81
696.099	59.78
696.424	59.63
696.749	59.87
697.073	59.93
697.398	60.03
697.723	59.98
698.047	60.08
698.372	60.14
698.696	60.12
699.02	60.2
699.345	60.38
699.669	60.22
699.993	60.31
700.318	60.23
700.642	60.28
700.966	60.37
701.29	60.29
701.614	60.16
701.938	60.01
702.262	60.1
702.586	60.04
702.91	60.12
703.234	60.12
703.557	59.87
703.881	59.84
704.205	59.86
704.529	59.98
704.852	59.72
705.176	59.92
705.499	60.11
705.823	59.96
706.146	59.95
706.47	60.33
706.793	60.08
707.117	60.2
707.44	60.01
707.763	60.06
708.086	60.19
708.409	60.38
708.733	60.42
709.056	60.37
709.379	60.3
709.702	60.35
710.025	60.62
710.348	60.75
710.671	60.8
710.993	60.78
711.316	60.73
711.639	60.76
711.962	60.79
712.284	60.54
712.607	60.82
712.93	60.69
713.252	60.51
713.575	60.45
713.897	60.64
714.22	60.87
714.542	60.78
714.864	60.63
715.187	60.61
715.509	60.66
715.831	60.67
716.153	60.73
716.475	60.44
716.798	60.17
717.12	60.14
717.442	60.17
717.764	60.36
718.085	60.42
718.407	60.58
718.729	60.35
719.051	60.5
719.373	60.29
719.695	60.33
720.016	60.27
720.338	60.5
720.659	60.24
720.981	59.79
721.302	59.88
721.624	59.95
721.945	59.82
722.267	59.84
722.588	59.59
722.909	59.36
723.231	59.41
723.552	59.29
723.873	59.39
724.194	59.36
724.515	59.26
724.836	59.11
725.157	59.07
725.478	59.04
725.799	59.16
726.12	59.12
726.441	59.07
726.762	59.39
727.083	59.35
727.403	59.22
727.724	59.66
728.045	59.74
728.365	59.72
728.686	59.84
729.006	59.71
729.327	59.97
729.647	60.03
729.967	60.12
730.288	60.3
730.608	60.1
730.928	60.17
731.249	60.36
731.569	60.39
731.889	60.45
732.209	60.46
732.529	60.47
732.849	60.52
733.169	60.58
733.489	60.46
733.809	60.3
734.129	60.47
734.448	60.33
734.768	60.03
735.088	59.95
735.408	59.73
735.727	59.93
736.047	59.85
736.366	59.93
736.686	60.07
737.005	60.24
737.325	60
737.644	59.83
737.963	59.73
738.283	59.79
738.602	59.63
738.921	59.69
739.24	59.45
739.56	59.42
739.879	59.44
740.198	59.41
740.517	59.2
740.836	59.21
741.155	59.37
741.473	59.55
741.792	59.59
742.111	60.16
742.43	60.36
742.748	60.71
743.067	60.69
743.386	60.96
743.704	60.92
744.023	61.5
744.341	61.5
744.66	61.55
744.978	61.35
745.297	61.4
745.615	61.66
745.933	61.76
746.252	61.79
746.57	61.46
746.888	61.52
747.206	61.87
747.524	61.89
747.842	61.92
748.16	62.08
748.478	62.29
748.796	61.61
749.114	61.43
749.432	60.86
749.749	61.17
750.067	60.67
750.385	60.75
750.703	60.64
751.02	60.87
751.338	60.62
751.655	60.7
751.973	60.7
752.29	60.51
752.608	60.36
752.925	60.09
753.242	60.49
753.56	60.54
753.877	60.8
754.194	60.65
754.511	60.45
754.828	60.22
755.145	60.05
755.462	60.5
755.779	60.59
756.096	60.78
756.413	60.61
756.73	61.05
757.047	60.67
757.364	60.82
757.68	60.59
757.997	60.8
758.314	61.09
758.63	61.58
758.947	61.93
759.264	62
759.58	62.46
759.896	62.32
760.213	62.36
760.529	62.07
760.846	62.35
761.162	62.53
761.478	62.6
761.794	62.47
762.11	62.2
762.426	62.15
762.743	62.26
763.059	62.16
763.375	61.88
763.69	62.12
764.006	61.98
764.322	61.81
764.638	61.7
764.954	61.52
765.27	61.31
765.585	60.94
765.901	60.96
766.216	60.99
766.532	61.25
766.848	61.25
767.163	61.08
767.478	60.94
767.794	60.55
768.109	60.48
768.424	61.01
768.74	61.22
769.055	61.21
769.37	61.07
769.685	60.88
770	60.97
770.315	60.33
770.63	60.06
770.945	60.26
771.26	60.49
771.575	60.26
771.89	60.5
772.205	60.21
772.52	60.03
772.834	59.69
773.149	59.04
773.464	58.79
773.778	59.14
774.093	58.84
774.407	59.25
774.722	59.06
775.036	58.15
775.351	57.87
775.665	57.88
775.979	58.05
776.293	57.76
776.608	57.72
776.922	58.09
777.236	58.56
777.55	58.52
777.864	58.36
778.178	58.68
778.492	57.94
778.806	58.22
779.12	58.93
779.434	59.24
779.747	59.59
780.061	59.7
780.375	59.46
780.689	59.98
781.002	59.74
781.316	59.89
781.629	60.43
781.943	60.66
782.256	60.21
782.57	59.9
782.883	60.7
783.196	60.76
783.51	60.91
783.823	60.56
784.136	60.85
784.449	60.47
784.762	60.65
785.075	61.22
785.388	61.66
785.701	60.87
786.014	60.38
786.327	60.41
786.64	60.54
786.953	60.53
787.266	60.11
787.578	60.07
787.891	60.41
788.204	60.37
788.516	60.53
788.829	61.02
789.141	61.3
789.454	61.16
789.766	60.42
790.079	60.22
790.391	60.5
790.703	60.59
791.016	60.63
791.328	60.74
791.64	60.43
791.952	60.01
792.264	60.27
792.576	60.61
792.888	60.61
793.2	60.39
793.512	61.01
793.824	61.55
794.136	61.56
794.448	61.13
794.76	60.81
795.071	60.1
795.383	59.65
795.695	59.83
796.006	60.63
796.318	61.28
796.629	61.74
796.941	62.23
797.252	62.66
797.564	63.1
797.875	62.32
798.186	62.37
798.497	62.76
798.809	63.43
799.12	62.86
799.431	62.76
799.742	62.93
800.053	62.54
800.364	62.83
800.675	62.96
800.986	63.23
801.297	63.14
801.608	63.8
801.918	64.27
802.229	64.21
802.54	63.29
802.851	63.88
803.161	63.53
803.472	63.05
803.782	62.45
804.093	62.2
804.403	63.11
804.714	63.41
805.024	63.58
805.334	62.86
805.645	63.56
805.955	63.23
806.265	63.36
806.575	62.97
806.885	62.33
807.195	62.7
807.505	62.13
807.815	63.04
808.125	63.18
808.435	63.07
808.745	63.61
809.055	63.75
809.365	62.83
809.674	63.14
809.984	62.42
810.294	62.78
810.603	62.72
810.913	62.37
811.222	62.39
811.532	61.9
811.841	62.18
812.151	62.11
812.46	62.09
812.769	61.44
813.079	62.25
813.388	62.53
813.697	61.93
814.006	62.52
814.315	61.85
814.624	61.36
814.933	60.42
815.242	59.49
815.551	59.23
815.86	59.44
816.169	59.73
816.478	60
816.786	60.33
817.095	61.09
817.404	60.16
817.712	60.09
818.021	60.68
818.33	61.01
818.638	60.9
818.947	60.94
819.255	61.32
819.563	61.62
819.872	61.72
820.18	62.56
820.488	62.66
820.796	62.72
821.105	62.96
821.413	63.59
821.721	63.55
822.029	63.57
822.337	63.77
822.645	63.67
822.953	63.64
823.26	63.47
823.568	63.51
823.876	63.86
824.184	63.76
824.491	63.61
824.799	63.57
825.107	63.62
825.414	63.74
825.722	63.74
826.029	63.56
826.337	63.61
826.644	63.27
826.951	63.12
827.259	63.13
827.566	63.11
827.873	62.83
828.18	62.66
828.488	62.43
828.795	62.21
829.102	62.12
829.409	61.87
829.716	62.17
830.023	61.98
830.329	61.67
830.636	61.47
830.943	61.67
831.25	61.47
831.557	61.49
831.863	61.69
832.17	61.86
832.476	61.24
832.783	61.35
833.089	61.46
833.396	61.89
833.702	62.06
834.009	62.03
834.315	61.95
834.621	62.19
834.928	62.58
835.234	62.73
835.54	62.46
835.846	62.69
836.152	62.52
836.458	62.47
836.764	62.46
837.07	62.88
837.376	62.12
837.682	62.67
837.988	62.56
838.293	62.39
838.599	62.33
838.905	63.43
839.211	63.23
839.516	62.82
839.822	62.69
840.127	62.15
840.433	62.05
840.738	62.39
841.044	62.66
841.349	62.22
841.654	61.08
841.959	61.72
842.265	62.29
842.57	61.79
842.875	61.33
843.18	61.28
843.485	62.82
843.79	63.23
844.095	61.12
844.4	60.13
844.705	59.55
845.01	58.86
845.315	58.86
845.619	58.57
845.924	60.28
846.229	58.48
846.533	57.53
846.838	57.02
847.142	56.93
847.447	56.82
847.751	56.39
848.056	58.24
848.36	59.31
848.664	58.08
848.969	57.24
849.273	59.79
849.577	58.98
849.881	56.9
850.185	56.54
850.489	59.66
850.794	61.42
851.097	64.34
851.401	64.5
851.705	62.9
852.009	62.53
852.313	60.14
852.617	62.73
852.92	65.79
853.224	64.65
853.528	63.18
853.831	63.09
854.135	65.38
854.438	65.15
854.742	62.51
855.045	61.59
855.349	64.86
855.652	60.48
855.955	60.28
856.259	59.72
856.562	60.16
856.865	57.81
857.168	57.94
857.471	55.86
857.774	58.34
858.077	59.03
858.38	57.57
858.683	57.67
858.986	55.88
859.289	55.26
859.592	57.55
859.894	57.36
860.197	55.67
860.5	56.17
860.802	56.6
861.105	56.3
861.407	59.93
861.71	56.65
862.012	61.76
862.315	61.25
862.617	60.07
862.919	61.06
863.222	60.71
863.524	59.64
863.826	58.39
864.128	55.7
864.43	54.19
864.732	53.69
865.034	55.88
865.336	57.47
865.638	57.52
865.94	57.4
866.242	58.04
866.544	61.37
866.846	58.9
867.147	58.16
867.449	57.07
867.751	54.82
868.052	55.72
868.354	50.57
868.655	52.42
868.957	54
869.258	52.95
869.56	52.65
869.861	52.95
870.162	56.14
870.463	55.32
870.765	55.05
871.066	58.43
871.367	56.76
871.668	55.68
871.969	54.69
872.27	53.44
872.571	52.76
872.872	50.58
873.173	49.77
873.473	48.32
873.774	50.29
874.075	51.43
874.376	48.89
874.676	51.72
874.977	52.5
875.277	52.89
875.578	51.23
875.878	51.74
876.179	51.78
876.479	49.15
876.78	50.34
877.08	52.46
877.38	50.03
877.68	49.85
877.981	49.63
878.281	49.71
878.581	48.84
