Data from MVZ_BU57658_Reflection_00004.txt Node
Date: Tue Nov 19 12:13:22 EST 2019
User: vgr7
Spectrometer: USB2G7710
Scans to average: 3
Trigger mode: 4
Integration Time (sec): 2.000000E-2
Electric dark correction enabled: true
Boxcar width: 10
XAxis mode: Wavelengths
Number of Pixels in Spectrum: 2048
>>>>>Begin Spectral Data<<<<<
177.721	-408.47
178.105	-268.42
178.488	-277.48
178.871	-170
179.254	-500
179.636	-164.71
180.019	100
180.402	87.5
180.785	-134.15
181.168	-46.62
181.55	12.86
181.933	45.36
182.316	55.72
182.698	41.45
183.081	38.65
183.463	46.11
183.846	66.46
184.228	86.14
184.611	106.23
184.993	188.89
185.376	173.36
185.758	253.53
186.14	341.86
186.522	595.93
186.904	2900
187.287	862.89
187.669	580
188.051	393.41
188.433	1883.78
188.815	-957.47
189.197	-1009.89
189.579	-298.67
189.961	-352.11
190.342	-179.5
190.724	-153.81
191.106	-154.32
191.488	-149.59
191.869	-128.83
192.251	-110.95
192.633	-108.06
193.014	-129.25
193.396	-114.73
193.777	-100.95
194.159	-104.69
194.54	-118.26
194.922	-154
195.303	-190.11
195.684	-234.92
196.065	-283.03
196.447	-353.45
196.828	-401.77
197.209	-301.29
197.59	-337.26
197.971	-446.96
198.352	8322.22
198.733	-1559.57
199.114	874.65
199.495	-5990.91
199.876	-3636.84
200.257	-71900
200.638	4195.24
201.018	2397.3
201.399	931.46
201.78	1048.05
202.16	3020
202.541	4511.76
202.922	-5823.08
203.302	-332.16
203.683	-166.67
204.063	-123.16
204.444	-99.26
204.824	-113.08
205.204	-116.46
205.585	-150.56
205.965	-179.91
206.345	-156.26
206.725	-157.86
207.106	-142.58
207.486	-141.74
207.866	-160.4
208.246	-162.43
208.626	-191.97
209.006	-214.12
209.386	-397.46
209.766	-648.15
210.145	-776.03
210.525	-1166.67
210.905	-573.76
211.285	-496.27
211.664	-794.12
212.044	-1138.81
212.424	8671.43
212.803	821.31
213.183	1557.14
213.562	-448.15
213.942	-360.43
214.321	-557.66
214.701	-337.19
215.08	-249.83
215.459	-268.23
215.838	-382.59
216.218	-352.28
216.597	-184.6
216.976	-172.73
217.355	-121.8
217.734	-116.06
218.113	-77.39
218.492	-96.45
218.871	-109.02
219.25	-126.1
219.629	-155.22
220.008	-151.18
220.387	-176.03
220.766	-144.01
221.144	-136.02
221.523	-141.68
221.902	-116.64
222.28	-93.06
222.659	-82.35
223.037	-88.58
223.416	-77.64
223.794	-55.44
224.173	-64.35
224.551	-76.29
224.929	-68.86
225.308	-63.92
225.686	-50.49
226.064	-60.62
226.442	-47.19
226.821	-34.69
227.199	-29.17
227.577	-27.53
227.955	-18.97
228.333	-20.11
228.711	-23.47
229.089	-22.58
229.467	-20.59
229.845	-23.34
230.222	-19.38
230.6	-17.26
230.978	-13.57
231.356	-12.34
231.733	-13.06
232.111	-12.86
232.488	-10.62
232.866	-10.39
233.243	-11.53
233.621	-12.64
233.998	-11.95
234.376	-10.44
234.753	-13.4
235.13	-11.76
235.508	-8.91
235.885	-10.98
236.262	-9.75
236.639	-8.85
237.016	-8.85
237.393	-8.47
237.77	-6.84
238.147	-6.06
238.524	-5.12
238.901	-5.42
239.278	-4.99
239.655	-4.29
240.032	-3.4
240.409	-3.06
240.785	-2.99
241.162	-2.55
241.539	-2.34
241.915	-2.07
242.292	-1.44
242.668	-1.11
243.045	-0.53
243.421	-0.31
243.798	0.38
244.174	0.61
244.551	0.59
244.927	0.87
245.303	1.03
245.679	1.09
246.056	0.97
246.432	0.94
246.808	1.6
247.184	1.89
247.56	1.7
247.936	1.92
248.312	1.97
248.688	2.26
249.064	2.34
249.44	2.31
249.815	2.72
250.191	2.59
250.567	2.64
250.943	2.59
251.318	2.37
251.694	2.1
252.069	2.4
252.445	2.39
252.82	2.31
253.196	2.48
253.571	2.37
253.947	2.3
254.322	2.04
254.697	1.35
255.073	0.82
255.448	1.16
255.823	1.49
256.198	1.77
256.573	1.75
256.948	1.92
257.323	2.07
257.698	1.91
258.073	2.12
258.448	2.5
258.823	2.18
259.198	2.23
259.573	2.36
259.948	2.35
260.322	2.14
260.697	2.3
261.072	2.34
261.446	2.4
261.821	2.36
262.195	2.31
262.57	2.57
262.944	2.74
263.319	2.83
263.693	2.64
264.067	2.59
264.442	2.42
264.816	2.5
265.19	2.53
265.564	2.44
265.938	2.21
266.313	1.81
266.687	1.75
267.061	1.87
267.435	1.99
267.809	1.71
268.183	1.95
268.556	1.79
268.93	2.07
269.304	2.14
269.678	2.39
270.051	2.58
270.425	2.41
270.799	2.2
271.172	2.16
271.546	2.23
271.919	2.08
272.293	2.22
272.666	2.13
273.04	1.96
273.413	1.95
273.787	1.81
274.16	1.87
274.533	2.15
274.906	2.26
275.279	2.26
275.653	2.5
276.026	2.7
276.399	2.76
276.772	2.44
277.145	2.36
277.518	2.26
277.891	2.33
278.263	2.31
278.636	2.3
279.009	2.33
279.382	2.52
279.755	2.79
280.127	2.86
280.5	2.84
280.872	3.01
281.245	3.02
281.617	3.16
281.99	3.32
282.362	3.38
282.735	3.18
283.107	3.07
283.479	3.03
283.852	2.89
284.224	2.88
284.596	2.9
284.968	2.95
285.34	2.97
285.713	2.89
286.085	2.85
286.457	2.97
286.829	2.89
287.201	2.7
287.572	2.8
287.944	2.87
288.316	2.88
288.688	3.02
289.06	3.12
289.431	3.17
289.803	3.21
290.175	3.13
290.546	3.26
290.918	3.3
291.289	3.15
291.661	3.22
292.032	3.3
292.403	3.33
292.775	3.39
293.146	3.32
293.517	3.22
293.889	3.28
294.26	3.25
294.631	3.45
295.002	3.51
295.373	3.29
295.744	3.26
296.115	3.38
296.486	3.21
296.857	3.24
297.228	3.1
297.599	2.85
297.97	2.91
298.34	2.81
298.711	2.8
299.082	2.91
299.452	2.85
299.823	2.7
300.194	2.73
300.564	2.51
300.935	2.58
301.305	2.55
301.676	2.48
302.046	2.41
302.416	2.43
302.787	2.34
303.157	2.46
303.527	2.53
303.897	2.26
304.267	2.35
304.637	2.22
305.008	2.45
305.378	2.7
305.748	2.58
306.117	2.72
306.487	2.72
306.857	2.72
307.227	2.78
307.597	3.01
307.967	2.99
308.336	3.19
308.706	3.33
309.076	3.45
309.445	3.64
309.815	3.76
310.184	3.58
310.554	3.6
310.923	3.56
311.293	3.51
311.662	3.7
312.031	3.63
312.401	3.68
312.77	3.58
313.139	3.65
313.508	3.59
313.877	3.48
314.246	3.46
314.616	3.51
314.985	3.43
315.353	3.35
315.722	3.42
316.091	3.38
316.46	3.24
316.829	3.22
317.198	3.19
317.567	3.23
317.935	3.39
318.304	3.53
318.672	3.38
319.041	3.28
319.41	3.25
319.778	3.26
320.147	3.35
320.515	3.37
320.883	3.14
321.252	3.31
321.62	3.19
321.988	3.27
322.357	3.15
322.725	3.35
323.093	3.4
323.461	3.34
323.829	3.41
324.197	3.26
324.565	3.18
324.933	3.03
325.301	2.79
325.669	2.82
326.037	2.82
326.405	2.87
326.772	2.86
327.14	2.81
327.508	2.66
327.875	2.52
328.243	2.51
328.61	2.72
328.978	2.57
329.346	2.69
329.713	2.77
330.08	2.82
330.448	2.83
330.815	2.8
331.182	2.72
331.55	2.71
331.917	2.82
332.284	2.93
332.651	2.99
333.018	3.1
333.385	2.9
333.752	2.83
334.119	2.87
334.486	2.99
334.853	3.03
335.22	3.25
335.587	3.3
335.954	3.28
336.32	3.17
336.687	3.39
337.054	3.41
337.42	3.43
337.787	3.49
338.153	3.4
338.52	3.43
338.886	3.54
339.253	3.54
339.619	3.58
339.986	3.51
340.352	3.6
340.718	3.7
341.084	3.77
341.451	3.92
341.817	4
342.183	3.87
342.549	3.99
342.915	3.96
343.281	4.07
343.647	4.08
344.013	4.06
344.379	4
344.745	3.98
345.11	3.86
345.476	3.96
345.842	3.87
346.208	3.88
346.573	3.73
346.939	3.72
347.304	3.81
347.67	3.79
348.035	3.71
348.401	3.72
348.766	3.83
349.132	3.62
349.497	3.53
349.862	3.55
350.228	3.5
350.593	3.46
350.958	3.45
351.323	3.43
351.688	3.59
352.053	3.61
352.418	3.61
352.783	3.68
353.148	3.5
353.513	3.63
353.878	3.64
354.243	3.75
354.608	3.72
354.972	3.75
355.337	3.84
355.702	3.95
356.066	3.92
356.431	3.84
356.795	4
357.16	4.05
357.524	4.18
357.889	4.11
358.253	4.08
358.618	4.08
358.982	4.2
359.346	4.15
359.71	4.11
360.075	4.21
360.439	4.25
360.803	4.33
361.167	4.3
361.531	4.23
361.895	4.19
362.259	4.22
362.623	4.14
362.987	4.2
363.351	4.11
363.714	4.17
364.078	4.24
364.442	4.1
364.806	4.09
365.169	4.03
365.533	4.07
365.896	4.15
366.26	4.08
366.623	4.02
366.987	4.07
367.35	4.16
367.714	4.12
368.077	4.08
368.44	4.11
368.803	4.21
369.167	4.19
369.53	4.25
369.893	4.25
370.256	4.3
370.619	4.19
370.982	4.18
371.345	4.11
371.708	4.05
372.071	4.2
372.434	4.17
372.797	4.2
373.159	4.19
373.522	4.18
373.885	4.21
374.247	4.19
374.61	4.12
374.973	4.07
375.335	4.04
375.698	3.95
376.06	3.88
376.423	3.87
376.785	3.95
377.147	3.89
377.51	3.92
377.872	3.9
378.234	3.97
378.596	4.01
378.958	4.01
379.321	4.02
379.683	3.97
380.045	3.93
380.407	3.87
380.769	3.84
381.13	3.85
381.492	3.87
381.854	3.94
382.216	3.93
382.578	3.88
382.939	3.89
383.301	3.95
383.663	4.03
384.024	3.98
384.386	3.97
384.747	4.04
385.109	3.99
385.47	4.01
385.832	3.94
386.193	3.94
386.554	3.95
386.916	3.96
387.277	3.9
387.638	3.97
387.999	4.03
388.36	4.04
388.721	4.06
389.082	4.09
389.443	4.05
389.804	4.08
390.165	4.11
390.526	4.08
390.887	4.11
391.248	4.04
391.609	4.03
391.969	4.02
392.33	4
392.691	4.01
393.051	4.01
393.412	4.03
393.772	4.03
394.133	4.03
394.493	4
394.854	4.06
395.214	4.07
395.574	4.04
395.935	4.06
396.295	4.02
396.655	3.99
397.015	4.01
397.376	3.96
397.736	3.96
398.096	4.01
398.456	3.95
398.816	3.99
399.176	3.95
399.535	3.93
399.895	3.92
400.255	3.94
400.615	3.92
400.975	3.88
401.334	3.9
401.694	3.87
402.054	3.89
402.413	3.89
402.773	3.87
403.132	3.89
403.492	3.89
403.851	3.93
404.211	3.91
404.57	3.9
404.929	3.93
405.288	3.94
405.648	3.96
406.007	3.99
406.366	3.96
406.725	3.98
407.084	4.01
407.443	4.01
407.802	3.98
408.161	3.98
408.52	4.01
408.879	3.97
409.238	4.02
409.596	4.01
409.955	3.98
410.314	3.98
410.673	3.97
411.031	3.93
411.39	3.92
411.748	3.92
412.107	3.9
412.465	3.89
412.824	3.84
413.182	3.81
413.54	3.81
413.899	3.81
414.257	3.85
414.615	3.84
414.974	3.85
415.332	3.87
415.69	3.86
416.048	3.87
416.406	3.86
416.764	3.81
417.122	3.83
417.48	3.84
417.838	3.83
418.195	3.81
418.553	3.84
418.911	3.83
419.269	3.84
419.626	3.83
419.984	3.81
420.342	3.82
420.699	3.81
421.057	3.81
421.414	3.83
421.772	3.81
422.129	3.81
422.486	3.81
422.844	3.8
423.201	3.81
423.558	3.81
423.915	3.83
424.273	3.85
424.63	3.83
424.987	3.85
425.344	3.87
425.701	3.87
426.058	3.86
426.415	3.86
426.772	3.86
427.128	3.88
427.485	3.89
427.842	3.89
428.199	3.91
428.555	3.9
428.912	3.89
429.269	3.87
429.625	3.85
429.982	3.83
430.338	3.84
430.695	3.81
431.051	3.79
431.407	3.79
431.764	3.77
432.12	3.76
432.476	3.76
432.832	3.74
433.189	3.74
433.545	3.77
433.901	3.79
434.257	3.81
434.613	3.78
434.969	3.8
435.325	3.8
435.681	3.8
436.036	3.8
436.392	3.8
436.748	3.82
437.104	3.84
437.459	3.84
437.815	3.84
438.171	3.87
438.526	3.89
438.882	3.88
439.237	3.9
439.593	3.91
439.948	3.9
440.304	3.91
440.659	3.91
441.014	3.89
441.369	3.88
441.725	3.88
442.08	3.89
442.435	3.88
442.79	3.87
443.145	3.88
443.5	3.87
443.855	3.88
444.21	3.86
444.565	3.87
444.92	3.88
445.275	3.87
445.629	3.86
445.984	3.85
446.339	3.84
446.693	3.83
447.048	3.82
447.403	3.81
447.757	3.81
448.112	3.79
448.466	3.79
448.82	3.77
449.175	3.76
449.529	3.76
449.883	3.75
450.238	3.76
450.592	3.76
450.946	3.77
451.3	3.74
451.654	3.74
452.008	3.71
452.362	3.68
452.716	3.67
453.07	3.66
453.424	3.64
453.778	3.63
454.132	3.64
454.486	3.63
454.839	3.63
455.193	3.65
455.547	3.69
455.9	3.71
456.254	3.74
456.607	3.74
456.961	3.74
457.314	3.73
457.668	3.73
458.021	3.73
458.375	3.72
458.728	3.74
459.081	3.75
459.434	3.74
459.787	3.76
460.141	3.78
460.494	3.81
460.847	3.84
461.2	3.86
461.553	3.88
461.906	3.9
462.259	3.9
462.611	3.88
462.964	3.87
463.317	3.85
463.67	3.83
464.022	3.85
464.375	3.85
464.728	3.86
465.08	3.87
465.433	3.88
465.785	3.88
466.138	3.88
466.49	3.87
466.843	3.9
467.195	3.9
467.547	3.88
467.899	3.88
468.252	3.86
468.604	3.84
468.956	3.83
469.308	3.82
469.66	3.83
470.012	3.86
470.364	3.85
470.716	3.86
471.068	3.88
471.42	3.87
471.772	3.88
472.123	3.89
472.475	3.89
472.827	3.88
473.178	3.91
473.53	3.91
473.882	3.95
474.233	3.93
474.585	3.95
474.936	3.97
475.288	3.96
475.639	3.98
475.99	3.99
476.342	3.99
476.693	3.99
477.044	4
477.395	3.99
477.746	3.99
478.097	3.98
478.448	3.97
478.8	3.98
479.15	3.97
479.501	3.98
479.852	3.98
480.203	3.99
480.554	3.98
480.905	4
481.255	4
481.606	4.01
481.957	4.01
482.307	4.02
482.658	4.03
483.009	4.02
483.359	4.02
483.709	4.02
484.06	4.02
484.41	4.03
484.761	4.03
485.111	4.03
485.461	4.04
485.811	4.05
486.162	4.03
486.512	4.04
486.862	4.05
487.212	4.04
487.562	4.04
487.912	4.03
488.262	4.02
488.612	4.02
488.961	4.02
489.311	4
489.661	4.01
490.011	3.99
490.36	3.99
490.71	4
491.06	3.99
491.409	3.98
491.759	3.98
492.108	3.99
492.458	3.99
492.807	3.99
493.157	3.98
493.506	4.01
493.855	4
494.204	3.98
494.554	3.98
494.903	4.01
495.252	4.02
495.601	4.03
495.95	4.03
496.299	4.04
496.648	4.07
496.997	4.07
497.346	4.09
497.695	4.11
498.043	4.13
498.392	4.14
498.741	4.18
499.09	4.21
499.438	4.24
499.787	4.24
500.135	4.26
500.484	4.27
500.832	4.29
501.181	4.32
501.529	4.36
501.878	4.4
502.226	4.4
502.574	4.44
502.923	4.45
503.271	4.48
503.619	4.5
503.967	4.53
504.315	4.58
504.663	4.6
505.011	4.59
505.359	4.59
505.707	4.6
506.055	4.62
506.403	4.62
506.751	4.64
507.098	4.69
507.446	4.73
507.794	4.74
508.141	4.75
508.489	4.79
508.837	4.79
509.184	4.81
509.531	4.84
509.879	4.88
510.226	4.89
510.574	4.93
510.921	4.96
511.268	4.97
511.616	4.95
511.963	4.98
512.31	5.02
512.657	5.04
513.004	5.07
513.351	5.1
513.698	5.09
514.045	5.1
514.392	5.1
514.739	5.12
515.086	5.16
515.432	5.2
515.779	5.2
516.126	5.26
516.473	5.28
516.819	5.28
517.166	5.28
517.512	5.3
517.859	5.3
518.205	5.28
518.552	5.3
518.898	5.32
519.245	5.32
519.591	5.34
519.937	5.36
520.283	5.39
520.629	5.38
520.976	5.43
521.322	5.46
521.668	5.46
522.014	5.47
522.36	5.49
522.706	5.48
523.052	5.52
523.398	5.53
523.743	5.55
524.089	5.6
524.435	5.62
524.781	5.65
525.126	5.68
525.472	5.73
525.817	5.74
526.163	5.76
526.509	5.78
526.854	5.79
527.199	5.8
527.545	5.82
527.89	5.85
528.235	5.85
528.581	5.86
528.926	5.87
529.271	5.89
529.616	5.89
529.961	5.92
530.306	5.92
530.651	5.92
530.996	5.94
531.341	5.94
531.686	5.95
532.031	5.95
532.376	5.96
532.721	5.96
533.065	5.98
533.41	5.98
533.755	5.98
534.099	6.01
534.444	6.01
534.788	6.01
535.133	6
535.477	6.02
535.822	6.02
536.166	6.05
536.51	6.06
536.855	6.07
537.199	6.07
537.543	6.07
537.887	6.09
538.231	6.07
538.576	6.08
538.92	6.1
539.264	6.1
539.608	6.09
539.951	6.1
540.295	6.1
540.639	6.13
540.983	6.15
541.327	6.16
541.671	6.18
542.014	6.2
542.358	6.24
542.701	6.25
543.045	6.25
543.389	6.24
543.732	6.22
544.075	6.23
544.419	6.25
544.762	6.27
545.105	6.28
545.449	6.31
545.792	6.3
546.135	6.3
546.478	6.31
546.821	6.36
547.165	6.38
547.508	6.38
547.851	6.38
548.194	6.37
548.536	6.33
548.879	6.3
549.222	6.29
549.565	6.25
549.908	6.25
550.25	6.25
550.593	6.29
550.936	6.33
551.278	6.32
551.621	6.32
551.963	6.34
552.306	6.34
552.648	6.34
552.991	6.35
553.333	6.36
553.675	6.37
554.017	6.33
554.36	6.34
554.702	6.3
555.044	6.32
555.386	6.33
555.728	6.37
556.07	6.39
556.412	6.41
556.754	6.39
557.096	6.42
557.438	6.44
557.78	6.41
558.121	6.39
558.463	6.43
558.805	6.41
559.147	6.38
559.488	6.35
559.83	6.34
560.171	6.37
560.513	6.36
560.854	6.38
561.196	6.42
561.537	6.42
561.878	6.49
562.22	6.49
562.561	6.5
562.902	6.49
563.243	6.48
563.584	6.46
563.925	6.53
564.266	6.52
564.607	6.53
564.948	6.51
565.289	6.55
565.63	6.5
565.971	6.5
566.312	6.54
566.653	6.59
566.993	6.58
567.334	6.6
567.675	6.63
568.015	6.62
568.356	6.64
568.696	6.65
569.037	6.63
569.377	6.62
569.718	6.63
570.058	6.65
570.398	6.65
570.739	6.65
571.079	6.63
571.419	6.65
571.759	6.65
572.099	6.65
572.439	6.63
572.779	6.68
573.119	6.68
573.459	6.66
573.799	6.62
574.139	6.65
574.479	6.66
574.819	6.66
575.158	6.67
575.498	6.63
575.838	6.6
576.177	6.65
576.517	6.7
576.856	6.66
577.196	6.64
577.535	6.66
577.875	6.66
578.214	6.63
578.553	6.6
578.893	6.62
579.232	6.67
579.571	6.67
579.91	6.67
580.25	6.67
580.589	6.66
580.928	6.67
581.267	6.69
581.606	6.66
581.945	6.67
582.283	6.68
582.622	6.67
582.961	6.68
583.3	6.64
583.639	6.57
583.977	6.62
584.316	6.6
584.654	6.6
584.993	6.61
585.332	6.61
585.67	6.65
586.008	6.61
586.347	6.62
586.685	6.58
587.024	6.59
587.362	6.62
587.7	6.69
588.038	6.7
588.376	6.69
588.715	6.64
589.053	6.61
589.391	6.64
589.729	6.67
590.067	6.67
590.404	6.66
590.742	6.7
591.08	6.7
591.418	6.73
591.756	6.73
592.093	6.77
592.431	6.79
592.769	6.74
593.106	6.77
593.444	6.78
593.781	6.78
594.119	6.78
594.456	6.77
594.793	6.71
595.131	6.71
595.468	6.71
595.805	6.76
596.143	6.77
596.48	6.73
596.817	6.74
597.154	6.77
597.491	6.78
597.828	6.77
598.165	6.8
598.502	6.78
598.839	6.81
599.176	6.82
599.512	6.83
599.849	6.9
600.186	6.89
600.523	6.86
600.859	6.89
601.196	6.9
601.532	6.93
601.869	6.93
602.205	6.92
602.542	6.92
602.878	6.96
603.215	7.01
603.551	7.01
603.887	7.02
604.223	6.98
604.56	7.03
604.896	7.04
605.232	7.04
605.568	7.06
605.904	7.03
606.24	7.04
606.576	7.02
606.912	7
607.248	7.02
607.583	7.07
607.919	7.07
608.255	7.07
608.591	7.09
608.926	7.1
609.262	7.12
609.597	7.11
609.933	7.07
610.268	7.04
610.604	7.08
610.939	7.08
611.275	7.11
611.61	7.08
611.945	7.06
612.281	7.03
612.616	7
612.951	7.02
613.286	6.99
613.621	7.03
613.956	7.05
614.291	7.02
614.626	6.97
614.961	6.96
615.296	6.95
615.631	6.9
615.966	6.96
616.3	6.95
616.635	6.99
616.97	7
617.304	7.05
617.639	7
617.973	7
618.308	7.03
618.642	7.06
618.977	7.06
619.311	7.14
619.646	7.18
619.98	7.19
620.314	7.17
620.648	7.09
620.983	7.07
621.317	7.1
621.651	7.13
621.985	7.17
622.319	7.17
622.653	7.18
622.987	7.18
623.321	7.21
623.655	7.18
623.988	7.16
624.322	7.1
624.656	7.11
624.99	7.09
625.323	7.06
625.657	7.06
625.99	7.08
626.324	7.02
626.657	7.02
626.991	7.05
627.324	7.04
627.658	7.08
627.991	7.11
628.324	7.12
628.657	7.11
628.991	7.07
629.324	7.12
629.657	7.11
629.99	7.11
630.323	7.1
630.656	7.04
630.989	7.1
631.322	7.09
631.655	7.1
631.987	7.16
632.32	7.22
632.653	7.19
632.986	7.15
633.318	7.19
633.651	7.19
633.984	7.2
634.316	7.19
634.649	7.24
634.981	7.24
635.313	7.23
635.646	7.29
635.978	7.34
636.31	7.33
636.643	7.36
636.975	7.4
637.307	7.42
637.639	7.45
637.971	7.42
638.303	7.48
638.635	7.5
638.967	7.45
639.299	7.41
639.631	7.39
639.963	7.4
640.295	7.34
640.626	7.29
640.958	7.28
641.29	7.36
641.621	7.29
641.953	7.22
642.285	7.2
642.616	7.16
642.948	7.12
643.279	7.1
643.61	7.1
643.942	7.06
644.273	7.02
644.604	7.11
644.936	7.13
645.267	7.12
645.598	7.12
645.929	7.12
646.26	7.09
646.591	7.17
646.922	7.18
647.253	7.26
647.584	7.35
647.915	7.31
648.245	7.28
648.576	7.26
648.907	7.3
649.238	7.28
649.568	7.3
649.899	7.29
650.229	7.31
650.56	7.33
650.89	7.36
651.221	7.38
651.551	7.34
651.882	7.43
652.212	7.48
652.542	7.51
652.872	7.5
653.203	7.51
653.533	7.46
653.863	7.51
654.193	7.48
654.523	7.48
654.853	7.53
655.183	7.5
655.513	7.52
655.843	7.49
656.172	7.56
656.502	7.47
656.832	7.48
657.162	7.44
657.491	7.38
657.821	7.37
658.15	7.39
658.48	7.47
658.809	7.37
659.139	7.33
659.468	7.35
659.798	7.36
660.127	7.38
660.456	7.36
660.785	7.34
661.115	7.33
661.444	7.33
661.773	7.32
662.102	7.4
662.431	7.44
662.76	7.53
663.089	7.49
663.418	7.54
663.747	7.55
664.076	7.57
664.404	7.62
664.733	7.56
665.062	7.65
665.39	7.58
665.719	7.61
666.048	7.61
666.376	7.59
666.705	7.58
667.033	7.61
667.362	7.7
667.69	7.81
668.018	7.79
668.347	7.86
668.675	7.85
669.003	7.8
669.331	7.81
669.659	7.71
669.987	7.7
670.315	7.68
670.643	7.62
670.971	7.73
671.299	7.72
671.627	7.78
671.955	7.66
672.283	7.69
672.61	7.66
672.938	7.59
673.266	7.63
673.593	7.59
673.921	7.65
674.249	7.51
674.576	7.4
674.904	7.4
675.231	7.33
675.558	7.42
675.886	7.4
676.213	7.31
676.54	7.48
676.867	7.45
677.195	7.51
677.522	7.61
677.849	7.59
678.176	7.57
678.503	7.59
678.83	7.6
679.157	7.55
679.484	7.54
679.81	7.55
680.137	7.6
680.464	7.68
680.791	7.56
681.117	7.66
681.444	7.68
681.771	7.73
682.097	7.66
682.424	7.56
682.75	7.63
683.077	7.71
683.403	7.58
683.729	7.67
684.056	7.64
684.382	7.69
684.708	7.67
685.034	7.67
685.36	7.6
685.686	7.63
686.012	7.66
686.339	7.72
686.664	7.69
686.99	7.57
687.316	7.54
687.642	7.58
687.968	7.61
688.294	7.63
688.619	7.68
688.945	7.65
689.271	7.61
689.596	7.54
689.922	7.52
690.247	7.53
690.573	7.57
690.898	7.7
691.224	7.63
691.549	7.63
691.874	7.71
692.2	7.68
692.525	7.71
692.85	7.78
693.175	7.71
693.5	7.76
693.825	7.83
694.15	7.91
694.475	8
694.8	7.91
695.125	7.87
695.45	7.83
695.775	7.92
696.099	8.14
696.424	8.16
696.749	8.29
697.073	8.34
697.398	8.34
697.723	8.24
698.047	8.17
698.372	8.09
698.696	8.09
699.02	8.14
699.345	8.09
699.669	8.07
699.993	8.01
700.318	8.1
700.642	8.1
700.966	8.14
701.29	8.19
701.614	8.19
701.938	8.19
702.262	8.22
702.586	8.29
702.91	8.13
703.234	8.02
703.557	7.92
703.881	7.86
704.205	7.85
704.529	7.81
704.852	7.85
705.176	8.04
705.499	7.75
705.823	7.81
706.146	8.07
706.47	8.09
706.793	8.18
707.117	7.98
707.44	7.89
707.763	7.83
708.086	7.82
708.409	7.85
708.733	7.81
709.056	7.72
709.379	7.75
709.702	7.9
710.025	8.07
710.348	8.08
710.671	8.2
710.993	8.09
711.316	8.18
711.639	8.2
711.962	8.17
712.284	8.4
712.607	8.33
712.93	8.08
713.252	8.12
713.575	8.15
713.897	8.35
714.22	8.46
714.542	8.58
714.864	8.29
715.187	8.34
715.509	8.3
715.831	8.32
716.153	8.23
716.475	8.2
716.798	8.22
717.12	8.2
717.442	8.06
717.764	8.13
718.085	8.18
718.407	8.23
718.729	8.14
719.051	8
719.373	8.11
719.695	8.1
720.016	8.1
720.338	8.21
720.659	8.04
720.981	7.94
721.302	7.84
721.624	8.16
721.945	8.09
722.267	8.39
722.588	8.3
722.909	8.35
723.231	8.24
723.552	8.12
723.873	8.04
724.194	8.07
724.515	8.14
724.836	8.09
725.157	8.09
725.478	8.11
725.799	8.32
726.12	8.22
726.441	8.27
726.762	8.1
727.083	7.9
727.403	7.89
727.724	7.95
728.045	7.99
728.365	7.95
728.686	7.84
729.006	7.7
729.327	7.79
729.647	7.75
729.967	7.75
730.288	7.85
730.608	7.91
730.928	7.95
731.249	7.98
731.569	8.02
731.889	8.02
732.209	7.96
732.529	7.99
732.849	7.91
733.169	7.93
733.489	8.04
733.809	8.17
734.129	8.35
734.448	8.22
734.768	7.99
735.088	8.05
735.408	8.14
735.727	8.41
736.047	8.45
736.366	8.63
736.686	8.73
737.005	8.67
737.325	8.78
737.644	8.63
737.963	8.51
738.283	8.45
738.602	8.51
738.921	8.76
739.24	8.65
739.56	8.71
739.879	8.62
740.198	8.6
740.517	8.54
740.836	8.57
741.155	8.72
741.473	8.96
741.792	8.98
742.111	9.42
742.43	9.3
742.748	9.51
743.067	9.36
743.386	9.23
743.704	9.14
744.023	9
744.341	9.11
744.66	9.19
744.978	9.02
745.297	8.99
745.615	8.88
745.933	8.93
746.252	9.19
746.57	9.27
746.888	9.45
747.206	9.53
747.524	9.4
747.842	9.51
748.16	9.18
748.478	9.21
748.796	9.05
749.114	9.13
749.432	9.05
749.749	8.99
750.067	9.02
750.385	9.17
750.703	9.57
751.02	9.78
751.338	9.66
751.655	9.83
751.973	9.78
752.29	9.6
752.608	9.63
752.925	9.59
753.242	9.87
753.56	9.47
753.877	9.31
754.194	9.42
754.511	9.11
754.828	9.3
755.145	9.2
755.462	9.24
755.779	8.78
756.096	8.76
756.413	9.04
756.73	9.03
757.047	8.99
757.364	8.61
757.68	8.7
757.997	8.82
758.314	8.99
758.63	8.66
758.947	8.63
759.264	8.5
759.58	8.47
759.896	8.32
760.213	8.6
760.529	8.6
760.846	8.41
761.162	8.4
761.478	8.34
761.794	8.54
762.11	8.45
762.426	8.62
762.743	8.71
763.059	8.63
763.375	8.6
763.69	8.64
764.006	8.86
764.322	8.69
764.638	8.81
764.954	8.9
765.27	9.27
765.585	9.52
765.901	9.44
766.216	9.51
766.532	9.2
766.848	9.17
767.163	9.45
767.478	9.49
767.794	9.65
768.109	9.9
768.424	9.73
768.74	9.26
769.055	9.39
769.37	9.03
769.685	8.93
770	9.05
770.315	9.23
770.63	9.09
770.945	9.23
771.26	8.97
771.575	8.42
771.89	8.02
772.205	8.06
772.52	8.22
772.834	8.11
773.149	8.22
773.464	8.13
773.778	8.11
774.093	8.38
774.407	8.61
774.722	8.02
775.036	7.66
775.351	8.43
775.665	8.32
775.979	8.48
776.293	8.84
776.608	8.73
776.922	8.38
777.236	8.25
777.55	8.23
777.864	8.29
778.178	8.56
778.492	8.69
778.806	8.65
779.12	8.47
779.434	8.47
779.747	9.02
780.061	9.35
780.375	9.24
780.689	9.08
781.002	9.02
781.316	9.7
781.629	10.24
781.943	10.05
782.256	9.74
782.57	9.29
782.883	9.05
783.196	9.31
783.51	9.3
783.823	9.26
784.136	8.73
784.449	8.73
784.762	9.12
785.075	9.37
785.388	9.24
785.701	9.43
786.014	9.65
786.327	9.67
786.64	9.41
786.953	9.02
787.266	8.58
787.578	8.61
787.891	8.32
788.204	7.91
788.516	8.15
788.829	8.24
789.141	8.51
789.454	8.18
789.766	8.33
790.079	8.57
790.391	8.93
790.703	9.52
791.016	9.73
791.328	8.91
791.64	9.11
791.952	9.06
792.264	8.99
792.576	9.04
792.888	8.76
793.2	8.92
793.512	9.11
793.824	9.73
794.136	9.5
794.448	9.41
794.76	9.99
795.071	9.79
795.383	9.73
795.695	9.99
796.006	9.95
796.318	9.54
796.629	9.51
796.941	9.09
797.252	8.76
797.564	9
797.875	9.76
798.186	9.14
798.497	9.28
798.809	9.21
799.12	8.5
799.431	8.41
799.742	8.34
800.053	8.2
800.364	8.06
800.675	8.11
800.986	8.27
801.297	7.8
801.608	7.46
801.918	7.73
802.229	7.94
802.54	8.09
802.851	7.88
803.161	7.62
803.472	8.29
803.782	8.51
804.093	8
804.403	8.17
804.714	8.46
805.024	8.45
805.334	8.09
805.645	8.44
805.955	8.52
806.265	8.81
806.575	8.92
806.885	8.76
807.195	9.15
807.505	8.94
807.815	9.76
808.125	9.91
808.435	9.85
808.745	9.15
809.055	9.68
809.365	9.54
809.674	9.53
809.984	9.23
810.294	8.94
810.603	8.17
810.913	7.1
811.222	7.53
811.532	7.46
811.841	8.87
812.151	8.84
812.46	9.03
812.769	8.34
813.079	8.89
813.388	9.03
813.697	7.36
814.006	8
814.315	7.09
814.624	7.84
814.933	8.43
815.242	9.38
815.551	9.67
815.86	10.75
816.169	10.68
816.478	10.86
816.786	10.81
817.095	12.02
817.404	12.63
817.712	12.27
818.021	12.41
818.33	11.06
818.638	11.54
818.947	11.86
819.255	12.02
819.563	12.18
819.872	12.18
820.18	12.85
820.488	12.81
820.796	13.07
821.105	13.06
821.413	12.99
821.721	13.03
822.029	12.81
822.337	12.78
822.645	12.87
822.953	12.89
823.26	12.97
823.568	12.84
823.876	12.83
824.184	12.75
824.491	12.76
824.799	12.89
825.107	12.88
825.414	12.74
825.722	12.83
826.029	12.77
826.337	12.86
826.644	13.03
826.951	13.11
827.259	13
827.566	12.77
827.873	12.81
828.18	12.71
828.488	12.76
828.795	12.72
829.102	12.56
829.409	12.29
829.716	12.28
830.023	12.24
830.329	12.14
830.636	12.22
830.943	12.04
831.25	12.11
831.557	11.6
831.863	11.64
832.17	11.15
832.476	11.34
832.783	11.34
833.089	11
833.396	10.71
833.702	10.35
834.009	10.88
834.315	10.93
834.621	10.85
834.928	10.56
835.234	10.95
835.54	11.17
835.846	11.12
836.152	11
836.458	10.84
836.764	11.09
837.07	10.81
837.376	10.71
837.682	10.87
837.988	11.05
838.293	10.81
838.599	11.15
838.905	10.27
839.211	9.92
839.516	9.07
839.822	9.28
840.127	9.14
840.433	8.37
840.738	7.19
841.044	6.52
841.349	6.33
841.654	5
841.959	4.47
842.265	3.95
842.57	4.49
842.875	4.2
843.18	3.67
843.485	4.8
843.79	3.51
844.095	2.63
844.4	3.52
844.705	3.78
845.01	4.19
845.315	4.98
845.619	5.44
845.924	5.86
846.229	4.72
846.533	5.17
846.838	3.48
847.142	3.48
847.447	5.44
847.751	6.37
848.056	5.68
848.36	6.45
848.664	7.96
848.969	5.96
849.273	7.25
849.577	6.8
849.881	5.97
850.185	7.74
850.489	8.86
850.794	8.21
851.097	8.55
851.401	5.3
851.705	5.1
852.009	4.39
852.313	2.27
852.617	2.77
852.92	3.21
853.224	5
853.528	3.54
853.831	1.42
854.135	1.91
854.438	2.81
854.742	1.24
855.045	0.2
855.349	2.02
855.652	2.15
855.955	3.15
856.259	0.67
856.562	-0.25
856.865	0.39
857.168	-0.66
857.471	-2.03
857.774	1.49
858.077	-1.24
858.38	-2.4
858.683	1.52
858.986	1.54
859.289	3.24
859.592	3.34
859.894	4.3
860.197	2.58
860.5	2.15
860.802	0.06
861.105	0.91
861.407	0.44
861.71	-1.53
862.012	-1.78
862.315	-1.33
862.617	1.16
862.919	1
863.222	0.39
863.524	0.57
863.826	0.32
864.128	-0.69
864.43	1.41
864.732	2.33
865.034	1.59
865.336	-1.25
865.638	-3.39
865.94	-4.21
866.242	-4.29
866.544	-0.02
866.846	-1.19
867.147	0.98
867.449	-0.81
867.751	1.04
868.052	0.69
868.354	0.38
868.655	-1.21
868.957	-1.34
869.258	-0.66
869.56	-3.84
869.861	-5.57
870.162	-3.96
870.463	-3.03
870.765	-3.25
871.066	-3.01
871.367	-5.03
871.668	-4.56
871.969	-6.09
872.27	-6.06
872.571	-4.6
872.872	-8.93
873.173	-7.56
873.473	-7.37
873.774	-6.51
874.075	-9.01
874.376	-7.94
874.676	-7.58
874.977	-7.15
875.277	-9.87
875.578	-8.42
875.878	-6.28
876.179	-4.53
876.479	-5.66
876.78	-6.83
877.08	-7.78
877.38	-8.69
877.68	-7.37
877.981	-4.66
878.281	-2.15
878.581	-1.64
