Data from MVZ_BU62167_Reflection_00007.txt Node
Date: Tue Nov 19 12:14:31 EST 2019
User: vgr7
Spectrometer: USB2G7710
Scans to average: 3
Trigger mode: 4
Integration Time (sec): 2.000000E-2
Electric dark correction enabled: true
Boxcar width: 10
XAxis mode: Wavelengths
Number of Pixels in Spectrum: 2048
>>>>>Begin Spectral Data<<<<<
177.721	24.61
178.105	-388.1
178.488	-367.14
178.871	-49.12
179.254	-50.98
179.636	34.71
180.019	-39.12
180.402	37.5
180.785	626.67
181.168	-207.02
181.55	73.43
181.933	101.92
182.316	68.16
182.698	-82.17
183.081	525.93
183.463	18.3
183.846	-165.43
184.228	50.98
184.611	-41.03
184.993	19.21
185.376	16.35
185.758	48.17
186.14	22.22
186.522	193.87
186.904	254.9
187.287	389.95
187.669	703.03
188.051	650.31
188.433	11822.22
188.815	1992.16
189.197	546.5
189.579	-923.81
189.961	-801.13
190.342	612.58
190.724	1584.13
191.106	132.91
191.488	81.62
191.869	117.63
192.251	170.14
192.633	206.7
193.014	140.63
193.396	124.57
193.777	104.15
194.159	47.25
194.54	29.85
194.922	30.89
195.303	5.96
195.684	0.47
196.065	-13.7
196.447	-4.84
196.828	0.91
197.209	-37.14
197.59	-34.09
197.971	-51.07
198.352	-39.81
198.733	-30.04
199.114	-9.91
199.495	3.97
199.876	-16.27
200.257	-32.78
200.638	-17.95
201.018	-11.54
201.399	-1.05
201.78	-3.66
202.16	-3.46
202.541	-28.6
202.922	-41.07
203.302	-31.52
203.683	-28.84
204.063	-15.31
204.444	-15.11
204.824	-16.12
205.204	-10.28
205.585	1.72
205.965	4.43
206.345	14.21
206.725	24.93
207.106	23.77
207.486	27.36
207.866	20.68
208.246	35.95
208.626	40.3
209.006	44.29
209.386	41.66
209.766	39.82
210.145	43.15
210.525	44.99
210.905	42.4
211.285	39.77
211.664	39
212.044	44.6
212.424	43.62
212.803	35.84
213.183	50.56
213.562	33.93
213.942	31.29
214.321	24.21
214.701	25.35
215.08	25.99
215.459	30.39
215.838	26.11
216.218	14.25
216.597	12.56
216.976	2.22
217.355	-8.25
217.734	-7.9
218.113	-9.25
218.492	-11.05
218.871	0.69
219.25	5.4
219.629	-1.68
220.008	-8.51
220.387	-8.13
220.766	2.98
221.144	3.98
221.523	6.85
221.902	18.67
222.28	14.59
222.659	12.84
223.037	4.09
223.416	2.37
223.794	8.06
224.173	6.09
224.551	11.57
224.929	14.54
225.308	13.13
225.686	9.68
226.064	8.02
226.442	6.96
226.821	5.49
227.199	2.06
227.577	7.54
227.955	8.22
228.333	5.04
228.711	1.3
229.089	-1.42
229.467	-3.25
229.845	-7.93
230.222	-4.66
230.6	-9.71
230.978	-3.77
231.356	-5.91
231.733	-2.29
232.111	-0.35
232.488	0.02
232.866	1.49
233.243	2.38
233.621	5.78
233.998	6.88
234.376	10.35
234.753	10.07
235.13	11.43
235.508	11.23
235.885	10.32
236.262	10.74
236.639	10.31
237.016	8.22
237.393	8.01
237.77	9.63
238.147	9.46
238.524	10.77
238.901	8.94
239.278	9.05
239.655	7.11
240.032	6.44
240.409	6.15
240.785	5.45
241.162	5.3
241.539	5.02
241.915	5.44
242.292	5.24
242.668	5.36
243.045	5.77
243.421	5.49
243.798	5.27
244.174	4.77
244.551	4.82
244.927	5.18
245.303	5.04
245.679	4.52
246.056	3.94
246.432	3.86
246.808	4.01
247.184	4.09
247.56	4.45
247.936	4.6
248.312	4.45
248.688	4.63
249.064	4.55
249.44	4.33
249.815	4.35
250.191	4.14
250.567	3.73
250.943	3.41
251.318	3.31
251.694	3.45
252.069	3.57
252.445	3.33
252.82	3.44
253.196	3.69
253.571	4.36
253.947	4.49
254.322	4.59
254.697	4.26
255.073	3.76
255.448	3.48
255.823	3.53
256.198	3.65
256.573	3.98
256.948	3.96
257.323	4.08
257.698	3.82
258.073	3.83
258.448	3.99
258.823	3.87
259.198	3.8
259.573	3.73
259.948	3.65
260.322	3.64
260.697	3.68
261.072	3.69
261.446	3.5
261.821	3.46
262.195	3.39
262.57	3.49
262.944	3.59
263.319	3.63
263.693	3.47
264.067	3.4
264.442	3.21
264.816	3.23
265.19	3.18
265.564	3.28
265.938	3.15
266.313	3.08
266.687	3.01
267.061	2.97
267.435	3.18
267.809	3.1
268.183	3.24
268.556	3.42
268.93	3.34
269.304	3.24
269.678	3.39
270.051	3.48
270.425	3.41
270.799	3.41
271.172	3.38
271.546	3.35
271.919	3.2
272.293	3.14
272.666	3.25
273.04	3.21
273.413	2.99
273.787	2.99
274.16	3.09
274.533	3.32
274.906	3.47
275.279	3.24
275.653	3.48
276.026	3.43
276.399	3.18
276.772	3.11
277.145	3.02
277.518	3
277.891	2.83
278.263	2.97
278.636	2.93
279.009	2.89
279.382	2.91
279.755	3.03
280.127	3.11
280.5	3.09
280.872	3.14
281.245	3.28
281.617	3.39
281.99	3.29
282.362	3.21
282.735	3.14
283.107	3.13
283.479	3.11
283.852	3.1
284.224	3.13
284.596	3.2
284.968	3.31
285.34	3.28
285.713	3.23
286.085	3.09
286.457	3.15
286.829	3.16
287.201	3.12
287.572	3.24
287.944	3.19
288.316	3.25
288.688	3.21
289.06	3.24
289.431	3.3
289.803	3.43
290.175	3.46
290.546	3.56
290.918	3.67
291.289	3.47
291.661	3.57
292.032	3.57
292.403	3.56
292.775	3.61
293.146	3.76
293.517	3.74
293.889	3.75
294.26	3.87
294.631	4.09
295.002	4.18
295.373	4.19
295.744	4.13
296.115	4.13
296.486	4.19
296.857	4.28
297.228	4.17
297.599	4.14
297.97	4.22
298.34	4.19
298.711	4.19
299.082	4.38
299.452	4.32
299.823	4.21
300.194	4.2
300.564	4.24
300.935	4.23
301.305	4.22
301.676	4.16
302.046	4.07
302.416	3.95
302.787	3.98
303.157	3.91
303.527	4.06
303.897	3.98
304.267	4.05
304.637	4.11
305.008	4.15
305.378	4.24
305.748	4.22
306.117	4.17
306.487	4.1
306.857	4.08
307.227	4.24
307.597	4.37
307.967	4.35
308.336	4.27
308.706	4.19
309.076	4.43
309.445	4.69
309.815	4.69
310.184	4.75
310.554	4.84
310.923	4.84
311.293	4.79
311.662	4.84
312.031	4.85
312.401	4.67
312.77	4.59
313.139	4.68
313.508	4.55
313.877	4.59
314.246	4.73
314.616	4.83
314.985	4.74
315.353	4.83
315.722	4.95
316.091	5
316.46	5.17
316.829	5.13
317.198	5.04
317.567	5.24
317.935	5.08
318.304	5.27
318.672	5.39
319.041	5.38
319.41	5.35
319.778	5.32
320.147	5.43
320.515	5.62
320.883	5.42
321.252	5.44
321.62	5.52
321.988	5.41
322.357	5.29
322.725	5.38
323.093	5.29
323.461	5.29
323.829	5.33
324.197	5.22
324.565	5.42
324.933	5.4
325.301	5.19
325.669	5.2
326.037	5.11
326.405	5.08
326.772	5.11
327.14	5.22
327.508	5.29
327.875	5.37
328.243	5.37
328.61	5.51
328.978	5.5
329.346	5.6
329.713	5.75
330.08	5.91
330.448	5.97
330.815	6.05
331.182	6.17
331.55	6.13
331.917	6.07
332.284	6
332.651	6
333.018	6.02
333.385	6.16
333.752	6.05
334.119	6.14
334.486	6.17
334.853	6.14
335.22	6.07
335.587	5.99
335.954	5.94
336.32	5.82
336.687	6.02
337.054	5.9
337.42	5.95
337.787	5.96
338.153	5.95
338.52	6.04
338.886	6.07
339.253	6.08
339.619	6.18
339.986	6.15
340.352	6.18
340.718	6.32
341.084	6.3
341.451	6.3
341.817	6.19
342.183	6.24
342.549	6.32
342.915	6.46
343.281	6.57
343.647	6.63
344.013	6.66
344.379	6.68
344.745	6.74
345.11	6.63
345.476	6.78
345.842	6.7
346.208	6.61
346.573	6.6
346.939	6.58
347.304	6.54
347.67	6.5
348.035	6.48
348.401	6.38
348.766	6.4
349.132	6.44
349.497	6.45
349.862	6.49
350.228	6.4
350.593	6.3
350.958	6.32
351.323	6.32
351.688	6.36
352.053	6.19
352.418	6.19
352.783	6.18
353.148	6.01
353.513	6.06
353.878	6.02
354.243	5.94
354.608	6.12
354.972	6.15
355.337	6.16
355.702	6.21
356.066	6.29
356.431	6.24
356.795	6.19
357.16	6.25
357.524	6.13
357.889	6.15
358.253	6.15
358.618	6.11
358.982	6.12
359.346	6.11
359.71	6.2
360.075	6.23
360.439	6.23
360.803	6.32
361.167	6.32
361.531	6.37
361.895	6.39
362.259	6.36
362.623	6.39
362.987	6.38
363.351	6.3
363.714	6.22
364.078	6.26
364.442	6.27
364.806	6.24
365.169	6.31
365.533	6.34
365.896	6.35
366.26	6.38
366.623	6.35
366.987	6.31
367.35	6.33
367.714	6.31
368.077	6.34
368.44	6.23
368.803	6.12
369.167	6.09
369.53	6.04
369.893	5.94
370.256	5.83
370.619	5.82
370.982	5.8
371.345	5.9
371.708	5.88
372.071	5.88
372.434	5.87
372.797	5.79
373.159	5.69
373.522	5.64
373.885	5.52
374.247	5.48
374.61	5.55
374.973	5.5
375.335	5.42
375.698	5.29
376.06	5.22
376.423	5.32
376.785	5.34
377.147	5.3
377.51	5.21
377.872	5.2
378.234	5.2
378.596	5.21
378.958	5.16
379.321	5.09
379.683	5.03
380.045	4.96
380.407	4.95
380.769	4.95
381.13	4.91
381.492	4.93
381.854	4.96
382.216	4.89
382.578	4.84
382.939	4.78
383.301	4.85
383.663	4.82
384.024	4.77
384.386	4.7
384.747	4.66
385.109	4.71
385.47	4.7
385.832	4.64
386.193	4.66
386.554	4.58
386.916	4.59
387.277	4.56
387.638	4.51
387.999	4.5
388.36	4.46
388.721	4.46
389.082	4.45
389.443	4.43
389.804	4.41
390.165	4.41
390.526	4.43
390.887	4.38
391.248	4.35
391.609	4.34
391.969	4.28
392.33	4.27
392.691	4.2
393.051	4.16
393.412	4.19
393.772	4.13
394.133	4.11
394.493	4.04
394.854	4.02
395.214	4.03
395.574	4.01
395.935	3.97
396.295	3.89
396.655	3.83
397.015	3.77
397.376	3.75
397.736	3.67
398.096	3.61
398.456	3.58
398.816	3.58
399.176	3.47
399.535	3.49
399.895	3.48
400.255	3.52
400.615	3.54
400.975	3.48
401.334	3.48
401.694	3.52
402.054	3.53
402.413	3.56
402.773	3.57
403.132	3.57
403.492	3.57
403.851	3.61
404.211	3.64
404.57	3.68
404.929	3.66
405.288	3.7
405.648	3.72
406.007	3.71
406.366	3.68
406.725	3.71
407.084	3.69
407.443	3.71
407.802	3.67
408.161	3.68
408.52	3.68
408.879	3.68
409.238	3.65
409.596	3.67
409.955	3.63
410.314	3.61
410.673	3.58
411.031	3.57
411.39	3.56
411.748	3.53
412.107	3.5
412.465	3.47
412.824	3.42
413.182	3.39
413.54	3.43
413.899	3.42
414.257	3.41
414.615	3.4
414.974	3.39
415.332	3.42
415.69	3.4
416.048	3.42
416.406	3.38
416.764	3.37
417.122	3.34
417.48	3.33
417.838	3.33
418.195	3.33
418.553	3.33
418.911	3.31
419.269	3.3
419.626	3.3
419.984	3.28
420.342	3.29
420.699	3.29
421.057	3.27
421.414	3.28
421.772	3.29
422.129	3.27
422.486	3.27
422.844	3.24
423.201	3.23
423.558	3.21
423.915	3.22
424.273	3.22
424.63	3.24
424.987	3.24
425.344	3.21
425.701	3.21
426.058	3.2
426.415	3.2
426.772	3.19
427.128	3.18
427.485	3.2
427.842	3.2
428.199	3.21
428.555	3.2
428.912	3.22
429.269	3.19
429.625	3.21
429.982	3.19
430.338	3.2
430.695	3.2
431.051	3.23
431.407	3.21
431.764	3.2
432.12	3.2
432.476	3.21
432.832	3.23
433.189	3.21
433.545	3.22
433.901	3.22
434.257	3.21
434.613	3.23
434.969	3.21
435.325	3.22
435.681	3.23
436.036	3.24
436.392	3.22
436.748	3.23
437.104	3.23
437.459	3.23
437.815	3.23
438.171	3.22
438.526	3.2
438.882	3.22
439.237	3.22
439.593	3.23
439.948	3.21
440.304	3.19
440.659	3.21
441.014	3.22
441.369	3.21
441.725	3.22
442.08	3.21
442.435	3.23
442.79	3.21
443.145	3.2
443.5	3.21
443.855	3.2
444.21	3.22
444.565	3.23
444.92	3.23
445.275	3.22
445.629	3.23
445.984	3.21
446.339	3.21
446.693	3.19
447.048	3.16
447.403	3.16
447.757	3.18
448.112	3.17
448.466	3.15
448.82	3.16
449.175	3.18
449.529	3.17
449.883	3.16
450.238	3.16
450.592	3.16
450.946	3.13
451.3	3.12
451.654	3.08
452.008	3.08
452.362	3.07
452.716	3.06
453.07	3.07
453.424	3.07
453.778	3.06
454.132	3.07
454.486	3.08
454.839	3.07
455.193	3.06
455.547	3.06
455.9	3.06
456.254	3.09
456.607	3.08
456.961	3.08
457.314	3.09
457.668	3.11
458.021	3.1
458.375	3.1
458.728	3.11
459.081	3.13
459.434	3.13
459.787	3.15
460.141	3.16
460.494	3.14
460.847	3.17
461.2	3.17
461.553	3.18
461.906	3.18
462.259	3.21
462.611	3.21
462.964	3.22
463.317	3.23
463.67	3.22
464.022	3.22
464.375	3.22
464.728	3.22
465.08	3.23
465.433	3.22
465.785	3.25
466.138	3.26
466.49	3.28
466.843	3.3
467.195	3.31
467.547	3.3
467.899	3.33
468.252	3.33
468.604	3.33
468.956	3.34
469.308	3.33
469.66	3.33
470.012	3.34
470.364	3.34
470.716	3.34
471.068	3.36
471.42	3.36
471.772	3.38
472.123	3.39
472.475	3.37
472.827	3.4
473.178	3.42
473.53	3.42
473.882	3.4
474.233	3.38
474.585	3.37
474.936	3.37
475.288	3.38
475.639	3.37
475.99	3.37
476.342	3.36
476.693	3.36
477.044	3.36
477.395	3.36
477.746	3.35
478.097	3.35
478.448	3.32
478.8	3.32
479.15	3.31
479.501	3.29
479.852	3.31
480.203	3.3
480.554	3.29
480.905	3.3
481.255	3.29
481.606	3.29
481.957	3.3
482.307	3.3
482.658	3.29
483.009	3.29
483.359	3.31
483.709	3.32
484.06	3.32
484.41	3.32
484.761	3.32
485.111	3.33
485.461	3.34
485.811	3.34
486.162	3.35
486.512	3.35
486.862	3.36
487.212	3.36
487.562	3.36
487.912	3.36
488.262	3.36
488.612	3.37
488.961	3.38
489.311	3.38
489.661	3.39
490.011	3.41
490.36	3.42
490.71	3.41
491.06	3.42
491.409	3.43
491.759	3.45
492.108	3.45
492.458	3.44
492.807	3.44
493.157	3.46
493.506	3.48
493.855	3.48
494.204	3.47
494.554	3.49
494.903	3.51
495.252	3.53
495.601	3.55
495.95	3.57
496.299	3.58
496.648	3.64
496.997	3.65
497.346	3.7
497.695	3.72
498.043	3.74
498.392	3.77
498.741	3.82
499.09	3.84
499.438	3.89
499.787	3.93
500.135	3.96
500.484	3.98
500.832	4.01
501.181	4.06
501.529	4.14
501.878	4.19
502.226	4.26
502.574	4.3
502.923	4.36
503.271	4.45
503.619	4.52
503.967	4.53
504.315	4.59
504.663	4.63
505.011	4.7
505.359	4.78
505.707	4.84
506.055	4.89
506.403	4.95
506.751	4.99
507.098	5.09
507.446	5.16
507.794	5.23
508.141	5.32
508.489	5.41
508.837	5.48
509.184	5.56
509.531	5.61
509.879	5.71
510.226	5.77
510.574	5.83
510.921	5.91
511.268	6.01
511.616	6.07
511.963	6.15
512.31	6.25
512.657	6.34
513.004	6.44
513.351	6.52
513.698	6.6
514.045	6.72
514.392	6.83
514.739	6.93
515.086	7.05
515.432	7.17
515.779	7.24
516.126	7.35
516.473	7.41
516.819	7.53
517.166	7.6
517.512	7.68
517.859	7.79
518.205	7.85
518.552	7.95
518.898	8.03
519.245	8.13
519.591	8.21
519.937	8.3
520.283	8.36
520.629	8.48
520.976	8.57
521.322	8.69
521.668	8.78
522.014	8.9
522.36	9.01
522.706	9.1
523.052	9.23
523.398	9.36
523.743	9.52
524.089	9.65
524.435	9.79
524.781	9.92
525.126	10.02
525.472	10.14
525.817	10.23
526.163	10.33
526.509	10.42
526.854	10.51
527.199	10.61
527.545	10.72
527.89	10.8
528.235	10.91
528.581	11
528.926	11.1
529.271	11.21
529.616	11.3
529.961	11.41
530.306	11.5
530.651	11.6
530.996	11.72
531.341	11.84
531.686	11.98
532.031	12.11
532.376	12.25
532.721	12.41
533.065	12.55
533.41	12.71
533.755	12.88
534.099	13.04
534.444	13.22
534.788	13.35
535.133	13.54
535.477	13.71
535.822	13.88
536.166	14.08
536.51	14.28
536.855	14.5
537.199	14.73
537.543	15.01
537.887	15.26
538.231	15.49
538.576	15.72
538.92	15.96
539.264	16.21
539.608	16.45
539.951	16.64
540.295	16.86
540.639	17.07
540.983	17.25
541.327	17.45
541.671	17.63
542.014	17.86
542.358	18.04
542.701	18.22
543.045	18.43
543.389	18.62
543.732	18.82
544.075	19.02
544.419	19.23
544.762	19.46
545.105	19.69
545.449	19.96
545.792	20.21
546.135	20.46
546.478	20.72
546.821	20.99
547.165	21.32
547.508	21.61
547.851	21.91
548.194	22.23
548.536	22.54
548.879	22.84
549.222	23.16
549.565	23.44
549.908	23.76
550.25	24.07
550.593	24.4
550.936	24.77
551.278	25.13
551.621	25.45
551.963	25.73
552.306	26.04
552.648	26.33
552.991	26.65
553.333	26.96
553.675	27.3
554.017	27.58
554.36	27.88
554.702	28.18
555.044	28.45
555.386	28.78
555.728	29.07
556.07	29.32
556.412	29.59
556.754	29.94
557.096	30.26
557.438	30.59
557.78	30.9
558.121	31.21
558.463	31.5
558.805	31.82
559.147	32.16
559.488	32.43
559.83	32.75
560.171	33.06
560.513	33.33
560.854	33.57
561.196	33.83
561.537	34.11
561.878	34.37
562.22	34.63
562.561	34.89
562.902	35.18
563.243	35.42
563.584	35.61
563.925	35.85
564.266	36.12
564.607	36.35
564.948	36.58
565.289	36.77
565.63	36.95
565.971	37.13
566.312	37.3
566.653	37.56
566.993	37.76
567.334	37.99
567.675	38.22
568.015	38.44
568.356	38.7
568.696	38.84
569.037	39.03
569.377	39.23
569.718	39.47
570.058	39.64
570.398	39.9
570.739	40.11
571.079	40.3
571.419	40.46
571.759	40.67
572.099	40.83
572.439	41.02
572.779	41.19
573.119	41.36
573.459	41.55
573.799	41.66
574.139	41.79
574.479	41.96
574.819	42.12
575.158	42.36
575.498	42.47
575.838	42.68
576.177	42.85
576.517	43.01
576.856	43.1
577.196	43.25
577.535	43.39
577.875	43.61
578.214	43.72
578.553	43.85
578.893	43.97
579.232	44.13
579.571	44.34
579.91	44.51
580.25	44.67
580.589	44.78
580.928	44.95
581.267	45.08
581.606	45.2
581.945	45.38
582.283	45.37
582.622	45.49
582.961	45.6
583.3	45.72
583.639	45.8
583.977	45.97
584.316	46.13
584.654	46.3
584.993	46.34
585.332	46.52
585.67	46.65
586.008	46.75
586.347	46.83
586.685	46.81
587.024	46.86
587.362	46.95
587.7	47.09
588.038	47.18
588.376	47.35
588.715	47.4
589.053	47.49
589.391	47.61
589.729	47.77
590.067	47.83
590.404	47.91
590.742	47.99
591.08	48.02
591.418	48.08
591.756	48.11
592.093	48.23
592.431	48.29
592.769	48.34
593.106	48.46
593.444	48.59
593.781	48.79
594.119	48.94
594.456	49.01
594.793	49.1
595.131	49.15
595.468	49.22
595.805	49.35
596.143	49.43
596.48	49.46
596.817	49.49
597.154	49.6
597.491	49.66
597.828	49.84
598.165	49.93
598.502	50.01
598.839	50.03
599.176	50.17
599.512	50.26
599.849	50.34
600.186	50.41
600.523	50.51
600.859	50.47
601.196	50.56
601.532	50.75
601.869	50.86
602.205	50.97
602.542	51.02
602.878	51.07
603.215	51.07
603.551	51.19
603.887	51.22
604.223	51.3
604.56	51.3
604.896	51.27
605.232	51.39
605.568	51.36
605.904	51.45
606.24	51.49
606.576	51.5
606.912	51.58
607.248	51.62
607.583	51.64
607.919	51.74
608.255	51.77
608.591	51.8
608.926	51.79
609.262	51.79
609.597	51.82
609.933	51.82
610.268	51.88
610.604	51.89
610.939	51.95
611.275	51.97
611.61	52.07
611.945	52.17
612.281	52.13
612.616	52.29
612.951	52.35
613.286	52.28
613.621	52.37
613.956	52.41
614.291	52.45
614.626	52.47
614.961	52.6
615.296	52.64
615.631	52.67
615.966	52.69
616.3	52.77
616.635	52.9
616.97	52.96
617.304	53
617.639	52.98
617.973	53.03
618.308	53.04
618.642	53.07
618.977	53.1
619.311	53.14
619.646	53.17
619.98	53.24
620.314	53.33
620.648	53.42
620.983	53.44
621.317	53.43
621.651	53.47
621.985	53.4
622.319	53.45
622.653	53.43
622.987	53.54
623.321	53.54
623.655	53.47
623.988	53.52
624.322	53.58
624.656	53.68
624.99	53.7
625.323	53.69
625.657	53.67
625.99	53.73
626.324	53.77
626.657	53.69
626.991	53.78
627.324	53.81
627.658	53.86
627.991	53.87
628.324	53.9
628.657	53.98
628.991	54.11
629.324	54.09
629.657	54.1
629.99	54.07
630.323	54.19
630.656	54.24
630.989	54.19
631.322	54.19
631.655	54.24
631.987	54.18
632.32	54.34
632.653	54.5
632.986	54.47
633.318	54.45
633.651	54.53
633.984	54.39
634.316	54.45
634.649	54.35
634.981	54.48
635.313	54.55
635.646	54.56
635.978	54.55
636.31	54.56
636.643	54.61
636.975	54.64
637.307	54.52
637.639	54.56
637.971	54.63
638.303	54.67
638.635	54.61
638.967	54.86
639.299	54.82
639.631	54.83
639.963	54.87
640.295	54.9
640.626	54.89
640.958	54.98
641.29	55.01
641.621	55.07
641.953	55.02
642.285	55.07
642.616	55.07
642.948	55.01
643.279	54.99
643.61	54.98
643.942	54.99
644.273	55.14
644.604	55.11
644.936	55.2
645.267	55.11
645.598	55.13
645.929	55.08
646.26	55.06
646.591	55.1
646.922	55.09
647.253	55.2
647.584	55.32
647.915	55.32
648.245	55.24
648.576	55.25
648.907	55.37
649.238	55.37
649.568	55.46
649.899	55.57
650.229	55.63
650.56	55.71
650.89	55.77
651.221	55.76
651.551	55.82
651.882	55.96
652.212	56.06
652.542	56.13
652.872	56.03
653.203	56.03
653.533	55.94
653.863	56.02
654.193	55.94
654.523	55.95
654.853	55.96
655.183	56.08
655.513	56.2
655.843	56.06
656.172	55.98
656.502	56.01
656.832	56.07
657.162	56.23
657.491	56.18
657.821	56.24
658.15	56.24
658.48	56.17
658.809	56.02
659.139	56.01
659.468	56.07
659.798	56.19
660.127	56.18
660.456	56.26
660.785	56.33
661.115	56.27
661.444	56.23
661.773	56.19
662.102	56.09
662.431	56.03
662.76	56.2
663.089	56.43
663.418	56.28
663.747	56.15
664.076	56.05
664.404	56.13
664.733	56.1
665.062	56.17
665.39	56.22
665.719	56.27
666.048	56.24
666.376	56.28
666.705	56.13
667.033	56.28
667.362	56.27
667.69	56.11
668.018	56.21
668.347	56.31
668.675	56.45
669.003	56.52
669.331	56.42
669.659	56.36
669.987	56.16
670.315	56.19
670.643	56.24
670.971	56.22
671.299	56.14
671.627	56.15
671.955	56.18
672.283	56.25
672.61	56.14
672.938	56.3
673.266	56.29
673.593	56.38
673.921	56.23
674.249	56.17
674.576	56.28
674.904	56.33
675.231	56.31
675.558	56.36
675.886	56.49
676.213	56.63
676.54	56.61
676.867	56.63
677.195	56.68
677.522	56.63
677.849	56.79
678.176	56.76
678.503	56.79
678.83	56.77
679.157	56.75
679.484	56.75
679.81	56.63
680.137	56.57
680.464	56.54
680.791	56.56
681.117	56.64
681.444	56.62
681.771	56.6
682.097	56.75
682.424	56.69
682.75	56.62
683.077	56.69
683.403	56.54
683.729	56.51
684.056	56.51
684.382	56.67
684.708	56.52
685.034	56.69
685.36	56.54
685.686	56.58
686.012	56.68
686.339	56.76
686.664	56.8
686.99	56.79
687.316	56.91
687.642	56.95
687.968	56.94
688.294	57.05
688.619	57.08
688.945	56.96
689.271	56.95
689.596	56.87
689.922	56.66
690.247	56.76
690.573	56.82
690.898	56.81
691.224	56.67
691.549	56.75
691.874	56.62
692.2	56.77
692.525	56.6
692.85	56.49
693.175	56.57
693.5	56.69
693.825	56.74
694.15	56.79
694.475	56.9
694.8	56.83
695.125	56.92
695.45	56.9
695.775	56.92
696.099	56.93
696.424	57.12
696.749	57.33
697.073	57.33
697.398	57.34
697.723	57.31
698.047	57.27
698.372	57.22
698.696	57.27
699.02	57.05
699.345	57.13
699.669	57.12
699.993	56.92
700.318	56.92
700.642	56.9
700.966	56.96
701.29	56.74
701.614	56.79
701.938	56.61
702.262	56.54
702.586	56.41
702.91	56.45
703.234	56.21
703.557	56.1
703.881	56.28
704.205	56.29
704.529	56.35
704.852	56.37
705.176	56.37
705.499	56.31
705.823	56.68
706.146	56.8
706.47	56.78
706.793	57.01
707.117	56.75
707.44	56.86
707.763	56.7
708.086	56.93
708.409	56.96
708.733	57.04
709.056	57.1
709.379	57.29
709.702	57.3
710.025	57.5
710.348	57.61
710.671	57.44
710.993	57.5
711.316	57.42
711.639	57.51
711.962	57.47
712.284	57.62
712.607	57.6
712.93	57.36
713.252	57.48
713.575	57.72
713.897	57.97
714.22	57.92
714.542	57.89
714.864	57.83
715.187	57.72
715.509	57.59
715.831	57.51
716.153	57.41
716.475	57.34
716.798	57.31
717.12	57.03
717.442	57.12
717.764	57.08
718.085	57.32
718.407	57.26
718.729	57.4
719.051	57.19
719.373	57.06
719.695	57.16
720.016	57.16
720.338	56.94
720.659	56.89
720.981	56.79
721.302	56.96
721.624	56.92
721.945	57.33
722.267	57.29
722.588	57.4
722.909	57.35
723.231	57.28
723.552	57.32
723.873	57.41
724.194	57.56
724.515	57.63
724.836	57.51
725.157	57.72
725.478	57.74
725.799	57.8
726.12	57.7
726.441	58.08
726.762	58.02
727.083	57.96
727.403	57.85
727.724	57.9
728.045	57.9
728.365	57.77
728.686	57.36
729.006	57.42
729.327	57.49
729.647	57.62
729.967	57.7
730.288	57.65
730.608	57.96
730.928	57.94
731.249	57.77
731.569	57.84
731.889	57.5
732.209	57.37
732.529	57.22
732.849	57.35
733.169	56.98
733.489	56.88
733.809	56.42
734.129	56.38
734.448	56.28
734.768	56.33
735.088	56.5
735.408	56.74
735.727	56.63
736.047	56.66
736.366	56.34
736.686	56.48
737.005	56.48
737.325	56.06
737.644	55.95
737.963	56.22
738.283	55.82
738.602	56.23
738.921	56.15
739.24	56.23
739.56	56.54
739.879	56.61
740.198	56.69
740.517	57.24
740.836	57.44
741.155	57.58
741.473	57.5
741.792	57.73
742.111	57.96
742.43	58.09
742.748	57.88
743.067	58.01
743.386	57.82
743.704	57.57
744.023	57.7
744.341	57.6
744.66	57.16
744.978	57.61
745.297	57.39
745.615	57.63
745.933	57.8
746.252	57.49
746.57	57.85
746.888	58.06
747.206	57.92
747.524	57.88
747.842	57.91
748.16	58.03
748.478	57.86
748.796	57.37
749.114	57.62
749.432	57.9
749.749	57.91
750.067	57.87
750.385	58.16
750.703	58.35
751.02	58.47
751.338	58.73
751.655	58.53
751.973	58.14
752.29	58.07
752.608	57.73
752.925	57.58
753.242	57.29
753.56	56.91
753.877	57.02
754.194	56.93
754.511	56.97
754.828	56.61
755.145	56.68
755.462	56.78
755.779	56.6
756.096	56.74
756.413	56.97
756.73	57.09
757.047	56.55
757.364	56.62
757.68	56.71
757.997	56.86
758.314	57.12
758.63	57.25
758.947	57.37
759.264	57.36
759.58	57.46
759.896	57.4
760.213	57.38
760.529	57.34
760.846	57.3
761.162	57.37
761.478	57.5
761.794	57.78
762.11	57.69
762.426	57.66
762.743	57.63
763.059	57.59
763.375	57.9
763.69	58.43
764.006	58.39
764.322	58.33
764.638	58.66
764.954	58.71
765.27	58.73
765.585	58.69
765.901	58.86
766.216	58.63
766.532	58.46
766.848	58.61
767.163	58.7
767.478	58.97
767.794	58.68
768.109	59
768.424	58.55
768.74	58.76
769.055	58.91
769.37	58.71
769.685	58.69
770	58.31
770.315	58.37
770.63	58.21
770.945	58.38
771.26	57.6
771.575	57.49
771.89	57.91
772.205	57.8
772.52	58.17
772.834	58.51
773.149	58.5
773.464	58.81
773.778	58.6
774.093	58.28
774.407	58.73
774.722	58.3
775.036	58.28
775.351	58.1
775.665	57.76
775.979	57.8
776.293	57.59
776.608	57.33
776.922	56.92
777.236	57.18
777.55	56.96
777.864	56.83
778.178	56.75
778.492	56.85
778.806	57.21
779.12	57.54
779.434	57.86
779.747	58.57
780.061	58.26
780.375	58.83
780.689	59.32
781.002	59.23
781.316	59.14
781.629	59.21
781.943	59.56
782.256	60.16
782.57	59.95
782.883	60.73
783.196	60.99
783.51	61.23
783.823	61.16
784.136	61.18
784.449	61.31
784.762	60.89
785.075	60.34
785.388	59.7
785.701	59.13
786.014	59.61
786.327	59.14
786.64	59.3
786.953	59.22
787.266	59.04
787.578	59.04
787.891	59.29
788.204	59.14
788.516	59.1
788.829	58.86
789.141	59.09
789.454	58.74
789.766	58.48
790.079	58.19
790.391	57.77
790.703	57.67
791.016	58.17
791.328	58.35
791.64	58.35
791.952	58.74
792.264	58.51
792.576	57.93
792.888	58.02
793.2	57.73
793.512	57.67
793.824	57.78
794.136	57.58
794.448	57.4
794.76	57.89
795.071	57.62
795.383	57.76
795.695	57.7
796.006	58.08
796.318	58.37
796.629	58.56
796.941	58.93
797.252	58.72
797.564	58.59
797.875	58.9
798.186	59.68
798.497	59.51
798.809	59.14
799.12	58.87
799.431	58.8
799.742	59.3
800.053	58.76
800.364	58.44
800.675	58.7
800.986	58.96
801.297	58.54
801.608	58.67
801.918	59.23
802.229	59.76
802.54	59.17
802.851	59.16
803.161	59.12
803.472	59.18
803.782	59.7
804.093	59.78
804.403	59.51
804.714	58.78
805.024	59.08
805.334	59.94
805.645	60.04
805.955	60.29
806.265	60.25
806.575	60.91
806.885	61.11
807.195	61.21
807.505	61.48
807.815	62.04
808.125	61.72
808.435	60.94
808.745	60.65
809.055	61.03
809.365	61.49
809.674	62.34
809.984	62.71
810.294	62.46
810.603	62.28
810.913	62.37
811.222	62.41
811.532	62.37
811.841	62.48
812.151	62.93
812.46	63.61
812.769	63.95
813.079	63.6
813.388	63.57
813.697	63.74
814.006	63.82
814.315	63.68
814.624	64.77
814.933	64.06
815.242	63.81
815.551	62.99
815.86	62.95
816.169	61.19
816.478	60.4
816.786	60.6
817.095	60.07
817.404	60.46
817.712	60.2
818.021	60.54
818.33	60.93
818.638	60.26
818.947	59.49
819.255	59
819.563	58.73
819.872	58.59
820.18	58.37
820.488	58.34
820.796	58.21
821.105	58.16
821.413	58.51
821.721	58.32
822.029	58.53
822.337	58.49
822.645	58.93
822.953	59.03
823.26	58.98
823.568	59.02
823.876	58.93
824.184	59.1
824.491	59.02
824.799	58.91
825.107	59.17
825.414	59.21
825.722	59.18
826.029	59.26
826.337	59.25
826.644	59.21
826.951	59.26
827.259	59.35
827.566	59.53
827.873	59.77
828.18	60.08
828.488	60.33
828.795	60.53
829.102	60.42
829.409	60.02
829.716	59.93
830.023	59.78
830.329	59.69
830.636	59.89
830.943	59.82
831.25	59.58
831.557	59.3
831.863	59.78
832.17	60.19
832.476	60.57
832.783	60.59
833.089	61.17
833.396	60.88
833.702	61.35
834.009	60.99
834.315	60.49
834.621	60.3
834.928	59.76
835.234	59.24
835.54	59.5
835.846	60.34
836.152	60.72
836.458	61.53
836.764	61.88
837.07	61.37
837.376	61.22
837.682	61.2
837.988	61.96
838.293	61.6
838.599	60.64
838.905	60.72
839.211	61.57
839.516	61.5
839.822	62.4
840.127	61.51
840.433	61.93
840.738	62.56
841.044	62.67
841.349	63.25
841.654	63.55
841.959	62.13
842.265	62.56
842.57	62.1
842.875	60.39
843.18	60.05
843.485	59.91
843.79	59.41
844.095	59.79
844.4	58.08
844.705	57.78
845.01	58.48
845.315	55.43
845.619	54.81
845.924	55.1
846.229	52.58
846.533	52.96
846.838	50.8
847.142	49.48
847.447	50.52
847.751	49.55
848.056	52.58
848.36	55.29
848.664	54.18
848.969	54.49
849.273	56.56
849.577	57.86
849.881	59.67
850.185	62.58
850.489	61.95
850.794	61.21
851.097	61.17
851.401	61.2
851.705	65.9
852.009	64.96
852.313	64.94
852.617	67.64
852.92	69.69
853.224	70.86
853.528	71.61
853.831	72.52
854.135	72.83
854.438	69.55
854.742	67.14
855.045	67.45
855.349	66.43
855.652	66.87
855.955	64.43
856.259	63.23
856.562	63.86
856.865	63.96
857.168	66.91
857.471	69.57
857.774	71.3
858.077	69.3
858.38	70.28
858.683	67.56
858.986	67.17
859.289	64.37
859.592	64.06
859.894	65.11
860.197	62.02
860.5	63.33
860.802	63.82
861.105	64.2
861.407	66.3
861.71	66.75
862.012	64.5
862.315	66.25
862.617	67.89
862.919	64.34
863.222	66.05
863.524	62.46
863.826	60.17
864.128	61.57
864.43	63.8
864.732	62.89
865.034	66.9
865.336	67.66
865.638	68.08
865.94	67.66
866.242	65.04
866.544	67.58
866.846	66.31
867.147	67.17
867.449	67.94
867.751	65.48
868.052	66.21
868.354	68.08
868.655	68.71
868.957	66.93
869.258	69.2
869.56	68.21
869.861	69.29
870.162	69.02
870.463	66.48
870.765	66.8
871.066	65.21
871.367	59.9
871.668	58.78
871.969	59.27
872.27	60.16
872.571	61.16
872.872	60.36
873.173	60.89
873.473	61.46
873.774	65.4
874.075	65.94
874.376	63.73
874.676	63.65
874.977	61.17
875.277	60.57
875.578	58.83
875.878	58.06
876.179	58.63
876.479	58.21
876.78	59.9
877.08	58.09
877.38	61.03
877.68	65.87
877.981	65.08
878.281	65.35
878.581	66.42
