Data from MVZ_BU8940_Reflection_00009.txt Node
Date: Tue Nov 19 12:16:34 EST 2019
User: vgr7
Spectrometer: USB2G7710
Scans to average: 3
Trigger mode: 4
Integration Time (sec): 2.000000E-2
Electric dark correction enabled: true
Boxcar width: 10
XAxis mode: Wavelengths
Number of Pixels in Spectrum: 2048
>>>>>Begin Spectral Data<<<<<
177.721	-99.73
178.105	54.55
178.488	6.09
178.871	117.86
179.254	73.17
179.636	-525
180.019	-128.32
180.402	580
180.785	2760
181.168	-647.52
181.55	382.38
181.933	173.15
182.316	250.15
182.698	257.96
183.081	145.73
183.463	115.93
183.846	168.84
184.228	103.69
184.611	76.78
184.993	95.8
185.376	111.27
185.758	187
186.14	229.91
186.522	524.62
186.904	668.57
187.287	391.54
187.669	396.61
188.051	279.33
188.433	555.72
188.815	382.01
189.197	336.16
189.579	2302.7
189.961	-156.37
190.342	-265.77
190.724	231.02
191.106	2968.42
191.488	-1986.21
191.869	45600
192.251	2676.92
192.633	1646.51
193.014	616.04
193.396	326.38
193.777	1329.73
194.159	637.97
194.54	245.67
194.922	154.99
195.303	143.36
195.684	220.61
196.065	267.98
196.447	44.91
196.828	59.83
197.209	8.07
197.59	90.77
197.971	124.18
198.352	181.11
198.733	330.1
199.114	292.58
199.495	-628.92
199.876	396.12
200.257	389.81
200.638	228.98
201.018	131.56
201.399	-260.14
201.78	-160.77
202.16	-162.16
202.541	845.9
202.922	-276.4
203.302	-7
203.683	-43.64
204.063	-378.95
204.444	-291.09
204.824	176.47
205.204	1523.08
205.585	-851.61
205.965	803.39
206.345	168.86
206.725	421.78
207.106	148.75
207.486	-391.3
207.866	82.76
208.246	22.59
208.626	8.87
209.006	14.31
209.386	-69.32
209.766	-771.43
210.145	3171.43
210.525	-171.43
210.905	-5.15
211.285	24.38
211.664	-11.01
212.044	-18.92
212.424	-57.47
212.803	-95.9
213.183	-236.07
213.562	-92.31
213.942	-49.22
214.321	5.04
214.701	-30.41
215.08	-26.48
215.459	-9.19
215.838	18.81
216.218	79.14
216.597	136.86
216.976	432.49
217.355	265.74
217.734	-850.55
218.113	-3821.05
218.492	287.78
218.871	334.88
219.25	-2190.7
219.629	-1036.36
220.008	-708.06
220.387	-1694.12
220.766	541.63
221.144	311.2
221.523	166.61
221.902	134.82
222.28	151.3
222.659	121.31
223.037	112.73
223.416	94.47
223.794	79.38
224.173	49.24
224.551	38.86
224.929	33.64
225.308	24.43
225.686	19.14
226.064	15.55
226.442	7.79
226.821	4.57
227.199	-1.57
227.577	0.72
227.955	-0.46
228.333	1.67
228.711	3.31
229.089	1.37
229.467	2.71
229.845	1.31
230.222	4.24
230.6	3.11
230.978	1.92
231.356	2.42
231.733	2.14
232.111	1.17
232.488	-1.84
232.866	-1.44
233.243	0.84
233.621	1.78
233.998	3.89
234.376	5.39
234.753	3.33
235.13	2.86
235.508	1.1
235.885	0.94
236.262	-0.69
236.639	-2.53
237.016	-2.77
237.393	-1.84
237.77	-0.57
238.147	0.08
238.524	1.59
238.901	1.28
239.278	0.61
239.655	1.52
240.032	2.4
240.409	3.07
240.785	3.29
241.162	3.07
241.539	2.68
241.915	2.18
242.292	3.11
242.668	3.52
243.045	3.7
243.421	4
243.798	4.28
244.174	5.04
244.551	5.33
244.927	5.28
245.303	5.05
245.679	5
246.056	4.79
246.432	4.72
246.808	5.05
247.184	5.35
247.56	4.76
247.936	4.75
248.312	4.79
248.688	4.82
249.064	4.77
249.44	4.66
249.815	5.04
250.191	4.8
250.567	4.87
250.943	4.91
251.318	4.94
251.694	4.88
252.069	4.7
252.445	4.66
252.82	5
253.196	5.19
253.571	5.01
253.947	5.08
254.322	4.64
254.697	4.11
255.073	3.8
255.448	4.16
255.823	4.27
256.198	3.86
256.573	3.87
256.948	4.2
257.323	4.43
257.698	4.25
258.073	4.03
258.448	4.23
258.823	4.02
259.198	4.03
259.573	3.84
259.948	3.77
260.322	3.82
260.697	3.74
261.072	3.64
261.446	3.65
261.821	3.48
262.195	3.65
262.57	3.74
262.944	3.95
263.319	3.93
263.693	3.76
264.067	3.81
264.442	3.86
264.816	3.51
265.19	3.48
265.564	3.19
265.938	3.3
266.313	3.08
266.687	3.3
267.061	3.12
267.435	3.38
267.809	3.27
268.183	3.24
268.556	3.25
268.93	3.36
269.304	3.3
269.678	3.57
270.051	3.53
270.425	3.56
270.799	3.31
271.172	3.3
271.546	3.35
271.919	3.52
272.293	3.54
272.666	3.77
273.04	3.83
273.413	4.02
273.787	3.95
274.16	3.93
274.533	4.04
274.906	4.14
275.279	3.95
275.653	3.95
276.026	4.06
276.399	4.03
276.772	3.91
277.145	4.01
277.518	3.89
277.891	3.9
278.263	3.9
278.636	4.09
279.009	4.2
279.382	4.09
279.755	4.07
280.127	3.89
280.5	3.8
280.872	3.69
281.245	3.67
281.617	3.63
281.99	3.52
282.362	3.25
282.735	3.29
283.107	3.5
283.479	3.67
283.852	3.65
284.224	3.53
284.596	3.8
284.968	3.84
285.34	3.92
285.713	3.95
286.085	4.03
286.457	3.95
286.829	3.87
287.201	3.87
287.572	3.93
287.944	3.98
288.316	4.09
288.688	4.27
289.06	4.21
289.431	4.45
289.803	4.67
290.175	4.89
290.546	4.8
290.918	4.89
291.289	4.79
291.661	4.62
292.032	4.68
292.403	4.52
292.775	4.59
293.146	4.66
293.517	4.73
293.889	4.73
294.26	4.89
294.631	4.89
295.002	5.06
295.373	5.01
295.744	5.02
296.115	4.95
296.486	4.9
296.857	4.95
297.228	4.72
297.599	4.6
297.97	4.5
298.34	4.62
298.711	4.51
299.082	4.44
299.452	4.53
299.823	4.55
300.194	4.75
300.564	4.67
300.935	4.62
301.305	4.61
301.676	4.59
302.046	4.52
302.416	4.65
302.787	4.61
303.157	4.72
303.527	4.76
303.897	4.67
304.267	4.58
304.637	4.52
305.008	4.66
305.378	4.69
305.748	4.72
306.117	4.56
306.487	4.57
306.857	4.82
307.227	5
307.597	5.17
307.967	5.1
308.336	5.12
308.706	5.19
309.076	5.15
309.445	5.27
309.815	5.3
310.184	5.21
310.554	5.31
310.923	5.22
311.293	5.24
311.662	5.39
312.031	5.47
312.401	5.6
312.77	5.63
313.139	5.79
313.508	5.95
313.877	6.06
314.246	5.99
314.616	6.12
314.985	5.93
315.353	5.98
315.722	6.09
316.091	6.17
316.46	6.24
316.829	6.42
317.198	6.42
317.567	6.62
317.935	6.67
318.304	6.8
318.672	6.93
319.041	6.99
319.41	7.14
319.778	7.2
320.147	7.25
320.515	7.25
320.883	7.41
321.252	7.32
321.62	7.65
321.988	7.96
322.357	7.94
322.725	8.16
323.093	8.15
323.461	7.98
323.829	8.05
324.197	8.04
324.565	7.95
324.933	7.86
325.301	7.82
325.669	7.87
326.037	7.84
326.405	7.8
326.772	7.63
327.14	7.57
327.508	7.54
327.875	7.53
328.243	7.56
328.61	7.46
328.978	7.46
329.346	7.25
329.713	7.18
330.08	7.31
330.448	7.27
330.815	7.17
331.182	7.23
331.55	7.24
331.917	7.26
332.284	7.32
332.651	7.5
333.018	7.4
333.385	7.55
333.752	7.65
334.119	7.83
334.486	7.98
334.853	8.01
335.22	8.18
335.587	8.19
335.954	8.14
336.32	8.2
336.687	8.33
337.054	8.39
337.42	8.53
337.787	8.36
338.153	8.56
338.52	8.78
338.886	8.85
339.253	8.85
339.619	8.8
339.986	8.71
340.352	8.69
340.718	8.86
341.084	8.76
341.451	8.7
341.817	8.64
342.183	8.69
342.549	8.76
342.915	8.83
343.281	8.89
343.647	9.05
344.013	8.92
344.379	8.86
344.745	8.93
345.11	8.76
345.476	8.89
345.842	8.74
346.208	8.65
346.573	8.67
346.939	8.72
347.304	8.83
347.67	8.9
348.035	8.91
348.401	8.9
348.766	8.88
349.132	8.82
349.497	8.92
349.862	9.02
350.228	8.95
350.593	8.82
350.958	8.9
351.323	8.86
351.688	9.06
352.053	9.17
352.418	9.14
352.783	9.24
353.148	9.19
353.513	9.28
353.878	9.3
354.243	9.34
354.608	9.42
354.972	9.32
355.337	9.49
355.702	9.43
356.066	9.44
356.431	9.41
356.795	9.46
357.16	9.49
357.524	9.41
357.889	9.35
358.253	9.41
358.618	9.38
358.982	9.33
359.346	9.27
359.71	9.17
360.075	9.12
360.439	9.16
360.803	9.21
361.167	9.18
361.531	9.22
361.895	9.14
362.259	9.13
362.623	9.16
362.987	9.08
363.351	9.09
363.714	9.01
364.078	9.05
364.442	9.03
364.806	8.98
365.169	8.97
365.533	9.04
365.896	8.98
366.26	9.03
366.623	9.05
366.987	9.02
367.35	9.1
367.714	9.1
368.077	9.07
368.44	9.06
368.803	9.03
369.167	8.98
369.53	9
369.893	8.92
370.256	8.87
370.619	8.78
370.982	8.68
371.345	8.79
371.708	8.86
372.071	8.88
372.434	8.75
372.797	8.81
373.159	8.8
373.522	8.82
373.885	8.75
374.247	8.73
374.61	8.75
374.973	8.76
375.335	8.75
375.698	8.67
376.06	8.56
376.423	8.54
376.785	8.52
377.147	8.47
377.51	8.4
377.872	8.35
378.234	8.4
378.596	8.45
378.958	8.31
379.321	8.11
379.683	8.11
380.045	8.09
380.407	8.05
380.769	7.95
381.13	7.88
381.492	7.84
381.854	7.76
382.216	7.75
382.578	7.72
382.939	7.65
383.301	7.64
383.663	7.64
384.024	7.64
384.386	7.53
384.747	7.52
385.109	7.57
385.47	7.59
385.832	7.55
386.193	7.52
386.554	7.49
386.916	7.58
387.277	7.54
387.638	7.55
387.999	7.46
388.36	7.5
388.721	7.51
389.082	7.52
389.443	7.54
389.804	7.49
390.165	7.45
390.526	7.48
390.887	7.45
391.248	7.4
391.609	7.38
391.969	7.39
392.33	7.35
392.691	7.31
393.051	7.29
393.412	7.26
393.772	7.27
394.133	7.25
394.493	7.18
394.854	7.12
395.214	7.07
395.574	7.04
395.935	6.98
396.295	6.94
396.655	6.85
397.015	6.82
397.376	6.74
397.736	6.67
398.096	6.63
398.456	6.61
398.816	6.59
399.176	6.54
399.535	6.51
399.895	6.49
400.255	6.48
400.615	6.43
400.975	6.38
401.334	6.33
401.694	6.31
402.054	6.31
402.413	6.34
402.773	6.37
403.132	6.38
403.492	6.42
403.851	6.37
404.211	6.34
404.57	6.31
404.929	6.32
405.288	6.33
405.648	6.27
406.007	6.25
406.366	6.23
406.725	6.19
407.084	6.15
407.443	6.14
407.802	6.08
408.161	6.12
408.52	6.11
408.879	6.1
409.238	6.11
409.596	6.08
409.955	6.03
410.314	5.99
410.673	5.98
411.031	5.95
411.39	5.95
411.748	5.97
412.107	5.95
412.465	5.89
412.824	5.88
413.182	5.88
413.54	5.88
413.899	5.89
414.257	5.92
414.615	5.94
414.974	5.93
415.332	5.94
415.69	5.87
416.048	5.83
416.406	5.8
416.764	5.77
417.122	5.76
417.48	5.73
417.838	5.72
418.195	5.68
418.553	5.67
418.911	5.66
419.269	5.63
419.626	5.62
419.984	5.64
420.342	5.6
420.699	5.59
421.057	5.57
421.414	5.55
421.772	5.52
422.129	5.49
422.486	5.49
422.844	5.48
423.201	5.46
423.558	5.46
423.915	5.46
424.273	5.45
424.63	5.46
424.987	5.47
425.344	5.44
425.701	5.47
426.058	5.44
426.415	5.42
426.772	5.39
427.128	5.39
427.485	5.38
427.842	5.4
428.199	5.4
428.555	5.39
428.912	5.38
429.269	5.35
429.625	5.36
429.982	5.34
430.338	5.34
430.695	5.35
431.051	5.35
431.407	5.36
431.764	5.34
432.12	5.33
432.476	5.32
432.832	5.33
433.189	5.31
433.545	5.33
433.901	5.35
434.257	5.36
434.613	5.38
434.969	5.38
435.325	5.37
435.681	5.38
436.036	5.41
436.392	5.41
436.748	5.45
437.104	5.45
437.459	5.44
437.815	5.45
438.171	5.45
438.526	5.45
438.882	5.44
439.237	5.45
439.593	5.46
439.948	5.45
440.304	5.45
440.659	5.47
441.014	5.47
441.369	5.48
441.725	5.49
442.08	5.47
442.435	5.46
442.79	5.46
443.145	5.45
443.5	5.42
443.855	5.43
444.21	5.44
444.565	5.43
444.92	5.43
445.275	5.42
445.629	5.43
445.984	5.41
446.339	5.41
446.693	5.41
447.048	5.39
447.403	5.4
447.757	5.38
448.112	5.38
448.466	5.36
448.82	5.35
449.175	5.35
449.529	5.36
449.883	5.38
450.238	5.37
450.592	5.36
450.946	5.35
451.3	5.34
451.654	5.31
452.008	5.31
452.362	5.28
452.716	5.3
453.07	5.27
453.424	5.28
453.778	5.25
454.132	5.24
454.486	5.26
454.839	5.25
455.193	5.26
455.547	5.22
455.9	5.23
456.254	5.23
456.607	5.21
456.961	5.2
457.314	5.18
457.668	5.18
458.021	5.19
458.375	5.19
458.728	5.17
459.081	5.18
459.434	5.18
459.787	5.19
460.141	5.2
460.494	5.22
460.847	5.24
461.2	5.25
461.553	5.25
461.906	5.25
462.259	5.23
462.611	5.25
462.964	5.29
463.317	5.3
463.67	5.3
464.022	5.32
464.375	5.34
464.728	5.36
465.08	5.38
465.433	5.41
465.785	5.44
466.138	5.47
466.49	5.48
466.843	5.5
467.195	5.54
467.547	5.54
467.899	5.55
468.252	5.55
468.604	5.58
468.956	5.6
469.308	5.6
469.66	5.64
470.012	5.69
470.364	5.69
470.716	5.72
471.068	5.76
471.42	5.77
471.772	5.8
472.123	5.82
472.475	5.81
472.827	5.8
473.178	5.81
473.53	5.82
473.882	5.85
474.233	5.86
474.585	5.84
474.936	5.86
475.288	5.86
475.639	5.86
475.99	5.85
476.342	5.85
476.693	5.87
477.044	5.86
477.395	5.81
477.746	5.81
478.097	5.81
478.448	5.78
478.8	5.75
479.15	5.73
479.501	5.71
479.852	5.73
480.203	5.74
480.554	5.71
480.905	5.72
481.255	5.71
481.606	5.69
481.957	5.69
482.307	5.68
482.658	5.67
483.009	5.66
483.359	5.66
483.709	5.66
484.06	5.67
484.41	5.67
484.761	5.67
485.111	5.67
485.461	5.66
485.811	5.66
486.162	5.67
486.512	5.66
486.862	5.66
487.212	5.65
487.562	5.64
487.912	5.65
488.262	5.65
488.612	5.65
488.961	5.66
489.311	5.67
489.661	5.66
490.011	5.67
490.36	5.69
490.71	5.7
491.06	5.7
491.409	5.69
491.759	5.7
492.108	5.71
492.458	5.73
492.807	5.73
493.157	5.76
493.506	5.78
493.855	5.82
494.204	5.84
494.554	5.86
494.903	5.89
495.252	5.92
495.601	5.96
495.95	6.01
496.299	6.05
496.648	6.09
496.997	6.17
497.346	6.24
497.695	6.29
498.043	6.36
498.392	6.42
498.741	6.5
499.09	6.56
499.438	6.62
499.787	6.69
500.135	6.77
500.484	6.79
500.832	6.88
501.181	6.96
501.529	7.08
501.878	7.18
502.226	7.25
502.574	7.34
502.923	7.43
503.271	7.49
503.619	7.61
503.967	7.69
504.315	7.78
504.663	7.86
505.011	7.96
505.359	8.05
505.707	8.15
506.055	8.25
506.403	8.36
506.751	8.48
507.098	8.61
507.446	8.74
507.794	8.93
508.141	9.06
508.489	9.18
508.837	9.32
509.184	9.48
509.531	9.62
509.879	9.76
510.226	9.89
510.574	10.06
510.921	10.21
511.268	10.39
511.616	10.57
511.963	10.73
512.31	10.9
512.657	11.06
513.004	11.23
513.351	11.46
513.698	11.64
514.045	11.83
514.392	12.01
514.739	12.21
515.086	12.39
515.432	12.56
515.779	12.75
516.126	12.92
516.473	13.05
516.819	13.23
517.166	13.42
517.512	13.6
517.859	13.75
518.205	13.88
518.552	14.05
518.898	14.2
519.245	14.35
519.591	14.49
519.937	14.64
520.283	14.77
520.629	14.92
520.976	15.1
521.322	15.26
521.668	15.45
522.014	15.62
522.36	15.76
522.706	15.96
523.052	16.21
523.398	16.44
523.743	16.69
524.089	16.91
524.435	17.11
524.781	17.31
525.126	17.51
525.472	17.69
525.817	17.85
526.163	17.99
526.509	18.14
526.854	18.28
527.199	18.41
527.545	18.55
527.89	18.67
528.235	18.8
528.581	18.93
528.926	19.04
529.271	19.19
529.616	19.35
529.961	19.48
530.306	19.61
530.651	19.74
530.996	19.88
531.341	20.07
531.686	20.23
532.031	20.39
532.376	20.58
532.721	20.74
533.065	20.9
533.41	21.11
533.755	21.31
534.099	21.52
534.444	21.73
534.788	21.93
535.133	22.12
535.477	22.3
535.822	22.54
536.166	22.77
536.51	22.98
536.855	23.2
537.199	23.45
537.543	23.72
537.887	24.01
538.231	24.29
538.576	24.51
538.92	24.76
539.264	25.02
539.608	25.2
539.951	25.44
540.295	25.68
540.639	25.84
540.983	26.03
541.327	26.23
541.671	26.39
542.014	26.6
542.358	26.79
542.701	26.99
543.045	27.17
543.389	27.38
543.732	27.55
544.075	27.76
544.419	27.96
544.762	28.13
545.105	28.32
545.449	28.53
545.792	28.75
546.135	28.98
546.478	29.21
546.821	29.5
547.165	29.72
547.508	29.94
547.851	30.25
548.194	30.48
548.536	30.68
548.879	30.96
549.222	31.2
549.565	31.42
549.908	31.62
550.25	31.85
550.593	32.12
550.936	32.4
551.278	32.68
551.621	32.91
551.963	33.12
552.306	33.29
552.648	33.52
552.991	33.75
553.333	33.97
553.675	34.16
554.017	34.35
554.36	34.58
554.702	34.78
555.044	34.95
555.386	35.16
555.728	35.41
556.07	35.59
556.412	35.76
556.754	35.93
557.096	36.14
557.438	36.26
557.78	36.41
558.121	36.62
558.463	36.75
558.805	36.99
559.147	37.2
559.488	37.43
559.83	37.59
560.171	37.74
560.513	37.91
560.854	38.07
561.196	38.22
561.537	38.33
561.878	38.56
562.22	38.72
562.561	38.83
562.902	39.03
563.243	39.18
563.584	39.41
563.925	39.59
564.266	39.74
564.607	39.93
564.948	40.04
565.289	40.11
565.63	40.22
565.971	40.31
566.312	40.47
566.653	40.56
566.993	40.67
567.334	40.75
567.675	40.84
568.015	40.96
568.356	41.03
568.696	41.17
569.037	41.23
569.377	41.32
569.718	41.47
570.058	41.53
570.398	41.6
570.739	41.61
571.079	41.67
571.419	41.76
571.759	41.84
572.099	41.92
572.439	42.03
572.779	42.1
573.119	42.16
573.459	42.21
573.799	42.29
574.139	42.37
574.479	42.49
574.819	42.65
575.158	42.73
575.498	42.84
575.838	42.95
576.177	42.98
576.517	43.04
576.856	43.09
577.196	43.13
577.535	43.29
577.875	43.41
578.214	43.51
578.553	43.62
578.893	43.79
579.232	43.93
579.571	44.02
579.91	44.15
580.25	44.24
580.589	44.41
580.928	44.42
581.267	44.46
581.606	44.52
581.945	44.44
582.283	44.51
582.622	44.54
582.961	44.56
583.3	44.62
583.639	44.75
583.977	44.85
584.316	44.91
584.654	44.97
584.993	44.98
585.332	45.02
585.67	45.06
586.008	45.03
586.347	45.1
586.685	45.13
587.024	45.15
587.362	45.17
587.7	45.17
588.038	45.32
588.376	45.41
588.715	45.48
589.053	45.58
589.391	45.65
589.729	45.77
590.067	45.81
590.404	45.96
590.742	46.01
591.08	46.11
591.418	46.15
591.756	46.18
592.093	46.21
592.431	46.29
592.769	46.28
593.106	46.29
593.444	46.3
593.781	46.39
594.119	46.48
594.456	46.55
594.793	46.54
595.131	46.55
595.468	46.6
595.805	46.67
596.143	46.76
596.48	46.74
596.817	46.7
597.154	46.77
597.491	46.83
597.828	46.87
598.165	46.89
598.502	46.94
598.839	46.93
599.176	46.99
599.512	47.1
599.849	47.18
600.186	47.26
600.523	47.29
600.859	47.3
601.196	47.37
601.532	47.41
601.869	47.47
602.205	47.48
602.542	47.47
602.878	47.49
603.215	47.49
603.551	47.58
603.887	47.64
604.223	47.66
604.56	47.66
604.896	47.65
605.232	47.58
605.568	47.6
605.904	47.69
606.24	47.78
606.576	47.82
606.912	47.88
607.248	47.95
607.583	47.95
607.919	47.96
608.255	47.93
608.591	47.92
608.926	48.02
609.262	48.01
609.597	48.07
609.933	48.06
610.268	48.06
610.604	48.1
610.939	48.15
611.275	48.12
611.61	48.11
611.945	48.02
612.281	48.08
612.616	48.07
612.951	48.1
613.286	48
613.621	47.94
613.956	47.93
614.291	47.89
614.626	48.01
614.961	48.08
615.296	48.1
615.631	48.17
615.966	48.1
616.3	48.21
616.635	48.26
616.97	48.36
617.304	48.38
617.639	48.43
617.973	48.43
618.308	48.43
618.642	48.58
618.977	48.69
619.311	48.72
619.646	48.88
619.98	48.85
620.314	49
620.648	49.02
620.983	48.98
621.317	49.02
621.651	48.99
621.985	49.02
622.319	49.05
622.653	49.08
622.987	49.02
623.321	49.1
623.655	49.06
623.988	48.97
624.322	49.03
624.656	49.01
624.99	49.02
625.323	49.04
625.657	48.99
625.99	49.03
626.324	49.04
626.657	49
626.991	49.03
627.324	49.02
627.658	49.04
627.991	49.16
628.324	49.24
628.657	49.23
628.991	49.18
629.324	49.21
629.657	49.26
629.99	49.36
630.323	49.31
630.656	49.34
630.989	49.48
631.322	49.48
631.655	49.45
631.987	49.48
632.32	49.56
632.653	49.61
632.986	49.62
633.318	49.67
633.651	49.66
633.984	49.71
634.316	49.69
634.649	49.78
634.981	49.71
635.313	49.72
635.646	49.77
635.978	49.83
636.31	49.85
636.643	49.79
636.975	49.78
637.307	49.86
637.639	49.87
637.971	49.76
638.303	49.74
638.635	49.65
638.967	49.63
639.299	49.68
639.631	49.65
639.963	49.74
640.295	49.65
640.626	49.74
640.958	49.67
641.29	49.64
641.621	49.53
641.953	49.58
642.285	49.51
642.616	49.49
642.948	49.53
643.279	49.6
643.61	49.7
643.942	49.69
644.273	49.68
644.604	49.71
644.936	49.76
645.267	49.88
645.598	50.04
645.929	49.99
646.26	49.98
646.591	49.91
646.922	49.78
647.253	49.95
647.584	49.94
647.915	49.93
648.245	50.02
648.576	50.04
648.907	50.06
649.238	50
649.568	50.06
649.899	50.11
650.229	50.01
650.56	49.99
650.89	50.02
651.221	50.14
651.551	50.21
651.882	50.25
652.212	50.12
652.542	50.13
652.872	50.15
653.203	50.17
653.533	50.13
653.863	50.18
654.193	50.18
654.523	50.16
654.853	50.25
655.183	50.32
655.513	50.31
655.843	50.29
656.172	50.38
656.502	50.3
656.832	50.26
657.162	50.3
657.491	50.28
657.821	50.31
658.15	50.17
658.48	50.1
658.809	50.1
659.139	50.05
659.468	50.08
659.798	50.17
660.127	50.19
660.456	50.23
660.785	50.26
661.115	50.24
661.444	50.3
661.773	50.27
662.102	50.26
662.431	50.4
662.76	50.55
663.089	50.52
663.418	50.6
663.747	50.57
664.076	50.67
664.404	50.79
664.733	50.86
665.062	50.9
665.39	51.01
665.719	51.1
666.048	51.21
666.376	51.13
666.705	51.14
667.033	51.19
667.362	51.23
667.69	51.2
668.018	51.27
668.347	51.25
668.675	51.25
669.003	51.2
669.331	51.18
669.659	50.99
669.987	50.91
670.315	51.06
670.643	51.16
670.971	51.14
671.299	51.04
671.627	50.93
671.955	50.99
672.283	50.97
672.61	50.79
672.938	50.76
673.266	50.84
673.593	50.91
673.921	50.89
674.249	51.04
674.576	51.15
674.904	50.82
675.231	50.77
675.558	50.81
675.886	50.84
676.213	50.85
676.54	50.91
676.867	51.02
677.195	50.83
677.522	50.87
677.849	50.77
678.176	50.76
678.503	50.76
678.83	50.65
679.157	50.76
679.484	50.95
679.81	51.02
680.137	51.03
680.464	50.94
680.791	50.93
681.117	50.78
681.444	50.69
681.771	50.96
682.097	50.85
682.424	50.9
682.75	50.95
683.077	50.89
683.403	51.07
683.729	51.13
684.056	51.06
684.382	50.9
684.708	51.1
685.034	51.19
685.36	51.34
685.686	51.39
686.012	51.29
686.339	51.2
686.664	51.24
686.99	51.26
687.316	51.39
687.642	51.32
687.968	51.36
688.294	51.49
688.619	51.42
688.945	51.48
689.271	51.47
689.596	51.43
689.922	51.5
690.247	51.16
690.573	51.22
690.898	51.38
691.224	51.51
691.549	51.29
691.874	51.17
692.2	51.07
692.525	51.14
692.85	51.02
693.175	51.05
693.5	50.97
693.825	51.03
694.15	50.85
694.475	50.92
694.8	51.08
695.125	50.96
695.45	50.95
695.775	51.14
696.099	51.18
696.424	51.13
696.749	50.97
697.073	51.14
697.398	51.08
697.723	51.03
698.047	51.15
698.372	51.18
698.696	51.21
699.02	51.25
699.345	51.19
699.669	51.29
699.993	51.27
700.318	51.37
700.642	51.33
700.966	51.44
701.29	51.48
701.614	51.4
701.938	51.5
702.262	51.51
702.586	51.4
702.91	51.3
703.234	51.3
703.557	51.37
703.881	51.44
704.205	51.36
704.529	51.58
704.852	51.4
705.176	51.66
705.499	51.76
705.823	51.76
706.146	51.86
706.47	51.87
706.793	51.92
707.117	51.77
707.44	51.87
707.763	51.86
708.086	51.85
708.409	51.94
708.733	51.89
709.056	51.98
709.379	51.95
709.702	51.87
710.025	51.87
710.348	52.01
710.671	51.98
710.993	52.22
711.316	52.17
711.639	52.22
711.962	52.02
712.284	52.09
712.607	52.09
712.93	52.02
713.252	52.03
713.575	51.91
713.897	51.82
714.22	51.55
714.542	51.56
714.864	51.52
715.187	51.22
715.509	51.23
715.831	51.27
716.153	51.32
716.475	51.61
716.798	51.55
717.12	51.52
717.442	51.45
717.764	51.3
718.085	51.13
718.407	51.05
718.729	51.11
719.051	50.94
719.373	50.97
719.695	51.03
720.016	51.06
720.338	51.13
720.659	51.44
720.981	51.69
721.302	51.71
721.624	51.71
721.945	51.75
722.267	51.96
722.588	51.95
722.909	51.82
723.231	51.77
723.552	51.67
723.873	51.86
724.194	51.94
724.515	51.84
724.836	51.92
725.157	51.91
725.478	51.96
725.799	51.98
726.12	51.93
726.441	51.8
726.762	51.79
727.083	52.01
727.403	51.81
727.724	51.66
728.045	51.77
728.365	51.74
728.686	51.93
729.006	51.84
729.327	51.85
729.647	52.05
729.967	51.92
730.288	52.16
730.608	52.15
730.928	52.03
731.249	52.21
731.569	52.2
731.889	52.13
732.209	51.91
732.529	52
732.849	52.21
733.169	52.34
733.489	52.29
733.809	51.92
734.129	51.9
734.448	52.13
734.768	52.34
735.088	52.45
735.408	52.38
735.727	52.31
736.047	52.25
736.366	52.43
736.686	52.25
737.005	52.19
737.325	51.9
737.644	52.08
737.963	51.92
738.283	51.88
738.602	51.96
738.921	52.17
739.24	52.06
739.56	51.8
739.879	51.97
740.198	51.98
740.517	52.02
740.836	51.99
741.155	51.79
741.473	51.57
741.792	51.61
742.111	51.72
742.43	51.86
742.748	51.97
743.067	51.63
743.386	51.77
743.704	51.72
744.023	51.8
744.341	52.11
744.66	52.17
744.978	52.27
745.297	52.27
745.615	52.22
745.933	52.31
746.252	52.32
746.57	52.1
746.888	52.13
747.206	52.24
747.524	52.38
747.842	52.58
748.16	52.61
748.478	52.64
748.796	52.45
749.114	52.15
749.432	52.22
749.749	52.14
750.067	52.05
750.385	52.41
750.703	52.17
751.02	51.91
751.338	51.87
751.655	52.04
751.973	52.26
752.29	52.17
752.608	51.82
752.925	51.89
753.242	51.65
753.56	51.57
753.877	51.92
754.194	52.17
754.511	51.86
754.828	51.75
755.145	51.33
755.462	51.44
755.779	51.19
756.096	50.78
756.413	50.92
756.73	51.13
757.047	51.13
757.364	51.3
757.68	51.44
757.997	51.54
758.314	51.3
758.63	51.24
758.947	51.11
759.264	51.06
759.58	50.65
759.896	50.99
760.213	51.48
760.529	51.47
760.846	51.21
761.162	51.26
761.478	51.45
761.794	51.69
762.11	51.77
762.426	52.23
762.743	52.25
763.059	52.27
763.375	51.93
763.69	51.7
764.006	51.77
764.322	51.71
764.638	51.74
764.954	51.86
765.27	51.66
765.585	51.9
765.901	52.26
766.216	52.82
766.532	52.77
766.848	52.59
767.163	52.59
767.478	52.68
767.794	53.24
768.109	52.8
768.424	53.02
768.74	52.52
769.055	52.16
769.37	52.35
769.685	52.47
770	53.12
770.315	52.96
770.63	53.03
770.945	52.85
771.26	52.85
771.575	52.99
771.89	53.25
772.205	53.27
772.52	53.05
772.834	53.08
773.149	53.34
773.464	53.3
773.778	53.25
774.093	53.49
774.407	52.87
774.722	53.13
775.036	52.8
775.351	53.51
775.665	53.92
775.979	54.03
776.293	54.13
776.608	53.48
776.922	53.4
777.236	53.95
777.55	53.7
777.864	54.01
778.178	53.52
778.492	53.8
778.806	53.56
779.12	53.54
779.434	53.19
779.747	53.44
780.061	53.36
780.375	53.23
780.689	53.22
781.002	53.12
781.316	53.31
781.629	53.17
781.943	53.22
782.256	53.04
782.57	53.26
782.883	53.39
783.196	54.15
783.51	54.68
783.823	54.26
784.136	54.13
784.449	53.92
784.762	53.88
785.075	53.22
785.388	53.23
785.701	53.33
786.014	53.21
786.327	52.4
786.64	52.02
786.953	51.6
787.266	51.54
787.578	51.93
787.891	51.83
788.204	52.06
788.516	52.04
788.829	52.46
789.141	52.42
789.454	51.66
789.766	51.95
790.079	51.75
790.391	51.73
790.703	51.98
791.016	52.07
791.328	52.93
791.64	53.04
791.952	53.4
792.264	53.39
792.576	53.15
792.888	53.57
793.2	54.3
793.512	54.62
793.824	54.36
794.136	53.58
794.448	54.47
794.76	54.54
795.071	54.63
795.383	53.61
795.695	53.92
796.006	54.4
796.318	53.47
796.629	53.5
796.941	53.45
797.252	52.79
797.564	52.72
797.875	51.73
798.186	51.77
798.497	51.85
798.809	51.98
799.12	52.69
799.431	52.84
799.742	52.36
800.053	52.57
800.364	53.1
800.675	53.5
800.986	52.77
801.297	52.71
801.608	52.55
801.918	53.36
802.229	52.85
802.54	52.65
802.851	53.1
803.161	52.91
803.472	53.03
803.782	53.73
804.093	53.48
804.403	54.02
804.714	54.19
805.024	53.95
805.334	54.03
805.645	53.22
805.955	53.7
806.265	54.05
806.575	54.26
806.885	53.55
807.195	53.93
807.505	53.65
807.815	54.32
808.125	54.28
808.435	54.69
808.745	55.41
809.055	55.39
809.365	55.5
809.674	55.29
809.984	56.11
810.294	55.95
810.603	55.64
810.913	55.92
811.222	55.06
811.532	55.04
811.841	55.57
812.151	56.12
812.46	54.64
812.769	53.69
813.079	53.7
813.388	53.51
813.697	53.52
814.006	53.87
814.315	53.31
814.624	53.84
814.933	53.69
815.242	52.08
815.551	51.62
815.86	51.08
816.169	51.11
816.478	50.23
816.786	50.85
817.095	50.67
817.404	50.09
817.712	51.26
818.021	50.94
818.33	50.2
818.638	50.65
818.947	50.94
819.255	51.52
819.563	51.2
819.872	51.63
820.18	51.79
820.488	52.18
820.796	52.33
821.105	52.81
821.413	52.42
821.721	52.62
822.029	52.51
822.337	52.37
822.645	52.59
822.953	52.49
823.26	52.34
823.568	52.55
823.876	52.59
824.184	52.52
824.491	52.48
824.799	52.65
825.107	52.53
825.414	52.66
825.722	52.84
826.029	52.86
826.337	52.65
826.644	52.62
826.951	52.47
827.259	52.55
827.566	52.22
827.873	52.62
828.18	52.63
828.488	53.11
828.795	53.41
829.102	53.12
829.409	52.99
829.716	53.5
830.023	53.8
830.329	54.06
830.636	53.92
830.943	54.22
831.25	54.05
831.557	53.98
831.863	53.81
832.17	53.44
832.476	53.55
832.783	54.23
833.089	54.43
833.396	54.44
833.702	54.01
834.009	53.83
834.315	53.28
834.621	53.29
834.928	52.9
835.234	53.25
835.54	53.74
835.846	54.28
836.152	53.99
836.458	53.4
836.764	53.17
837.07	53.8
837.376	53.97
837.682	53.85
837.988	54.11
838.293	54.35
838.599	53.98
838.905	55.1
839.211	54.95
839.516	55.23
839.822	55.54
840.127	55.71
840.433	55.69
840.738	55.85
841.044	55.99
841.349	56.45
841.654	55.26
841.959	55.4
842.265	55.32
842.57	54.48
842.875	53.96
843.18	54.09
843.485	54.76
843.79	55.25
844.095	55.75
844.4	55.42
844.705	54.61
845.01	56.16
845.315	54.06
845.619	53.93
845.924	52.77
846.229	51.61
846.533	50.64
846.838	52.43
847.142	53.69
847.447	53.33
847.751	54.27
848.056	54.03
848.36	52.39
848.664	54.02
848.969	53.59
849.273	53.49
849.577	52.04
849.881	51.02
850.185	50.67
850.489	49.97
850.794	53.6
851.097	57.74
851.401	56.97
851.705	58.76
852.009	60.22
852.313	60.34
852.617	61.2
852.92	62.75
853.224	60.48
853.528	58.79
853.831	59.76
854.135	60.73
854.438	61.81
854.742	62.74
855.045	59.43
855.349	61.52
855.652	63.69
855.955	64.28
856.259	64.35
856.562	64.39
856.865	63.79
857.168	63.32
857.471	58.88
857.774	58.61
858.077	56.84
858.38	56.48
858.683	56.91
858.986	57.73
859.289	61.47
859.592	61.83
859.894	62.27
860.197	62.22
860.5	62.3
860.802	62.32
861.105	62.4
861.407	61.83
861.71	60.75
862.012	58.14
862.315	62.08
862.617	61.57
862.919	60.51
863.222	63.29
863.524	60.91
863.826	62.33
864.128	61.94
864.43	61.12
864.732	59.2
865.034	59.95
865.336	58.17
865.638	55.43
865.94	55.34
866.242	55.93
866.544	55.58
866.846	54.94
867.147	55.95
867.449	58.44
867.751	58.73
868.052	59.85
868.354	62.86
868.655	61.59
868.957	58.18
869.258	58.6
869.56	57.72
869.861	59.35
870.162	58.87
870.463	59.05
870.765	60.47
871.066	59.68
871.367	57.77
871.668	57.95
871.969	56.02
872.27	57.67
872.571	59.35
872.872	59.83
873.173	58.61
873.473	58.88
873.774	55.43
874.075	57.1
874.376	55.68
874.676	53.98
874.977	53.53
875.277	55.84
875.578	56.63
875.878	56.17
876.179	54.21
876.479	54.94
876.78	55.93
877.08	55.14
877.38	57.32
877.68	58.68
877.981	60.11
878.281	62.06
878.581	58.6
