Data from MVZ_BU163026_Reflection_00001.txt Node
Date: Tue Nov 19 12:05:50 EST 2019
User: vgr7
Spectrometer: USB2G7710
Scans to average: 3
Trigger mode: 4
Integration Time (sec): 2.000000E-2
Electric dark correction enabled: true
Boxcar width: 10
XAxis mode: Wavelengths
Number of Pixels in Spectrum: 2048
>>>>>Begin Spectral Data<<<<<
177.721	43.96
178.105	45.95
178.488	-16.04
178.871	56.72
179.254	29.23
179.636	15.9
180.019	-25.61
180.402	450
180.785	9.09
181.168	-78.57
181.55	-8.37
181.933	55.06
182.316	-16.28
182.698	-44.56
183.081	-81.93
183.463	-108.27
183.846	-94.69
184.228	-109.72
184.611	-102.44
184.993	-117.14
185.376	-120.97
185.758	-160.5
186.14	-82.13
186.522	-93.15
186.904	-107.11
187.287	-85.57
187.669	-118.34
188.051	-123.78
188.433	-80.8
188.815	-102.55
189.197	-110.49
189.579	-124.05
189.961	-124.61
190.342	-152.45
190.724	-192.5
191.106	-163.82
191.488	-120.3
191.869	-228.52
192.251	-301.42
192.633	-367.31
193.014	-404.32
193.396	-290.12
193.777	-316.52
194.159	-773.61
194.54	-2601.3
194.922	10415.79
195.303	-1732
195.684	-925.38
196.065	-865.52
196.447	919.1
196.828	-13900
197.209	-1315.93
197.59	-3582.93
197.971	-2793.62
198.352	-580.93
198.733	-475.25
199.114	-732.51
199.495	-372.15
199.876	-345.52
200.257	-212.8
200.638	-320.72
201.018	-396.26
201.399	-1588.31
201.78	-1900
202.16	-239.81
202.541	-165.28
202.922	-151.86
203.302	-178.18
203.683	-183.44
204.063	-141.71
204.444	-220.18
204.824	-382.35
205.204	-3315.09
205.585	-4021.95
205.965	-2238.03
206.345	650.61
206.725	354.99
207.106	279.97
207.486	175.68
207.866	203.24
208.246	152.78
208.626	133.81
209.006	163.15
209.386	209.57
209.766	338.2
210.145	258.24
210.525	413.25
210.905	292.11
211.285	154.56
211.664	121.86
212.044	123.7
212.424	109.42
212.803	111.29
213.183	103.52
213.562	139.48
213.942	131.79
214.321	119.27
214.701	164.4
215.08	217.47
215.459	168.16
215.838	147.31
216.218	182.78
216.597	219.24
216.976	299.45
217.355	249.61
217.734	162.99
218.113	120.97
218.492	103.59
218.871	114.85
219.25	116.6
219.629	100.76
220.008	91.46
220.387	136.65
220.766	153.63
221.144	167.88
221.523	152.4
221.902	164.9
222.28	161.67
222.659	102.17
223.037	79.45
223.416	74.25
223.794	80.43
224.173	69.38
224.551	62.72
224.929	39.7
225.308	35.62
225.686	27.04
226.064	21.47
226.442	17.96
226.821	10.1
227.199	6.41
227.577	10.72
227.955	8.26
228.333	3.1
228.711	-0.43
229.089	1.77
229.467	3.04
229.845	0.26
230.222	2.6
230.6	1.27
230.978	4.09
231.356	3.81
231.733	1.1
232.111	3.36
232.488	0.9
232.866	4.06
233.243	4.13
233.621	6.9
233.998	7.75
234.376	8.37
234.753	8.99
235.13	11.03
235.508	9.04
235.885	7.34
236.262	7.27
236.639	7.8
237.016	5.68
237.393	5.29
237.77	5.64
238.147	4.28
238.524	4.86
238.901	3.32
239.278	2.74
239.655	3.29
240.032	3.12
240.409	3.46
240.785	3.21
241.162	4.24
241.539	3.97
241.915	4.16
242.292	4.02
242.668	4.4
243.045	4.44
243.421	4.88
243.798	4.8
244.174	4.67
244.551	4.62
244.927	4.41
245.303	4.21
245.679	4.16
246.056	4.42
246.432	4.31
246.808	4.32
247.184	4.6
247.56	4.43
247.936	4.29
248.312	4.58
248.688	4.68
249.064	4.22
249.44	4.16
249.815	4.25
250.191	4.04
250.567	4.13
250.943	4.23
251.318	4.18
251.694	4.03
252.069	4.06
252.445	4.09
252.82	4.52
253.196	4.61
253.571	4.7
253.947	4.6
254.322	4.42
254.697	4.62
255.073	4.54
255.448	4.1
255.823	4.16
256.198	3.49
256.573	3.31
256.948	3.36
257.323	3.3
257.698	3.19
258.073	3.28
258.448	3.16
258.823	3.01
259.198	2.85
259.573	2.82
259.948	2.78
260.322	2.66
260.697	2.83
261.072	2.86
261.446	2.91
261.821	2.94
262.195	3.01
262.57	3.09
262.944	3.13
263.319	3.37
263.693	3.3
264.067	3.37
264.442	3.46
264.816	3.48
265.19	3.67
265.564	3.57
265.938	3.69
266.313	3.54
266.687	3.47
267.061	3.56
267.435	3.88
267.809	3.96
268.183	4.08
268.556	3.77
268.93	3.72
269.304	3.51
269.678	3.49
270.051	3.5
270.425	3.43
270.799	3.19
271.172	3.08
271.546	3.09
271.919	3.14
272.293	3.09
272.666	3.08
273.04	2.98
273.413	3
273.787	2.75
274.16	2.88
274.533	2.93
274.906	2.95
275.279	2.94
275.653	3.02
276.026	3.05
276.399	3.11
276.772	3.37
277.145	3.5
277.518	3.36
277.891	3.09
278.263	3.25
278.636	3.53
279.009	3.63
279.382	3.67
279.755	3.84
280.127	3.84
280.5	3.84
280.872	3.76
281.245	3.75
281.617	3.85
281.99	3.83
282.362	3.72
282.735	3.58
283.107	3.49
283.479	3.36
283.852	3.19
284.224	3.23
284.596	3.06
284.968	2.99
285.34	3
285.713	3.34
286.085	3.17
286.457	3.06
286.829	3.05
287.201	2.98
287.572	2.9
287.944	3.01
288.316	3.08
288.688	3.12
289.06	3.05
289.431	3.21
289.803	3.23
290.175	3.3
290.546	3.37
290.918	3.3
291.289	3.28
291.661	3.29
292.032	3.33
292.403	3.16
292.775	3.12
293.146	3.12
293.517	2.95
293.889	2.92
294.26	2.85
294.631	2.86
295.002	2.83
295.373	2.65
295.744	2.49
296.115	2.48
296.486	2.52
296.857	2.58
297.228	2.46
297.599	2.28
297.97	2.26
298.34	2.37
298.711	2.43
299.082	2.48
299.452	2.47
299.823	2.45
300.194	2.67
300.564	2.64
300.935	2.79
301.305	2.76
301.676	2.72
302.046	2.85
302.416	2.81
302.787	3.05
303.157	3.31
303.527	3.41
303.897	3.38
304.267	3.34
304.637	3.45
305.008	3.42
305.378	3.62
305.748	3.63
306.117	3.5
306.487	3.56
306.857	3.68
307.227	3.84
307.597	3.91
307.967	3.79
308.336	4
308.706	4.07
309.076	4.18
309.445	4.26
309.815	4.12
310.184	4.02
310.554	3.92
310.923	3.89
311.293	3.82
311.662	3.78
312.031	3.75
312.401	3.62
312.77	3.69
313.139	3.6
313.508	3.52
313.877	3.65
314.246	3.66
314.616	3.55
314.985	3.39
315.353	3.34
315.722	3.29
316.091	3.17
316.46	2.98
316.829	2.92
317.198	2.9
317.567	3.13
317.935	3.2
318.304	3.29
318.672	3.23
319.041	3.29
319.41	3.39
319.778	3.42
320.147	3.48
320.515	3.47
320.883	3.49
321.252	3.58
321.62	3.38
321.988	3.48
322.357	3.51
322.725	3.56
323.093	3.39
323.461	3.48
323.829	3.66
324.197	3.76
324.565	3.75
324.933	3.77
325.301	3.37
325.669	3.43
326.037	3.39
326.405	3.36
326.772	3.33
327.14	3.33
327.508	3.26
327.875	3.3
328.243	3.26
328.61	3.31
328.978	3.32
329.346	3.38
329.713	3.31
330.08	3.36
330.448	3.43
330.815	3.48
331.182	3.24
331.55	3.14
331.917	3.03
332.284	2.99
332.651	2.89
333.018	3.23
333.385	3.16
333.752	3.07
334.119	3.16
334.486	3.32
334.853	3.25
335.22	3.22
335.587	3.23
335.954	3.25
336.32	3.19
336.687	3.23
337.054	3.26
337.42	3.21
337.787	3.25
338.153	3.18
338.52	3.31
338.886	3.43
339.253	3.33
339.619	3.32
339.986	3.15
340.352	3.14
340.718	3.03
341.084	3.05
341.451	3.01
341.817	2.97
342.183	2.93
342.549	3
342.915	3.11
343.281	3.08
343.647	3.13
344.013	3.21
344.379	3.22
344.745	3.35
345.11	3.39
345.476	3.43
345.842	3.42
346.208	3.36
346.573	3.45
346.939	3.54
347.304	3.57
347.67	3.68
348.035	3.74
348.401	3.73
348.766	3.65
349.132	3.78
349.497	3.84
349.862	3.75
350.228	3.7
350.593	3.62
350.958	3.6
351.323	3.55
351.688	3.59
352.053	3.57
352.418	3.48
352.783	3.42
353.148	3.32
353.513	3.32
353.878	3.31
354.243	3.32
354.608	3.33
354.972	3.28
355.337	3.37
355.702	3.34
356.066	3.33
356.431	3.41
356.795	3.24
357.16	3.17
357.524	3.23
357.889	3.24
358.253	3.21
358.618	3.21
358.982	3.15
359.346	3.07
359.71	3.05
360.075	3.09
360.439	3.11
360.803	3.11
361.167	3.13
361.531	3.08
361.895	3.1
362.259	3.08
362.623	3.09
362.987	3.04
363.351	2.96
363.714	3.01
364.078	2.99
364.442	3.05
364.806	3.07
365.169	3.02
365.533	3.04
365.896	3.12
366.26	3.09
366.623	3.1
366.987	3.08
367.35	3.09
367.714	3.07
368.077	3.12
368.44	3.11
368.803	3.05
369.167	3.07
369.53	2.97
369.893	2.97
370.256	3
370.619	3
370.982	3.09
371.345	3.06
371.708	3.11
372.071	3.16
372.434	3.2
372.797	3.26
373.159	3.18
373.522	3.13
373.885	3.15
374.247	3.14
374.61	3.18
374.973	3.15
375.335	3.08
375.698	3.06
376.06	3.11
376.423	3.18
376.785	3.23
377.147	3.27
377.51	3.27
377.872	3.17
378.234	3.23
378.596	3.18
378.958	3.21
379.321	3.16
379.683	3.17
380.045	3.13
380.407	3.06
380.769	3.07
381.13	3.08
381.492	3.05
381.854	3.09
382.216	3.09
382.578	3.11
382.939	3.16
383.301	3.12
383.663	3.05
384.024	3.02
384.386	2.98
384.747	2.99
385.109	3
385.47	3.07
385.832	3
386.193	3.04
386.554	2.98
386.916	2.99
387.277	2.94
387.638	2.93
387.999	2.96
388.36	2.94
388.721	2.96
389.082	3.01
389.443	3.02
389.804	3.02
390.165	3.04
390.526	3.06
390.887	3.07
391.248	3.11
391.609	3.13
391.969	3.1
392.33	3.08
392.691	3.05
393.051	3.06
393.412	3.1
393.772	3.15
394.133	3.17
394.493	3.16
394.854	3.18
395.214	3.14
395.574	3.11
395.935	3.14
396.295	3.12
396.655	3.07
397.015	3.07
397.376	3.07
397.736	3.02
398.096	2.96
398.456	2.97
398.816	2.94
399.176	2.9
399.535	2.89
399.895	2.91
400.255	2.94
400.615	2.94
400.975	2.93
401.334	2.88
401.694	2.87
402.054	2.87
402.413	2.86
402.773	2.87
403.132	2.88
403.492	2.89
403.851	2.88
404.211	2.92
404.57	2.92
404.929	2.87
405.288	2.9
405.648	2.93
406.007	2.91
406.366	2.9
406.725	2.88
407.084	2.9
407.443	2.86
407.802	2.84
408.161	2.83
408.52	2.8
408.879	2.81
409.238	2.86
409.596	2.87
409.955	2.87
410.314	2.89
410.673	2.89
411.031	2.88
411.39	2.88
411.748	2.86
412.107	2.84
412.465	2.9
412.824	2.89
413.182	2.86
413.54	2.87
413.899	2.88
414.257	2.9
414.615	2.91
414.974	2.93
415.332	2.92
415.69	2.9
416.048	2.91
416.406	2.91
416.764	2.88
417.122	2.89
417.48	2.89
417.838	2.89
418.195	2.88
418.553	2.89
418.911	2.88
419.269	2.86
419.626	2.87
419.984	2.87
420.342	2.86
420.699	2.85
421.057	2.84
421.414	2.84
421.772	2.86
422.129	2.84
422.486	2.85
422.844	2.85
423.201	2.87
423.558	2.88
423.915	2.88
424.273	2.88
424.63	2.88
424.987	2.87
425.344	2.88
425.701	2.9
426.058	2.9
426.415	2.92
426.772	2.94
427.128	2.92
427.485	2.9
427.842	2.92
428.199	2.94
428.555	2.93
428.912	2.92
429.269	2.9
429.625	2.91
429.982	2.92
430.338	2.92
430.695	2.88
431.051	2.86
431.407	2.87
431.764	2.84
432.12	2.86
432.476	2.87
432.832	2.87
433.189	2.86
433.545	2.85
433.901	2.86
434.257	2.86
434.613	2.87
434.969	2.87
435.325	2.86
435.681	2.86
436.036	2.88
436.392	2.89
436.748	2.9
437.104	2.91
437.459	2.9
437.815	2.91
438.171	2.93
438.526	2.94
438.882	2.93
439.237	2.92
439.593	2.92
439.948	2.92
440.304	2.91
440.659	2.91
441.014	2.92
441.369	2.92
441.725	2.9
442.08	2.88
442.435	2.88
442.79	2.88
443.145	2.88
443.5	2.89
443.855	2.86
444.21	2.87
444.565	2.87
444.92	2.87
445.275	2.86
445.629	2.86
445.984	2.87
446.339	2.88
446.693	2.88
447.048	2.86
447.403	2.85
447.757	2.86
448.112	2.85
448.466	2.85
448.82	2.86
449.175	2.88
449.529	2.89
449.883	2.89
450.238	2.91
450.592	2.91
450.946	2.9
451.3	2.94
451.654	2.92
452.008	2.93
452.362	2.91
452.716	2.9
453.07	2.9
453.424	2.88
453.778	2.87
454.132	2.89
454.486	2.89
454.839	2.91
455.193	2.9
455.547	2.92
455.9	2.9
456.254	2.89
456.607	2.89
456.961	2.91
457.314	2.93
457.668	2.91
458.021	2.9
458.375	2.9
458.728	2.88
459.081	2.89
459.434	2.88
459.787	2.91
460.141	2.93
460.494	2.93
460.847	2.93
461.2	2.93
461.553	2.95
461.906	2.94
462.259	2.93
462.611	2.95
462.964	2.95
463.317	2.94
463.67	2.95
464.022	2.93
464.375	2.92
464.728	2.92
465.08	2.91
465.433	2.91
465.785	2.93
466.138	2.93
466.49	2.94
466.843	2.96
467.195	2.94
467.547	2.94
467.899	2.93
468.252	2.94
468.604	2.94
468.956	2.94
469.308	2.96
469.66	2.97
470.012	2.97
470.364	2.97
470.716	2.99
471.068	2.99
471.42	3.01
471.772	3.01
472.123	3.02
472.475	3.04
472.827	3.05
473.178	3.05
473.53	3.05
473.882	3.04
474.233	3.03
474.585	3.02
474.936	3.02
475.288	3.04
475.639	3.03
475.99	3.04
476.342	3.03
476.693	3.04
477.044	3.02
477.395	3
477.746	2.97
478.097	2.96
478.448	2.93
478.8	2.9
479.15	2.91
479.501	2.89
479.852	2.88
480.203	2.89
480.554	2.89
480.905	2.88
481.255	2.88
481.606	2.88
481.957	2.9
482.307	2.91
482.658	2.93
483.009	2.92
483.359	2.92
483.709	2.92
484.06	2.92
484.41	2.92
484.761	2.93
485.111	2.94
485.461	2.94
485.811	2.95
486.162	2.97
486.512	2.97
486.862	2.98
487.212	2.99
487.562	2.98
487.912	2.99
488.262	3
488.612	3.01
488.961	3.02
489.311	3.01
489.661	3
490.011	2.99
490.36	2.99
490.71	2.99
491.06	2.98
491.409	3
491.759	3
492.108	2.99
492.458	2.97
492.807	2.97
493.157	2.97
493.506	2.96
493.855	2.96
494.204	2.95
494.554	2.96
494.903	2.98
495.252	2.98
495.601	2.98
495.95	2.97
496.299	2.98
496.648	2.99
496.997	3
497.346	3
497.695	3.02
498.043	3.04
498.392	3.07
498.741	3.06
499.09	3.08
499.438	3.1
499.787	3.12
500.135	3.14
500.484	3.15
500.832	3.15
501.181	3.15
501.529	3.17
501.878	3.17
502.226	3.15
502.574	3.16
502.923	3.16
503.271	3.17
503.619	3.17
503.967	3.16
504.315	3.16
504.663	3.18
505.011	3.16
505.359	3.15
505.707	3.12
506.055	3.12
506.403	3.11
506.751	3.11
507.098	3.13
507.446	3.13
507.794	3.13
508.141	3.14
508.489	3.16
508.837	3.15
509.184	3.17
509.531	3.18
509.879	3.18
510.226	3.19
510.574	3.19
510.921	3.22
511.268	3.23
511.616	3.24
511.963	3.24
512.31	3.27
512.657	3.28
513.004	3.31
513.351	3.31
513.698	3.31
514.045	3.3
514.392	3.29
514.739	3.31
515.086	3.31
515.432	3.31
515.779	3.31
516.126	3.32
516.473	3.31
516.819	3.31
517.166	3.32
517.512	3.31
517.859	3.31
518.205	3.3
518.552	3.3
518.898	3.28
519.245	3.28
519.591	3.27
519.937	3.26
520.283	3.27
520.629	3.27
520.976	3.26
521.322	3.26
521.668	3.26
522.014	3.24
522.36	3.23
522.706	3.22
523.052	3.21
523.398	3.19
523.743	3.2
524.089	3.21
524.435	3.2
524.781	3.22
525.126	3.21
525.472	3.23
525.817	3.24
526.163	3.25
526.509	3.25
526.854	3.26
527.199	3.27
527.545	3.28
527.89	3.28
528.235	3.3
528.581	3.3
528.926	3.3
529.271	3.31
529.616	3.33
529.961	3.34
530.306	3.36
530.651	3.37
530.996	3.38
531.341	3.38
531.686	3.39
532.031	3.39
532.376	3.41
532.721	3.39
533.065	3.39
533.41	3.39
533.755	3.4
534.099	3.41
534.444	3.4
534.788	3.39
535.133	3.38
535.477	3.37
535.822	3.37
536.166	3.38
536.51	3.37
536.855	3.36
537.199	3.33
537.543	3.32
537.887	3.31
538.231	3.32
538.576	3.32
538.92	3.32
539.264	3.31
539.608	3.32
539.951	3.33
540.295	3.32
540.639	3.33
540.983	3.33
541.327	3.34
541.671	3.34
542.014	3.37
542.358	3.39
542.701	3.4
543.045	3.4
543.389	3.41
543.732	3.42
544.075	3.44
544.419	3.47
544.762	3.46
545.105	3.48
545.449	3.49
545.792	3.5
546.135	3.52
546.478	3.51
546.821	3.51
547.165	3.51
547.508	3.51
547.851	3.5
548.194	3.49
548.536	3.46
548.879	3.48
549.222	3.46
549.565	3.44
549.908	3.44
550.25	3.44
550.593	3.41
550.936	3.42
551.278	3.41
551.621	3.4
551.963	3.46
552.306	3.45
552.648	3.43
552.991	3.43
553.333	3.44
553.675	3.49
554.017	3.5
554.36	3.53
554.702	3.55
555.044	3.57
555.386	3.57
555.728	3.56
556.07	3.52
556.412	3.56
556.754	3.55
557.096	3.56
557.438	3.55
557.78	3.57
558.121	3.59
558.463	3.56
558.805	3.58
559.147	3.54
559.488	3.53
559.83	3.54
560.171	3.51
560.513	3.48
560.854	3.46
561.196	3.48
561.537	3.5
561.878	3.48
562.22	3.47
562.561	3.5
562.902	3.53
563.243	3.55
563.584	3.5
563.925	3.53
564.266	3.52
564.607	3.53
564.948	3.57
565.289	3.55
565.63	3.56
565.971	3.55
566.312	3.54
566.653	3.58
566.993	3.58
567.334	3.59
567.675	3.59
568.015	3.59
568.356	3.56
568.696	3.53
569.037	3.53
569.377	3.54
569.718	3.54
570.058	3.52
570.398	3.53
570.739	3.53
571.079	3.52
571.419	3.54
571.759	3.5
572.099	3.45
572.439	3.47
572.779	3.47
573.119	3.5
573.459	3.48
573.799	3.43
574.139	3.4
574.479	3.43
574.819	3.42
575.158	3.42
575.498	3.42
575.838	3.42
576.177	3.42
576.517	3.41
576.856	3.4
577.196	3.44
577.535	3.41
577.875	3.41
578.214	3.44
578.553	3.44
578.893	3.49
579.232	3.51
579.571	3.54
579.91	3.52
580.25	3.51
580.589	3.53
580.928	3.56
581.267	3.58
581.606	3.56
581.945	3.59
582.283	3.62
582.622	3.62
582.961	3.63
583.3	3.63
583.639	3.67
583.977	3.65
584.316	3.58
584.654	3.65
584.993	3.64
585.332	3.66
585.67	3.69
586.008	3.71
586.347	3.71
586.685	3.67
587.024	3.69
587.362	3.69
587.7	3.68
588.038	3.73
588.376	3.71
588.715	3.71
589.053	3.71
589.391	3.7
589.729	3.74
590.067	3.8
590.404	3.77
590.742	3.73
591.08	3.78
591.418	3.85
591.756	3.78
592.093	3.81
592.431	3.77
592.769	3.73
593.106	3.73
593.444	3.76
593.781	3.79
594.119	3.78
594.456	3.74
594.793	3.76
595.131	3.77
595.468	3.82
595.805	3.84
596.143	3.85
596.48	3.88
596.817	3.86
597.154	3.81
597.491	3.8
597.828	3.83
598.165	3.8
598.502	3.79
598.839	3.84
599.176	3.82
599.512	3.84
599.849	3.87
600.186	3.82
600.523	3.8
600.859	3.8
601.196	3.81
601.532	3.85
601.869	3.84
602.205	3.82
602.542	3.79
602.878	3.79
603.215	3.77
603.551	3.74
603.887	3.75
604.223	3.74
604.56	3.75
604.896	3.76
605.232	3.77
605.568	3.75
605.904	3.73
606.24	3.75
606.576	3.75
606.912	3.74
607.248	3.79
607.583	3.8
607.919	3.81
608.255	3.84
608.591	3.83
608.926	3.83
609.262	3.81
609.597	3.83
609.933	3.85
610.268	3.85
610.604	3.88
610.939	3.88
611.275	3.91
611.61	3.97
611.945	3.95
612.281	3.98
612.616	4.01
612.951	4.01
613.286	4.01
613.621	4.03
613.956	4.01
614.291	4
614.626	4
614.961	3.99
615.296	3.97
615.631	4
615.966	4.03
616.3	4.09
616.635	4.09
616.97	4.07
617.304	4.06
617.639	4.07
617.973	4.11
618.308	4.15
618.642	4.09
618.977	4.07
619.311	4.06
619.646	4.05
619.98	4.13
620.314	4.13
620.648	4.15
620.983	4.16
621.317	4.13
621.651	4.11
621.985	4.1
622.319	4.11
622.653	4.11
622.987	4.1
623.321	4.07
623.655	4.06
623.988	4.09
624.322	4.12
624.656	4.07
624.99	4.08
625.323	3.99
625.657	4.12
625.99	4.13
626.324	4.12
626.657	4.13
626.991	4.11
627.324	4.09
627.658	4.07
627.991	4.12
628.324	4.16
628.657	4.15
628.991	4.12
629.324	4.11
629.657	4.11
629.99	4.12
630.323	4.13
630.656	4.12
630.989	4.14
631.322	4.12
631.655	4.15
631.987	4.1
632.32	4.23
632.653	4.12
632.986	4.12
633.318	4.18
633.651	4.15
633.984	4.18
634.316	4.18
634.649	4.2
634.981	4.2
635.313	4.23
635.646	4.28
635.978	4.37
636.31	4.34
636.643	4.34
636.975	4.33
637.307	4.36
637.639	4.42
637.971	4.39
638.303	4.39
638.635	4.4
638.967	4.46
639.299	4.37
639.631	4.4
639.963	4.44
640.295	4.4
640.626	4.45
640.958	4.4
641.29	4.45
641.621	4.41
641.953	4.37
642.285	4.35
642.616	4.35
642.948	4.31
643.279	4.35
643.61	4.38
643.942	4.34
644.273	4.31
644.604	4.26
644.936	4.31
645.267	4.33
645.598	4.41
645.929	4.31
646.26	4.43
646.591	4.46
646.922	4.42
647.253	4.38
647.584	4.34
647.915	4.37
648.245	4.37
648.576	4.42
648.907	4.46
649.238	4.39
649.568	4.36
649.899	4.37
650.229	4.4
650.56	4.44
650.89	4.51
651.221	4.5
651.551	4.51
651.882	4.5
652.212	4.47
652.542	4.37
652.872	4.41
653.203	4.43
653.533	4.43
653.863	4.52
654.193	4.55
654.523	4.58
654.853	4.58
655.183	4.58
655.513	4.59
655.843	4.57
656.172	4.68
656.502	4.69
656.832	4.65
657.162	4.65
657.491	4.69
657.821	4.61
658.15	4.58
658.48	4.63
658.809	4.63
659.139	4.66
659.468	4.68
659.798	4.75
660.127	4.69
660.456	4.64
660.785	4.64
661.115	4.68
661.444	4.72
661.773	4.69
662.102	4.71
662.431	4.72
662.76	4.6
663.089	4.57
663.418	4.55
663.747	4.59
664.076	4.67
664.404	4.62
664.733	4.66
665.062	4.69
665.39	4.59
665.719	4.57
666.048	4.56
666.376	4.53
666.705	4.5
667.033	4.47
667.362	4.47
667.69	4.51
668.018	4.5
668.347	4.47
668.675	4.53
669.003	4.48
669.331	4.56
669.659	4.68
669.987	4.66
670.315	4.67
670.643	4.57
670.971	4.56
671.299	4.62
671.627	4.72
671.955	4.72
672.283	4.74
672.61	4.8
672.938	4.83
673.266	4.84
673.593	4.75
673.921	4.88
674.249	4.87
674.576	4.75
674.904	4.65
675.231	4.65
675.558	4.63
675.886	4.67
676.213	4.58
676.54	4.59
676.867	4.55
677.195	4.6
677.522	4.7
677.849	4.67
678.176	4.61
678.503	4.52
678.83	4.56
679.157	4.63
679.484	4.58
679.81	4.57
680.137	4.65
680.464	4.71
680.791	4.74
681.117	4.76
681.444	4.79
681.771	4.85
682.097	4.93
682.424	4.88
682.75	4.9
683.077	4.92
683.403	4.97
683.729	5
684.056	5
684.382	5
684.708	5.04
685.034	5.04
685.36	5.16
685.686	5.16
686.012	5.13
686.339	5.16
686.664	5.18
686.99	5.11
687.316	5.19
687.642	5.07
687.968	5.07
688.294	5.07
688.619	5.08
688.945	5.05
689.271	4.98
689.596	4.97
689.922	4.94
690.247	4.88
690.573	4.9
690.898	5.03
691.224	5.16
691.549	5.07
691.874	5.18
692.2	5.12
692.525	5.07
692.85	5.11
693.175	5.17
693.5	5.09
693.825	5.19
694.15	5.18
694.475	5.03
694.8	4.92
695.125	4.97
695.45	4.9
695.775	4.81
696.099	4.91
696.424	4.91
696.749	4.97
697.073	4.97
697.398	5.06
697.723	4.97
698.047	4.99
698.372	5.08
698.696	5
699.02	5.03
699.345	5.1
699.669	5.03
699.993	5.04
700.318	5.16
700.642	5.08
700.966	5.03
701.29	5.15
701.614	5.27
701.938	5.24
702.262	5.36
702.586	5.54
702.91	5.68
703.234	5.77
703.557	5.92
703.881	6.08
704.205	6.14
704.529	6.05
704.852	5.89
705.176	5.89
705.499	5.88
705.823	5.88
706.146	5.82
706.47	5.84
706.793	5.85
707.117	5.88
707.44	5.85
707.763	5.9
708.086	5.86
708.409	5.86
708.733	5.91
709.056	5.93
709.379	5.8
709.702	5.71
710.025	5.66
710.348	5.65
710.671	5.52
710.993	5.36
711.316	5.54
711.639	5.59
711.962	5.66
712.284	5.49
712.607	5.52
712.93	5.59
713.252	5.6
713.575	5.53
713.897	5.44
714.22	5.38
714.542	5.43
714.864	5.45
715.187	5.53
715.509	5.52
715.831	5.44
716.153	5.54
716.475	5.53
716.798	5.39
717.12	5.25
717.442	5.12
717.764	5.33
718.085	5.39
718.407	5.46
718.729	5.38
719.051	5.5
719.373	5.5
719.695	5.42
720.016	5.51
720.338	5.64
720.659	5.68
720.981	5.82
721.302	5.93
721.624	6.03
721.945	6.15
722.267	6.32
722.588	6.43
722.909	6.35
723.231	6.42
723.552	6.62
723.873	6.75
724.194	7.03
724.515	6.89
724.836	6.75
725.157	6.68
725.478	6.59
725.799	6.71
726.12	6.62
726.441	6.74
726.762	6.55
727.083	6.54
727.403	6.49
727.724	6.53
728.045	6.39
728.365	6.32
728.686	6.22
729.006	6.05
729.327	5.99
729.647	5.97
729.967	5.93
730.288	5.94
730.608	5.83
730.928	5.95
731.249	6.06
731.569	6.07
731.889	6.11
732.209	6.09
732.529	6.13
732.849	6.23
733.169	6.26
733.489	6.43
733.809	6.45
734.129	6.51
734.448	6.51
734.768	6.49
735.088	6.65
735.408	6.67
735.727	6.77
736.047	6.83
736.366	6.85
736.686	6.85
737.005	7.07
737.325	6.99
737.644	6.77
737.963	6.64
738.283	6.65
738.602	6.64
738.921	6.71
739.24	6.8
739.56	6.82
739.879	6.85
740.198	6.66
740.517	6.55
740.836	6.62
741.155	6.67
741.473	6.83
741.792	6.71
742.111	6.86
742.43	7.05
742.748	7.22
743.067	7.26
743.386	7.05
743.704	6.7
744.023	6.93
744.341	6.97
744.66	6.88
744.978	6.97
745.297	6.84
745.615	6.81
745.933	7.13
746.252	7.41
746.57	7.46
746.888	7.98
747.206	8.25
747.524	8.31
747.842	8.47
748.16	8.46
748.478	8.56
748.796	8.42
749.114	8.06
749.432	7.74
749.749	7.68
750.067	7.79
750.385	7.84
750.703	7.74
751.02	7.8
751.338	7.77
751.655	7.75
751.973	8.06
752.29	7.94
752.608	7.66
752.925	7.24
753.242	7.17
753.56	6.84
753.877	6.68
754.194	6.76
754.511	6.63
754.828	6.44
755.145	6.23
755.462	6.44
755.779	6.46
756.096	6.65
756.413	6.86
756.73	7.1
757.047	7.12
757.364	7
757.68	7.12
757.997	7.4
758.314	7.72
758.63	7.39
758.947	7.61
759.264	7.52
759.58	7.96
759.896	7.87
760.213	7.86
760.529	7.63
760.846	7.5
761.162	7.35
761.478	7.52
761.794	7.69
762.11	7.49
762.426	7.33
762.743	7.27
763.059	7.15
763.375	7.21
763.69	7.13
764.006	7.32
764.322	7.31
764.638	7.45
764.954	7.24
765.27	7.38
765.585	7.48
765.901	7.29
766.216	7.09
766.532	7.31
766.848	7.13
767.163	7.29
767.478	7.18
767.794	7.1
768.109	7.04
768.424	7.13
768.74	6.97
769.055	7.32
769.37	7.18
769.685	7.49
770	7.64
770.315	7.99
770.63	8.12
770.945	8.35
771.26	7.66
771.575	7.86
771.89	7.72
772.205	7.77
772.52	8.23
772.834	8.22
773.149	8.08
773.464	8.64
773.778	8.44
774.093	8.79
774.407	9.09
774.722	8.92
775.036	8.72
775.351	8.95
775.665	8.89
775.979	9.27
776.293	9.04
776.608	8.61
776.922	8.61
777.236	8.15
777.55	7.85
777.864	8.21
778.178	8.21
778.492	8.4
778.806	8.31
779.12	8.28
779.434	8.1
779.747	8.08
780.061	8.07
780.375	8.6
780.689	8.4
781.002	8.43
781.316	8.58
781.629	8.6
781.943	8.77
782.256	8.54
782.57	8.65
782.883	8.85
783.196	8.82
783.51	8.86
783.823	9.29
784.136	9.04
784.449	9.29
784.762	9.25
785.075	9.1
785.388	9.15
785.701	8.88
786.014	9.14
786.327	8.95
786.64	8.98
786.953	8.98
787.266	9.45
787.578	9.44
787.891	9.29
788.204	9.44
788.516	9.32
788.829	9.61
789.141	9.61
789.454	9.5
789.766	10.11
790.079	9.83
790.391	9.78
790.703	10.08
791.016	9.96
791.328	10.18
791.64	10.25
791.952	10.61
792.264	10.69
792.576	10.78
792.888	11.01
793.2	10.57
793.512	10.33
793.824	10.25
794.136	10.17
794.448	10.54
794.76	10.93
795.071	10.98
795.383	11.19
795.695	10.94
796.006	10.95
796.318	10.38
796.629	10.98
796.941	10.89
797.252	10.89
797.564	11.29
797.875	11.19
798.186	11.03
798.497	10.85
798.809	10.7
799.12	10.56
799.431	10.27
799.742	10.7
800.053	10.76
800.364	10.4
800.675	11.18
800.986	10.82
801.297	10.45
801.608	10.09
801.918	10.18
802.229	10.18
802.54	10.08
802.851	10.49
803.161	10.18
803.472	10.53
803.782	10.78
804.093	10.19
804.403	10.54
804.714	11.18
805.024	10.31
805.334	10.67
805.645	11.38
805.955	11.36
806.265	11.72
806.575	11.6
806.885	11.58
807.195	11.03
807.505	11.29
807.815	11.82
808.125	12.09
808.435	11.83
808.745	11.99
809.055	12.19
809.365	11.95
809.674	12.11
809.984	12.07
810.294	11.93
810.603	12.23
810.913	11.53
811.222	11.04
811.532	11.92
811.841	12.04
812.151	12.03
812.46	12.67
812.769	12.67
813.079	13.07
813.388	13.61
813.697	13.5
814.006	13.58
814.315	13.37
814.624	13.87
814.933	14.12
815.242	14.2
815.551	13.55
815.86	13.56
816.169	13.23
816.478	12.79
816.786	12.88
817.095	12.64
817.404	12.75
817.712	13.02
818.021	12.16
818.33	11.69
818.638	11.09
818.947	10.8
819.255	10.16
819.563	10.01
819.872	9.51
820.18	9.48
820.488	9.36
820.796	9.01
821.105	9.04
821.413	8.85
821.721	8.84
822.029	9.14
822.337	9.22
822.645	9.28
822.953	9.32
823.26	9.35
823.568	9.37
823.876	9.36
824.184	9.2
824.491	9.36
824.799	9.39
825.107	9.5
825.414	9.41
825.722	9.46
826.029	9.37
826.337	9.41
826.644	9.5
826.951	9.55
827.259	9.9
827.566	9.66
827.873	9.79
828.18	9.72
828.488	9.56
828.795	9.82
829.102	9.81
829.409	9.93
829.716	10.06
830.023	10.15
830.329	10.36
830.636	10.51
830.943	10.5
831.25	10.64
831.557	10.74
831.863	10.94
832.17	10.91
832.476	11.36
832.783	11.72
833.089	11.66
833.396	12.09
833.702	11.85
834.009	12.48
834.315	12.48
834.621	12.76
834.928	12.46
835.234	12.2
835.54	12
835.846	12.09
836.152	11.82
836.458	11.64
836.764	11.63
837.07	12.17
837.376	12.36
837.682	12.26
837.988	11.79
838.293	12.02
838.599	12.81
838.905	12.54
839.211	12.36
839.516	12.3
839.822	12.75
840.127	12.47
840.433	12
840.738	11.75
841.044	11.65
841.349	12.33
841.654	10.9
841.959	11.48
842.265	10.99
842.57	11.09
842.875	12.78
843.18	12.62
843.485	12.79
843.79	12.63
844.095	13.72
844.4	14.4
844.705	14.68
845.01	13.95
845.315	13.18
845.619	15.16
845.924	15.81
846.229	14.24
846.533	15.45
846.838	15.87
847.142	16.59
847.447	17.75
847.751	19.12
848.056	21.73
848.36	23.13
848.664	23.57
848.969	24.21
849.273	22.08
849.577	22.36
849.881	22.88
850.185	23.65
850.489	22.41
850.794	22.98
851.097	24.02
851.401	24.64
851.705	26.44
852.009	25.55
852.313	24.6
852.617	24.32
852.92	23.85
853.224	25.54
853.528	26.21
853.831	25.39
854.135	28.16
854.438	26.8
854.742	26.25
855.045	26.96
855.349	26.85
855.652	26.52
855.955	26.37
856.259	26.55
856.562	29.05
856.865	28.56
857.168	27.57
857.471	27.12
857.774	27.38
858.077	26.22
858.38	25.14
858.683	27.24
858.986	28.45
859.289	29.87
859.592	30.82
859.894	28.97
860.197	27.09
860.5	23.88
860.802	25.2
861.105	22.9
861.407	24.42
861.71	22.77
862.012	24.8
862.315	27.33
862.617	25.48
862.919	23.61
863.222	22.89
863.524	23.85
863.826	22.89
864.128	21.57
864.43	24.25
864.732	23.61
865.034	25.91
865.336	25.96
865.638	24.49
865.94	25.03
866.242	28.78
866.544	35.39
866.846	37.29
867.147	37.92
867.449	41.06
867.751	37.76
868.052	36.71
868.354	38.94
868.655	36.67
868.957	36.46
869.258	36.62
869.56	37.01
869.861	32.46
870.162	31.7
870.463	34.84
870.765	33.73
871.066	33.43
871.367	30.84
871.668	29.28
871.969	28.05
872.27	25.54
872.571	25.09
872.872	21.12
873.173	20.97
873.473	17.51
873.774	17.72
874.075	18.43
874.376	20.15
874.676	18.6
874.977	19.08
875.277	18.19
875.578	19.32
875.878	20.95
876.179	25
876.479	26.38
876.78	24.02
877.08	24.06
877.38	25.09
877.68	24.5
877.981	27.99
878.281	30.93
878.581	30.62
