Data from MVZ_BU147393_Reflection_00003.txt Node
Date: Tue Nov 19 12:06:52 EST 2019
User: vgr7
Spectrometer: USB2G7710
Scans to average: 3
Trigger mode: 4
Integration Time (sec): 2.000000E-2
Electric dark correction enabled: true
Boxcar width: 10
XAxis mode: Wavelengths
Number of Pixels in Spectrum: 2048
>>>>>Begin Spectral Data<<<<<
177.721	204.68
178.105	5850
178.488	151.18
178.871	159.38
179.254	27.27
179.636	145.82
180.019	60.43
180.402	-266.67
180.785	54.55
181.168	112.14
181.55	-434.48
181.933	-51.64
182.316	-36.16
182.698	-130.09
183.081	-40.57
183.463	-42.86
183.846	-143.36
184.228	-127.54
184.611	-332.77
184.993	-346.15
185.376	8850
185.758	32100
186.14	1140
186.522	231.36
186.904	720
187.287	2528.57
187.669	288.46
188.051	265.18
188.433	107.63
188.815	48.43
189.197	9.27
189.579	-23.21
189.961	-9.92
190.342	-26.69
190.724	-29.03
191.106	-17.54
191.488	11.91
191.869	25.66
192.251	15.6
192.633	8.88
193.014	0.8
193.396	-6.74
193.777	-8.03
194.159	-24.36
194.54	-21.52
194.922	-21.57
195.303	-30.8
195.684	-43.05
196.065	-46.29
196.447	-74.41
196.828	-71.66
197.209	-63.93
197.59	-66.5
197.971	-84.15
198.352	-72.12
198.733	-79.86
199.114	-82.57
199.495	-121.19
199.876	-132.48
200.257	-138.52
200.638	-113.75
201.018	-84.92
201.399	-80.58
201.78	-58.14
202.16	-60.55
202.541	-46.41
202.922	-49.96
203.302	-46.35
203.683	-39.27
204.063	-40.14
204.444	-22.16
204.824	-9.55
205.204	-9.99
205.585	-4.98
205.965	4.66
206.345	12.51
206.725	7.27
207.106	8.42
207.486	24.65
207.866	14.87
208.246	13.75
208.626	10.14
209.006	3.36
209.386	9.54
209.766	-0
210.145	-1.24
210.525	-5.9
210.905	20.61
211.285	22.34
211.664	20.82
212.044	37.5
212.424	35.35
212.803	31.66
213.183	36.79
213.562	44.5
213.942	35.85
214.321	10.1
214.701	31.91
215.08	24.13
215.459	12.03
215.838	42.02
216.218	97.64
216.597	136.02
216.976	196.15
217.355	211.34
217.734	173.86
218.113	201.88
218.492	190.91
218.871	148.51
219.25	157.98
219.629	230.56
220.008	175.79
220.387	206.76
220.766	152.28
221.144	199.48
221.523	159.07
221.902	151.68
222.28	254.24
222.659	159.93
223.037	133.72
223.416	128.24
223.794	102.31
224.173	61.41
224.551	39.03
224.929	32.32
225.308	38.19
225.686	34.77
226.064	23.32
226.442	19.22
226.821	10.93
227.199	5.7
227.577	3.14
227.955	1.42
228.333	3.22
228.711	2.62
229.089	1.84
229.467	4.46
229.845	1
230.222	5.6
230.6	3.22
230.978	6.33
231.356	7.48
231.733	6.05
232.111	7.23
232.488	6.26
232.866	8.68
233.243	7.79
233.621	5.88
233.998	5.65
234.376	4.34
234.753	3.47
235.13	4.01
235.508	5.89
235.885	6.14
236.262	5.97
236.639	5.56
237.016	4.92
237.393	5.82
237.77	7.14
238.147	5.62
238.524	5
238.901	3.12
239.278	2.2
239.655	1.75
240.032	2.29
240.409	3.05
240.785	2.4
241.162	2.71
241.539	3.06
241.915	3.68
242.292	4.33
242.668	5.08
243.045	5.3
243.421	4.94
243.798	5.28
244.174	5.03
244.551	4.95
244.927	5.35
245.303	5.28
245.679	5.44
246.056	5.77
246.432	5.79
246.808	6.31
247.184	6.75
247.56	6.85
247.936	6.96
248.312	7.06
248.688	7.04
249.064	6.68
249.44	6.6
249.815	6.82
250.191	6.68
250.567	6.7
250.943	6.67
251.318	6.9
251.694	6.45
252.069	6.39
252.445	6.37
252.82	6.54
253.196	6.45
253.571	6.24
253.947	6.14
254.322	6.1
254.697	5.43
255.073	5.22
255.448	5.17
255.823	4.9
256.198	4.51
256.573	4.67
256.948	4.94
257.323	5.17
257.698	4.83
258.073	4.79
258.448	4.61
258.823	4.35
259.198	4.33
259.573	4.1
259.948	4.35
260.322	4.42
260.697	4.49
261.072	4.57
261.446	4.79
261.821	4.65
262.195	4.7
262.57	4.9
262.944	4.96
263.319	5
263.693	4.98
264.067	5.07
264.442	5.1
264.816	4.95
265.19	4.75
265.564	4.8
265.938	4.74
266.313	4.47
266.687	4.76
267.061	4.45
267.435	4.97
267.809	4.77
268.183	4.8
268.556	4.59
268.93	4.63
269.304	4.37
269.678	4.54
270.051	4.46
270.425	4.5
270.799	4.19
271.172	4.33
271.546	4.49
271.919	4.59
272.293	4.71
272.666	4.79
273.04	4.87
273.413	4.7
273.787	4.87
274.16	4.88
274.533	5
274.906	5.33
275.279	5.25
275.653	5.33
276.026	5.32
276.399	5.26
276.772	5.2
277.145	5.32
277.518	5.09
277.891	5.19
278.263	5.02
278.636	5.28
279.009	5.05
279.382	4.81
279.755	4.73
280.127	4.51
280.5	4.36
280.872	4.36
281.245	4.54
281.617	4.52
281.99	4.71
282.362	4.56
282.735	4.32
283.107	4.19
283.479	4.12
283.852	4.09
284.224	4.21
284.596	4.25
284.968	4.16
285.34	4.12
285.713	4.02
286.085	4.03
286.457	3.89
286.829	3.84
287.201	3.85
287.572	3.84
287.944	3.93
288.316	4.11
288.688	4.09
289.06	4.09
289.431	3.97
289.803	4.03
290.175	4.01
290.546	4.1
290.918	4.12
291.289	3.96
291.661	4.02
292.032	3.92
292.403	4
292.775	4.24
293.146	4.36
293.517	4.55
293.889	4.67
294.26	4.71
294.631	4.93
295.002	5.15
295.373	5.18
295.744	5.21
296.115	5.2
296.486	5.27
296.857	5.24
297.228	5.27
297.599	5.07
297.97	5.21
298.34	5.25
298.711	5.36
299.082	5.46
299.452	5.5
299.823	5.47
300.194	5.42
300.564	5.19
300.935	5.33
301.305	5.26
301.676	5.21
302.046	5.35
302.416	5.33
302.787	5.16
303.157	5.09
303.527	5.07
303.897	5.01
304.267	4.97
304.637	4.93
305.008	4.97
305.378	5.12
305.748	5.07
306.117	5.11
306.487	5.1
306.857	5.36
307.227	5.3
307.597	5.37
307.967	5.27
308.336	5.44
308.706	5.36
309.076	5.36
309.445	5.37
309.815	5.28
310.184	5.26
310.554	5.1
310.923	5.14
311.293	5.05
311.662	5.2
312.031	5.13
312.401	5.15
312.77	5.16
313.139	5.19
313.508	5.05
313.877	5
314.246	4.88
314.616	4.72
314.985	4.65
315.353	4.68
315.722	4.88
316.091	4.78
316.46	4.83
316.829	4.72
317.198	4.62
317.567	4.59
317.935	4.64
318.304	4.94
318.672	4.98
319.041	5.18
319.41	5.03
319.778	5.1
320.147	5.19
320.515	5.11
320.883	5.14
321.252	5.25
321.62	5.18
321.988	5.31
322.357	5.22
322.725	5.16
323.093	4.95
323.461	4.88
323.829	4.86
324.197	4.78
324.565	4.78
324.933	4.81
325.301	4.77
325.669	4.7
326.037	4.6
326.405	4.73
326.772	4.61
327.14	4.53
327.508	4.42
327.875	4.34
328.243	4.29
328.61	4.15
328.978	4.12
329.346	4.13
329.713	4.08
330.08	4.23
330.448	4.51
330.815	4.66
331.182	4.55
331.55	4.55
331.917	4.32
332.284	4.35
332.651	4.37
333.018	4.46
333.385	4.35
333.752	4.4
334.119	4.26
334.486	4.28
334.853	4.24
335.22	4.38
335.587	4.46
335.954	4.51
336.32	4.53
336.687	4.54
337.054	4.53
337.42	4.67
337.787	4.53
338.153	4.42
338.52	4.36
338.886	4.44
339.253	4.44
339.619	4.53
339.986	4.43
340.352	4.4
340.718	4.39
341.084	4.52
341.451	4.6
341.817	4.66
342.183	4.55
342.549	4.59
342.915	4.55
343.281	4.51
343.647	4.53
344.013	4.66
344.379	4.64
344.745	4.68
345.11	4.56
345.476	4.64
345.842	4.59
346.208	4.62
346.573	4.44
346.939	4.51
347.304	4.56
347.67	4.66
348.035	4.69
348.401	4.69
348.766	4.61
349.132	4.54
349.497	4.47
349.862	4.63
350.228	4.64
350.593	4.72
350.958	4.75
351.323	4.78
351.688	4.78
352.053	4.84
352.418	4.8
352.783	4.82
353.148	4.83
353.513	4.8
353.878	4.75
354.243	4.86
354.608	4.83
354.972	4.79
355.337	4.88
355.702	4.94
356.066	4.89
356.431	4.93
356.795	4.93
357.16	4.97
357.524	4.91
357.889	4.89
358.253	4.86
358.618	4.93
358.982	4.92
359.346	4.83
359.71	4.78
360.075	4.79
360.439	4.81
360.803	4.78
361.167	4.75
361.531	4.82
361.895	4.81
362.259	4.84
362.623	4.84
362.987	4.74
363.351	4.65
363.714	4.68
364.078	4.65
364.442	4.59
364.806	4.59
365.169	4.54
365.533	4.59
365.896	4.56
366.26	4.47
366.623	4.48
366.987	4.55
367.35	4.63
367.714	4.68
368.077	4.72
368.44	4.72
368.803	4.68
369.167	4.64
369.53	4.6
369.893	4.57
370.256	4.6
370.619	4.58
370.982	4.56
371.345	4.53
371.708	4.48
372.071	4.48
372.434	4.43
372.797	4.45
373.159	4.52
373.522	4.51
373.885	4.5
374.247	4.49
374.61	4.4
374.973	4.37
375.335	4.33
375.698	4.25
376.06	4.23
376.423	4.27
376.785	4.31
377.147	4.32
377.51	4.32
377.872	4.36
378.234	4.39
378.596	4.42
378.958	4.49
379.321	4.51
379.683	4.56
380.045	4.57
380.407	4.62
380.769	4.56
381.13	4.57
381.492	4.61
381.854	4.62
382.216	4.64
382.578	4.6
382.939	4.59
383.301	4.6
383.663	4.63
384.024	4.65
384.386	4.66
384.747	4.63
385.109	4.64
385.47	4.6
385.832	4.59
386.193	4.6
386.554	4.54
386.916	4.54
387.277	4.49
387.638	4.52
387.999	4.43
388.36	4.4
388.721	4.4
389.082	4.36
389.443	4.36
389.804	4.38
390.165	4.41
390.526	4.43
390.887	4.41
391.248	4.4
391.609	4.39
391.969	4.37
392.33	4.37
392.691	4.37
393.051	4.38
393.412	4.39
393.772	4.41
394.133	4.39
394.493	4.4
394.854	4.4
395.214	4.38
395.574	4.42
395.935	4.43
396.295	4.46
396.655	4.46
397.015	4.45
397.376	4.44
397.736	4.43
398.096	4.37
398.456	4.39
398.816	4.38
399.176	4.36
399.535	4.3
399.895	4.29
400.255	4.29
400.615	4.27
400.975	4.29
401.334	4.28
401.694	4.32
402.054	4.32
402.413	4.36
402.773	4.4
403.132	4.37
403.492	4.36
403.851	4.35
404.211	4.34
404.57	4.32
404.929	4.34
405.288	4.34
405.648	4.37
406.007	4.36
406.366	4.34
406.725	4.32
407.084	4.36
407.443	4.35
407.802	4.34
408.161	4.34
408.52	4.32
408.879	4.32
409.238	4.33
409.596	4.33
409.955	4.31
410.314	4.26
410.673	4.26
411.031	4.26
411.39	4.27
411.748	4.32
412.107	4.31
412.465	4.3
412.824	4.28
413.182	4.27
413.54	4.28
413.899	4.29
414.257	4.33
414.615	4.31
414.974	4.32
415.332	4.31
415.69	4.32
416.048	4.29
416.406	4.26
416.764	4.23
417.122	4.19
417.48	4.2
417.838	4.2
418.195	4.2
418.553	4.2
418.911	4.17
419.269	4.16
419.626	4.16
419.984	4.16
420.342	4.16
420.699	4.16
421.057	4.17
421.414	4.17
421.772	4.18
422.129	4.18
422.486	4.19
422.844	4.18
423.201	4.19
423.558	4.21
423.915	4.23
424.273	4.24
424.63	4.27
424.987	4.27
425.344	4.27
425.701	4.28
426.058	4.28
426.415	4.3
426.772	4.3
427.128	4.32
427.485	4.33
427.842	4.33
428.199	4.32
428.555	4.3
428.912	4.28
429.269	4.24
429.625	4.24
429.982	4.22
430.338	4.24
430.695	4.22
431.051	4.21
431.407	4.2
431.764	4.19
432.12	4.18
432.476	4.19
432.832	4.2
433.189	4.19
433.545	4.18
433.901	4.19
434.257	4.18
434.613	4.14
434.969	4.11
435.325	4.13
435.681	4.16
436.036	4.16
436.392	4.18
436.748	4.21
437.104	4.23
437.459	4.25
437.815	4.25
438.171	4.24
438.526	4.23
438.882	4.24
439.237	4.24
439.593	4.23
439.948	4.22
440.304	4.21
440.659	4.23
441.014	4.24
441.369	4.23
441.725	4.23
442.08	4.22
442.435	4.26
442.79	4.25
443.145	4.25
443.5	4.25
443.855	4.23
444.21	4.21
444.565	4.21
444.92	4.21
445.275	4.21
445.629	4.21
445.984	4.23
446.339	4.23
446.693	4.22
447.048	4.23
447.403	4.22
447.757	4.22
448.112	4.2
448.466	4.19
448.82	4.18
449.175	4.19
449.529	4.21
449.883	4.2
450.238	4.19
450.592	4.16
450.946	4.15
451.3	4.17
451.654	4.18
452.008	4.17
452.362	4.15
452.716	4.14
453.07	4.14
453.424	4.13
453.778	4.11
454.132	4.11
454.486	4.1
454.839	4.09
455.193	4.13
455.547	4.12
455.9	4.12
456.254	4.14
456.607	4.13
456.961	4.14
457.314	4.14
457.668	4.16
458.021	4.16
458.375	4.16
458.728	4.16
459.081	4.16
459.434	4.16
459.787	4.16
460.141	4.17
460.494	4.17
460.847	4.18
461.2	4.19
461.553	4.21
461.906	4.23
462.259	4.22
462.611	4.2
462.964	4.2
463.317	4.2
463.67	4.2
464.022	4.23
464.375	4.19
464.728	4.2
465.08	4.2
465.433	4.22
465.785	4.25
466.138	4.26
466.49	4.28
466.843	4.28
467.195	4.29
467.547	4.27
467.899	4.28
468.252	4.28
468.604	4.27
468.956	4.28
469.308	4.25
469.66	4.29
470.012	4.31
470.364	4.33
470.716	4.37
471.068	4.38
471.42	4.38
471.772	4.39
472.123	4.41
472.475	4.4
472.827	4.38
473.178	4.38
473.53	4.38
473.882	4.36
474.233	4.38
474.585	4.38
474.936	4.39
475.288	4.38
475.639	4.41
475.99	4.39
476.342	4.4
476.693	4.41
477.044	4.39
477.395	4.37
477.746	4.36
478.097	4.34
478.448	4.35
478.8	4.34
479.15	4.34
479.501	4.32
479.852	4.34
480.203	4.36
480.554	4.37
480.905	4.36
481.255	4.35
481.606	4.36
481.957	4.37
482.307	4.37
482.658	4.39
483.009	4.38
483.359	4.38
483.709	4.38
484.06	4.39
484.41	4.39
484.761	4.4
485.111	4.4
485.461	4.4
485.811	4.39
486.162	4.4
486.512	4.41
486.862	4.41
487.212	4.41
487.562	4.39
487.912	4.39
488.262	4.4
488.612	4.41
488.961	4.4
489.311	4.38
489.661	4.38
490.011	4.38
490.36	4.37
490.71	4.38
491.06	4.38
491.409	4.37
491.759	4.36
492.108	4.36
492.458	4.37
492.807	4.38
493.157	4.38
493.506	4.37
493.855	4.37
494.204	4.38
494.554	4.38
494.903	4.39
495.252	4.39
495.601	4.39
495.95	4.39
496.299	4.4
496.648	4.42
496.997	4.42
497.346	4.46
497.695	4.47
498.043	4.48
498.392	4.48
498.741	4.49
499.09	4.53
499.438	4.54
499.787	4.54
500.135	4.53
500.484	4.55
500.832	4.59
501.181	4.59
501.529	4.61
501.878	4.61
502.226	4.65
502.574	4.67
502.923	4.69
503.271	4.71
503.619	4.75
503.967	4.76
504.315	4.77
504.663	4.74
505.011	4.75
505.359	4.73
505.707	4.73
506.055	4.74
506.403	4.74
506.751	4.74
507.098	4.77
507.446	4.78
507.794	4.8
508.141	4.79
508.489	4.81
508.837	4.81
509.184	4.82
509.531	4.81
509.879	4.82
510.226	4.81
510.574	4.85
510.921	4.83
511.268	4.84
511.616	4.84
511.963	4.85
512.31	4.88
512.657	4.9
513.004	4.9
513.351	4.9
513.698	4.9
514.045	4.9
514.392	4.89
514.739	4.93
515.086	4.96
515.432	4.99
515.779	4.97
516.126	5
516.473	5.04
516.819	5.07
517.166	5.07
517.512	5.08
517.859	5.08
518.205	5.08
518.552	5.08
518.898	5.08
519.245	5.09
519.591	5.09
519.937	5.1
520.283	5.12
520.629	5.13
520.976	5.13
521.322	5.13
521.668	5.15
522.014	5.15
522.36	5.12
522.706	5.13
523.052	5.14
523.398	5.12
523.743	5.1
524.089	5.09
524.435	5.09
524.781	5.09
525.126	5.09
525.472	5.12
525.817	5.13
526.163	5.13
526.509	5.15
526.854	5.14
527.199	5.15
527.545	5.16
527.89	5.18
528.235	5.19
528.581	5.2
528.926	5.21
529.271	5.21
529.616	5.22
529.961	5.21
530.306	5.21
530.651	5.21
530.996	5.22
531.341	5.23
531.686	5.24
532.031	5.25
532.376	5.25
532.721	5.24
533.065	5.24
533.41	5.23
533.755	5.25
534.099	5.26
534.444	5.26
534.788	5.24
535.133	5.23
535.477	5.23
535.822	5.22
536.166	5.22
536.51	5.22
536.855	5.21
537.199	5.21
537.543	5.21
537.887	5.21
538.231	5.22
538.576	5.21
538.92	5.21
539.264	5.21
539.608	5.23
539.951	5.23
540.295	5.25
540.639	5.27
540.983	5.26
541.327	5.28
541.671	5.28
542.014	5.31
542.358	5.29
542.701	5.29
543.045	5.32
543.389	5.32
543.732	5.32
544.075	5.33
544.419	5.34
544.762	5.36
545.105	5.39
545.449	5.39
545.792	5.39
546.135	5.41
546.478	5.42
546.821	5.44
547.165	5.43
547.508	5.44
547.851	5.42
548.194	5.4
548.536	5.37
548.879	5.38
549.222	5.37
549.565	5.41
549.908	5.41
550.25	5.39
550.593	5.37
550.936	5.38
551.278	5.41
551.621	5.4
551.963	5.42
552.306	5.4
552.648	5.39
552.991	5.4
553.333	5.38
553.675	5.38
554.017	5.37
554.36	5.4
554.702	5.39
555.044	5.43
555.386	5.45
555.728	5.48
556.07	5.47
556.412	5.5
556.754	5.44
557.096	5.45
557.438	5.43
557.78	5.45
558.121	5.46
558.463	5.43
558.805	5.4
559.147	5.38
559.488	5.37
559.83	5.39
560.171	5.36
560.513	5.38
560.854	5.38
561.196	5.35
561.537	5.37
561.878	5.38
562.22	5.39
562.561	5.41
562.902	5.36
563.243	5.37
563.584	5.35
563.925	5.42
564.266	5.43
564.607	5.45
564.948	5.42
565.289	5.44
565.63	5.44
565.971	5.46
566.312	5.49
566.653	5.53
566.993	5.51
567.334	5.57
567.675	5.58
568.015	5.56
568.356	5.56
568.696	5.57
569.037	5.56
569.377	5.52
569.718	5.51
570.058	5.51
570.398	5.53
570.739	5.53
571.079	5.49
571.419	5.5
571.759	5.48
572.099	5.48
572.439	5.48
572.779	5.51
573.119	5.51
573.459	5.47
573.799	5.45
574.139	5.47
574.479	5.46
574.819	5.45
575.158	5.45
575.498	5.44
575.838	5.43
576.177	5.44
576.517	5.44
576.856	5.44
577.196	5.45
577.535	5.42
577.875	5.4
578.214	5.41
578.553	5.39
578.893	5.42
579.232	5.45
579.571	5.44
579.91	5.39
580.25	5.4
580.589	5.41
580.928	5.39
581.267	5.39
581.606	5.35
581.945	5.35
582.283	5.35
582.622	5.32
582.961	5.31
583.3	5.35
583.639	5.34
583.977	5.34
584.316	5.38
584.654	5.41
584.993	5.42
585.332	5.44
585.67	5.49
586.008	5.49
586.347	5.48
586.685	5.45
587.024	5.48
587.362	5.47
587.7	5.5
588.038	5.55
588.376	5.53
588.715	5.54
589.053	5.58
589.391	5.58
589.729	5.59
590.067	5.59
590.404	5.59
590.742	5.64
591.08	5.65
591.418	5.64
591.756	5.64
592.093	5.67
592.431	5.68
592.769	5.63
593.106	5.62
593.444	5.64
593.781	5.67
594.119	5.65
594.456	5.67
594.793	5.66
595.131	5.63
595.468	5.69
595.805	5.72
596.143	5.7
596.48	5.74
596.817	5.77
597.154	5.8
597.491	5.79
597.828	5.74
598.165	5.73
598.502	5.7
598.839	5.71
599.176	5.71
599.512	5.73
599.849	5.78
600.186	5.78
600.523	5.78
600.859	5.8
601.196	5.82
601.532	5.83
601.869	5.82
602.205	5.84
602.542	5.79
602.878	5.81
603.215	5.82
603.551	5.83
603.887	5.83
604.223	5.8
604.56	5.8
604.896	5.82
605.232	5.83
605.568	5.83
605.904	5.8
606.24	5.81
606.576	5.82
606.912	5.8
607.248	5.79
607.583	5.78
607.919	5.75
608.255	5.75
608.591	5.74
608.926	5.79
609.262	5.78
609.597	5.81
609.933	5.76
610.268	5.73
610.604	5.75
610.939	5.75
611.275	5.78
611.61	5.78
611.945	5.77
612.281	5.82
612.616	5.84
612.951	5.93
613.286	5.89
613.621	5.83
613.956	5.87
614.291	5.92
614.626	5.94
614.961	5.99
615.296	6.11
615.631	6.15
615.966	6.14
616.3	6.14
616.635	6.14
616.97	6.14
617.304	6.18
617.639	6.18
617.973	6.22
618.308	6.21
618.642	6.19
618.977	6.21
619.311	6.12
619.646	6.16
619.98	6.16
620.314	6.2
620.648	6.25
620.983	6.23
621.317	6.23
621.651	6.2
621.985	6.17
622.319	6.09
622.653	6.03
622.987	5.98
623.321	6.01
623.655	6.05
623.988	6.16
624.322	6.15
624.656	6.1
624.99	6.08
625.323	6.06
625.657	6.1
625.99	6.12
626.324	6.17
626.657	6.16
626.991	6.14
627.324	6.11
627.658	6.08
627.991	6.11
628.324	6.09
628.657	6.18
628.991	6.19
629.324	6.15
629.657	6.19
629.99	6.22
630.323	6.16
630.656	6.09
630.989	6.1
631.322	6.12
631.655	6.12
631.987	6.1
632.32	6.16
632.653	6.07
632.986	6.06
633.318	6.11
633.651	6.11
633.984	6.11
634.316	6.13
634.649	6.16
634.981	6.14
635.313	6.15
635.646	6.11
635.978	6.19
636.31	6.2
636.643	6.18
636.975	6.2
637.307	6.32
637.639	6.4
637.971	6.33
638.303	6.25
638.635	6.27
638.967	6.34
639.299	6.28
639.631	6.4
639.963	6.41
640.295	6.36
640.626	6.32
640.958	6.32
641.29	6.35
641.621	6.35
641.953	6.33
642.285	6.31
642.616	6.31
642.948	6.29
643.279	6.28
643.61	6.3
643.942	6.32
644.273	6.24
644.604	6.28
644.936	6.28
645.267	6.45
645.598	6.47
645.929	6.38
646.26	6.33
646.591	6.34
646.922	6.42
647.253	6.5
647.584	6.53
647.915	6.51
648.245	6.51
648.576	6.52
648.907	6.55
649.238	6.55
649.568	6.55
649.899	6.54
650.229	6.61
650.56	6.64
650.89	6.64
651.221	6.67
651.551	6.64
651.882	6.68
652.212	6.62
652.542	6.66
652.872	6.66
653.203	6.77
653.533	6.82
653.863	6.74
654.193	6.68
654.523	6.7
654.853	6.73
655.183	6.73
655.513	6.77
655.843	6.79
656.172	6.83
656.502	6.82
656.832	6.81
657.162	6.81
657.491	6.82
657.821	6.76
658.15	6.75
658.48	6.75
658.809	6.81
659.139	6.82
659.468	6.75
659.798	6.91
660.127	6.87
660.456	6.77
660.785	6.82
661.115	6.84
661.444	6.9
661.773	6.9
662.102	6.92
662.431	6.88
662.76	6.84
663.089	6.88
663.418	6.94
663.747	6.97
664.076	6.94
664.404	6.94
664.733	7.02
665.062	6.98
665.39	6.88
665.719	6.8
666.048	6.75
666.376	6.84
666.705	6.78
667.033	6.83
667.362	6.92
667.69	6.97
668.018	6.97
668.347	6.91
668.675	6.95
669.003	6.9
669.331	6.97
669.659	6.98
669.987	6.94
670.315	6.96
670.643	6.93
670.971	6.98
671.299	6.98
671.627	7
671.955	7.04
672.283	7.12
672.61	7.13
672.938	7.13
673.266	7.06
673.593	7.01
673.921	6.97
674.249	7.05
674.576	7.01
674.904	6.99
675.231	7.1
675.558	7.15
675.886	7.22
676.213	7.18
676.54	7.24
676.867	7.24
677.195	7.26
677.522	7.23
677.849	7.15
678.176	7.24
678.503	7.18
678.83	7.21
679.157	7.18
679.484	7.14
679.81	7.15
680.137	7.21
680.464	7.27
680.791	7.22
681.117	7.13
681.444	7.07
681.771	7.16
682.097	7.12
682.424	7.04
682.75	7.02
683.077	7.08
683.403	7.13
683.729	7.17
684.056	7.13
684.382	7.22
684.708	7.29
685.034	7.22
685.36	7.26
685.686	7.24
686.012	7.37
686.339	7.37
686.664	7.42
686.99	7.4
687.316	7.39
687.642	7.46
687.968	7.55
688.294	7.51
688.619	7.47
688.945	7.46
689.271	7.42
689.596	7.41
689.922	7.47
690.247	7.36
690.573	7.2
690.898	7.32
691.224	7.32
691.549	7.36
691.874	7.3
692.2	7.31
692.525	7.34
692.85	7.3
693.175	7.41
693.5	7.39
693.825	7.53
694.15	7.47
694.475	7.48
694.8	7.41
695.125	7.45
695.45	7.36
695.775	7.37
696.099	7.43
696.424	7.51
696.749	7.5
697.073	7.56
697.398	7.72
697.723	7.7
698.047	7.69
698.372	7.62
698.696	7.66
699.02	7.64
699.345	7.6
699.669	7.62
699.993	7.54
700.318	7.59
700.642	7.48
700.966	7.44
701.29	7.47
701.614	7.46
701.938	7.47
702.262	7.51
702.586	7.49
702.91	7.51
703.234	7.44
703.557	7.36
703.881	7.3
704.205	7.26
704.529	7.14
704.852	7.11
705.176	7.25
705.499	7.32
705.823	7.37
706.146	7.46
706.47	7.43
706.793	7.41
707.117	7.44
707.44	7.41
707.763	7.53
708.086	7.45
708.409	7.47
708.733	7.48
709.056	7.37
709.379	7.38
709.702	7.49
710.025	7.64
710.348	7.65
710.671	7.59
710.993	7.56
711.316	7.53
711.639	7.64
711.962	7.59
712.284	7.56
712.607	7.61
712.93	7.62
713.252	7.66
713.575	7.82
713.897	7.65
714.22	7.62
714.542	7.69
714.864	7.69
715.187	7.77
715.509	7.74
715.831	7.92
716.153	7.88
716.475	7.9
716.798	7.68
717.12	7.69
717.442	7.75
717.764	7.65
718.085	7.62
718.407	7.63
718.729	7.64
719.051	7.66
719.373	7.82
719.695	7.86
720.016	7.76
720.338	7.7
720.659	7.89
720.981	7.95
721.302	8.03
721.624	7.97
721.945	7.9
722.267	8.09
722.588	8.01
722.909	8.02
723.231	8.02
723.552	8.09
723.873	7.98
724.194	8.13
724.515	8.27
724.836	8.2
725.157	8.02
725.478	8
725.799	7.93
726.12	7.78
726.441	7.91
726.762	7.98
727.083	7.93
727.403	7.8
727.724	7.86
728.045	7.86
728.365	8.07
728.686	7.94
729.006	7.95
729.327	8.13
729.647	8.09
729.967	8.01
730.288	8.13
730.608	8.27
730.928	8.26
731.249	8.36
731.569	8.41
731.889	8.49
732.209	8.41
732.529	8.49
732.849	8.37
733.169	8.23
733.489	8.45
733.809	8.53
734.129	8.46
734.448	8.58
734.768	8.37
735.088	8.17
735.408	8.39
735.727	8.44
736.047	8.39
736.366	8.52
736.686	8.56
737.005	8.57
737.325	8.63
737.644	8.53
737.963	8.35
738.283	8.52
738.602	8.76
738.921	8.92
739.24	8.94
739.56	8.96
739.879	8.89
740.198	8.71
740.517	8.64
740.836	8.91
741.155	9
741.473	9.23
741.792	9.52
742.111	9.63
742.43	9.69
742.748	9.58
743.067	9.7
743.386	9.68
743.704	9.71
744.023	9.57
744.341	9.8
744.66	10.01
744.978	10.06
745.297	9.73
745.615	9.52
745.933	9.27
746.252	9.12
746.57	9.09
746.888	9.09
747.206	9.11
747.524	8.99
747.842	8.71
748.16	8.58
748.478	8.49
748.796	8.37
749.114	8.41
749.432	8.64
749.749	8.43
750.067	8.59
750.385	8.5
750.703	8.59
751.02	8.55
751.338	8.46
751.655	8.38
751.973	8.55
752.29	8.78
752.608	8.89
752.925	9.04
753.242	9.32
753.56	9.28
753.877	9.28
754.194	9.45
754.511	9.48
754.828	9.61
755.145	9.66
755.462	9.55
755.779	9.43
756.096	9.3
756.413	9.1
756.73	8.88
757.047	8.92
757.364	9.08
757.68	9.15
757.997	9.44
758.314	9.47
758.63	9.4
758.947	9.42
759.264	9.73
759.58	9.97
759.896	9.94
760.213	10.14
760.529	10.25
760.846	10.52
761.162	10.66
761.478	10.48
761.794	10.5
762.11	10.84
762.426	10.76
762.743	10.65
763.059	10.91
763.375	10.95
763.69	11
764.006	11.08
764.322	11.06
764.638	11.01
764.954	11.07
765.27	11.14
765.585	11.27
765.901	11.29
766.216	11.39
766.532	11.41
766.848	11.32
767.163	11.31
767.478	11.04
767.794	11.03
768.109	11.35
768.424	11.29
768.74	10.96
769.055	11.11
769.37	11.21
769.685	11.48
770	11.51
770.315	11.75
770.63	11.41
770.945	11.61
771.26	11.38
771.575	11.4
771.89	11.34
772.205	11.12
772.52	10.73
772.834	10.57
773.149	10.09
773.464	10.28
773.778	10.18
774.093	10.31
774.407	10.37
774.722	9.85
775.036	10.23
775.351	10.39
775.665	10.42
775.979	10.66
776.293	10.39
776.608	10.44
776.922	9.88
777.236	10.23
777.55	10.07
777.864	10.36
778.178	10.32
778.492	10.41
778.806	10.68
779.12	10.93
779.434	11.1
779.747	11.63
780.061	11.77
780.375	12.24
780.689	12.43
781.002	12.43
781.316	12.55
781.629	12.05
781.943	11.97
782.256	11.83
782.57	11.98
782.883	12.09
783.196	12.05
783.51	12.32
783.823	11.65
784.136	11.61
784.449	11.15
784.762	11.2
785.075	11.04
785.388	11.09
785.701	11.14
786.014	10.57
786.327	10.55
786.64	10.6
786.953	10.55
787.266	10.32
787.578	10.29
787.891	10.45
788.204	10.69
788.516	11.28
788.829	11.45
789.141	11.57
789.454	11.67
789.766	11.69
790.079	11.45
790.391	11.86
790.703	11.55
791.016	11.63
791.328	11.9
791.64	12.12
791.952	12.19
792.264	12.15
792.576	12.31
792.888	12.38
793.2	11.88
793.512	11.41
793.824	11.6
794.136	11.63
794.448	12.11
794.76	12.39
795.071	11.95
795.383	11.95
795.695	11.7
796.006	11.11
796.318	11.33
796.629	11.8
796.941	12.07
797.252	12.05
797.564	12.22
797.875	12.21
798.186	11.98
798.497	12.08
798.809	12.71
799.12	12.58
799.431	12.95
799.742	13.41
800.053	13.56
800.364	13.55
800.675	13.87
800.986	13.84
801.297	13.77
801.608	13.82
801.918	13.8
802.229	14.02
802.54	14.28
802.851	14.06
803.161	14.02
803.472	13.78
803.782	14.57
804.093	14.26
804.403	14.52
804.714	14.34
805.024	13.28
805.334	13.15
805.645	13.8
805.955	13.23
806.265	12.93
806.575	13.23
806.885	12.73
807.195	13.09
807.505	12.69
807.815	12.79
808.125	12.77
808.435	12.29
808.745	12.13
809.055	12.5
809.365	12.97
809.674	12.71
809.984	12.91
810.294	12.46
810.603	13.2
810.913	12.81
811.222	12.69
811.532	13.58
811.841	13.11
812.151	13.12
812.46	12.92
812.769	12.26
813.079	12.26
813.388	12.77
813.697	11.62
814.006	11.99
814.315	11.34
814.624	11.66
814.933	12.21
815.242	12.07
815.551	12.32
815.86	12.53
816.169	13.44
816.478	13.62
816.786	13.46
817.095	13.27
817.404	12.73
817.712	13.47
818.021	12.96
818.33	13.21
818.638	13.45
818.947	13.15
819.255	13.59
819.563	13.44
819.872	13.24
820.18	13.19
820.488	13.17
820.796	13.46
821.105	13.45
821.413	13.43
821.721	13.31
822.029	13.04
822.337	12.86
822.645	12.73
822.953	12.59
823.26	12.73
823.568	12.89
823.876	12.93
824.184	12.95
824.491	13.1
824.799	13.11
825.107	12.87
825.414	13.07
825.722	13.15
826.029	13.18
826.337	13.22
826.644	13.48
826.951	13.53
827.259	13.45
827.566	13.31
827.873	13.37
828.18	13.7
828.488	14.03
828.795	14.25
829.102	14.21
829.409	14.24
829.716	14.13
830.023	14.06
830.329	14.42
830.636	14.61
830.943	14.98
831.25	15.2
831.557	15.64
831.863	15.42
832.17	15.41
832.476	15.27
832.783	15.72
833.089	15.23
833.396	15.24
833.702	15.22
834.009	15.2
834.315	15.07
834.621	14.63
834.928	14.5
835.234	14.39
835.54	14.71
835.846	15.25
836.152	15.33
836.458	14.98
836.764	15.14
837.07	14.84
837.376	13.91
837.682	13.24
837.988	13.07
838.293	13.85
838.599	13.36
838.905	13.88
839.211	13.5
839.516	13.74
839.822	13.86
840.127	14.72
840.433	15.51
840.738	15.36
841.044	15.49
841.349	15.29
841.654	14.88
841.959	15.26
842.265	15.94
842.57	15.62
842.875	16.47
843.18	15.87
843.485	16.38
843.79	18.39
844.095	20.03
844.4	21.36
844.705	21.53
845.01	22.72
845.315	23.33
845.619	23.17
845.924	22.29
846.229	22.85
846.533	21.37
846.838	21.39
847.142	21.68
847.447	22.35
847.751	22.92
848.056	23.74
848.36	23.37
848.664	22.76
848.969	22.88
849.273	21.9
849.577	22.55
849.881	20.85
850.185	20.17
850.489	18.25
850.794	16.59
851.097	16.54
851.401	15.18
851.705	13.15
852.009	13.82
852.313	14.1
852.617	14.02
852.92	13.9
853.224	15.03
853.528	13.34
853.831	15.63
854.135	17.98
854.438	19.26
854.742	19.44
855.045	16.68
855.349	16.55
855.652	17.13
855.955	16.68
856.259	17.9
856.562	16.55
856.865	17.31
857.168	16.98
857.471	14.77
857.774	16.91
858.077	18.01
858.38	16.95
858.683	18.33
858.986	17.6
859.289	17.02
859.592	18.87
859.894	20.8
860.197	18.34
860.5	18.34
860.802	13.99
861.105	11.58
861.407	13.73
861.71	15.56
862.012	15.88
862.315	14.9
862.617	14.52
862.919	14.89
863.222	14.66
863.524	15.56
863.826	16.43
864.128	15.33
864.43	15.03
864.732	14.56
865.034	17.07
865.336	15.71
865.638	16.68
865.94	11.38
866.242	12.32
866.544	13.69
866.846	11.58
867.147	12.15
867.449	15.27
867.751	15.38
868.052	14.4
868.354	14.93
868.655	15.15
868.957	16.11
869.258	14.77
869.56	14.96
869.861	14.9
870.162	15.14
870.463	14.22
870.765	13.2
871.066	15.18
871.367	13.63
871.668	14.59
871.969	13.83
872.27	16.17
872.571	16.3
872.872	15.15
873.173	13.64
873.473	14.8
873.774	15.03
874.075	15.2
874.376	14.98
874.676	17.11
874.977	20.7
875.277	20.25
875.578	25.71
875.878	26.12
876.179	26.28
876.479	27.05
876.78	29.05
877.08	32.38
877.38	32.28
877.68	32.47
877.981	33.09
878.281	36.95
878.581	37.46
