Data from MVZ_BU123442_Reflection_00010.txt Node
Date: Tue Nov 19 12:12:35 EST 2019
User: vgr7
Spectrometer: USB2G7710
Scans to average: 3
Trigger mode: 4
Integration Time (sec): 2.000000E-2
Electric dark correction enabled: true
Boxcar width: 10
XAxis mode: Wavelengths
Number of Pixels in Spectrum: 2048
>>>>>Begin Spectral Data<<<<<
177.721	47.56
178.105	87.01
178.488	38.57
178.871	-23.73
179.254	-52.63
179.636	168.32
180.019	222.64
180.402	84.62
180.785	-110.84
181.168	30.8
181.55	63.56
181.933	46.24
182.316	15.7
182.698	3.33
183.081	5.55
183.463	33.78
183.846	-3.65
184.228	11.4
184.611	34.13
184.993	-160
185.376	382.61
185.758	15.02
186.14	-19.51
186.522	-97.25
186.904	-64
187.287	22.82
187.669	134.55
188.051	111.71
188.433	26.18
188.815	-28.91
189.197	4.1
189.579	-4.69
189.961	4.49
190.342	-38.61
190.724	-17.45
191.106	-24.14
191.488	-10.59
191.869	-21.99
192.251	-15.05
192.633	-4.23
193.014	11.27
193.396	-22.49
193.777	1.56
194.159	2.99
194.54	-0.13
194.922	-16.75
195.303	-42.55
195.684	-63.94
196.065	-70.7
196.447	-39.73
196.828	-55.89
197.209	-74.51
197.59	-32.27
197.971	-28.56
198.352	-25.21
198.733	-38.35
199.114	-34.1
199.495	-49.38
199.876	-38.68
200.257	-60.02
200.638	-71.83
201.018	-120.37
201.399	-119.83
201.78	-153.28
202.16	-240.29
202.541	-338.78
202.922	-263.43
203.302	-302.76
203.683	-983.78
204.063	-713.43
204.444	-1636.64
204.824	-485.71
205.204	-367.68
205.585	-673.56
205.965	-3552.54
206.345	1182.82
206.725	1719.27
207.106	1050.33
207.486	1582.61
207.866	323.49
208.246	570.95
208.626	-7052.17
209.006	-383.83
209.386	-367.65
209.766	-222.61
210.145	-106.62
210.525	-115.21
210.905	-132.33
211.285	-89.04
211.664	-28.66
212.044	1.18
212.424	-9.94
212.803	-6.87
213.183	-10.27
213.562	-4.16
213.942	-1.82
214.321	-3.1
214.701	1.21
215.08	-27.85
215.459	-10.37
215.838	-31.97
216.218	-30.75
216.597	-19.54
216.976	-28.74
217.355	-26.37
217.734	-34.73
218.113	-23.2
218.492	-23.4
218.871	-7.74
219.25	-14.16
219.629	-45.04
220.008	-34.79
220.387	-36.44
220.766	-17.57
221.144	-16.71
221.523	-14.23
221.902	-17.56
222.28	-25.71
222.659	-18.74
223.037	-6.73
223.416	1.27
223.794	-4.84
224.173	-17.53
224.551	-22.11
224.929	-25.93
225.308	-21
225.686	-13.12
226.064	-19.02
226.442	-8.92
226.821	-10.76
227.199	-3.86
227.577	-0.69
227.955	-2.98
228.333	-3.22
228.711	-4.47
229.089	-3.47
229.467	-5.17
229.845	-6.4
230.222	-2.66
230.6	-4.3
230.978	-3.11
231.356	-4.5
231.733	-0.52
232.111	1.92
232.488	3.68
232.866	7.42
233.243	5.94
233.621	5.93
233.998	6.58
234.376	6.12
234.753	5.73
235.13	4
235.508	3.75
235.885	4.98
236.262	4.17
236.639	1.7
237.016	1.5
237.393	1.47
237.77	3.58
238.147	2.55
238.524	2.93
238.901	1.66
239.278	1.75
239.655	2.01
240.032	1.43
240.409	0.99
240.785	-0.31
241.162	0.02
241.539	-0.63
241.915	-0.4
242.292	0.17
242.668	-0.1
243.045	0.2
243.421	0.95
243.798	1.36
244.174	1.65
244.551	2.04
244.927	2.02
245.303	1.78
245.679	1.64
246.056	1.72
246.432	1.87
246.808	2.31
247.184	2.16
247.56	2.23
247.936	2.25
248.312	2.47
248.688	2.55
249.064	2.36
249.44	2.46
249.815	2.54
250.191	2.34
250.567	2.5
250.943	2.56
251.318	2.33
251.694	1.74
252.069	1.71
252.445	1.62
252.82	2.03
253.196	2.35
253.571	2.68
253.947	2.85
254.322	2.29
254.697	1.99
255.073	2.46
255.448	2.44
255.823	2.29
256.198	2.35
256.573	2.57
256.948	2.89
257.323	3.08
257.698	3.17
258.073	3.16
258.448	3.12
258.823	2.89
259.198	2.98
259.573	3.17
259.948	3.21
260.322	3.09
260.697	2.91
261.072	2.86
261.446	2.59
261.821	2.42
262.195	2.69
262.57	2.89
262.944	2.7
263.319	2.69
263.693	2.83
264.067	2.81
264.442	2.82
264.816	2.74
265.19	2.57
265.564	2.39
265.938	2.29
266.313	2.29
266.687	2.39
267.061	2.49
267.435	2.44
267.809	2.4
268.183	2.28
268.556	2.03
268.93	2.01
269.304	1.94
269.678	2.21
270.051	1.97
270.425	1.71
270.799	1.68
271.172	1.6
271.546	1.81
271.919	1.69
272.293	1.7
272.666	1.81
273.04	1.9
273.413	1.86
273.787	2.05
274.16	1.98
274.533	2.06
274.906	1.86
275.279	1.74
275.653	1.77
276.026	2.03
276.399	2.25
276.772	2.36
277.145	2.63
277.518	2.44
277.891	2.38
278.263	2.57
278.636	2.68
279.009	2.81
279.382	2.44
279.755	2.58
280.127	2.48
280.5	2.27
280.872	2.26
281.245	2.44
281.617	2.45
281.99	2.6
282.362	2.6
282.735	2.7
283.107	2.78
283.479	2.68
283.852	2.78
284.224	2.87
284.596	2.82
284.968	2.64
285.34	2.71
285.713	2.99
286.085	2.91
286.457	2.94
286.829	2.71
287.201	3.05
287.572	3
287.944	3.14
288.316	3.26
288.688	3.28
289.06	3.36
289.431	3.32
289.803	3.39
290.175	3.39
290.546	3.42
290.918	3.44
291.289	3.39
291.661	3.27
292.032	3.15
292.403	3.26
292.775	3.36
293.146	3.5
293.517	3.41
293.889	3.34
294.26	3.36
294.631	3.54
295.002	3.33
295.373	3.47
295.744	3.4
296.115	3.5
296.486	3.5
296.857	3.41
297.228	3.33
297.599	3.07
297.97	3.19
298.34	3.19
298.711	3.26
299.082	3.39
299.452	3.46
299.823	3.58
300.194	3.67
300.564	3.63
300.935	3.53
301.305	3.45
301.676	3.54
302.046	3.47
302.416	3.46
302.787	3.64
303.157	3.49
303.527	3.59
303.897	3.41
304.267	3.48
304.637	3.53
305.008	3.71
305.378	3.96
305.748	3.86
306.117	3.8
306.487	3.84
306.857	3.88
307.227	4.12
307.597	4.03
307.967	3.81
308.336	3.89
308.706	4
309.076	4.28
309.445	4.24
309.815	4.31
310.184	4.29
310.554	4.21
310.923	4.29
311.293	4.18
311.662	4.34
312.031	4.33
312.401	4.28
312.77	4.08
313.139	4.15
313.508	4.15
313.877	4.35
314.246	4.26
314.616	4.35
314.985	4
315.353	4.19
315.722	4.38
316.091	4.35
316.46	4.31
316.829	4.15
317.198	4.27
317.567	4.39
317.935	4.64
318.304	4.72
318.672	4.78
319.041	5.04
319.41	5.15
319.778	5.13
320.147	5.11
320.515	5.46
320.883	5.27
321.252	5.41
321.62	5.26
321.988	5.39
322.357	5.36
322.725	5.5
323.093	5.25
323.461	5.31
323.829	5.32
324.197	5.48
324.565	5.52
324.933	5.54
325.301	5.42
325.669	5.23
326.037	5.2
326.405	5.23
326.772	5.16
327.14	5
327.508	5.04
327.875	5.07
328.243	4.97
328.61	5.02
328.978	4.99
329.346	5.04
329.713	5.17
330.08	5.28
330.448	5.38
330.815	5.61
331.182	5.53
331.55	5.57
331.917	5.43
332.284	5.31
332.651	5.22
333.018	5.19
333.385	5.25
333.752	5.32
334.119	5.22
334.486	5.13
334.853	5.06
335.22	5.02
335.587	5.05
335.954	5.02
336.32	5.15
336.687	5.22
337.054	5.22
337.42	5.19
337.787	5.05
338.153	5.02
338.52	4.98
338.886	4.95
339.253	4.94
339.619	5.16
339.986	5.34
340.352	5.38
340.718	5.52
341.084	5.66
341.451	5.7
341.817	5.74
342.183	5.95
342.549	6.08
342.915	6.08
343.281	6.2
343.647	6.2
344.013	6.22
344.379	6.28
344.745	6.43
345.11	6.35
345.476	6.43
345.842	6.4
346.208	6.44
346.573	6.52
346.939	6.49
347.304	6.36
347.67	6.24
348.035	6.34
348.401	6.32
348.766	6.18
349.132	6.11
349.497	6.25
349.862	6.12
350.228	6.11
350.593	6.28
350.958	6.29
351.323	6.32
351.688	6.27
352.053	6.13
352.418	5.98
352.783	5.98
353.148	6.01
353.513	6.15
353.878	6.05
354.243	5.98
354.608	6.1
354.972	6.1
355.337	6.21
355.702	6.23
356.066	6.25
356.431	6.29
356.795	6.41
357.16	6.28
357.524	6.32
357.889	6.32
358.253	6.29
358.618	6.23
358.982	6.25
359.346	6.27
359.71	6.33
360.075	6.39
360.439	6.43
360.803	6.38
361.167	6.27
361.531	6.25
361.895	6.31
362.259	6.24
362.623	6.28
362.987	6.17
363.351	6.07
363.714	6.02
364.078	5.99
364.442	5.9
364.806	6.05
365.169	6.04
365.533	6.07
365.896	6
366.26	5.95
366.623	5.92
366.987	5.88
367.35	5.84
367.714	5.83
368.077	5.72
368.44	5.75
368.803	5.71
369.167	5.7
369.53	5.7
369.893	5.82
370.256	5.68
370.619	5.72
370.982	5.68
371.345	5.77
371.708	5.8
372.071	5.74
372.434	5.61
372.797	5.59
373.159	5.59
373.522	5.56
373.885	5.59
374.247	5.55
374.61	5.65
374.973	5.66
375.335	5.61
375.698	5.62
376.06	5.53
376.423	5.55
376.785	5.59
377.147	5.53
377.51	5.47
377.872	5.52
378.234	5.52
378.596	5.59
378.958	5.47
379.321	5.42
379.683	5.46
380.045	5.41
380.407	5.33
380.769	5.26
381.13	5.22
381.492	5.16
381.854	5.19
382.216	5.1
382.578	5.13
382.939	5.12
383.301	5.14
383.663	5.13
384.024	5.14
384.386	5.14
384.747	5.07
385.109	5.02
385.47	4.96
385.832	4.95
386.193	4.93
386.554	4.89
386.916	4.97
387.277	4.92
387.638	5.01
387.999	5.04
388.36	5.05
388.721	5.06
389.082	5.11
389.443	5.08
389.804	5.06
390.165	5.01
390.526	5
390.887	4.97
391.248	4.98
391.609	4.99
391.969	4.99
392.33	4.99
392.691	4.98
393.051	4.99
393.412	4.92
393.772	4.92
394.133	4.88
394.493	4.82
394.854	4.8
395.214	4.74
395.574	4.7
395.935	4.66
396.295	4.65
396.655	4.58
397.015	4.57
397.376	4.57
397.736	4.51
398.096	4.5
398.456	4.47
398.816	4.41
399.176	4.36
399.535	4.3
399.895	4.29
400.255	4.27
400.615	4.26
400.975	4.29
401.334	4.26
401.694	4.29
402.054	4.3
402.413	4.3
402.773	4.28
403.132	4.29
403.492	4.27
403.851	4.26
404.211	4.27
404.57	4.28
404.929	4.29
405.288	4.31
405.648	4.27
406.007	4.29
406.366	4.26
406.725	4.24
407.084	4.26
407.443	4.24
407.802	4.26
408.161	4.28
408.52	4.23
408.879	4.25
409.238	4.27
409.596	4.27
409.955	4.27
410.314	4.26
410.673	4.25
411.031	4.27
411.39	4.26
411.748	4.26
412.107	4.21
412.465	4.21
412.824	4.2
413.182	4.19
413.54	4.21
413.899	4.23
414.257	4.24
414.615	4.23
414.974	4.22
415.332	4.19
415.69	4.16
416.048	4.19
416.406	4.18
416.764	4.18
417.122	4.18
417.48	4.17
417.838	4.19
418.195	4.18
418.553	4.16
418.911	4.16
419.269	4.16
419.626	4.18
419.984	4.14
420.342	4.14
420.699	4.13
421.057	4.11
421.414	4.12
421.772	4.09
422.129	4.08
422.486	4.1
422.844	4.1
423.201	4.1
423.558	4.09
423.915	4.1
424.273	4.08
424.63	4.06
424.987	4.07
425.344	4.05
425.701	4.04
426.058	4.04
426.415	4.03
426.772	4.03
427.128	4.02
427.485	4.02
427.842	4.01
428.199	4.01
428.555	3.99
428.912	4
429.269	3.99
429.625	3.99
429.982	3.98
430.338	4
430.695	3.99
431.051	3.98
431.407	3.96
431.764	3.97
432.12	4
432.476	3.99
432.832	4
433.189	4
433.545	4.01
433.901	3.99
434.257	3.99
434.613	3.98
434.969	3.98
435.325	4
435.681	3.98
436.036	4.02
436.392	4.01
436.748	4.05
437.104	4.06
437.459	4.04
437.815	4.04
438.171	4.04
438.526	4.06
438.882	4.06
439.237	4.04
439.593	4.01
439.948	3.99
440.304	3.98
440.659	3.99
441.014	3.99
441.369	4.01
441.725	4.01
442.08	4.03
442.435	4.05
442.79	4.04
443.145	4.05
443.5	4.02
443.855	4.03
444.21	4.01
444.565	4
444.92	4.01
445.275	4
445.629	4.01
445.984	3.98
446.339	3.98
446.693	3.99
447.048	3.99
447.403	3.98
447.757	3.97
448.112	3.97
448.466	3.97
448.82	3.96
449.175	3.95
449.529	3.96
449.883	3.95
450.238	3.96
450.592	3.96
450.946	3.95
451.3	3.94
451.654	3.95
452.008	3.95
452.362	3.94
452.716	3.96
453.07	3.94
453.424	3.94
453.778	3.95
454.132	3.96
454.486	3.97
454.839	3.99
455.193	4
455.547	4
455.9	3.99
456.254	3.99
456.607	4
456.961	3.97
457.314	3.98
457.668	3.97
458.021	3.99
458.375	4.01
458.728	4.02
459.081	4.01
459.434	4.02
459.787	4.03
460.141	4.03
460.494	4.06
460.847	4.06
461.2	4.06
461.553	4.07
461.906	4.09
462.259	4.09
462.611	4.1
462.964	4.1
463.317	4.11
463.67	4.14
464.022	4.15
464.375	4.17
464.728	4.17
465.08	4.2
465.433	4.2
465.785	4.21
466.138	4.21
466.49	4.24
466.843	4.26
467.195	4.27
467.547	4.24
467.899	4.25
468.252	4.27
468.604	4.28
468.956	4.28
469.308	4.28
469.66	4.3
470.012	4.3
470.364	4.3
470.716	4.32
471.068	4.33
471.42	4.34
471.772	4.35
472.123	4.36
472.475	4.33
472.827	4.33
473.178	4.33
473.53	4.35
473.882	4.35
474.233	4.32
474.585	4.35
474.936	4.38
475.288	4.36
475.639	4.35
475.99	4.35
476.342	4.36
476.693	4.33
477.044	4.33
477.395	4.32
477.746	4.32
478.097	4.31
478.448	4.3
478.8	4.3
479.15	4.27
479.501	4.26
479.852	4.26
480.203	4.26
480.554	4.26
480.905	4.26
481.255	4.25
481.606	4.25
481.957	4.25
482.307	4.25
482.658	4.25
483.009	4.26
483.359	4.26
483.709	4.26
484.06	4.28
484.41	4.29
484.761	4.31
485.111	4.31
485.461	4.32
485.811	4.32
486.162	4.32
486.512	4.33
486.862	4.34
487.212	4.36
487.562	4.37
487.912	4.38
488.262	4.39
488.612	4.39
488.961	4.4
489.311	4.41
489.661	4.4
490.011	4.41
490.36	4.4
490.71	4.41
491.06	4.43
491.409	4.43
491.759	4.43
492.108	4.43
492.458	4.43
492.807	4.44
493.157	4.45
493.506	4.45
493.855	4.47
494.204	4.49
494.554	4.5
494.903	4.51
495.252	4.53
495.601	4.53
495.95	4.56
496.299	4.59
496.648	4.6
496.997	4.64
497.346	4.67
497.695	4.72
498.043	4.76
498.392	4.77
498.741	4.78
499.09	4.81
499.438	4.86
499.787	4.9
500.135	4.95
500.484	4.96
500.832	5.02
501.181	5.06
501.529	5.1
501.878	5.14
502.226	5.18
502.574	5.2
502.923	5.25
503.271	5.32
503.619	5.36
503.967	5.42
504.315	5.51
504.663	5.58
505.011	5.63
505.359	5.67
505.707	5.72
506.055	5.79
506.403	5.87
506.751	5.88
507.098	5.95
507.446	5.98
507.794	6.06
508.141	6.14
508.489	6.21
508.837	6.25
509.184	6.3
509.531	6.36
509.879	6.42
510.226	6.48
510.574	6.54
510.921	6.6
511.268	6.66
511.616	6.72
511.963	6.78
512.31	6.84
512.657	6.91
513.004	6.98
513.351	7.07
513.698	7.13
514.045	7.21
514.392	7.29
514.739	7.4
515.086	7.48
515.432	7.54
515.779	7.62
516.126	7.71
516.473	7.8
516.819	7.87
517.166	7.96
517.512	8.02
517.859	8.07
518.205	8.13
518.552	8.21
518.898	8.26
519.245	8.31
519.591	8.38
519.937	8.46
520.283	8.52
520.629	8.59
520.976	8.66
521.322	8.76
521.668	8.83
522.014	8.9
522.36	8.98
522.706	9.07
523.052	9.16
523.398	9.27
523.743	9.39
524.089	9.52
524.435	9.61
524.781	9.71
525.126	9.84
525.472	9.93
525.817	10
526.163	10.08
526.509	10.16
526.854	10.25
527.199	10.34
527.545	10.43
527.89	10.51
528.235	10.59
528.581	10.66
528.926	10.74
529.271	10.82
529.616	10.9
529.961	10.99
530.306	11.08
530.651	11.17
530.996	11.26
531.341	11.36
531.686	11.48
532.031	11.6
532.376	11.7
532.721	11.84
533.065	11.96
533.41	12.1
533.755	12.24
534.099	12.36
534.444	12.48
534.788	12.59
535.133	12.71
535.477	12.84
535.822	12.99
536.166	13.14
536.51	13.31
536.855	13.47
537.199	13.63
537.543	13.82
537.887	14
538.231	14.19
538.576	14.39
538.92	14.58
539.264	14.73
539.608	14.88
539.951	15.03
540.295	15.2
540.639	15.35
540.983	15.48
541.327	15.67
541.671	15.82
542.014	16
542.358	16.16
542.701	16.35
543.045	16.5
543.389	16.65
543.732	16.79
544.075	16.99
544.419	17.17
544.762	17.34
545.105	17.55
545.449	17.74
545.792	17.91
546.135	18.12
546.478	18.37
546.821	18.64
547.165	18.88
547.508	19.13
547.851	19.36
548.194	19.61
548.536	19.82
548.879	20.06
549.222	20.27
549.565	20.5
549.908	20.72
550.25	21.01
550.593	21.31
550.936	21.56
551.278	21.84
551.621	22.09
551.963	22.39
552.306	22.63
552.648	22.89
552.991	23.13
553.333	23.39
553.675	23.61
554.017	23.82
554.36	24.1
554.702	24.31
555.044	24.55
555.386	24.78
555.728	24.99
556.07	25.27
556.412	25.54
556.754	25.73
557.096	25.96
557.438	26.22
557.78	26.4
558.121	26.68
558.463	26.85
558.805	27.05
559.147	27.3
559.488	27.54
559.83	27.79
560.171	28.06
560.513	28.27
560.854	28.52
561.196	28.78
561.537	29
561.878	29.22
562.22	29.47
562.561	29.71
562.902	29.94
563.243	30.08
563.584	30.28
563.925	30.51
564.266	30.75
564.607	30.91
564.948	31.11
565.289	31.3
565.63	31.49
565.971	31.71
566.312	31.82
566.653	31.99
566.993	32.15
567.334	32.36
567.675	32.51
568.015	32.62
568.356	32.73
568.696	32.86
569.037	33.07
569.377	33.23
569.718	33.38
570.058	33.55
570.398	33.75
570.739	33.94
571.079	34.1
571.419	34.32
571.759	34.45
572.099	34.57
572.439	34.73
572.779	34.88
573.119	34.99
573.459	35.14
573.799	35.25
574.139	35.37
574.479	35.45
574.819	35.6
575.158	35.77
575.498	35.89
575.838	36.04
576.177	36.11
576.517	36.28
576.856	36.45
577.196	36.61
577.535	36.72
577.875	36.78
578.214	36.91
578.553	36.93
578.893	37.08
579.232	37.22
579.571	37.32
579.91	37.44
580.25	37.6
580.589	37.69
580.928	37.82
581.267	37.96
581.606	38.08
581.945	38.22
582.283	38.31
582.622	38.49
582.961	38.58
583.3	38.72
583.639	38.77
583.977	38.84
584.316	38.93
584.654	39.04
584.993	39.19
585.332	39.26
585.67	39.38
586.008	39.49
586.347	39.56
586.685	39.6
587.024	39.7
587.362	39.75
587.7	39.92
588.038	40.03
588.376	40
588.715	40.13
589.053	40.23
589.391	40.34
589.729	40.47
590.067	40.61
590.404	40.74
590.742	40.88
591.08	41
591.418	40.99
591.756	41.04
592.093	41.11
592.431	41.2
592.769	41.35
593.106	41.37
593.444	41.47
593.781	41.58
594.119	41.63
594.456	41.76
594.793	41.74
595.131	41.74
595.468	41.91
595.805	41.96
596.143	41.99
596.48	42.01
596.817	42.07
597.154	42.12
597.491	42.13
597.828	42.13
598.165	42.13
598.502	42.25
598.839	42.32
599.176	42.41
599.512	42.47
599.849	42.41
600.186	42.52
600.523	42.63
600.859	42.65
601.196	42.74
601.532	42.76
601.869	42.87
602.205	43
602.542	43
602.878	43
603.215	43
603.551	43.13
603.887	43.1
604.223	43.1
604.56	43.18
604.896	43.27
605.232	43.37
605.568	43.45
605.904	43.49
606.24	43.52
606.576	43.65
606.912	43.76
607.248	43.82
607.583	43.87
607.919	43.94
608.255	44.02
608.591	44.12
608.926	44.21
609.262	44.29
609.597	44.41
609.933	44.46
610.268	44.6
610.604	44.58
610.939	44.64
611.275	44.69
611.61	44.73
611.945	44.72
612.281	44.74
612.616	44.73
612.951	44.84
613.286	44.88
613.621	44.85
613.956	44.94
614.291	44.99
614.626	45.05
614.961	45.13
615.296	45.15
615.631	45.23
615.966	45.16
616.3	45.13
616.635	45.15
616.97	45.23
617.304	45.21
617.639	45.26
617.973	45.29
618.308	45.39
618.642	45.31
618.977	45.39
619.311	45.4
619.646	45.48
619.98	45.48
620.314	45.52
620.648	45.57
620.983	45.55
621.317	45.53
621.651	45.49
621.985	45.4
622.319	45.39
622.653	45.41
622.987	45.49
623.321	45.51
623.655	45.56
623.988	45.57
624.322	45.63
624.656	45.71
624.99	45.83
625.323	45.8
625.657	45.88
625.99	45.84
626.324	45.9
626.657	45.92
626.991	45.91
627.324	45.93
627.658	46
627.991	45.99
628.324	46.09
628.657	46.16
628.991	46.36
629.324	46.47
629.657	46.44
629.99	46.49
630.323	46.55
630.656	46.49
630.989	46.51
631.322	46.52
631.655	46.51
631.987	46.53
632.32	46.67
632.653	46.75
632.986	46.78
633.318	46.84
633.651	46.81
633.984	46.88
634.316	46.98
634.649	46.87
634.981	46.97
635.313	46.9
635.646	46.98
635.978	46.89
636.31	46.9
636.643	47
636.975	47.11
637.307	47.2
637.639	47.33
637.971	47.42
638.303	47.5
638.635	47.61
638.967	47.69
639.299	47.63
639.631	47.65
639.963	47.62
640.295	47.58
640.626	47.53
640.958	47.52
641.29	47.47
641.621	47.56
641.953	47.6
642.285	47.55
642.616	47.57
642.948	47.6
643.279	47.56
643.61	47.51
643.942	47.3
644.273	47.28
644.604	47.31
644.936	47.28
645.267	47.26
645.598	47.21
645.929	47.12
646.26	47.06
646.591	47.05
646.922	47.19
647.253	47.26
647.584	47.36
647.915	47.43
648.245	47.55
648.576	47.59
648.907	47.58
649.238	47.7
649.568	47.71
649.899	47.82
650.229	47.9
650.56	47.99
650.89	48.06
651.221	48.02
651.551	47.88
651.882	47.88
652.212	47.92
652.542	48.05
652.872	48.17
653.203	48.25
653.533	48.23
653.863	48.11
654.193	48.1
654.523	48.18
654.853	48.2
655.183	48.19
655.513	48.27
655.843	48.28
656.172	48.37
656.502	48.33
656.832	48.29
657.162	48.3
657.491	48.39
657.821	48.43
658.15	48.45
658.48	48.46
658.809	48.47
659.139	48.48
659.468	48.5
659.798	48.42
660.127	48.46
660.456	48.58
660.785	48.79
661.115	48.87
661.444	48.94
661.773	48.95
662.102	48.91
662.431	48.8
662.76	48.84
663.089	48.81
663.418	48.83
663.747	48.82
664.076	48.82
664.404	48.7
664.733	48.88
665.062	48.86
665.39	48.91
665.719	48.99
666.048	49.08
666.376	49.11
666.705	49.13
667.033	49.18
667.362	49.16
667.69	49.05
668.018	49.03
668.347	49.04
668.675	49.08
669.003	49.21
669.331	49.47
669.659	49.48
669.987	49.48
670.315	49.45
670.643	49.37
670.971	49.42
671.299	49.38
671.627	49.24
671.955	49.39
672.283	49.38
672.61	49.34
672.938	49.41
673.266	49.36
673.593	49.39
673.921	49.35
674.249	49.36
674.576	49.42
674.904	49.42
675.231	49.57
675.558	49.5
675.886	49.4
676.213	49.27
676.54	49.32
676.867	49.3
677.195	49.38
677.522	49.44
677.849	49.58
678.176	49.69
678.503	49.77
678.83	49.74
679.157	49.91
679.484	49.94
679.81	49.85
680.137	49.83
680.464	49.94
680.791	50.03
681.117	50.01
681.444	50.11
681.771	50.12
682.097	49.96
682.424	49.99
682.75	50.02
683.077	50.05
683.403	50.22
683.729	50.28
684.056	50.37
684.382	50.55
684.708	50.63
685.034	50.64
685.36	50.73
685.686	50.75
686.012	50.72
686.339	50.77
686.664	50.76
686.99	50.88
687.316	50.71
687.642	50.56
687.968	50.7
688.294	50.42
688.619	50.42
688.945	50.52
689.271	50.41
689.596	50.47
689.922	50.5
690.247	50.44
690.573	50.47
690.898	50.46
691.224	50.38
691.549	50.11
691.874	50.11
692.2	50.22
692.525	50.35
692.85	50.41
693.175	50.49
693.5	50.51
693.825	50.29
694.15	50.23
694.475	50.4
694.8	50.39
695.125	50.63
695.45	50.73
695.775	50.55
696.099	50.68
696.424	50.73
696.749	50.85
697.073	50.9
697.398	51.01
697.723	51.01
698.047	51.01
698.372	51.16
698.696	51.23
699.02	51.15
699.345	51.28
699.669	51.24
699.993	51.17
700.318	51.22
700.642	51.42
700.966	51.58
701.29	51.55
701.614	51.43
701.938	51.47
702.262	51.5
702.586	51.65
702.91	51.76
703.234	51.69
703.557	51.55
703.881	51.41
704.205	51.41
704.529	51.58
704.852	51.34
705.176	51.34
705.499	51.21
705.823	51.17
706.146	50.95
706.47	50.93
706.793	50.92
707.117	50.75
707.44	50.77
707.763	50.79
708.086	50.73
708.409	51
708.733	50.85
709.056	50.87
709.379	50.99
709.702	50.95
710.025	51.03
710.348	51.04
710.671	51.13
710.993	50.99
711.316	50.9
711.639	51.21
711.962	51.15
712.284	51.22
712.607	51.28
712.93	51.19
713.252	51.07
713.575	51.16
713.897	51.24
714.22	51.11
714.542	51.38
714.864	51.51
715.187	51.46
715.509	51.53
715.831	51.48
716.153	51.28
716.475	51.41
716.798	51.35
717.12	51.24
717.442	51.14
717.764	51.18
718.085	50.99
718.407	50.92
718.729	50.83
719.051	50.64
719.373	50.56
719.695	50.56
720.016	50.7
720.338	50.65
720.659	50.73
720.981	50.87
721.302	50.78
721.624	50.72
721.945	50.73
722.267	50.67
722.588	50.65
722.909	50.88
723.231	50.74
723.552	50.76
723.873	51.01
724.194	51.04
724.515	50.88
724.836	51.15
725.157	51.36
725.478	51.55
725.799	51.85
726.12	51.76
726.441	51.78
726.762	51.93
727.083	52.23
727.403	52.08
727.724	51.91
728.045	51.84
728.365	51.89
728.686	51.74
729.006	51.73
729.327	51.81
729.647	51.7
729.967	51.83
730.288	51.85
730.608	52.01
730.928	52.02
731.249	52.19
731.569	52.07
731.889	51.96
732.209	51.89
732.529	51.89
732.849	51.67
733.169	51.74
733.489	51.53
733.809	51.34
734.129	51.66
734.448	51.68
734.768	51.63
735.088	51.63
735.408	51.57
735.727	51.72
736.047	51.61
736.366	51.86
736.686	51.65
737.005	51.64
737.325	51.35
737.644	51.18
737.963	51.17
738.283	51.08
738.602	51.33
738.921	51.33
739.24	51.43
739.56	51.78
739.879	51.64
740.198	51.98
740.517	51.81
740.836	51.78
741.155	52.03
741.473	51.91
741.792	51.91
742.111	51.99
742.43	52.12
742.748	52.25
743.067	52
743.386	52.05
743.704	52.12
744.023	52.28
744.341	52.57
744.66	52.56
744.978	52.75
745.297	52.37
745.615	52.53
745.933	52.42
746.252	52.57
746.57	52.86
746.888	53
747.206	53.17
747.524	52.92
747.842	52.94
748.16	52.94
748.478	53.07
748.796	52.94
749.114	52.57
749.432	52.49
749.749	52.32
750.067	52.36
750.385	52.37
750.703	52.17
751.02	52.09
751.338	52.02
751.655	51.98
751.973	52.07
752.29	51.82
752.608	51.86
752.925	51.53
753.242	51.61
753.56	51.36
753.877	51.32
754.194	51.65
754.511	51.57
754.828	51.98
755.145	51.79
755.462	52.18
755.779	52.59
756.096	52.83
756.413	53.08
756.73	53.14
757.047	53.02
757.364	53.24
757.68	53.35
757.997	53.69
758.314	54.19
758.63	54.13
758.947	54.67
759.264	54.77
759.58	55.13
759.896	55.31
760.213	55.28
760.529	55.1
760.846	55.22
761.162	54.92
761.478	54.78
761.794	54.84
762.11	54.53
762.426	54.32
762.743	54.14
763.059	54.21
763.375	54.26
763.69	54.49
764.006	54.39
764.322	54.4
764.638	54.27
764.954	53.95
765.27	53.98
765.585	53.52
765.901	53.49
766.216	53.32
766.532	53.17
766.848	53.23
767.163	53.44
767.478	52.98
767.794	53.3
768.109	53.05
768.424	52.99
768.74	53.08
769.055	53.48
769.37	53.5
769.685	53.41
770	53.39
770.315	53.42
770.63	53.52
770.945	53.32
771.26	53.01
771.575	53.03
771.89	53.09
772.205	53.64
772.52	53.25
772.834	53.12
773.149	52.89
773.464	52.9
773.778	52.57
774.093	53.31
774.407	53.1
774.722	53.12
775.036	53.14
775.351	53.52
775.665	53.37
775.979	53.29
776.293	53.27
776.608	53.28
776.922	53.06
777.236	53.37
777.55	53.71
777.864	54.1
778.178	53.93
778.492	53.64
778.806	53.67
779.12	53.92
779.434	54.14
779.747	54.12
780.061	53.52
780.375	54.12
780.689	53.42
781.002	53.07
781.316	53.47
781.629	53.55
781.943	53.26
782.256	52.57
782.57	53.03
782.883	53.25
783.196	53
783.51	53.53
783.823	52.8
784.136	52.81
784.449	52.36
784.762	52.91
785.075	53.24
785.388	53.75
785.701	54.4
786.014	54.12
786.327	54.45
786.64	55.38
786.953	55.1
787.266	55.16
787.578	55.89
787.891	55.52
788.204	55.81
788.516	55.56
788.829	56.39
789.141	56.38
789.454	55.93
789.766	56.48
790.079	55.93
790.391	56.73
790.703	56.77
791.016	56.95
791.328	56.52
791.64	56.32
791.952	55.48
792.264	55.22
792.576	55.54
792.888	55.28
793.2	55.52
793.512	55.43
793.824	55.5
794.136	55.4
794.448	55.84
794.76	55.53
795.071	55.88
795.383	55.68
795.695	55.23
796.006	55.01
796.318	55.02
796.629	55.02
796.941	54.84
797.252	54.59
797.564	54.67
797.875	54.69
798.186	54.95
798.497	54.93
798.809	54.14
799.12	53.41
799.431	53.48
799.742	52.45
800.053	52.54
800.364	53.09
800.675	52.3
800.986	52.4
801.297	52.07
801.608	51.89
801.918	51.73
802.229	51.83
802.54	52.79
802.851	52.46
803.161	52.56
803.472	52.75
803.782	52.68
804.093	52.66
804.403	52.25
804.714	52.1
805.024	52.2
805.334	52.1
805.645	52.86
805.955	52.86
806.265	53.17
806.575	53.37
806.885	53.05
807.195	54.17
807.505	54.2
807.815	54.98
808.125	55.53
808.435	54.52
808.745	54.65
809.055	53.96
809.365	53.71
809.674	53.3
809.984	52.82
810.294	53
810.603	52.52
810.913	53.29
811.222	53.76
811.532	53.77
811.841	54.57
812.151	55.04
812.46	54.99
812.769	54.98
813.079	54.81
813.388	54.41
813.697	53.59
814.006	53.43
814.315	52.93
814.624	52.7
814.933	54.25
815.242	55.23
815.551	54.85
815.86	55.57
816.169	56.27
816.478	56.28
816.786	57.34
817.095	59.43
817.404	59.37
817.712	58.82
818.021	58.93
818.33	58.68
818.638	58.82
818.947	58.91
819.255	59.08
819.563	58.5
819.872	58.25
820.18	58.42
820.488	57.81
820.796	57.94
821.105	58.1
821.413	58.16
821.721	57.56
822.029	57.78
822.337	57.93
822.645	57.89
822.953	58.06
823.26	57.74
823.568	57.42
823.876	57.31
824.184	57.11
824.491	56.99
824.799	56.94
825.107	56.78
825.414	56.71
825.722	56.72
826.029	56.88
826.337	56.85
826.644	56.86
826.951	56.97
827.259	56.86
827.566	56.66
827.873	56.58
828.18	56.98
828.488	57.13
828.795	56.98
829.102	56.71
829.409	56.37
829.716	56.2
830.023	56.24
830.329	56.34
830.636	57
830.943	57.28
831.25	57.17
831.557	56.97
831.863	57.02
832.17	56.7
832.476	56.64
832.783	56.91
833.089	56.88
833.396	57.2
833.702	56.96
834.009	57.21
834.315	56.65
834.621	56.61
834.928	56.13
835.234	55.97
835.54	55.78
835.846	56.19
836.152	56.84
836.458	57.04
836.764	57.04
837.07	56.82
837.376	56.64
837.682	57.55
837.988	58.06
838.293	58.05
838.599	58.06
838.905	58.08
839.211	58.38
839.516	58.59
839.822	58.65
840.127	58.6
840.433	57.3
840.738	57.65
841.044	56.73
841.349	56.36
841.654	56.47
841.959	57.55
842.265	57.07
842.57	55.85
842.875	55.54
843.18	55.24
843.485	54.16
843.79	53.54
844.095	53.28
844.4	52.43
844.705	53.27
845.01	54.37
845.315	53.74
845.619	53.37
845.924	52.32
846.229	51.45
846.533	51.11
846.838	52
847.142	52.81
847.447	51.68
847.751	51.8
848.056	52.68
848.36	51.57
848.664	50.98
848.969	48.9
849.273	48.52
849.577	48.31
849.881	49.5
850.185	49.88
850.489	48.96
850.794	51.23
851.097	50.21
851.401	49.53
851.705	50.59
852.009	50.1
852.313	49.31
852.617	50.93
852.92	52.56
853.224	53.43
853.528	52.46
853.831	54.02
854.135	56.34
854.438	54.96
854.742	55.64
855.045	54.68
855.349	56.88
855.652	56.79
855.955	56.8
856.259	55.46
856.562	57.17
856.865	58.91
857.168	56.86
857.471	56.84
857.774	57.03
858.077	58.82
858.38	57.6
858.683	60.6
858.986	60.37
859.289	57.75
859.592	59.45
859.894	60.83
860.197	61.46
860.5	61.39
860.802	59.19
861.105	58.64
861.407	61.1
861.71	62.3
862.012	62.26
862.315	61.87
862.617	65.07
862.919	65.08
863.222	61.97
863.524	62.39
863.826	60.55
864.128	59.2
864.43	56.11
864.732	58.62
865.034	56.28
865.336	55.31
865.638	57.99
865.94	59.4
866.242	58.45
866.544	59.62
866.846	55.82
867.147	58.49
867.449	60.37
867.751	58.13
868.052	56.09
868.354	57.15
868.655	57.43
868.957	56.56
869.258	55.81
869.56	55.91
869.861	56.58
870.162	58.63
870.463	57.97
870.765	59.04
871.066	57.29
871.367	57
871.668	56.42
871.969	55
872.27	50.98
872.571	50.4
872.872	49.58
873.173	51.27
873.473	50.09
873.774	47.56
874.075	50.04
874.376	53.42
874.676	55.04
874.977	54.54
875.277	52.24
875.578	51.12
875.878	51.23
876.179	49.95
876.479	50.1
876.78	50.86
877.08	50.37
877.38	50.87
877.68	52.18
877.981	52.16
878.281	53.36
878.581	54.73
