Data from MVZ_BU28167_Reflection_00007.txt Node
Date: Tue Nov 19 12:17:31 EST 2019
User: vgr7
Spectrometer: USB2G7710
Scans to average: 3
Trigger mode: 4
Integration Time (sec): 2.000000E-2
Electric dark correction enabled: true
Boxcar width: 10
XAxis mode: Wavelengths
Number of Pixels in Spectrum: 2048
>>>>>Begin Spectral Data<<<<<
177.721	368.02
178.105	-1122.22
178.488	118.07
178.871	172.92
179.254	194.44
179.636	78.35
180.019	-3.88
180.402	30
180.785	311.67
181.168	272.35
181.55	107.03
181.933	92.61
182.316	83.14
182.698	85.84
183.081	58.91
183.463	35.66
183.846	39.75
184.228	45.21
184.611	57.44
184.993	71.77
185.376	72.93
185.758	51.87
186.14	42.9
186.522	43.24
186.904	35.14
187.287	45.74
187.669	51.09
188.051	56.65
188.433	52.97
188.815	39.79
189.197	44.09
189.579	53.67
189.961	72.55
190.342	87.98
190.724	124.14
191.106	263.29
191.488	396.95
191.869	1389.68
192.251	-1728.43
192.633	3235.42
193.014	12391.67
193.396	727.6
193.777	10891.67
194.159	5495.83
194.54	-720.71
194.922	-833.91
195.303	-836.11
195.684	-3222.92
196.065	-1865.28
196.447	-1834.52
196.828	-1905.95
197.209	-473.41
197.59	-470.08
197.971	-1099.07
198.352	364.62
198.733	193.14
199.114	160.96
199.495	100.82
199.876	112.31
200.257	81.21
200.638	257.99
201.018	232.51
201.399	2254.76
201.78	2280.56
202.16	-330.95
202.541	-570.14
202.922	2197.22
203.302	-157.11
203.683	-167.46
204.063	-192.67
204.444	-99.36
204.824	-127.22
205.204	-121.41
205.585	-118.68
205.965	-129.75
206.345	-92.56
206.725	-65.11
207.106	-72.89
207.486	-77.62
207.866	-51.38
208.246	-30.52
208.626	-60.02
209.006	-52.87
209.386	-189.14
209.766	-301.85
210.145	-202.51
210.525	-139.74
210.905	-74.32
211.285	-112.61
211.664	-36.9
212.044	-67.7
212.424	-118.6
212.803	-48.07
213.183	-62.82
213.562	-93.59
213.942	-26.16
214.321	-57.99
214.701	-102.74
215.08	-138.7
215.459	-84.27
215.838	-212.89
216.218	-375.88
216.597	-106.58
216.976	-109.7
217.355	-21.56
217.734	-20.02
218.113	-21.42
218.492	-69.18
218.871	-81.77
219.25	-92.34
219.629	-142.66
220.008	-141.61
220.387	-128.16
220.766	-130.81
221.144	-89.39
221.523	-112.23
221.902	-115.31
222.28	-88.78
222.659	-65.36
223.037	-65.91
223.416	-75.64
223.794	-57.36
224.173	-70.76
224.551	-61.79
224.929	-63.99
225.308	-72.68
225.686	-49.06
226.064	-44.08
226.442	-28.06
226.821	-22.69
227.199	-16.41
227.577	-5.47
227.955	-1.15
228.333	-3.72
228.711	-3.12
229.089	-9.78
229.467	-5.79
229.845	-6.07
230.222	-3.05
230.6	-5.36
230.978	-1.27
231.356	2.47
231.733	-1.49
232.111	-0.37
232.488	-0.24
232.866	-0.82
233.243	-1.07
233.621	-3.04
233.998	-4.13
234.376	-4.35
234.753	-3.9
235.13	-3.66
235.508	-5.04
235.885	-4.47
236.262	-3.06
236.639	-3.91
237.016	-2.17
237.393	-0.88
237.77	0.45
238.147	0.35
238.524	0.08
238.901	-0.69
239.278	-2.18
239.655	-1.33
240.032	-0.98
240.409	-0.86
240.785	-0.89
241.162	-0.44
241.539	0.58
241.915	0.62
242.292	0.55
242.668	0.46
243.045	1.11
243.421	1.52
243.798	1.47
244.174	1.67
244.551	2.26
244.927	2.09
245.303	1.84
245.679	1.82
246.056	1.63
246.432	2.04
246.808	2.12
247.184	2.45
247.56	2.71
247.936	2.68
248.312	2.65
248.688	3.05
249.064	2.9
249.44	2.5
249.815	2.8
250.191	2.93
250.567	3.05
250.943	2.89
251.318	2.88
251.694	3.22
252.069	3.35
252.445	3.09
252.82	3.68
253.196	3.83
253.571	3.97
253.947	4.14
254.322	4.13
254.697	4.13
255.073	4.3
255.448	4.23
255.823	4.46
256.198	4.32
256.573	3.87
256.948	4.04
257.323	4.21
257.698	4.25
258.073	4.22
258.448	4.11
258.823	4.02
259.198	3.98
259.573	3.76
259.948	3.78
260.322	3.89
260.697	3.76
261.072	3.89
261.446	3.9
261.821	4
262.195	3.88
262.57	4.03
262.944	3.89
263.319	4.01
263.693	3.98
264.067	4.06
264.442	4.12
264.816	4.28
265.19	4.26
265.564	4.21
265.938	4.06
266.313	4.01
266.687	3.85
267.061	3.84
267.435	4.05
267.809	3.94
268.183	3.77
268.556	3.7
268.93	3.75
269.304	3.71
269.678	3.65
270.051	3.6
270.425	3.42
270.799	3.26
271.172	3.02
271.546	3.02
271.919	3.1
272.293	3.02
272.666	2.87
273.04	2.78
273.413	2.66
273.787	2.57
274.16	2.57
274.533	2.76
274.906	2.73
275.279	2.69
275.653	2.87
276.026	2.83
276.399	2.9
276.772	2.82
277.145	2.78
277.518	2.65
277.891	2.65
278.263	2.94
278.636	3.19
279.009	3.16
279.382	3.02
279.755	3.03
280.127	3.02
280.5	3.04
280.872	3.18
281.245	3.16
281.617	3.33
281.99	3.4
282.362	3.4
282.735	3.35
283.107	3.23
283.479	3.15
283.852	3.17
284.224	3.25
284.596	3.34
284.968	3.29
285.34	3.32
285.713	3.44
286.085	3.17
286.457	3.26
286.829	3.28
287.201	3.25
287.572	3.18
287.944	3.37
288.316	3.41
288.688	3.43
289.06	3.53
289.431	3.68
289.803	3.82
290.175	3.78
290.546	3.91
290.918	3.92
291.289	3.89
291.661	4.02
292.032	4.05
292.403	3.99
292.775	4.21
293.146	4.36
293.517	4.29
293.889	4.43
294.26	4.39
294.631	4.54
295.002	4.71
295.373	4.69
295.744	4.66
296.115	4.81
296.486	4.91
296.857	4.99
297.228	4.92
297.599	4.92
297.97	5.14
298.34	5.15
298.711	5.18
299.082	5.19
299.452	5.17
299.823	5.03
300.194	5
300.564	5.01
300.935	5.04
301.305	5.14
301.676	5.16
302.046	5.18
302.416	5.32
302.787	5.43
303.157	5.71
303.527	5.85
303.897	5.7
304.267	5.74
304.637	5.81
305.008	5.78
305.378	5.76
305.748	5.67
306.117	5.67
306.487	5.76
306.857	5.81
307.227	5.99
307.597	6.11
307.967	6.21
308.336	6.22
308.706	6.32
309.076	6.53
309.445	6.69
309.815	6.65
310.184	6.62
310.554	6.55
310.923	6.49
311.293	6.47
311.662	6.65
312.031	6.65
312.401	6.61
312.77	6.67
313.139	6.72
313.508	6.73
313.877	6.86
314.246	7.01
314.616	7.29
314.985	7.21
315.353	7.4
315.722	7.55
316.091	7.73
316.46	7.68
316.829	7.59
317.198	7.59
317.567	7.89
317.935	7.86
318.304	8.06
318.672	8.3
319.041	8.29
319.41	8.29
319.778	8.33
320.147	8.39
320.515	8.58
320.883	8.7
321.252	8.82
321.62	8.82
321.988	8.93
322.357	8.83
322.725	9.12
323.093	9.02
323.461	9.03
323.829	9.02
324.197	9.03
324.565	9.17
324.933	9.2
325.301	9.04
325.669	9.23
326.037	9.38
326.405	9.23
326.772	9.31
327.14	9.41
327.508	9.54
327.875	9.5
328.243	9.6
328.61	9.53
328.978	9.56
329.346	9.63
329.713	9.7
330.08	9.67
330.448	9.64
330.815	9.72
331.182	9.83
331.55	9.85
331.917	9.85
332.284	9.95
332.651	9.86
333.018	9.88
333.385	9.91
333.752	9.83
334.119	10.03
334.486	10.14
334.853	10.07
335.22	9.97
335.587	10.07
335.954	9.96
336.32	10.06
336.687	10.08
337.054	10.15
337.42	10.04
337.787	10.04
338.153	10.06
338.52	10.24
338.886	10.16
339.253	10.21
339.619	10.36
339.986	10.34
340.352	10.49
340.718	10.63
341.084	10.62
341.451	10.7
341.817	10.65
342.183	10.77
342.549	10.83
342.915	10.87
343.281	10.87
343.647	10.84
344.013	10.87
344.379	10.92
344.745	10.87
345.11	11.04
345.476	11.11
345.842	11.17
346.208	11.15
346.573	11.28
346.939	11.19
347.304	11.16
347.67	11.12
348.035	11.06
348.401	11
348.766	11
349.132	10.96
349.497	10.88
349.862	10.79
350.228	10.88
350.593	10.92
350.958	11.06
351.323	11.09
351.688	11.1
352.053	11.13
352.418	11.25
352.783	11.22
353.148	11.21
353.513	11.13
353.878	11.08
354.243	10.95
354.608	11.05
354.972	11.03
355.337	11.13
355.702	11.17
356.066	11.28
356.431	11.27
356.795	11.21
357.16	11.3
357.524	11.39
357.889	11.31
358.253	11.25
358.618	11.19
358.982	11.23
359.346	11.21
359.71	11.18
360.075	11.17
360.439	11.18
360.803	11.22
361.167	11.19
361.531	11.17
361.895	11.21
362.259	11.24
362.623	11.22
362.987	11.12
363.351	11.08
363.714	11.01
364.078	11.02
364.442	11.01
364.806	10.96
365.169	10.82
365.533	10.79
365.896	10.8
366.26	10.72
366.623	10.69
366.987	10.68
367.35	10.66
367.714	10.62
368.077	10.62
368.44	10.56
368.803	10.43
369.167	10.37
369.53	10.32
369.893	10.22
370.256	10.1
370.619	10.09
370.982	10.02
371.345	9.99
371.708	10
372.071	9.98
372.434	9.89
372.797	9.92
373.159	9.87
373.522	9.75
373.885	9.77
374.247	9.67
374.61	9.63
374.973	9.57
375.335	9.49
375.698	9.32
376.06	9.23
376.423	9.33
376.785	9.3
377.147	9.21
377.51	9.15
377.872	9.14
378.234	9.03
378.596	9.1
378.958	9.06
379.321	8.9
379.683	8.84
380.045	8.78
380.407	8.63
380.769	8.48
381.13	8.43
381.492	8.34
381.854	8.35
382.216	8.26
382.578	8.18
382.939	8.11
383.301	8.09
383.663	8.06
384.024	7.93
384.386	7.88
384.747	7.86
385.109	7.83
385.47	7.8
385.832	7.75
386.193	7.64
386.554	7.48
386.916	7.46
387.277	7.36
387.638	7.36
387.999	7.32
388.36	7.36
388.721	7.33
389.082	7.34
389.443	7.26
389.804	7.22
390.165	7.2
390.526	7.16
390.887	7.1
391.248	7.04
391.609	7.01
391.969	6.96
392.33	6.91
392.691	6.89
393.051	6.83
393.412	6.81
393.772	6.76
394.133	6.74
394.493	6.69
394.854	6.67
395.214	6.62
395.574	6.57
395.935	6.5
396.295	6.44
396.655	6.31
397.015	6.28
397.376	6.23
397.736	6.15
398.096	6.1
398.456	5.99
398.816	5.94
399.176	5.91
399.535	5.87
399.895	5.83
400.255	5.73
400.615	5.71
400.975	5.68
401.334	5.63
401.694	5.61
402.054	5.57
402.413	5.52
402.773	5.45
403.132	5.45
403.492	5.43
403.851	5.39
404.211	5.39
404.57	5.36
404.929	5.33
405.288	5.32
405.648	5.28
406.007	5.29
406.366	5.24
406.725	5.17
407.084	5.13
407.443	5.1
407.802	5.09
408.161	5.06
408.52	5.04
408.879	5.04
409.238	5.02
409.596	4.98
409.955	4.98
410.314	5.01
410.673	4.98
411.031	4.97
411.39	4.98
411.748	4.97
412.107	4.95
412.465	4.92
412.824	4.88
413.182	4.87
413.54	4.85
413.899	4.85
414.257	4.89
414.615	4.85
414.974	4.83
415.332	4.81
415.69	4.78
416.048	4.75
416.406	4.73
416.764	4.71
417.122	4.72
417.48	4.7
417.838	4.68
418.195	4.66
418.553	4.63
418.911	4.61
419.269	4.57
419.626	4.56
419.984	4.54
420.342	4.51
420.699	4.5
421.057	4.5
421.414	4.49
421.772	4.45
422.129	4.44
422.486	4.44
422.844	4.41
423.201	4.4
423.558	4.36
423.915	4.34
424.273	4.32
424.63	4.3
424.987	4.28
425.344	4.24
425.701	4.22
426.058	4.21
426.415	4.19
426.772	4.17
427.128	4.16
427.485	4.16
427.842	4.16
428.199	4.15
428.555	4.13
428.912	4.1
429.269	4.09
429.625	4.07
429.982	4.05
430.338	4.06
430.695	4.05
431.051	4.07
431.407	4.07
431.764	4.04
432.12	4.05
432.476	4.04
432.832	4.07
433.189	4.08
433.545	4.08
433.901	4.09
434.257	4.12
434.613	4.11
434.969	4.08
435.325	4.09
435.681	4.09
436.036	4.06
436.392	4.05
436.748	4.05
437.104	4.08
437.459	4.07
437.815	4.05
438.171	4.08
438.526	4.09
438.882	4.08
439.237	4.08
439.593	4.09
439.948	4.09
440.304	4.08
440.659	4.08
441.014	4.07
441.369	4.09
441.725	4.07
442.08	4.05
442.435	4.06
442.79	4.04
443.145	4.02
443.5	4.03
443.855	4.04
444.21	4.05
444.565	4.02
444.92	4.02
445.275	4.03
445.629	3.99
445.984	3.98
446.339	3.99
446.693	3.97
447.048	3.94
447.403	3.93
447.757	3.9
448.112	3.88
448.466	3.86
448.82	3.84
449.175	3.84
449.529	3.83
449.883	3.8
450.238	3.8
450.592	3.79
450.946	3.77
451.3	3.76
451.654	3.72
452.008	3.72
452.362	3.71
452.716	3.71
453.07	3.7
453.424	3.69
453.778	3.65
454.132	3.66
454.486	3.69
454.839	3.71
455.193	3.73
455.547	3.73
455.9	3.75
456.254	3.75
456.607	3.75
456.961	3.77
457.314	3.79
457.668	3.77
458.021	3.79
458.375	3.8
458.728	3.81
459.081	3.82
459.434	3.81
459.787	3.81
460.141	3.83
460.494	3.86
460.847	3.86
461.2	3.88
461.553	3.88
461.906	3.88
462.259	3.87
462.611	3.88
462.964	3.92
463.317	3.92
463.67	3.93
464.022	3.94
464.375	3.96
464.728	3.97
465.08	4
465.433	4.01
465.785	4.06
466.138	4.09
466.49	4.14
466.843	4.2
467.195	4.22
467.547	4.2
467.899	4.25
468.252	4.27
468.604	4.29
468.956	4.34
469.308	4.36
469.66	4.38
470.012	4.4
470.364	4.4
470.716	4.43
471.068	4.45
471.42	4.48
471.772	4.47
472.123	4.51
472.475	4.54
472.827	4.57
473.178	4.55
473.53	4.5
473.882	4.49
474.233	4.5
474.585	4.52
474.936	4.54
475.288	4.5
475.639	4.51
475.99	4.51
476.342	4.49
476.693	4.48
477.044	4.46
477.395	4.44
477.746	4.43
478.097	4.43
478.448	4.42
478.8	4.41
479.15	4.41
479.501	4.39
479.852	4.33
480.203	4.3
480.554	4.3
480.905	4.31
481.255	4.3
481.606	4.29
481.957	4.28
482.307	4.28
482.658	4.28
483.009	4.27
483.359	4.26
483.709	4.25
484.06	4.25
484.41	4.26
484.761	4.27
485.111	4.25
485.461	4.24
485.811	4.24
486.162	4.22
486.512	4.21
486.862	4.21
487.212	4.21
487.562	4.21
487.912	4.21
488.262	4.2
488.612	4.2
488.961	4.19
489.311	4.19
489.661	4.18
490.011	4.18
490.36	4.19
490.71	4.19
491.06	4.2
491.409	4.21
491.759	4.21
492.108	4.21
492.458	4.24
492.807	4.26
493.157	4.29
493.506	4.33
493.855	4.37
494.204	4.41
494.554	4.45
494.903	4.5
495.252	4.53
495.601	4.57
495.95	4.62
496.299	4.68
496.648	4.73
496.997	4.79
497.346	4.86
497.695	4.9
498.043	4.99
498.392	5.06
498.741	5.12
499.09	5.21
499.438	5.29
499.787	5.39
500.135	5.47
500.484	5.56
500.832	5.66
501.181	5.78
501.529	5.89
501.878	6.02
502.226	6.12
502.574	6.28
502.923	6.45
503.271	6.61
503.619	6.77
503.967	6.92
504.315	7.1
504.663	7.28
505.011	7.48
505.359	7.67
505.707	7.86
506.055	8.07
506.403	8.27
506.751	8.46
507.098	8.68
507.446	8.9
507.794	9.12
508.141	9.35
508.489	9.61
508.837	9.87
509.184	10.12
509.531	10.36
509.879	10.64
510.226	10.87
510.574	11.13
510.921	11.42
511.268	11.71
511.616	11.99
511.963	12.3
512.31	12.59
512.657	12.88
513.004	13.2
513.351	13.56
513.698	13.9
514.045	14.29
514.392	14.64
514.739	15
515.086	15.37
515.432	15.71
515.779	16.04
516.126	16.39
516.473	16.7
516.819	17.04
517.166	17.36
517.512	17.65
517.859	17.93
518.205	18.17
518.552	18.48
518.898	18.75
519.245	19.03
519.591	19.3
519.937	19.6
520.283	19.92
520.629	20.19
520.976	20.46
521.322	20.75
521.668	21.1
522.014	21.41
522.36	21.71
522.706	22.04
523.052	22.41
523.398	22.77
523.743	23.2
524.089	23.63
524.435	23.95
524.781	24.3
525.126	24.64
525.472	24.96
525.817	25.21
526.163	25.48
526.509	25.7
526.854	25.93
527.199	26.13
527.545	26.35
527.89	26.57
528.235	26.79
528.581	27.02
528.926	27.22
529.271	27.49
529.616	27.72
529.961	27.96
530.306	28.16
530.651	28.39
530.996	28.61
531.341	28.81
531.686	29.07
532.031	29.36
532.376	29.59
532.721	29.84
533.065	30.12
533.41	30.36
533.755	30.63
534.099	30.93
534.444	31.23
534.788	31.47
535.133	31.7
535.477	31.98
535.822	32.24
536.166	32.52
536.51	32.79
536.855	33.12
537.199	33.43
537.543	33.79
537.887	34.13
538.231	34.43
538.576	34.79
538.92	35.11
539.264	35.38
539.608	35.68
539.951	35.97
540.295	36.19
540.639	36.47
540.983	36.72
541.327	36.93
541.671	37.14
542.014	37.39
542.358	37.63
542.701	37.86
543.045	38.06
543.389	38.28
543.732	38.44
544.075	38.64
544.419	38.81
544.762	39.03
545.105	39.24
545.449	39.49
545.792	39.7
546.135	39.91
546.478	40.17
546.821	40.45
547.165	40.69
547.508	40.93
547.851	41.16
548.194	41.4
548.536	41.63
548.879	41.9
549.222	42.09
549.565	42.27
549.908	42.49
550.25	42.69
550.593	42.84
550.936	43.08
551.278	43.32
551.621	43.56
551.963	43.75
552.306	43.94
552.648	44.19
552.991	44.36
553.333	44.54
553.675	44.8
554.017	44.92
554.36	45.07
554.702	45.29
555.044	45.48
555.386	45.62
555.728	45.79
556.07	45.88
556.412	46.1
556.754	46.29
557.096	46.47
557.438	46.69
557.78	46.92
558.121	47.15
558.463	47.25
558.805	47.44
559.147	47.64
559.488	47.78
559.83	47.9
560.171	48.06
560.513	48.16
560.854	48.24
561.196	48.42
561.537	48.59
561.878	48.75
562.22	48.9
562.561	49.06
562.902	49.15
563.243	49.3
563.584	49.39
563.925	49.53
564.266	49.55
564.607	49.72
564.948	49.81
565.289	49.93
565.63	50.02
565.971	50.16
566.312	50.25
566.653	50.31
566.993	50.34
567.334	50.46
567.675	50.6
568.015	50.7
568.356	50.75
568.696	50.9
569.037	50.96
569.377	50.96
569.718	51.03
570.058	51.15
570.398	51.22
570.739	51.26
571.079	51.28
571.419	51.43
571.759	51.45
572.099	51.52
572.439	51.56
572.779	51.67
573.119	51.73
573.459	51.75
573.799	51.83
574.139	51.99
574.479	52.05
574.819	52.13
575.158	52.11
575.498	52.14
575.838	52.1
576.177	52.14
576.517	52.36
576.856	52.39
577.196	52.43
577.535	52.52
577.875	52.67
578.214	52.77
578.553	52.76
578.893	52.89
579.232	53.06
579.571	53.2
579.91	53.18
580.25	53.24
580.589	53.3
580.928	53.36
581.267	53.39
581.606	53.4
581.945	53.4
582.283	53.57
582.622	53.68
582.961	53.86
583.3	53.91
583.639	53.91
583.977	54.06
584.316	54.1
584.654	54.2
584.993	54.24
585.332	54.33
585.67	54.42
586.008	54.41
586.347	54.39
586.685	54.32
587.024	54.45
587.362	54.43
587.7	54.53
588.038	54.57
588.376	54.63
588.715	54.76
589.053	54.85
589.391	54.88
589.729	54.98
590.067	54.93
590.404	54.99
590.742	54.91
591.08	54.93
591.418	55.08
591.756	55.11
592.093	55.15
592.431	55.29
592.769	55.28
593.106	55.39
593.444	55.38
593.781	55.48
594.119	55.43
594.456	55.5
594.793	55.5
595.131	55.58
595.468	55.63
595.805	55.61
596.143	55.67
596.48	55.66
596.817	55.6
597.154	55.61
597.491	55.69
597.828	55.76
598.165	55.79
598.502	55.77
598.839	55.81
599.176	55.84
599.512	55.74
599.849	55.81
600.186	55.77
600.523	55.85
600.859	55.86
601.196	56.03
601.532	56.05
601.869	56.11
602.205	56.12
602.542	56.13
602.878	56.17
603.215	56.22
603.551	56.3
603.887	56.41
604.223	56.53
604.56	56.49
604.896	56.53
605.232	56.53
605.568	56.57
605.904	56.54
606.24	56.59
606.576	56.62
606.912	56.66
607.248	56.64
607.583	56.68
607.919	56.8
608.255	56.75
608.591	56.78
608.926	56.82
609.262	56.82
609.597	56.81
609.933	56.82
610.268	56.77
610.604	56.77
610.939	56.79
611.275	56.71
611.61	56.74
611.945	56.67
612.281	56.7
612.616	56.67
612.951	56.81
613.286	56.81
613.621	56.88
613.956	56.84
614.291	56.84
614.626	56.89
614.961	56.72
615.296	56.72
615.631	56.85
615.966	56.89
616.3	56.81
616.635	56.8
616.97	56.91
617.304	56.9
617.639	56.89
617.973	56.86
618.308	56.89
618.642	57.03
618.977	57.1
619.311	57.11
619.646	57.2
619.98	57.19
620.314	57.23
620.648	57.24
620.983	57.37
621.317	57.49
621.651	57.47
621.985	57.56
622.319	57.74
622.653	57.6
622.987	57.56
623.321	57.6
623.655	57.54
623.988	57.51
624.322	57.54
624.656	57.57
624.99	57.57
625.323	57.61
625.657	57.51
625.99	57.64
626.324	57.56
626.657	57.58
626.991	57.54
627.324	57.55
627.658	57.52
627.991	57.6
628.324	57.6
628.657	57.58
628.991	57.59
629.324	57.44
629.657	57.49
629.99	57.51
630.323	57.58
630.656	57.78
630.989	57.79
631.322	57.86
631.655	57.94
631.987	58.02
632.32	58.03
632.653	58.07
632.986	58.04
633.318	58.13
633.651	58.09
633.984	58.19
634.316	58.14
634.649	58.21
634.981	58.15
635.313	58.17
635.646	58.21
635.978	58.21
636.31	58.22
636.643	58.26
636.975	58.29
637.307	58.29
637.639	58.23
637.971	58.2
638.303	58.12
638.635	58.01
638.967	58.04
639.299	58.06
639.631	58.09
639.963	58
640.295	58.03
640.626	58.03
640.958	57.96
641.29	57.99
641.621	57.98
641.953	58
642.285	58.03
642.616	58
642.948	58.04
643.279	57.98
643.61	57.99
643.942	57.99
644.273	58.05
644.604	57.99
644.936	58.05
645.267	58.18
645.598	58.27
645.929	58.23
646.26	58.22
646.591	58.29
646.922	58.49
647.253	58.45
647.584	58.53
647.915	58.63
648.245	58.75
648.576	58.69
648.907	58.58
649.238	58.54
649.568	58.59
649.899	58.67
650.229	58.85
650.56	58.84
650.89	58.89
651.221	58.82
651.551	58.86
651.882	58.96
652.212	58.93
652.542	58.94
652.872	58.97
653.203	58.97
653.533	58.95
653.863	58.8
654.193	59.02
654.523	59
654.853	58.83
655.183	58.8
655.513	58.81
655.843	58.91
656.172	58.88
656.502	58.85
656.832	58.72
657.162	58.68
657.491	58.72
657.821	58.73
658.15	58.82
658.48	58.84
658.809	58.71
659.139	58.64
659.468	58.63
659.798	58.6
660.127	58.66
660.456	58.61
660.785	58.64
661.115	58.63
661.444	58.6
661.773	58.66
662.102	58.6
662.431	58.68
662.76	58.75
663.089	58.88
663.418	58.87
663.747	58.86
664.076	58.85
664.404	58.86
664.733	58.77
665.062	58.78
665.39	58.78
665.719	58.86
666.048	59.07
666.376	59.01
666.705	59.01
667.033	59.03
667.362	59.13
667.69	59.17
668.018	58.99
668.347	58.92
668.675	59
669.003	58.96
669.331	59.01
669.659	58.94
669.987	58.98
670.315	59.07
670.643	59.19
670.971	59.21
671.299	59.05
671.627	59.2
671.955	59.16
672.283	59.33
672.61	59.21
672.938	59.14
673.266	59.27
673.593	59.31
673.921	59.31
674.249	59.27
674.576	59.29
674.904	59.32
675.231	59.29
675.558	59.22
675.886	59.18
676.213	59.24
676.54	59.18
676.867	59.04
677.195	58.97
677.522	58.94
677.849	58.87
678.176	58.92
678.503	58.74
678.83	58.77
679.157	58.73
679.484	58.92
679.81	58.84
680.137	58.78
680.464	58.85
680.791	58.88
681.117	58.83
681.444	58.78
681.771	58.79
682.097	59
682.424	59.14
682.75	59.26
683.077	59.29
683.403	59.34
683.729	59.36
684.056	59.44
684.382	59.55
684.708	59.67
685.034	59.64
685.36	59.63
685.686	59.64
686.012	59.61
686.339	59.5
686.664	59.58
686.99	59.62
687.316	59.68
687.642	59.55
687.968	59.61
688.294	59.7
688.619	59.8
688.945	59.72
689.271	59.53
689.596	59.48
689.922	59.4
690.247	59.43
690.573	59.49
690.898	59.38
691.224	59.3
691.549	59.18
691.874	59.3
692.2	59.46
692.525	59.35
692.85	59.28
693.175	59.21
693.5	59.14
693.825	59.11
694.15	59.03
694.475	59.15
694.8	59.24
695.125	59.25
695.45	59.11
695.775	58.98
696.099	59.02
696.424	58.99
696.749	58.92
697.073	58.97
697.398	58.92
697.723	59.05
698.047	58.99
698.372	59.05
698.696	59.12
699.02	59.09
699.345	59.25
699.669	59.23
699.993	59.29
700.318	59.28
700.642	59.24
700.966	59.3
701.29	59.31
701.614	59.26
701.938	59.12
702.262	59.18
702.586	59.45
702.91	59.4
703.234	59.39
703.557	59.44
703.881	59.46
704.205	59.46
704.529	59.28
704.852	59.39
705.176	59.55
705.499	59.36
705.823	59.46
706.146	59.31
706.47	59.39
706.793	59.54
707.117	59.56
707.44	59.51
707.763	59.31
708.086	59.03
708.409	59.03
708.733	59.22
709.056	59.39
709.379	59.15
709.702	59.33
710.025	59.44
710.348	59.55
710.671	59.36
710.993	59.33
711.316	59.74
711.639	59.64
711.962	59.51
712.284	59.55
712.607	59.35
712.93	59.27
713.252	59.38
713.575	59.34
713.897	59.45
714.22	59.5
714.542	59.47
714.864	59.64
715.187	59.59
715.509	59.4
715.831	59.27
716.153	59.31
716.475	59.25
716.798	59.27
717.12	59.05
717.442	59.11
717.764	59.25
718.085	59.03
718.407	59.16
718.729	59.09
719.051	59.08
719.373	59.1
719.695	59.33
720.016	59.22
720.338	59.34
720.659	59.08
720.981	59.08
721.302	59.26
721.624	59.27
721.945	59.17
722.267	59.32
722.588	59.32
722.909	59.54
723.231	59.58
723.552	59.41
723.873	59.59
724.194	59.75
724.515	59.85
724.836	59.71
725.157	59.7
725.478	59.96
725.799	59.97
726.12	59.79
726.441	59.78
726.762	59.67
727.083	59.48
727.403	59.62
727.724	59.8
728.045	59.7
728.365	59.77
728.686	59.9
729.006	59.78
729.327	59.94
729.647	59.71
729.967	59.81
730.288	60.1
730.608	60.3
730.928	60.3
731.249	60.41
731.569	60.29
731.889	60.27
732.209	60.23
732.529	60.37
732.849	60.57
733.169	60.4
733.489	60.38
733.809	60.39
734.129	60.32
734.448	60.16
734.768	59.98
735.088	60.02
735.408	59.85
735.727	60.11
736.047	59.99
736.366	60.02
736.686	60.04
737.005	60.02
737.325	59.61
737.644	59.2
737.963	58.78
738.283	58.89
738.602	58.93
738.921	58.87
739.24	58.86
739.56	59
739.879	59.27
740.198	59.43
740.517	59.49
740.836	59.48
741.155	59.52
741.473	59.71
741.792	59.69
742.111	60
742.43	60
742.748	60.05
743.067	60.22
743.386	60.28
743.704	60.05
744.023	59.97
744.341	60.51
744.66	60.61
744.978	60.69
745.297	60.35
745.615	60.14
745.933	59.81
746.252	59.97
746.57	59.97
746.888	60.1
747.206	59.87
747.524	60.51
747.842	60.45
748.16	60.73
748.478	60.72
748.796	60.8
749.114	60.4
749.432	60.26
749.749	59.98
750.067	59.54
750.385	59.79
750.703	59.56
751.02	59.63
751.338	59.73
751.655	59.52
751.973	59.5
752.29	60
752.608	60.51
752.925	60.24
753.242	60.42
753.56	60.18
753.877	60.44
754.194	59.91
754.511	60.14
754.828	60.12
755.145	60.23
755.462	60.17
755.779	60.55
756.096	60.37
756.413	60.43
756.73	60.54
757.047	60.52
757.364	61.1
757.68	60.95
757.997	60.77
758.314	60.98
758.63	60.88
758.947	60.9
759.264	60.73
759.58	60.8
759.896	60.24
760.213	60.46
760.529	60.04
760.846	59.7
761.162	59.65
761.478	59.4
761.794	59.29
762.11	59.19
762.426	59.35
762.743	59.36
763.059	59.32
763.375	59.36
763.69	59.21
764.006	58.99
764.322	58.84
764.638	59.2
764.954	59.12
765.27	59.2
765.585	59.12
765.901	59.3
766.216	59.44
766.532	59.58
766.848	59.58
767.163	60.19
767.478	60.42
767.794	60.48
768.109	60.25
768.424	60.39
768.74	60.38
769.055	59.99
769.37	60.33
769.685	60.53
770	60.39
770.315	60.92
770.63	61.23
770.945	61.75
771.26	61.48
771.575	62.26
771.89	62.55
772.205	62.46
772.52	62.06
772.834	61.63
773.149	61.75
773.464	61.83
773.778	61.13
774.093	61.47
774.407	61.48
774.722	62.07
775.036	62.05
775.351	61.68
775.665	61.82
775.979	61.87
776.293	61.4
776.608	61.3
776.922	60.52
777.236	60.48
777.55	59.71
777.864	59.57
778.178	58.73
778.492	58.44
778.806	57.81
779.12	58.02
779.434	58.51
779.747	58.73
780.061	58.58
780.375	58.92
780.689	58.58
781.002	58.51
781.316	58.27
781.629	58.15
781.943	58.65
782.256	58.47
782.57	58.56
782.883	59.16
783.196	59.48
783.51	59.98
783.823	59.29
784.136	59.94
784.449	59.9
784.762	59.5
785.075	59.57
785.388	59.95
785.701	59.38
786.014	59.17
786.327	58.86
786.64	58.45
786.953	59.14
787.266	58.63
787.578	58.41
787.891	59.16
788.204	59.37
788.516	59.61
788.829	60.05
789.141	60.04
789.454	60.04
789.766	59.61
790.079	59.45
790.391	60.1
790.703	59.74
791.016	59.77
791.328	60.21
791.64	60.32
791.952	59.79
792.264	60.66
792.576	60.65
792.888	60.77
793.2	60.96
793.512	60.35
793.824	61.05
794.136	61.73
794.448	61.4
794.76	60.62
795.071	60.99
795.383	60.55
795.695	60.1
796.006	60.25
796.318	60.79
796.629	61
796.941	60.89
797.252	60.79
797.564	60.53
797.875	60.62
798.186	60.46
798.497	61.27
798.809	60.81
799.12	61
799.431	61.17
799.742	61.16
800.053	61.7
800.364	61.94
800.675	61.49
800.986	61.35
801.297	61.84
801.608	61.1
801.918	61.5
802.229	61.69
802.54	61.72
802.851	61.03
803.161	60.23
803.472	60.3
803.782	60.14
804.093	60.01
804.403	60.41
804.714	60.98
805.024	60.67
805.334	60.44
805.645	59.6
805.955	59.13
806.265	59.18
806.575	58.34
806.885	57.98
807.195	58.28
807.505	57.54
807.815	57.18
808.125	57.97
808.435	57.66
808.745	57.74
809.055	57.33
809.365	58.28
809.674	58.98
809.984	58.92
810.294	59.14
810.603	59.54
810.913	58.85
811.222	58.51
811.532	58.47
811.841	58.63
812.151	59.18
812.46	59.38
812.769	59.15
813.079	58.73
813.388	58.46
813.697	57.88
814.006	59.06
814.315	59.41
814.624	58.28
814.933	58.58
815.242	58
815.551	58.49
815.86	58.11
816.169	58.05
816.478	58.31
816.786	57.95
817.095	57.88
817.404	58.09
817.712	57.76
818.021	58.41
818.33	58.45
818.638	58.53
818.947	58.52
819.255	58.99
819.563	59.3
819.872	59.8
820.18	60.34
820.488	60.28
820.796	60.4
821.105	60.3
821.413	60.53
821.721	60.61
822.029	60.5
822.337	60.69
822.645	60.57
822.953	60.52
823.26	60.58
823.568	60.84
823.876	60.82
824.184	60.89
824.491	60.87
824.799	60.8
825.107	60.9
825.414	61.07
825.722	60.97
826.029	61.12
826.337	61.1
826.644	60.83
826.951	60.79
827.259	61.02
827.566	61.22
827.873	61.02
828.18	60.94
828.488	60.9
828.795	60.67
829.102	60.92
829.409	60.67
829.716	60.5
830.023	60.23
830.329	60.2
830.636	60.48
830.943	60.57
831.25	61.08
831.557	60.76
831.863	60.24
832.17	60.49
832.476	60.54
832.783	60.72
833.089	60.84
833.396	60.97
833.702	60.74
834.009	60.93
834.315	61.25
834.621	61.17
834.928	61.32
835.234	61.19
835.54	60.32
835.846	60.52
836.152	61.6
836.458	61.25
836.764	61.83
837.07	61.45
837.376	61.36
837.682	61.51
837.988	62.31
838.293	63.34
838.599	63.09
838.905	62.97
839.211	62.42
839.516	63.16
839.822	63.16
840.127	63.64
840.433	63.33
840.738	63.17
841.044	64.02
841.349	62.67
841.654	63.04
841.959	64.33
842.265	65.54
842.57	65.72
842.875	66.6
843.18	65.67
843.485	65.91
843.79	64.53
844.095	63.07
844.4	62.04
844.705	61.96
845.01	63.64
845.315	60.84
845.619	60.87
845.924	59.47
846.229	59.45
846.533	57.6
846.838	58.55
847.142	56.92
847.447	56.25
847.751	59.18
848.056	60.07
848.36	59.03
848.664	58.43
848.969	56.43
849.273	55.39
849.577	56.23
849.881	58.07
850.185	58.43
850.489	58.44
850.794	58.75
851.097	58.48
851.401	56.33
851.705	59.91
852.009	58.79
852.313	57.71
852.617	58.32
852.92	59.03
853.224	58.8
853.528	59.47
853.831	61.37
854.135	60.09
854.438	59.15
854.742	61.54
855.045	62.29
855.349	60.77
855.652	62.37
855.955	62.16
856.259	63.37
856.562	64
856.865	66.89
857.168	64.23
857.471	64.21
857.774	65.66
858.077	66.54
858.38	68.86
858.683	69.01
858.986	69.85
859.289	69.43
859.592	71.53
859.894	72.17
860.197	71.58
860.5	74.93
860.802	75.98
861.105	75.66
861.407	74.23
861.71	76.79
862.012	74.23
862.315	74.44
862.617	69.62
862.919	70.76
863.222	68.79
863.524	69.86
863.826	67.51
864.128	65.95
864.43	65.4
864.732	61.46
865.034	61.12
865.336	58.31
865.638	59.1
865.94	56.18
866.242	55.3
866.544	55.06
866.846	55.26
867.147	54.57
867.449	55.27
867.751	55.87
868.052	57.35
868.354	58.65
868.655	56.69
868.957	57.26
869.258	60.14
869.56	61.31
869.861	60.19
870.162	59.17
870.463	59.02
870.765	60.2
871.066	65.17
871.367	66.75
871.668	67.25
871.969	67.7
872.27	67.85
872.571	66.87
872.872	69.18
873.173	64.94
873.473	63.47
873.774	64.32
874.075	62.93
874.376	60.2
874.676	59.32
874.977	57.92
875.277	59.21
875.578	56.71
875.878	55.25
876.179	58.3
876.479	60.63
876.78	60.89
877.08	59.82
877.38	57.44
877.68	57.09
877.981	57.8
878.281	56.72
878.581	55.2
