Data from MVZ_BU136690_Reflection_00011.txt Node
Date: Tue Nov 19 12:08:08 EST 2019
User: vgr7
Spectrometer: USB2G7710
Scans to average: 3
Trigger mode: 4
Integration Time (sec): 2.000000E-2
Electric dark correction enabled: true
Boxcar width: 10
XAxis mode: Wavelengths
Number of Pixels in Spectrum: 2048
>>>>>Begin Spectral Data<<<<<
177.721	37.94
178.105	92.7
178.488	70.34
178.871	71.43
179.254	-31.82
179.636	-47.23
180.019	-200.46
180.402	104.55
180.785	264.29
181.168	90.65
181.55	34.06
181.933	24.76
182.316	88.56
182.698	82.91
183.081	341.28
183.463	154.1
183.846	64.45
184.228	227.72
184.611	-155.43
184.993	-82.69
185.376	93.9
185.758	3.85
186.14	50
186.522	175.58
186.904	293.75
187.287	11.59
187.669	13.41
188.051	29.88
188.433	-61.59
188.815	0.86
189.197	13.96
189.579	-2
189.961	-11.07
190.342	-5.09
190.724	-5.32
191.106	0.07
191.488	6.35
191.869	3.11
192.251	16.47
192.633	16.78
193.014	35.67
193.396	32.49
193.777	50.83
194.159	87.97
194.54	51.85
194.922	48.71
195.303	33.21
195.684	5.5
196.065	0.52
196.447	17.17
196.828	10.95
197.209	36.84
197.59	25.71
197.971	21.48
198.352	7.76
198.733	0.08
199.114	-2.47
199.495	-37.86
199.876	-63.09
200.257	-95.7
200.638	-36.43
201.018	-30.11
201.399	-36.99
201.78	-36.65
202.16	-65.76
202.541	-52.49
202.922	-77.8
203.302	-15.31
203.683	-53.45
204.063	-43.1
204.444	0.28
204.824	50
205.204	46.68
205.585	191.59
205.965	216.4
206.345	342.89
206.725	308.02
207.106	217.76
207.486	171.36
207.866	187.52
208.246	292.78
208.626	292.08
209.006	466.55
209.386	396.88
209.766	471.15
210.145	219.24
210.525	228.72
210.905	150.14
211.285	164.27
211.664	139.75
212.044	133.05
212.424	129.85
212.803	136.05
213.183	111.83
213.562	82.34
213.942	70.95
214.321	59.01
214.701	46.09
215.08	36.38
215.459	58.94
215.838	41.34
216.218	28.71
216.597	64.78
216.976	56.39
217.355	41.71
217.734	90.53
218.113	88.46
218.492	91.82
218.871	102.35
219.25	61.91
219.629	56.11
220.008	59.47
220.387	29.64
220.766	51.23
221.144	41.9
221.523	50.75
221.902	82.86
222.28	82.77
222.659	62.3
223.037	70.01
223.416	60.05
223.794	52.12
224.173	40.91
224.551	32.05
224.929	29.62
225.308	34.73
225.686	19.51
226.064	16.01
226.442	16.83
226.821	9.47
227.199	13.8
227.577	14.7
227.955	14.02
228.333	16.06
228.711	8.05
229.089	6.43
229.467	5.66
229.845	4.15
230.222	6.15
230.6	6.02
230.978	8.19
231.356	4.98
231.733	8.76
232.111	11.34
232.488	11.01
232.866	10.87
233.243	9.51
233.621	10.98
233.998	10.88
234.376	11.35
234.753	13.09
235.13	13.87
235.508	12.87
235.885	14.95
236.262	15.18
236.639	16.07
237.016	17.86
237.393	15.28
237.77	14.39
238.147	12.98
238.524	13.17
238.901	11.49
239.278	10.82
239.655	9.23
240.032	8.8
240.409	8.77
240.785	8.65
241.162	8.54
241.539	8.27
241.915	7.7
242.292	7.34
242.668	6.99
243.045	6.69
243.421	7.13
243.798	6.59
244.174	6.87
244.551	6.6
244.927	6.16
245.303	6.1
245.679	6.16
246.056	6.07
246.432	6.05
246.808	6.1
247.184	6.01
247.56	5.85
247.936	6.03
248.312	6.14
248.688	6.19
249.064	5.86
249.44	5.58
249.815	5.63
250.191	5.72
250.567	5.64
250.943	5.61
251.318	5.41
251.694	5.3
252.069	5.17
252.445	5.06
252.82	4.92
253.196	5.17
253.571	5.01
253.947	4.97
254.322	4.87
254.697	4.75
255.073	5.11
255.448	5.34
255.823	5.41
256.198	5.03
256.573	5.08
256.948	5.34
257.323	5.59
257.698	5.59
258.073	5.35
258.448	5.51
258.823	5.32
259.198	5.28
259.573	5.29
259.948	5.3
260.322	5.31
260.697	5.45
261.072	5.32
261.446	5.3
261.821	5.39
262.195	5.46
262.57	5.5
262.944	5.49
263.319	5.68
263.693	5.47
264.067	5.46
264.442	5.27
264.816	5.15
265.19	5.06
265.564	4.97
265.938	5.01
266.313	4.6
266.687	4.75
267.061	4.67
267.435	4.82
267.809	4.65
268.183	4.77
268.556	4.83
268.93	4.95
269.304	4.79
269.678	4.82
270.051	4.69
270.425	4.4
270.799	4.13
271.172	3.98
271.546	4.17
271.919	4.13
272.293	4.24
272.666	4.29
273.04	4.46
273.413	4.44
273.787	4.48
274.16	4.51
274.533	4.64
274.906	4.86
275.279	4.78
275.653	4.8
276.026	4.8
276.399	4.79
276.772	4.68
277.145	4.93
277.518	4.78
277.891	4.79
278.263	5.18
278.636	5.32
279.009	5.43
279.382	5.28
279.755	5.35
280.127	5.46
280.5	5.57
280.872	5.4
281.245	5.41
281.617	5.4
281.99	5.53
282.362	5.47
282.735	5.3
283.107	5.08
283.479	4.96
283.852	4.89
284.224	4.91
284.596	5.08
284.968	4.85
285.34	4.85
285.713	4.95
286.085	4.66
286.457	4.59
286.829	4.41
287.201	4.39
287.572	4.5
287.944	4.5
288.316	4.41
288.688	4.64
289.06	4.62
289.431	4.69
289.803	4.78
290.175	4.78
290.546	4.97
290.918	5.15
291.289	5.08
291.661	5.09
292.032	4.97
292.403	4.74
292.775	4.97
293.146	5.1
293.517	4.99
293.889	5.09
294.26	5.18
294.631	5.26
295.002	5.41
295.373	5.4
295.744	5.36
296.115	5.44
296.486	5.31
296.857	5.41
297.228	5.43
297.599	5.4
297.97	5.46
298.34	5.49
298.711	5.54
299.082	5.72
299.452	5.76
299.823	6.03
300.194	6.22
300.564	6.05
300.935	6.1
301.305	6.12
301.676	6.37
302.046	6.58
302.416	6.71
302.787	6.65
303.157	6.69
303.527	7.01
303.897	7.26
304.267	7.47
304.637	7.78
305.008	7.73
305.378	7.88
305.748	7.83
306.117	7.69
306.487	7.76
306.857	8
307.227	8.41
307.597	8.24
307.967	8.36
308.336	8.68
308.706	8.65
309.076	9.03
309.445	9.11
309.815	9.21
310.184	9.2
310.554	9.11
310.923	9.11
311.293	9.01
311.662	9
312.031	8.98
312.401	8.85
312.77	8.93
313.139	8.88
313.508	9.01
313.877	9.13
314.246	9.21
314.616	9.16
314.985	9.02
315.353	9.18
315.722	9.31
316.091	9.24
316.46	9.51
316.829	9.51
317.198	9.51
317.567	9.56
317.935	9.68
318.304	10.17
318.672	10.3
319.041	10.45
319.41	10.43
319.778	10.62
320.147	10.7
320.515	10.94
320.883	11.1
321.252	11.16
321.62	11.36
321.988	11.38
322.357	11.42
322.725	11.29
323.093	11.37
323.461	11.38
323.829	11.48
324.197	11.56
324.565	11.51
324.933	11.39
325.301	11.26
325.669	11.37
326.037	11.27
326.405	11.28
326.772	11.3
327.14	11.26
327.508	11.31
327.875	11.38
328.243	11.32
328.61	11.43
328.978	11.47
329.346	11.4
329.713	11.56
330.08	11.65
330.448	11.85
330.815	11.87
331.182	11.81
331.55	11.9
331.917	11.86
332.284	11.88
332.651	12.01
333.018	12.21
333.385	12.2
333.752	12.2
334.119	12.39
334.486	12.39
334.853	12.57
335.22	12.63
335.587	12.65
335.954	12.56
336.32	12.62
336.687	12.6
337.054	12.73
337.42	12.79
337.787	12.83
338.153	12.95
338.52	13.04
338.886	13.12
339.253	13.06
339.619	13.03
339.986	13.14
340.352	13.2
340.718	13.13
341.084	13.16
341.451	13.41
341.817	13.37
342.183	13.44
342.549	13.42
342.915	13.38
343.281	13.39
343.647	13.58
344.013	13.63
344.379	13.7
344.745	13.72
345.11	13.59
345.476	13.69
345.842	13.73
346.208	13.73
346.573	13.77
346.939	13.87
347.304	13.93
347.67	13.97
348.035	13.97
348.401	14.02
348.766	14.13
349.132	13.91
349.497	14.07
349.862	14.16
350.228	14.24
350.593	14.17
350.958	14.16
351.323	14.23
351.688	14.25
352.053	14.4
352.418	14.37
352.783	14.53
353.148	14.5
353.513	14.46
353.878	14.53
354.243	14.49
354.608	14.55
354.972	14.53
355.337	14.49
355.702	14.47
356.066	14.52
356.431	14.49
356.795	14.64
357.16	14.52
357.524	14.42
357.889	14.33
358.253	14.38
358.618	14.42
358.982	14.3
359.346	14.23
359.71	14.2
360.075	14.25
360.439	14.19
360.803	14.25
361.167	14.18
361.531	14.13
361.895	14.13
362.259	14.1
362.623	14.1
362.987	14.14
363.351	14.14
363.714	14.18
364.078	14.1
364.442	14
364.806	13.94
365.169	13.97
365.533	14.01
365.896	14.02
366.26	14
366.623	13.95
366.987	13.91
367.35	13.83
367.714	13.7
368.077	13.7
368.44	13.55
368.803	13.53
369.167	13.49
369.53	13.46
369.893	13.45
370.256	13.4
370.619	13.32
370.982	13.29
371.345	13.27
371.708	13.25
372.071	13.19
372.434	13.12
372.797	13.05
373.159	12.95
373.522	12.9
373.885	12.85
374.247	12.8
374.61	12.82
374.973	12.81
375.335	12.78
375.698	12.61
376.06	12.55
376.423	12.5
376.785	12.48
377.147	12.41
377.51	12.26
377.872	12.21
378.234	12.14
378.596	12.11
378.958	11.95
379.321	11.9
379.683	11.82
380.045	11.8
380.407	11.71
380.769	11.66
381.13	11.58
381.492	11.56
381.854	11.52
382.216	11.43
382.578	11.31
382.939	11.24
383.301	11.26
383.663	11.26
384.024	11.19
384.386	11.1
384.747	11.07
385.109	11.03
385.47	10.98
385.832	10.89
386.193	10.83
386.554	10.71
386.916	10.64
387.277	10.65
387.638	10.6
387.999	10.55
388.36	10.49
388.721	10.39
389.082	10.31
389.443	10.27
389.804	10.23
390.165	10.17
390.526	10.1
390.887	10.07
391.248	10.01
391.609	9.98
391.969	9.96
392.33	9.86
392.691	9.84
393.051	9.76
393.412	9.7
393.772	9.64
394.133	9.62
394.493	9.59
394.854	9.48
395.214	9.45
395.574	9.38
395.935	9.3
396.295	9.24
396.655	9.14
397.015	9.09
397.376	9
397.736	8.93
398.096	8.88
398.456	8.79
398.816	8.69
399.176	8.6
399.535	8.51
399.895	8.46
400.255	8.36
400.615	8.28
400.975	8.27
401.334	8.21
401.694	8.14
402.054	8.06
402.413	8.06
402.773	7.99
403.132	7.93
403.492	7.94
403.851	7.9
404.211	7.88
404.57	7.81
404.929	7.77
405.288	7.72
405.648	7.69
406.007	7.67
406.366	7.66
406.725	7.64
407.084	7.6
407.443	7.52
407.802	7.54
408.161	7.54
408.52	7.48
408.879	7.47
409.238	7.44
409.596	7.45
409.955	7.38
410.314	7.36
410.673	7.39
411.031	7.34
411.39	7.31
411.748	7.3
412.107	7.3
412.465	7.29
412.824	7.27
413.182	7.23
413.54	7.2
413.899	7.17
414.257	7.16
414.615	7.1
414.974	7.13
415.332	7.11
415.69	7.06
416.048	7.02
416.406	6.94
416.764	6.95
417.122	6.89
417.48	6.86
417.838	6.82
418.195	6.74
418.553	6.7
418.911	6.68
419.269	6.63
419.626	6.57
419.984	6.54
420.342	6.51
420.699	6.47
421.057	6.45
421.414	6.42
421.772	6.37
422.129	6.34
422.486	6.31
422.844	6.27
423.201	6.24
423.558	6.2
423.915	6.2
424.273	6.14
424.63	6.12
424.987	6.08
425.344	6.09
425.701	6.07
426.058	6.06
426.415	6.02
426.772	6.01
427.128	5.99
427.485	5.97
427.842	5.96
428.199	5.94
428.555	5.89
428.912	5.85
429.269	5.87
429.625	5.85
429.982	5.81
430.338	5.81
430.695	5.8
431.051	5.82
431.407	5.8
431.764	5.79
432.12	5.77
432.476	5.78
432.832	5.77
433.189	5.75
433.545	5.74
433.901	5.74
434.257	5.75
434.613	5.74
434.969	5.75
435.325	5.77
435.681	5.78
436.036	5.78
436.392	5.81
436.748	5.8
437.104	5.82
437.459	5.81
437.815	5.82
438.171	5.82
438.526	5.82
438.882	5.83
439.237	5.84
439.593	5.84
439.948	5.83
440.304	5.82
440.659	5.82
441.014	5.82
441.369	5.83
441.725	5.83
442.08	5.82
442.435	5.81
442.79	5.77
443.145	5.75
443.5	5.76
443.855	5.72
444.21	5.72
444.565	5.68
444.92	5.7
445.275	5.71
445.629	5.68
445.984	5.67
446.339	5.66
446.693	5.64
447.048	5.63
447.403	5.6
447.757	5.58
448.112	5.57
448.466	5.56
448.82	5.52
449.175	5.5
449.529	5.5
449.883	5.46
450.238	5.45
450.592	5.46
450.946	5.43
451.3	5.42
451.654	5.37
452.008	5.35
452.362	5.29
452.716	5.25
453.07	5.26
453.424	5.22
453.778	5.21
454.132	5.2
454.486	5.19
454.839	5.19
455.193	5.19
455.547	5.2
455.9	5.19
456.254	5.22
456.607	5.21
456.961	5.21
457.314	5.22
457.668	5.21
458.021	5.21
458.375	5.21
458.728	5.22
459.081	5.25
459.434	5.26
459.787	5.31
460.141	5.32
460.494	5.32
460.847	5.34
461.2	5.34
461.553	5.35
461.906	5.38
462.259	5.4
462.611	5.43
462.964	5.45
463.317	5.48
463.67	5.48
464.022	5.52
464.375	5.54
464.728	5.58
465.08	5.63
465.433	5.67
465.785	5.7
466.138	5.74
466.49	5.8
466.843	5.83
467.195	5.82
467.547	5.86
467.899	5.9
468.252	5.94
468.604	6.02
468.956	6.05
469.308	6.07
469.66	6.14
470.012	6.13
470.364	6.16
470.716	6.19
471.068	6.23
471.42	6.27
471.772	6.3
472.123	6.3
472.475	6.33
472.827	6.34
473.178	6.37
473.53	6.37
473.882	6.37
474.233	6.35
474.585	6.37
474.936	6.36
475.288	6.35
475.639	6.35
475.99	6.32
476.342	6.34
476.693	6.33
477.044	6.3
477.395	6.3
477.746	6.29
478.097	6.25
478.448	6.23
478.8	6.19
479.15	6.17
479.501	6.15
479.852	6.11
480.203	6.1
480.554	6.08
480.905	6.06
481.255	6.04
481.606	6.03
481.957	6.02
482.307	6.01
482.658	6
483.009	5.97
483.359	5.96
483.709	5.94
484.06	5.94
484.41	5.94
484.761	5.92
485.111	5.92
485.461	5.92
485.811	5.92
486.162	5.91
486.512	5.91
486.862	5.91
487.212	5.91
487.562	5.9
487.912	5.89
488.262	5.89
488.612	5.89
488.961	5.91
489.311	5.91
489.661	5.92
490.011	5.93
490.36	5.95
490.71	5.97
491.06	5.99
491.409	5.99
491.759	6.01
492.108	6.05
492.458	6.07
492.807	6.11
493.157	6.14
493.506	6.18
493.855	6.23
494.204	6.25
494.554	6.31
494.903	6.36
495.252	6.42
495.601	6.5
495.95	6.55
496.299	6.61
496.648	6.69
496.997	6.76
497.346	6.86
497.695	6.96
498.043	7.06
498.392	7.12
498.741	7.24
499.09	7.35
499.438	7.46
499.787	7.57
500.135	7.67
500.484	7.8
500.832	7.92
501.181	8.05
501.529	8.21
501.878	8.36
502.226	8.52
502.574	8.68
502.923	8.86
503.271	9.04
503.619	9.22
503.967	9.39
504.315	9.57
504.663	9.73
505.011	9.89
505.359	10.06
505.707	10.29
506.055	10.47
506.403	10.64
506.751	10.85
507.098	11.06
507.446	11.25
507.794	11.45
508.141	11.67
508.489	11.87
508.837	12.09
509.184	12.33
509.531	12.52
509.879	12.73
510.226	12.94
510.574	13.13
510.921	13.31
511.268	13.53
511.616	13.75
511.963	13.99
512.31	14.24
512.657	14.47
513.004	14.67
513.351	14.94
513.698	15.21
514.045	15.45
514.392	15.71
514.739	16
515.086	16.26
515.432	16.52
515.779	16.78
516.126	17.03
516.473	17.23
516.819	17.43
517.166	17.64
517.512	17.83
517.859	18.05
518.205	18.26
518.552	18.44
518.898	18.63
519.245	18.82
519.591	19
519.937	19.22
520.283	19.42
520.629	19.62
520.976	19.85
521.322	20.08
521.668	20.27
522.014	20.47
522.36	20.72
522.706	20.94
523.052	21.2
523.398	21.45
523.743	21.73
524.089	22.06
524.435	22.32
524.781	22.57
525.126	22.8
525.472	23.03
525.817	23.23
526.163	23.45
526.509	23.61
526.854	23.76
527.199	23.89
527.545	24.07
527.89	24.21
528.235	24.35
528.581	24.5
528.926	24.66
529.271	24.83
529.616	24.99
529.961	25.14
530.306	25.3
530.651	25.47
530.996	25.67
531.341	25.85
531.686	26.05
532.031	26.28
532.376	26.47
532.721	26.69
533.065	26.92
533.41	27.13
533.755	27.38
534.099	27.64
534.444	27.93
534.788	28.13
535.133	28.37
535.477	28.63
535.822	28.9
536.166	29.18
536.51	29.48
536.855	29.76
537.199	30.06
537.543	30.39
537.887	30.72
538.231	31.02
538.576	31.35
538.92	31.67
539.264	31.93
539.608	32.21
539.951	32.49
540.295	32.76
540.639	32.99
540.983	33.21
541.327	33.44
541.671	33.64
542.014	33.89
542.358	34.13
542.701	34.35
543.045	34.56
543.389	34.77
543.732	34.98
544.075	35.2
544.419	35.45
544.762	35.7
545.105	35.95
545.449	36.22
545.792	36.46
546.135	36.71
546.478	37.02
546.821	37.34
547.165	37.6
547.508	37.88
547.851	38.21
548.194	38.5
548.536	38.8
548.879	39.13
549.222	39.45
549.565	39.72
549.908	39.99
550.25	40.32
550.593	40.64
550.936	40.97
551.278	41.29
551.621	41.6
551.963	41.9
552.306	42.14
552.648	42.4
552.991	42.63
553.333	42.84
553.675	43.13
554.017	43.41
554.36	43.64
554.702	43.87
555.044	44.08
555.386	44.35
555.728	44.54
556.07	44.77
556.412	44.98
556.754	45.15
557.096	45.36
557.438	45.64
557.78	45.88
558.121	46.11
558.463	46.36
558.805	46.6
559.147	46.78
559.488	47.03
559.83	47.16
560.171	47.38
560.513	47.62
560.854	47.8
561.196	47.95
561.537	48.15
561.878	48.35
562.22	48.56
562.561	48.67
562.902	48.91
563.243	49.12
563.584	49.32
563.925	49.55
564.266	49.7
564.607	49.79
564.948	49.89
565.289	50.03
565.63	50.18
565.971	50.3
566.312	50.43
566.653	50.53
566.993	50.73
567.334	50.92
567.675	51.09
568.015	51.21
568.356	51.34
568.696	51.53
569.037	51.67
569.377	51.73
569.718	51.95
570.058	52.08
570.398	52.13
570.739	52.23
571.079	52.32
571.419	52.51
571.759	52.67
572.099	52.81
572.439	52.88
572.779	52.99
573.119	53.03
573.459	53.12
573.799	53.24
574.139	53.33
574.479	53.41
574.819	53.53
575.158	53.59
575.498	53.71
575.838	53.78
576.177	53.84
576.517	53.97
576.856	54.02
577.196	54.22
577.535	54.41
577.875	54.48
578.214	54.62
578.553	54.74
578.893	54.73
579.232	54.84
579.571	54.94
579.91	54.99
580.25	55.18
580.589	55.26
580.928	55.41
581.267	55.54
581.606	55.62
581.945	55.66
582.283	55.84
582.622	55.97
582.961	56.07
583.3	56.09
583.639	56.18
583.977	56.28
584.316	56.25
584.654	56.29
584.993	56.4
585.332	56.44
585.67	56.51
586.008	56.57
586.347	56.7
586.685	56.86
587.024	56.91
587.362	56.89
587.7	57.06
588.038	57.12
588.376	57.25
588.715	57.31
589.053	57.36
589.391	57.33
589.729	57.3
590.067	57.23
590.404	57.44
590.742	57.52
591.08	57.56
591.418	57.57
591.756	57.63
592.093	57.71
592.431	57.8
592.769	57.77
593.106	57.91
593.444	57.87
593.781	57.85
594.119	57.96
594.456	58.06
594.793	58.1
595.131	58.13
595.468	58.1
595.805	58.19
596.143	58.25
596.48	58.38
596.817	58.44
597.154	58.63
597.491	58.64
597.828	58.68
598.165	58.76
598.502	58.88
598.839	58.94
599.176	58.91
599.512	58.92
599.849	59.06
600.186	59.02
600.523	59.13
600.859	59.21
601.196	59.28
601.532	59.32
601.869	59.27
602.205	59.3
602.542	59.39
602.878	59.36
603.215	59.38
603.551	59.37
603.887	59.35
604.223	59.31
604.56	59.24
604.896	59.21
605.232	59.22
605.568	59.18
605.904	59.22
606.24	59.33
606.576	59.34
606.912	59.3
607.248	59.34
607.583	59.32
607.919	59.35
608.255	59.36
608.591	59.37
608.926	59.44
609.262	59.42
609.597	59.42
609.933	59.45
610.268	59.54
610.604	59.55
610.939	59.59
611.275	59.66
611.61	59.76
611.945	59.75
612.281	59.75
612.616	59.82
612.951	59.81
613.286	59.78
613.621	59.87
613.956	59.94
614.291	59.94
614.626	59.92
614.961	59.95
615.296	59.97
615.631	59.98
615.966	59.97
616.3	59.98
616.635	60.03
616.97	60.09
617.304	60.04
617.639	60.01
617.973	60.04
618.308	60.07
618.642	60.08
618.977	60.26
619.311	60.21
619.646	60.14
619.98	60.12
620.314	60.23
620.648	60.22
620.983	60.25
621.317	60.39
621.651	60.39
621.985	60.43
622.319	60.38
622.653	60.47
622.987	60.6
623.321	60.66
623.655	60.7
623.988	60.72
624.322	60.69
624.656	60.8
624.99	60.86
625.323	60.97
625.657	61.01
625.99	60.96
626.324	61.04
626.657	61.2
626.991	61.25
627.324	61.2
627.658	61.14
627.991	61.15
628.324	61.13
628.657	61.26
628.991	61.28
629.324	61.36
629.657	61.36
629.99	61.25
630.323	61.21
630.656	61.18
630.989	61.22
631.322	61.2
631.655	61.12
631.987	61.09
632.32	61.06
632.653	61.09
632.986	61.17
633.318	61.19
633.651	61.09
633.984	61.08
634.316	61.09
634.649	61.12
634.981	61.13
635.313	61.08
635.646	61.02
635.978	61.01
636.31	61.01
636.643	61.06
636.975	61.21
637.307	61.23
637.639	61.15
637.971	61.13
638.303	61.2
638.635	61.31
638.967	61.44
639.299	61.42
639.631	61.32
639.963	61.18
640.295	61.27
640.626	61.29
640.958	61.3
641.29	61.35
641.621	61.44
641.953	61.46
642.285	61.46
642.616	61.45
642.948	61.36
643.279	61.25
643.61	61.17
643.942	61.09
644.273	61.16
644.604	61.31
644.936	61.26
645.267	61.3
645.598	61.27
645.929	61.15
646.26	61.2
646.591	61.23
646.922	61.43
647.253	61.38
647.584	61.35
647.915	61.4
648.245	61.34
648.576	61.36
648.907	61.38
649.238	61.46
649.568	61.51
649.899	61.66
650.229	61.73
650.56	61.76
650.89	61.78
651.221	61.81
651.551	61.79
651.882	61.87
652.212	61.86
652.542	61.89
652.872	62.02
653.203	62.01
653.533	62.09
653.863	62.03
654.193	62.03
654.523	62.07
654.853	62.02
655.183	61.96
655.513	61.98
655.843	62.06
656.172	62.02
656.502	62.15
656.832	62.15
657.162	62.2
657.491	62.26
657.821	62.29
658.15	62.32
658.48	62.34
658.809	62.42
659.139	62.37
659.468	62.35
659.798	62.27
660.127	62.24
660.456	62.34
660.785	62.29
661.115	62.29
661.444	62.35
661.773	62.48
662.102	62.56
662.431	62.61
662.76	62.43
663.089	62.41
663.418	62.18
663.747	62.08
664.076	62.06
664.404	62.1
664.733	62.14
665.062	62
665.39	61.89
665.719	61.8
666.048	61.91
666.376	61.94
666.705	61.95
667.033	61.96
667.362	61.97
667.69	62
668.018	62.08
668.347	62.06
668.675	61.96
669.003	62.01
669.331	61.86
669.659	61.99
669.987	62.08
670.315	62.18
670.643	62.26
670.971	62.35
671.299	62.41
671.627	62.36
671.955	62.53
672.283	62.6
672.61	62.65
672.938	62.64
673.266	62.65
673.593	62.74
673.921	62.71
674.249	62.53
674.576	62.53
674.904	62.46
675.231	62.51
675.558	62.72
675.886	62.72
676.213	62.71
676.54	62.69
676.867	62.76
677.195	62.79
677.522	62.67
677.849	62.48
678.176	62.39
678.503	62.39
678.83	62.45
679.157	62.47
679.484	62.5
679.81	62.46
680.137	62.44
680.464	62.5
680.791	62.52
681.117	62.56
681.444	62.68
681.771	62.69
682.097	62.67
682.424	62.42
682.75	62.4
683.077	62.56
683.403	62.62
683.729	62.49
684.056	62.59
684.382	62.67
684.708	62.82
685.034	62.81
685.36	62.73
685.686	62.53
686.012	62.57
686.339	62.52
686.664	62.68
686.99	62.83
687.316	62.8
687.642	62.78
687.968	62.74
688.294	62.74
688.619	62.66
688.945	62.65
689.271	62.79
689.596	62.83
689.922	62.74
690.247	62.64
690.573	62.66
690.898	62.6
691.224	62.6
691.549	62.54
691.874	62.47
692.2	62.64
692.525	62.86
692.85	62.86
693.175	62.75
693.5	62.44
693.825	62.33
694.15	62.31
694.475	62.32
694.8	62.52
695.125	62.51
695.45	62.61
695.775	62.65
696.099	62.61
696.424	62.74
696.749	62.8
697.073	62.91
697.398	62.99
697.723	62.94
698.047	63.05
698.372	63.14
698.696	63.2
699.02	63.19
699.345	63.18
699.669	63.26
699.993	63.43
700.318	63.57
700.642	63.66
700.966	63.63
701.29	63.56
701.614	63.5
701.938	63.49
702.262	63.49
702.586	63.69
702.91	63.64
703.234	63.55
703.557	63.55
703.881	63.44
704.205	63.35
704.529	63.38
704.852	63.32
705.176	63.34
705.499	63.42
705.823	63.18
706.146	63.08
706.47	62.91
706.793	62.89
707.117	62.78
707.44	62.83
707.763	62.71
708.086	62.96
708.409	62.91
708.733	63.02
709.056	63.11
709.379	63.11
709.702	63.21
710.025	63.12
710.348	63.04
710.671	63.04
710.993	63.19
711.316	63.24
711.639	63.21
711.962	63.19
712.284	63.06
712.607	63.39
712.93	63.44
713.252	63.59
713.575	63.77
713.897	64.04
714.22	64.01
714.542	64.22
714.864	64.24
715.187	64.08
715.509	64.16
715.831	64.08
716.153	63.8
716.475	63.76
716.798	63.94
717.12	64.23
717.442	64.23
717.764	64.28
718.085	64.3
718.407	64.2
718.729	64.17
719.051	64.33
719.373	64.16
719.695	64.22
720.016	63.99
720.338	63.82
720.659	63.6
720.981	63.36
721.302	63.51
721.624	63.58
721.945	63.93
722.267	63.69
722.588	63.61
722.909	63.75
723.231	63.76
723.552	63.85
723.873	63.76
724.194	63.67
724.515	63.51
724.836	63.58
725.157	63.9
725.478	63.9
725.799	63.89
726.12	63.88
726.441	63.89
726.762	64.06
727.083	63.79
727.403	63.7
727.724	63.92
728.045	63.63
728.365	63.52
728.686	63.72
729.006	63.96
729.327	64.03
729.647	64.16
729.967	64.16
730.288	64.24
730.608	64.1
730.928	64.55
731.249	64.73
731.569	64.57
731.889	64.25
732.209	64.26
732.529	64.24
732.849	64.42
733.169	64.55
733.489	64.65
733.809	65.06
734.129	65.6
734.448	65.27
734.768	65.18
735.088	65.41
735.408	65.26
735.727	65.07
736.047	65.29
736.366	65.26
736.686	65.3
737.005	65.12
737.325	64.95
737.644	64.45
737.963	64.39
738.283	64.41
738.602	64.76
738.921	65.03
739.24	64.98
739.56	65.15
739.879	64.65
740.198	64.49
740.517	64.31
740.836	63.87
741.155	64.14
741.473	64.37
741.792	64.28
742.111	64.07
742.43	63.87
742.748	63.85
743.067	64.05
743.386	64.07
743.704	64.22
744.023	64.47
744.341	65.02
744.66	65.04
744.978	65.18
745.297	64.8
745.615	64.31
745.933	64.53
746.252	64.49
746.57	64.73
746.888	64.62
747.206	64.48
747.524	64.87
747.842	65.09
748.16	65.14
748.478	65.25
748.796	65.39
749.114	65.78
749.432	66.05
749.749	65.54
750.067	65.57
750.385	65.22
750.703	65.84
751.02	65.56
751.338	65.55
751.655	65.84
751.973	66.2
752.29	66.45
752.608	66.22
752.925	66.31
753.242	66.34
753.56	66.69
753.877	66.87
754.194	66.32
754.511	66.14
754.828	65.69
755.145	65.62
755.462	65.4
755.779	65.56
756.096	65.27
756.413	65.47
756.73	65.7
757.047	65.88
757.364	65.12
757.68	64.81
757.997	65.04
758.314	64.78
758.63	64.54
758.947	64.65
759.264	64.92
759.58	64.68
759.896	64.56
760.213	64.25
760.529	64.28
760.846	64.13
761.162	63.77
761.478	64.19
761.794	63.79
762.11	63.75
762.426	63.56
762.743	63.46
763.059	63.75
763.375	63.88
763.69	64.02
764.006	64.14
764.322	64.09
764.638	63.92
764.954	64.12
765.27	64.39
765.585	64.06
765.901	64.36
766.216	64.41
766.532	64.42
766.848	64.72
767.163	64.41
767.478	64.57
767.794	64.96
768.109	64.95
768.424	65.43
768.74	65.89
769.055	66.14
769.37	66.4
769.685	65.95
770	65.53
770.315	65.34
770.63	65.4
770.945	65.97
771.26	66
771.575	65.98
771.89	65.91
772.205	66.76
772.52	66.22
772.834	66.12
773.149	66.33
773.464	66.59
773.778	66.97
774.093	66.84
774.407	67.2
774.722	66.98
775.036	66.76
775.351	66.73
775.665	67.01
775.979	67.06
776.293	67.56
776.608	67.32
776.922	67.05
777.236	67.36
777.55	67.61
777.864	67.65
778.178	67.41
778.492	67.25
778.806	67.04
779.12	66.79
779.434	66.68
779.747	67.2
780.061	66.49
780.375	66.31
780.689	66.86
781.002	66.52
781.316	66.78
781.629	66.66
781.943	66.01
782.256	64.88
782.57	65.19
782.883	65.24
783.196	65.47
783.51	65.88
783.823	65.5
784.136	65.19
784.449	65.62
784.762	65.44
785.075	65.8
785.388	65.58
785.701	65.95
786.014	66.14
786.327	65.63
786.64	65.8
786.953	66.18
787.266	66.45
787.578	66.63
787.891	67.03
788.204	67.5
788.516	68.09
788.829	68.35
789.141	67.84
789.454	67.61
789.766	67.83
790.079	67.91
790.391	68.43
790.703	68.25
791.016	67.39
791.328	67.47
791.64	67.14
791.952	66.91
792.264	66.4
792.576	66.76
792.888	66.87
793.2	67.26
793.512	67.56
793.824	67.47
794.136	67.66
794.448	67.63
794.76	67.45
795.071	67.5
795.383	67.97
795.695	67.68
796.006	67.54
796.318	67.93
796.629	67.85
796.941	67.69
797.252	68.1
797.564	68.8
797.875	69.15
798.186	69.49
798.497	69.94
798.809	70.73
799.12	71.22
799.431	71.39
799.742	71.12
800.053	71.32
800.364	70.82
800.675	70.72
800.986	70.12
801.297	69.52
801.608	69.82
801.918	69.94
802.229	69.85
802.54	69.84
802.851	69.32
803.161	69.17
803.472	69.13
803.782	68.41
804.093	68.71
804.403	68.78
804.714	68.1
805.024	67.88
805.334	67.74
805.645	66.22
805.955	66.83
806.265	66.78
806.575	66.68
806.885	66.97
807.195	66.45
807.505	66.8
807.815	66.84
808.125	65.83
808.435	66.46
808.745	67.45
809.055	67.15
809.365	67.07
809.674	67.03
809.984	66.93
810.294	67.7
810.603	67.63
810.913	66.61
811.222	66.62
811.532	67.65
811.841	67.73
812.151	68.14
812.46	67.65
812.769	67.82
813.079	67.29
813.388	67.23
813.697	67.52
814.006	67.32
814.315	68.51
814.624	69.35
814.933	68.78
815.242	68.32
815.551	68.67
815.86	68.76
816.169	68.7
816.478	68.36
816.786	67.9
817.095	67.75
817.404	68.67
817.712	69.25
818.021	68.56
818.33	68.22
818.638	68.13
818.947	67.68
819.255	67.45
819.563	66.91
819.872	66.97
820.18	67.07
820.488	66.44
820.796	66.41
821.105	66.37
821.413	66.14
821.721	66.36
822.029	66.76
822.337	66.7
822.645	66.85
822.953	66.85
823.26	66.93
823.568	66.71
823.876	66.64
824.184	66.57
824.491	66.26
824.799	66.22
825.107	66.19
825.414	66.06
825.722	66
826.029	66.09
826.337	65.95
826.644	65.67
826.951	66.29
827.259	66.16
827.566	66.12
827.873	66.2
828.18	66.17
828.488	65.4
828.795	65.35
829.102	65.1
829.409	64.66
829.716	64.47
830.023	64.82
830.329	65.17
830.636	65.39
830.943	65.64
831.25	65.76
831.557	65.79
831.863	66.29
832.17	66.53
832.476	66.73
832.783	67.18
833.089	67.84
833.396	67.12
833.702	67.85
834.009	67.35
834.315	67.24
834.621	66.58
834.928	67.37
835.234	67.83
835.54	67.62
835.846	68.31
836.152	68.79
836.458	68.67
836.764	68.67
837.07	67.96
837.376	68.51
837.682	68.82
837.988	69.22
838.293	69.42
838.599	69.22
838.905	69.4
839.211	69.61
839.516	68.36
839.822	69.08
840.127	68.26
840.433	69.48
840.738	70.35
841.044	70.74
841.349	70.3
841.654	69.65
841.959	70.13
842.265	70.22
842.57	69.21
842.875	68.94
843.18	66.99
843.485	68.24
843.79	67.76
844.095	68.06
844.4	67.92
844.705	68.24
845.01	69.16
845.315	69.24
845.619	69.77
845.924	73.33
846.229	73.36
846.533	73.04
846.838	71.72
847.142	70.99
847.447	72.53
847.751	73.5
848.056	74.97
848.36	75.01
848.664	74.23
848.969	75.87
849.273	78.26
849.577	80.18
849.881	82.58
850.185	85.03
850.489	81.78
850.794	83.36
851.097	82.23
851.401	81.38
851.705	81.67
852.009	81.54
852.313	79.95
852.617	79.78
852.92	78.63
853.224	79.43
853.528	80.36
853.831	79.65
854.135	78.92
854.438	78.17
854.742	78.4
855.045	77.99
855.349	76.48
855.652	74.2
855.955	72.15
856.259	71.44
856.562	67.98
856.865	69.85
857.168	70.32
857.471	70.66
857.774	72.19
858.077	72.5
858.38	71.21
858.683	72.42
858.986	69.92
859.289	71.28
859.592	73.61
859.894	73.41
860.197	71.95
860.5	70.96
860.802	73.51
861.105	76.01
861.407	75.71
861.71	75.67
862.012	75.36
862.315	79.47
862.617	74.86
862.919	75.38
863.222	74.7
863.524	71.2
863.826	74.09
864.128	75.69
864.43	75.52
864.732	75.06
865.034	73.4
865.336	79.9
865.638	79.12
865.94	81
866.242	79.06
866.544	82.38
866.846	84.82
867.147	80.28
867.449	80.72
867.751	81.56
868.052	81.6
868.354	80.19
868.655	76.9
868.957	78.12
869.258	83.31
869.56	81.48
869.861	87.4
870.162	83.09
870.463	81.86
870.765	81.94
871.066	80.32
871.367	78.68
871.668	75.77
871.969	74.04
872.27	73.63
872.571	74.66
872.872	75.53
873.173	76.46
873.473	80.13
873.774	79.37
874.075	79.72
874.376	79.42
874.676	81.52
874.977	79.91
875.277	82.23
875.578	78.48
875.878	81.22
876.179	77.28
876.479	77.83
876.78	76.52
877.08	75.73
877.38	78.3
877.68	81.38
877.981	80.26
878.281	83.93
878.581	80.15
