Data from MVZ_BU26842_Reflection_00015.txt Node
Date: Tue Nov 19 12:18:41 EST 2019
User: vgr7
Spectrometer: USB2G7710
Scans to average: 3
Trigger mode: 4
Integration Time (sec): 2.000000E-2
Electric dark correction enabled: true
Boxcar width: 10
XAxis mode: Wavelengths
Number of Pixels in Spectrum: 2048
>>>>>Begin Spectral Data<<<<<
177.721	134.31
178.105	711.11
178.488	-1108.33
178.871	-70.37
179.254	-700
179.636	-3233.33
180.019	44.44
180.402	154.55
180.785	544.44
181.168	-143.59
181.55	-139.58
181.933	-81.16
182.316	-42.86
182.698	-91.86
183.081	-95.65
183.463	-215.79
183.846	168.97
184.228	552.38
184.611	86.61
184.993	63.89
185.376	24.37
185.758	10.63
186.14	42.86
186.522	27.15
186.904	29.17
187.287	2.17
187.669	-7.5
188.051	-27.85
188.433	-41.75
188.815	-76.02
189.197	-43.15
189.579	-82.69
189.961	-60.08
190.342	-42.61
190.724	-53.36
191.106	-51.45
191.488	-85.98
191.869	-153.16
192.251	-172.73
192.633	-133.7
193.014	-209.52
193.396	-318.6
193.777	-167.24
194.159	-50.74
194.54	-67.83
194.922	-88.07
195.303	-81.25
195.684	-157.58
196.065	-80.56
196.447	-30.25
196.828	-30.6
197.209	-13.14
197.59	8.48
197.971	-8.87
198.352	-13.55
198.733	-29.57
199.114	-34.24
199.495	-9.06
199.876	-23.04
200.257	-50.82
200.638	-57.07
201.018	-54.95
201.399	-55.22
201.78	-47.14
202.16	-55.71
202.541	-58.43
202.922	-62.43
203.302	-67.61
203.683	-62.5
204.063	-63.77
204.444	-59.85
204.824	-66.23
205.204	-59.4
205.585	-68.14
205.965	-62.42
206.345	-68.44
206.725	-57.34
207.106	-39.84
207.486	-51.47
207.866	-34.8
208.246	-10.82
208.626	-14.73
209.006	-16.82
209.386	-22.92
209.766	-33.33
210.145	-47.87
210.525	-54.84
210.905	-62.94
211.285	-58.28
211.664	-46.27
212.044	-44.66
212.424	-60.54
212.803	-74.6
213.183	-96.36
213.562	-107.69
213.942	-121.07
214.321	-134.57
214.701	-140.51
215.08	-141.07
215.459	-106.41
215.838	-133.2
216.218	-186.89
216.597	-150
216.976	-188.46
217.355	-177.17
217.734	-205.03
218.113	-188.82
218.492	-138.64
218.871	-108.7
219.25	-91.44
219.629	-122.83
220.008	-98.72
220.387	-90.48
220.766	-49.82
221.144	-69.46
221.523	-74.9
221.902	-61.65
222.28	-53.23
222.659	-43.96
223.037	-69.41
223.416	-67.14
223.794	-47.62
224.173	-39.51
224.551	-36.36
224.929	-28.08
225.308	-20.19
225.686	-18.29
226.064	-22.58
226.442	-18.18
226.821	-12.5
227.199	-15.81
227.577	-17.36
227.955	-16.59
228.333	-16.98
228.711	-19.44
229.089	-15.71
229.467	-12.24
229.845	-11.65
230.222	-8.78
230.6	-7.37
230.978	-3.18
231.356	-3.84
231.733	-3.27
232.111	-4.8
232.488	-7.78
232.866	-6.66
233.243	-6.83
233.621	-5.38
233.998	-1.7
234.376	-3.64
234.753	-1.43
235.13	-0.69
235.508	-0.83
235.885	-1.12
236.262	-2.52
236.639	-2.62
237.016	-3.05
237.393	-1.4
237.77	-1.01
238.147	-0.57
238.524	-0.14
238.901	-1.59
239.278	-1.24
239.655	-1.07
240.032	-0.33
240.409	0.9
240.785	0.46
241.162	0.82
241.539	0.76
241.915	0.48
242.292	1.27
242.668	1.13
243.045	2.14
243.421	2.46
243.798	2.61
244.174	3.11
244.551	3.2
244.927	3.58
245.303	3.17
245.679	3.19
246.056	2.96
246.432	3.11
246.808	3.52
247.184	3.76
247.56	3.69
247.936	3.52
248.312	3.66
248.688	3.8
249.064	3.63
249.44	3.6
249.815	3.73
250.191	3.58
250.567	3.61
250.943	3.19
251.318	3.14
251.694	3.38
252.069	3.41
252.445	3.48
252.82	3.5
253.196	3.76
253.571	3.9
253.947	4.27
254.322	4.11
254.697	4.39
255.073	4.03
255.448	3.99
255.823	4.41
256.198	4.09
256.573	4.3
256.948	4.45
257.323	4.46
257.698	4.2
258.073	4.11
258.448	4.04
258.823	3.82
259.198	3.8
259.573	3.52
259.948	3.37
260.322	3.33
260.697	3.19
261.072	3.17
261.446	3.11
261.821	2.95
262.195	2.97
262.57	2.76
262.944	2.87
263.319	2.89
263.693	2.65
264.067	2.68
264.442	2.58
264.816	2.43
265.19	2.28
265.564	2.45
265.938	2.39
266.313	2.29
266.687	2.44
267.061	2.64
267.435	2.91
267.809	2.97
268.183	3.01
268.556	2.91
268.93	3.02
269.304	3.05
269.678	3.15
270.051	3.21
270.425	3.39
270.799	3.1
271.172	3.34
271.546	3.49
271.919	3.61
272.293	3.62
272.666	3.59
273.04	3.76
273.413	3.7
273.787	3.75
274.16	3.81
274.533	3.89
274.906	3.74
275.279	3.64
275.653	3.6
276.026	3.74
276.399	3.89
276.772	3.92
277.145	3.8
277.518	3.61
277.891	3.4
278.263	3.34
278.636	3.67
279.009	3.54
279.382	3.46
279.755	3.22
280.127	3.18
280.5	3.19
280.872	3.14
281.245	3.21
281.617	3.24
281.99	3.33
282.362	3.13
282.735	3.17
283.107	3.21
283.479	3.19
283.852	3.17
284.224	3.25
284.596	3.15
284.968	3.13
285.34	3.11
285.713	3.22
286.085	3.14
286.457	3.07
286.829	2.98
287.201	3
287.572	3.2
287.944	3.22
288.316	3.27
288.688	3.33
289.06	3.29
289.431	3.39
289.803	3.33
290.175	3.38
290.546	3.42
290.918	3.34
291.289	3.31
291.661	3.15
292.032	3.1
292.403	3.23
292.775	3.36
293.146	3.57
293.517	3.68
293.889	3.8
294.26	3.96
294.631	4.11
295.002	4.13
295.373	4.08
295.744	4.16
296.115	4.22
296.486	4.08
296.857	4.15
297.228	3.92
297.599	3.81
297.97	3.94
298.34	3.99
298.711	4.08
299.082	4.16
299.452	4.25
299.823	4.23
300.194	4.22
300.564	4.09
300.935	4.21
301.305	4.11
301.676	4.12
302.046	3.91
302.416	3.76
302.787	3.81
303.157	3.64
303.527	3.67
303.897	3.7
304.267	3.98
304.637	3.94
305.008	4.09
305.378	4.35
305.748	4.27
306.117	4.46
306.487	4.51
306.857	4.58
307.227	4.66
307.597	4.74
307.967	4.72
308.336	4.84
308.706	4.75
309.076	4.91
309.445	4.97
309.815	5.05
310.184	5.02
310.554	5.02
310.923	5.2
311.293	5.17
311.662	5.16
312.031	5.07
312.401	5.11
312.77	5.08
313.139	4.93
313.508	5.09
313.877	4.89
314.246	4.83
314.616	4.93
314.985	4.83
315.353	4.8
315.722	4.92
316.091	5
316.46	4.93
316.829	4.91
317.198	4.94
317.567	5.13
317.935	5.26
318.304	5.29
318.672	5.39
319.041	5.45
319.41	5.65
319.778	5.83
320.147	5.9
320.515	6.04
320.883	6.18
321.252	6.24
321.62	6.25
321.988	6.26
322.357	6.22
322.725	6.37
323.093	6.47
323.461	6.49
323.829	6.73
324.197	6.9
324.565	6.82
324.933	6.89
325.301	6.6
325.669	6.64
326.037	6.86
326.405	6.92
326.772	6.95
327.14	6.88
327.508	6.79
327.875	6.87
328.243	6.94
328.61	7.02
328.978	6.84
329.346	7.04
329.713	7.25
330.08	7.41
330.448	7.42
330.815	7.43
331.182	7.38
331.55	7.17
331.917	7.16
332.284	7.38
332.651	7.37
333.018	7.56
333.385	7.72
333.752	7.58
334.119	7.42
334.486	7.51
334.853	7.49
335.22	7.38
335.587	7.27
335.954	7.26
336.32	7.42
336.687	7.55
337.054	7.48
337.42	7.46
337.787	7.34
338.153	7.4
338.52	7.6
338.886	7.59
339.253	7.58
339.619	7.65
339.986	7.51
340.352	7.49
340.718	7.64
341.084	7.66
341.451	7.62
341.817	7.74
342.183	7.63
342.549	7.76
342.915	7.9
343.281	8
343.647	7.99
344.013	7.94
344.379	7.93
344.745	8.06
345.11	8
345.476	8.14
345.842	8.05
346.208	8.06
346.573	7.99
346.939	7.94
347.304	7.98
347.67	8.12
348.035	8.06
348.401	7.99
348.766	7.97
349.132	8.08
349.497	8.16
349.862	8.22
350.228	8.26
350.593	8.31
350.958	8.33
351.323	8.45
351.688	8.46
352.053	8.5
352.418	8.45
352.783	8.46
353.148	8.44
353.513	8.41
353.878	8.32
354.243	8.44
354.608	8.57
354.972	8.54
355.337	8.5
355.702	8.54
356.066	8.68
356.431	8.79
356.795	8.69
357.16	8.69
357.524	8.71
357.889	8.65
358.253	8.63
358.618	8.59
358.982	8.51
359.346	8.45
359.71	8.47
360.075	8.49
360.439	8.54
360.803	8.55
361.167	8.6
361.531	8.63
361.895	8.65
362.259	8.67
362.623	8.63
362.987	8.58
363.351	8.55
363.714	8.5
364.078	8.38
364.442	8.42
364.806	8.33
365.169	8.32
365.533	8.39
365.896	8.38
366.26	8.3
366.623	8.32
366.987	8.37
367.35	8.32
367.714	8.22
368.077	8.17
368.44	8.12
368.803	8.09
369.167	7.89
369.53	7.86
369.893	7.8
370.256	7.73
370.619	7.7
370.982	7.61
371.345	7.56
371.708	7.51
372.071	7.43
372.434	7.39
372.797	7.33
373.159	7.19
373.522	7.15
373.885	7.18
374.247	7.14
374.61	7.04
374.973	7.01
375.335	6.98
375.698	6.88
376.06	6.81
376.423	6.78
376.785	6.89
377.147	6.83
377.51	6.79
377.872	6.85
378.234	6.82
378.596	6.9
378.958	6.85
379.321	6.82
379.683	6.81
380.045	6.79
380.407	6.73
380.769	6.64
381.13	6.64
381.492	6.59
381.854	6.51
382.216	6.51
382.578	6.51
382.939	6.51
383.301	6.51
383.663	6.46
384.024	6.41
384.386	6.39
384.747	6.35
385.109	6.29
385.47	6.25
385.832	6.17
386.193	6.13
386.554	6.06
386.916	6.03
387.277	6
387.638	5.94
387.999	5.91
388.36	5.91
388.721	5.85
389.082	5.81
389.443	5.81
389.804	5.8
390.165	5.7
390.526	5.67
390.887	5.71
391.248	5.72
391.609	5.74
391.969	5.7
392.33	5.65
392.691	5.62
393.051	5.58
393.412	5.6
393.772	5.56
394.133	5.52
394.493	5.47
394.854	5.41
395.214	5.45
395.574	5.43
395.935	5.36
396.295	5.35
396.655	5.3
397.015	5.23
397.376	5.16
397.736	5.13
398.096	5.08
398.456	5.02
398.816	4.94
399.176	4.82
399.535	4.75
399.895	4.72
400.255	4.7
400.615	4.67
400.975	4.68
401.334	4.64
401.694	4.68
402.054	4.62
402.413	4.62
402.773	4.53
403.132	4.49
403.492	4.5
403.851	4.46
404.211	4.43
404.57	4.46
404.929	4.45
405.288	4.45
405.648	4.45
406.007	4.42
406.366	4.41
406.725	4.44
407.084	4.45
407.443	4.47
407.802	4.45
408.161	4.44
408.52	4.39
408.879	4.39
409.238	4.36
409.596	4.38
409.955	4.37
410.314	4.39
410.673	4.37
411.031	4.4
411.39	4.41
411.748	4.41
412.107	4.37
412.465	4.36
412.824	4.35
413.182	4.29
413.54	4.3
413.899	4.32
414.257	4.31
414.615	4.28
414.974	4.25
415.332	4.28
415.69	4.25
416.048	4.25
416.406	4.2
416.764	4.18
417.122	4.16
417.48	4.15
417.838	4.14
418.195	4.13
418.553	4.08
418.911	4.07
419.269	4.08
419.626	4.08
419.984	4.07
420.342	4.04
420.699	4.05
421.057	4.04
421.414	4.02
421.772	4
422.129	4
422.486	3.99
422.844	3.97
423.201	3.98
423.558	3.95
423.915	3.97
424.273	3.97
424.63	3.96
424.987	3.93
425.344	3.93
425.701	3.93
426.058	3.94
426.415	3.93
426.772	3.89
427.128	3.88
427.485	3.87
427.842	3.89
428.199	3.89
428.555	3.86
428.912	3.85
429.269	3.84
429.625	3.83
429.982	3.82
430.338	3.82
430.695	3.79
431.051	3.8
431.407	3.79
431.764	3.76
432.12	3.76
432.476	3.79
432.832	3.76
433.189	3.73
433.545	3.72
433.901	3.72
434.257	3.75
434.613	3.74
434.969	3.74
435.325	3.73
435.681	3.72
436.036	3.76
436.392	3.75
436.748	3.74
437.104	3.72
437.459	3.73
437.815	3.72
438.171	3.71
438.526	3.73
438.882	3.71
439.237	3.72
439.593	3.74
439.948	3.74
440.304	3.75
440.659	3.77
441.014	3.77
441.369	3.75
441.725	3.74
442.08	3.73
442.435	3.74
442.79	3.73
443.145	3.73
443.5	3.7
443.855	3.69
444.21	3.7
444.565	3.71
444.92	3.71
445.275	3.7
445.629	3.69
445.984	3.68
446.339	3.69
446.693	3.69
447.048	3.67
447.403	3.64
447.757	3.61
448.112	3.61
448.466	3.61
448.82	3.61
449.175	3.6
449.529	3.61
449.883	3.6
450.238	3.6
450.592	3.58
450.946	3.57
451.3	3.56
451.654	3.55
452.008	3.54
452.362	3.53
452.716	3.53
453.07	3.52
453.424	3.49
453.778	3.49
454.132	3.47
454.486	3.46
454.839	3.48
455.193	3.52
455.547	3.51
455.9	3.51
456.254	3.5
456.607	3.52
456.961	3.54
457.314	3.53
457.668	3.54
458.021	3.53
458.375	3.54
458.728	3.56
459.081	3.57
459.434	3.57
459.787	3.6
460.141	3.59
460.494	3.63
460.847	3.63
461.2	3.63
461.553	3.65
461.906	3.67
462.259	3.66
462.611	3.67
462.964	3.68
463.317	3.68
463.67	3.73
464.022	3.72
464.375	3.71
464.728	3.73
465.08	3.71
465.433	3.75
465.785	3.77
466.138	3.81
466.49	3.82
466.843	3.84
467.195	3.84
467.547	3.87
467.899	3.89
468.252	3.91
468.604	3.94
468.956	3.96
469.308	3.96
469.66	3.99
470.012	4
470.364	4
470.716	4.04
471.068	4.03
471.42	4.06
471.772	4.07
472.123	4.11
472.475	4.13
472.827	4.14
473.178	4.16
473.53	4.14
473.882	4.14
474.233	4.13
474.585	4.12
474.936	4.15
475.288	4.13
475.639	4.16
475.99	4.14
476.342	4.14
476.693	4.15
477.044	4.13
477.395	4.12
477.746	4.11
478.097	4.1
478.448	4.09
478.8	4.05
479.15	4.04
479.501	4.01
479.852	4
480.203	3.98
480.554	3.99
480.905	3.98
481.255	3.98
481.606	3.99
481.957	3.99
482.307	3.97
482.658	3.97
483.009	3.96
483.359	3.96
483.709	3.94
484.06	3.94
484.41	3.95
484.761	3.94
485.111	3.93
485.461	3.92
485.811	3.91
486.162	3.92
486.512	3.92
486.862	3.93
487.212	3.92
487.562	3.92
487.912	3.92
488.262	3.92
488.612	3.91
488.961	3.91
489.311	3.9
489.661	3.91
490.011	3.89
490.36	3.9
490.71	3.91
491.06	3.92
491.409	3.92
491.759	3.93
492.108	3.94
492.458	3.94
492.807	3.96
493.157	3.99
493.506	4
493.855	4.01
494.204	4
494.554	4.04
494.903	4.06
495.252	4.07
495.601	4.09
495.95	4.13
496.299	4.18
496.648	4.2
496.997	4.22
497.346	4.29
497.695	4.34
498.043	4.37
498.392	4.42
498.741	4.48
499.09	4.53
499.438	4.6
499.787	4.67
500.135	4.74
500.484	4.81
500.832	4.86
501.181	4.97
501.529	5.05
501.878	5.1
502.226	5.19
502.574	5.31
502.923	5.38
503.271	5.49
503.619	5.58
503.967	5.69
504.315	5.8
504.663	5.91
505.011	6.01
505.359	6.14
505.707	6.25
506.055	6.37
506.403	6.49
506.751	6.62
507.098	6.74
507.446	6.86
507.794	7.01
508.141	7.14
508.489	7.26
508.837	7.4
509.184	7.57
509.531	7.71
509.879	7.83
510.226	7.99
510.574	8.16
510.921	8.29
511.268	8.44
511.616	8.59
511.963	8.74
512.31	8.92
512.657	9.08
513.004	9.25
513.351	9.45
513.698	9.62
514.045	9.84
514.392	10.05
514.739	10.25
515.086	10.44
515.432	10.66
515.779	10.87
516.126	11.1
516.473	11.31
516.819	11.52
517.166	11.75
517.512	11.95
517.859	12.09
518.205	12.26
518.552	12.43
518.898	12.62
519.245	12.8
519.591	12.98
519.937	13.17
520.283	13.35
520.629	13.53
520.976	13.76
521.322	13.97
521.668	14.17
522.014	14.4
522.36	14.66
522.706	14.88
523.052	15.15
523.398	15.37
523.743	15.63
524.089	15.87
524.435	16.09
524.781	16.35
525.126	16.56
525.472	16.8
525.817	17
526.163	17.17
526.509	17.35
526.854	17.51
527.199	17.67
527.545	17.83
527.89	17.99
528.235	18.15
528.581	18.3
528.926	18.49
529.271	18.66
529.616	18.82
529.961	19.01
530.306	19.18
530.651	19.39
530.996	19.59
531.341	19.81
531.686	20.04
532.031	20.26
532.376	20.51
532.721	20.73
533.065	20.96
533.41	21.23
533.755	21.46
534.099	21.74
534.444	21.99
534.788	22.26
535.133	22.51
535.477	22.76
535.822	23.03
536.166	23.3
536.51	23.62
536.855	23.91
537.199	24.21
537.543	24.57
537.887	24.91
538.231	25.22
538.576	25.55
538.92	25.82
539.264	26.13
539.608	26.41
539.951	26.71
540.295	27
540.639	27.23
540.983	27.45
541.327	27.69
541.671	27.91
542.014	28.17
542.358	28.39
542.701	28.6
543.045	28.83
543.389	29.06
543.732	29.25
544.075	29.52
544.419	29.74
544.762	29.94
545.105	30.15
545.449	30.41
545.792	30.65
546.135	30.95
546.478	31.21
546.821	31.49
547.165	31.74
547.508	32.03
547.851	32.31
548.194	32.62
548.536	32.89
548.879	33.2
549.222	33.43
549.565	33.7
549.908	33.96
550.25	34.24
550.593	34.53
550.936	34.79
551.278	35.01
551.621	35.26
551.963	35.52
552.306	35.78
552.648	36
552.991	36.19
553.333	36.4
553.675	36.67
554.017	36.9
554.36	37.05
554.702	37.21
555.044	37.46
555.386	37.67
555.728	37.84
556.07	38
556.412	38.2
556.754	38.4
557.096	38.7
557.438	38.89
557.78	39.09
558.121	39.31
558.463	39.55
558.805	39.75
559.147	40.01
559.488	40.21
559.83	40.46
560.171	40.66
560.513	40.85
560.854	40.94
561.196	41.13
561.537	41.37
561.878	41.5
562.22	41.69
562.561	41.84
562.902	41.97
563.243	42.13
563.584	42.3
563.925	42.41
564.266	42.42
564.607	42.58
564.948	42.65
565.289	42.78
565.63	42.93
565.971	42.99
566.312	43.02
566.653	43.1
566.993	43.13
567.334	43.29
567.675	43.46
568.015	43.62
568.356	43.71
568.696	43.8
569.037	43.94
569.377	44.07
569.718	44.15
570.058	44.3
570.398	44.37
570.739	44.4
571.079	44.59
571.419	44.77
571.759	44.85
572.099	44.95
572.439	45.06
572.779	45.07
573.119	45.21
573.459	45.33
573.799	45.45
574.139	45.56
574.479	45.63
574.819	45.69
575.158	45.77
575.498	45.82
575.838	45.91
576.177	45.95
576.517	45.98
576.856	46.03
577.196	46.11
577.535	46.25
577.875	46.43
578.214	46.46
578.553	46.52
578.893	46.54
579.232	46.63
579.571	46.7
579.91	46.8
580.25	46.88
580.589	46.99
580.928	47.09
581.267	47.15
581.606	47.16
581.945	47.17
582.283	47.24
582.622	47.37
582.961	47.46
583.3	47.58
583.639	47.64
583.977	47.77
584.316	47.87
584.654	47.98
584.993	48.02
585.332	48.1
585.67	48.17
586.008	48.35
586.347	48.44
586.685	48.4
587.024	48.5
587.362	48.61
587.7	48.71
588.038	48.8
588.376	48.95
588.715	49.03
589.053	49.11
589.391	49.21
589.729	49.3
590.067	49.37
590.404	49.43
590.742	49.45
591.08	49.53
591.418	49.58
591.756	49.63
592.093	49.64
592.431	49.66
592.769	49.77
593.106	49.78
593.444	49.84
593.781	49.96
594.119	49.98
594.456	49.96
594.793	49.96
595.131	49.99
595.468	50.03
595.805	50.11
596.143	50.16
596.48	50.17
596.817	50.2
597.154	50.17
597.491	50.24
597.828	50.32
598.165	50.38
598.502	50.41
598.839	50.44
599.176	50.5
599.512	50.51
599.849	50.55
600.186	50.53
600.523	50.56
600.859	50.58
601.196	50.64
601.532	50.75
601.869	50.81
602.205	50.8
602.542	50.73
602.878	50.83
603.215	50.82
603.551	50.84
603.887	50.8
604.223	50.87
604.56	50.94
604.896	50.96
605.232	51.03
605.568	51.04
605.904	51.1
606.24	51.11
606.576	51.19
606.912	51.18
607.248	51.22
607.583	51.23
607.919	51.28
608.255	51.31
608.591	51.34
608.926	51.3
609.262	51.46
609.597	51.6
609.933	51.55
610.268	51.62
610.604	51.64
610.939	51.72
611.275	51.73
611.61	51.68
611.945	51.71
612.281	51.68
612.616	51.78
612.951	51.83
613.286	51.89
613.621	51.94
613.956	52.06
614.291	52.2
614.626	52.33
614.961	52.32
615.296	52.32
615.631	52.32
615.966	52.4
616.3	52.23
616.635	52.26
616.97	52.3
617.304	52.36
617.639	52.4
617.973	52.4
618.308	52.44
618.642	52.42
618.977	52.53
619.311	52.57
619.646	52.54
619.98	52.48
620.314	52.52
620.648	52.54
620.983	52.53
621.317	52.57
621.651	52.56
621.985	52.64
622.319	52.71
622.653	52.77
622.987	52.83
623.321	52.87
623.655	52.86
623.988	52.93
624.322	53
624.656	53.1
624.99	53.08
625.323	53.08
625.657	53.24
625.99	53.2
626.324	53.26
626.657	53.25
626.991	53.3
627.324	53.33
627.658	53.3
627.991	53.24
628.324	53.08
628.657	53.07
628.991	53.03
629.324	52.99
629.657	52.99
629.99	53.02
630.323	53.08
630.656	53.11
630.989	53.09
631.322	53.08
631.655	53.04
631.987	53.1
632.32	53.09
632.653	52.99
632.986	53.02
633.318	52.99
633.651	52.92
633.984	53.04
634.316	53.06
634.649	53.05
634.981	53.16
635.313	53.3
635.646	53.43
635.978	53.61
636.31	53.66
636.643	53.78
636.975	53.79
637.307	53.8
637.639	53.73
637.971	53.71
638.303	53.71
638.635	53.75
638.967	53.78
639.299	53.88
639.631	53.95
639.963	53.93
640.295	54
640.626	54.08
640.958	54.02
641.29	54.06
641.621	54.06
641.953	53.99
642.285	54.04
642.616	53.9
642.948	53.83
643.279	53.72
643.61	53.62
643.942	53.6
644.273	53.66
644.604	53.69
644.936	53.68
645.267	53.64
645.598	53.69
645.929	53.67
646.26	53.71
646.591	53.7
646.922	53.86
647.253	53.79
647.584	53.79
647.915	53.75
648.245	53.65
648.576	53.79
648.907	53.88
649.238	53.81
649.568	53.93
649.899	53.92
650.229	53.99
650.56	54.02
650.89	53.99
651.221	54
651.551	54.08
651.882	54.13
652.212	54.18
652.542	54.23
652.872	54.24
653.203	54.23
653.533	54.24
653.863	54.15
654.193	54.25
654.523	54.27
654.853	54.31
655.183	54.43
655.513	54.43
655.843	54.44
656.172	54.61
656.502	54.55
656.832	54.66
657.162	54.72
657.491	54.74
657.821	54.75
658.15	54.76
658.48	54.73
658.809	54.75
659.139	54.69
659.468	54.65
659.798	54.68
660.127	54.69
660.456	54.67
660.785	54.57
661.115	54.58
661.444	54.62
661.773	54.57
662.102	54.54
662.431	54.44
662.76	54.42
663.089	54.27
663.418	54.27
663.747	54.22
664.076	54.28
664.404	54.23
664.733	54.27
665.062	54.24
665.39	54.11
665.719	54.1
666.048	54.18
666.376	54.16
666.705	54.22
667.033	54.19
667.362	54.29
667.69	54.55
668.018	54.51
668.347	54.51
668.675	54.5
669.003	54.53
669.331	54.56
669.659	54.66
669.987	54.72
670.315	54.81
670.643	54.79
670.971	54.81
671.299	54.89
671.627	54.94
671.955	54.93
672.283	55.08
672.61	55.12
672.938	55.06
673.266	55.04
673.593	55.04
673.921	55
674.249	55.05
674.576	54.84
674.904	54.81
675.231	54.96
675.558	55.18
675.886	55.19
676.213	55.26
676.54	55.27
676.867	55.45
677.195	55.43
677.522	55.46
677.849	55.51
678.176	55.61
678.503	55.45
678.83	55.47
679.157	55.46
679.484	55.44
679.81	55.64
680.137	55.67
680.464	55.75
680.791	55.87
681.117	55.78
681.444	55.89
681.771	55.93
682.097	55.87
682.424	55.85
682.75	55.84
683.077	55.75
683.403	55.7
683.729	55.6
684.056	55.54
684.382	55.35
684.708	55.46
685.034	55.37
685.36	55.44
685.686	55.44
686.012	55.52
686.339	55.52
686.664	55.49
686.99	55.55
687.316	55.27
687.642	55.19
687.968	55.24
688.294	55.34
688.619	55.33
688.945	55.31
689.271	55.22
689.596	55.35
689.922	55.49
690.247	55.44
690.573	55.43
690.898	55.61
691.224	55.71
691.549	55.55
691.874	55.72
692.2	55.76
692.525	55.83
692.85	55.71
693.175	55.87
693.5	55.71
693.825	55.63
694.15	55.87
694.475	55.93
694.8	55.96
695.125	55.84
695.45	55.79
695.775	55.8
696.099	55.8
696.424	55.73
696.749	55.9
697.073	55.88
697.398	55.88
697.723	55.89
698.047	55.92
698.372	55.9
698.696	55.78
699.02	55.82
699.345	55.83
699.669	55.83
699.993	55.69
700.318	55.72
700.642	55.65
700.966	55.49
701.29	55.36
701.614	55.28
701.938	55.21
702.262	55.09
702.586	55.07
702.91	55.11
703.234	55.03
703.557	54.72
703.881	54.7
704.205	54.59
704.529	54.44
704.852	54.43
705.176	54.51
705.499	54.64
705.823	54.65
706.146	54.69
706.47	54.66
706.793	54.81
707.117	54.94
707.44	54.97
707.763	55.21
708.086	55.42
708.409	55.45
708.733	55.44
709.056	55.83
709.379	55.93
709.702	55.83
710.025	55.94
710.348	55.91
710.671	56.11
710.993	56.2
711.316	56.17
711.639	56.13
711.962	56.11
712.284	56.13
712.607	56.08
712.93	55.99
713.252	56.15
713.575	56.16
713.897	55.94
714.22	56.13
714.542	56.09
714.864	56.09
715.187	56.19
715.509	56.19
715.831	55.97
716.153	55.8
716.475	55.91
716.798	55.89
717.12	56
717.442	55.96
717.764	56
718.085	56.04
718.407	56.17
718.729	55.89
719.051	55.62
719.373	55.71
719.695	55.77
720.016	55.76
720.338	55.54
720.659	55.69
720.981	55.69
721.302	55.8
721.624	55.8
721.945	55.66
722.267	55.75
722.588	55.96
722.909	56.3
723.231	56.23
723.552	56.11
723.873	56.28
724.194	56.19
724.515	56.19
724.836	56.31
725.157	56.07
725.478	56.37
725.799	56.47
726.12	56.47
726.441	56.35
726.762	56.28
727.083	56.26
727.403	56.18
727.724	56.16
728.045	56.09
728.365	55.79
728.686	55.96
729.006	55.89
729.327	55.76
729.647	55.75
729.967	55.65
730.288	55.85
730.608	55.79
730.928	55.92
731.249	55.86
731.569	55.79
731.889	56.08
732.209	55.88
732.529	55.84
732.849	55.75
733.169	56.06
733.489	56.02
733.809	56.29
734.129	56.55
734.448	56.38
734.768	56.54
735.088	56.62
735.408	56.57
735.727	56.54
736.047	56.57
736.366	56.56
736.686	56.69
737.005	56.56
737.325	56.45
737.644	56.31
737.963	56.05
738.283	56.09
738.602	55.8
738.921	55.87
739.24	56
739.56	55.93
739.879	56.03
740.198	56.04
740.517	56.37
740.836	56.01
741.155	56.2
741.473	56.07
741.792	56.35
742.111	56.43
742.43	56.85
742.748	56.81
743.067	56.99
743.386	56.79
743.704	56.63
744.023	56.95
744.341	57.1
744.66	57.44
744.978	57.4
745.297	57.7
745.615	57.49
745.933	57.23
746.252	57.56
746.57	57.16
746.888	57.48
747.206	56.95
747.524	57.32
747.842	57.23
748.16	56.64
748.478	56.48
748.796	56.36
749.114	56.23
749.432	56.29
749.749	55.89
750.067	56.13
750.385	56.45
750.703	56.37
751.02	56.2
751.338	55.94
751.655	55.96
751.973	56.04
752.29	56.24
752.608	56.31
752.925	56.21
753.242	56.14
753.56	55.97
753.877	56
754.194	55.74
754.511	55.88
754.828	56.31
755.145	56.79
755.462	56.69
755.779	56.35
756.096	56.32
756.413	56.26
756.73	56.45
757.047	56.43
757.364	56.13
757.68	56.01
757.997	56.2
758.314	56.36
758.63	55.98
758.947	56.13
759.264	56.17
759.58	56.09
759.896	56.43
760.213	56.55
760.529	56.73
760.846	56.87
761.162	56.58
761.478	56.96
761.794	56.76
762.11	57.18
762.426	57.52
762.743	57.37
763.059	57.49
763.375	57.2
763.69	57.25
764.006	57.08
764.322	57.3
764.638	57.32
764.954	57.26
765.27	57.47
765.585	57.22
765.901	56.93
766.216	56.83
766.532	56.54
766.848	56.51
767.163	56.47
767.478	56.37
767.794	56.81
768.109	56.31
768.424	56.43
768.74	56.12
769.055	56.27
769.37	56.63
769.685	56.62
770	56.76
770.315	56.8
770.63	57.16
770.945	57.07
771.26	56.94
771.575	56.82
771.89	57.09
772.205	57.75
772.52	58.49
772.834	59.01
773.149	58.95
773.464	58.42
773.778	58.33
774.093	58.68
774.407	58.13
774.722	58.45
775.036	58.23
775.351	58.43
775.665	58.48
775.979	58.19
776.293	58.78
776.608	58.67
776.922	58.58
777.236	58.93
777.55	58.94
777.864	59.09
778.178	58.88
778.492	58.69
778.806	58.29
779.12	57.71
779.434	57.14
779.747	57.85
780.061	58.53
780.375	58.69
780.689	58.22
781.002	58.8
781.316	58.48
781.629	58.79
781.943	58.6
782.256	58.19
782.57	57.8
782.883	57.3
783.196	57.34
783.51	57.5
783.823	56.71
784.136	56.27
784.449	56.39
784.762	56.74
785.075	56.74
785.388	56.95
785.701	57.61
786.014	57.94
786.327	57.53
786.64	57.42
786.953	57.21
787.266	57.64
787.578	57.71
787.891	58.19
788.204	57.82
788.516	58.08
788.829	58.01
789.141	58.8
789.454	58.84
789.766	58.66
790.079	58.52
790.391	59.21
790.703	59.65
791.016	59.44
791.328	59.65
791.64	59.35
791.952	59.77
792.264	59.68
792.576	59.43
792.888	59.19
793.2	59.33
793.512	59.32
793.824	59.8
794.136	59.65
794.448	59.89
794.76	60.11
795.071	60.12
795.383	60.62
795.695	60.68
796.006	60.73
796.318	61.25
796.629	61.66
796.941	61.58
797.252	61.55
797.564	62.11
797.875	61.39
798.186	61.42
798.497	60.83
798.809	60.75
799.12	61.29
799.431	61.28
799.742	61.35
800.053	62.07
800.364	60.86
800.675	60.19
800.986	59.34
801.297	59.26
801.608	59.06
801.918	58.06
802.229	57.58
802.54	56.87
802.851	56.75
803.161	55.99
803.472	55.42
803.782	55.82
804.093	55.1
804.403	55.59
804.714	56.04
805.024	56.13
805.334	56.12
805.645	56.23
805.955	57.05
806.265	57
806.575	56.3
806.885	56.7
807.195	57.63
807.505	58.19
807.815	58.06
808.125	57.72
808.435	57.76
808.745	58.08
809.055	58.64
809.365	58.72
809.674	59.14
809.984	59.95
810.294	59.27
810.603	59.63
810.913	58.92
811.222	58.71
811.532	59.07
811.841	58.8
812.151	57.95
812.46	57.91
812.769	57.15
813.079	58
813.388	57.57
813.697	56.87
814.006	56.53
814.315	56.01
814.624	56.33
814.933	56.52
815.242	55.37
815.551	55.21
815.86	54.59
816.169	55.22
816.478	55.1
816.786	55.65
817.095	56.17
817.404	57.11
817.712	57.78
818.021	57.62
818.33	58.09
818.638	58.16
818.947	57.62
819.255	58.37
819.563	57.69
819.872	58.55
820.18	58.78
820.488	58.67
820.796	59.12
821.105	59.39
821.413	59.69
821.721	60.14
822.029	60.29
822.337	60.12
822.645	59.97
822.953	60.09
823.26	60.14
823.568	60.16
823.876	60.09
824.184	60.02
824.491	60.08
824.799	60.26
825.107	60.39
825.414	60.52
825.722	60.39
826.029	60.66
826.337	60.56
826.644	60.75
826.951	60.73
827.259	60.6
827.566	60.61
827.873	60.52
828.18	60.53
828.488	60.31
828.795	60.73
829.102	60.66
829.409	60.47
829.716	60.56
830.023	59.93
830.329	59.83
830.636	59.48
830.943	60.03
831.25	59.63
831.557	59.08
831.863	59.2
832.17	59.37
832.476	59.38
832.783	59.19
833.089	58.7
833.396	59.16
833.702	59.27
834.009	59.17
834.315	59.11
834.621	58.9
834.928	59.5
835.234	59.99
835.54	60.13
835.846	60.14
836.152	59.15
836.458	60.53
836.764	60.76
837.07	61.46
837.376	61
837.682	61.26
837.988	62.52
838.293	62.48
838.599	62.87
838.905	62.43
839.211	62.61
839.516	62.94
839.822	63.67
840.127	63.34
840.433	62.39
840.738	62.16
841.044	61.99
841.349	60.64
841.654	60.23
841.959	60.4
842.265	60.28
842.57	62.21
842.875	60.74
843.18	61.14
843.485	60.28
843.79	60.35
844.095	60.25
844.4	60.15
844.705	59.25
845.01	58.12
845.315	58.6
845.619	59.28
845.924	60.2
846.229	60.11
846.533	60.78
846.838	60.79
847.142	61.96
847.447	62.57
847.751	63.18
848.056	64.49
848.36	62.75
848.664	62.74
848.969	61.17
849.273	62.12
849.577	62.53
849.881	65.32
850.185	62.91
850.489	63.99
850.794	61.74
851.097	62.61
851.401	61.9
851.705	60.92
852.009	59.51
852.313	57.61
852.617	57.57
852.92	58.35
853.224	59.05
853.528	58.44
853.831	59.84
854.135	61.47
854.438	58.26
854.742	59.06
855.045	59.5
855.349	59.29
855.652	59.82
855.955	59.21
856.259	58.48
856.562	57.33
856.865	54.66
857.168	56.2
857.471	55.33
857.774	56.95
858.077	57.08
858.38	57.31
858.683	58.66
858.986	57.6
859.289	56.48
859.592	58.84
859.894	57.21
860.197	54.21
860.5	53.72
860.802	53.45
861.105	55.66
861.407	56.01
861.71	56.81
862.012	56.02
862.315	54.23
862.617	51.18
862.919	52.84
863.222	52.39
863.524	50.64
863.826	49.63
864.128	48.33
864.43	48.97
864.732	48.41
865.034	48.35
865.336	46.93
865.638	45.73
865.94	42.92
866.242	43.11
866.544	43.93
866.846	43.33
867.147	45.33
867.449	43.85
867.751	41.29
868.052	41.41
868.354	42.04
868.655	39.89
868.957	39.97
869.258	41.82
869.56	44.3
869.861	43.97
870.162	46.61
870.463	49.01
870.765	48.13
871.066	49.68
871.367	47.98
871.668	52.06
871.969	54.35
872.27	55.78
872.571	59.63
872.872	60.61
873.173	60.15
873.473	59.4
873.774	59.06
874.075	61.6
874.376	61.48
874.676	63.47
874.977	67.4
875.277	68.96
875.578	66.45
875.878	65.07
876.179	66.65
876.479	66.09
876.78	64.89
877.08	66.9
877.38	66.92
877.68	68.72
877.981	64.82
878.281	64.98
878.581	66.27
