Data from MVZ_BU8940_Reflection_00015.txt Node
Date: Tue Nov 19 12:16:45 EST 2019
User: vgr7
Spectrometer: USB2G7710
Scans to average: 3
Trigger mode: 4
Integration Time (sec): 2.000000E-2
Electric dark correction enabled: true
Boxcar width: 10
XAxis mode: Wavelengths
Number of Pixels in Spectrum: 2048
>>>>>Begin Spectral Data<<<<<
177.721	239.41
178.105	77.27
178.488	308.12
178.871	-110.71
179.254	-26.83
179.636	483.93
180.019	-61.85
180.402	720
180.785	-2740
181.168	491.09
181.55	-159.07
181.933	-30.26
182.316	-19.53
182.698	-25.89
183.081	-15.44
183.463	-0.72
183.846	-25.57
184.228	-6.43
184.611	2.6
184.993	-24.37
185.376	54.94
185.758	61.76
186.14	68.22
186.522	150.25
186.904	20
187.287	93.96
187.669	52.54
188.051	130.88
188.433	214.39
188.815	238.41
189.197	269.38
189.579	2154.05
189.961	-183.29
190.342	-188.59
190.724	185.56
191.106	2047.37
191.488	-555.17
191.869	-7900
192.251	-746.15
192.633	-574.42
193.014	57.22
193.396	-23.78
193.777	45.95
194.159	-229.11
194.54	-175.59
194.922	18.16
195.303	-68.14
195.684	-31.15
196.065	-26.48
196.447	-53.85
196.828	11.36
197.209	23.77
197.59	-7.01
197.971	49.71
198.352	114.37
198.733	196.89
199.114	230.74
199.495	-996.39
199.876	1070.87
200.257	717.83
200.638	442.76
201.018	362.46
201.399	-746.15
201.78	-435.89
202.16	-667.57
202.541	1690.16
202.922	-585.39
203.302	-230.74
203.683	-154.55
204.063	-36.84
204.444	-28.71
204.824	-311.76
205.204	-2130.77
205.585	-448.39
205.965	489.83
206.345	165.87
206.725	119.8
207.106	97.21
207.486	-230.43
207.866	1203.45
208.246	284.1
208.626	272.41
209.006	85.1
209.386	191.63
209.766	1357.14
210.145	-12614.29
210.525	2042.86
210.905	366.09
211.285	165.46
211.664	197.25
212.044	110.51
212.424	98.55
212.803	56.15
213.183	136.07
213.562	130.77
213.942	98.59
214.321	95.8
214.701	124.29
215.08	105.38
215.459	101.61
215.838	112.32
216.218	110.77
216.597	106.95
216.976	414.72
217.355	147.35
217.734	-548.35
218.113	-2847.37
218.492	81.9
218.871	-86.05
219.25	751.16
219.629	703.31
220.008	389.1
220.387	817.65
220.766	-254.09
221.144	-184.87
221.523	-171.27
221.902	-133.9
222.28	-214.78
222.659	-113.06
223.037	-127.39
223.416	-130.64
223.794	-79.69
224.173	-63.07
224.551	-45.48
224.929	-55.73
225.308	-34.26
225.686	-32.62
226.064	-32.06
226.442	-17.12
226.821	-16.43
227.199	-13.44
227.577	-5.02
227.955	-3.76
228.333	-4.55
228.711	-0.58
229.089	7.77
229.467	7.93
229.845	4.18
230.222	3.12
230.6	3.05
230.978	5.63
231.356	7.75
231.733	5.86
232.111	2.29
232.488	-2.16
232.866	-0.45
233.243	-1.43
233.621	1.5
233.998	3.16
234.376	2.38
234.753	3.52
235.13	4.59
235.508	2.55
235.885	2.74
236.262	1.97
236.639	-0.91
237.016	-1.45
237.393	-1.09
237.77	1.53
238.147	2.34
238.524	2.6
238.901	2.72
239.278	2.04
239.655	2.4
240.032	3.05
240.409	4.21
240.785	3.79
241.162	4.02
241.539	3.69
241.915	3.5
242.292	3.1
242.668	3.83
243.045	3.89
243.421	4.57
243.798	4.84
244.174	5
244.551	5.54
244.927	5.01
245.303	4.77
245.679	4.67
246.056	4.81
246.432	4.55
246.808	4.64
247.184	4.77
247.56	4.68
247.936	4.53
248.312	4.81
248.688	4.92
249.064	4.92
249.44	4.81
249.815	4.78
250.191	4.72
250.567	4.43
250.943	4.36
251.318	3.9
251.694	3.76
252.069	3.71
252.445	3.4
252.82	3.79
253.196	3.86
253.571	3.63
253.947	3.39
254.322	3.82
254.697	3.97
255.073	3.96
255.448	3.94
255.823	3.99
256.198	3.58
256.573	3.73
256.948	3.8
257.323	3.88
257.698	3.84
258.073	3.99
258.448	3.92
258.823	3.7
259.198	3.95
259.573	3.69
259.948	3.67
260.322	3.81
260.697	3.76
261.072	3.85
261.446	3.9
261.821	3.88
262.195	3.72
262.57	3.69
262.944	3.48
263.319	3.55
263.693	3.64
264.067	3.66
264.442	3.39
264.816	3.39
265.19	3.32
265.564	3.36
265.938	3.32
266.313	3.21
266.687	3.29
267.061	3.26
267.435	3.67
267.809	3.59
268.183	3.44
268.556	3.23
268.93	3.33
269.304	3.12
269.678	3.19
270.051	3.2
270.425	3.1
270.799	3.29
271.172	3.4
271.546	3.37
271.919	3.23
272.293	3.4
272.666	3.42
273.04	3.39
273.413	3.41
273.787	3.32
274.16	3.34
274.533	3.38
274.906	3.32
275.279	3.26
275.653	3.2
276.026	3.27
276.399	3.29
276.772	3.2
277.145	3.53
277.518	3.51
277.891	3.53
278.263	3.49
278.636	3.55
279.009	3.56
279.382	3.49
279.755	3.62
280.127	3.61
280.5	3.56
280.872	3.77
281.245	3.58
281.617	3.71
281.99	3.7
282.362	3.81
282.735	3.77
283.107	3.63
283.479	3.76
283.852	3.75
284.224	3.98
284.596	3.99
284.968	3.81
285.34	3.78
285.713	3.79
286.085	3.69
286.457	3.68
286.829	3.63
287.201	3.68
287.572	3.7
287.944	3.84
288.316	3.95
288.688	4.01
289.06	4.16
289.431	4.25
289.803	4.29
290.175	4.33
290.546	4.23
290.918	4.23
291.289	4.04
291.661	4.06
292.032	4.03
292.403	3.93
292.775	3.93
293.146	4.01
293.517	3.93
293.889	4.06
294.26	4.11
294.631	4.13
295.002	4.16
295.373	4.2
295.744	4.2
296.115	4.2
296.486	4.22
296.857	4.26
297.228	4.15
297.599	4.15
297.97	4.28
298.34	4.49
298.711	4.59
299.082	4.67
299.452	4.78
299.823	4.8
300.194	4.93
300.564	5.05
300.935	5.22
301.305	5.41
301.676	5.47
302.046	5.46
302.416	5.53
302.787	5.54
303.157	5.44
303.527	5.41
303.897	5.51
304.267	5.35
304.637	5.36
305.008	5.55
305.378	5.72
305.748	5.57
306.117	5.46
306.487	5.48
306.857	5.72
307.227	5.76
307.597	5.82
307.967	5.91
308.336	5.87
308.706	5.82
309.076	5.88
309.445	5.97
309.815	5.95
310.184	5.9
310.554	5.95
310.923	6.02
311.293	6.07
311.662	6.12
312.031	6.23
312.401	6.14
312.77	6.07
313.139	5.97
313.508	6.03
313.877	6.09
314.246	6.12
314.616	6.06
314.985	5.98
315.353	6.09
315.722	5.97
316.091	6.09
316.46	6.04
316.829	6.19
317.198	6.2
317.567	6.46
317.935	6.59
318.304	6.67
318.672	6.83
319.041	6.86
319.41	6.7
319.778	6.69
320.147	6.98
320.515	7.06
320.883	7.13
321.252	7.06
321.62	7.16
321.988	7.25
322.357	7.34
322.725	7.58
323.093	7.41
323.461	7.43
323.829	7.47
324.197	7.48
324.565	7.37
324.933	7.43
325.301	7.19
325.669	7.14
326.037	7.25
326.405	7.39
326.772	7.49
327.14	7.48
327.508	7.66
327.875	7.54
328.243	7.51
328.61	7.49
328.978	7.59
329.346	7.62
329.713	7.63
330.08	7.68
330.448	7.56
330.815	7.58
331.182	7.66
331.55	7.6
331.917	7.66
332.284	7.74
332.651	7.65
333.018	7.76
333.385	7.79
333.752	7.77
334.119	7.84
334.486	7.84
334.853	7.97
335.22	7.82
335.587	7.89
335.954	7.83
336.32	7.87
336.687	7.95
337.054	8.07
337.42	8.16
337.787	8.15
338.153	8.21
338.52	8.4
338.886	8.48
339.253	8.56
339.619	8.6
339.986	8.6
340.352	8.67
340.718	8.74
341.084	8.8
341.451	8.8
341.817	8.69
342.183	8.74
342.549	8.85
342.915	8.99
343.281	9.01
343.647	9.17
344.013	9.26
344.379	9.27
344.745	9.12
345.11	9.08
345.476	9.12
345.842	9.08
346.208	8.97
346.573	8.98
346.939	8.97
347.304	9.03
347.67	8.99
348.035	9.09
348.401	9.1
348.766	9.06
349.132	9.07
349.497	9.12
349.862	9.13
350.228	9.09
350.593	9.11
350.958	9.29
351.323	9.3
351.688	9.26
352.053	9.24
352.418	9.37
352.783	9.36
353.148	9.44
353.513	9.54
353.878	9.59
354.243	9.65
354.608	9.67
354.972	9.78
355.337	9.91
355.702	9.85
356.066	9.84
356.431	9.84
356.795	9.82
357.16	9.82
357.524	9.81
357.889	9.81
358.253	9.72
358.618	9.58
358.982	9.59
359.346	9.65
359.71	9.62
360.075	9.57
360.439	9.58
360.803	9.53
361.167	9.45
361.531	9.48
361.895	9.4
362.259	9.44
362.623	9.33
362.987	9.27
363.351	9.25
363.714	9.31
364.078	9.37
364.442	9.32
364.806	9.38
365.169	9.33
365.533	9.42
365.896	9.43
366.26	9.46
366.623	9.4
366.987	9.35
367.35	9.41
367.714	9.41
368.077	9.35
368.44	9.36
368.803	9.36
369.167	9.25
369.53	9.2
369.893	9.14
370.256	9.11
370.619	9.12
370.982	9.12
371.345	9.02
371.708	8.98
372.071	9
372.434	8.89
372.797	8.88
373.159	8.68
373.522	8.61
373.885	8.61
374.247	8.59
374.61	8.6
374.973	8.54
375.335	8.52
375.698	8.53
376.06	8.48
376.423	8.45
376.785	8.43
377.147	8.36
377.51	8.34
377.872	8.29
378.234	8.27
378.596	8.23
378.958	8.29
379.321	8.25
379.683	8.19
380.045	8.18
380.407	8.14
380.769	8.21
381.13	8.18
381.492	8.06
381.854	8
382.216	7.9
382.578	7.84
382.939	7.81
383.301	7.72
383.663	7.72
384.024	7.73
384.386	7.75
384.747	7.75
385.109	7.71
385.47	7.75
385.832	7.7
386.193	7.65
386.554	7.49
386.916	7.47
387.277	7.43
387.638	7.33
387.999	7.28
388.36	7.23
388.721	7.26
389.082	7.26
389.443	7.28
389.804	7.3
390.165	7.32
390.526	7.26
390.887	7.27
391.248	7.23
391.609	7.21
391.969	7.16
392.33	7.14
392.691	7.1
393.051	7.02
393.412	6.98
393.772	6.94
394.133	6.97
394.493	6.89
394.854	6.86
395.214	6.91
395.574	6.91
395.935	6.86
396.295	6.83
396.655	6.79
397.015	6.74
397.376	6.66
397.736	6.62
398.096	6.57
398.456	6.55
398.816	6.49
399.176	6.41
399.535	6.36
399.895	6.34
400.255	6.31
400.615	6.3
400.975	6.27
401.334	6.25
401.694	6.24
402.054	6.26
402.413	6.3
402.773	6.27
403.132	6.23
403.492	6.17
403.851	6.08
404.211	6.1
404.57	6.09
404.929	6.12
405.288	6.1
405.648	6.11
406.007	6.09
406.366	6.05
406.725	6.08
407.084	6.08
407.443	6.1
407.802	6.1
408.161	6.12
408.52	6.12
408.879	6.13
409.238	6.14
409.596	6.14
409.955	6.07
410.314	6.06
410.673	6.05
411.031	6.05
411.39	6.09
411.748	6.06
412.107	6.04
412.465	5.99
412.824	5.97
413.182	5.98
413.54	5.97
413.899	6.01
414.257	5.98
414.615	5.93
414.974	5.91
415.332	5.91
415.69	5.86
416.048	5.86
416.406	5.84
416.764	5.79
417.122	5.75
417.48	5.75
417.838	5.71
418.195	5.68
418.553	5.68
418.911	5.66
419.269	5.64
419.626	5.61
419.984	5.6
420.342	5.57
420.699	5.54
421.057	5.54
421.414	5.5
421.772	5.47
422.129	5.47
422.486	5.44
422.844	5.41
423.201	5.39
423.558	5.34
423.915	5.31
424.273	5.29
424.63	5.29
424.987	5.27
425.344	5.26
425.701	5.26
426.058	5.25
426.415	5.23
426.772	5.2
427.128	5.2
427.485	5.2
427.842	5.18
428.199	5.19
428.555	5.17
428.912	5.16
429.269	5.16
429.625	5.16
429.982	5.18
430.338	5.19
430.695	5.18
431.051	5.22
431.407	5.25
431.764	5.26
432.12	5.26
432.476	5.27
432.832	5.27
433.189	5.25
433.545	5.24
433.901	5.25
434.257	5.25
434.613	5.25
434.969	5.26
435.325	5.27
435.681	5.25
436.036	5.23
436.392	5.27
436.748	5.29
437.104	5.28
437.459	5.29
437.815	5.29
438.171	5.32
438.526	5.32
438.882	5.29
439.237	5.29
439.593	5.31
439.948	5.28
440.304	5.28
440.659	5.31
441.014	5.32
441.369	5.33
441.725	5.34
442.08	5.35
442.435	5.34
442.79	5.35
443.145	5.36
443.5	5.36
443.855	5.32
444.21	5.31
444.565	5.3
444.92	5.29
445.275	5.28
445.629	5.25
445.984	5.24
446.339	5.24
446.693	5.22
447.048	5.19
447.403	5.19
447.757	5.18
448.112	5.15
448.466	5.13
448.82	5.1
449.175	5.09
449.529	5.06
449.883	5.03
450.238	5.01
450.592	4.99
450.946	5
451.3	5.03
451.654	4.99
452.008	5.01
452.362	4.99
452.716	4.99
453.07	5.01
453.424	4.98
453.778	4.96
454.132	4.98
454.486	4.99
454.839	5.02
455.193	5.04
455.547	5.04
455.9	5.05
456.254	5.04
456.607	5.04
456.961	5.04
457.314	5.06
457.668	5.07
458.021	5.06
458.375	5.06
458.728	5.03
459.081	5.07
459.434	5.06
459.787	5.07
460.141	5.07
460.494	5.07
460.847	5.1
461.2	5.1
461.553	5.1
461.906	5.1
462.259	5.11
462.611	5.11
462.964	5.13
463.317	5.14
463.67	5.17
464.022	5.19
464.375	5.18
464.728	5.19
465.08	5.22
465.433	5.26
465.785	5.28
466.138	5.31
466.49	5.28
466.843	5.32
467.195	5.35
467.547	5.36
467.899	5.4
468.252	5.4
468.604	5.44
468.956	5.47
469.308	5.47
469.66	5.49
470.012	5.49
470.364	5.52
470.716	5.56
471.068	5.56
471.42	5.57
471.772	5.63
472.123	5.66
472.475	5.66
472.827	5.67
473.178	5.68
473.53	5.67
473.882	5.7
474.233	5.67
474.585	5.67
474.936	5.68
475.288	5.66
475.639	5.7
475.99	5.68
476.342	5.68
476.693	5.7
477.044	5.68
477.395	5.68
477.746	5.64
478.097	5.62
478.448	5.62
478.8	5.61
479.15	5.58
479.501	5.55
479.852	5.54
480.203	5.55
480.554	5.53
480.905	5.53
481.255	5.53
481.606	5.52
481.957	5.51
482.307	5.49
482.658	5.49
483.009	5.48
483.359	5.47
483.709	5.45
484.06	5.44
484.41	5.44
484.761	5.44
485.111	5.45
485.461	5.45
485.811	5.45
486.162	5.44
486.512	5.45
486.862	5.46
487.212	5.48
487.562	5.45
487.912	5.46
488.262	5.47
488.612	5.47
488.961	5.48
489.311	5.48
489.661	5.5
490.011	5.5
490.36	5.5
490.71	5.53
491.06	5.54
491.409	5.56
491.759	5.58
492.108	5.59
492.458	5.59
492.807	5.61
493.157	5.63
493.506	5.66
493.855	5.67
494.204	5.68
494.554	5.69
494.903	5.73
495.252	5.76
495.601	5.79
495.95	5.83
496.299	5.89
496.648	5.97
496.997	6.01
497.346	6.05
497.695	6.12
498.043	6.14
498.392	6.21
498.741	6.28
499.09	6.32
499.438	6.41
499.787	6.5
500.135	6.55
500.484	6.63
500.832	6.72
501.181	6.8
501.529	6.91
501.878	7.04
502.226	7.15
502.574	7.25
502.923	7.35
503.271	7.44
503.619	7.55
503.967	7.64
504.315	7.75
504.663	7.88
505.011	8.01
505.359	8.14
505.707	8.26
506.055	8.4
506.403	8.54
506.751	8.67
507.098	8.84
507.446	9.01
507.794	9.15
508.141	9.32
508.489	9.45
508.837	9.59
509.184	9.74
509.531	9.88
509.879	10.04
510.226	10.19
510.574	10.37
510.921	10.49
511.268	10.67
511.616	10.84
511.963	11
512.31	11.2
512.657	11.42
513.004	11.55
513.351	11.73
513.698	11.95
514.045	12.17
514.392	12.37
514.739	12.59
515.086	12.81
515.432	12.99
515.779	13.21
516.126	13.42
516.473	13.61
516.819	13.8
517.166	13.97
517.512	14.17
517.859	14.32
518.205	14.53
518.552	14.69
518.898	14.87
519.245	15.03
519.591	15.19
519.937	15.33
520.283	15.56
520.629	15.75
520.976	15.94
521.322	16.12
521.668	16.31
522.014	16.51
522.36	16.72
522.706	16.96
523.052	17.21
523.398	17.47
523.743	17.72
524.089	17.98
524.435	18.22
524.781	18.46
525.126	18.68
525.472	18.84
525.817	19.01
526.163	19.18
526.509	19.33
526.854	19.46
527.199	19.6
527.545	19.73
527.89	19.85
528.235	19.99
528.581	20.12
528.926	20.24
529.271	20.36
529.616	20.51
529.961	20.67
530.306	20.79
530.651	20.92
530.996	21.08
531.341	21.25
531.686	21.43
532.031	21.58
532.376	21.74
532.721	21.95
533.065	22.17
533.41	22.35
533.755	22.58
534.099	22.79
534.444	22.99
534.788	23.21
535.133	23.46
535.477	23.69
535.822	23.93
536.166	24.17
536.51	24.45
536.855	24.68
537.199	24.92
537.543	25.2
537.887	25.52
538.231	25.8
538.576	26.02
538.92	26.27
539.264	26.53
539.608	26.77
539.951	26.95
540.295	27.15
540.639	27.36
540.983	27.57
541.327	27.81
541.671	28
542.014	28.22
542.358	28.38
542.701	28.57
543.045	28.74
543.389	28.96
543.732	29.11
544.075	29.34
544.419	29.53
544.762	29.74
545.105	29.94
545.449	30.16
545.792	30.46
546.135	30.73
546.478	31.01
546.821	31.31
547.165	31.64
547.508	31.93
547.851	32.26
548.194	32.51
548.536	32.77
548.879	33.08
549.222	33.33
549.565	33.6
549.908	33.85
550.25	34.14
550.593	34.43
550.936	34.78
551.278	35.05
551.621	35.32
551.963	35.61
552.306	35.87
552.648	36.14
552.991	36.36
553.333	36.6
553.675	36.85
554.017	37.1
554.36	37.34
554.702	37.56
555.044	37.75
555.386	38.04
555.728	38.26
556.07	38.49
556.412	38.66
556.754	38.86
557.096	39.19
557.438	39.41
557.78	39.64
558.121	39.83
558.463	40.06
558.805	40.3
559.147	40.47
559.488	40.74
559.83	40.9
560.171	41.06
560.513	41.2
560.854	41.37
561.196	41.52
561.537	41.65
561.878	41.84
562.22	41.97
562.561	42.06
562.902	42.25
563.243	42.35
563.584	42.54
563.925	42.71
564.266	42.71
564.607	42.86
564.948	42.91
565.289	42.99
565.63	43.1
565.971	43.23
566.312	43.42
566.653	43.42
566.993	43.61
567.334	43.82
567.675	43.91
568.015	44.04
568.356	44.16
568.696	44.25
569.037	44.34
569.377	44.47
569.718	44.61
570.058	44.67
570.398	44.73
570.739	44.83
571.079	44.94
571.419	45.07
571.759	45.16
572.099	45.34
572.439	45.47
572.779	45.56
573.119	45.66
573.459	45.76
573.799	45.9
574.139	45.95
574.479	46.03
574.819	46.2
575.158	46.32
575.498	46.44
575.838	46.6
576.177	46.68
576.517	46.86
576.856	46.94
577.196	47.1
577.535	47.29
577.875	47.43
578.214	47.62
578.553	47.8
578.893	48.04
579.232	48.17
579.571	48.33
579.91	48.52
580.25	48.67
580.589	48.72
580.928	48.79
581.267	48.93
581.606	49.03
581.945	49.13
582.283	49.25
582.622	49.36
582.961	49.45
583.3	49.54
583.639	49.5
583.977	49.59
584.316	49.69
584.654	49.79
584.993	49.89
585.332	49.89
585.67	49.88
586.008	49.78
586.347	49.86
586.685	49.94
587.024	49.87
587.362	49.9
587.7	50.03
588.038	50.19
588.376	50.27
588.715	50.22
589.053	50.21
589.391	50.13
589.729	50.2
590.067	50.27
590.404	50.33
590.742	50.5
591.08	50.61
591.418	50.55
591.756	50.58
592.093	50.52
592.431	50.61
592.769	50.65
593.106	50.76
593.444	50.75
593.781	50.76
594.119	50.88
594.456	50.82
594.793	50.84
595.131	50.75
595.468	50.75
595.805	50.86
596.143	50.91
596.48	50.94
596.817	50.88
597.154	50.93
597.491	50.98
597.828	50.99
598.165	51.03
598.502	51.11
598.839	51.17
599.176	51.19
599.512	51.2
599.849	51.29
600.186	51.33
600.523	51.33
600.859	51.35
601.196	51.39
601.532	51.47
601.869	51.42
602.205	51.39
602.542	51.31
602.878	51.3
603.215	51.33
603.551	51.4
603.887	51.47
604.223	51.44
604.56	51.46
604.896	51.48
605.232	51.5
605.568	51.49
605.904	51.51
606.24	51.63
606.576	51.68
606.912	51.67
607.248	51.68
607.583	51.8
607.919	51.86
608.255	51.89
608.591	51.96
608.926	52.05
609.262	52.25
609.597	52.39
609.933	52.47
610.268	52.49
610.604	52.57
610.939	52.68
611.275	52.77
611.61	52.78
611.945	52.78
612.281	52.8
612.616	52.91
612.951	53.01
613.286	52.97
613.621	53.01
613.956	53.05
614.291	53
614.626	52.97
614.961	52.99
615.296	53.06
615.631	53.04
615.966	53.11
616.3	53.11
616.635	53.25
616.97	53.23
617.304	53.27
617.639	53.29
617.973	53.16
618.308	53.19
618.642	53.28
618.977	53.31
619.311	53.34
619.646	53.34
619.98	53.32
620.314	53.38
620.648	53.4
620.983	53.39
621.317	53.48
621.651	53.51
621.985	53.48
622.319	53.52
622.653	53.6
622.987	53.51
623.321	53.44
623.655	53.39
623.988	53.38
624.322	53.44
624.656	53.39
624.99	53.49
625.323	53.44
625.657	53.39
625.99	53.41
626.324	53.39
626.657	53.34
626.991	53.3
627.324	53.31
627.658	53.32
627.991	53.33
628.324	53.34
628.657	53.32
628.991	53.39
629.324	53.37
629.657	53.42
629.99	53.54
630.323	53.69
630.656	53.7
630.989	53.8
631.322	53.79
631.655	53.82
631.987	53.87
632.32	53.99
632.653	54.05
632.986	54.1
633.318	54.11
633.651	54.17
633.984	54.27
634.316	54.39
634.649	54.36
634.981	54.58
635.313	54.7
635.646	54.88
635.978	54.89
636.31	54.96
636.643	54.89
636.975	54.88
637.307	54.81
637.639	54.8
637.971	54.8
638.303	54.93
638.635	54.95
638.967	54.97
639.299	54.95
639.631	55
639.963	55.14
640.295	55.17
640.626	55.28
640.958	55.25
641.29	55.18
641.621	55.3
641.953	55.16
642.285	55.08
642.616	55.03
642.948	55
643.279	55.01
643.61	55.17
643.942	55.31
644.273	55.34
644.604	55.39
644.936	55.43
645.267	55.33
645.598	55.5
645.929	55.51
646.26	55.48
646.591	55.43
646.922	55.41
647.253	55.56
647.584	55.45
647.915	55.51
648.245	55.51
648.576	55.45
648.907	55.48
649.238	55.47
649.568	55.45
649.899	55.46
650.229	55.39
650.56	55.26
650.89	55.15
651.221	55.15
651.551	55.06
651.882	55.1
652.212	55.08
652.542	55
652.872	54.91
653.203	54.92
653.533	55.05
653.863	54.88
654.193	54.78
654.523	54.76
654.853	54.69
655.183	54.72
655.513	54.71
655.843	54.62
656.172	54.7
656.502	54.74
656.832	54.8
657.162	54.8
657.491	54.91
657.821	54.82
658.15	54.78
658.48	54.93
658.809	54.88
659.139	55
659.468	55.02
659.798	55.12
660.127	55.15
660.456	55.09
660.785	55.19
661.115	55.12
661.444	55.25
661.773	55.29
662.102	55.28
662.431	55.32
662.76	55.43
663.089	55.43
663.418	55.41
663.747	55.47
664.076	55.57
664.404	55.62
664.733	55.79
665.062	55.99
665.39	55.93
665.719	55.88
666.048	55.77
666.376	55.82
666.705	55.81
667.033	55.82
667.362	55.89
667.69	55.92
668.018	56
668.347	56.1
668.675	56.04
669.003	56.1
669.331	56.17
669.659	56.16
669.987	56.29
670.315	56.34
670.643	56.21
670.971	56.15
671.299	56.11
671.627	56.07
671.955	55.98
672.283	55.98
672.61	56.01
672.938	56.14
673.266	56.2
673.593	56.14
673.921	56.19
674.249	56.2
674.576	56.13
674.904	56.06
675.231	55.87
675.558	55.94
675.886	55.95
676.213	55.82
676.54	55.92
676.867	55.72
677.195	55.61
677.522	55.76
677.849	55.63
678.176	55.59
678.503	55.6
678.83	55.49
679.157	55.5
679.484	55.51
679.81	55.49
680.137	55.31
680.464	55.35
680.791	55.24
681.117	55.23
681.444	55.18
681.771	55.32
682.097	55.16
682.424	55.1
682.75	55.02
683.077	55.16
683.403	55.03
683.729	55.1
684.056	54.99
684.382	54.8
684.708	54.95
685.034	54.87
685.36	54.84
685.686	54.9
686.012	54.82
686.339	54.78
686.664	54.65
686.99	54.69
687.316	54.71
687.642	54.67
687.968	54.51
688.294	54.61
688.619	54.46
688.945	54.54
689.271	54.69
689.596	54.81
689.922	54.87
690.247	54.78
690.573	54.93
690.898	55.19
691.224	55.34
691.549	55.52
691.874	55.55
692.2	55.61
692.525	55.7
692.85	55.55
693.175	55.62
693.5	55.55
693.825	55.51
694.15	55.54
694.475	55.61
694.8	55.66
695.125	55.54
695.45	55.51
695.775	55.72
696.099	55.62
696.424	55.45
696.749	55.23
697.073	55.28
697.398	55.14
697.723	54.96
698.047	54.96
698.372	54.71
698.696	54.84
699.02	54.86
699.345	54.77
699.669	55.03
699.993	55.05
700.318	55.23
700.642	55.24
700.966	55.17
701.29	55.06
701.614	55.14
701.938	55.38
702.262	55.58
702.586	55.57
702.91	55.55
703.234	55.83
703.557	55.81
703.881	55.99
704.205	56.13
704.529	56.26
704.852	56.2
705.176	56.55
705.499	56.5
705.823	56.45
706.146	56.69
706.47	56.57
706.793	56.58
707.117	56.44
707.44	56.46
707.763	56.53
708.086	56.72
708.409	56.79
708.733	56.56
709.056	56.5
709.379	56.59
709.702	56.67
710.025	56.27
710.348	56.4
710.671	56.16
710.993	56.26
711.316	56.39
711.639	56.3
711.962	55.81
712.284	55.72
712.607	55.6
712.93	55.43
713.252	55.49
713.575	55.41
713.897	55.41
714.22	55.21
714.542	55.18
714.864	55.11
715.187	55
715.509	55.05
715.831	54.96
716.153	54.87
716.475	55.1
716.798	55.32
717.12	55.06
717.442	55.28
717.764	55.18
718.085	55.04
718.407	55.16
718.729	55.59
719.051	55.62
719.373	55.71
719.695	55.81
720.016	55.95
720.338	56.14
720.659	56.29
720.981	56.47
721.302	56.54
721.624	56.49
721.945	56.33
722.267	56.47
722.588	56.73
722.909	56.56
723.231	56.04
723.552	55.75
723.873	56.2
724.194	56.18
724.515	56.02
724.836	56.01
725.157	55.91
725.478	55.51
725.799	55.31
726.12	55.39
726.441	55.25
726.762	55.05
727.083	54.97
727.403	55.11
727.724	55.02
728.045	54.9
728.365	54.83
728.686	54.89
729.006	54.74
729.327	54.45
729.647	54.74
729.967	54.7
730.288	54.86
730.608	54.76
730.928	54.57
731.249	54.74
731.569	54.67
731.889	54.64
732.209	54.84
732.529	55.19
732.849	55.22
733.169	55.31
733.489	55.08
733.809	55.05
734.129	54.86
734.448	54.92
734.768	54.85
735.088	55.03
735.408	55.06
735.727	54.93
736.047	55.02
736.366	55.08
736.686	55.31
737.005	55.3
737.325	55.28
737.644	55.71
737.963	55.6
738.283	55.66
738.602	55.9
738.921	55.81
739.24	55.57
739.56	55.76
739.879	55.84
740.198	56.01
740.517	56.13
740.836	56.02
741.155	56.1
741.473	56.49
741.792	56.51
742.111	56.64
742.43	57.05
742.748	57.03
743.067	56.91
743.386	56.88
743.704	57.2
744.023	57.47
744.341	57.21
744.66	57.15
744.978	57.35
745.297	57.28
745.615	57.35
745.933	57.34
746.252	57.34
746.57	57.07
746.888	57.08
747.206	56.96
747.524	57.31
747.842	57.44
748.16	57.31
748.478	57.4
748.796	57.3
749.114	57.23
749.432	57.41
749.749	57.23
750.067	57.29
750.385	57.23
750.703	56.97
751.02	56.87
751.338	56.84
751.655	56.84
751.973	56.82
752.29	56.84
752.608	57.01
752.925	56.73
753.242	56.75
753.56	56.63
753.877	56.74
754.194	56.58
754.511	56.16
754.828	56.18
755.145	55.99
755.462	55.87
755.779	55.46
756.096	55.22
756.413	55.14
756.73	54.99
757.047	54.45
757.364	54.38
757.68	54.2
757.997	54.43
758.314	54.07
758.63	53.98
758.947	53.71
759.264	53.56
759.58	53.33
759.896	53.41
760.213	53.5
760.529	53.66
760.846	53.78
761.162	53.82
761.478	53.67
761.794	53.48
762.11	53.51
762.426	53.35
762.743	53.31
763.059	53.23
763.375	53.41
763.69	53.71
764.006	53.94
764.322	54.14
764.638	54.01
764.954	54.3
765.27	54.33
765.585	54.76
765.901	55.11
766.216	55.22
766.532	55.21
766.848	55.35
767.163	55
767.478	54.89
767.794	55.12
768.109	55.05
768.424	55.69
768.74	55.56
769.055	56.04
769.37	56.22
769.685	56.37
770	56.52
770.315	56.56
770.63	56.35
770.945	56.3
771.26	56.6
771.575	56.51
771.89	56.54
772.205	56.39
772.52	55.91
772.834	56.24
773.149	56.2
773.464	56.29
773.778	56.99
774.093	57.09
774.407	57.09
774.722	57.16
775.036	56.69
775.351	57.17
775.665	57.06
775.979	57.53
776.293	57.68
776.608	57.11
776.922	56.96
777.236	57.01
777.55	56.81
777.864	56.82
778.178	56.56
778.492	57.01
778.806	56.99
779.12	56.83
779.434	56.71
779.747	57.29
780.061	57.31
780.375	56.9
780.689	56.76
781.002	56.85
781.316	56.96
781.629	57.2
781.943	57.02
782.256	57.2
782.57	56.34
782.883	56.45
783.196	56.9
783.51	57.1
783.823	57.29
784.136	57.9
784.449	57.54
784.762	58.09
785.075	57.28
785.388	57.11
785.701	57.24
786.014	57.04
786.327	56.44
786.64	56.14
786.953	56.13
787.266	56.02
787.578	56.74
787.891	56.84
788.204	56.49
788.516	56.63
788.829	57.11
789.141	57.61
789.454	57.44
789.766	57.74
790.079	57.76
790.391	57.82
790.703	57.74
791.016	57.9
791.328	57.15
791.64	57.52
791.952	57.87
792.264	57.93
792.576	58.47
792.888	58.46
793.2	58.84
793.512	58.79
793.824	58.96
794.136	57.42
794.448	57.6
794.76	58.22
795.071	58.12
795.383	58
795.695	57.92
796.006	58.51
796.318	58
796.629	57.82
796.941	57.2
797.252	56.91
797.564	57.14
797.875	57.31
798.186	57.19
798.497	56.81
798.809	56.8
799.12	56.35
799.431	56.48
799.742	56.24
800.053	56.37
800.364	56.08
800.675	56.92
800.986	56.76
801.297	56.22
801.608	55.47
801.918	55.06
802.229	54.56
802.54	54.04
802.851	53.82
803.161	53.43
803.472	54.08
803.782	53.83
804.093	53.85
804.403	54.34
804.714	54.68
805.024	54.71
805.334	54.97
805.645	55.11
805.955	54.92
806.265	54.54
806.575	54.48
806.885	55.02
807.195	55.18
807.505	54.86
807.815	54.9
808.125	55.38
808.435	55.09
808.745	54.99
809.055	54.96
809.365	55.36
809.674	55.77
809.984	55.85
810.294	55.38
810.603	54.81
810.913	54.89
811.222	54.21
811.532	54.51
811.841	54.71
812.151	54.99
812.46	55.03
812.769	54.89
813.079	54.83
813.388	54.44
813.697	53.3
814.006	53.51
814.315	53.64
814.624	54.18
814.933	53.54
815.242	53.87
815.551	53.83
815.86	53.36
816.169	53.04
816.478	51.85
816.786	52.66
817.095	53.25
817.404	53.12
817.712	53.59
818.021	53.43
818.33	53.6
818.638	53.45
818.947	53.67
819.255	53.72
819.563	53.82
819.872	53.6
820.18	53.96
820.488	53.71
820.796	53.44
821.105	53.4
821.413	53.34
821.721	53.46
822.029	53.17
822.337	53.06
822.645	53.21
822.953	53.26
823.26	53.08
823.568	52.99
823.876	53.03
824.184	53.11
824.491	53.01
824.799	52.79
825.107	52.45
825.414	52.51
825.722	52.68
826.029	52.6
826.337	52.72
826.644	52.82
826.951	53.16
827.259	53.36
827.566	53.26
827.873	53.51
828.18	53.32
828.488	53.48
828.795	53.94
829.102	54.03
829.409	54.03
829.716	54.54
830.023	54.89
830.329	54.88
830.636	54.35
830.943	54.49
831.25	54.29
831.557	55.07
831.863	54.56
832.17	54.7
832.476	54.63
832.783	54.26
833.089	54.05
833.396	53.48
833.702	53.17
834.009	53.19
834.315	53.02
834.621	53.11
834.928	53.33
835.234	52.9
835.54	53.11
835.846	53.37
836.152	52.86
836.458	52.29
836.764	52.18
837.07	52.54
837.376	52.72
837.682	53.43
837.988	53.35
838.293	54.29
838.599	53.97
838.905	54.47
839.211	55.58
839.516	55.09
839.822	56.02
840.127	55.7
840.433	56.3
840.738	57.15
841.044	58.05
841.349	58.06
841.654	58.16
841.959	56.92
842.265	56.39
842.57	56.58
842.875	56.22
843.18	55.77
843.485	57.4
843.79	58.06
844.095	57.01
844.4	58.29
844.705	57.7
845.01	58.58
845.315	57.59
845.619	57.04
845.924	58.79
846.229	57.09
846.533	57.85
846.838	57.67
847.142	57.63
847.447	56.64
847.751	57.65
848.056	57.79
848.36	58.07
848.664	60.66
848.969	60
849.273	60.86
849.577	62.36
849.881	61.5
850.185	58.98
850.489	58.55
850.794	57.84
851.097	58.08
851.401	54.72
851.705	57.02
852.009	58.47
852.313	56.25
852.617	55.23
852.92	54.44
853.224	53.96
853.528	52.62
853.831	54.35
854.135	54.89
854.438	55.92
854.742	56.32
855.045	56.71
855.349	57.87
855.652	57.75
855.955	55.59
856.259	54.63
856.562	55.56
856.865	56.21
857.168	54.95
857.471	57.08
857.774	59.24
858.077	55.06
858.38	54.71
858.683	56.88
858.986	57.69
859.289	61.87
859.592	61.58
859.894	62.88
860.197	60.62
860.5	60.93
860.802	58.65
861.105	57.16
861.407	55.51
861.71	54.51
862.012	56.09
862.315	57.7
862.617	58.39
862.919	59.8
863.222	61.17
863.524	59.73
863.826	56.64
864.128	56.8
864.43	60.39
864.732	57.77
865.034	58.49
865.336	60.04
865.638	58.96
865.94	59.34
866.242	58.79
866.544	58.13
866.846	54.67
867.147	54.59
867.449	57.29
867.751	56.2
868.052	57.5
868.354	55.31
868.655	56.1
868.957	54.94
869.258	52.96
869.56	53.23
869.861	52.97
870.162	54.47
870.463	54.45
870.765	53.66
871.066	51.54
871.367	49.65
871.668	49.51
871.969	48.46
872.27	48.05
872.571	49.92
872.872	50.06
873.173	51.28
873.473	51.99
873.774	52.56
874.075	52.79
874.376	52.9
874.676	53.94
874.977	54.23
875.277	54.78
875.578	55.84
875.878	55.79
876.179	57.29
876.479	56.11
876.78	56.48
877.08	54.95
877.38	59.29
877.68	59.44
877.981	58.64
878.281	58.5
878.581	59.14
