Data from MVZ_BU123442_Reflection_00006.txt Node
Date: Tue Nov 19 12:12:27 EST 2019
User: vgr7
Spectrometer: USB2G7710
Scans to average: 3
Trigger mode: 4
Integration Time (sec): 2.000000E-2
Electric dark correction enabled: true
Boxcar width: 10
XAxis mode: Wavelengths
Number of Pixels in Spectrum: 2048
>>>>>Begin Spectral Data<<<<<
177.721	236.63
178.105	190.91
178.488	198.76
178.871	152.54
179.254	252.63
179.636	-33.54
180.019	-815.09
180.402	223.08
180.785	-173.49
181.168	-230.45
181.55	5.25
181.933	-5.3
182.316	52.66
182.698	73.75
183.081	57.48
183.463	78.74
183.846	90.87
184.228	91.53
184.611	120.52
184.993	-504
185.376	-2660.87
185.758	256.13
186.14	556.1
186.522	930.28
186.904	-816
187.287	-668.46
187.669	-469.09
188.051	-443.48
188.433	-394.43
188.815	-240.54
189.197	-269.69
189.579	-195.02
189.961	-286.04
190.342	-227.29
190.724	-147.84
191.106	-107.92
191.488	-126.61
191.869	-87.46
192.251	-78.94
192.633	-88.86
193.014	-94.59
193.396	-123.75
193.777	-84.33
194.159	-89.16
194.54	-99.31
194.922	-138.82
195.303	-163.4
195.684	-182.5
196.065	-190.84
196.447	-131.65
196.828	-175.81
197.209	-192.22
197.59	-156.4
197.971	-104.41
198.352	-94.37
198.733	-91.44
199.114	-92.59
199.495	-93.37
199.876	-77.48
200.257	-123.06
200.638	-138.38
201.018	-176.75
201.399	-133.47
201.78	-136.59
202.16	-168.35
202.541	-201.48
202.922	-105.61
203.302	-163.37
203.683	-405.41
204.063	-250.75
204.444	-728.24
204.824	-224.18
205.204	-180.97
205.585	-330.09
205.965	-1383.05
206.345	655.21
206.725	1233.03
207.106	838.41
207.486	1069.57
207.866	250.73
208.246	425.73
208.626	-5400
209.006	-338.01
209.386	-386.52
209.766	-323.48
210.145	-159.35
210.525	-141.01
210.905	-209.97
211.285	-158.14
211.664	-99.67
212.044	-92.14
212.424	-98.43
212.803	-125.3
213.183	-96.07
213.562	-73.25
213.942	-65.55
214.321	-72.49
214.701	-86.85
215.08	-123.23
215.459	-110.32
215.838	-120.13
216.218	-112.03
216.597	-104.56
216.976	-115.78
217.355	-112.87
217.734	-116.25
218.113	-116.73
218.492	-106.3
218.871	-99.77
219.25	-97.53
219.629	-115.4
220.008	-107.51
220.387	-96.24
220.766	-68.71
221.144	-79.79
221.523	-89.24
221.902	-82.31
222.28	-62.38
222.659	-42.65
223.037	-25.69
223.416	-19.97
223.794	-23.04
224.173	-27.33
224.551	-24.96
224.929	-22.89
225.308	-23.6
225.686	-19.46
226.064	-20.69
226.442	-19.59
226.821	-14.62
227.199	-14.82
227.577	-10.74
227.955	-9.47
228.333	-9.49
228.711	-15.02
229.089	-15.76
229.467	-15.67
229.845	-15.89
230.222	-13.19
230.6	-13.45
230.978	-11.86
231.356	-11.88
231.733	-7.54
232.111	-5.49
232.488	-5.14
232.866	-4.82
233.243	-3.6
233.621	-1.46
233.998	-1.08
234.376	-1.14
234.753	-2.83
235.13	-3.15
235.508	-1.5
235.885	-2.48
236.262	-4.33
236.639	-3.89
237.016	-2.41
237.393	-0.74
237.77	0.28
238.147	-0.18
238.524	-0.02
238.901	-0.73
239.278	-0.35
239.655	-0.43
240.032	-0.25
240.409	0.12
240.785	0.54
241.162	1.02
241.539	1.33
241.915	0.96
242.292	1.22
242.668	1.65
243.045	2.17
243.421	2.02
243.798	2.11
244.174	2.49
244.551	2.61
244.927	2.75
245.303	2.62
245.679	2.53
246.056	2.88
246.432	2.97
246.808	3.29
247.184	3.62
247.56	3.61
247.936	3.53
248.312	3.29
248.688	3.17
249.064	3.16
249.44	3
249.815	3.15
250.191	3.18
250.567	3.1
250.943	3.25
251.318	3.08
251.694	2.76
252.069	2.57
252.445	2.37
252.82	2.47
253.196	2.62
253.571	2.84
253.947	2.44
254.322	2.28
254.697	1.91
255.073	1.76
255.448	1.83
255.823	2.19
256.198	2.2
256.573	2.3
256.948	2.3
257.323	2.46
257.698	2.45
258.073	2.57
258.448	2.73
258.823	2.57
259.198	2.74
259.573	3
259.948	3.11
260.322	3.3
260.697	3.24
261.072	3.07
261.446	2.83
261.821	2.76
262.195	2.79
262.57	2.75
262.944	2.8
263.319	2.82
263.693	2.65
264.067	2.7
264.442	2.7
264.816	2.36
265.19	2.2
265.564	2.25
265.938	1.96
266.313	1.98
266.687	1.94
267.061	1.77
267.435	1.77
267.809	1.71
268.183	1.51
268.556	1.39
268.93	1.68
269.304	1.52
269.678	1.69
270.051	1.79
270.425	1.9
270.799	1.71
271.172	1.57
271.546	1.77
271.919	1.85
272.293	2
272.666	2.3
273.04	2.31
273.413	2.23
273.787	2.36
274.16	2.29
274.533	2.34
274.906	2.41
275.279	2.43
275.653	2.44
276.026	2.51
276.399	2.48
276.772	2.39
277.145	2.64
277.518	2.5
277.891	2.34
278.263	2.45
278.636	2.7
279.009	2.85
279.382	2.7
279.755	2.63
280.127	2.44
280.5	2.4
280.872	2.38
281.245	2.53
281.617	2.55
281.99	2.5
282.362	2.43
282.735	2.57
283.107	2.49
283.479	2.59
283.852	2.61
284.224	2.62
284.596	2.59
284.968	2.48
285.34	2.57
285.713	2.69
286.085	2.53
286.457	2.31
286.829	2.27
287.201	2.24
287.572	2.3
287.944	2.45
288.316	2.52
288.688	2.61
289.06	2.49
289.431	2.65
289.803	2.71
290.175	2.74
290.546	2.63
290.918	2.68
291.289	2.51
291.661	2.67
292.032	2.74
292.403	2.75
292.775	2.9
293.146	2.86
293.517	2.81
293.889	2.85
294.26	2.94
294.631	3.03
295.002	3.15
295.373	3.13
295.744	3.14
296.115	3.12
296.486	3.12
296.857	3.06
297.228	3.01
297.599	2.85
297.97	2.93
298.34	3.01
298.711	3.05
299.082	3.06
299.452	2.9
299.823	2.91
300.194	2.86
300.564	2.68
300.935	2.66
301.305	2.7
301.676	2.59
302.046	2.6
302.416	2.68
302.787	2.64
303.157	2.57
303.527	2.45
303.897	2.45
304.267	2.46
304.637	2.52
305.008	2.45
305.378	2.61
305.748	2.51
306.117	2.4
306.487	2.25
306.857	2.15
307.227	2.42
307.597	2.35
307.967	2.38
308.336	2.44
308.706	2.54
309.076	2.43
309.445	2.68
309.815	2.74
310.184	2.62
310.554	2.45
310.923	2.49
311.293	2.51
311.662	2.39
312.031	2.26
312.401	2.27
312.77	2.27
313.139	2.3
313.508	2.53
313.877	2.51
314.246	2.72
314.616	2.84
314.985	2.69
315.353	2.71
315.722	2.79
316.091	2.93
316.46	2.94
316.829	2.98
317.198	2.81
317.567	2.79
317.935	2.6
318.304	2.73
318.672	2.76
319.041	2.7
319.41	2.77
319.778	2.84
320.147	2.74
320.515	2.64
320.883	2.55
321.252	2.24
321.62	2.2
321.988	2.22
322.357	2.26
322.725	2.29
323.093	2.2
323.461	2.18
323.829	1.99
324.197	1.84
324.565	1.88
324.933	1.98
325.301	1.87
325.669	2.14
326.037	2.15
326.405	2.1
326.772	2.2
327.14	2.17
327.508	2.22
327.875	2.23
328.243	2.1
328.61	2.12
328.978	2.11
329.346	2.18
329.713	2.1
330.08	2.17
330.448	2.12
330.815	2.26
331.182	2.3
331.55	2.41
331.917	2.48
332.284	2.5
332.651	2.43
333.018	2.48
333.385	2.29
333.752	2.37
334.119	2.45
334.486	2.39
334.853	2.38
335.22	2.34
335.587	2.35
335.954	2.53
336.32	2.45
336.687	2.44
337.054	2.42
337.42	2.28
337.787	2.27
338.153	2.34
338.52	2.42
338.886	2.36
339.253	2.45
339.619	2.43
339.986	2.37
340.352	2.41
340.718	2.41
341.084	2.6
341.451	2.61
341.817	2.52
342.183	2.5
342.549	2.53
342.915	2.59
343.281	2.63
343.647	2.7
344.013	2.8
344.379	2.78
344.745	2.82
345.11	2.75
345.476	2.74
345.842	2.53
346.208	2.48
346.573	2.48
346.939	2.39
347.304	2.37
347.67	2.43
348.035	2.39
348.401	2.39
348.766	2.21
349.132	2.21
349.497	2.31
349.862	2.31
350.228	2.28
350.593	2.26
350.958	2.35
351.323	2.28
351.688	2.29
352.053	2.47
352.418	2.51
352.783	2.67
353.148	2.66
353.513	2.69
353.878	2.66
354.243	2.64
354.608	2.71
354.972	2.77
355.337	2.78
355.702	2.86
356.066	2.87
356.431	2.98
356.795	3.01
357.16	2.9
357.524	2.87
357.889	2.87
358.253	2.88
358.618	2.85
358.982	2.86
359.346	2.78
359.71	2.75
360.075	2.65
360.439	2.63
360.803	2.66
361.167	2.72
361.531	2.73
361.895	2.74
362.259	2.78
362.623	2.75
362.987	2.67
363.351	2.63
363.714	2.7
364.078	2.63
364.442	2.61
364.806	2.73
365.169	2.83
365.533	2.86
365.896	2.86
366.26	2.8
366.623	2.8
366.987	2.87
367.35	2.87
367.714	2.95
368.077	2.97
368.44	3.04
368.803	2.98
369.167	2.96
369.53	2.95
369.893	2.91
370.256	2.85
370.619	2.94
370.982	2.94
371.345	2.85
371.708	2.89
372.071	2.8
372.434	2.77
372.797	2.79
373.159	2.81
373.522	2.84
373.885	2.9
374.247	2.95
374.61	2.94
374.973	2.94
375.335	3
375.698	3.01
376.06	2.92
376.423	2.98
376.785	3
377.147	3.02
377.51	3.01
377.872	3.04
378.234	3.1
378.596	3.08
378.958	3.11
379.321	3.1
379.683	3.16
380.045	3.12
380.407	3.07
380.769	3.06
381.13	3.04
381.492	3.07
381.854	3.06
382.216	3.05
382.578	3.08
382.939	3
383.301	3
383.663	3.03
384.024	3
384.386	2.98
384.747	2.95
385.109	2.94
385.47	2.98
385.832	2.94
386.193	2.98
386.554	2.94
386.916	2.95
387.277	2.92
387.638	2.95
387.999	2.97
388.36	2.95
388.721	2.97
389.082	2.99
389.443	2.93
389.804	3
390.165	2.99
390.526	3.01
390.887	3.02
391.248	3.04
391.609	3.08
391.969	3.1
392.33	3.1
392.691	3.12
393.051	3.09
393.412	3.08
393.772	3.09
394.133	3.11
394.493	3.11
394.854	3.13
395.214	3.14
395.574	3.1
395.935	3.08
396.295	3.05
396.655	3.01
397.015	3.1
397.376	3.08
397.736	3.05
398.096	3.07
398.456	3.06
398.816	3.07
399.176	3.06
399.535	3.04
399.895	3.07
400.255	3.07
400.615	3.1
400.975	3.15
401.334	3.13
401.694	3.13
402.054	3.14
402.413	3.15
402.773	3.14
403.132	3.15
403.492	3.18
403.851	3.23
404.211	3.21
404.57	3.21
404.929	3.2
405.288	3.24
405.648	3.21
406.007	3.21
406.366	3.19
406.725	3.18
407.084	3.23
407.443	3.22
407.802	3.19
408.161	3.2
408.52	3.17
408.879	3.15
409.238	3.18
409.596	3.19
409.955	3.16
410.314	3.16
410.673	3.15
411.031	3.15
411.39	3.14
411.748	3.18
412.107	3.13
412.465	3.12
412.824	3.09
413.182	3.1
413.54	3.1
413.899	3.11
414.257	3.12
414.615	3.12
414.974	3.12
415.332	3.15
415.69	3.15
416.048	3.16
416.406	3.16
416.764	3.17
417.122	3.18
417.48	3.2
417.838	3.21
418.195	3.23
418.553	3.24
418.911	3.24
419.269	3.26
419.626	3.27
419.984	3.28
420.342	3.29
420.699	3.29
421.057	3.29
421.414	3.29
421.772	3.29
422.129	3.29
422.486	3.32
422.844	3.31
423.201	3.3
423.558	3.3
423.915	3.32
424.273	3.32
424.63	3.33
424.987	3.35
425.344	3.36
425.701	3.36
426.058	3.36
426.415	3.36
426.772	3.34
427.128	3.34
427.485	3.32
427.842	3.31
428.199	3.31
428.555	3.32
428.912	3.31
429.269	3.31
429.625	3.32
429.982	3.31
430.338	3.33
430.695	3.34
431.051	3.33
431.407	3.33
431.764	3.33
432.12	3.32
432.476	3.31
432.832	3.3
433.189	3.29
433.545	3.3
433.901	3.31
434.257	3.33
434.613	3.33
434.969	3.33
435.325	3.34
435.681	3.35
436.036	3.36
436.392	3.4
436.748	3.4
437.104	3.38
437.459	3.38
437.815	3.4
438.171	3.41
438.526	3.41
438.882	3.42
439.237	3.44
439.593	3.43
439.948	3.42
440.304	3.4
440.659	3.41
441.014	3.39
441.369	3.38
441.725	3.37
442.08	3.37
442.435	3.39
442.79	3.38
443.145	3.37
443.5	3.36
443.855	3.34
444.21	3.35
444.565	3.36
444.92	3.35
445.275	3.34
445.629	3.34
445.984	3.34
446.339	3.34
446.693	3.34
447.048	3.32
447.403	3.33
447.757	3.35
448.112	3.36
448.466	3.37
448.82	3.39
449.175	3.4
449.529	3.42
449.883	3.41
450.238	3.42
450.592	3.45
450.946	3.44
451.3	3.45
451.654	3.44
452.008	3.43
452.362	3.44
452.716	3.44
453.07	3.42
453.424	3.42
453.778	3.41
454.132	3.41
454.486	3.44
454.839	3.44
455.193	3.46
455.547	3.48
455.9	3.48
456.254	3.47
456.607	3.49
456.961	3.48
457.314	3.49
457.668	3.48
458.021	3.46
458.375	3.47
458.728	3.46
459.081	3.47
459.434	3.48
459.787	3.48
460.141	3.5
460.494	3.53
460.847	3.54
461.2	3.54
461.553	3.55
461.906	3.54
462.259	3.55
462.611	3.52
462.964	3.5
463.317	3.51
463.67	3.53
464.022	3.5
464.375	3.5
464.728	3.5
465.08	3.51
465.433	3.54
465.785	3.54
466.138	3.52
466.49	3.52
466.843	3.53
467.195	3.53
467.547	3.52
467.899	3.49
468.252	3.5
468.604	3.5
468.956	3.53
469.308	3.54
469.66	3.54
470.012	3.54
470.364	3.55
470.716	3.55
471.068	3.55
471.42	3.55
471.772	3.57
472.123	3.57
472.475	3.57
472.827	3.55
473.178	3.56
473.53	3.59
473.882	3.61
474.233	3.6
474.585	3.57
474.936	3.56
475.288	3.57
475.639	3.57
475.99	3.56
476.342	3.55
476.693	3.53
477.044	3.54
477.395	3.54
477.746	3.55
478.097	3.52
478.448	3.51
478.8	3.5
479.15	3.5
479.501	3.5
479.852	3.51
480.203	3.51
480.554	3.52
480.905	3.53
481.255	3.53
481.606	3.54
481.957	3.56
482.307	3.57
482.658	3.57
483.009	3.57
483.359	3.59
483.709	3.6
484.06	3.6
484.41	3.61
484.761	3.61
485.111	3.61
485.461	3.63
485.811	3.63
486.162	3.64
486.512	3.64
486.862	3.65
487.212	3.66
487.562	3.65
487.912	3.66
488.262	3.66
488.612	3.66
488.961	3.66
489.311	3.65
489.661	3.65
490.011	3.64
490.36	3.63
490.71	3.62
491.06	3.6
491.409	3.6
491.759	3.6
492.108	3.59
492.458	3.59
492.807	3.58
493.157	3.58
493.506	3.58
493.855	3.57
494.204	3.56
494.554	3.55
494.903	3.56
495.252	3.55
495.601	3.54
495.95	3.56
496.299	3.56
496.648	3.56
496.997	3.55
497.346	3.57
497.695	3.59
498.043	3.6
498.392	3.6
498.741	3.6
499.09	3.61
499.438	3.62
499.787	3.63
500.135	3.62
500.484	3.63
500.832	3.61
501.181	3.62
501.529	3.64
501.878	3.63
502.226	3.64
502.574	3.66
502.923	3.67
503.271	3.65
503.619	3.65
503.967	3.64
504.315	3.65
504.663	3.64
505.011	3.65
505.359	3.62
505.707	3.64
506.055	3.64
506.403	3.61
506.751	3.6
507.098	3.61
507.446	3.6
507.794	3.6
508.141	3.61
508.489	3.61
508.837	3.59
509.184	3.61
509.531	3.62
509.879	3.62
510.226	3.61
510.574	3.62
510.921	3.62
511.268	3.65
511.616	3.66
511.963	3.64
512.31	3.65
512.657	3.64
513.004	3.63
513.351	3.61
513.698	3.63
514.045	3.64
514.392	3.65
514.739	3.66
515.086	3.67
515.432	3.7
515.779	3.7
516.126	3.72
516.473	3.72
516.819	3.7
517.166	3.69
517.512	3.68
517.859	3.68
518.205	3.69
518.552	3.69
518.898	3.69
519.245	3.72
519.591	3.72
519.937	3.73
520.283	3.73
520.629	3.74
520.976	3.73
521.322	3.72
521.668	3.72
522.014	3.72
522.36	3.73
522.706	3.73
523.052	3.75
523.398	3.72
523.743	3.74
524.089	3.77
524.435	3.76
524.781	3.77
525.126	3.78
525.472	3.8
525.817	3.79
526.163	3.8
526.509	3.8
526.854	3.81
527.199	3.82
527.545	3.84
527.89	3.83
528.235	3.84
528.581	3.86
528.926	3.85
529.271	3.85
529.616	3.86
529.961	3.85
530.306	3.85
530.651	3.86
530.996	3.86
531.341	3.87
531.686	3.89
532.031	3.9
532.376	3.9
532.721	3.89
533.065	3.9
533.41	3.89
533.755	3.89
534.099	3.89
534.444	3.88
534.788	3.89
535.133	3.88
535.477	3.9
535.822	3.9
536.166	3.91
536.51	3.9
536.855	3.89
537.199	3.89
537.543	3.91
537.887	3.92
538.231	3.92
538.576	3.91
538.92	3.91
539.264	3.91
539.608	3.92
539.951	3.92
540.295	3.91
540.639	3.93
540.983	3.93
541.327	3.93
541.671	3.93
542.014	3.96
542.358	3.97
542.701	3.96
543.045	3.95
543.389	3.96
543.732	3.97
544.075	3.97
544.419	3.98
544.762	3.95
545.105	3.97
545.449	3.97
545.792	3.98
546.135	3.97
546.478	3.97
546.821	3.97
547.165	3.97
547.508	4
547.851	3.98
548.194	3.98
548.536	3.96
548.879	3.97
549.222	3.94
549.565	3.96
549.908	3.96
550.25	3.96
550.593	3.96
550.936	3.98
551.278	3.98
551.621	3.96
551.963	4
552.306	3.97
552.648	3.97
552.991	3.96
553.333	3.96
553.675	3.96
554.017	3.94
554.36	3.96
554.702	3.93
555.044	3.95
555.386	3.96
555.728	3.96
556.07	3.98
556.412	3.94
556.754	3.91
557.096	3.93
557.438	3.93
557.78	3.92
558.121	3.9
558.463	3.88
558.805	3.92
559.147	3.91
559.488	3.89
559.83	3.91
560.171	3.93
560.513	3.95
560.854	3.93
561.196	3.94
561.537	3.97
561.878	3.98
562.22	3.96
562.561	3.96
562.902	3.96
563.243	3.92
563.584	3.97
563.925	3.99
564.266	3.95
564.607	3.96
564.948	3.94
565.289	3.94
565.63	3.96
565.971	3.94
566.312	3.94
566.653	3.95
566.993	3.91
567.334	3.92
567.675	3.91
568.015	3.93
568.356	3.95
568.696	3.95
569.037	3.99
569.377	3.99
569.718	3.99
570.058	3.99
570.398	3.99
570.739	3.95
571.079	3.93
571.419	3.97
571.759	3.98
572.099	3.99
572.439	3.97
572.779	3.97
573.119	3.97
573.459	3.98
573.799	3.98
574.139	3.97
574.479	3.96
574.819	3.99
575.158	3.99
575.498	3.97
575.838	3.92
576.177	3.87
576.517	3.91
576.856	3.88
577.196	3.88
577.535	3.87
577.875	3.91
578.214	3.92
578.553	3.93
578.893	3.93
579.232	3.93
579.571	3.97
579.91	3.95
580.25	3.92
580.589	3.87
580.928	3.86
581.267	3.86
581.606	3.85
581.945	3.8
582.283	3.82
582.622	3.82
582.961	3.82
583.3	3.82
583.639	3.8
583.977	3.84
584.316	3.88
584.654	3.91
584.993	3.9
585.332	3.89
585.67	3.85
586.008	3.87
586.347	3.91
586.685	3.87
587.024	3.88
587.362	3.94
587.7	3.95
588.038	3.98
588.376	3.97
588.715	3.96
589.053	3.97
589.391	3.99
589.729	3.96
590.067	4.01
590.404	4.02
590.742	3.99
591.08	4.01
591.418	3.98
591.756	4.02
592.093	4.02
592.431	4.07
592.769	4.09
593.106	4.06
593.444	4.04
593.781	4.08
594.119	4.1
594.456	4.06
594.793	4.06
595.131	4.08
595.468	4.12
595.805	4.14
596.143	4.13
596.48	4.09
596.817	4.11
597.154	4.13
597.491	4.11
597.828	4.13
598.165	4.1
598.502	4.1
598.839	4.02
599.176	4.02
599.512	4.02
599.849	4.03
600.186	4.04
600.523	4.04
600.859	4.02
601.196	4.02
601.532	4.04
601.869	4.08
602.205	4.06
602.542	4.02
602.878	4.02
603.215	4.05
603.551	4.03
603.887	4.02
604.223	3.98
604.56	3.97
604.896	3.99
605.232	3.97
605.568	4
605.904	4.02
606.24	4.04
606.576	4.02
606.912	4.01
607.248	4
607.583	4.02
607.919	4.04
608.255	4.04
608.591	4.06
608.926	4.04
609.262	4
609.597	4.02
609.933	3.99
610.268	4.01
610.604	4.01
610.939	4.05
611.275	4.07
611.61	4.1
611.945	4.05
612.281	4.07
612.616	4.08
612.951	4.14
613.286	4.12
613.621	4.14
613.956	4.14
614.291	4.11
614.626	4.07
614.961	4.05
615.296	4.09
615.631	4.05
615.966	4.03
616.3	4.07
616.635	4.05
616.97	4.1
617.304	4.09
617.639	4.13
617.973	4.03
618.308	4.05
618.642	4.07
618.977	4.13
619.311	4.16
619.646	4.13
619.98	4.09
620.314	4.08
620.648	4.09
620.983	4.1
621.317	4.11
621.651	4.13
621.985	4.12
622.319	4.07
622.653	4.12
622.987	4.15
623.321	4.15
623.655	4.16
623.988	4.12
624.322	4.13
624.656	4.15
624.99	4.21
625.323	4.16
625.657	4.12
625.99	4.14
626.324	4.13
626.657	4.12
626.991	4.13
627.324	4.15
627.658	4.16
627.991	4.2
628.324	4.2
628.657	4.22
628.991	4.21
629.324	4.23
629.657	4.22
629.99	4.24
630.323	4.26
630.656	4.3
630.989	4.29
631.322	4.25
631.655	4.16
631.987	4.2
632.32	4.25
632.653	4.23
632.986	4.21
633.318	4.22
633.651	4.2
633.984	4.22
634.316	4.25
634.649	4.17
634.981	4.16
635.313	4.2
635.646	4.23
635.978	4.28
636.31	4.29
636.643	4.25
636.975	4.23
637.307	4.24
637.639	4.21
637.971	4.21
638.303	4.19
638.635	4.25
638.967	4.17
639.299	4.14
639.631	4.18
639.963	4.16
640.295	4.18
640.626	4.26
640.958	4.2
641.29	4.2
641.621	4.24
641.953	4.13
642.285	4.09
642.616	4.08
642.948	4.01
643.279	4.03
643.61	4.1
643.942	4.13
644.273	4.2
644.604	4.29
644.936	4.3
645.267	4.34
645.598	4.28
645.929	4.36
646.26	4.45
646.591	4.44
646.922	4.47
647.253	4.45
647.584	4.41
647.915	4.42
648.245	4.43
648.576	4.44
648.907	4.57
649.238	4.6
649.568	4.59
649.899	4.58
650.229	4.54
650.56	4.51
650.89	4.49
651.221	4.41
651.551	4.28
651.882	4.29
652.212	4.3
652.542	4.44
652.872	4.38
653.203	4.35
653.533	4.4
653.863	4.42
654.193	4.36
654.523	4.27
654.853	4.32
655.183	4.29
655.513	4.3
655.843	4.24
656.172	4.31
656.502	4.32
656.832	4.38
657.162	4.38
657.491	4.42
657.821	4.4
658.15	4.39
658.48	4.46
658.809	4.49
659.139	4.48
659.468	4.43
659.798	4.49
660.127	4.42
660.456	4.39
660.785	4.31
661.115	4.35
661.444	4.4
661.773	4.36
662.102	4.33
662.431	4.36
662.76	4.37
663.089	4.37
663.418	4.39
663.747	4.38
664.076	4.32
664.404	4.33
664.733	4.39
665.062	4.39
665.39	4.39
665.719	4.37
666.048	4.42
666.376	4.44
666.705	4.42
667.033	4.49
667.362	4.46
667.69	4.52
668.018	4.47
668.347	4.51
668.675	4.54
669.003	4.62
669.331	4.65
669.659	4.56
669.987	4.49
670.315	4.48
670.643	4.48
670.971	4.59
671.299	4.54
671.627	4.57
671.955	4.6
672.283	4.54
672.61	4.52
672.938	4.45
673.266	4.44
673.593	4.41
673.921	4.3
674.249	4.2
674.576	4.23
674.904	4.37
675.231	4.41
675.558	4.46
675.886	4.39
676.213	4.29
676.54	4.37
676.867	4.48
677.195	4.38
677.522	4.39
677.849	4.36
678.176	4.38
678.503	4.29
678.83	4.3
679.157	4.39
679.484	4.41
679.81	4.4
680.137	4.51
680.464	4.59
680.791	4.69
681.117	4.71
681.444	4.71
681.771	4.72
682.097	4.77
682.424	4.77
682.75	4.88
683.077	4.85
683.403	4.79
683.729	4.65
684.056	4.69
684.382	4.64
684.708	4.6
685.034	4.49
685.36	4.49
685.686	4.57
686.012	4.63
686.339	4.64
686.664	4.62
686.99	4.53
687.316	4.52
687.642	4.55
687.968	4.71
688.294	4.69
688.619	4.61
688.945	4.45
689.271	4.35
689.596	4.25
689.922	4.37
690.247	4.52
690.573	4.52
690.898	4.62
691.224	4.63
691.549	4.69
691.874	4.83
692.2	4.84
692.525	4.7
692.85	4.51
693.175	4.53
693.5	4.53
693.825	4.59
694.15	4.47
694.475	4.39
694.8	4.4
695.125	4.34
695.45	4.32
695.775	4.27
696.099	4.34
696.424	4.36
696.749	4.38
697.073	4.35
697.398	4.38
697.723	4.35
698.047	4.54
698.372	4.51
698.696	4.46
699.02	4.5
699.345	4.59
699.669	4.66
699.993	4.69
700.318	4.8
700.642	4.73
700.966	4.81
701.29	4.82
701.614	4.77
701.938	4.86
702.262	4.91
702.586	5
702.91	5.01
703.234	4.94
703.557	4.94
703.881	5
704.205	5.02
704.529	4.97
704.852	4.69
705.176	4.78
705.499	4.72
705.823	4.64
706.146	4.74
706.47	4.77
706.793	4.71
707.117	4.6
707.44	4.51
707.763	4.51
708.086	4.6
708.409	4.68
708.733	4.76
709.056	4.88
709.379	4.98
709.702	4.93
710.025	5.19
710.348	5.21
710.671	5.19
710.993	5.2
711.316	5.37
711.639	5.4
711.962	5.31
712.284	5.41
712.607	5.47
712.93	5.3
713.252	5.22
713.575	5.14
713.897	5.18
714.22	5.26
714.542	5.24
714.864	5.19
715.187	5.09
715.509	4.99
715.831	4.99
716.153	4.85
716.475	4.88
716.798	4.69
717.12	4.65
717.442	4.49
717.764	4.46
718.085	4.33
718.407	4.35
718.729	4.41
719.051	4.42
719.373	4.43
719.695	4.46
720.016	4.54
720.338	4.75
720.659	4.83
720.981	4.75
721.302	4.95
721.624	4.96
721.945	4.97
722.267	4.95
722.588	4.72
722.909	4.73
723.231	4.76
723.552	4.88
723.873	4.85
724.194	5.12
724.515	5.34
724.836	5.28
725.157	5.43
725.478	5.45
725.799	5.61
726.12	5.55
726.441	5.53
726.762	5.46
727.083	5.56
727.403	5.43
727.724	5.5
728.045	5.42
728.365	5.49
728.686	5.6
729.006	5.63
729.327	5.75
729.647	5.92
729.967	6.02
730.288	5.97
730.608	6.12
730.928	6.11
731.249	6.15
731.569	6.19
731.889	6.13
732.209	6.22
732.529	5.99
732.849	6.04
733.169	5.88
733.489	6
733.809	5.77
734.129	5.78
734.448	5.72
734.768	5.76
735.088	5.68
735.408	5.49
735.727	5.43
736.047	5.51
736.366	5.44
736.686	5.3
737.005	5.43
737.325	5.23
737.644	4.85
737.963	4.64
738.283	4.67
738.602	4.81
738.921	4.59
739.24	4.85
739.56	4.77
739.879	4.96
740.198	4.75
740.517	4.71
740.836	4.78
741.155	4.8
741.473	4.61
741.792	4.71
742.111	4.9
742.43	5.11
742.748	4.98
743.067	4.89
743.386	4.6
743.704	4.34
744.023	4.55
744.341	4.6
744.66	4.36
744.978	4.48
745.297	4.31
745.615	4.31
745.933	4.16
746.252	4.11
746.57	4.19
746.888	4.32
747.206	4.28
747.524	4.32
747.842	4.49
748.16	4.46
748.478	4.29
748.796	4.24
749.114	4.07
749.432	4.11
749.749	4.35
750.067	4.67
750.385	4.83
750.703	4.68
751.02	5.06
751.338	5.16
751.655	5.15
751.973	5.12
752.29	5.12
752.608	5.05
752.925	5.17
753.242	5.2
753.56	5.34
753.877	5.45
754.194	5.65
754.511	5.56
754.828	5.48
755.145	5.73
755.462	5.51
755.779	5.51
756.096	5.61
756.413	5.71
756.73	5.82
757.047	5.58
757.364	5.57
757.68	5.6
757.997	5.97
758.314	6.23
758.63	6.38
758.947	6.51
759.264	6.67
759.58	6.8
759.896	6.8
760.213	6.62
760.529	6.88
760.846	6.7
761.162	6.62
761.478	6.84
761.794	6.77
762.11	6.93
762.426	6.62
762.743	6.57
763.059	6.32
763.375	6.14
763.69	6.36
764.006	6.38
764.322	6.38
764.638	6.3
764.954	6.03
765.27	6
765.585	5.93
765.901	5.76
766.216	5.68
766.532	5.59
766.848	5.79
767.163	5.71
767.478	5.53
767.794	5.64
768.109	5.59
768.424	5.72
768.74	5.71
769.055	6.22
769.37	6.04
769.685	6.26
770	6.51
770.315	6.43
770.63	6.56
770.945	6.42
771.26	6.32
771.575	6.32
771.89	5.84
772.205	5.8
772.52	5.66
772.834	5.69
773.149	5.39
773.464	5.21
773.778	5.04
774.093	4.95
774.407	4.66
774.722	4.44
775.036	4.08
775.351	4.1
775.665	4.03
775.979	4.29
776.293	4.2
776.608	3.87
776.922	3.66
777.236	3.63
777.55	3.72
777.864	4.14
778.178	4.34
778.492	4.47
778.806	4.73
779.12	4.84
779.434	5
779.747	5.56
780.061	5.4
780.375	5.57
780.689	6.04
781.002	6
781.316	6.29
781.629	6.72
781.943	6.46
782.256	6.31
782.57	6.07
782.883	6.28
783.196	6.89
783.51	7.39
783.823	6.85
784.136	6.5
784.449	6.28
784.762	6.44
785.075	6.72
785.388	6.8
785.701	6.89
786.014	6.88
786.327	6.69
786.64	7.19
786.953	6.74
787.266	6.5
787.578	7.01
787.891	6.24
788.204	5.84
788.516	6
788.829	5.96
789.141	6.48
789.454	6.22
789.766	5.78
790.079	5.26
790.391	5.23
790.703	5.88
791.016	5.66
791.328	4.99
791.64	4.85
791.952	4.8
792.264	5.11
792.576	5.16
792.888	5.16
793.2	4.57
793.512	4.78
793.824	5.41
794.136	5.35
794.448	6.56
794.76	6.7
795.071	6.58
795.383	6.79
795.695	6.15
796.006	5.79
796.318	5.93
796.629	6.17
796.941	6.96
797.252	6.37
797.564	6.31
797.875	6.63
798.186	6.57
798.497	6.25
798.809	6.45
799.12	5.87
799.431	6.19
799.742	6.65
800.053	6.87
800.364	6.36
800.675	6.02
800.986	5.68
801.297	5.24
801.608	5.67
801.918	5.25
802.229	5.65
802.54	6.4
802.851	6.49
803.161	6.38
803.472	6.17
803.782	6.36
804.093	6.27
804.403	6.29
804.714	6.55
805.024	6.39
805.334	6.47
805.645	6.99
805.955	6.82
806.265	7.17
806.575	7.24
806.885	7.22
807.195	7.56
807.505	7.56
807.815	7.56
808.125	7.1
808.435	7.15
808.745	7.08
809.055	6.73
809.365	6.47
809.674	6.63
809.984	5.8
810.294	5.34
810.603	5.53
810.913	5
811.222	5.46
811.532	5.81
811.841	5.55
812.151	5.33
812.46	5.28
812.769	4.4
813.079	4.46
813.388	3.92
813.697	4.01
814.006	4.86
814.315	5.54
814.624	5.79
814.933	5.97
815.242	5.57
815.551	5.68
815.86	6.28
816.169	5.27
816.478	5.63
816.786	6.46
817.095	7.45
817.404	7.45
817.712	7.49
818.021	8.03
818.33	7.82
818.638	8.28
818.947	7.84
819.255	7.54
819.563	7.28
819.872	7.55
820.18	7.57
820.488	7.32
820.796	7.47
821.105	7.73
821.413	7.55
821.721	7.59
822.029	7.66
822.337	7.75
822.645	8.19
822.953	8.38
823.26	8.35
823.568	8.16
823.876	8.33
824.184	8.23
824.491	8.03
824.799	8.09
825.107	7.84
825.414	7.98
825.722	8.06
826.029	7.99
826.337	8.14
826.644	7.97
826.951	8.01
827.259	7.84
827.566	7.7
827.873	8.02
828.18	8.14
828.488	8.08
828.795	7.97
829.102	7.75
829.409	7.3
829.716	7.35
830.023	7.15
830.329	6.97
830.636	6.86
830.943	6.6
831.25	6.66
831.557	6.98
831.863	6.82
832.17	7.11
832.476	7.54
832.783	7.3
833.089	7.4
833.396	7.03
833.702	7.25
834.009	7.43
834.315	7.28
834.621	7.3
834.928	6.97
835.234	7.02
835.54	7.3
835.846	7.94
836.152	7.23
836.458	7.6
836.764	7.71
837.07	7.81
837.376	8.41
837.682	7.8
837.988	8.05
838.293	8.27
838.599	7.94
838.905	7.88
839.211	8.19
839.516	8.38
839.822	8.54
840.127	8.77
840.433	8.78
840.738	8.69
841.044	8.64
841.349	9.51
841.654	8.41
841.959	8.06
842.265	6.71
842.57	7.84
842.875	7.3
843.18	7.65
843.485	6.76
843.79	6.55
844.095	7.83
844.4	6.77
844.705	6.23
845.01	6.47
845.315	6.22
845.619	5.31
845.924	4.43
846.229	3.69
846.533	3.48
846.838	2.09
847.142	1.72
847.447	0.85
847.751	0.2
848.056	2.55
848.36	1.68
848.664	2.57
848.969	1.1
849.273	2.5
849.577	1.84
849.881	1.73
850.185	0.92
850.489	-0.21
850.794	0.91
851.097	1.59
851.401	0.62
851.705	-0.41
852.009	1.07
852.313	0.04
852.617	1.21
852.92	2.19
853.224	4.2
853.528	3.9
853.831	5.56
854.135	5.68
854.438	3.36
854.742	4.17
855.045	4.48
855.349	6.22
855.652	5.55
855.955	5.68
856.259	6.45
856.562	8.85
856.865	8.88
857.168	7.49
857.471	7.87
857.774	8.64
858.077	9.09
858.38	7.63
858.683	10.37
858.986	9.61
859.289	8.86
859.592	7.65
859.894	8.4
860.197	6.76
860.5	7.49
860.802	8.64
861.105	9.95
861.407	9.34
861.71	7.79
862.012	6.45
862.315	7.5
862.617	9.33
862.919	11.11
863.222	12.55
863.524	13.31
863.826	12.34
864.128	12.45
864.43	12.11
864.732	12.47
865.034	13.15
865.336	12.62
865.638	11.35
865.94	9.97
866.242	10.33
866.544	11.75
866.846	11.52
867.147	14.25
867.449	11.97
867.751	12.83
868.052	12.06
868.354	14.18
868.655	14.01
868.957	11.55
869.258	6.59
869.56	5.12
869.861	5.14
870.162	5.94
870.463	3.24
870.765	3.7
871.066	4.03
871.367	2.85
871.668	2.49
871.969	-0
872.27	-0.05
872.571	-0.05
872.872	-2.17
873.173	-1.21
873.473	-5.27
873.774	-3.55
874.075	-2.68
874.376	0.19
874.676	-0.65
874.977	-0.09
875.277	1.38
875.578	3.92
875.878	3.98
876.179	4.16
876.479	3.33
876.78	6.4
877.08	6.46
877.38	5.89
877.68	6.08
877.981	8.61
878.281	13.96
878.581	17.35
