Data from MVZ_BU8943_Reflection_00007.txt Node
Date: Tue Nov 19 12:09:11 EST 2019
User: vgr7
Spectrometer: USB2G7710
Scans to average: 3
Trigger mode: 4
Integration Time (sec): 2.000000E-2
Electric dark correction enabled: true
Boxcar width: 10
XAxis mode: Wavelengths
Number of Pixels in Spectrum: 2048
>>>>>Begin Spectral Data<<<<<
177.721	200.49
178.105	302.13
178.488	-203.41
178.871	-136.99
179.254	-417.65
179.636	-355.62
180.019	-91.52
180.402	-20
180.785	-29.87
181.168	-26.9
181.55	-1.51
181.933	39.31
182.316	5.71
182.698	22100
183.081	-273.49
183.463	-27.82
183.846	7.28
184.228	36.71
184.611	49.42
184.993	-0.66
185.376	-15.01
185.758	11.32
186.14	-44.37
186.522	-51.04
186.904	-50.26
187.287	-19.94
187.669	-11.82
188.051	-40.85
188.433	-54.42
188.815	-36.83
189.197	-51.83
189.579	-41.88
189.961	-50.93
190.342	-29.59
190.724	-44.8
191.106	-54.61
191.488	-57.62
191.869	-43.3
192.251	-36.19
192.633	-51.19
193.014	-51.91
193.396	-78.45
193.777	-99.25
194.159	-55.87
194.54	-15.34
194.922	-5.26
195.303	-48.2
195.684	-413.27
196.065	-410.95
196.447	61100
196.828	836.26
197.209	-3311.76
197.59	227.42
197.971	184.47
198.352	212.94
198.733	542.21
199.114	761.65
199.495	-755.49
199.876	-1073.65
200.257	-402.81
200.638	-514.25
201.018	-723.71
201.399	-374.67
201.78	-390.61
202.16	-525.32
202.541	-971.13
202.922	-2101.68
203.302	-1790.51
203.683	-1235.14
204.063	-397.09
204.444	-288.98
204.824	-240.69
205.204	-294.97
205.585	-126.28
205.965	-137.65
206.345	-110.7
206.725	-81.94
207.106	2.35
207.486	-19.75
207.866	30.2
208.246	35.72
208.626	6.3
209.006	111.6
209.386	112.47
209.766	137.36
210.145	109.38
210.525	97.01
210.905	-58.8
211.285	-170.94
211.664	-70.87
212.044	-474.26
212.424	-289.26
212.803	220.14
213.183	603.45
213.562	789.66
213.942	1880.82
214.321	-791.63
214.701	4169.77
215.08	7390.32
215.459	-1959.41
215.838	1808.66
216.218	351.18
216.597	408.2
216.976	545.04
217.355	3460.66
217.734	-4188.14
218.113	1188.76
218.492	-15809.09
218.871	-732.43
219.25	-483.76
219.629	-1017.65
220.008	-197.3
220.387	-184.08
220.766	-92.92
221.144	-93.49
221.523	-122.84
221.902	-72.05
222.28	-65.42
222.659	-31.07
223.037	-16.97
223.416	-13.65
223.794	-4.89
224.173	-10.21
224.551	-13.37
224.929	-15.67
225.308	-15.55
225.686	-16.79
226.064	-20.35
226.442	-22.29
226.821	-18.3
227.199	-20.65
227.577	-16.31
227.955	-14.59
228.333	-16.4
228.711	-19.66
229.089	-15.05
229.467	-15.85
229.845	-16.47
230.222	-16.33
230.6	-14.09
230.978	-16.18
231.356	-16
231.733	-12.29
232.111	-10.18
232.488	-9.16
232.866	-2.07
233.243	-2.8
233.621	-1.46
233.998	-1.7
234.376	2.53
234.753	3.95
235.13	1.3
235.508	1.79
235.885	1.15
236.262	2.62
236.639	2.27
237.016	1.15
237.393	3.79
237.77	2.97
238.147	3.51
238.524	2.09
238.901	0.69
239.278	0.34
239.655	-0.49
240.032	-0.11
240.409	-0.39
240.785	-2.06
241.162	-1.59
241.539	-0.52
241.915	-0.21
242.292	0.7
242.668	0.49
243.045	1.66
243.421	1.81
243.798	2.25
244.174	2.53
244.551	3.07
244.927	2.95
245.303	2.62
245.679	2.99
246.056	3.04
246.432	3.14
246.808	3.43
247.184	3.57
247.56	3.5
247.936	3.67
248.312	3.64
248.688	3.66
249.064	3.63
249.44	3.34
249.815	3.46
250.191	3.22
250.567	3.32
250.943	3.33
251.318	3.28
251.694	3.25
252.069	2.74
252.445	2.44
252.82	2.96
253.196	3.01
253.571	2.88
253.947	3.14
254.322	2.85
254.697	3.21
255.073	3.24
255.448	3.54
255.823	3.23
256.198	3.25
256.573	3.47
256.948	3.7
257.323	3.72
257.698	3.68
258.073	3.52
258.448	3.25
258.823	2.9
259.198	3.07
259.573	2.96
259.948	3.05
260.322	2.93
260.697	2.92
261.072	3.11
261.446	3.17
261.821	3.05
262.195	3.12
262.57	3
262.944	2.74
263.319	2.73
263.693	2.81
264.067	2.8
264.442	2.52
264.816	2.24
265.19	2.14
265.564	1.81
265.938	1.7
266.313	1.78
266.687	2.09
267.061	1.99
267.435	2.18
267.809	2.25
268.183	2.55
268.556	2.6
268.93	2.46
269.304	2.04
269.678	2.13
270.051	2.21
270.425	2.15
270.799	2.1
271.172	1.94
271.546	1.97
271.919	2.19
272.293	2.41
272.666	2.58
273.04	2.64
273.413	2.78
273.787	2.94
274.16	3.07
274.533	3.12
274.906	3.26
275.279	3.09
275.653	3.14
276.026	3.22
276.399	3.1
276.772	3.12
277.145	3.57
277.518	3.33
277.891	3.3
278.263	3.44
278.636	3.72
279.009	3.83
279.382	3.72
279.755	3.51
280.127	3.46
280.5	3.12
280.872	3.05
281.245	3.17
281.617	2.96
281.99	3
282.362	2.9
282.735	2.81
283.107	2.86
283.479	2.99
283.852	2.8
284.224	3.01
284.596	2.97
284.968	2.91
285.34	3.03
285.713	3.13
286.085	2.82
286.457	2.75
286.829	2.9
287.201	2.95
287.572	2.97
287.944	3.1
288.316	3.27
288.688	3.51
289.06	3.49
289.431	3.56
289.803	3.53
290.175	3.47
290.546	3.54
290.918	3.67
291.289	3.39
291.661	3.5
292.032	3.26
292.403	3.27
292.775	3.37
293.146	3.43
293.517	3.28
293.889	3.49
294.26	3.52
294.631	3.45
295.002	3.5
295.373	3.41
295.744	3.34
296.115	3.33
296.486	3.39
296.857	3.34
297.228	3.42
297.599	3.49
297.97	3.48
298.34	3.33
298.711	3.26
299.082	3.46
299.452	3.35
299.823	3.4
300.194	3.42
300.564	3.34
300.935	3.2
301.305	3.33
301.676	3.37
302.046	3.34
302.416	3.4
302.787	3.43
303.157	3.48
303.527	3.52
303.897	3.62
304.267	3.54
304.637	3.77
305.008	3.75
305.378	3.68
305.748	3.68
306.117	3.86
306.487	3.84
306.857	3.89
307.227	4.21
307.597	4.34
307.967	4.43
308.336	4.42
308.706	4.64
309.076	4.79
309.445	4.88
309.815	4.8
310.184	4.86
310.554	4.81
310.923	4.85
311.293	4.94
311.662	4.93
312.031	4.78
312.401	4.61
312.77	4.74
313.139	4.77
313.508	4.89
313.877	5
314.246	5.12
314.616	5.14
314.985	4.99
315.353	4.97
315.722	5.06
316.091	5.04
316.46	4.96
316.829	5.02
317.198	4.95
317.567	5.18
317.935	5
318.304	5.1
318.672	5.22
319.041	5.2
319.41	5.14
319.778	5.19
320.147	5.2
320.515	5.08
320.883	5.23
321.252	5.2
321.62	5.28
321.988	5.32
322.357	5.29
322.725	5.31
323.093	5.27
323.461	5.2
323.829	5.41
324.197	5.5
324.565	5.37
324.933	5.34
325.301	5.25
325.669	5.34
326.037	5.39
326.405	5.44
326.772	5.38
327.14	5.39
327.508	5.53
327.875	5.76
328.243	5.8
328.61	5.59
328.978	5.57
329.346	5.45
329.713	5.43
330.08	5.41
330.448	5.41
330.815	5.36
331.182	5.3
331.55	5.35
331.917	5.38
332.284	5.48
332.651	5.58
333.018	5.7
333.385	5.65
333.752	5.66
334.119	5.63
334.486	5.67
334.853	5.7
335.22	5.69
335.587	5.53
335.954	5.59
336.32	5.62
336.687	5.74
337.054	5.68
337.42	5.68
337.787	5.63
338.153	5.74
338.52	5.86
338.886	5.97
339.253	5.86
339.619	5.84
339.986	5.87
340.352	5.93
340.718	5.93
341.084	6.22
341.451	6.21
341.817	6.32
342.183	6.41
342.549	6.53
342.915	6.46
343.281	6.48
343.647	6.55
344.013	6.65
344.379	6.6
344.745	6.65
345.11	6.69
345.476	6.83
345.842	6.8
346.208	6.82
346.573	6.81
346.939	6.9
347.304	6.95
347.67	6.95
348.035	6.84
348.401	7.03
348.766	6.87
349.132	6.92
349.497	6.86
349.862	6.76
350.228	6.7
350.593	6.75
350.958	6.89
351.323	6.7
351.688	6.84
352.053	6.86
352.418	6.83
352.783	6.81
353.148	6.75
353.513	6.72
353.878	6.69
354.243	6.61
354.608	6.56
354.972	6.5
355.337	6.45
355.702	6.57
356.066	6.46
356.431	6.46
356.795	6.45
357.16	6.42
357.524	6.53
357.889	6.58
358.253	6.51
358.618	6.43
358.982	6.47
359.346	6.44
359.71	6.48
360.075	6.51
360.439	6.53
360.803	6.57
361.167	6.55
361.531	6.53
361.895	6.6
362.259	6.64
362.623	6.69
362.987	6.69
363.351	6.69
363.714	6.7
364.078	6.65
364.442	6.62
364.806	6.67
365.169	6.61
365.533	6.63
365.896	6.7
366.26	6.66
366.623	6.66
366.987	6.6
367.35	6.6
367.714	6.61
368.077	6.64
368.44	6.6
368.803	6.58
369.167	6.5
369.53	6.47
369.893	6.44
370.256	6.4
370.619	6.34
370.982	6.23
371.345	6.16
371.708	6.09
372.071	6.05
372.434	5.95
372.797	5.97
373.159	5.9
373.522	5.9
373.885	5.94
374.247	5.87
374.61	5.85
374.973	5.78
375.335	5.74
375.698	5.61
376.06	5.58
376.423	5.64
376.785	5.67
377.147	5.6
377.51	5.51
377.872	5.51
378.234	5.51
378.596	5.47
378.958	5.46
379.321	5.43
379.683	5.49
380.045	5.47
380.407	5.4
380.769	5.33
381.13	5.27
381.492	5.18
381.854	5.22
382.216	5.26
382.578	5.29
382.939	5.21
383.301	5.24
383.663	5.24
384.024	5.16
384.386	5.17
384.747	5.17
385.109	5.16
385.47	5.11
385.832	5.1
386.193	5.12
386.554	5.05
386.916	5.14
387.277	5.02
387.638	5
387.999	4.95
388.36	4.95
388.721	4.91
389.082	4.89
389.443	4.87
389.804	4.85
390.165	4.79
390.526	4.8
390.887	4.77
391.248	4.75
391.609	4.76
391.969	4.77
392.33	4.76
392.691	4.79
393.051	4.76
393.412	4.74
393.772	4.75
394.133	4.79
394.493	4.7
394.854	4.74
395.214	4.74
395.574	4.73
395.935	4.73
396.295	4.76
396.655	4.76
397.015	4.73
397.376	4.68
397.736	4.66
398.096	4.62
398.456	4.59
398.816	4.59
399.176	4.53
399.535	4.44
399.895	4.46
400.255	4.42
400.615	4.45
400.975	4.43
401.334	4.35
401.694	4.33
402.054	4.36
402.413	4.32
402.773	4.33
403.132	4.31
403.492	4.29
403.851	4.21
404.211	4.24
404.57	4.24
404.929	4.22
405.288	4.23
405.648	4.22
406.007	4.22
406.366	4.23
406.725	4.23
407.084	4.25
407.443	4.21
407.802	4.18
408.161	4.15
408.52	4.13
408.879	4.17
409.238	4.16
409.596	4.17
409.955	4.18
410.314	4.16
410.673	4.17
411.031	4.15
411.39	4.17
411.748	4.14
412.107	4.12
412.465	4.11
412.824	4.08
413.182	4.08
413.54	4.07
413.899	4.03
414.257	4.04
414.615	3.99
414.974	4
415.332	3.99
415.69	3.99
416.048	3.98
416.406	3.94
416.764	3.92
417.122	3.9
417.48	3.9
417.838	3.89
418.195	3.86
418.553	3.87
418.911	3.87
419.269	3.86
419.626	3.85
419.984	3.84
420.342	3.83
420.699	3.82
421.057	3.8
421.414	3.8
421.772	3.81
422.129	3.8
422.486	3.79
422.844	3.77
423.201	3.77
423.558	3.75
423.915	3.77
424.273	3.76
424.63	3.76
424.987	3.73
425.344	3.73
425.701	3.73
426.058	3.72
426.415	3.7
426.772	3.69
427.128	3.7
427.485	3.69
427.842	3.68
428.199	3.68
428.555	3.68
428.912	3.66
429.269	3.64
429.625	3.66
429.982	3.65
430.338	3.66
430.695	3.65
431.051	3.67
431.407	3.65
431.764	3.64
432.12	3.63
432.476	3.65
432.832	3.64
433.189	3.65
433.545	3.64
433.901	3.66
434.257	3.64
434.613	3.61
434.969	3.63
435.325	3.64
435.681	3.63
436.036	3.64
436.392	3.64
436.748	3.66
437.104	3.65
437.459	3.65
437.815	3.62
438.171	3.63
438.526	3.63
438.882	3.63
439.237	3.62
439.593	3.63
439.948	3.64
440.304	3.63
440.659	3.63
441.014	3.61
441.369	3.59
441.725	3.6
442.08	3.61
442.435	3.63
442.79	3.63
443.145	3.63
443.5	3.64
443.855	3.63
444.21	3.62
444.565	3.63
444.92	3.65
445.275	3.68
445.629	3.67
445.984	3.66
446.339	3.66
446.693	3.67
447.048	3.64
447.403	3.62
447.757	3.63
448.112	3.63
448.466	3.64
448.82	3.66
449.175	3.66
449.529	3.67
449.883	3.65
450.238	3.64
450.592	3.63
450.946	3.62
451.3	3.63
451.654	3.63
452.008	3.62
452.362	3.58
452.716	3.57
453.07	3.55
453.424	3.54
453.778	3.53
454.132	3.55
454.486	3.55
454.839	3.54
455.193	3.53
455.547	3.53
455.9	3.53
456.254	3.52
456.607	3.52
456.961	3.52
457.314	3.51
457.668	3.5
458.021	3.5
458.375	3.5
458.728	3.48
459.081	3.47
459.434	3.45
459.787	3.49
460.141	3.5
460.494	3.52
460.847	3.52
461.2	3.55
461.553	3.54
461.906	3.57
462.259	3.59
462.611	3.59
462.964	3.6
463.317	3.6
463.67	3.6
464.022	3.6
464.375	3.6
464.728	3.6
465.08	3.6
465.433	3.62
465.785	3.62
466.138	3.66
466.49	3.67
466.843	3.71
467.195	3.7
467.547	3.67
467.899	3.68
468.252	3.7
468.604	3.7
468.956	3.69
469.308	3.68
469.66	3.68
470.012	3.69
470.364	3.69
470.716	3.69
471.068	3.7
471.42	3.72
471.772	3.73
472.123	3.76
472.475	3.8
472.827	3.82
473.178	3.85
473.53	3.83
473.882	3.84
474.233	3.85
474.585	3.84
474.936	3.88
475.288	3.89
475.639	3.87
475.99	3.86
476.342	3.88
476.693	3.91
477.044	3.93
477.395	3.91
477.746	3.91
478.097	3.91
478.448	3.89
478.8	3.88
479.15	3.86
479.501	3.84
479.852	3.83
480.203	3.83
480.554	3.83
480.905	3.84
481.255	3.84
481.606	3.83
481.957	3.82
482.307	3.82
482.658	3.82
483.009	3.82
483.359	3.83
483.709	3.82
484.06	3.82
484.41	3.82
484.761	3.83
485.111	3.83
485.461	3.83
485.811	3.84
486.162	3.84
486.512	3.85
486.862	3.86
487.212	3.87
487.562	3.88
487.912	3.88
488.262	3.87
488.612	3.87
488.961	3.87
489.311	3.87
489.661	3.89
490.011	3.89
490.36	3.89
490.71	3.89
491.06	3.89
491.409	3.88
491.759	3.88
492.108	3.89
492.458	3.91
492.807	3.92
493.157	3.93
493.506	3.94
493.855	3.95
494.204	3.95
494.554	3.97
494.903	3.98
495.252	3.99
495.601	4.01
495.95	4.04
496.299	4.04
496.648	4.07
496.997	4.07
497.346	4.11
497.695	4.14
498.043	4.2
498.392	4.23
498.741	4.28
499.09	4.32
499.438	4.33
499.787	4.36
500.135	4.39
500.484	4.44
500.832	4.47
501.181	4.51
501.529	4.55
501.878	4.57
502.226	4.63
502.574	4.68
502.923	4.72
503.271	4.78
503.619	4.87
503.967	4.93
504.315	4.98
504.663	5.03
505.011	5.09
505.359	5.09
505.707	5.13
506.055	5.2
506.403	5.25
506.751	5.32
507.098	5.42
507.446	5.48
507.794	5.56
508.141	5.62
508.489	5.7
508.837	5.76
509.184	5.83
509.531	5.9
509.879	5.98
510.226	6.06
510.574	6.16
510.921	6.23
511.268	6.32
511.616	6.41
511.963	6.48
512.31	6.58
512.657	6.7
513.004	6.81
513.351	6.92
513.698	7.03
514.045	7.13
514.392	7.21
514.739	7.32
515.086	7.44
515.432	7.56
515.779	7.64
516.126	7.77
516.473	7.86
516.819	7.94
517.166	8.06
517.512	8.19
517.859	8.27
518.205	8.35
518.552	8.46
518.898	8.56
519.245	8.68
519.591	8.79
519.937	8.9
520.283	9.01
520.629	9.14
520.976	9.27
521.322	9.4
521.668	9.54
522.014	9.66
522.36	9.8
522.706	9.94
523.052	10.12
523.398	10.31
523.743	10.49
524.089	10.67
524.435	10.81
524.781	10.96
525.126	11.09
525.472	11.23
525.817	11.33
526.163	11.44
526.509	11.53
526.854	11.63
527.199	11.71
527.545	11.79
527.89	11.89
528.235	11.98
528.581	12.08
528.926	12.18
529.271	12.29
529.616	12.38
529.961	12.48
530.306	12.59
530.651	12.68
530.996	12.79
531.341	12.93
531.686	13.04
532.031	13.15
532.376	13.3
532.721	13.43
533.065	13.57
533.41	13.7
533.755	13.84
534.099	13.97
534.444	14.13
534.788	14.26
535.133	14.38
535.477	14.52
535.822	14.65
536.166	14.78
536.51	14.94
536.855	15.11
537.199	15.3
537.543	15.47
537.887	15.65
538.231	15.83
538.576	16.01
538.92	16.19
539.264	16.36
539.608	16.52
539.951	16.67
540.295	16.82
540.639	16.97
540.983	17.13
541.327	17.3
541.671	17.46
542.014	17.61
542.358	17.74
542.701	17.88
543.045	18.02
543.389	18.17
543.732	18.32
544.075	18.45
544.419	18.59
544.762	18.71
545.105	18.85
545.449	19.03
545.792	19.18
546.135	19.36
546.478	19.52
546.821	19.71
547.165	19.92
547.508	20.11
547.851	20.33
548.194	20.51
548.536	20.65
548.879	20.82
549.222	21
549.565	21.21
549.908	21.41
550.25	21.63
550.593	21.83
550.936	22.02
551.278	22.25
551.621	22.44
551.963	22.65
552.306	22.82
552.648	22.99
552.991	23.21
553.333	23.36
553.675	23.57
554.017	23.72
554.36	23.89
554.702	24.08
555.044	24.23
555.386	24.4
555.728	24.59
556.07	24.75
556.412	24.9
556.754	25.07
557.096	25.27
557.438	25.44
557.78	25.58
558.121	25.72
558.463	25.86
558.805	26.04
559.147	26.21
559.488	26.45
559.83	26.59
560.171	26.7
560.513	26.84
560.854	27.03
561.196	27.18
561.537	27.31
561.878	27.46
562.22	27.57
562.561	27.67
562.902	27.82
563.243	28.02
563.584	28.25
563.925	28.38
564.266	28.53
564.607	28.72
564.948	28.89
565.289	29.03
565.63	29.16
565.971	29.3
566.312	29.42
566.653	29.5
566.993	29.64
567.334	29.79
567.675	29.94
568.015	30.07
568.356	30.17
568.696	30.3
569.037	30.42
569.377	30.59
569.718	30.74
570.058	30.86
570.398	30.93
570.739	30.98
571.079	31.09
571.419	31.13
571.759	31.17
572.099	31.27
572.439	31.36
572.779	31.47
573.119	31.52
573.459	31.62
573.799	31.69
574.139	31.75
574.479	31.84
574.819	31.91
575.158	31.92
575.498	31.97
575.838	32.11
576.177	32.17
576.517	32.21
576.856	32.32
577.196	32.39
577.535	32.45
577.875	32.53
578.214	32.65
578.553	32.78
578.893	32.93
579.232	32.97
579.571	33.11
579.91	33.21
580.25	33.32
580.589	33.4
580.928	33.54
581.267	33.66
581.606	33.72
581.945	33.76
582.283	33.83
582.622	33.99
582.961	33.98
583.3	34.09
583.639	34.16
583.977	34.21
584.316	34.28
584.654	34.37
584.993	34.45
585.332	34.5
585.67	34.56
586.008	34.53
586.347	34.7
586.685	34.66
587.024	34.73
587.362	34.74
587.7	34.76
588.038	34.86
588.376	34.96
588.715	35.04
589.053	35.1
589.391	35.15
589.729	35.21
590.067	35.26
590.404	35.26
590.742	35.37
591.08	35.46
591.418	35.54
591.756	35.63
592.093	35.68
592.431	35.76
592.769	35.84
593.106	35.91
593.444	36
593.781	36.02
594.119	36.09
594.456	36.14
594.793	36.27
595.131	36.25
595.468	36.29
595.805	36.41
596.143	36.5
596.48	36.62
596.817	36.67
597.154	36.77
597.491	36.8
597.828	36.84
598.165	36.81
598.502	36.8
598.839	36.8
599.176	36.83
599.512	36.82
599.849	36.89
600.186	36.91
600.523	36.9
600.859	37.04
601.196	37.1
601.532	37.14
601.869	37.11
602.205	37.24
602.542	37.22
602.878	37.21
603.215	37.27
603.551	37.28
603.887	37.29
604.223	37.29
604.56	37.36
604.896	37.34
605.232	37.42
605.568	37.52
605.904	37.52
606.24	37.61
606.576	37.7
606.912	37.67
607.248	37.77
607.583	37.77
607.919	37.75
608.255	37.72
608.591	37.76
608.926	37.86
609.262	37.84
609.597	37.83
609.933	37.84
610.268	37.85
610.604	37.95
610.939	37.97
611.275	38.02
611.61	38.1
611.945	38.09
612.281	38.11
612.616	38.1
612.951	38.23
613.286	38.26
613.621	38.24
613.956	38.25
614.291	38.18
614.626	38.23
614.961	38.24
615.296	38.33
615.631	38.43
615.966	38.45
616.3	38.47
616.635	38.55
616.97	38.51
617.304	38.56
617.639	38.45
617.973	38.54
618.308	38.55
618.642	38.54
618.977	38.61
619.311	38.63
619.646	38.74
619.98	38.69
620.314	38.68
620.648	38.75
620.983	38.76
621.317	38.89
621.651	38.89
621.985	39.03
622.319	39.08
622.653	39.17
622.987	39.2
623.321	39.19
623.655	39.21
623.988	39.27
624.322	39.22
624.656	39.33
624.99	39.3
625.323	39.2
625.657	39.2
625.99	39.23
626.324	39.28
626.657	39.25
626.991	39.24
627.324	39.29
627.658	39.34
627.991	39.4
628.324	39.36
628.657	39.4
628.991	39.34
629.324	39.31
629.657	39.15
629.99	39.16
630.323	39.15
630.656	39.08
630.989	39.09
631.322	39.11
631.655	39.1
631.987	39.13
632.32	39.27
632.653	39.36
632.986	39.44
633.318	39.44
633.651	39.45
633.984	39.6
634.316	39.57
634.649	39.52
634.981	39.56
635.313	39.64
635.646	39.6
635.978	39.65
636.31	39.66
636.643	39.73
636.975	39.76
637.307	39.74
637.639	39.87
637.971	39.85
638.303	39.85
638.635	39.94
638.967	40.04
639.299	40.01
639.631	40
639.963	40.03
640.295	40.02
640.626	39.95
640.958	39.95
641.29	39.92
641.621	39.94
641.953	39.89
642.285	39.95
642.616	39.96
642.948	40.02
643.279	39.97
643.61	39.98
643.942	40.02
644.273	40.15
644.604	40.15
644.936	40.22
645.267	40.24
645.598	40.09
645.929	39.95
646.26	39.98
646.591	39.94
646.922	39.93
647.253	40.04
647.584	40.18
647.915	40.08
648.245	40.1
648.576	40.08
648.907	40.17
649.238	40.09
649.568	40.09
649.899	39.99
650.229	40.08
650.56	40.14
650.89	40.21
651.221	40.15
651.551	40.25
651.882	40.24
652.212	40.28
652.542	40.37
652.872	40.37
653.203	40.34
653.533	40.42
653.863	40.38
654.193	40.33
654.523	40.29
654.853	40.31
655.183	40.37
655.513	40.47
655.843	40.45
656.172	40.54
656.502	40.68
656.832	40.73
657.162	40.67
657.491	40.62
657.821	40.48
658.15	40.47
658.48	40.42
658.809	40.49
659.139	40.55
659.468	40.65
659.798	40.75
660.127	40.84
660.456	40.85
660.785	40.93
661.115	40.92
661.444	40.93
661.773	40.93
662.102	40.95
662.431	40.89
662.76	40.84
663.089	40.79
663.418	40.79
663.747	40.87
664.076	41.01
664.404	41.13
664.733	41.22
665.062	41.21
665.39	41.33
665.719	41.22
666.048	41.12
666.376	41.09
666.705	41.12
667.033	41.15
667.362	41.22
667.69	41.03
668.018	40.95
668.347	41.01
668.675	41.08
669.003	41.07
669.331	41.08
669.659	41.15
669.987	41.12
670.315	41.07
670.643	41
670.971	40.9
671.299	40.8
671.627	40.84
671.955	40.91
672.283	40.82
672.61	41.03
672.938	41.16
673.266	41.02
673.593	40.9
673.921	40.84
674.249	40.64
674.576	40.74
674.904	40.9
675.231	40.77
675.558	40.85
675.886	40.88
676.213	40.89
676.54	40.98
676.867	40.98
677.195	41.04
677.522	41.05
677.849	41.17
678.176	41.29
678.503	41.22
678.83	41.32
679.157	41.39
679.484	41.25
679.81	41.22
680.137	41.34
680.464	41.4
680.791	41.37
681.117	41.53
681.444	41.45
681.771	41.41
682.097	41.5
682.424	41.45
682.75	41.48
683.077	41.55
683.403	41.57
683.729	41.59
684.056	41.61
684.382	41.68
684.708	41.68
685.034	41.63
685.36	41.64
685.686	41.62
686.012	41.67
686.339	41.6
686.664	41.56
686.99	41.48
687.316	41.46
687.642	41.51
687.968	41.49
688.294	41.58
688.619	41.53
688.945	41.56
689.271	41.58
689.596	41.59
689.922	41.55
690.247	41.5
690.573	41.49
690.898	41.51
691.224	41.4
691.549	41.43
691.874	41.38
692.2	41.48
692.525	41.37
692.85	41.24
693.175	41.14
693.5	41.03
693.825	41.02
694.15	40.97
694.475	40.94
694.8	40.92
695.125	41.03
695.45	41.1
695.775	41.13
696.099	41.16
696.424	41.25
696.749	41.31
697.073	41.37
697.398	41.5
697.723	41.45
698.047	41.39
698.372	41.32
698.696	41.43
699.02	41.38
699.345	41.48
699.669	41.65
699.993	41.94
700.318	42.05
700.642	42.23
700.966	42.39
701.29	42.51
701.614	42.56
701.938	42.64
702.262	42.78
702.586	42.74
702.91	42.7
703.234	42.62
703.557	42.66
703.881	42.57
704.205	42.55
704.529	42.46
704.852	42.53
705.176	42.68
705.499	42.57
705.823	42.8
706.146	42.8
706.47	42.7
706.793	42.75
707.117	42.82
707.44	42.71
707.763	42.61
708.086	42.56
708.409	42.62
708.733	42.42
709.056	42.41
709.379	42.6
709.702	42.63
710.025	42.64
710.348	42.74
710.671	42.8
710.993	42.82
711.316	42.97
711.639	43.16
711.962	43.15
712.284	43.31
712.607	43.23
712.93	43.18
713.252	43.15
713.575	42.95
713.897	43.03
714.22	43.04
714.542	43.12
714.864	43.18
715.187	43.21
715.509	43.42
715.831	43.36
716.153	43.2
716.475	43.38
716.798	43.42
717.12	43.38
717.442	43.31
717.764	43.16
718.085	43.41
718.407	43.41
718.729	43.43
719.051	43.33
719.373	43.1
719.695	42.94
720.016	42.9
720.338	42.97
720.659	42.82
720.981	42.84
721.302	42.93
721.624	42.68
721.945	42.58
722.267	42.52
722.588	42.49
722.909	42.48
723.231	42.41
723.552	42.54
723.873	42.67
724.194	42.83
724.515	42.94
724.836	42.57
725.157	42.57
725.478	42.61
725.799	42.39
726.12	42.42
726.441	42.61
726.762	42.66
727.083	42.45
727.403	42.65
727.724	42.83
728.045	42.69
728.365	42.81
728.686	42.81
729.006	42.96
729.327	43.06
729.647	43.15
729.967	43.17
730.288	42.93
730.608	42.81
730.928	42.8
731.249	42.87
731.569	43.05
731.889	42.92
732.209	43.17
732.529	43.55
732.849	43.76
733.169	43.53
733.489	43.53
733.809	43.85
734.129	44.06
734.448	44.15
734.768	44.16
735.088	44.33
735.408	44.14
735.727	43.98
736.047	44.04
736.366	44.16
736.686	44.22
737.005	44.38
737.325	44.49
737.644	44.52
737.963	44.48
738.283	44.16
738.602	44.23
738.921	44.06
739.24	43.83
739.56	43.61
739.879	43.91
740.198	44
740.517	43.9
740.836	43.51
741.155	43.33
741.473	43.18
741.792	43.12
742.111	43.46
742.43	43.52
742.748	43.36
743.067	43.25
743.386	42.93
743.704	43.13
744.023	42.9
744.341	42.91
744.66	42.64
744.978	42.92
745.297	42.95
745.615	42.89
745.933	43.07
746.252	43.23
746.57	43.49
746.888	43.21
747.206	43.15
747.524	43.18
747.842	43.09
748.16	42.94
748.478	42.9
748.796	42.73
749.114	42.36
749.432	42.16
749.749	42.02
750.067	42
750.385	42.17
750.703	42.41
751.02	42.34
751.338	42.59
751.655	42.47
751.973	42.45
752.29	42.3
752.608	42.11
752.925	42.07
753.242	41.97
753.56	41.85
753.877	41.88
754.194	41.82
754.511	41.86
754.828	42.02
755.145	42.01
755.462	42.03
755.779	42.46
756.096	42.64
756.413	42.87
756.73	43.39
757.047	43.19
757.364	43.3
757.68	43.13
757.997	43.54
758.314	43.89
758.63	43.92
758.947	43.96
759.264	44.02
759.58	44.14
759.896	44.03
760.213	44.44
760.529	44.48
760.846	44.59
761.162	44.27
761.478	44.34
761.794	44.35
762.11	44.21
762.426	44.29
762.743	44.28
763.059	44.44
763.375	44.39
763.69	44.07
764.006	43.93
764.322	43.91
764.638	43.63
764.954	43.23
765.27	43.23
765.585	43.14
765.901	43.11
766.216	43.2
766.532	43.06
766.848	42.63
767.163	42.51
767.478	42.34
767.794	42.54
768.109	42.41
768.424	42.58
768.74	42.8
769.055	42.58
769.37	42.45
769.685	42.11
770	41.88
770.315	42.07
770.63	42.29
770.945	42.7
771.26	42.75
771.575	42.87
771.89	42.51
772.205	42.48
772.52	42.55
772.834	42.61
773.149	42.58
773.464	42.73
773.778	43.13
774.093	43.45
774.407	43.67
774.722	43.98
775.036	43.91
775.351	43.83
775.665	43.78
775.979	43.86
776.293	44.34
776.608	43.95
776.922	44.21
777.236	43.56
777.55	43.63
777.864	44.1
778.178	44.48
778.492	44.92
778.806	45.03
779.12	45.17
779.434	44.63
779.747	45.03
780.061	45.23
780.375	44.92
780.689	45.12
781.002	45.55
781.316	45.42
781.629	45.38
781.943	45.9
782.256	45.84
782.57	45.92
782.883	45.99
783.196	46.16
783.51	45.94
783.823	46.27
784.136	45.65
784.449	45.44
784.762	45.17
785.075	45.34
785.388	45.56
785.701	45.4
786.014	45.77
786.327	45.89
786.64	45.74
786.953	45.92
787.266	45.56
787.578	45.03
787.891	44.97
788.204	45.25
788.516	44.99
788.829	44.87
789.141	45.04
789.454	44.14
789.766	44.53
790.079	44.68
790.391	44.35
790.703	44.28
791.016	44.49
791.328	44.41
791.64	43.94
791.952	43.66
792.264	43.57
792.576	43.83
792.888	43.85
793.2	44.33
793.512	43.6
793.824	43.24
794.136	42.82
794.448	43.61
794.76	43.18
795.071	42.88
795.383	43.6
795.695	43.44
796.006	43.8
796.318	43.5
796.629	43.22
796.941	44
797.252	44.19
797.564	43.51
797.875	43.09
798.186	44.3
798.497	44.39
798.809	44.49
799.12	43.73
799.431	43.81
799.742	43.77
800.053	44.19
800.364	44.16
800.675	44.39
800.986	43.93
801.297	43.64
801.608	43.28
801.918	43.17
802.229	43.36
802.54	43.1
802.851	43.23
803.161	44.03
803.472	43.25
803.782	43.89
804.093	43.87
804.403	44.06
804.714	43.3
805.024	43.21
805.334	43
805.645	43.67
805.955	43.93
806.265	43.21
806.575	43.92
806.885	44.02
807.195	44.19
807.505	43.82
807.815	43.88
808.125	43.87
808.435	43.29
808.745	42.73
809.055	43.34
809.365	43.88
809.674	42.49
809.984	42.54
810.294	42.21
810.603	42.32
810.913	42.07
811.222	41.41
811.532	41.13
811.841	41.35
812.151	40.21
812.46	40.04
812.769	40.51
813.079	39.33
813.388	38.77
813.697	38.52
814.006	39.64
814.315	39.64
814.624	40.54
814.933	40.71
815.242	41.3
815.551	41.65
815.86	40.74
816.169	41.13
816.478	41.1
816.786	40.88
817.095	40.76
817.404	41.25
817.712	42.75
818.021	43.24
818.33	42.88
818.638	43.7
818.947	43.54
819.255	43.8
819.563	44.24
819.872	44.59
820.18	44.34
820.488	44.1
820.796	44.44
821.105	44.51
821.413	44.6
821.721	44.7
822.029	44.42
822.337	44.52
822.645	44.42
822.953	44.62
823.26	44.7
823.568	44.8
823.876	44.73
824.184	44.46
824.491	44.4
824.799	44.57
825.107	44.58
825.414	44.46
825.722	44.36
826.029	44.39
826.337	44.47
826.644	44.59
826.951	44.54
827.259	44.47
827.566	44.31
827.873	44.32
828.18	44.21
828.488	44.29
828.795	44.07
829.102	44.4
829.409	44.13
829.716	44
830.023	43.86
830.329	44.51
830.636	44.87
830.943	44.78
831.25	44.75
831.557	44.56
831.863	44.44
832.17	44.71
832.476	44.85
832.783	44.36
833.089	44.51
833.396	44.31
833.702	44.44
834.009	44.87
834.315	45.01
834.621	45.43
834.928	45.05
835.234	45.85
835.54	45.11
835.846	44.81
836.152	44.7
836.458	45.43
836.764	45.23
837.07	44.42
837.376	44.77
837.682	44.49
837.988	44.95
838.293	45.87
838.599	46.27
838.905	46.15
839.211	47.14
839.516	47.43
839.822	47.26
840.127	46.74
840.433	46.13
840.738	45.29
841.044	45.38
841.349	45.79
841.654	44.62
841.959	45.58
842.265	46.44
842.57	47.98
842.875	46.8
843.18	46.41
843.485	46.9
843.79	46.08
844.095	47.63
844.4	48.17
844.705	46.97
845.01	46.56
845.315	47.65
845.619	46.46
845.924	45.54
846.229	47.3
846.533	47.97
846.838	48.41
847.142	49.16
847.447	48.3
847.751	48.2
848.056	47.52
848.36	47.81
848.664	48.41
848.969	45.79
849.273	47.26
849.577	45.88
849.881	46.17
850.185	46.33
850.489	44.98
850.794	44.75
851.097	44.83
851.401	43.02
851.705	39.7
852.009	39.8
852.313	39.35
852.617	37.58
852.92	39.72
853.224	38.77
853.528	38.45
853.831	37.6
854.135	37.82
854.438	40.81
854.742	43.65
855.045	43.9
855.349	44.8
855.652	44.39
855.955	43.09
856.259	45.08
856.562	45.94
856.865	45.88
857.168	43.28
857.471	41.44
857.774	41.24
858.077	43.24
858.38	45.3
858.683	47.38
858.986	47.07
859.289	45.27
859.592	46.63
859.894	46.44
860.197	44.37
860.5	46.73
860.802	42.62
861.105	37.67
861.407	37.64
861.71	38.13
862.012	36.18
862.315	36.62
862.617	33.61
862.919	32.98
863.222	31.52
863.524	30.77
863.826	31.87
864.128	34.82
864.43	34.46
864.732	31.41
865.034	30.75
865.336	30.78
865.638	29.19
865.94	30.36
866.242	31.03
866.544	32.23
866.846	32.94
867.147	34.17
867.449	37.25
867.751	34.06
868.052	34.36
868.354	36.77
868.655	41.11
868.957	42.57
869.258	41.9
869.56	43.59
869.861	44.31
870.162	46.2
870.463	44.13
870.765	44.68
871.066	45
871.367	43.19
871.668	43.53
871.969	43.56
872.27	41.76
872.571	42.21
872.872	42.32
873.173	41.15
873.473	40.8
873.774	40.05
874.075	46.38
874.376	42.49
874.676	40.81
874.977	40.26
875.277	38.02
875.578	39.36
875.878	38.98
876.179	40.17
876.479	39.6
876.78	40.12
877.08	39.21
877.38	40.64
877.68	42.66
877.981	43.63
878.281	44.59
878.581	45.02
