Data from MVZ_BU8943_Reflection_00008.txt Node
Date: Tue Nov 19 12:09:14 EST 2019
User: vgr7
Spectrometer: USB2G7710
Scans to average: 3
Trigger mode: 4
Integration Time (sec): 2.000000E-2
Electric dark correction enabled: true
Boxcar width: 10
XAxis mode: Wavelengths
Number of Pixels in Spectrum: 2048
>>>>>Begin Spectral Data<<<<<
177.721	360.94
178.105	748.94
178.488	-429.62
178.871	-346.58
179.254	-805.88
179.636	-568.64
180.019	-91.52
180.402	70
180.785	-240.26
181.168	-61.17
181.55	-105.18
181.933	-111.08
182.316	-120.84
182.698	-55900
183.081	919.28
183.463	-501.5
183.846	-588.74
184.228	-1216.46
184.611	399.61
184.993	146.36
185.376	149.09
185.758	165.34
186.14	162.25
186.522	138.98
186.904	145.6
187.287	101.59
187.669	89.78
188.051	74.8
188.433	30.82
188.815	3.26
189.197	5.3
189.579	-13.59
189.961	-26.53
190.342	-33.39
190.724	-51.07
191.106	-54.61
191.488	-47.81
191.869	-50.71
192.251	-63.73
192.633	-78.31
193.014	-82.67
193.396	-71.49
193.777	-69.36
194.159	-32.82
194.54	1.46
194.922	-12.97
195.303	-35.25
195.684	-546.02
196.065	-454.74
196.447	34100
196.828	176.92
197.209	41.18
197.59	-113.3
197.971	-232.43
198.352	-224.44
198.733	-693.97
199.114	-772.18
199.495	441.04
199.876	489.22
200.257	176.92
200.638	296.56
201.018	315.81
201.399	188.18
201.78	204.38
202.16	211.39
202.541	296.65
202.922	570.59
203.302	530.66
203.683	386.49
204.063	121.36
204.444	144.75
204.824	86.21
205.204	125.13
205.585	42.65
205.965	-1.47
206.345	-23.18
206.725	-36.8
207.106	20.89
207.486	3.18
207.866	-6.22
208.246	-1.36
208.626	-68.37
209.006	-83.29
209.386	-22.19
209.766	-86.81
210.145	-59.47
210.525	-135.82
210.905	-226.18
211.285	-303.94
211.664	-70.87
212.044	-58.42
212.424	-188.59
212.803	-34.28
213.183	24.14
213.562	-120.69
213.942	-543.84
214.321	213.3
214.701	-504.65
215.08	-158.06
215.459	30.69
215.838	-57.48
216.218	7.38
216.597	-50.78
216.976	-74.26
217.355	-31.15
217.734	286.44
218.113	-89.35
218.492	554.55
218.871	175.68
219.25	216.75
219.629	15.97
220.008	-58.98
220.387	-27.39
220.766	-14.57
221.144	-13.43
221.523	-28.78
221.902	-24.72
222.28	-18.64
222.659	0.73
223.037	11.4
223.416	22.08
223.794	16.24
224.173	12.14
224.551	12.73
224.929	9.23
225.308	3.54
225.686	2.28
226.064	1.85
226.442	7.12
226.821	1.47
227.199	0.52
227.577	9.6
227.955	11.89
228.333	9.67
228.711	9.61
229.089	9.02
229.467	5.78
229.845	8.81
230.222	10.36
230.6	9.73
230.978	10.8
231.356	10.68
231.733	8.96
232.111	9.53
232.488	6.58
232.866	8.58
233.243	13.06
233.621	11.46
233.998	10.17
234.376	9.8
234.753	9.58
235.13	9.54
235.508	8.46
235.885	7.31
236.262	7.18
236.639	5.67
237.016	5.79
237.393	6.1
237.77	5.82
238.147	4.89
238.524	4.73
238.901	3.31
239.278	3.3
239.655	3.34
240.032	3.09
240.409	4.13
240.785	3.3
241.162	1.93
241.539	3.01
241.915	2.71
242.292	3.04
242.668	3.74
243.045	3.87
243.421	4.52
243.798	4.98
244.174	5.05
244.551	5.19
244.927	5.26
245.303	5.27
245.679	5.12
246.056	5.16
246.432	5.02
246.808	4.98
247.184	4.89
247.56	4.92
247.936	5.12
248.312	4.99
248.688	5.17
249.064	5.29
249.44	5.01
249.815	5.24
250.191	5.28
250.567	4.81
250.943	4.64
251.318	4.22
251.694	3.92
252.069	3.77
252.445	3.54
252.82	3.31
253.196	3.21
253.571	3.26
253.947	3.17
254.322	3.17
254.697	3.17
255.073	3.38
255.448	3.44
255.823	3.45
256.198	3.13
256.573	2.99
256.948	3.36
257.323	3.37
257.698	3.42
258.073	3.34
258.448	3.58
258.823	3.73
259.198	3.9
259.573	4.06
259.948	4.11
260.322	4.11
260.697	4.24
261.072	4.26
261.446	4.15
261.821	4.24
262.195	4.34
262.57	4.46
262.944	4.33
263.319	4.3
263.693	4.2
264.067	4.44
264.442	4.54
264.816	4.33
265.19	4.39
265.564	4.29
265.938	4.25
266.313	4.22
266.687	4.07
267.061	3.8
267.435	3.68
267.809	3.49
268.183	3.45
268.556	3.29
268.93	3.32
269.304	3.23
269.678	3.24
270.051	3.15
270.425	3.14
270.799	3.11
271.172	3.2
271.546	3.2
271.919	3.25
272.293	3.35
272.666	3.48
273.04	3.46
273.413	3.46
273.787	3.41
274.16	3.31
274.533	3.38
274.906	3.41
275.279	3.5
275.653	3.83
276.026	3.88
276.399	3.93
276.772	3.9
277.145	4.05
277.518	4.04
277.891	4.01
278.263	4.15
278.636	4.13
279.009	4.07
279.382	4.05
279.755	4.01
280.127	4.11
280.5	3.95
280.872	4.12
281.245	4.27
281.617	4.34
281.99	4.48
282.362	4.44
282.735	4.47
283.107	4.45
283.479	4.28
283.852	4.3
284.224	4.1
284.596	4.04
284.968	3.89
285.34	3.92
285.713	4.03
286.085	3.82
286.457	3.79
286.829	3.82
287.201	3.72
287.572	3.77
287.944	3.69
288.316	3.68
288.688	3.63
289.06	3.59
289.431	3.62
289.803	3.53
290.175	3.53
290.546	3.58
290.918	3.51
291.289	3.33
291.661	3.51
292.032	3.61
292.403	3.78
292.775	3.88
293.146	3.87
293.517	3.82
293.889	3.87
294.26	3.94
294.631	3.98
295.002	4.1
295.373	4.06
295.744	3.99
296.115	4.2
296.486	4.2
296.857	4.35
297.228	4.27
297.599	4.37
297.97	4.43
298.34	4.43
298.711	4.46
299.082	4.57
299.452	4.4
299.823	4.56
300.194	4.53
300.564	4.54
300.935	4.44
301.305	4.41
301.676	4.48
302.046	4.54
302.416	4.58
302.787	4.5
303.157	4.54
303.527	4.61
303.897	4.41
304.267	4.3
304.637	4.19
305.008	4.36
305.378	4.32
305.748	4.36
306.117	4.26
306.487	4.44
306.857	4.51
307.227	4.68
307.597	4.75
307.967	4.71
308.336	4.86
308.706	4.95
309.076	5.18
309.445	5.22
309.815	5.14
310.184	5.32
310.554	5.53
310.923	5.5
311.293	5.53
311.662	5.59
312.031	5.71
312.401	5.73
312.77	5.82
313.139	5.83
313.508	5.86
313.877	5.99
314.246	5.81
314.616	5.9
314.985	5.84
315.353	5.82
315.722	5.94
316.091	5.87
316.46	6.01
316.829	6.03
317.198	6.29
317.567	6.54
317.935	6.48
318.304	6.57
318.672	6.77
319.041	6.85
319.41	6.99
319.778	7.07
320.147	6.94
320.515	6.73
320.883	6.91
321.252	6.96
321.62	7.02
321.988	7.24
322.357	7.32
322.725	7.32
323.093	7.32
323.461	7.43
323.829	7.62
324.197	7.53
324.565	7.41
324.933	7.22
325.301	7.18
325.669	6.98
326.037	6.9
326.405	6.89
326.772	6.93
327.14	6.81
327.508	6.77
327.875	6.86
328.243	7.03
328.61	7.05
328.978	7.02
329.346	6.97
329.713	6.95
330.08	6.94
330.448	6.98
330.815	7.11
331.182	6.99
331.55	6.86
331.917	6.94
332.284	6.98
332.651	7
333.018	7.06
333.385	7.36
333.752	7.39
334.119	7.44
334.486	7.38
334.853	7.59
335.22	7.66
335.587	7.78
335.954	7.83
336.32	7.78
336.687	7.92
337.054	8
337.42	8.01
337.787	8.03
338.153	8.17
338.52	8.12
338.886	8.18
339.253	8.15
339.619	8.17
339.986	8.07
340.352	8
340.718	7.96
341.084	7.82
341.451	7.85
341.817	8.03
342.183	8.03
342.549	8.06
342.915	8.03
343.281	8.08
343.647	8.05
344.013	8.07
344.379	8.03
344.745	8.09
345.11	8.08
345.476	8.08
345.842	7.97
346.208	8
346.573	7.93
346.939	8
347.304	8.06
347.67	8.18
348.035	8.26
348.401	8.39
348.766	8.44
349.132	8.44
349.497	8.32
349.862	8.41
350.228	8.37
350.593	8.38
350.958	8.39
351.323	8.42
351.688	8.39
352.053	8.34
352.418	8.35
352.783	8.41
353.148	8.36
353.513	8.37
353.878	8.36
354.243	8.39
354.608	8.49
354.972	8.41
355.337	8.52
355.702	8.49
356.066	8.38
356.431	8.31
356.795	8.36
357.16	8.37
357.524	8.29
357.889	8.28
358.253	8.34
358.618	8.25
358.982	8.24
359.346	8.29
359.71	8.25
360.075	8.2
360.439	8.16
360.803	8.26
361.167	8.25
361.531	8.18
361.895	8.15
362.259	8.17
362.623	8.23
362.987	8.13
363.351	8.07
363.714	8.1
364.078	8.17
364.442	8.14
364.806	8.12
365.169	8.07
365.533	8.01
365.896	7.9
366.26	7.91
366.623	7.88
366.987	7.91
367.35	8.06
367.714	8.06
368.077	8.09
368.44	7.99
368.803	7.95
369.167	7.94
369.53	7.99
369.893	7.87
370.256	7.78
370.619	7.78
370.982	7.79
371.345	7.77
371.708	7.79
372.071	7.75
372.434	7.67
372.797	7.62
373.159	7.57
373.522	7.68
373.885	7.75
374.247	7.75
374.61	7.59
374.973	7.49
375.335	7.46
375.698	7.35
376.06	7.28
376.423	7.28
376.785	7.35
377.147	7.23
377.51	7.2
377.872	7.13
378.234	7.15
378.596	7.15
378.958	7.1
379.321	6.98
379.683	6.95
380.045	6.92
380.407	6.97
380.769	6.93
381.13	6.8
381.492	6.71
381.854	6.66
382.216	6.75
382.578	6.7
382.939	6.66
383.301	6.64
383.663	6.62
384.024	6.61
384.386	6.56
384.747	6.5
385.109	6.45
385.47	6.47
385.832	6.36
386.193	6.32
386.554	6.27
386.916	6.28
387.277	6.23
387.638	6.24
387.999	6.14
388.36	6.11
388.721	6.09
389.082	6.09
389.443	6.04
389.804	5.98
390.165	5.94
390.526	5.89
390.887	5.89
391.248	5.92
391.609	5.9
391.969	5.85
392.33	5.92
392.691	5.89
393.051	5.83
393.412	5.83
393.772	5.81
394.133	5.74
394.493	5.68
394.854	5.65
395.214	5.6
395.574	5.64
395.935	5.64
396.295	5.63
396.655	5.52
397.015	5.49
397.376	5.48
397.736	5.46
398.096	5.47
398.456	5.4
398.816	5.32
399.176	5.27
399.535	5.22
399.895	5.21
400.255	5.18
400.615	5.17
400.975	5.15
401.334	5.16
401.694	5.18
402.054	5.16
402.413	5.15
402.773	5.1
403.132	5.04
403.492	5.02
403.851	4.99
404.211	5.03
404.57	4.98
404.929	4.9
405.288	4.9
405.648	4.87
406.007	4.9
406.366	4.91
406.725	4.88
407.084	4.89
407.443	4.84
407.802	4.82
408.161	4.78
408.52	4.77
408.879	4.73
409.238	4.72
409.596	4.71
409.955	4.69
410.314	4.69
410.673	4.72
411.031	4.7
411.39	4.72
411.748	4.74
412.107	4.76
412.465	4.74
412.824	4.72
413.182	4.72
413.54	4.69
413.899	4.67
414.257	4.68
414.615	4.62
414.974	4.62
415.332	4.62
415.69	4.64
416.048	4.62
416.406	4.58
416.764	4.57
417.122	4.56
417.48	4.57
417.838	4.57
418.195	4.54
418.553	4.54
418.911	4.51
419.269	4.47
419.626	4.47
419.984	4.46
420.342	4.44
420.699	4.4
421.057	4.37
421.414	4.37
421.772	4.36
422.129	4.37
422.486	4.36
422.844	4.35
423.201	4.34
423.558	4.34
423.915	4.35
424.273	4.34
424.63	4.34
424.987	4.32
425.344	4.3
425.701	4.31
426.058	4.3
426.415	4.28
426.772	4.28
427.128	4.26
427.485	4.25
427.842	4.24
428.199	4.24
428.555	4.25
428.912	4.26
429.269	4.21
429.625	4.21
429.982	4.2
430.338	4.21
430.695	4.17
431.051	4.14
431.407	4.15
431.764	4.15
432.12	4.13
432.476	4.12
432.832	4.13
433.189	4.1
433.545	4.11
433.901	4.11
434.257	4.11
434.613	4.11
434.969	4.12
435.325	4.11
435.681	4.1
436.036	4.12
436.392	4.09
436.748	4.13
437.104	4.12
437.459	4.12
437.815	4.12
438.171	4.12
438.526	4.14
438.882	4.11
439.237	4.11
439.593	4.11
439.948	4.11
440.304	4.1
440.659	4.09
441.014	4.09
441.369	4.09
441.725	4.09
442.08	4.09
442.435	4.09
442.79	4.1
443.145	4.11
443.5	4.1
443.855	4.08
444.21	4.06
444.565	4.07
444.92	4.07
445.275	4.05
445.629	4.04
445.984	4.01
446.339	4.04
446.693	4.03
447.048	4.03
447.403	4.03
447.757	4.01
448.112	4.02
448.466	4
448.82	3.98
449.175	3.96
449.529	3.97
449.883	3.96
450.238	3.94
450.592	3.94
450.946	3.94
451.3	3.95
451.654	3.93
452.008	3.91
452.362	3.91
452.716	3.92
453.07	3.95
453.424	3.93
453.778	3.9
454.132	3.88
454.486	3.87
454.839	3.88
455.193	3.9
455.547	3.88
455.9	3.9
456.254	3.91
456.607	3.92
456.961	3.9
457.314	3.91
457.668	3.91
458.021	3.89
458.375	3.89
458.728	3.9
459.081	3.91
459.434	3.92
459.787	3.91
460.141	3.92
460.494	3.9
460.847	3.92
461.2	3.93
461.553	3.95
461.906	3.97
462.259	3.95
462.611	3.95
462.964	3.96
463.317	3.96
463.67	3.98
464.022	3.98
464.375	3.98
464.728	3.98
465.08	4
465.433	4.03
465.785	4.05
466.138	4.05
466.49	4.06
466.843	4.1
467.195	4.11
467.547	4.1
467.899	4.12
468.252	4.13
468.604	4.15
468.956	4.16
469.308	4.17
469.66	4.22
470.012	4.23
470.364	4.25
470.716	4.27
471.068	4.28
471.42	4.31
471.772	4.34
472.123	4.35
472.475	4.39
472.827	4.36
473.178	4.35
473.53	4.37
473.882	4.37
474.233	4.36
474.585	4.36
474.936	4.38
475.288	4.38
475.639	4.39
475.99	4.37
476.342	4.38
476.693	4.37
477.044	4.38
477.395	4.39
477.746	4.38
478.097	4.38
478.448	4.36
478.8	4.35
479.15	4.33
479.501	4.32
479.852	4.3
480.203	4.31
480.554	4.32
480.905	4.31
481.255	4.3
481.606	4.3
481.957	4.31
482.307	4.31
482.658	4.33
483.009	4.31
483.359	4.32
483.709	4.32
484.06	4.31
484.41	4.3
484.761	4.31
485.111	4.31
485.461	4.3
485.811	4.3
486.162	4.3
486.512	4.3
486.862	4.29
487.212	4.3
487.562	4.3
487.912	4.3
488.262	4.3
488.612	4.31
488.961	4.32
489.311	4.31
489.661	4.3
490.011	4.29
490.36	4.29
490.71	4.29
491.06	4.29
491.409	4.3
491.759	4.29
492.108	4.28
492.458	4.29
492.807	4.3
493.157	4.3
493.506	4.32
493.855	4.33
494.204	4.34
494.554	4.36
494.903	4.36
495.252	4.38
495.601	4.42
495.95	4.43
496.299	4.46
496.648	4.49
496.997	4.53
497.346	4.56
497.695	4.61
498.043	4.64
498.392	4.68
498.741	4.72
499.09	4.77
499.438	4.82
499.787	4.84
500.135	4.86
500.484	4.92
500.832	4.96
501.181	5.01
501.529	5.07
501.878	5.12
502.226	5.16
502.574	5.19
502.923	5.21
503.271	5.25
503.619	5.33
503.967	5.36
504.315	5.43
504.663	5.51
505.011	5.56
505.359	5.63
505.707	5.69
506.055	5.76
506.403	5.84
506.751	5.92
507.098	6.03
507.446	6.14
507.794	6.21
508.141	6.3
508.489	6.39
508.837	6.49
509.184	6.58
509.531	6.69
509.879	6.79
510.226	6.91
510.574	7.01
510.921	7.06
511.268	7.19
511.616	7.27
511.963	7.4
512.31	7.52
512.657	7.63
513.004	7.74
513.351	7.87
513.698	8.02
514.045	8.16
514.392	8.31
514.739	8.42
515.086	8.58
515.432	8.75
515.779	8.86
516.126	9.02
516.473	9.18
516.819	9.3
517.166	9.45
517.512	9.58
517.859	9.7
518.205	9.83
518.552	9.96
518.898	10.1
519.245	10.21
519.591	10.31
519.937	10.44
520.283	10.57
520.629	10.72
520.976	10.86
521.322	11.04
521.668	11.16
522.014	11.31
522.36	11.48
522.706	11.62
523.052	11.82
523.398	12.01
523.743	12.21
524.089	12.41
524.435	12.6
524.781	12.79
525.126	12.97
525.472	13.15
525.817	13.28
526.163	13.42
526.509	13.56
526.854	13.7
527.199	13.82
527.545	13.94
527.89	14.06
528.235	14.18
528.581	14.3
528.926	14.43
529.271	14.57
529.616	14.7
529.961	14.81
530.306	14.96
530.651	15.08
530.996	15.23
531.341	15.39
531.686	15.54
532.031	15.68
532.376	15.84
532.721	16
533.065	16.19
533.41	16.36
533.755	16.55
534.099	16.72
534.444	16.93
534.788	17.12
535.133	17.3
535.477	17.49
535.822	17.67
536.166	17.88
536.51	18.1
536.855	18.33
537.199	18.61
537.543	18.83
537.887	19.1
538.231	19.33
538.576	19.57
538.92	19.82
539.264	20.1
539.608	20.34
539.951	20.57
540.295	20.8
540.639	21.03
540.983	21.24
541.327	21.45
541.671	21.66
542.014	21.86
542.358	22.05
542.701	22.25
543.045	22.46
543.389	22.67
543.732	22.85
544.075	23.08
544.419	23.29
544.762	23.54
545.105	23.76
545.449	24.03
545.792	24.28
546.135	24.54
546.478	24.81
546.821	25.12
547.165	25.43
547.508	25.68
547.851	25.98
548.194	26.26
548.536	26.55
548.879	26.84
549.222	27.13
549.565	27.42
549.908	27.74
550.25	28
550.593	28.31
550.936	28.64
551.278	28.94
551.621	29.26
551.963	29.55
552.306	29.84
552.648	30.08
552.991	30.35
553.333	30.61
553.675	30.88
554.017	31.07
554.36	31.27
554.702	31.53
555.044	31.74
555.386	31.96
555.728	32.23
556.07	32.46
556.412	32.68
556.754	32.99
557.096	33.24
557.438	33.51
557.78	33.79
558.121	34.04
558.463	34.25
558.805	34.51
559.147	34.74
559.488	34.97
559.83	35.22
560.171	35.43
560.513	35.67
560.854	35.94
561.196	36.19
561.537	36.47
561.878	36.74
562.22	36.96
562.561	37.19
562.902	37.4
563.243	37.69
563.584	37.92
563.925	38.08
564.266	38.26
564.607	38.44
564.948	38.56
565.289	38.69
565.63	38.88
565.971	39.05
566.312	39.18
566.653	39.37
566.993	39.58
567.334	39.86
567.675	40.04
568.015	40.18
568.356	40.41
568.696	40.59
569.037	40.73
569.377	40.93
569.718	41.13
570.058	41.28
570.398	41.36
570.739	41.56
571.079	41.73
571.419	41.89
571.759	42.06
572.099	42.3
572.439	42.51
572.779	42.68
573.119	42.8
573.459	43.02
573.799	43.13
574.139	43.25
574.479	43.31
574.819	43.44
575.158	43.55
575.498	43.57
575.838	43.7
576.177	43.8
576.517	43.94
576.856	43.99
577.196	44.1
577.535	44.25
577.875	44.32
578.214	44.46
578.553	44.56
578.893	44.7
579.232	44.78
579.571	44.87
579.91	44.91
580.25	45.07
580.589	45.13
580.928	45.26
581.267	45.37
581.606	45.47
581.945	45.57
582.283	45.64
582.622	45.79
582.961	45.84
583.3	45.95
583.639	46.01
583.977	46.15
584.316	46.25
584.654	46.34
584.993	46.39
585.332	46.49
585.67	46.63
586.008	46.69
586.347	46.82
586.685	46.86
587.024	46.98
587.362	46.96
587.7	47.05
588.038	47.18
588.376	47.27
588.715	47.36
589.053	47.45
589.391	47.55
589.729	47.69
590.067	47.76
590.404	47.8
590.742	47.92
591.08	48.03
591.418	48.14
591.756	48.27
592.093	48.33
592.431	48.37
592.769	48.39
593.106	48.53
593.444	48.54
593.781	48.66
594.119	48.76
594.456	48.85
594.793	48.91
595.131	48.99
595.468	49.06
595.805	49.16
596.143	49.2
596.48	49.32
596.817	49.37
597.154	49.42
597.491	49.48
597.828	49.56
598.165	49.58
598.502	49.6
598.839	49.65
599.176	49.78
599.512	49.88
599.849	49.97
600.186	49.96
600.523	50
600.859	50.06
601.196	50.1
601.532	50.15
601.869	50.21
602.205	50.27
602.542	50.34
602.878	50.4
603.215	50.45
603.551	50.42
603.887	50.38
604.223	50.38
604.56	50.45
604.896	50.41
605.232	50.41
605.568	50.48
605.904	50.44
606.24	50.45
606.576	50.53
606.912	50.55
607.248	50.57
607.583	50.64
607.919	50.68
608.255	50.72
608.591	50.69
608.926	50.75
609.262	50.76
609.597	50.72
609.933	50.78
610.268	50.85
610.604	50.9
610.939	51
611.275	51.1
611.61	51.18
611.945	51.23
612.281	51.34
612.616	51.42
612.951	51.58
613.286	51.66
613.621	51.6
613.956	51.62
614.291	51.6
614.626	51.61
614.961	51.63
615.296	51.58
615.631	51.72
615.966	51.81
616.3	51.8
616.635	51.84
616.97	51.78
617.304	51.79
617.639	51.84
617.973	51.9
618.308	51.94
618.642	51.91
618.977	51.9
619.311	51.85
619.646	51.76
619.98	51.74
620.314	51.73
620.648	51.87
620.983	51.97
621.317	52.14
621.651	52.16
621.985	52.24
622.319	52.35
622.653	52.43
622.987	52.45
623.321	52.53
623.655	52.59
623.988	52.64
624.322	52.62
624.656	52.58
624.99	52.53
625.323	52.51
625.657	52.54
625.99	52.62
626.324	52.76
626.657	52.81
626.991	52.79
627.324	52.85
627.658	52.84
627.991	52.85
628.324	52.84
628.657	52.92
628.991	52.86
629.324	52.88
629.657	52.88
629.99	52.79
630.323	52.76
630.656	52.75
630.989	52.77
631.322	52.85
631.655	52.9
631.987	52.99
632.32	53.08
632.653	53.2
632.986	53.19
633.318	53.15
633.651	53.23
633.984	53.28
634.316	53.2
634.649	53.2
634.981	53.25
635.313	53.31
635.646	53.37
635.978	53.36
636.31	53.37
636.643	53.31
636.975	53.33
637.307	53.27
637.639	53.29
637.971	53.18
638.303	53.08
638.635	53.1
638.967	53.1
639.299	53.05
639.631	53.05
639.963	53.09
640.295	52.98
640.626	53.01
640.958	52.97
641.29	52.97
641.621	52.95
641.953	52.83
642.285	52.72
642.616	52.62
642.948	52.69
643.279	52.72
643.61	52.81
643.942	52.85
644.273	52.99
644.604	53.1
644.936	53.35
645.267	53.41
645.598	53.38
645.929	53.35
646.26	53.35
646.591	53.28
646.922	53.3
647.253	53.53
647.584	53.5
647.915	53.47
648.245	53.48
648.576	53.49
648.907	53.58
649.238	53.65
649.568	53.67
649.899	53.68
650.229	53.73
650.56	53.56
650.89	53.68
651.221	53.71
651.551	53.62
651.882	53.59
652.212	53.68
652.542	53.67
652.872	53.73
653.203	53.79
653.533	53.9
653.863	54.02
654.193	53.92
654.523	53.89
654.853	54.09
655.183	54.24
655.513	54.27
655.843	54.17
656.172	54.24
656.502	54.33
656.832	54.48
657.162	54.44
657.491	54.65
657.821	54.63
658.15	54.64
658.48	54.74
658.809	54.68
659.139	54.67
659.468	54.79
659.798	54.8
660.127	54.79
660.456	54.75
660.785	54.7
661.115	54.75
661.444	54.75
661.773	54.64
662.102	54.58
662.431	54.57
662.76	54.58
663.089	54.64
663.418	54.68
663.747	54.66
664.076	54.65
664.404	54.69
664.733	54.71
665.062	54.63
665.39	54.6
665.719	54.61
666.048	54.54
666.376	54.61
666.705	54.74
667.033	54.81
667.362	54.89
667.69	54.8
668.018	54.86
668.347	54.85
668.675	55
669.003	55.14
669.331	55.21
669.659	55.28
669.987	55.15
670.315	55.11
670.643	54.85
670.971	54.81
671.299	54.74
671.627	54.74
671.955	54.86
672.283	54.77
672.61	54.9
672.938	55.05
673.266	54.99
673.593	54.75
673.921	54.67
674.249	54.54
674.576	54.65
674.904	54.68
675.231	54.83
675.558	54.81
675.886	54.78
676.213	54.78
676.54	54.88
676.867	54.98
677.195	55.02
677.522	55.3
677.849	55.46
678.176	55.63
678.503	55.69
678.83	55.57
679.157	55.53
679.484	55.54
679.81	55.36
680.137	55.33
680.464	55.36
680.791	55.47
681.117	55.52
681.444	55.34
681.771	55.27
682.097	55.29
682.424	55.29
682.75	55.28
683.077	55.37
683.403	55.38
683.729	55.22
684.056	55.16
684.382	55.02
684.708	54.9
685.034	54.8
685.36	54.71
685.686	54.83
686.012	54.98
686.339	54.82
686.664	54.93
686.99	54.93
687.316	55.08
687.642	54.82
687.968	54.7
688.294	54.96
688.619	55.02
688.945	54.96
689.271	55.02
689.596	55.09
689.922	54.96
690.247	55.03
690.573	55.09
690.898	55.05
691.224	55.06
691.549	55.1
691.874	55.16
692.2	55.21
692.525	55.11
692.85	55.06
693.175	55.03
693.5	54.94
693.825	54.87
694.15	54.84
694.475	55.01
694.8	55.05
695.125	54.97
695.45	55.03
695.775	55.04
696.099	55.09
696.424	55.17
696.749	55.28
697.073	55.07
697.398	55.29
697.723	55.43
698.047	55.66
698.372	55.66
698.696	55.64
699.02	55.65
699.345	55.64
699.669	55.72
699.993	55.87
700.318	56.04
700.642	56.18
700.966	56.18
701.29	56.24
701.614	56.37
701.938	56.42
702.262	56.45
702.586	56.45
702.91	56.34
703.234	56.18
703.557	56.12
703.881	56.3
704.205	56.25
704.529	55.97
704.852	55.61
705.176	55.63
705.499	55.45
705.823	55.32
706.146	55.41
706.47	55.53
706.793	55.55
707.117	55.56
707.44	55.48
707.763	55.38
708.086	55.33
708.409	55.3
708.733	55.31
709.056	55.44
709.379	55.56
709.702	55.65
710.025	55.66
710.348	55.77
710.671	55.68
710.993	55.35
711.316	55.53
711.639	55.63
711.962	55.7
712.284	55.8
712.607	55.8
712.93	55.93
713.252	55.82
713.575	55.86
713.897	55.88
714.22	55.94
714.542	56.05
714.864	56.1
715.187	56.12
715.509	56.26
715.831	56.07
716.153	55.95
716.475	55.97
716.798	56.04
717.12	55.99
717.442	56.02
717.764	56.49
718.085	56.54
718.407	56.66
718.729	56.71
719.051	56.75
719.373	56.85
719.695	56.74
720.016	56.58
720.338	56.47
720.659	56.49
720.981	56.39
721.302	56.5
721.624	56.55
721.945	56.7
722.267	56.73
722.588	56.69
722.909	56.64
723.231	56.84
723.552	56.8
723.873	56.84
724.194	57.01
724.515	56.78
724.836	56.74
725.157	56.74
725.478	56.73
725.799	56.77
726.12	56.81
726.441	56.93
726.762	57.1
727.083	57.15
727.403	57.04
727.724	57.2
728.045	57.3
728.365	57.26
728.686	57.09
729.006	56.86
729.327	56.83
729.647	56.82
729.967	56.47
730.288	56.51
730.608	56.44
730.928	56.5
731.249	56.65
731.569	56.69
731.889	56.67
732.209	56.74
732.529	56.73
732.849	56.84
733.169	56.59
733.489	56.55
733.809	56.54
734.129	56.67
734.448	56.5
734.768	56.46
735.088	56.48
735.408	56.41
735.727	56.5
736.047	56.58
736.366	56.66
736.686	56.71
737.005	56.91
737.325	56.78
737.644	56.59
737.963	56.45
738.283	56.41
738.602	56.47
738.921	56.45
739.24	56.64
739.56	56.57
739.879	56.79
740.198	56.75
740.517	56.8
740.836	56.79
741.155	57.11
741.473	56.83
741.792	56.87
742.111	56.95
742.43	56.79
742.748	56.68
743.067	56.6
743.386	56.55
743.704	56.15
744.023	56.19
744.341	56.42
744.66	56.19
744.978	56.18
745.297	56.06
745.615	56.03
745.933	55.76
746.252	55.63
746.57	55.61
746.888	55.69
747.206	55.51
747.524	55.42
747.842	55.02
748.16	55.12
748.478	55.09
748.796	55.22
749.114	55.3
749.432	55.02
749.749	55.04
750.067	55.18
750.385	55.5
750.703	55.55
751.02	55.37
751.338	55.36
751.655	55.91
751.973	55.96
752.29	56.13
752.608	56.19
752.925	56.12
753.242	56.27
753.56	55.91
753.877	56.22
754.194	56.33
754.511	56.51
754.828	56.3
755.145	56.19
755.462	56.03
755.779	56.03
756.096	56.64
756.413	56.8
756.73	56.78
757.047	56.59
757.364	57.09
757.68	57.06
757.997	57.35
758.314	56.82
758.63	56.55
758.947	56.34
759.264	56.55
759.58	56.84
759.896	56.9
760.213	57.62
760.529	57.52
760.846	57.45
761.162	57.53
761.478	57.61
761.794	57.79
762.11	57.93
762.426	58.06
762.743	57.83
763.059	58.1
763.375	58.06
763.69	57.82
764.006	57.83
764.322	57.75
764.638	57.46
764.954	57.59
765.27	57.8
765.585	57.85
765.901	57.75
766.216	57.84
766.532	57.61
766.848	57.44
767.163	57.58
767.478	57.45
767.794	57.56
768.109	57.67
768.424	57.78
768.74	57.59
769.055	57.7
769.37	57.71
769.685	57.32
770	57.37
770.315	57.99
770.63	58.12
770.945	58.6
771.26	59.08
771.575	58.91
771.89	59
772.205	59.06
772.52	58.81
772.834	58.61
773.149	58.89
773.464	58.75
773.778	58.98
774.093	59.25
774.407	59.19
774.722	59.9
775.036	59.37
775.351	60.3
775.665	59.94
775.979	60.02
776.293	60.3
776.608	60.02
776.922	59.72
777.236	59.24
777.55	58.51
777.864	58.18
778.178	58.2
778.492	58.13
778.806	57.96
779.12	58.15
779.434	58.05
779.747	57.81
780.061	57.61
780.375	56.68
780.689	56.67
781.002	57.05
781.316	56.23
781.629	56.45
781.943	55.68
782.256	55.5
782.57	56.02
782.883	56.3
783.196	57.22
783.51	57.5
783.823	57.71
784.136	57.65
784.449	57.82
784.762	58.16
785.075	58.4
785.388	58.28
785.701	58.37
786.014	58.71
786.327	58.83
786.64	59.05
786.953	59.48
787.266	58.67
787.578	58.1
787.891	58.61
788.204	58.71
788.516	58.83
788.829	58.83
789.141	59.05
789.454	58.41
789.766	58.05
790.079	58.25
790.391	57.95
790.703	58.33
791.016	58.32
791.328	58.49
791.64	58.16
791.952	58.33
792.264	58.59
792.576	57.96
792.888	58.73
793.2	58.95
793.512	59.17
793.824	60.5
794.136	60.92
794.448	60.99
794.76	61.47
795.071	61.93
795.383	62.92
795.695	62.48
796.006	62.66
796.318	62.59
796.629	61.86
796.941	62.28
797.252	62.76
797.564	63.12
797.875	62.64
798.186	62.94
798.497	62.82
798.809	62.6
799.12	62.98
799.431	62.35
799.742	62.41
800.053	62.34
800.364	62.08
800.675	61.85
800.986	61.82
801.297	61.48
801.608	60.66
801.918	60.42
802.229	60.01
802.54	59.8
802.851	59.68
803.161	60.27
803.472	60.04
803.782	60.5
804.093	59.7
804.403	59.98
804.714	59.57
805.024	59.61
805.334	59.44
805.645	59.62
805.955	59.54
806.265	59.52
806.575	59.43
806.885	59.25
807.195	59.6
807.505	59.36
807.815	59.53
808.125	59.4
808.435	58.77
808.745	58.9
809.055	59.61
809.365	59.63
809.674	59.63
809.984	58.76
810.294	58.62
810.603	58.94
810.913	58.1
811.222	58.74
811.532	60.46
811.841	60.52
812.151	60.03
812.46	59.86
812.769	59.53
813.079	59.3
813.388	58.54
813.697	57.97
814.006	58.41
814.315	58.49
814.624	58.86
814.933	59.05
815.242	59.14
815.551	58.44
815.86	58.37
816.169	58.38
816.478	58.93
816.786	58.44
817.095	58.44
817.404	59.29
817.712	58.73
818.021	57.65
818.33	57.04
818.638	57.65
818.947	58.26
819.255	58.38
819.563	58.77
819.872	58.96
820.18	59.14
820.488	59.17
820.796	58.88
821.105	59.24
821.413	59.54
821.721	59.46
822.029	59.71
822.337	59.76
822.645	59.44
822.953	59.64
823.26	59.63
823.568	59.76
823.876	59.45
824.184	59.63
824.491	59.67
824.799	59.81
825.107	59.72
825.414	59.61
825.722	59.65
826.029	59.74
826.337	59.85
826.644	59.75
826.951	59.28
827.259	59.26
827.566	59.05
827.873	58.76
828.18	58.94
828.488	58.8
828.795	59.05
829.102	59.66
829.409	59.6
829.716	59.53
830.023	59.41
830.329	60.27
830.636	60.38
830.943	60.02
831.25	60.34
831.557	60.53
831.863	60.06
832.17	60.27
832.476	60.17
832.783	59.78
833.089	60.43
833.396	61.08
833.702	60.86
834.009	61.79
834.315	61.99
834.621	62
834.928	61.72
835.234	61.05
835.54	60.52
835.846	59.88
836.152	59.77
836.458	59.89
836.764	59.24
837.07	59.02
837.376	59.61
837.682	59.24
837.988	58.93
838.293	59.47
838.599	59.47
838.905	59.29
839.211	59.51
839.516	59.09
839.822	59.73
840.127	61.03
840.433	59.79
840.738	59.28
841.044	59.27
841.349	59.59
841.654	59.91
841.959	60.13
842.265	62.07
842.57	62.16
842.875	61.88
843.18	61.15
843.485	59.64
843.79	58.05
844.095	57.57
844.4	57.62
844.705	58.1
845.01	57.29
845.315	58.4
845.619	58.06
845.924	56.1
846.229	55.23
846.533	55.67
846.838	55.86
847.142	56.57
847.447	53.88
847.751	52.07
848.056	51.26
848.36	50.93
848.664	48.92
848.969	49.21
849.273	49.52
849.577	50.25
849.881	50.47
850.185	50.7
850.489	51.83
850.794	51.14
851.097	51.03
851.401	51.12
851.705	49.07
852.009	49.34
852.313	50.07
852.617	51.65
852.92	50.68
853.224	50.78
853.528	51.27
853.831	52.18
854.135	52.96
854.438	55.78
854.742	57.67
855.045	56.89
855.349	56.44
855.652	58.38
855.955	58.54
856.259	59.81
856.562	62.55
856.865	63.1
857.168	62.3
857.471	64.08
857.774	63.93
858.077	63.36
858.38	65.34
858.683	65.19
858.986	64.04
859.289	63.71
859.592	64.76
859.894	64.86
860.197	66.32
860.5	67.55
860.802	65.77
861.105	61.96
861.407	61.73
861.71	63.11
862.012	63.06
862.315	65.27
862.617	65.89
862.919	65.24
863.222	65.62
863.524	68.04
863.826	66.23
864.128	68.28
864.43	68.42
864.732	68.62
865.034	69.86
865.336	69.24
865.638	69.24
865.94	67.01
866.242	65.48
866.544	63.31
866.846	64.29
867.147	65.05
867.449	68.47
867.751	68.77
868.052	69.52
868.354	68.58
868.655	68.98
868.957	68.35
869.258	69.58
869.56	66.12
869.861	65.11
870.162	66.79
870.463	68.04
870.765	69.68
871.066	68.77
871.367	65.93
871.668	69.27
871.969	67.92
872.27	67.05
872.571	66.51
872.872	68.98
873.173	68.61
873.473	65.23
873.774	65.57
874.075	69.11
874.376	65.61
874.676	62.37
874.977	57.01
875.277	56.36
875.578	55.82
875.878	58.2
876.179	59.22
876.479	57.42
876.78	53.42
877.08	51.42
877.38	51.09
877.68	54.05
877.981	48.76
878.281	50.51
878.581	51.24
