Data from MVZ_BU147395_Reflection_00002.txt Node
Date: Tue Nov 19 12:04:53 EST 2019
User: vgr7
Spectrometer: USB2G7710
Scans to average: 3
Trigger mode: 4
Integration Time (sec): 2.000000E-2
Electric dark correction enabled: true
Boxcar width: 10
XAxis mode: Wavelengths
Number of Pixels in Spectrum: 2048
>>>>>Begin Spectral Data<<<<<
177.721	35.39
178.105	57.49
178.488	41.34
178.871	71.7
179.254	31.68
179.636	39.31
180.019	-2553.85
180.402	63.64
180.785	57.14
181.168	65.32
181.55	256.72
181.933	-65.81
182.316	-82.08
182.698	336.84
183.081	-378.72
183.463	-640.96
183.846	840.51
184.228	808.79
184.611	300.33
184.993	227.72
185.376	232.97
185.758	106.71
186.14	93.72
186.522	66.37
186.904	68.56
187.287	48.32
187.669	56.66
188.051	63.15
188.433	70.55
188.815	72.47
189.197	77.2
189.579	71.76
189.961	50.3
190.342	51.19
190.724	42.5
191.106	32.31
191.488	26.21
191.869	24.69
192.251	11.69
192.633	6.65
193.014	-2.29
193.396	-17.96
193.777	-4.5
194.159	-5.13
194.54	2.37
194.922	-5.4
195.303	-1.03
195.684	1.36
196.065	-0.4
196.447	3.93
196.828	-6.35
197.209	-16.74
197.59	-21.73
197.971	-25.53
198.352	-26.45
198.733	-30.46
199.114	-38.28
199.495	-38.43
199.876	-54.19
200.257	-44.59
200.638	-47.93
201.018	-73.2
201.399	-48.5
201.78	-38.11
202.16	-39.79
202.541	-88.77
202.922	-97.12
203.302	-156.67
203.683	-183.22
204.063	-189.22
204.444	-209.22
204.824	-196.13
205.204	-140.43
205.585	-162.79
205.965	-165.98
206.345	-130.9
206.725	-112.65
207.106	-74.14
207.486	-62.8
207.866	-45.16
208.246	-17.12
208.626	-37.13
209.006	-35.01
209.386	-29.39
209.766	-33.83
210.145	-32.01
210.525	-28.95
210.905	-1.4
211.285	3.39
211.664	8.88
212.044	12.53
212.424	20.49
212.803	23.35
213.183	29.98
213.562	45.88
213.942	38.39
214.321	26.03
214.701	21.19
215.08	11.35
215.459	13.61
215.838	19.47
216.218	9.21
216.597	44.57
216.976	46.46
217.355	43.95
217.734	53.59
218.113	40.8
218.492	22.64
218.871	8.14
219.25	11.46
219.629	13.76
220.008	17.53
220.387	12.48
220.766	14.67
221.144	12.98
221.523	10.52
221.902	21.74
222.28	26.49
222.659	31.33
223.037	33.51
223.416	35.47
223.794	32.96
224.173	26.7
224.551	17.75
224.929	16.92
225.308	12.24
225.686	8.17
226.064	8.45
226.442	12.99
226.821	9.29
227.199	8.64
227.577	8.63
227.955	10.31
228.333	9.29
228.711	9.77
229.089	10.39
229.467	7.93
229.845	5.07
230.222	6.81
230.6	6.87
230.978	5.9
231.356	4.23
231.733	5.55
232.111	6.2
232.488	6.36
232.866	9.11
233.243	9.82
233.621	9.53
233.998	9.93
234.376	9.07
234.753	9.76
235.13	10.94
235.508	10.53
235.885	8.87
236.262	8.65
236.639	7.5
237.016	6.25
237.393	6.84
237.77	6.92
238.147	5.89
238.524	5.94
238.901	6.22
239.278	6.09
239.655	5.66
240.032	5.86
240.409	5.83
240.785	5.56
241.162	4.91
241.539	5.21
241.915	5.26
242.292	5.41
242.668	5.09
243.045	4.77
243.421	5.34
243.798	5.32
244.174	5.23
244.551	5.18
244.927	5.22
245.303	5.06
245.679	5.01
246.056	4.96
246.432	4.79
246.808	4.74
247.184	4.76
247.56	4.59
247.936	4.72
248.312	4.72
248.688	4.51
249.064	4.65
249.44	4.51
249.815	4.39
250.191	4.46
250.567	4.86
250.943	4.88
251.318	4.62
251.694	4.49
252.069	4.51
252.445	4.44
252.82	4.4
253.196	4.45
253.571	4.59
253.947	4.74
254.322	4.81
254.697	4.9
255.073	4.81
255.448	4.94
255.823	4.78
256.198	4.75
256.573	4.71
256.948	4.71
257.323	4.77
257.698	4.82
258.073	4.46
258.448	4.04
258.823	3.99
259.198	3.88
259.573	3.95
259.948	4.01
260.322	4.09
260.697	4.26
261.072	4.23
261.446	4.22
261.821	4.28
262.195	4.14
262.57	4.05
262.944	4.09
263.319	4
263.693	3.91
264.067	3.84
264.442	3.8
264.816	3.77
265.19	3.69
265.564	3.57
265.938	3.7
266.313	3.92
266.687	3.98
267.061	4.06
267.435	4.09
267.809	3.99
268.183	3.73
268.556	3.49
268.93	3.46
269.304	3.32
269.678	3.22
270.051	3.37
270.425	3.28
270.799	3.12
271.172	3.22
271.546	3.3
271.919	3.24
272.293	3.29
272.666	3.5
273.04	3.52
273.413	3.53
273.787	3.44
274.16	3.42
274.533	3.39
274.906	3.3
275.279	3.16
275.653	3.16
276.026	3.34
276.399	3.39
276.772	3.56
277.145	3.5
277.518	3.42
277.891	3.45
278.263	3.58
278.636	3.81
279.009	3.92
279.382	3.8
279.755	3.82
280.127	3.84
280.5	3.85
280.872	3.91
281.245	3.87
281.617	3.92
281.99	3.95
282.362	4
282.735	3.94
283.107	3.92
283.479	3.9
283.852	3.88
284.224	3.94
284.596	3.82
284.968	3.9
285.34	3.92
285.713	3.82
286.085	3.69
286.457	3.51
286.829	3.31
287.201	3.32
287.572	3.31
287.944	3.38
288.316	3.32
288.688	3.37
289.06	3.43
289.431	3.48
289.803	3.56
290.175	3.5
290.546	3.58
290.918	3.7
291.289	3.67
291.661	3.7
292.032	3.64
292.403	3.54
292.775	3.65
293.146	3.62
293.517	3.64
293.889	3.79
294.26	4.01
294.631	4.07
295.002	4.07
295.373	4.08
295.744	4.09
296.115	4.05
296.486	4
296.857	4.04
297.228	3.98
297.599	3.78
297.97	3.83
298.34	3.76
298.711	3.71
299.082	3.8
299.452	3.86
299.823	3.83
300.194	3.92
300.564	3.69
300.935	3.72
301.305	3.72
301.676	3.65
302.046	3.63
302.416	3.61
302.787	3.72
303.157	3.74
303.527	3.7
303.897	3.6
304.267	3.59
304.637	3.53
305.008	3.54
305.378	3.62
305.748	3.44
306.117	3.57
306.487	3.61
306.857	3.57
307.227	3.49
307.597	3.52
307.967	3.52
308.336	3.63
308.706	3.55
309.076	3.73
309.445	3.86
309.815	3.77
310.184	3.79
310.554	3.68
310.923	3.64
311.293	3.58
311.662	3.55
312.031	3.63
312.401	3.55
312.77	3.55
313.139	3.52
313.508	3.5
313.877	3.46
314.246	3.4
314.616	3.26
314.985	3.28
315.353	3.16
315.722	3.18
316.091	3.13
316.46	3.25
316.829	3.08
317.198	3.05
317.567	3.1
317.935	3.07
318.304	3.29
318.672	3.38
319.041	3.24
319.41	3.33
319.778	3.13
320.147	3.26
320.515	3.23
320.883	3.25
321.252	3.45
321.62	3.42
321.988	3.44
322.357	3.52
322.725	3.56
323.093	3.6
323.461	3.67
323.829	3.77
324.197	3.63
324.565	3.51
324.933	3.36
325.301	3.24
325.669	3.31
326.037	3.16
326.405	3.1
326.772	3.33
327.14	3.25
327.508	3.36
327.875	3.37
328.243	3.4
328.61	3.34
328.978	3.34
329.346	3.39
329.713	3.38
330.08	3.44
330.448	3.33
330.815	3.32
331.182	3.16
331.55	3.12
331.917	3.27
332.284	3.43
332.651	3.46
333.018	3.54
333.385	3.39
333.752	3.29
334.119	3.39
334.486	3.36
334.853	3.37
335.22	3.26
335.587	3.17
335.954	3.16
336.32	3.17
336.687	3.22
337.054	3.24
337.42	3.34
337.787	3.36
338.153	3.46
338.52	3.53
338.886	3.52
339.253	3.57
339.619	3.62
339.986	3.58
340.352	3.61
340.718	3.55
341.084	3.63
341.451	3.74
341.817	3.6
342.183	3.47
342.549	3.5
342.915	3.58
343.281	3.67
343.647	3.63
344.013	3.66
344.379	3.66
344.745	3.58
345.11	3.43
345.476	3.43
345.842	3.33
346.208	3.29
346.573	3.37
346.939	3.29
347.304	3.18
347.67	3.16
348.035	3.14
348.401	3.12
348.766	3.11
349.132	3.05
349.497	3.14
349.862	3.24
350.228	3.26
350.593	3.23
350.958	3.29
351.323	3.4
351.688	3.37
352.053	3.29
352.418	3.26
352.783	3.29
353.148	3.3
353.513	3.26
353.878	3.26
354.243	3.15
354.608	3.24
354.972	3.31
355.337	3.37
355.702	3.34
356.066	3.38
356.431	3.4
356.795	3.45
357.16	3.51
357.524	3.52
357.889	3.48
358.253	3.45
358.618	3.37
358.982	3.34
359.346	3.37
359.71	3.39
360.075	3.43
360.439	3.49
360.803	3.48
361.167	3.53
361.531	3.59
361.895	3.65
362.259	3.65
362.623	3.64
362.987	3.62
363.351	3.63
363.714	3.67
364.078	3.68
364.442	3.63
364.806	3.54
365.169	3.52
365.533	3.51
365.896	3.56
366.26	3.54
366.623	3.49
366.987	3.45
367.35	3.47
367.714	3.48
368.077	3.48
368.44	3.5
368.803	3.49
369.167	3.38
369.53	3.38
369.893	3.34
370.256	3.33
370.619	3.31
370.982	3.44
371.345	3.46
371.708	3.47
372.071	3.44
372.434	3.49
372.797	3.48
373.159	3.46
373.522	3.42
373.885	3.49
374.247	3.47
374.61	3.52
374.973	3.5
375.335	3.53
375.698	3.53
376.06	3.51
376.423	3.53
376.785	3.6
377.147	3.6
377.51	3.59
377.872	3.53
378.234	3.52
378.596	3.47
378.958	3.42
379.321	3.38
379.683	3.47
380.045	3.45
380.407	3.45
380.769	3.5
381.13	3.49
381.492	3.39
381.854	3.42
382.216	3.44
382.578	3.43
382.939	3.36
383.301	3.32
383.663	3.27
384.024	3.29
384.386	3.25
384.747	3.28
385.109	3.35
385.47	3.37
385.832	3.37
386.193	3.29
386.554	3.3
386.916	3.34
387.277	3.28
387.638	3.31
387.999	3.33
388.36	3.28
388.721	3.29
389.082	3.34
389.443	3.36
389.804	3.36
390.165	3.39
390.526	3.39
390.887	3.41
391.248	3.47
391.609	3.43
391.969	3.43
392.33	3.37
392.691	3.34
393.051	3.36
393.412	3.36
393.772	3.37
394.133	3.36
394.493	3.33
394.854	3.33
395.214	3.33
395.574	3.33
395.935	3.38
396.295	3.41
396.655	3.38
397.015	3.35
397.376	3.31
397.736	3.3
398.096	3.31
398.456	3.25
398.816	3.22
399.176	3.21
399.535	3.21
399.895	3.23
400.255	3.22
400.615	3.2
400.975	3.21
401.334	3.28
401.694	3.28
402.054	3.27
402.413	3.28
402.773	3.25
403.132	3.23
403.492	3.21
403.851	3.18
404.211	3.18
404.57	3.25
404.929	3.24
405.288	3.25
405.648	3.25
406.007	3.29
406.366	3.3
406.725	3.34
407.084	3.35
407.443	3.35
407.802	3.32
408.161	3.31
408.52	3.31
408.879	3.29
409.238	3.28
409.596	3.32
409.955	3.31
410.314	3.33
410.673	3.34
411.031	3.33
411.39	3.36
411.748	3.39
412.107	3.32
412.465	3.32
412.824	3.33
413.182	3.35
413.54	3.36
413.899	3.36
414.257	3.34
414.615	3.33
414.974	3.34
415.332	3.36
415.69	3.34
416.048	3.36
416.406	3.35
416.764	3.36
417.122	3.32
417.48	3.32
417.838	3.31
418.195	3.31
418.553	3.32
418.911	3.32
419.269	3.32
419.626	3.33
419.984	3.35
420.342	3.33
420.699	3.33
421.057	3.34
421.414	3.35
421.772	3.36
422.129	3.35
422.486	3.35
422.844	3.37
423.201	3.37
423.558	3.36
423.915	3.37
424.273	3.37
424.63	3.39
424.987	3.39
425.344	3.4
425.701	3.39
426.058	3.39
426.415	3.38
426.772	3.38
427.128	3.38
427.485	3.37
427.842	3.37
428.199	3.38
428.555	3.37
428.912	3.36
429.269	3.34
429.625	3.36
429.982	3.36
430.338	3.36
430.695	3.38
431.051	3.39
431.407	3.37
431.764	3.38
432.12	3.36
432.476	3.37
432.832	3.37
433.189	3.38
433.545	3.38
433.901	3.4
434.257	3.39
434.613	3.39
434.969	3.4
435.325	3.41
435.681	3.37
436.036	3.37
436.392	3.38
436.748	3.39
437.104	3.39
437.459	3.38
437.815	3.38
438.171	3.39
438.526	3.41
438.882	3.43
439.237	3.43
439.593	3.44
439.948	3.42
440.304	3.42
440.659	3.44
441.014	3.45
441.369	3.46
441.725	3.47
442.08	3.49
442.435	3.47
442.79	3.45
443.145	3.49
443.5	3.49
443.855	3.48
444.21	3.49
444.565	3.49
444.92	3.49
445.275	3.5
445.629	3.5
445.984	3.47
446.339	3.47
446.693	3.49
447.048	3.48
447.403	3.49
447.757	3.49
448.112	3.49
448.466	3.48
448.82	3.48
449.175	3.48
449.529	3.47
449.883	3.48
450.238	3.48
450.592	3.48
450.946	3.48
451.3	3.48
451.654	3.48
452.008	3.48
452.362	3.48
452.716	3.49
453.07	3.49
453.424	3.48
453.778	3.49
454.132	3.46
454.486	3.49
454.839	3.49
455.193	3.47
455.547	3.46
455.9	3.46
456.254	3.45
456.607	3.45
456.961	3.46
457.314	3.46
457.668	3.46
458.021	3.46
458.375	3.45
458.728	3.46
459.081	3.45
459.434	3.46
459.787	3.46
460.141	3.45
460.494	3.45
460.847	3.47
461.2	3.47
461.553	3.49
461.906	3.47
462.259	3.46
462.611	3.48
462.964	3.47
463.317	3.47
463.67	3.48
464.022	3.49
464.375	3.48
464.728	3.49
465.08	3.5
465.433	3.5
465.785	3.49
466.138	3.5
466.49	3.51
466.843	3.52
467.195	3.53
467.547	3.52
467.899	3.51
468.252	3.49
468.604	3.49
468.956	3.5
469.308	3.49
469.66	3.49
470.012	3.5
470.364	3.51
470.716	3.53
471.068	3.51
471.42	3.49
471.772	3.52
472.123	3.53
472.475	3.54
472.827	3.53
473.178	3.55
473.53	3.57
473.882	3.55
474.233	3.55
474.585	3.55
474.936	3.55
475.288	3.56
475.639	3.58
475.99	3.57
476.342	3.57
476.693	3.59
477.044	3.59
477.395	3.6
477.746	3.59
478.097	3.58
478.448	3.58
478.8	3.6
479.15	3.58
479.501	3.57
479.852	3.58
480.203	3.58
480.554	3.58
480.905	3.58
481.255	3.6
481.606	3.59
481.957	3.6
482.307	3.61
482.658	3.61
483.009	3.61
483.359	3.61
483.709	3.61
484.06	3.61
484.41	3.61
484.761	3.61
485.111	3.62
485.461	3.62
485.811	3.63
486.162	3.63
486.512	3.64
486.862	3.64
487.212	3.64
487.562	3.64
487.912	3.65
488.262	3.64
488.612	3.64
488.961	3.64
489.311	3.63
489.661	3.64
490.011	3.63
490.36	3.64
490.71	3.63
491.06	3.64
491.409	3.64
491.759	3.64
492.108	3.64
492.458	3.64
492.807	3.62
493.157	3.62
493.506	3.62
493.855	3.62
494.204	3.63
494.554	3.63
494.903	3.63
495.252	3.62
495.601	3.62
495.95	3.62
496.299	3.64
496.648	3.66
496.997	3.66
497.346	3.66
497.695	3.66
498.043	3.67
498.392	3.66
498.741	3.66
499.09	3.67
499.438	3.69
499.787	3.69
500.135	3.71
500.484	3.72
500.832	3.73
501.181	3.74
501.529	3.75
501.878	3.75
502.226	3.77
502.574	3.79
502.923	3.79
503.271	3.78
503.619	3.78
503.967	3.75
504.315	3.75
504.663	3.76
505.011	3.75
505.359	3.74
505.707	3.75
506.055	3.76
506.403	3.75
506.751	3.76
507.098	3.76
507.446	3.78
507.794	3.78
508.141	3.78
508.489	3.78
508.837	3.76
509.184	3.78
509.531	3.77
509.879	3.77
510.226	3.77
510.574	3.78
510.921	3.78
511.268	3.79
511.616	3.81
511.963	3.82
512.31	3.84
512.657	3.85
513.004	3.83
513.351	3.82
513.698	3.82
514.045	3.8
514.392	3.79
514.739	3.76
515.086	3.75
515.432	3.75
515.779	3.75
516.126	3.78
516.473	3.77
516.819	3.78
517.166	3.78
517.512	3.78
517.859	3.79
518.205	3.79
518.552	3.81
518.898	3.79
519.245	3.78
519.591	3.78
519.937	3.78
520.283	3.79
520.629	3.8
520.976	3.81
521.322	3.82
521.668	3.84
522.014	3.86
522.36	3.87
522.706	3.87
523.052	3.87
523.398	3.84
523.743	3.86
524.089	3.87
524.435	3.86
524.781	3.88
525.126	3.86
525.472	3.86
525.817	3.85
526.163	3.87
526.509	3.87
526.854	3.87
527.199	3.88
527.545	3.88
527.89	3.88
528.235	3.88
528.581	3.87
528.926	3.86
529.271	3.87
529.616	3.87
529.961	3.87
530.306	3.87
530.651	3.88
530.996	3.88
531.341	3.88
531.686	3.88
532.031	3.88
532.376	3.88
532.721	3.88
533.065	3.88
533.41	3.86
533.755	3.85
534.099	3.85
534.444	3.84
534.788	3.85
535.133	3.85
535.477	3.86
535.822	3.87
536.166	3.88
536.51	3.86
536.855	3.85
537.199	3.85
537.543	3.86
537.887	3.85
538.231	3.84
538.576	3.85
538.92	3.88
539.264	3.87
539.608	3.87
539.951	3.87
540.295	3.87
540.639	3.9
540.983	3.91
541.327	3.93
541.671	3.94
542.014	3.94
542.358	3.94
542.701	3.95
543.045	3.94
543.389	3.95
543.732	3.96
544.075	3.96
544.419	3.96
544.762	3.95
545.105	3.97
545.449	3.97
545.792	3.96
546.135	3.94
546.478	3.96
546.821	3.97
547.165	4.02
547.508	4.01
547.851	4
548.194	4
548.536	3.97
548.879	3.98
549.222	3.99
549.565	3.98
549.908	3.97
550.25	3.97
550.593	3.98
550.936	3.99
551.278	4.02
551.621	4.01
551.963	4.05
552.306	4.06
552.648	4.08
552.991	4.08
553.333	4.07
553.675	4.06
554.017	4.06
554.36	4.04
554.702	4.05
555.044	4.05
555.386	4.06
555.728	4.08
556.07	4.07
556.412	4.05
556.754	4.06
557.096	4.07
557.438	4.08
557.78	4.06
558.121	4.06
558.463	4.08
558.805	4.14
559.147	4.11
559.488	4.06
559.83	4.06
560.171	4.02
560.513	4.04
560.854	4.04
561.196	4.05
561.537	4.03
561.878	4.05
562.22	4.07
562.561	4.07
562.902	4.05
563.243	4.07
563.584	4.1
563.925	4.1
564.266	4.08
564.607	4.09
564.948	4.09
565.289	4.1
565.63	4.05
565.971	4.03
566.312	4.03
566.653	4.06
566.993	4.05
567.334	4.11
567.675	4.11
568.015	4.09
568.356	4.07
568.696	4.05
569.037	4.03
569.377	4.03
569.718	4.01
570.058	4.01
570.398	3.99
570.739	3.97
571.079	3.96
571.419	3.97
571.759	3.97
572.099	4
572.439	4
572.779	4.02
573.119	4
573.459	3.99
573.799	3.96
574.139	3.96
574.479	3.93
574.819	3.93
575.158	3.96
575.498	3.97
575.838	3.98
576.177	4.01
576.517	4.02
576.856	4.03
577.196	4.02
577.535	4.03
577.875	4.04
578.214	4.02
578.553	4.02
578.893	4.02
579.232	4.01
579.571	4.01
579.91	4.01
580.25	4.01
580.589	4.04
580.928	4.1
581.267	4.1
581.606	4.13
581.945	4.13
582.283	4.11
582.622	4.1
582.961	4.11
583.3	4.07
583.639	4.06
583.977	4.11
584.316	4.1
584.654	4.11
584.993	4.1
585.332	4.14
585.67	4.14
586.008	4.14
586.347	4.12
586.685	4.09
587.024	4.12
587.362	4.14
587.7	4.13
588.038	4.12
588.376	4.14
588.715	4.08
589.053	4.08
589.391	4.07
589.729	4.08
590.067	4.11
590.404	4.16
590.742	4.14
591.08	4.12
591.418	4.13
591.756	4.13
592.093	4.12
592.431	4.15
592.769	4.13
593.106	4.13
593.444	4.13
593.781	4.14
594.119	4.11
594.456	4.17
594.793	4.15
595.131	4.13
595.468	4.13
595.805	4.16
596.143	4.18
596.48	4.2
596.817	4.18
597.154	4.14
597.491	4.09
597.828	4.09
598.165	4.09
598.502	4.08
598.839	4.08
599.176	4.11
599.512	4.07
599.849	4.09
600.186	4.09
600.523	4.11
600.859	4.13
601.196	4.14
601.532	4.08
601.869	4.09
602.205	4.08
602.542	4.08
602.878	4.1
603.215	4.09
603.551	4.08
603.887	4.11
604.223	4.15
604.56	4.17
604.896	4.18
605.232	4.18
605.568	4.2
605.904	4.19
606.24	4.18
606.576	4.18
606.912	4.19
607.248	4.19
607.583	4.2
607.919	4.18
608.255	4.19
608.591	4.21
608.926	4.19
609.262	4.23
609.597	4.21
609.933	4.17
610.268	4.18
610.604	4.17
610.939	4.19
611.275	4.19
611.61	4.18
611.945	4.17
612.281	4.19
612.616	4.2
612.951	4.22
613.286	4.23
613.621	4.21
613.956	4.24
614.291	4.25
614.626	4.24
614.961	4.27
615.296	4.29
615.631	4.3
615.966	4.32
616.3	4.32
616.635	4.32
616.97	4.36
617.304	4.38
617.639	4.44
617.973	4.39
618.308	4.4
618.642	4.39
618.977	4.38
619.311	4.34
619.646	4.34
619.98	4.34
620.314	4.33
620.648	4.37
620.983	4.36
621.317	4.33
621.651	4.33
621.985	4.31
622.319	4.25
622.653	4.25
622.987	4.22
623.321	4.2
623.655	4.23
623.988	4.22
624.322	4.23
624.656	4.21
624.99	4.23
625.323	4.22
625.657	4.26
625.99	4.32
626.324	4.33
626.657	4.29
626.991	4.29
627.324	4.29
627.658	4.28
627.991	4.3
628.324	4.31
628.657	4.29
628.991	4.35
629.324	4.41
629.657	4.42
629.99	4.48
630.323	4.46
630.656	4.44
630.989	4.44
631.322	4.41
631.655	4.42
631.987	4.47
632.32	4.45
632.653	4.43
632.986	4.41
633.318	4.41
633.651	4.48
633.984	4.52
634.316	4.53
634.649	4.54
634.981	4.53
635.313	4.53
635.646	4.59
635.978	4.54
636.31	4.48
636.643	4.52
636.975	4.52
637.307	4.61
637.639	4.53
637.971	4.51
638.303	4.52
638.635	4.52
638.967	4.51
639.299	4.52
639.631	4.54
639.963	4.51
640.295	4.51
640.626	4.48
640.958	4.42
641.29	4.44
641.621	4.47
641.953	4.4
642.285	4.49
642.616	4.45
642.948	4.48
643.279	4.5
643.61	4.49
643.942	4.45
644.273	4.42
644.604	4.49
644.936	4.59
645.267	4.55
645.598	4.56
645.929	4.52
646.26	4.51
646.591	4.52
646.922	4.62
647.253	4.6
647.584	4.64
647.915	4.68
648.245	4.71
648.576	4.69
648.907	4.72
649.238	4.59
649.568	4.63
649.899	4.57
650.229	4.58
650.56	4.53
650.89	4.55
651.221	4.5
651.551	4.53
651.882	4.5
652.212	4.54
652.542	4.55
652.872	4.56
653.203	4.59
653.533	4.57
653.863	4.51
654.193	4.54
654.523	4.45
654.853	4.5
655.183	4.45
655.513	4.46
655.843	4.46
656.172	4.55
656.502	4.48
656.832	4.51
657.162	4.56
657.491	4.6
657.821	4.63
658.15	4.68
658.48	4.72
658.809	4.67
659.139	4.71
659.468	4.7
659.798	4.75
660.127	4.73
660.456	4.78
660.785	4.76
661.115	4.78
661.444	4.79
661.773	4.76
662.102	4.79
662.431	4.77
662.76	4.85
663.089	4.82
663.418	4.83
663.747	4.85
664.076	4.87
664.404	4.83
664.733	4.75
665.062	4.8
665.39	4.77
665.719	4.81
666.048	4.78
666.376	4.79
666.705	4.67
667.033	4.66
667.362	4.55
667.69	4.61
668.018	4.6
668.347	4.62
668.675	4.58
669.003	4.56
669.331	4.59
669.659	4.59
669.987	4.61
670.315	4.67
670.643	4.64
670.971	4.59
671.299	4.64
671.627	4.64
671.955	4.5
672.283	4.5
672.61	4.48
672.938	4.42
673.266	4.39
673.593	4.42
673.921	4.43
674.249	4.51
674.576	4.46
674.904	4.42
675.231	4.48
675.558	4.54
675.886	4.54
676.213	4.47
676.54	4.47
676.867	4.44
677.195	4.43
677.522	4.53
677.849	4.59
678.176	4.57
678.503	4.7
678.83	4.7
679.157	4.67
679.484	4.65
679.81	4.72
680.137	4.8
680.464	4.82
680.791	4.88
681.117	4.88
681.444	4.9
681.771	4.91
682.097	4.97
682.424	4.9
682.75	4.89
683.077	4.96
683.403	5.02
683.729	5.04
684.056	5.03
684.382	5
684.708	5.11
685.034	5.13
685.36	5.03
685.686	5.11
686.012	5.18
686.339	5.15
686.664	5.16
686.99	5.07
687.316	5.05
687.642	5
687.968	5.04
688.294	5.01
688.619	5.01
688.945	4.96
689.271	5.02
689.596	5.15
689.922	5.14
690.247	4.97
690.573	4.97
690.898	5.04
691.224	5.02
691.549	4.94
691.874	5.03
692.2	5.07
692.525	5.08
692.85	5
693.175	5.15
693.5	5
693.825	5
694.15	5.02
694.475	5.07
694.8	5.04
695.125	5.01
695.45	4.92
695.775	4.95
696.099	4.98
696.424	4.94
696.749	4.98
697.073	4.99
697.398	5.05
697.723	4.98
698.047	4.93
698.372	4.9
698.696	4.74
699.02	4.7
699.345	4.76
699.669	4.81
699.993	4.77
700.318	4.86
700.642	4.93
700.966	4.96
701.29	5
701.614	5.05
701.938	5.07
702.262	5.16
702.586	5.05
702.91	5.04
703.234	5.02
703.557	4.96
703.881	5.1
704.205	5.06
704.529	5.03
704.852	5.01
705.176	5.02
705.499	5
705.823	5.07
706.146	4.99
706.47	5.09
706.793	5.13
707.117	5.12
707.44	5
707.763	5.01
708.086	4.89
708.409	4.83
708.733	4.88
709.056	4.98
709.379	5.13
709.702	5.16
710.025	5.25
710.348	5.16
710.671	5.17
710.993	5.24
711.316	5.34
711.639	5.44
711.962	5.43
712.284	5.59
712.607	5.68
712.93	5.74
713.252	5.67
713.575	5.69
713.897	5.67
714.22	5.73
714.542	5.78
714.864	5.85
715.187	5.78
715.509	5.76
715.831	5.72
716.153	5.73
716.475	5.79
716.798	5.59
717.12	5.78
717.442	5.6
717.764	5.59
718.085	5.47
718.407	5.4
718.729	5.46
719.051	5.48
719.373	5.47
719.695	5.52
720.016	5.51
720.338	5.43
720.659	5.65
720.981	5.62
721.302	5.74
721.624	5.81
721.945	5.98
722.267	5.97
722.588	6.02
722.909	5.83
723.231	5.73
723.552	5.84
723.873	5.74
724.194	6.05
724.515	6.14
724.836	6.26
725.157	6.35
725.478	6.38
725.799	6.4
726.12	6.31
726.441	6.29
726.762	6.43
727.083	6.49
727.403	6.21
727.724	6.25
728.045	6.29
728.365	5.92
728.686	5.77
729.006	5.74
729.327	5.77
729.647	5.94
729.967	6.07
730.288	6.13
730.608	6.19
730.928	6.24
731.249	6.23
731.569	6.36
731.889	6.36
732.209	6.3
732.529	6.27
732.849	6.27
733.169	6.22
733.489	6.01
733.809	5.94
734.129	6.11
734.448	6.13
734.768	5.98
735.088	6.19
735.408	6.27
735.727	6.25
736.047	6.28
736.366	6.35
736.686	6.17
737.005	6.3
737.325	6.32
737.644	5.97
737.963	6.06
738.283	5.94
738.602	6.18
738.921	6.28
739.24	6.23
739.56	6.25
739.879	6.19
740.198	6.36
740.517	6.39
740.836	6.27
741.155	6.42
741.473	6.51
741.792	6.83
742.111	6.8
742.43	7.18
742.748	7.17
743.067	7.07
743.386	6.99
743.704	6.89
744.023	7.01
744.341	7.47
744.66	7.26
744.978	7.17
745.297	7.02
745.615	7.02
745.933	7.17
746.252	7.38
746.57	7.61
746.888	7.54
747.206	7.62
747.524	7.77
747.842	7.34
748.16	7.26
748.478	7.27
748.796	7.4
749.114	7.52
749.432	7.37
749.749	7.38
750.067	7.53
750.385	7.57
750.703	7.44
751.02	7.13
751.338	7.06
751.655	7.15
751.973	7.04
752.29	6.61
752.608	6.33
752.925	6.26
753.242	6.09
753.56	5.97
753.877	5.84
754.194	6.07
754.511	6.58
754.828	6.51
755.145	6.45
755.462	6.56
755.779	6.31
756.096	6.55
756.413	6.91
756.73	7.07
757.047	6.69
757.364	6.72
757.68	6.76
757.997	7
758.314	7.43
758.63	7.54
758.947	7.72
759.264	8.01
759.58	7.97
759.896	8.24
760.213	8.58
760.529	8.86
760.846	8.6
761.162	8.5
761.478	8.47
761.794	8.56
762.11	8.49
762.426	8.38
762.743	8.26
763.059	8.15
763.375	7.94
763.69	8.14
764.006	8.25
764.322	8.35
764.638	8.37
764.954	7.97
765.27	7.86
765.585	7.95
765.901	7.84
766.216	7.93
766.532	7.64
766.848	7.45
767.163	7.27
767.478	7.24
767.794	7.11
768.109	7.14
768.424	7.02
768.74	6.97
769.055	7.07
769.37	7
769.685	6.71
770	6.78
770.315	6.95
770.63	6.76
770.945	6.88
771.26	6.78
771.575	6.73
771.89	6.71
772.205	6.8
772.52	6.7
772.834	6.47
773.149	6.53
773.464	6.42
773.778	6.59
774.093	6.83
774.407	7.1
774.722	7.06
775.036	7.1
775.351	7.11
775.665	7.04
775.979	6.99
776.293	7.12
776.608	7.29
776.922	7.11
777.236	7.32
777.55	6.79
777.864	6.71
778.178	7.17
778.492	7.32
778.806	7.32
779.12	7.49
779.434	7.58
779.747	7.66
780.061	8.09
780.375	7.86
780.689	7.91
781.002	7.99
781.316	8.25
781.629	8.04
781.943	8.24
782.256	8.03
782.57	8.36
782.883	8.59
783.196	8.43
783.51	8.39
783.823	8.35
784.136	8.55
784.449	8.34
784.762	8.53
785.075	8.58
785.388	8.98
785.701	8.97
786.014	8.37
786.327	8.6
786.64	8.62
786.953	9.02
787.266	8.94
787.578	8.77
787.891	8.62
788.204	8.57
788.516	8.13
788.829	8.58
789.141	8.82
789.454	8.72
789.766	8.82
790.079	8.68
790.391	8.49
790.703	8.81
791.016	9.14
791.328	8.89
791.64	9
791.952	8.82
792.264	8.85
792.576	9.43
792.888	9.09
793.2	9.32
793.512	9.42
793.824	8.97
794.136	8.95
794.448	9.32
794.76	9.3
795.071	9.63
795.383	9.32
795.695	8.66
796.006	8.52
796.318	8.54
796.629	8.72
796.941	8.87
797.252	8.64
797.564	8.65
797.875	8.98
798.186	8.88
798.497	8.6
798.809	8.2
799.12	8.1
799.431	8.08
799.742	7.89
800.053	7.63
800.364	8
800.675	8.51
800.986	8.1
801.297	8.34
801.608	8.66
801.918	9.05
802.229	9.44
802.54	9.9
802.851	9.52
803.161	9.52
803.472	9.56
803.782	9.54
804.093	9.31
804.403	9.27
804.714	9.34
805.024	9.66
805.334	10.05
805.645	10.57
805.955	11.27
806.265	10.9
806.575	10.98
806.885	10.81
807.195	10.6
807.505	10.8
807.815	11.27
808.125	10.92
808.435	10.94
808.745	10.53
809.055	10.44
809.365	10.99
809.674	11.83
809.984	11.59
810.294	12.04
810.603	12.16
810.913	11.73
811.222	11.81
811.532	12.04
811.841	12.42
812.151	12.42
812.46	12.56
812.769	13.09
813.079	12.6
813.388	12.63
813.697	12.01
814.006	12.06
814.315	11.49
814.624	11.73
814.933	11.7
815.242	11.94
815.551	11.46
815.86	11.29
816.169	10.2
816.478	10.21
816.786	9.12
817.095	9.41
817.404	9.84
817.712	9.63
818.021	9.4
818.33	9.2
818.638	8.79
818.947	9.36
819.255	9
819.563	8.93
819.872	8.92
820.18	9.09
820.488	9.29
820.796	9.34
821.105	9.2
821.413	9.34
821.721	9.35
822.029	9.34
822.337	9.43
822.645	9.62
822.953	9.59
823.26	9.81
823.568	9.69
823.876	9.63
824.184	9.73
824.491	9.71
824.799	9.71
825.107	9.69
825.414	9.29
825.722	9.27
826.029	9.34
826.337	9.44
826.644	9.58
826.951	9.42
827.259	9.54
827.566	9.58
827.873	9.45
828.18	9.61
828.488	9.68
828.795	9.61
829.102	9.5
829.409	9.65
829.716	9.74
830.023	9.99
830.329	9.91
830.636	9.69
830.943	9.39
831.25	9.39
831.557	9.71
831.863	10.27
832.17	10.83
832.476	10.84
832.783	10.47
833.089	10.54
833.396	10.57
833.702	10.52
834.009	10.77
834.315	10.72
834.621	10.55
834.928	10.54
835.234	10.45
835.54	10.1
835.846	10.36
836.152	10.24
836.458	10.08
836.764	10.46
837.07	10.49
837.376	10.87
837.682	10.8
837.988	10.79
838.293	10.15
838.599	9.7
838.905	9.99
839.211	11.01
839.516	10.77
839.822	11.3
840.127	10.81
840.433	10.68
840.738	10.6
841.044	10.75
841.349	10.44
841.654	10.43
841.959	11.42
842.265	10.79
842.57	10.71
842.875	11.26
843.18	10.51
843.485	11.56
843.79	11.72
844.095	11.58
844.4	12.09
844.705	13.31
845.01	13.97
845.315	14.17
845.619	14.32
845.924	13.46
846.229	12.78
846.533	12.76
846.838	14.59
847.142	14.81
847.447	15.18
847.751	16.27
848.056	16.05
848.36	15.19
848.664	15.37
848.969	14.84
849.273	14.12
849.577	13.97
849.881	14.06
850.185	13.18
850.489	14.29
850.794	14.16
851.097	12.94
851.401	10.61
851.705	10.66
852.009	10.33
852.313	10.97
852.617	11.73
852.92	14.29
853.224	10.89
853.528	11.41
853.831	11.9
854.135	11.62
854.438	10.64
854.742	11.71
855.045	13.66
855.349	12.57
855.652	11.84
855.955	13.08
856.259	11.91
856.562	13.93
856.865	15.12
857.168	13.9
857.471	14.99
857.774	16.36
858.077	15.23
858.38	15.14
858.683	15.8
858.986	14.73
859.289	14.67
859.592	15.2
859.894	14.65
860.197	13.64
860.5	14.87
860.802	16.28
861.105	16.58
861.407	15.4
861.71	17.39
862.012	19
862.315	18.92
862.617	19.56
862.919	17.91
863.222	17.54
863.524	17.32
863.826	17.15
864.128	19.38
864.43	19.5
864.732	18.35
865.034	18.83
865.336	20.54
865.638	17.22
865.94	17.17
866.242	17
866.544	18.26
866.846	17.93
867.147	20.35
867.449	20.57
867.751	20.88
868.052	20.37
868.354	19.7
868.655	18.36
868.957	17.58
869.258	19.54
869.56	19.61
869.861	20.43
870.162	20.06
870.463	19.85
870.765	20.63
871.066	21.05
871.367	19.15
871.668	18.23
871.969	19.75
872.27	20.83
872.571	21.12
872.872	20.51
873.173	18.88
873.473	16.96
873.774	16.43
874.075	17.06
874.376	14.9
874.676	15.69
874.977	15.39
875.277	15.71
875.578	13.75
875.878	12.74
876.179	12.32
876.479	12.08
876.78	10.37
877.08	9.66
877.38	8.72
877.68	9.71
877.981	9.93
878.281	9.57
878.581	7.89
