Data from MVZ_BU5182_Reflection_00010.txt Node
Date: Tue Nov 19 12:19:22 EST 2019
User: vgr7
Spectrometer: USB2G7710
Scans to average: 3
Trigger mode: 4
Integration Time (sec): 2.000000E-2
Electric dark correction enabled: true
Boxcar width: 10
XAxis mode: Wavelengths
Number of Pixels in Spectrum: 2048
>>>>>Begin Spectral Data<<<<<
177.721	-28.58
178.105	-80.79
178.488	-59.19
178.871	22.62
179.254	4.44
179.636	35.45
180.019	99.21
180.402	309.09
180.785	-87.36
181.168	-2709.52
181.55	279.74
181.933	386.16
182.316	-237.61
182.698	-68.59
183.081	-38.97
183.463	-33.26
183.846	-9.31
184.228	-30.51
184.611	-5.45
184.993	-8.04
185.376	-23.41
185.758	-25.07
186.14	-34.73
186.522	-19.6
186.904	-9.52
187.287	-12.42
187.669	-1.08
188.051	0.2
188.433	-15.64
188.815	-3.52
189.197	3.78
189.579	-14.14
189.961	-2.87
190.342	-19.7
190.724	-22.11
191.106	-34.6
191.488	-32.82
191.869	-62.61
192.251	-59.46
192.633	-66.67
193.014	-49.26
193.396	-41.06
193.777	-38.13
194.159	-43.41
194.54	-38.2
194.922	-32.67
195.303	-33.52
195.684	-29.51
196.065	-30.84
196.447	-17.53
196.828	-26.94
197.209	-31.84
197.59	-17.26
197.971	-15.58
198.352	-14.47
198.733	-22.6
199.114	-21.99
199.495	-20.8
199.876	-13.96
200.257	-12.56
200.638	-18.94
201.018	-36.4
201.399	-45.03
201.78	-53.29
202.16	-53.22
202.541	-101.06
202.922	-99.2
203.302	-116.18
203.683	-146.31
204.063	-136.18
204.444	-177.78
204.824	-145.8
205.204	-106.34
205.585	-102.11
205.965	-124.26
206.345	-117.2
206.725	-96.97
207.106	-84.32
207.486	-69.58
207.866	-61.92
208.246	-60.5
208.626	-64.45
209.006	-52.68
209.386	-46.05
209.766	-41.8
210.145	-39.03
210.525	-29.63
210.905	-22.68
211.285	-8.79
211.664	-4.55
212.044	-1.52
212.424	2.19
212.803	13.86
213.183	0.4
213.562	-0.88
213.942	-0.32
214.321	-1.33
214.701	-8.84
215.08	-17.9
215.459	-18.29
215.838	-20.66
216.218	-21.49
216.597	-11.65
216.976	-12.82
217.355	-23.69
217.734	-32.42
218.113	-21.17
218.492	-18.71
218.871	-25.28
219.25	-28.05
219.629	-28.06
220.008	-32.16
220.387	-32.22
220.766	-30.43
221.144	-32.58
221.523	-30.74
221.902	-21.78
222.28	-17.76
222.659	-16.16
223.037	-8.23
223.416	-10.13
223.794	-7.7
224.173	-10.63
224.551	-12.33
224.929	-14.85
225.308	-11.37
225.686	-6.33
226.064	-9.48
226.442	-6.01
226.821	-5.31
227.199	-6.73
227.577	-4.9
227.955	-1.28
228.333	2.1
228.711	3.06
229.089	5.82
229.467	-0.15
229.845	-4.3
230.222	-3.45
230.6	-1.97
230.978	-1.94
231.356	-0.12
231.733	-1.54
232.111	-1.47
232.488	-0.31
232.866	3.75
233.243	4.07
233.621	2.98
233.998	1.77
234.376	0.41
234.753	1.56
235.13	1.09
235.508	0.71
235.885	-0.4
236.262	-3.02
236.639	-4.13
237.016	-5.1
237.393	-1.75
237.77	0.46
238.147	0.88
238.524	1.06
238.901	-0.26
239.278	-0.89
239.655	-0.04
240.032	0.77
240.409	0.69
240.785	-0.02
241.162	-0.05
241.539	0.2
241.915	0.98
242.292	1.06
242.668	0.94
243.045	1.54
243.421	1.67
243.798	1.79
244.174	2.48
244.551	2.48
244.927	3.01
245.303	3
245.679	2.52
246.056	2.61
246.432	2.44
246.808	2.92
247.184	2.89
247.56	2.71
247.936	2.77
248.312	2.88
248.688	2.96
249.064	2.98
249.44	3.01
249.815	2.9
250.191	3.31
250.567	3.21
250.943	3.35
251.318	3.56
251.694	3.44
252.069	3.26
252.445	3.37
252.82	3.37
253.196	3.2
253.571	3.57
253.947	3.64
254.322	3.8
254.697	3.48
255.073	3.52
255.448	3.56
255.823	3.62
256.198	3.68
256.573	3.58
256.948	3.53
257.323	3.49
257.698	3.31
258.073	3.08
258.448	3.28
258.823	3.12
259.198	2.95
259.573	3.02
259.948	3.23
260.322	3.22
260.697	3.19
261.072	3.43
261.446	3.34
261.821	3.2
262.195	3.2
262.57	3.28
262.944	3.31
263.319	3.24
263.693	3.14
264.067	2.99
264.442	3
264.816	3.24
265.19	3.08
265.564	3.16
265.938	3.08
266.313	2.86
266.687	2.85
267.061	2.87
267.435	2.97
267.809	2.72
268.183	2.55
268.556	2.54
268.93	2.61
269.304	2.71
269.678	2.89
270.051	2.96
270.425	2.9
270.799	2.85
271.172	2.84
271.546	2.96
271.919	3.08
272.293	3.12
272.666	3.01
273.04	3.19
273.413	3.18
273.787	3.2
274.16	3.19
274.533	3.35
274.906	3.41
275.279	3.22
275.653	3.18
276.026	3.32
276.399	3.25
276.772	3.1
277.145	3.06
277.518	3
277.891	2.83
278.263	3.02
278.636	3.19
279.009	3.23
279.382	3.17
279.755	3.11
280.127	2.95
280.5	2.98
280.872	3.1
281.245	3.05
281.617	3.16
281.99	3.29
282.362	3.15
282.735	3.04
283.107	3.1
283.479	3.29
283.852	3.34
284.224	3.31
284.596	3.27
284.968	3.25
285.34	3.18
285.713	3.32
286.085	3.11
286.457	3.09
286.829	3.06
287.201	2.92
287.572	2.94
287.944	3.03
288.316	3.03
288.688	3.02
289.06	3.14
289.431	3
289.803	3.13
290.175	3.2
290.546	3.24
290.918	3.19
291.289	2.94
291.661	2.81
292.032	2.84
292.403	2.77
292.775	2.8
293.146	2.87
293.517	2.89
293.889	3.06
294.26	2.97
294.631	3.1
295.002	3.3
295.373	3.27
295.744	3.22
296.115	3.21
296.486	3.07
296.857	3.09
297.228	3.06
297.599	2.96
297.97	2.96
298.34	2.97
298.711	3.07
299.082	3.11
299.452	3.2
299.823	3.31
300.194	3.29
300.564	3.34
300.935	3.29
301.305	3.18
301.676	3.06
302.046	3.09
302.416	3.17
302.787	3.1
303.157	3.21
303.527	3.29
303.897	3.21
304.267	3.28
304.637	3.21
305.008	3.43
305.378	3.47
305.748	3.39
306.117	3.66
306.487	3.66
306.857	3.8
307.227	3.89
307.597	3.88
307.967	3.95
308.336	4.06
308.706	4.03
309.076	4.14
309.445	4.3
309.815	4.29
310.184	4.22
310.554	4.11
310.923	4.05
311.293	4.05
311.662	4.17
312.031	4.21
312.401	4.32
312.77	4.2
313.139	4.24
313.508	4.31
313.877	4.27
314.246	4.33
314.616	4.41
314.985	4.38
315.353	4.33
315.722	4.43
316.091	4.29
316.46	4.36
316.829	4.42
317.198	4.26
317.567	4.39
317.935	4.47
318.304	4.76
318.672	4.8
319.041	4.87
319.41	4.89
319.778	4.88
320.147	4.86
320.515	4.92
320.883	4.94
321.252	5.05
321.62	5.1
321.988	5.23
322.357	5.2
322.725	5.14
323.093	5.18
323.461	5.32
323.829	5.39
324.197	5.41
324.565	5.28
324.933	5.38
325.301	5.2
325.669	5.21
326.037	5.13
326.405	5.18
326.772	5.26
327.14	5.24
327.508	5.2
327.875	5.29
328.243	5.26
328.61	5.26
328.978	5.19
329.346	5.08
329.713	5.11
330.08	5.16
330.448	5.29
330.815	5.36
331.182	5.08
331.55	5.11
331.917	5.1
332.284	5.34
332.651	5.39
333.018	5.54
333.385	5.47
333.752	5.51
334.119	5.49
334.486	5.45
334.853	5.46
335.22	5.49
335.587	5.46
335.954	5.54
336.32	5.59
336.687	5.63
337.054	5.74
337.42	5.75
337.787	5.63
338.153	5.73
338.52	5.63
338.886	5.79
339.253	5.68
339.619	5.68
339.986	5.49
340.352	5.4
340.718	5.38
341.084	5.45
341.451	5.52
341.817	5.49
342.183	5.43
342.549	5.48
342.915	5.43
343.281	5.29
343.647	5.26
344.013	5.2
344.379	5.12
344.745	5.24
345.11	5.27
345.476	5.39
345.842	5.27
346.208	5.41
346.573	5.44
346.939	5.68
347.304	5.65
347.67	5.77
348.035	5.74
348.401	5.82
348.766	5.76
349.132	5.72
349.497	5.73
349.862	5.78
350.228	5.87
350.593	5.97
350.958	6.08
351.323	6.28
351.688	6.33
352.053	6.4
352.418	6.3
352.783	6.27
353.148	6.31
353.513	6.28
353.878	6.22
354.243	6.12
354.608	6.13
354.972	6.18
355.337	6.13
355.702	6.18
356.066	6.17
356.431	6.19
356.795	6.11
357.16	6.11
357.524	6.2
357.889	6.13
358.253	6.07
358.618	6.07
358.982	5.91
359.346	5.94
359.71	5.95
360.075	5.89
360.439	5.84
360.803	5.86
361.167	5.86
361.531	5.79
361.895	5.82
362.259	5.78
362.623	5.76
362.987	5.71
363.351	5.75
363.714	5.72
364.078	5.7
364.442	5.67
364.806	5.72
365.169	5.64
365.533	5.56
365.896	5.63
366.26	5.59
366.623	5.58
366.987	5.52
367.35	5.53
367.714	5.54
368.077	5.55
368.44	5.5
368.803	5.49
369.167	5.52
369.53	5.51
369.893	5.46
370.256	5.47
370.619	5.53
370.982	5.47
371.345	5.46
371.708	5.45
372.071	5.55
372.434	5.44
372.797	5.48
373.159	5.45
373.522	5.36
373.885	5.41
374.247	5.42
374.61	5.4
374.973	5.35
375.335	5.36
375.698	5.3
376.06	5.25
376.423	5.22
376.785	5.23
377.147	5.2
377.51	5.14
377.872	5.18
378.234	5.13
378.596	5.15
378.958	5.16
379.321	5.12
379.683	5.05
380.045	5.01
380.407	5
380.769	5.04
381.13	5.07
381.492	4.97
381.854	4.94
382.216	4.96
382.578	4.98
382.939	4.9
383.301	4.87
383.663	4.87
384.024	4.86
384.386	4.81
384.747	4.8
385.109	4.81
385.47	4.73
385.832	4.68
386.193	4.65
386.554	4.57
386.916	4.56
387.277	4.53
387.638	4.59
387.999	4.5
388.36	4.43
388.721	4.43
389.082	4.42
389.443	4.42
389.804	4.38
390.165	4.36
390.526	4.34
390.887	4.33
391.248	4.28
391.609	4.28
391.969	4.26
392.33	4.24
392.691	4.25
393.051	4.25
393.412	4.27
393.772	4.28
394.133	4.29
394.493	4.27
394.854	4.25
395.214	4.22
395.574	4.23
395.935	4.25
396.295	4.19
396.655	4.18
397.015	4.14
397.376	4.12
397.736	4.05
398.096	4.03
398.456	4.04
398.816	4
399.176	3.93
399.535	3.92
399.895	3.9
400.255	3.84
400.615	3.83
400.975	3.81
401.334	3.78
401.694	3.74
402.054	3.7
402.413	3.7
402.773	3.68
403.132	3.73
403.492	3.69
403.851	3.73
404.211	3.73
404.57	3.72
404.929	3.72
405.288	3.75
405.648	3.77
406.007	3.73
406.366	3.72
406.725	3.73
407.084	3.76
407.443	3.8
407.802	3.79
408.161	3.77
408.52	3.76
408.879	3.75
409.238	3.78
409.596	3.82
409.955	3.78
410.314	3.78
410.673	3.74
411.031	3.75
411.39	3.71
411.748	3.72
412.107	3.71
412.465	3.68
412.824	3.65
413.182	3.66
413.54	3.68
413.899	3.7
414.257	3.71
414.615	3.68
414.974	3.65
415.332	3.64
415.69	3.6
416.048	3.59
416.406	3.55
416.764	3.52
417.122	3.52
417.48	3.55
417.838	3.52
418.195	3.51
418.553	3.5
418.911	3.49
419.269	3.48
419.626	3.47
419.984	3.47
420.342	3.44
420.699	3.43
421.057	3.41
421.414	3.43
421.772	3.4
422.129	3.37
422.486	3.36
422.844	3.37
423.201	3.38
423.558	3.38
423.915	3.39
424.273	3.38
424.63	3.38
424.987	3.37
425.344	3.37
425.701	3.36
426.058	3.34
426.415	3.35
426.772	3.34
427.128	3.35
427.485	3.34
427.842	3.35
428.199	3.34
428.555	3.34
428.912	3.31
429.269	3.32
429.625	3.33
429.982	3.35
430.338	3.34
430.695	3.33
431.051	3.33
431.407	3.33
431.764	3.34
432.12	3.33
432.476	3.33
432.832	3.33
433.189	3.33
433.545	3.34
433.901	3.32
434.257	3.32
434.613	3.31
434.969	3.31
435.325	3.32
435.681	3.3
436.036	3.3
436.392	3.31
436.748	3.32
437.104	3.33
437.459	3.32
437.815	3.32
438.171	3.34
438.526	3.34
438.882	3.36
439.237	3.36
439.593	3.36
439.948	3.35
440.304	3.36
440.659	3.37
441.014	3.36
441.369	3.36
441.725	3.35
442.08	3.35
442.435	3.36
442.79	3.34
443.145	3.36
443.5	3.35
443.855	3.34
444.21	3.32
444.565	3.32
444.92	3.35
445.275	3.33
445.629	3.32
445.984	3.31
446.339	3.3
446.693	3.3
447.048	3.27
447.403	3.27
447.757	3.26
448.112	3.26
448.466	3.25
448.82	3.24
449.175	3.26
449.529	3.26
449.883	3.25
450.238	3.27
450.592	3.26
450.946	3.26
451.3	3.27
451.654	3.27
452.008	3.25
452.362	3.22
452.716	3.22
453.07	3.24
453.424	3.23
453.778	3.23
454.132	3.23
454.486	3.25
454.839	3.25
455.193	3.27
455.547	3.26
455.9	3.29
456.254	3.29
456.607	3.29
456.961	3.28
457.314	3.3
457.668	3.3
458.021	3.31
458.375	3.3
458.728	3.29
459.081	3.32
459.434	3.32
459.787	3.32
460.141	3.33
460.494	3.32
460.847	3.32
461.2	3.31
461.553	3.32
461.906	3.33
462.259	3.3
462.611	3.29
462.964	3.3
463.317	3.29
463.67	3.31
464.022	3.33
464.375	3.33
464.728	3.34
465.08	3.35
465.433	3.36
465.785	3.36
466.138	3.41
466.49	3.41
466.843	3.45
467.195	3.45
467.547	3.46
467.899	3.49
468.252	3.51
468.604	3.51
468.956	3.51
469.308	3.5
469.66	3.53
470.012	3.56
470.364	3.55
470.716	3.58
471.068	3.59
471.42	3.59
471.772	3.61
472.123	3.59
472.475	3.61
472.827	3.6
473.178	3.59
473.53	3.56
473.882	3.56
474.233	3.53
474.585	3.54
474.936	3.54
475.288	3.53
475.639	3.53
475.99	3.53
476.342	3.56
476.693	3.59
477.044	3.59
477.395	3.57
477.746	3.56
478.097	3.54
478.448	3.52
478.8	3.5
479.15	3.5
479.501	3.5
479.852	3.47
480.203	3.48
480.554	3.48
480.905	3.49
481.255	3.49
481.606	3.49
481.957	3.5
482.307	3.51
482.658	3.52
483.009	3.51
483.359	3.52
483.709	3.49
484.06	3.48
484.41	3.49
484.761	3.5
485.111	3.51
485.461	3.51
485.811	3.51
486.162	3.51
486.512	3.5
486.862	3.51
487.212	3.52
487.562	3.51
487.912	3.51
488.262	3.5
488.612	3.51
488.961	3.52
489.311	3.51
489.661	3.5
490.011	3.48
490.36	3.47
490.71	3.47
491.06	3.5
491.409	3.5
491.759	3.49
492.108	3.49
492.458	3.49
492.807	3.49
493.157	3.5
493.506	3.52
493.855	3.54
494.204	3.54
494.554	3.53
494.903	3.54
495.252	3.57
495.601	3.61
495.95	3.6
496.299	3.6
496.648	3.61
496.997	3.64
497.346	3.66
497.695	3.69
498.043	3.69
498.392	3.68
498.741	3.73
499.09	3.75
499.438	3.76
499.787	3.76
500.135	3.8
500.484	3.82
500.832	3.83
501.181	3.83
501.529	3.86
501.878	3.91
502.226	3.95
502.574	3.98
502.923	4
503.271	4.04
503.619	4.11
503.967	4.15
504.315	4.21
504.663	4.26
505.011	4.31
505.359	4.37
505.707	4.39
506.055	4.45
506.403	4.54
506.751	4.59
507.098	4.69
507.446	4.75
507.794	4.83
508.141	4.91
508.489	5.01
508.837	5.09
509.184	5.16
509.531	5.26
509.879	5.31
510.226	5.38
510.574	5.48
510.921	5.55
511.268	5.64
511.616	5.73
511.963	5.81
512.31	5.9
512.657	6
513.004	6.13
513.351	6.22
513.698	6.3
514.045	6.42
514.392	6.53
514.739	6.66
515.086	6.75
515.432	6.85
515.779	6.98
516.126	7.09
516.473	7.18
516.819	7.28
517.166	7.39
517.512	7.51
517.859	7.61
518.205	7.7
518.552	7.82
518.898	7.9
519.245	8.03
519.591	8.14
519.937	8.25
520.283	8.37
520.629	8.52
520.976	8.66
521.322	8.81
521.668	8.91
522.014	9.02
522.36	9.17
522.706	9.33
523.052	9.47
523.398	9.64
523.743	9.84
524.089	10.03
524.435	10.2
524.781	10.36
525.126	10.47
525.472	10.6
525.817	10.7
526.163	10.81
526.509	10.91
526.854	11.02
527.199	11.12
527.545	11.22
527.89	11.31
528.235	11.4
528.581	11.5
528.926	11.62
529.271	11.73
529.616	11.83
529.961	11.94
530.306	12.05
530.651	12.16
530.996	12.28
531.341	12.39
531.686	12.52
532.031	12.68
532.376	12.81
532.721	12.96
533.065	13.12
533.41	13.3
533.755	13.46
534.099	13.64
534.444	13.81
534.788	13.95
535.133	14.09
535.477	14.28
535.822	14.45
536.166	14.66
536.51	14.85
536.855	15.08
537.199	15.29
537.543	15.52
537.887	15.75
538.231	15.97
538.576	16.2
538.92	16.44
539.264	16.62
539.608	16.84
539.951	17.04
540.295	17.24
540.639	17.44
540.983	17.63
541.327	17.81
541.671	18.02
542.014	18.24
542.358	18.44
542.701	18.58
543.045	18.77
543.389	18.92
543.732	19.11
544.075	19.29
544.419	19.49
544.762	19.68
545.105	19.88
545.449	20.09
545.792	20.35
546.135	20.57
546.478	20.85
546.821	21.13
547.165	21.41
547.508	21.7
547.851	21.95
548.194	22.2
548.536	22.43
548.879	22.65
549.222	22.9
549.565	23.17
549.908	23.46
550.25	23.71
550.593	24
550.936	24.26
551.278	24.55
551.621	24.81
551.963	25.08
552.306	25.35
552.648	25.65
552.991	25.83
553.333	26.06
553.675	26.32
554.017	26.57
554.36	26.76
554.702	26.97
555.044	27.16
555.386	27.39
555.728	27.61
556.07	27.81
556.412	28.07
556.754	28.29
557.096	28.55
557.438	28.8
557.78	29.07
558.121	29.31
558.463	29.55
558.805	29.79
559.147	30.04
559.488	30.28
559.83	30.48
560.171	30.73
560.513	30.9
560.854	31.03
561.196	31.22
561.537	31.48
561.878	31.66
562.22	31.87
562.561	32.1
562.902	32.33
563.243	32.53
563.584	32.64
563.925	32.88
564.266	33.07
564.607	33.21
564.948	33.33
565.289	33.47
565.63	33.6
565.971	33.76
566.312	33.95
566.653	34.05
566.993	34.25
567.334	34.37
567.675	34.54
568.015	34.71
568.356	34.85
568.696	35.02
569.037	35.19
569.377	35.32
569.718	35.48
570.058	35.61
570.398	35.77
570.739	35.94
571.079	36.01
571.419	36.14
571.759	36.34
572.099	36.51
572.439	36.61
572.779	36.7
573.119	36.82
573.459	36.88
573.799	37.01
574.139	37.09
574.479	37.25
574.819	37.4
575.158	37.52
575.498	37.67
575.838	37.72
576.177	37.8
576.517	37.93
576.856	38.04
577.196	38.15
577.535	38.21
577.875	38.34
578.214	38.46
578.553	38.49
578.893	38.55
579.232	38.67
579.571	38.81
579.91	38.96
580.25	39.03
580.589	39.12
580.928	39.27
581.267	39.37
581.606	39.37
581.945	39.45
582.283	39.54
582.622	39.6
582.961	39.71
583.3	39.83
583.639	39.96
583.977	40.04
584.316	40.14
584.654	40.31
584.993	40.29
585.332	40.38
585.67	40.64
586.008	40.62
586.347	40.66
586.685	40.74
587.024	40.82
587.362	40.96
587.7	41.09
588.038	41.15
588.376	41.19
588.715	41.39
589.053	41.4
589.391	41.48
589.729	41.55
590.067	41.61
590.404	41.64
590.742	41.75
591.08	41.85
591.418	41.92
591.756	41.97
592.093	42.1
592.431	42.21
592.769	42.18
593.106	42.32
593.444	42.39
593.781	42.52
594.119	42.62
594.456	42.64
594.793	42.71
595.131	42.75
595.468	42.8
595.805	42.82
596.143	42.93
596.48	42.99
596.817	43.05
597.154	43.08
597.491	43.18
597.828	43.16
598.165	43.18
598.502	43.22
598.839	43.29
599.176	43.44
599.512	43.48
599.849	43.58
600.186	43.66
600.523	43.67
600.859	43.61
601.196	43.66
601.532	43.74
601.869	43.74
602.205	43.78
602.542	43.89
602.878	43.92
603.215	43.97
603.551	43.97
603.887	44.01
604.223	44.05
604.56	44.07
604.896	44.18
605.232	44.21
605.568	44.26
605.904	44.23
606.24	44.21
606.576	44.3
606.912	44.33
607.248	44.37
607.583	44.43
607.919	44.47
608.255	44.47
608.591	44.54
608.926	44.55
609.262	44.6
609.597	44.64
609.933	44.68
610.268	44.74
610.604	44.79
610.939	44.83
611.275	44.89
611.61	44.87
611.945	44.74
612.281	44.74
612.616	44.79
612.951	44.93
613.286	44.94
613.621	44.88
613.956	44.94
614.291	44.95
614.626	45.02
614.961	45.05
615.296	45.12
615.631	45.14
615.966	45.21
616.3	45.27
616.635	45.22
616.97	45.25
617.304	45.23
617.639	45.28
617.973	45.31
618.308	45.36
618.642	45.41
618.977	45.54
619.311	45.59
619.646	45.53
619.98	45.39
620.314	45.42
620.648	45.43
620.983	45.37
621.317	45.44
621.651	45.47
621.985	45.51
622.319	45.58
622.653	45.59
622.987	45.71
623.321	45.73
623.655	45.84
623.988	45.84
624.322	45.97
624.656	45.95
624.99	45.98
625.323	45.91
625.657	46.05
625.99	46.1
626.324	46.25
626.657	46.3
626.991	46.36
627.324	46.43
627.658	46.42
627.991	46.5
628.324	46.48
628.657	46.48
628.991	46.55
629.324	46.5
629.657	46.47
629.99	46.47
630.323	46.49
630.656	46.49
630.989	46.5
631.322	46.4
631.655	46.37
631.987	46.39
632.32	46.37
632.653	46.27
632.986	46.34
633.318	46.24
633.651	46.33
633.984	46.45
634.316	46.46
634.649	46.54
634.981	46.54
635.313	46.59
635.646	46.66
635.978	46.59
636.31	46.59
636.643	46.59
636.975	46.45
637.307	46.48
637.639	46.39
637.971	46.38
638.303	46.45
638.635	46.6
638.967	46.65
639.299	46.73
639.631	46.85
639.963	46.73
640.295	46.68
640.626	46.68
640.958	46.74
641.29	46.74
641.621	46.79
641.953	46.69
642.285	46.66
642.616	46.62
642.948	46.71
643.279	46.77
643.61	46.92
643.942	47.06
644.273	47.08
644.604	47.3
644.936	47.37
645.267	47.47
645.598	47.48
645.929	47.57
646.26	47.54
646.591	47.45
646.922	47.54
647.253	47.71
647.584	47.73
647.915	47.77
648.245	47.74
648.576	47.7
648.907	47.83
649.238	47.81
649.568	47.73
649.899	47.85
650.229	47.88
650.56	47.83
650.89	47.8
651.221	47.85
651.551	47.72
651.882	47.78
652.212	47.69
652.542	47.63
652.872	47.53
653.203	47.64
653.533	47.69
653.863	47.69
654.193	47.62
654.523	47.66
654.853	47.66
655.183	47.84
655.513	47.92
655.843	47.79
656.172	48
656.502	47.97
656.832	47.87
657.162	47.92
657.491	48.03
657.821	48.17
658.15	48.19
658.48	48.31
658.809	48.22
659.139	48.22
659.468	48.37
659.798	48.41
660.127	48.32
660.456	48.29
660.785	48.36
661.115	48.4
661.444	48.43
661.773	48.47
662.102	48.4
662.431	48.47
662.76	48.66
663.089	48.67
663.418	48.83
663.747	48.97
664.076	49.02
664.404	48.87
664.733	48.81
665.062	48.76
665.39	48.63
665.719	48.76
666.048	48.81
666.376	48.81
666.705	48.83
667.033	48.98
667.362	49.13
667.69	49.11
668.018	49.11
668.347	49.07
668.675	48.98
669.003	48.85
669.331	48.85
669.659	48.88
669.987	48.8
670.315	48.82
670.643	48.75
670.971	48.64
671.299	48.72
671.627	48.75
671.955	48.72
672.283	48.76
672.61	48.83
672.938	48.85
673.266	48.81
673.593	48.75
673.921	48.85
674.249	48.89
674.576	48.85
674.904	48.84
675.231	48.84
675.558	48.99
675.886	49.07
676.213	49.09
676.54	49.17
676.867	49.25
677.195	49.28
677.522	49.31
677.849	49.45
678.176	49.48
678.503	49.56
678.83	49.58
679.157	49.68
679.484	49.66
679.81	49.57
680.137	49.72
680.464	49.78
680.791	49.72
681.117	49.75
681.444	49.84
681.771	49.76
682.097	49.79
682.424	49.77
682.75	49.82
683.077	49.76
683.403	49.62
683.729	49.52
684.056	49.58
684.382	49.57
684.708	49.66
685.034	49.7
685.36	49.69
685.686	49.85
686.012	49.8
686.339	49.56
686.664	49.64
686.99	49.46
687.316	49.55
687.642	49.49
687.968	49.39
688.294	49.44
688.619	49.64
688.945	49.62
689.271	49.42
689.596	49.49
689.922	49.52
690.247	49.59
690.573	49.72
690.898	49.76
691.224	49.78
691.549	49.74
691.874	49.79
692.2	49.81
692.525	49.56
692.85	49.51
693.175	49.74
693.5	49.91
693.825	49.99
694.15	49.91
694.475	49.99
694.8	49.95
695.125	49.86
695.45	49.81
695.775	49.83
696.099	49.93
696.424	49.92
696.749	50
697.073	50.02
697.398	50.06
697.723	50.04
698.047	49.97
698.372	49.93
698.696	50.01
699.02	49.98
699.345	50.16
699.669	50.24
699.993	50.32
700.318	50.19
700.642	50.25
700.966	50.35
701.29	50.41
701.614	50.34
701.938	50.23
702.262	50.18
702.586	50.21
702.91	50.06
703.234	49.93
703.557	49.71
703.881	49.64
704.205	49.49
704.529	49.49
704.852	49.47
705.176	49.34
705.499	49.18
705.823	49.18
706.146	49.14
706.47	48.9
706.793	48.8
707.117	48.91
707.44	48.75
707.763	48.71
708.086	48.64
708.409	48.65
708.733	48.93
709.056	49.05
709.379	49.1
709.702	49.15
710.025	49.15
710.348	49.3
710.671	49.42
710.993	49.44
711.316	49.42
711.639	49.64
711.962	49.83
712.284	49.91
712.607	49.9
712.93	50.05
713.252	50.28
713.575	50.38
713.897	50.41
714.22	50.51
714.542	50.45
714.864	50.56
715.187	50.68
715.509	50.66
715.831	50.67
716.153	50.49
716.475	50.55
716.798	50.75
717.12	50.76
717.442	50.8
717.764	50.92
718.085	50.95
718.407	50.89
718.729	50.79
719.051	50.82
719.373	51.01
719.695	50.89
720.016	50.86
720.338	50.92
720.659	50.86
720.981	51.04
721.302	51.04
721.624	51.07
721.945	51.08
722.267	51.09
722.588	50.95
722.909	51.27
723.231	51.3
723.552	51.24
723.873	51.29
724.194	51.34
724.515	51.39
724.836	51.27
725.157	51.24
725.478	51.41
725.799	51.32
726.12	51.13
726.441	51.14
726.762	51.21
727.083	50.99
727.403	50.9
727.724	50.62
728.045	50.7
728.365	50.5
728.686	50.4
729.006	50.6
729.327	50.69
729.647	50.74
729.967	50.94
730.288	50.97
730.608	50.91
730.928	50.79
731.249	50.76
731.569	50.77
731.889	50.72
732.209	50.75
732.529	50.69
732.849	50.7
733.169	50.6
733.489	50.63
733.809	50.64
734.129	50.5
734.448	50.65
734.768	50.74
735.088	50.96
735.408	51.18
735.727	50.92
736.047	51.01
736.366	50.93
736.686	50.99
737.005	51.02
737.325	50.97
737.644	51.09
737.963	51.02
738.283	51.02
738.602	51.31
738.921	51.03
739.24	51.38
739.56	51.4
739.879	51.6
740.198	51.49
740.517	51.64
740.836	51.83
741.155	51.58
741.473	51.53
741.792	51.35
742.111	51.48
742.43	51.51
742.748	51.71
743.067	51.85
743.386	51.45
743.704	51.68
744.023	51.79
744.341	51.55
744.66	51.57
744.978	51.75
745.297	51.67
745.615	52.04
745.933	51.67
746.252	51.63
746.57	51.69
746.888	51.93
747.206	51.76
747.524	51.96
747.842	52.14
748.16	51.73
748.478	51.84
748.796	51.87
749.114	52.05
749.432	51.72
749.749	51.62
750.067	51.92
750.385	51.78
750.703	51.69
751.02	51.73
751.338	51.4
751.655	51.23
751.973	51.16
752.29	50.75
752.608	50.89
752.925	51.42
753.242	51.46
753.56	51.15
753.877	51.32
754.194	51.44
754.511	51.4
754.828	51.68
755.145	51.63
755.462	51.01
755.779	51.1
756.096	50.9
756.413	50.87
756.73	50.87
757.047	50.54
757.364	50.83
757.68	50.79
757.997	50.94
758.314	50.99
758.63	51.02
758.947	51.13
759.264	51.03
759.58	50.64
759.896	50.41
760.213	50.84
760.529	51.02
760.846	50.7
761.162	50.78
761.478	51.15
761.794	51.3
762.11	51.51
762.426	51.14
762.743	51.25
763.059	51.23
763.375	51.35
763.69	51.54
764.006	51.23
764.322	51.46
764.638	51.82
764.954	52.06
765.27	52.08
765.585	52.41
765.901	52.58
766.216	52.51
766.532	52.6
766.848	52.5
767.163	52.7
767.478	53.11
767.794	52.98
768.109	52.66
768.424	52.47
768.74	52.82
769.055	53.27
769.37	53.35
769.685	53.79
770	53.67
770.315	53.36
770.63	53.44
770.945	53.04
771.26	52.63
771.575	52.23
771.89	51.91
772.205	51.64
772.52	51.15
772.834	51.38
773.149	51.46
773.464	51.69
773.778	51.25
774.093	50.71
774.407	50.63
774.722	50.67
775.036	50.71
775.351	50.32
775.665	50.36
775.979	50.38
776.293	49.8
776.608	50.1
776.922	50.5
777.236	50.56
777.55	50.78
777.864	51.14
778.178	51.34
778.492	51.41
778.806	51.62
779.12	52.01
779.434	51.92
779.747	52.01
780.061	51.77
780.375	51.83
780.689	52.24
781.002	52.36
781.316	52.48
781.629	52.71
781.943	52.41
782.256	51.85
782.57	51.88
782.883	51.47
783.196	51.08
783.51	51.2
783.823	51.11
784.136	51.55
784.449	51.34
784.762	51.47
785.075	51.68
785.388	51.6
785.701	51.48
786.014	51.69
786.327	51.58
786.64	50.98
786.953	51.03
787.266	50.95
787.578	51.19
787.891	50.73
788.204	50.34
788.516	51.04
788.829	51.47
789.141	51.74
789.454	52.09
789.766	52.21
790.079	52.14
790.391	52.1
790.703	51.83
791.016	51.23
791.328	50.89
791.64	50.61
791.952	50.08
792.264	50.15
792.576	49.76
792.888	49.28
793.2	49.92
793.512	50.2
793.824	49.97
794.136	50.06
794.448	50.4
794.76	50.8
795.071	50.39
795.383	50.57
795.695	50.35
796.006	50.34
796.318	50.09
796.629	49.89
796.941	50.4
797.252	50.66
797.564	51.05
797.875	51.43
798.186	51.53
798.497	52.06
798.809	51.39
799.12	51.56
799.431	52.23
799.742	52.12
800.053	51.89
800.364	52.34
800.675	52.32
800.986	52.78
801.297	52.44
801.608	52.78
801.918	53.09
802.229	52.88
802.54	53.38
802.851	53.88
803.161	53.95
803.472	53.64
803.782	53.28
804.093	54.09
804.403	54.03
804.714	54.09
805.024	53.57
805.334	54.35
805.645	54.43
805.955	53.5
806.265	53.18
806.575	52.45
806.885	51.93
807.195	51.81
807.505	51.23
807.815	51.57
808.125	51.15
808.435	51.15
808.745	51.42
809.055	50.91
809.365	50.69
809.674	50.39
809.984	51.02
810.294	51.36
810.603	50.97
810.913	50.6
811.222	50.47
811.532	50.06
811.841	50.67
812.151	50.43
812.46	50.97
812.769	51.95
813.079	52.81
813.388	52.4
813.697	52.12
814.006	52.43
814.315	52.28
814.624	52.31
814.933	52.01
815.242	51.55
815.551	51.1
815.86	50.77
816.169	51.08
816.478	50.55
816.786	49.95
817.095	49.73
817.404	49.68
817.712	50.57
818.021	51.39
818.33	51.55
818.638	51.76
818.947	52.14
819.255	51.69
819.563	51.55
819.872	52.13
820.18	52.63
820.488	52.78
820.796	53.26
821.105	53.76
821.413	53.77
821.721	53.78
822.029	53.67
822.337	53.62
822.645	53.52
822.953	53.68
823.26	53.81
823.568	53.88
823.876	54.2
824.184	54.1
824.491	54.16
824.799	54.09
825.107	54.19
825.414	54.12
825.722	53.99
826.029	54.02
826.337	53.87
826.644	53.82
826.951	53.85
827.259	53.6
827.566	53.43
827.873	53.35
828.18	53.42
828.488	53.64
828.795	53.77
829.102	54.05
829.409	54.07
829.716	54.1
830.023	53.88
830.329	53.58
830.636	53.82
830.943	53.51
831.25	53.56
831.557	53.28
831.863	53.26
832.17	53.61
832.476	54.05
832.783	54.09
833.089	53.85
833.396	53.79
833.702	53.82
834.009	53.58
834.315	53.61
834.621	53.76
834.928	53.89
835.234	53.68
835.54	53.63
835.846	53.24
836.152	53.18
836.458	53.73
836.764	53.52
837.07	53.52
837.376	53.68
837.682	53.5
837.988	53.34
838.293	53.76
838.599	53.85
838.905	53.29
839.211	54
839.516	54.81
839.822	54.91
840.127	54.5
840.433	55.08
840.738	54.68
841.044	55.1
841.349	55.82
841.654	56.3
841.959	55.79
842.265	56.21
842.57	56.26
842.875	55.7
843.18	55.96
843.485	54.77
843.79	54.37
844.095	54.57
844.4	55.51
844.705	55.19
845.01	56.85
845.315	56.17
845.619	54.46
845.924	52.71
846.229	51.86
846.533	52.72
846.838	51.86
847.142	50.07
847.447	49.64
847.751	47.9
848.056	49.21
848.36	51.41
848.664	50.25
848.969	49.78
849.273	49.24
849.577	48.55
849.881	47.12
850.185	47.06
850.489	46.78
850.794	46.27
851.097	47.32
851.401	45.25
851.705	47.05
852.009	49.79
852.313	49.84
852.617	48.11
852.92	49.69
853.224	51.37
853.528	55.52
853.831	54.99
854.135	57.71
854.438	57.26
854.742	53.69
855.045	55.21
855.349	55.88
855.652	56.17
855.955	57.93
856.259	60.94
856.562	61.92
856.865	64.29
857.168	63.41
857.471	60.77
857.774	62.28
858.077	61.19
858.38	58.84
858.683	59.45
858.986	63.97
859.289	62.14
859.592	61.79
859.894	59.66
860.197	60.38
860.5	58.56
860.802	55.52
861.105	54.63
861.407	53.22
861.71	53.93
862.012	52.68
862.315	52.05
862.617	51.32
862.919	50.06
863.222	47.64
863.524	51.04
863.826	53.76
864.128	52.89
864.43	52.58
864.732	54.64
865.034	53.8
865.336	49.53
865.638	51.35
865.94	50.26
866.242	50.93
866.544	51.14
866.846	49.16
867.147	51.45
867.449	54.15
867.751	56.69
868.052	56.03
868.354	58.06
868.655	57.95
868.957	56.91
869.258	57.49
869.56	58.87
869.861	56.28
870.162	53.04
870.463	50.88
870.765	49.53
871.066	48.32
871.367	49.95
871.668	50.52
871.969	46.44
872.27	47.39
872.571	46.24
872.872	45.1
873.173	46.34
873.473	45.42
873.774	44.37
874.075	44.03
874.376	42.66
874.676	43.25
874.977	43.04
875.277	45.06
875.578	45.97
875.878	44.31
876.179	44.35
876.479	45.2
876.78	46.51
877.08	49.34
877.38	49.84
877.68	49.28
877.981	51.27
878.281	54.9
878.581	52.31
