Data from MVZ_BU8943_Reflection_00001.txt Node
Date: Tue Nov 19 12:08:53 EST 2019
User: vgr7
Spectrometer: USB2G7710
Scans to average: 3
Trigger mode: 4
Integration Time (sec): 2.000000E-2
Electric dark correction enabled: true
Boxcar width: 10
XAxis mode: Wavelengths
Number of Pixels in Spectrum: 2048
>>>>>Begin Spectral Data<<<<<
177.721	-217.67
178.105	-687.23
178.488	238.24
178.871	167.12
179.254	111.76
179.636	-0.59
180.019	30.93
180.402	-30
180.785	-14.29
181.168	-34.52
181.55	-1.51
181.933	23.48
182.316	13.15
182.698	43100
183.081	-815.66
183.463	513.53
183.846	225.83
184.228	340.51
184.611	-184.05
184.993	-72.19
185.376	-94.95
185.758	-118.2
186.14	-151.66
186.522	-94.88
186.904	-103.11
187.287	-74.74
187.669	-57.83
188.051	-96.44
188.433	-76.65
188.815	-64.08
189.197	-74.99
189.579	-53.45
189.961	-68.55
190.342	-77.71
190.724	-93.41
191.106	-91.05
191.488	-98.82
191.869	-115.57
192.251	-171.61
192.633	-181.84
193.014	-202.89
193.396	-252.26
193.777	-218.8
194.159	-187.6
194.54	-210.19
194.922	-201.67
195.303	-233.81
195.684	-1501.77
196.065	-958.39
196.447	136100
196.828	1462.64
197.209	-6664.71
197.59	352.08
197.971	225.34
198.352	120.53
198.733	421.61
199.114	513.53
199.495	-478.03
199.876	-588.62
200.257	-160.79
200.638	-175.18
201.018	-286.02
201.399	-127.02
201.78	-158.87
202.16	-297.47
202.541	-418.83
202.922	-790.76
203.302	-520.44
203.683	-424.32
204.063	-152.43
204.444	-165.06
204.824	-137.24
205.204	-192.64
205.585	-91.87
205.965	-149.67
206.345	-188.49
206.725	-147.61
207.106	-116.32
207.486	-100
207.866	-106.37
208.246	-64.4
208.626	-112.3
209.006	-97.22
209.386	-186.78
209.766	-198.9
210.145	-93.25
210.525	-225.37
210.905	-316.31
211.285	-318.72
211.664	-105.83
212.044	-563.37
212.424	-389.93
212.803	315.55
213.183	686.21
213.562	748.28
213.942	1510.96
214.321	-629.06
214.701	2913.95
215.08	4003.23
215.459	-1157.43
215.838	981.89
216.218	195.76
216.597	221.95
216.976	311.8
217.355	1985.25
217.734	-2459.32
218.113	922.49
218.492	-14718.18
218.871	-1056.76
219.25	-1092.89
219.629	-2000.84
220.008	-345.15
220.387	-233.76
220.766	-135.89
221.144	-123.52
221.523	-179.96
221.902	-103.61
222.28	-91.86
222.659	-74.57
223.037	-84.17
223.416	-86.6
223.794	-58.9
224.173	-56.78
224.551	-58.6
224.929	-57.91
225.308	-51.44
225.686	-37.27
226.064	-32.75
226.442	-22.85
226.821	-15.18
227.199	-13.59
227.577	-8.54
227.955	-8.61
228.333	-15.97
228.711	-13.16
229.089	-15.05
229.467	-14.77
229.845	-17.86
230.222	-14.38
230.6	-14.09
230.978	-11.79
231.356	-10.96
231.733	-12.29
232.111	-9.06
232.488	-5.63
232.866	-1
233.243	0.06
233.621	-1.46
233.998	-3.6
234.376	-4.98
234.753	-8.02
235.13	-9.39
235.508	-9.12
235.885	-10.32
236.262	-8.08
236.639	-10.19
237.016	-7.96
237.393	-4.44
237.77	-3.32
238.147	-1.6
238.524	-0.42
238.901	-0.57
239.278	-0.4
239.655	0.2
240.032	-0.47
240.409	0.04
240.785	0.18
241.162	0.51
241.539	0.89
241.915	1.32
242.292	0.95
242.668	1.8
243.045	3.14
243.421	3.8
243.798	3.77
244.174	4.39
244.551	5.15
244.927	4.86
245.303	4.18
245.679	4.48
246.056	4.2
246.432	4.14
246.808	4.41
247.184	4.39
247.56	4.39
247.936	4.64
248.312	4.82
248.688	4.94
249.064	4.79
249.44	4.52
249.815	4.61
250.191	4.86
250.567	4.59
250.943	4.56
251.318	4.36
251.694	4.24
252.069	3.89
252.445	3.79
252.82	3.9
253.196	3.91
253.571	3.89
253.947	3.81
254.322	3.46
254.697	3.17
255.073	3.38
255.448	3.54
255.823	3.42
256.198	2.86
256.573	2.99
256.948	3.12
257.323	3.24
257.698	3.32
258.073	3.22
258.448	3.49
258.823	2.99
259.198	3.03
259.573	3.14
259.948	3.39
260.322	3.32
260.697	3.46
261.072	3.48
261.446	3.38
261.821	3.25
262.195	3.43
262.57	3.58
262.944	3.48
263.319	3.44
263.693	3.44
264.067	3.38
264.442	3.18
264.816	3.21
265.19	3.22
265.564	2.98
265.938	3.27
266.313	3.23
266.687	3.43
267.061	3.23
267.435	3.43
267.809	3.22
268.183	2.97
268.556	2.98
268.93	3.24
269.304	3.21
269.678	3.3
270.051	3.27
270.425	2.89
270.799	2.68
271.172	2.69
271.546	2.77
271.919	2.82
272.293	2.83
272.666	2.69
273.04	2.73
273.413	2.87
273.787	2.81
274.16	2.69
274.533	2.95
274.906	3.17
275.279	3.02
275.653	3.26
276.026	3.39
276.399	3.35
276.772	3.31
277.145	3.22
277.518	3.27
277.891	3.2
278.263	3.47
278.636	3.6
279.009	3.83
279.382	3.65
279.755	3.72
280.127	3.71
280.5	3.8
280.872	3.76
281.245	3.76
281.617	3.6
281.99	3.88
282.362	3.76
282.735	3.71
283.107	3.46
283.479	3.36
283.852	3.45
284.224	3.34
284.596	3.31
284.968	3.32
285.34	3.3
285.713	3.31
286.085	3.23
286.457	3.41
286.829	3.29
287.201	3.28
287.572	3.3
287.944	3.34
288.316	3.23
288.688	3.26
289.06	3.29
289.431	3.46
289.803	3.35
290.175	3.36
290.546	3.32
290.918	3.62
291.289	3.58
291.661	3.59
292.032	3.58
292.403	3.45
292.775	3.58
293.146	3.74
293.517	3.79
293.889	3.74
294.26	3.53
294.631	3.71
295.002	3.93
295.373	3.97
295.744	3.92
296.115	4.07
296.486	4.12
296.857	4.11
297.228	4.01
297.599	3.89
297.97	3.94
298.34	3.85
298.711	3.83
299.082	3.77
299.452	3.69
299.823	3.83
300.194	3.91
300.564	3.96
300.935	3.91
301.305	3.95
301.676	4.04
302.046	4.25
302.416	4
302.787	4.03
303.157	4.08
303.527	4.22
303.897	3.99
304.267	4.08
304.637	4.21
305.008	4.23
305.378	4.43
305.748	4.22
306.117	4.29
306.487	4.13
306.857	4.22
307.227	4.33
307.597	4.28
307.967	4.37
308.336	4.24
308.706	4.17
309.076	4.2
309.445	4.41
309.815	4.38
310.184	4.42
310.554	4.25
310.923	4.09
311.293	4.01
311.662	4.33
312.031	4.17
312.401	4.03
312.77	4.02
313.139	3.9
313.508	4.02
313.877	4.08
314.246	4.09
314.616	4.09
314.985	3.99
315.353	3.97
315.722	3.99
316.091	4.1
316.46	4.1
316.829	4.21
317.198	4.11
317.567	4.12
317.935	4.11
318.304	4.21
318.672	4.43
319.041	4.28
319.41	4.18
319.778	4.12
320.147	4.15
320.515	4.02
320.883	4.07
321.252	3.97
321.62	4.02
321.988	4.2
322.357	4.19
322.725	4.11
323.093	4.13
323.461	4.14
323.829	4.13
324.197	4.17
324.565	4.07
324.933	4.01
325.301	3.95
325.669	3.98
326.037	3.88
326.405	3.9
326.772	4.02
327.14	3.87
327.508	3.95
327.875	4.03
328.243	4.15
328.61	4.15
328.978	4.2
329.346	4.21
329.713	4.24
330.08	4.22
330.448	4.42
330.815	4.34
331.182	4.25
331.55	4.15
331.917	4.02
332.284	4.04
332.651	3.99
333.018	3.99
333.385	3.96
333.752	3.99
334.119	3.85
334.486	3.87
334.853	3.98
335.22	3.86
335.587	3.86
335.954	3.87
336.32	3.84
336.687	3.84
337.054	3.87
337.42	3.74
337.787	3.85
338.153	3.75
338.52	3.87
338.886	4.04
339.253	4.02
339.619	4.21
339.986	4.19
340.352	4.23
340.718	4.27
341.084	4.37
341.451	4.48
341.817	4.56
342.183	4.41
342.549	4.46
342.915	4.6
343.281	4.62
343.647	4.61
344.013	4.74
344.379	4.73
344.745	4.7
345.11	4.87
345.476	4.79
345.842	4.92
346.208	4.87
346.573	4.68
346.939	4.64
347.304	4.67
347.67	4.67
348.035	4.64
348.401	4.61
348.766	4.56
349.132	4.48
349.497	4.47
349.862	4.59
350.228	4.54
350.593	4.57
350.958	4.63
351.323	4.63
351.688	4.61
352.053	4.7
352.418	4.72
352.783	4.72
353.148	4.74
353.513	4.67
353.878	4.77
354.243	4.86
354.608	4.98
354.972	4.92
355.337	4.91
355.702	4.98
356.066	4.96
356.431	4.94
356.795	5.02
357.16	4.94
357.524	4.94
357.889	4.89
358.253	4.88
358.618	4.87
358.982	4.92
359.346	4.9
359.71	4.88
360.075	4.89
360.439	4.92
360.803	4.98
361.167	5
361.531	4.93
361.895	4.88
362.259	4.93
362.623	4.93
362.987	4.94
363.351	4.91
363.714	5.02
364.078	5.1
364.442	5.09
364.806	5.17
365.169	5.14
365.533	5.18
365.896	5.19
366.26	5.11
366.623	5.04
366.987	5.06
367.35	5.03
367.714	5.04
368.077	4.99
368.44	4.97
368.803	4.89
369.167	4.87
369.53	4.9
369.893	4.87
370.256	4.9
370.619	4.89
370.982	4.94
371.345	4.92
371.708	4.84
372.071	4.76
372.434	4.71
372.797	4.79
373.159	4.75
373.522	4.75
373.885	4.82
374.247	4.9
374.61	4.89
374.973	4.93
375.335	4.93
375.698	4.87
376.06	4.81
376.423	4.83
376.785	4.89
377.147	4.88
377.51	4.89
377.872	4.87
378.234	4.88
378.596	4.82
378.958	4.77
379.321	4.75
379.683	4.78
380.045	4.82
380.407	4.83
380.769	4.85
381.13	4.89
381.492	4.8
381.854	4.77
382.216	4.8
382.578	4.83
382.939	4.82
383.301	4.81
383.663	4.85
384.024	4.9
384.386	4.88
384.747	4.88
385.109	4.88
385.47	4.91
385.832	4.93
386.193	4.97
386.554	4.91
386.916	4.9
387.277	4.92
387.638	4.93
387.999	4.87
388.36	4.84
388.721	4.82
389.082	4.89
389.443	4.92
389.804	4.94
390.165	4.96
390.526	4.93
390.887	4.95
391.248	4.95
391.609	4.98
391.969	5.02
392.33	5.03
392.691	5.01
393.051	4.95
393.412	4.94
393.772	4.94
394.133	5.01
394.493	5.03
394.854	5.02
395.214	5.02
395.574	5.04
395.935	5.08
396.295	5.1
396.655	5.07
397.015	5.08
397.376	5.01
397.736	4.98
398.096	5.01
398.456	4.99
398.816	5.02
399.176	5.01
399.535	4.96
399.895	5
400.255	5.01
400.615	5.1
400.975	5.08
401.334	5.11
401.694	5.06
402.054	5.06
402.413	5.05
402.773	5.08
403.132	5.09
403.492	5.1
403.851	5.08
404.211	5.09
404.57	5.08
404.929	5.11
405.288	5.12
405.648	5.13
406.007	5.13
406.366	5.12
406.725	5.1
407.084	5.13
407.443	5.09
407.802	5.08
408.161	5.03
408.52	5.04
408.879	5.02
409.238	5.03
409.596	5.09
409.955	5.13
410.314	5.09
410.673	5.08
411.031	5.1
411.39	5.1
411.748	5.09
412.107	5.09
412.465	5.08
412.824	5.08
413.182	5.05
413.54	5.05
413.899	5.01
414.257	5
414.615	4.97
414.974	4.99
415.332	4.99
415.69	5
416.048	5.03
416.406	5
416.764	5.03
417.122	4.99
417.48	4.97
417.838	4.98
418.195	5
418.553	4.97
418.911	4.98
419.269	4.98
419.626	4.98
419.984	4.98
420.342	4.99
420.699	4.99
421.057	4.99
421.414	5
421.772	5
422.129	5
422.486	5
422.844	5
423.201	5
423.558	4.99
423.915	5
424.273	4.99
424.63	4.99
424.987	5
425.344	4.98
425.701	4.99
426.058	5
426.415	4.98
426.772	4.99
427.128	4.97
427.485	4.99
427.842	4.98
428.199	4.99
428.555	4.98
428.912	4.98
429.269	4.96
429.625	4.99
429.982	4.99
430.338	4.99
430.695	4.96
431.051	4.97
431.407	4.95
431.764	4.94
432.12	4.94
432.476	4.95
432.832	4.96
433.189	4.93
433.545	4.89
433.901	4.92
434.257	4.91
434.613	4.92
434.969	4.92
435.325	4.9
435.681	4.89
436.036	4.9
436.392	4.88
436.748	4.91
437.104	4.89
437.459	4.9
437.815	4.91
438.171	4.92
438.526	4.92
438.882	4.91
439.237	4.92
439.593	4.93
439.948	4.92
440.304	4.92
440.659	4.93
441.014	4.97
441.369	4.98
441.725	4.98
442.08	5
442.435	5
442.79	5.01
443.145	5.02
443.5	5.03
443.855	5.06
444.21	5.06
444.565	5.06
444.92	5.07
445.275	5.06
445.629	5.05
445.984	5.06
446.339	5.08
446.693	5.08
447.048	5.07
447.403	5.06
447.757	5.05
448.112	5.05
448.466	5.02
448.82	5.03
449.175	5.02
449.529	5
449.883	5
450.238	4.99
450.592	4.98
450.946	4.98
451.3	4.98
451.654	4.97
452.008	4.97
452.362	4.97
452.716	4.96
453.07	4.98
453.424	4.96
453.778	4.97
454.132	4.95
454.486	4.95
454.839	4.98
455.193	4.99
455.547	5.01
455.9	5.02
456.254	5.02
456.607	5.03
456.961	5.05
457.314	5.06
457.668	5.07
458.021	5.06
458.375	5.05
458.728	5.03
459.081	5.03
459.434	5.01
459.787	5
460.141	5.02
460.494	5.01
460.847	5.02
461.2	4.99
461.553	5.01
461.906	5.02
462.259	4.99
462.611	4.99
462.964	4.99
463.317	4.99
463.67	4.99
464.022	5.01
464.375	4.98
464.728	4.97
465.08	4.98
465.433	5
465.785	5.01
466.138	5.03
466.49	5.04
466.843	5.06
467.195	5.08
467.547	5.06
467.899	5.07
468.252	5.08
468.604	5.11
468.956	5.12
469.308	5.11
469.66	5.15
470.012	5.19
470.364	5.2
470.716	5.23
471.068	5.23
471.42	5.23
471.772	5.24
472.123	5.24
472.475	5.25
472.827	5.24
473.178	5.25
473.53	5.26
473.882	5.26
474.233	5.25
474.585	5.25
474.936	5.28
475.288	5.27
475.639	5.29
475.99	5.31
476.342	5.3
476.693	5.31
477.044	5.32
477.395	5.29
477.746	5.27
478.097	5.25
478.448	5.24
478.8	5.22
479.15	5.24
479.501	5.26
479.852	5.26
480.203	5.28
480.554	5.27
480.905	5.29
481.255	5.31
481.606	5.31
481.957	5.32
482.307	5.31
482.658	5.33
483.009	5.33
483.359	5.33
483.709	5.34
484.06	5.34
484.41	5.34
484.761	5.35
485.111	5.36
485.461	5.37
485.811	5.38
486.162	5.39
486.512	5.38
486.862	5.38
487.212	5.39
487.562	5.38
487.912	5.39
488.262	5.39
488.612	5.37
488.961	5.37
489.311	5.38
489.661	5.38
490.011	5.37
490.36	5.37
490.71	5.37
491.06	5.35
491.409	5.36
491.759	5.37
492.108	5.35
492.458	5.35
492.807	5.33
493.157	5.34
493.506	5.35
493.855	5.36
494.204	5.37
494.554	5.36
494.903	5.37
495.252	5.37
495.601	5.38
495.95	5.4
496.299	5.42
496.648	5.42
496.997	5.45
497.346	5.47
497.695	5.47
498.043	5.51
498.392	5.52
498.741	5.55
499.09	5.54
499.438	5.58
499.787	5.59
500.135	5.6
500.484	5.61
500.832	5.61
501.181	5.61
501.529	5.65
501.878	5.68
502.226	5.7
502.574	5.7
502.923	5.69
503.271	5.71
503.619	5.7
503.967	5.7
504.315	5.71
504.663	5.69
505.011	5.71
505.359	5.7
505.707	5.73
506.055	5.75
506.403	5.78
506.751	5.78
507.098	5.82
507.446	5.84
507.794	5.85
508.141	5.88
508.489	5.93
508.837	5.93
509.184	5.93
509.531	5.95
509.879	5.95
510.226	5.98
510.574	6
510.921	6.01
511.268	6.03
511.616	6.03
511.963	6.07
512.31	6.09
512.657	6.09
513.004	6.07
513.351	6.06
513.698	6.07
514.045	6.09
514.392	6.09
514.739	6.09
515.086	6.1
515.432	6.11
515.779	6.09
516.126	6.11
516.473	6.12
516.819	6.12
517.166	6.15
517.512	6.14
517.859	6.16
518.205	6.18
518.552	6.18
518.898	6.2
519.245	6.2
519.591	6.22
519.937	6.24
520.283	6.27
520.629	6.29
520.976	6.29
521.322	6.29
521.668	6.29
522.014	6.31
522.36	6.33
522.706	6.32
523.052	6.35
523.398	6.37
523.743	6.37
524.089	6.4
524.435	6.4
524.781	6.41
525.126	6.44
525.472	6.45
525.817	6.46
526.163	6.49
526.509	6.5
526.854	6.52
527.199	6.53
527.545	6.53
527.89	6.54
528.235	6.55
528.581	6.58
528.926	6.58
529.271	6.59
529.616	6.59
529.961	6.6
530.306	6.61
530.651	6.61
530.996	6.62
531.341	6.63
531.686	6.63
532.031	6.64
532.376	6.63
532.721	6.65
533.065	6.66
533.41	6.66
533.755	6.66
534.099	6.64
534.444	6.64
534.788	6.65
535.133	6.64
535.477	6.64
535.822	6.63
536.166	6.65
536.51	6.65
536.855	6.65
537.199	6.65
537.543	6.66
537.887	6.64
538.231	6.65
538.576	6.65
538.92	6.66
539.264	6.7
539.608	6.72
539.951	6.71
540.295	6.72
540.639	6.72
540.983	6.72
541.327	6.74
541.671	6.75
542.014	6.76
542.358	6.77
542.701	6.76
543.045	6.77
543.389	6.76
543.732	6.77
544.075	6.79
544.419	6.8
544.762	6.79
545.105	6.82
545.449	6.84
545.792	6.84
546.135	6.86
546.478	6.85
546.821	6.86
547.165	6.88
547.508	6.88
547.851	6.89
548.194	6.87
548.536	6.84
548.879	6.85
549.222	6.85
549.565	6.87
549.908	6.89
550.25	6.89
550.593	6.91
550.936	6.92
551.278	6.92
551.621	6.94
551.963	6.97
552.306	6.99
552.648	6.96
552.991	6.98
553.333	6.96
553.675	6.95
554.017	6.91
554.36	6.9
554.702	6.86
555.044	6.84
555.386	6.89
555.728	6.94
556.07	6.89
556.412	6.91
556.754	6.9
557.096	6.89
557.438	6.9
557.78	6.87
558.121	6.87
558.463	6.85
558.805	6.84
559.147	6.82
559.488	6.79
559.83	6.79
560.171	6.78
560.513	6.79
560.854	6.82
561.196	6.8
561.537	6.84
561.878	6.9
562.22	6.93
562.561	6.95
562.902	6.94
563.243	7.01
563.584	7.02
563.925	7.04
564.266	7.03
564.607	7.03
564.948	7
565.289	7.03
565.63	7.01
565.971	7.03
566.312	7.02
566.653	7.04
566.993	7.04
567.334	7.05
567.675	7.06
568.015	7.03
568.356	7.08
568.696	7.1
569.037	7.07
569.377	7.04
569.718	7
570.058	7.01
570.398	6.98
570.739	6.93
571.079	6.92
571.419	6.91
571.759	6.9
572.099	6.94
572.439	6.91
572.779	6.94
573.119	6.96
573.459	6.98
573.799	6.98
574.139	6.96
574.479	6.97
574.819	6.98
575.158	7.01
575.498	6.98
575.838	6.93
576.177	6.93
576.517	6.96
576.856	6.99
577.196	6.98
577.535	6.99
577.875	7.02
578.214	7.03
578.553	7.06
578.893	7.1
579.232	7.08
579.571	7.14
579.91	7.15
580.25	7.13
580.589	7.11
580.928	7.09
581.267	7.11
581.606	7.12
581.945	7.08
582.283	7.08
582.622	7.05
582.961	7.05
583.3	7.08
583.639	7.05
583.977	7.07
584.316	7.08
584.654	7.1
584.993	7.11
585.332	7.11
585.67	7.11
586.008	7.08
586.347	7.11
586.685	7.02
587.024	7.04
587.362	7.05
587.7	7.08
588.038	7.11
588.376	7.13
588.715	7.1
589.053	7.14
589.391	7.13
589.729	7.18
590.067	7.23
590.404	7.17
590.742	7.18
591.08	7.18
591.418	7.2
591.756	7.15
592.093	7.17
592.431	7.16
592.769	7.18
593.106	7.17
593.444	7.2
593.781	7.24
594.119	7.19
594.456	7.22
594.793	7.22
595.131	7.23
595.468	7.19
595.805	7.22
596.143	7.21
596.48	7.23
596.817	7.21
597.154	7.22
597.491	7.26
597.828	7.26
598.165	7.28
598.502	7.25
598.839	7.3
599.176	7.27
599.512	7.25
599.849	7.23
600.186	7.27
600.523	7.23
600.859	7.26
601.196	7.29
601.532	7.25
601.869	7.26
602.205	7.24
602.542	7.27
602.878	7.29
603.215	7.31
603.551	7.27
603.887	7.31
604.223	7.26
604.56	7.27
604.896	7.29
605.232	7.25
605.568	7.27
605.904	7.24
606.24	7.29
606.576	7.35
606.912	7.31
607.248	7.28
607.583	7.31
607.919	7.3
608.255	7.31
608.591	7.32
608.926	7.27
609.262	7.3
609.597	7.29
609.933	7.26
610.268	7.23
610.604	7.21
610.939	7.24
611.275	7.27
611.61	7.28
611.945	7.22
612.281	7.28
612.616	7.3
612.951	7.36
613.286	7.39
613.621	7.34
613.956	7.39
614.291	7.37
614.626	7.45
614.961	7.38
615.296	7.39
615.631	7.4
615.966	7.5
616.3	7.49
616.635	7.49
616.97	7.53
617.304	7.56
617.639	7.68
617.973	7.61
618.308	7.63
618.642	7.59
618.977	7.58
619.311	7.52
619.646	7.44
619.98	7.4
620.314	7.35
620.648	7.4
620.983	7.4
621.317	7.51
621.651	7.43
621.985	7.54
622.319	7.48
622.653	7.49
622.987	7.44
623.321	7.4
623.655	7.39
623.988	7.39
624.322	7.35
624.656	7.26
624.99	7.26
625.323	7.2
625.657	7.2
625.99	7.25
626.324	7.27
626.657	7.31
626.991	7.31
627.324	7.28
627.658	7.29
627.991	7.31
628.324	7.27
628.657	7.31
628.991	7.27
629.324	7.29
629.657	7.3
629.99	7.32
630.323	7.34
630.656	7.34
630.989	7.37
631.322	7.39
631.655	7.42
631.987	7.47
632.32	7.54
632.653	7.53
632.986	7.54
633.318	7.64
633.651	7.66
633.984	7.65
634.316	7.69
634.649	7.64
634.981	7.63
635.313	7.58
635.646	7.52
635.978	7.54
636.31	7.48
636.643	7.46
636.975	7.42
637.307	7.47
637.639	7.51
637.971	7.41
638.303	7.37
638.635	7.37
638.967	7.35
639.299	7.36
639.631	7.35
639.963	7.31
640.295	7.25
640.626	7.21
640.958	7.23
641.29	7.14
641.621	7.13
641.953	7.11
642.285	7.17
642.616	7.23
642.948	7.21
643.279	7.25
643.61	7.27
643.942	7.28
644.273	7.3
644.604	7.2
644.936	7.22
645.267	7.22
645.598	7.24
645.929	7.3
646.26	7.25
646.591	7.31
646.922	7.38
647.253	7.33
647.584	7.43
647.915	7.44
648.245	7.49
648.576	7.52
648.907	7.59
649.238	7.56
649.568	7.53
649.899	7.48
650.229	7.55
650.56	7.51
650.89	7.57
651.221	7.55
651.551	7.68
651.882	7.65
652.212	7.68
652.542	7.7
652.872	7.69
653.203	7.79
653.533	7.87
653.863	7.89
654.193	7.85
654.523	7.72
654.853	7.75
655.183	7.86
655.513	7.93
655.843	7.87
656.172	7.95
656.502	7.86
656.832	7.89
657.162	7.88
657.491	7.94
657.821	7.99
658.15	7.96
658.48	8.01
658.809	8.09
659.139	8.1
659.468	8.09
659.798	8.07
660.127	7.98
660.456	7.92
660.785	7.86
661.115	7.89
661.444	8.04
661.773	8
662.102	7.94
662.431	7.93
662.76	7.91
663.089	7.88
663.418	7.99
663.747	7.99
664.076	7.99
664.404	8.05
664.733	8.01
665.062	8.08
665.39	7.99
665.719	7.91
666.048	7.91
666.376	7.94
666.705	7.93
667.033	8.03
667.362	7.97
667.69	7.97
668.018	8.11
668.347	8.02
668.675	8.08
669.003	8.02
669.331	8.03
669.659	8.04
669.987	8.04
670.315	8.07
670.643	8.04
670.971	8.04
671.299	8.02
671.627	8.02
671.955	7.89
672.283	7.89
672.61	7.97
672.938	8
673.266	7.92
673.593	7.84
673.921	7.84
674.249	7.89
674.576	7.9
674.904	7.76
675.231	7.65
675.558	7.67
675.886	7.73
676.213	7.7
676.54	7.8
676.867	7.69
677.195	7.63
677.522	7.7
677.849	7.72
678.176	7.73
678.503	7.65
678.83	7.77
679.157	7.86
679.484	7.78
679.81	7.79
680.137	7.87
680.464	7.94
680.791	7.84
681.117	7.93
681.444	7.99
681.771	8.1
682.097	8.25
682.424	8.17
682.75	8.15
683.077	8.25
683.403	8.23
683.729	8.35
684.056	8.44
684.382	8.51
684.708	8.46
685.034	8.43
685.36	8.43
685.686	8.37
686.012	8.33
686.339	8.39
686.664	8.44
686.99	8.35
687.316	8.32
687.642	8.28
687.968	8.27
688.294	8.27
688.619	8.16
688.945	8.05
689.271	8.08
689.596	8.2
689.922	8.01
690.247	8.06
690.573	8.07
690.898	8.04
691.224	7.94
691.549	8.03
691.874	7.93
692.2	8.07
692.525	8.07
692.85	8.07
693.175	8.09
693.5	7.99
693.825	8.05
694.15	8.07
694.475	8.25
694.8	8.2
695.125	8.13
695.45	8.14
695.775	8.23
696.099	8.33
696.424	8.24
696.749	8.39
697.073	8.34
697.398	8.37
697.723	8.33
698.047	8.39
698.372	8.42
698.696	8.51
699.02	8.48
699.345	8.62
699.669	8.71
699.993	8.73
700.318	8.76
700.642	8.76
700.966	8.85
701.29	8.76
701.614	8.7
701.938	8.67
702.262	8.77
702.586	8.77
702.91	8.71
703.234	8.75
703.557	8.69
703.881	8.7
704.205	8.69
704.529	8.8
704.852	8.84
705.176	8.76
705.499	8.73
705.823	8.74
706.146	8.78
706.47	8.69
706.793	8.66
707.117	8.66
707.44	8.65
707.763	8.65
708.086	8.8
708.409	8.82
708.733	8.86
709.056	8.88
709.379	8.95
709.702	8.94
710.025	9
710.348	8.98
710.671	9.1
710.993	8.95
711.316	8.94
711.639	8.86
711.962	8.94
712.284	8.99
712.607	8.96
712.93	8.76
713.252	8.84
713.575	8.74
713.897	8.71
714.22	8.71
714.542	8.75
714.864	8.56
715.187	8.74
715.509	8.77
715.831	8.8
716.153	8.79
716.475	8.8
716.798	8.72
717.12	8.8
717.442	8.56
717.764	8.65
718.085	8.62
718.407	8.7
718.729	8.66
719.051	8.62
719.373	8.59
719.695	8.6
720.016	8.45
720.338	8.53
720.659	8.73
720.981	8.63
721.302	8.71
721.624	8.79
721.945	8.51
722.267	8.7
722.588	8.57
722.909	8.45
723.231	8.33
723.552	8.41
723.873	8.42
724.194	8.66
724.515	8.75
724.836	8.59
725.157	8.53
725.478	8.49
725.799	8.57
726.12	8.74
726.441	8.89
726.762	9.06
727.083	9.14
727.403	8.99
727.724	9.36
728.045	9.19
728.365	9.1
728.686	9.06
729.006	8.99
729.327	9.07
729.647	9.03
729.967	9.26
730.288	9.19
730.608	9.25
730.928	9.2
731.249	9.36
731.569	9.52
731.889	9.54
732.209	9.53
732.529	9.55
732.849	9.36
733.169	9.27
733.489	9.13
733.809	9.16
734.129	9.13
734.448	8.99
734.768	9.05
735.088	9.14
735.408	9.33
735.727	9.24
736.047	9.11
736.366	9.25
736.686	8.98
737.005	8.99
737.325	8.92
737.644	8.81
737.963	8.7
738.283	8.47
738.602	8.45
738.921	8.63
739.24	8.73
739.56	8.97
739.879	8.88
740.198	8.82
740.517	8.81
740.836	8.87
741.155	8.98
741.473	8.86
741.792	8.87
742.111	8.99
742.43	9.08
742.748	9.24
743.067	9.17
743.386	9.27
743.704	9.43
744.023	9.43
744.341	9.47
744.66	9.13
744.978	9.24
745.297	9.32
745.615	9.04
745.933	8.93
746.252	8.56
746.57	8.62
746.888	8.91
747.206	8.94
747.524	8.99
747.842	8.6
748.16	8.86
748.478	9.01
748.796	9
749.114	8.78
749.432	8.67
749.749	8.76
750.067	8.94
750.385	9.06
750.703	8.95
751.02	9.33
751.338	9.5
751.655	9.68
751.973	9.76
752.29	9.91
752.608	10.09
752.925	10.43
753.242	10.45
753.56	10.18
753.877	9.97
754.194	9.93
754.511	10.04
754.828	9.8
755.145	9.67
755.462	9.51
755.779	9.45
756.096	9.56
756.413	9.65
756.73	9.53
757.047	9.16
757.364	9.36
757.68	9.21
757.997	9.35
758.314	9.37
758.63	9.11
758.947	9.25
759.264	9.18
759.58	9.12
759.896	9.01
760.213	9.13
760.529	9.21
760.846	9.39
761.162	9.47
761.478	9.61
761.794	9.75
762.11	9.93
762.426	9.94
762.743	9.87
763.059	9.76
763.375	9.66
763.69	9.85
764.006	9.84
764.322	9.66
764.638	9.66
764.954	9.74
765.27	9.95
765.585	9.81
765.901	9.75
766.216	9.68
766.532	9.69
766.848	9.51
767.163	9.63
767.478	9.4
767.794	9.44
768.109	9.21
768.424	9.2
768.74	8.77
769.055	9.16
769.37	9.21
769.685	8.96
770	9.09
770.315	8.96
770.63	9.1
770.945	9.46
771.26	9.13
771.575	9.12
771.89	8.92
772.205	8.93
772.52	8.99
772.834	9.11
773.149	9.43
773.464	9.33
773.778	9.19
774.093	9.27
774.407	9.31
774.722	9.4
775.036	9.27
775.351	9.74
775.665	9.48
775.979	9.39
776.293	9.6
776.608	9.78
776.922	9.53
777.236	8.87
777.55	8.4
777.864	8.28
778.178	7.9
778.492	7.8
778.806	8.07
779.12	7.76
779.434	7.41
779.747	7.15
780.061	7.38
780.375	7.5
780.689	7.84
781.002	7.79
781.316	8.15
781.629	8.1
781.943	7.91
782.256	7.72
782.57	8.26
782.883	8.35
783.196	7.93
783.51	8.26
783.823	8.71
784.136	8.35
784.449	8.56
784.762	9.22
785.075	9.45
785.388	9.37
785.701	9.82
786.014	10.26
786.327	10.07
786.64	10.22
786.953	10.65
787.266	10.87
787.578	10.8
787.891	10.54
788.204	10.25
788.516	10.25
788.829	10.23
789.141	10.15
789.454	10.34
789.766	10.79
790.079	10.15
790.391	10.17
790.703	10.44
791.016	10.81
791.328	10.65
791.64	10.57
791.952	10.83
792.264	11.03
792.576	11.05
792.888	11.18
793.2	11.02
793.512	10.06
793.824	9.97
794.136	9.9
794.448	10.21
794.76	10.86
795.071	10.91
795.383	11.49
795.695	11.35
796.006	11.26
796.318	11.1
796.629	11.77
796.941	12.15
797.252	12.12
797.564	11.9
797.875	10.98
798.186	11.53
798.497	10.78
798.809	10.14
799.12	10.1
799.431	10.04
799.742	10.72
800.053	11.34
800.364	11.39
800.675	11.36
800.986	11.04
801.297	10.81
801.608	10.74
801.918	10.08
802.229	9.96
802.54	9.53
802.851	9.49
803.161	9.26
803.472	8.53
803.782	9.02
804.093	8.73
804.403	9.4
804.714	8.35
805.024	8.33
805.334	8.2
805.645	8.03
805.955	8.28
806.265	8.14
806.575	8.55
806.885	8.19
807.195	8.37
807.505	8.47
807.815	8.27
808.125	7.71
808.435	7.98
808.745	7.78
809.055	8.08
809.365	7.99
809.674	7.79
809.984	7.92
810.294	8.02
810.603	7.83
810.913	7.45
811.222	8.03
811.532	8.86
811.841	8.87
812.151	8.8
812.46	8.65
812.769	8.75
813.079	8.57
813.388	8.6
813.697	8.07
814.006	8
814.315	7.75
814.624	9.65
814.933	9.67
815.242	9.8
815.551	9.71
815.86	10.47
816.169	10.58
816.478	10.86
816.786	10.47
817.095	10.53
817.404	11.4
817.712	11.42
818.021	11.6
818.33	11.99
818.638	12.37
818.947	12.9
819.255	12.53
819.563	12.41
819.872	12.28
820.18	12.48
820.488	12.69
820.796	13.08
821.105	12.74
821.413	12.65
821.721	12.36
822.029	12.53
822.337	12.51
822.645	12.68
822.953	12.78
823.26	12.86
823.568	12.84
823.876	12.67
824.184	12.68
824.491	12.61
824.799	12.76
825.107	12.62
825.414	12.49
825.722	12.48
826.029	12.5
826.337	12.53
826.644	12.73
826.951	12.61
827.259	12.42
827.566	12.39
827.873	12.58
828.18	12.9
828.488	13.02
828.795	12.87
829.102	12.69
829.409	12.07
829.716	12.05
830.023	12.42
830.329	12.37
830.636	12.28
830.943	11.85
831.25	11.65
831.557	11.89
831.863	11.95
832.17	12.25
832.476	12
832.783	11.75
833.089	11.19
833.396	11.58
833.702	11.98
834.009	12.41
834.315	12.4
834.621	12.63
834.928	12.27
835.234	12.35
835.54	12.38
835.846	13.34
836.152	13.35
836.458	13.18
836.764	13.58
837.07	13.72
837.376	13.99
837.682	13.56
837.988	13.6
838.293	12.97
838.599	12.79
838.905	13.2
839.211	13.65
839.516	14.18
839.822	14.09
840.127	12.66
840.433	12.02
840.738	11.72
841.044	10.83
841.349	10.19
841.654	8.83
841.959	10.24
842.265	9.75
842.57	9.15
842.875	9.14
843.18	8.13
843.485	8.11
843.79	7.94
844.095	8.09
844.4	7.47
844.705	9.95
845.01	10.59
845.315	7.88
845.619	8.12
845.924	7.91
846.229	7.82
846.533	9.94
846.838	9.64
847.142	8.93
847.447	9.57
847.751	10.97
848.056	13.49
848.36	13.55
848.664	12.52
848.969	12.13
849.273	10.23
849.577	9.84
849.881	10.15
850.185	10.95
850.489	11.65
850.794	12.76
851.097	9.97
851.401	7.96
851.705	11.21
852.009	10.39
852.313	8.38
852.617	6.11
852.92	5.86
853.224	7.06
853.528	8.27
853.831	9.4
854.135	7.71
854.438	6.31
854.742	5.66
855.045	4.92
855.349	5.6
855.652	7.16
855.955	6.43
856.259	6.39
856.562	7.73
856.865	7.98
857.168	8
857.471	9.55
857.774	9.39
858.077	7.75
858.38	7.85
858.683	9.39
858.986	10.32
859.289	9.05
859.592	7.7
859.894	8.04
860.197	3.59
860.5	6.44
860.802	5.76
861.105	4.26
861.407	5.74
861.71	5.49
862.012	7.34
862.315	9.29
862.617	9.23
862.919	6.86
863.222	7.26
863.524	4.95
863.826	5.32
864.128	7.47
864.43	9.88
864.732	9.4
865.034	11.08
865.336	11.78
865.638	13.73
865.94	12.61
866.242	9.36
866.544	11.59
866.846	12.19
867.147	13.51
867.449	10.33
867.751	11.58
868.052	12.58
868.354	12.03
868.655	12.76
868.957	13.41
869.258	12.05
869.56	10.75
869.861	11.36
870.162	12.36
870.463	9.67
870.765	10.87
871.066	11.55
871.367	9.67
871.668	8.9
871.969	7.61
872.27	7.96
872.571	9.73
872.872	9.24
873.173	6.46
873.473	4.65
873.774	8.64
874.075	9
874.376	11.1
874.676	9.74
874.977	9.28
875.277	8.22
875.578	11.94
875.878	11.98
876.179	12.98
876.479	10.86
876.78	12.56
877.08	10.12
877.38	9.92
877.68	10.47
877.981	11.49
878.281	12.21
878.581	13.81
