Data from MVZ_BU88648_Reflection_00011.txt Node
Date: Tue Nov 19 12:02:12 EST 2019
User: vgr7
Spectrometer: USB2G7710
Scans to average: 3
Trigger mode: 4
Integration Time (sec): 2.000000E-2
Electric dark correction enabled: true
Boxcar width: 10
XAxis mode: Wavelengths
Number of Pixels in Spectrum: 2048
>>>>>Begin Spectral Data<<<<<
177.721	4.41
178.105	21.69
178.488	-56.48
178.871	-265.38
179.254	-51.92
179.636	-372.97
180.019	70.22
180.402	37.5
180.785	108.14
181.168	143.71
181.55	291.96
181.933	-193.27
182.316	211.61
182.698	220.13
183.081	32.22
183.463	-5.31
183.846	-41.17
184.228	2.74
184.611	34.75
184.993	36.7
185.376	31.23
185.758	45.23
186.14	47.47
186.522	74.34
186.904	77.83
187.287	109.79
187.669	90
188.051	57.41
188.433	55.3
188.815	52.25
189.197	21.35
189.579	36.46
189.961	31.77
190.342	32.16
190.724	19.76
191.106	23.48
191.488	54.67
191.869	83.86
192.251	79.24
192.633	94.57
193.014	134.12
193.396	80.51
193.777	97.12
194.159	82.6
194.54	84.86
194.922	100.55
195.303	74.27
195.684	52.35
196.065	56.74
196.447	42.68
196.828	32.85
197.209	71.86
197.59	0.91
197.971	-1.88
198.352	13.94
198.733	9.89
199.114	14.14
199.495	-23.99
199.876	-35.63
200.257	-52.07
200.638	-31.39
201.018	-24.82
201.399	-7.97
201.78	-20.58
202.16	-38.6
202.541	-60.89
202.922	-53.26
203.302	-46.59
203.683	-44.06
204.063	-27.89
204.444	-17.51
204.824	-13.13
205.204	-4.26
205.585	-8.75
205.965	-13.25
206.345	-25.3
206.725	-24.08
207.106	-16.22
207.486	-4.65
207.866	-3.25
208.246	0.32
208.626	-9.09
209.006	-7.73
209.386	-9.82
209.766	-3.23
210.145	5.4
210.525	9.11
210.905	-6.63
211.285	-4.54
211.664	0.54
212.044	1.73
212.424	1.22
212.803	-6.91
213.183	-14.75
213.562	-0.47
213.942	-9.46
214.321	-14.96
214.701	-14.15
215.08	-20.88
215.459	-17.18
215.838	-20.46
216.218	-29.05
216.597	-27.3
216.976	-32.87
217.355	-30.06
217.734	-40.26
218.113	-35.75
218.492	-41.25
218.871	-39.19
219.25	-41.27
219.629	-46.18
220.008	-48.2
220.387	-59.84
220.766	-29.57
221.144	-31.29
221.523	-39.09
221.902	-8.93
222.28	7.6
222.659	9.54
223.037	6.08
223.416	-2.83
223.794	7.2
224.173	14.03
224.551	29.63
224.929	15.48
225.308	8.29
225.686	5.91
226.064	3.4
226.442	9.78
226.821	14.39
227.199	9.05
227.577	7.96
227.955	6.46
228.333	1.36
228.711	-1.1
229.089	1.13
229.467	2.41
229.845	0.72
230.222	1.8
230.6	2.66
230.978	5.57
231.356	7.33
231.733	5.51
232.111	6.05
232.488	4.4
232.866	7.73
233.243	7.82
233.621	8.83
233.998	9.82
234.376	9.96
234.753	8.97
235.13	9.89
235.508	9.93
235.885	9.2
236.262	11.74
236.639	10.97
237.016	11.09
237.393	9.62
237.77	9.27
238.147	9.33
238.524	9.3
238.901	7.62
239.278	6.55
239.655	5.88
240.032	4.51
240.409	4.27
240.785	4.22
241.162	4.99
241.539	4.47
241.915	4.55
242.292	4.68
242.668	4.96
243.045	5.29
243.421	5.79
243.798	5.79
244.174	5.29
244.551	5.24
244.927	5.11
245.303	5.08
245.679	4.82
246.056	4.51
246.432	4.55
246.808	4.76
247.184	4.84
247.56	4.54
247.936	4.93
248.312	4.94
248.688	4.82
249.064	4.5
249.44	4.8
249.815	4.7
250.191	4.84
250.567	4.55
250.943	4.74
251.318	4.32
251.694	4.07
252.069	4.13
252.445	4.37
252.82	4.93
253.196	5.12
253.571	5.34
253.947	5.47
254.322	5.34
254.697	5.65
255.073	5.91
255.448	6.42
255.823	6.23
256.198	5.98
256.573	6.01
256.948	5.78
257.323	5.76
257.698	5.74
258.073	5.56
258.448	5.58
258.823	5.04
259.198	5.14
259.573	5.24
259.948	5.4
260.322	5.14
260.697	4.76
261.072	4.62
261.446	4.59
261.821	4.51
262.195	4.31
262.57	4.26
262.944	4.12
263.319	4.15
263.693	4.07
264.067	4.16
264.442	4.18
264.816	4.3
265.19	4.09
265.564	3.91
265.938	4.01
266.313	3.7
266.687	3.97
267.061	3.78
267.435	3.92
267.809	3.64
268.183	3.7
268.556	3.69
268.93	3.94
269.304	3.97
269.678	3.82
270.051	3.99
270.425	3.87
270.799	3.78
271.172	3.61
271.546	3.58
271.919	3.39
272.293	3.42
272.666	3.35
273.04	3.47
273.413	3.58
273.787	3.51
274.16	3.57
274.533	3.49
274.906	3.59
275.279	3.5
275.653	3.63
276.026	3.66
276.399	3.79
276.772	3.75
277.145	3.74
277.518	3.87
277.891	3.74
278.263	3.83
278.636	4.03
279.009	4.19
279.382	4.17
279.755	4.18
280.127	4.14
280.5	4.16
280.872	4.07
281.245	3.97
281.617	3.89
281.99	4.06
282.362	4.12
282.735	4.06
283.107	4.1
283.479	3.99
283.852	4.09
284.224	4.11
284.596	4.02
284.968	3.95
285.34	3.89
285.713	4.05
286.085	3.96
286.457	3.8
286.829	3.83
287.201	4.03
287.572	4.1
287.944	4.19
288.316	4.22
288.688	4.3
289.06	4.32
289.431	4.45
289.803	4.5
290.175	4.5
290.546	4.56
290.918	4.62
291.289	4.69
291.661	4.65
292.032	4.65
292.403	4.49
292.775	4.52
293.146	4.66
293.517	4.6
293.889	4.49
294.26	4.56
294.631	4.42
295.002	4.36
295.373	4.42
295.744	4.45
296.115	4.51
296.486	4.44
296.857	4.57
297.228	4.48
297.599	4.36
297.97	4.32
298.34	4.28
298.711	4.16
299.082	4.14
299.452	4.11
299.823	4.01
300.194	4.24
300.564	4.22
300.935	4.24
301.305	4.24
301.676	4.38
302.046	4.4
302.416	4.42
302.787	4.46
303.157	4.36
303.527	4.29
303.897	4.34
304.267	4.51
304.637	4.39
305.008	4.44
305.378	4.62
305.748	4.61
306.117	4.53
306.487	4.53
306.857	4.7
307.227	4.9
307.597	4.9
307.967	4.96
308.336	5.05
308.706	5.01
309.076	5.15
309.445	5.31
309.815	5.27
310.184	5.3
310.554	5.22
310.923	5.29
311.293	5.29
311.662	5.12
312.031	5.01
312.401	5.14
312.77	5.12
313.139	5.09
313.508	5.11
313.877	5.24
314.246	5.33
314.616	5.33
314.985	5.17
315.353	5.26
315.722	5.19
316.091	5.23
316.46	5.25
316.829	5.18
317.198	5
317.567	5.23
317.935	5.34
318.304	5.44
318.672	5.7
319.041	5.67
319.41	5.79
319.778	5.77
320.147	5.67
320.515	5.71
320.883	5.7
321.252	5.77
321.62	6.01
321.988	5.89
322.357	5.85
322.725	5.89
323.093	5.93
323.461	5.91
323.829	5.91
324.197	5.95
324.565	5.96
324.933	6.03
325.301	5.92
325.669	6.03
326.037	5.87
326.405	5.7
326.772	5.72
327.14	5.78
327.508	5.81
327.875	5.88
328.243	5.97
328.61	5.94
328.978	5.95
329.346	5.81
329.713	5.96
330.08	6.06
330.448	6.23
330.815	6.27
331.182	6.27
331.55	6.33
331.917	6.29
332.284	6.27
332.651	6.26
333.018	6.33
333.385	6.27
333.752	6.44
334.119	6.53
334.486	6.56
334.853	6.58
335.22	6.68
335.587	6.66
335.954	6.56
336.32	6.63
336.687	6.68
337.054	6.66
337.42	6.72
337.787	6.55
338.153	6.46
338.52	6.44
338.886	6.44
339.253	6.36
339.619	6.44
339.986	6.38
340.352	6.44
340.718	6.4
341.084	6.46
341.451	6.44
341.817	6.34
342.183	6.28
342.549	6.29
342.915	6.24
343.281	6.26
343.647	6.37
344.013	6.4
344.379	6.37
344.745	6.37
345.11	6.34
345.476	6.48
345.842	6.45
346.208	6.44
346.573	6.49
346.939	6.51
347.304	6.5
347.67	6.55
348.035	6.51
348.401	6.39
348.766	6.32
349.132	6.42
349.497	6.54
349.862	6.66
350.228	6.75
350.593	6.73
350.958	6.77
351.323	6.71
351.688	6.7
352.053	6.76
352.418	6.81
352.783	6.78
353.148	6.76
353.513	6.72
353.878	6.7
354.243	6.64
354.608	6.68
354.972	6.64
355.337	6.64
355.702	6.66
356.066	6.79
356.431	6.75
356.795	6.66
357.16	6.63
357.524	6.61
357.889	6.49
358.253	6.45
358.618	6.38
358.982	6.41
359.346	6.39
359.71	6.35
360.075	6.33
360.439	6.41
360.803	6.41
361.167	6.41
361.531	6.42
361.895	6.47
362.259	6.44
362.623	6.45
362.987	6.45
363.351	6.39
363.714	6.39
364.078	6.38
364.442	6.32
364.806	6.27
365.169	6.21
365.533	6.2
365.896	6.27
366.26	6.28
366.623	6.21
366.987	6.19
367.35	6.21
367.714	6.13
368.077	6.03
368.44	5.96
368.803	5.89
369.167	5.8
369.53	5.76
369.893	5.73
370.256	5.66
370.619	5.61
370.982	5.52
371.345	5.5
371.708	5.49
372.071	5.53
372.434	5.56
372.797	5.56
373.159	5.53
373.522	5.46
373.885	5.49
374.247	5.47
374.61	5.5
374.973	5.51
375.335	5.52
375.698	5.46
376.06	5.4
376.423	5.38
376.785	5.37
377.147	5.29
377.51	5.25
377.872	5.27
378.234	5.23
378.596	5.28
378.958	5.27
379.321	5.23
379.683	5.21
380.045	5.11
380.407	5.1
380.769	5.07
381.13	5.04
381.492	5
381.854	4.96
382.216	4.95
382.578	4.87
382.939	4.81
383.301	4.79
383.663	4.76
384.024	4.76
384.386	4.8
384.747	4.79
385.109	4.8
385.47	4.77
385.832	4.77
386.193	4.74
386.554	4.7
386.916	4.73
387.277	4.7
387.638	4.74
387.999	4.68
388.36	4.7
388.721	4.67
389.082	4.65
389.443	4.66
389.804	4.65
390.165	4.62
390.526	4.66
390.887	4.69
391.248	4.7
391.609	4.73
391.969	4.68
392.33	4.71
392.691	4.66
393.051	4.61
393.412	4.59
393.772	4.57
394.133	4.53
394.493	4.47
394.854	4.48
395.214	4.43
395.574	4.45
395.935	4.39
396.295	4.36
396.655	4.31
397.015	4.31
397.376	4.27
397.736	4.24
398.096	4.18
398.456	4.15
398.816	4.14
399.176	4.08
399.535	4.07
399.895	3.99
400.255	4.01
400.615	3.98
400.975	4
401.334	3.96
401.694	3.93
402.054	3.93
402.413	3.89
402.773	3.85
403.132	3.83
403.492	3.83
403.851	3.84
404.211	3.83
404.57	3.8
404.929	3.77
405.288	3.76
405.648	3.74
406.007	3.73
406.366	3.67
406.725	3.64
407.084	3.62
407.443	3.63
407.802	3.62
408.161	3.67
408.52	3.64
408.879	3.67
409.238	3.68
409.596	3.67
409.955	3.67
410.314	3.69
410.673	3.68
411.031	3.7
411.39	3.69
411.748	3.73
412.107	3.7
412.465	3.71
412.824	3.67
413.182	3.7
413.54	3.69
413.899	3.72
414.257	3.74
414.615	3.74
414.974	3.74
415.332	3.73
415.69	3.7
416.048	3.69
416.406	3.66
416.764	3.67
417.122	3.65
417.48	3.63
417.838	3.61
418.195	3.6
418.553	3.59
418.911	3.58
419.269	3.55
419.626	3.54
419.984	3.54
420.342	3.55
420.699	3.51
421.057	3.51
421.414	3.5
421.772	3.5
422.129	3.49
422.486	3.48
422.844	3.46
423.201	3.46
423.558	3.45
423.915	3.46
424.273	3.44
424.63	3.45
424.987	3.44
425.344	3.42
425.701	3.41
426.058	3.38
426.415	3.38
426.772	3.38
427.128	3.38
427.485	3.38
427.842	3.37
428.199	3.4
428.555	3.4
428.912	3.4
429.269	3.38
429.625	3.39
429.982	3.38
430.338	3.38
430.695	3.36
431.051	3.39
431.407	3.38
431.764	3.38
432.12	3.37
432.476	3.39
432.832	3.4
433.189	3.4
433.545	3.4
433.901	3.4
434.257	3.39
434.613	3.4
434.969	3.38
435.325	3.39
435.681	3.37
436.036	3.39
436.392	3.38
436.748	3.4
437.104	3.38
437.459	3.39
437.815	3.38
438.171	3.39
438.526	3.36
438.882	3.34
439.237	3.35
439.593	3.36
439.948	3.36
440.304	3.37
440.659	3.39
441.014	3.41
441.369	3.42
441.725	3.42
442.08	3.39
442.435	3.39
442.79	3.38
443.145	3.37
443.5	3.35
443.855	3.35
444.21	3.36
444.565	3.37
444.92	3.38
445.275	3.39
445.629	3.37
445.984	3.37
446.339	3.38
446.693	3.37
447.048	3.34
447.403	3.33
447.757	3.32
448.112	3.31
448.466	3.29
448.82	3.27
449.175	3.28
449.529	3.31
449.883	3.31
450.238	3.33
450.592	3.34
450.946	3.33
451.3	3.32
451.654	3.28
452.008	3.28
452.362	3.27
452.716	3.25
453.07	3.25
453.424	3.24
453.778	3.25
454.132	3.25
454.486	3.26
454.839	3.28
455.193	3.28
455.547	3.27
455.9	3.28
456.254	3.28
456.607	3.27
456.961	3.26
457.314	3.26
457.668	3.25
458.021	3.25
458.375	3.25
458.728	3.24
459.081	3.27
459.434	3.27
459.787	3.27
460.141	3.3
460.494	3.3
460.847	3.32
461.2	3.32
461.553	3.32
461.906	3.34
462.259	3.33
462.611	3.34
462.964	3.34
463.317	3.35
463.67	3.35
464.022	3.35
464.375	3.35
464.728	3.33
465.08	3.34
465.433	3.35
465.785	3.36
466.138	3.38
466.49	3.4
466.843	3.4
467.195	3.4
467.547	3.38
467.899	3.42
468.252	3.42
468.604	3.43
468.956	3.45
469.308	3.44
469.66	3.44
470.012	3.44
470.364	3.45
470.716	3.47
471.068	3.48
471.42	3.49
471.772	3.51
472.123	3.54
472.475	3.55
472.827	3.54
473.178	3.55
473.53	3.55
473.882	3.53
474.233	3.55
474.585	3.58
474.936	3.57
475.288	3.55
475.639	3.56
475.99	3.56
476.342	3.55
476.693	3.56
477.044	3.55
477.395	3.54
477.746	3.54
478.097	3.5
478.448	3.51
478.8	3.51
479.15	3.5
479.501	3.49
479.852	3.46
480.203	3.48
480.554	3.47
480.905	3.49
481.255	3.5
481.606	3.48
481.957	3.46
482.307	3.45
482.658	3.45
483.009	3.45
483.359	3.46
483.709	3.47
484.06	3.47
484.41	3.48
484.761	3.49
485.111	3.5
485.461	3.5
485.811	3.49
486.162	3.49
486.512	3.49
486.862	3.49
487.212	3.5
487.562	3.49
487.912	3.48
488.262	3.48
488.612	3.47
488.961	3.49
489.311	3.49
489.661	3.5
490.011	3.51
490.36	3.5
490.71	3.49
491.06	3.47
491.409	3.47
491.759	3.47
492.108	3.46
492.458	3.45
492.807	3.46
493.157	3.48
493.506	3.48
493.855	3.49
494.204	3.49
494.554	3.52
494.903	3.53
495.252	3.54
495.601	3.55
495.95	3.56
496.299	3.55
496.648	3.58
496.997	3.6
497.346	3.61
497.695	3.65
498.043	3.68
498.392	3.7
498.741	3.74
499.09	3.78
499.438	3.81
499.787	3.81
500.135	3.84
500.484	3.84
500.832	3.85
501.181	3.89
501.529	3.93
501.878	3.97
502.226	3.99
502.574	4.04
502.923	4.05
503.271	4.07
503.619	4.13
503.967	4.17
504.315	4.21
504.663	4.23
505.011	4.25
505.359	4.27
505.707	4.31
506.055	4.37
506.403	4.42
506.751	4.46
507.098	4.53
507.446	4.62
507.794	4.68
508.141	4.76
508.489	4.81
508.837	4.88
509.184	4.93
509.531	4.96
509.879	5.03
510.226	5.11
510.574	5.19
510.921	5.24
511.268	5.3
511.616	5.37
511.963	5.46
512.31	5.54
512.657	5.64
513.004	5.74
513.351	5.79
513.698	5.88
514.045	6
514.392	6.1
514.739	6.18
515.086	6.28
515.432	6.38
515.779	6.47
516.126	6.58
516.473	6.68
516.819	6.8
517.166	6.87
517.512	6.96
517.859	7.06
518.205	7.15
518.552	7.22
518.898	7.31
519.245	7.39
519.591	7.5
519.937	7.59
520.283	7.67
520.629	7.78
520.976	7.85
521.322	7.93
521.668	8.04
522.014	8.15
522.36	8.25
522.706	8.37
523.052	8.53
523.398	8.66
523.743	8.81
524.089	8.96
524.435	9.09
524.781	9.23
525.126	9.35
525.472	9.46
525.817	9.58
526.163	9.68
526.509	9.77
526.854	9.85
527.199	9.95
527.545	10.03
527.89	10.11
528.235	10.2
528.581	10.29
528.926	10.38
529.271	10.45
529.616	10.54
529.961	10.64
530.306	10.71
530.651	10.8
530.996	10.89
531.341	11
531.686	11.11
532.031	11.2
532.376	11.31
532.721	11.43
533.065	11.55
533.41	11.67
533.755	11.8
534.099	11.92
534.444	12.05
534.788	12.18
535.133	12.31
535.477	12.43
535.822	12.56
536.166	12.72
536.51	12.88
536.855	13.06
537.199	13.2
537.543	13.41
537.887	13.61
538.231	13.79
538.576	13.97
538.92	14.16
539.264	14.36
539.608	14.54
539.951	14.69
540.295	14.84
540.639	14.99
540.983	15.14
541.327	15.29
541.671	15.43
542.014	15.59
542.358	15.75
542.701	15.91
543.045	16.08
543.389	16.23
543.732	16.37
544.075	16.54
544.419	16.71
544.762	16.85
545.105	17.05
545.449	17.26
545.792	17.47
546.135	17.68
546.478	17.91
546.821	18.13
547.165	18.39
547.508	18.61
547.851	18.84
548.194	19.07
548.536	19.31
548.879	19.56
549.222	19.8
549.565	20.02
549.908	20.23
550.25	20.43
550.593	20.65
550.936	20.89
551.278	21.12
551.621	21.38
551.963	21.65
552.306	21.86
552.648	22.05
552.991	22.24
553.333	22.47
553.675	22.65
554.017	22.87
554.36	23.09
554.702	23.3
555.044	23.51
555.386	23.76
555.728	23.98
556.07	24.22
556.412	24.51
556.754	24.79
557.096	25.05
557.438	25.32
557.78	25.57
558.121	25.86
558.463	26.08
558.805	26.35
559.147	26.53
559.488	26.7
559.83	26.94
560.171	27.18
560.513	27.38
560.854	27.65
561.196	27.89
561.537	28.12
561.878	28.39
562.22	28.64
562.561	28.83
562.902	29.04
563.243	29.24
563.584	29.4
563.925	29.62
564.266	29.81
564.607	30.01
564.948	30.24
565.289	30.44
565.63	30.65
565.971	30.87
566.312	31.12
566.653	31.31
566.993	31.49
567.334	31.63
567.675	31.82
568.015	32.02
568.356	32.16
568.696	32.32
569.037	32.45
569.377	32.62
569.718	32.86
570.058	33.03
570.398	33.17
570.739	33.3
571.079	33.43
571.419	33.66
571.759	33.82
572.099	33.95
572.439	34.05
572.779	34.21
573.119	34.31
573.459	34.37
573.799	34.55
574.139	34.67
574.479	34.87
574.819	34.99
575.158	35.06
575.498	35.25
575.838	35.35
576.177	35.47
576.517	35.58
576.856	35.68
577.196	35.82
577.535	35.96
577.875	36.13
578.214	36.19
578.553	36.21
578.893	36.35
579.232	36.51
579.571	36.67
579.91	36.81
580.25	36.98
580.589	37.16
580.928	37.2
581.267	37.38
581.606	37.5
581.945	37.64
582.283	37.81
582.622	37.93
582.961	38.14
583.3	38.32
583.639	38.46
583.977	38.58
584.316	38.67
584.654	38.82
584.993	38.95
585.332	39.12
585.67	39.3
586.008	39.39
586.347	39.48
586.685	39.56
587.024	39.66
587.362	39.75
587.7	39.87
588.038	40.09
588.376	40.19
588.715	40.28
589.053	40.33
589.391	40.38
589.729	40.46
590.067	40.52
590.404	40.54
590.742	40.61
591.08	40.67
591.418	40.75
591.756	40.82
592.093	40.93
592.431	41.11
592.769	41.21
593.106	41.32
593.444	41.4
593.781	41.57
594.119	41.58
594.456	41.62
594.793	41.77
595.131	41.82
595.468	41.88
595.805	41.95
596.143	42.02
596.48	42.12
596.817	42.11
597.154	42.13
597.491	42.22
597.828	42.27
598.165	42.32
598.502	42.42
598.839	42.51
599.176	42.53
599.512	42.47
599.849	42.53
600.186	42.57
600.523	42.64
600.859	42.66
601.196	42.79
601.532	42.86
601.869	42.86
602.205	42.86
602.542	42.94
602.878	42.98
603.215	43.11
603.551	43.21
603.887	43.36
604.223	43.43
604.56	43.49
604.896	43.63
605.232	43.68
605.568	43.72
605.904	43.74
606.24	43.88
606.576	44.02
606.912	44.09
607.248	44.19
607.583	44.32
607.919	44.37
608.255	44.41
608.591	44.52
608.926	44.57
609.262	44.65
609.597	44.68
609.933	44.74
610.268	44.73
610.604	44.71
610.939	44.71
611.275	44.84
611.61	44.94
611.945	44.91
612.281	45.02
612.616	45.17
612.951	45.22
613.286	45.17
613.621	45.19
613.956	45.22
614.291	45.26
614.626	45.27
614.961	45.33
615.296	45.43
615.631	45.41
615.966	45.44
616.3	45.61
616.635	45.64
616.97	45.65
617.304	45.76
617.639	45.89
617.973	45.9
618.308	45.92
618.642	45.92
618.977	45.96
619.311	46.01
619.646	45.99
619.98	46.14
620.314	46.14
620.648	46.15
620.983	46.24
621.317	46.26
621.651	46.31
621.985	46.35
622.319	46.27
622.653	46.33
622.987	46.39
623.321	46.4
623.655	46.44
623.988	46.51
624.322	46.5
624.656	46.57
624.99	46.66
625.323	46.65
625.657	46.7
625.99	46.76
626.324	46.76
626.657	46.75
626.991	46.66
627.324	46.72
627.658	46.72
627.991	46.7
628.324	46.69
628.657	46.7
628.991	46.75
629.324	46.82
629.657	46.79
629.99	46.85
630.323	46.83
630.656	46.84
630.989	46.89
631.322	46.94
631.655	46.93
631.987	46.87
632.32	46.9
632.653	46.86
632.986	46.92
633.318	46.98
633.651	46.99
633.984	47.09
634.316	47.16
634.649	47.26
634.981	47.37
635.313	47.4
635.646	47.42
635.978	47.45
636.31	47.49
636.643	47.56
636.975	47.54
637.307	47.56
637.639	47.58
637.971	47.54
638.303	47.49
638.635	47.51
638.967	47.59
639.299	47.64
639.631	47.69
639.963	47.67
640.295	47.71
640.626	47.76
640.958	47.73
641.29	47.78
641.621	47.75
641.953	47.67
642.285	47.82
642.616	47.9
642.948	47.88
643.279	47.84
643.61	47.9
643.942	47.91
644.273	48.09
644.604	48.14
644.936	48.32
645.267	48.4
645.598	48.36
645.929	48.51
646.26	48.52
646.591	48.67
646.922	48.76
647.253	48.68
647.584	48.78
647.915	48.84
648.245	48.82
648.576	48.9
648.907	48.9
649.238	48.91
649.568	48.91
649.899	48.94
650.229	49.16
650.56	49.13
650.89	49.16
651.221	48.98
651.551	49.01
651.882	48.98
652.212	49.06
652.542	49.15
652.872	49.04
653.203	49.07
653.533	49.03
653.863	49.13
654.193	49.23
654.523	49.22
654.853	49.28
655.183	49.36
655.513	49.48
655.843	49.64
656.172	49.72
656.502	49.76
656.832	49.93
657.162	49.79
657.491	49.88
657.821	49.94
658.15	50.08
658.48	50.14
658.809	50.06
659.139	50.07
659.468	50.08
659.798	50.2
660.127	50.27
660.456	50.39
660.785	50.22
661.115	50.19
661.444	50.3
661.773	50.32
662.102	50.3
662.431	50.24
662.76	50.24
663.089	50.25
663.418	50.27
663.747	50.18
664.076	50.3
664.404	50.4
664.733	50.5
665.062	50.45
665.39	50.41
665.719	50.53
666.048	50.49
666.376	50.59
666.705	50.42
667.033	50.35
667.362	50.19
667.69	50.3
668.018	50.43
668.347	50.43
668.675	50.4
669.003	50.37
669.331	50.47
669.659	50.42
669.987	50.22
670.315	50.2
670.643	50.16
670.971	50.22
671.299	50.15
671.627	50.06
671.955	50.12
672.283	50.18
672.61	50.2
672.938	50.28
673.266	50.22
673.593	50.39
673.921	50.57
674.249	50.68
674.576	50.79
674.904	50.73
675.231	50.72
675.558	50.88
675.886	50.95
676.213	50.97
676.54	50.98
676.867	51.08
677.195	51.11
677.522	51.11
677.849	51.08
678.176	51.03
678.503	51.1
678.83	51.25
679.157	51.24
679.484	51.26
679.81	51.29
680.137	51.28
680.464	51.3
680.791	51.18
681.117	51.14
681.444	51.05
681.771	51.1
682.097	51.1
682.424	51.13
682.75	51.08
683.077	50.98
683.403	51
683.729	51.04
684.056	50.92
684.382	51.02
684.708	51.15
685.034	51.31
685.36	51.25
685.686	51.28
686.012	51.37
686.339	51.33
686.664	51.29
686.99	51.27
687.316	51.39
687.642	51.53
687.968	51.64
688.294	51.65
688.619	51.67
688.945	51.75
689.271	51.61
689.596	51.66
689.922	51.82
690.247	51.88
690.573	51.86
690.898	51.93
691.224	51.88
691.549	51.8
691.874	51.65
692.2	51.65
692.525	51.4
692.85	51.34
693.175	51.39
693.5	51.43
693.825	51.54
694.15	51.48
694.475	51.45
694.8	51.51
695.125	51.69
695.45	51.76
695.775	51.81
696.099	51.89
696.424	52.02
696.749	52.13
697.073	52.15
697.398	52.12
697.723	52.1
698.047	52.07
698.372	51.92
698.696	51.89
699.02	51.94
699.345	52.15
699.669	52.18
699.993	52.24
700.318	52.4
700.642	52.38
700.966	52.37
701.29	52.34
701.614	52.26
701.938	52.2
702.262	52.22
702.586	52.08
702.91	52.23
703.234	52.2
703.557	52.04
703.881	52.12
704.205	52.23
704.529	52.44
704.852	52.67
705.176	52.7
705.499	53
705.823	53.04
706.146	52.91
706.47	52.88
706.793	53.01
707.117	52.89
707.44	53.07
707.763	53.06
708.086	53.12
708.409	52.95
708.733	52.88
709.056	52.61
709.379	52.6
709.702	52.39
710.025	52.48
710.348	52.53
710.671	52.71
710.993	52.81
711.316	52.65
711.639	52.52
711.962	52.67
712.284	52.54
712.607	52.54
712.93	52.56
713.252	52.64
713.575	52.7
713.897	52.79
714.22	52.66
714.542	52.71
714.864	52.62
715.187	52.7
715.509	52.65
715.831	52.78
716.153	52.93
716.475	52.95
716.798	52.9
717.12	52.82
717.442	52.65
717.764	52.61
718.085	52.87
718.407	53.06
718.729	53.14
719.051	53.12
719.373	53.11
719.695	53.31
720.016	53.32
720.338	53.06
720.659	52.91
720.981	52.86
721.302	52.96
721.624	52.95
721.945	53.06
722.267	53.23
722.588	53.44
722.909	53.41
723.231	53.45
723.552	53.5
723.873	53.53
724.194	53.36
724.515	53.61
724.836	53.48
725.157	53.49
725.478	53.42
725.799	53.39
726.12	53.29
726.441	53.1
726.762	52.95
727.083	52.98
727.403	53
727.724	53.21
728.045	52.98
728.365	52.96
728.686	52.89
729.006	53.06
729.327	52.98
729.647	52.65
729.967	52.53
730.288	52.5
730.608	52.55
730.928	52.83
731.249	52.49
731.569	52.37
731.889	52.12
732.209	52.17
732.529	52.17
732.849	52.36
733.169	52.4
733.489	52.45
733.809	52.51
734.129	52.32
734.448	52.21
734.768	52.16
735.088	52.38
735.408	52.56
735.727	52.43
736.047	52.53
736.366	52.75
736.686	52.9
737.005	52.9
737.325	52.94
737.644	52.88
737.963	53.43
738.283	53.66
738.602	53.92
738.921	53.96
739.24	54.08
739.56	54.06
739.879	53.75
740.198	53.72
740.517	53.73
740.836	53.8
741.155	53.65
741.473	53.88
741.792	53.75
742.111	53.68
742.43	53.89
742.748	53.81
743.067	53.82
743.386	53.68
743.704	53.73
744.023	53.75
744.341	53.71
744.66	53.16
744.978	53.08
745.297	52.92
745.615	52.66
745.933	52.68
746.252	52.74
746.57	52.97
746.888	53.2
747.206	53.19
747.524	53.34
747.842	53.46
748.16	53.31
748.478	53.23
748.796	53.23
749.114	52.99
749.432	53.33
749.749	53.27
750.067	53.51
750.385	53.43
750.703	53.41
751.02	53.5
751.338	53.25
751.655	53.12
751.973	53.14
752.29	53.38
752.608	53.29
752.925	53.34
753.242	53.39
753.56	53.75
753.877	53.68
754.194	53.88
754.511	54.13
754.828	54.6
755.145	54.88
755.462	54.75
755.779	55.06
756.096	54.61
756.413	54.86
756.73	54.91
757.047	54.93
757.364	54.95
757.68	54.5
757.997	54.85
758.314	55.2
758.63	55.41
758.947	55.62
759.264	55.59
759.58	55.47
759.896	55.43
760.213	55.39
760.529	55.58
760.846	55.6
761.162	55.42
761.478	55.19
761.794	55.13
762.11	55.15
762.426	55.09
762.743	55.08
763.059	55.31
763.375	55.3
763.69	55.28
764.006	55.28
764.322	55.55
764.638	55.57
764.954	55.62
765.27	55.62
765.585	55.59
765.901	55.82
766.216	56.1
766.532	56.36
766.848	56.09
767.163	55.97
767.478	55.79
767.794	55.91
768.109	55.82
768.424	56.01
768.74	56.29
769.055	55.92
769.37	55.98
769.685	55.78
770	55.63
770.315	55.81
770.63	55.88
770.945	55.76
771.26	55.57
771.575	54.98
771.89	55.24
772.205	54.99
772.52	54.92
772.834	54.42
773.149	54.45
773.464	54.17
773.778	54.41
774.093	54.23
774.407	54.29
774.722	54.26
775.036	54.08
775.351	54.18
775.665	54.55
775.979	54.59
776.293	54.82
776.608	54.81
776.922	54.31
777.236	54.36
777.55	54.53
777.864	54.36
778.178	54.72
778.492	54.31
778.806	54.44
779.12	54.42
779.434	54.66
779.747	54.29
780.061	54.19
780.375	53.65
780.689	54.21
781.002	54.05
781.316	54.32
781.629	54.49
781.943	54.38
782.256	53.99
782.57	54.27
782.883	53.94
783.196	54.21
783.51	54.58
783.823	54.73
784.136	54.57
784.449	54.96
784.762	55.05
785.075	55.25
785.388	55.07
785.701	54.91
786.014	54.74
786.327	55.45
786.64	55.86
786.953	56.65
787.266	56.59
787.578	56.78
787.891	56.58
788.204	56.3
788.516	56.49
788.829	56.54
789.141	56.26
789.454	56.51
789.766	56.43
790.079	56.12
790.391	55.97
790.703	56
791.016	55.89
791.328	55.41
791.64	55.4
791.952	55.49
792.264	55.13
792.576	55.13
792.888	54.52
793.2	54.84
793.512	54.47
793.824	54.46
794.136	54.07
794.448	53.86
794.76	54.25
795.071	53.97
795.383	54.03
795.695	54.19
796.006	54.47
796.318	54.5
796.629	54.97
796.941	54.52
797.252	55.37
797.564	55.79
797.875	55.96
798.186	55.89
798.497	55.22
798.809	55.48
799.12	55.19
799.431	55.27
799.742	54.93
800.053	55.14
800.364	54.59
800.675	54.93
800.986	55.22
801.297	54.93
801.608	54.91
801.918	55.64
802.229	55.78
802.54	54.89
802.851	54.86
803.161	55.25
803.472	55.85
803.782	55.23
804.093	55.18
804.403	55.92
804.714	56.52
805.024	57.52
805.334	57.9
805.645	58.58
805.955	58.87
806.265	59.55
806.575	59.36
806.885	59.39
807.195	58.73
807.505	58.6
807.815	59.22
808.125	58.99
808.435	58.49
808.745	57.85
809.055	58.52
809.365	58.34
809.674	56.89
809.984	56.91
810.294	56.59
810.603	56.26
810.913	55.98
811.222	55.54
811.532	55.85
811.841	55.68
812.151	56.04
812.46	55.93
812.769	55.2
813.079	54.86
813.388	54.75
813.697	55.22
814.006	56.03
814.315	56.21
814.624	56.45
814.933	56.39
815.242	56.39
815.551	56.49
815.86	57.79
816.169	58.5
816.478	58.43
816.786	58.01
817.095	58.2
817.404	57.24
817.712	57.22
818.021	56.99
818.33	56.91
818.638	55.6
818.947	55.07
819.255	55.37
819.563	56.01
819.872	56.48
820.18	56.32
820.488	56.49
820.796	56.39
821.105	56.39
821.413	56.93
821.721	57.02
822.029	56.94
822.337	56.84
822.645	56.98
822.953	56.87
823.26	56.81
823.568	56.7
823.876	56.98
824.184	56.76
824.491	56.91
824.799	56.96
825.107	57.27
825.414	57.35
825.722	57.28
826.029	57.23
826.337	57.13
826.644	57.35
826.951	57.23
827.259	57.13
827.566	57.27
827.873	57.01
828.18	57.05
828.488	56.84
828.795	56.62
829.102	56.72
829.409	56.7
829.716	57.14
830.023	57.24
830.329	57.2
830.636	57.25
830.943	57.04
831.25	57.19
831.557	56.81
831.863	57.28
832.17	57.29
832.476	57.18
832.783	57.47
833.089	57.29
833.396	56.96
833.702	56.86
834.009	56.83
834.315	56.55
834.621	56.92
834.928	57.24
835.234	56.99
835.54	56.63
835.846	56.42
836.152	56.22
836.458	55.86
836.764	55.71
837.07	56.15
837.376	55.76
837.682	55.31
837.988	55.48
838.293	54.96
838.599	55.12
838.905	55.06
839.211	54.78
839.516	53.92
839.822	54.2
840.127	53.83
840.433	53.63
840.738	53.43
841.044	51.74
841.349	50.84
841.654	50.6
841.959	50.44
842.265	50.21
842.57	49.65
842.875	50.82
843.18	49.95
843.485	50.17
843.79	50.46
844.095	50.68
844.4	51.42
844.705	51.46
845.01	50.46
845.315	50.75
845.619	49.75
845.924	50.88
846.229	50.36
846.533	50.32
846.838	49.19
847.142	48.61
847.447	50.74
847.751	52.39
848.056	54.01
848.36	56.36
848.664	58.29
848.969	58.92
849.273	57.12
849.577	57.91
849.881	55.57
850.185	56.12
850.489	56.03
850.794	55.13
851.097	54.6
851.401	57.07
851.705	54.76
852.009	56.62
852.313	55.57
852.617	56.17
852.92	57.76
853.224	57.71
853.528	56.62
853.831	55.93
854.135	55.21
854.438	52.78
854.742	49.78
855.045	48.9
855.349	50.21
855.652	50.45
855.955	50.48
856.259	50.29
856.562	50.47
856.865	52.93
857.168	53.11
857.471	54.54
857.774	54.5
858.077	54.86
858.38	54.96
858.683	57.39
858.986	55.25
859.289	54.35
859.592	54.83
859.894	59.35
860.197	58.23
860.5	58.92
860.802	60.32
861.105	59.76
861.407	60.11
861.71	58.07
862.012	57.45
862.315	57.48
862.617	58.85
862.919	60.01
863.222	58.4
863.524	55.1
863.826	55.46
864.128	55.39
864.43	56.98
864.732	56.88
865.034	55.39
865.336	57.81
865.638	58.17
865.94	59.48
866.242	56.8
866.544	57.76
866.846	58.74
867.147	59.68
867.449	59.59
867.751	60.88
868.052	61.45
868.354	59.65
868.655	61.66
868.957	62.69
869.258	60
869.56	59.93
869.861	61.89
870.162	60.74
870.463	56.96
870.765	57.91
871.066	57.26
871.367	57.22
871.668	57.64
871.969	58.73
872.27	58.57
872.571	58.44
872.872	57.63
873.173	59.38
873.473	57.97
873.774	59.82
874.075	56.63
874.376	56.17
874.676	61.88
874.977	63.09
875.277	61.98
875.578	63.01
875.878	62.82
876.179	65.11
876.479	65.1
876.78	69.52
877.08	68.24
877.38	68.83
877.68	70.16
877.981	69.19
878.281	66.94
878.581	65.73
