Data from MVZ_BU163024_Reflection_00014.txt Node
Date: Tue Nov 19 12:11:49 EST 2019
User: vgr7
Spectrometer: USB2G7710
Scans to average: 3
Trigger mode: 4
Integration Time (sec): 2.000000E-2
Electric dark correction enabled: true
Boxcar width: 10
XAxis mode: Wavelengths
Number of Pixels in Spectrum: 2048
>>>>>Begin Spectral Data<<<<<
177.721	-213.19
178.105	-44.74
178.488	-46.78
178.871	-74.19
179.254	-163.64
179.636	287.5
180.019	78.87
180.402	123.08
180.785	-45.71
181.168	-27.12
181.55	2.49
181.933	46.64
182.316	5.69
182.698	-27.91
183.081	-34.74
183.463	-33.41
183.846	-10.5
184.228	-2.91
184.611	3.4
184.993	-11.76
185.376	4.39
185.758	29.86
186.14	24.56
186.522	42.06
186.904	57.14
187.287	25.87
187.669	56.6
188.051	64.83
188.433	59.95
188.815	74.4
189.197	66.08
189.579	111.96
189.961	64.68
190.342	92.75
190.724	106.02
191.106	169.95
191.488	93.09
191.869	71.38
192.251	69.61
192.633	77.48
193.014	53.78
193.396	6.39
193.777	-17.76
194.159	-24.66
194.54	-38.3
194.922	-62.82
195.303	-84.85
195.684	-710.34
196.065	386.52
196.447	347.97
196.828	366.99
197.209	182.91
197.59	155.13
197.971	137.37
198.352	117.68
198.733	81.27
199.114	98.33
199.495	72.67
199.876	75.64
200.257	153.19
200.638	242.2
201.018	175.22
201.399	107.85
201.78	155.56
202.16	59.57
202.541	50.7
202.922	14.51
203.302	53.78
203.683	-160
204.063	109.09
204.444	296.97
204.824	200
205.204	48.28
205.585	-400
205.965	-51.16
206.345	-114.29
206.725	52.55
207.106	25.66
207.486	36.36
207.866	62.47
208.246	51.76
208.626	45.92
209.006	50.57
209.386	46.21
209.766	40.86
210.145	38.36
210.525	52.43
210.905	49.32
211.285	52.59
211.664	49.72
212.044	44.56
212.424	38.21
212.803	32.15
213.183	26.74
213.562	30.77
213.942	33.77
214.321	29.57
214.701	23.12
215.08	28.77
215.459	29.57
215.838	-0.58
216.218	-4.13
216.597	-4.83
216.976	-15.51
217.355	-16.4
217.734	-22.78
218.113	-4.89
218.492	-21.08
218.871	-24.54
219.25	-34.76
219.629	-35.07
220.008	-40.45
220.387	-31.01
220.766	-26.71
221.144	-25.15
221.523	-32.97
221.902	-13.9
222.28	-7.45
222.659	14.3
223.037	3.99
223.416	4.23
223.794	20.51
224.173	20.27
224.551	19.13
224.929	17.34
225.308	18.04
225.686	14.51
226.064	3.21
226.442	16.86
226.821	20.62
227.199	14.26
227.577	8.09
227.955	9.92
228.333	6.07
228.711	8.18
229.089	14.78
229.467	13.94
229.845	6.37
230.222	8.59
230.6	3.84
230.978	8.55
231.356	5.48
231.733	4.72
232.111	5.73
232.488	6.35
232.866	9.52
233.243	7.49
233.621	12.9
233.998	14.09
234.376	10.78
234.753	10.55
235.13	9.36
235.508	8.07
235.885	8.37
236.262	8.43
236.639	8.34
237.016	6.99
237.393	7.13
237.77	7.51
238.147	4.5
238.524	5.11
238.901	4.61
239.278	4.5
239.655	3.94
240.032	3.79
240.409	3.38
240.785	2.8
241.162	3.96
241.539	3.47
241.915	2.99
242.292	3.56
242.668	3.46
243.045	4.32
243.421	4.61
243.798	4.82
244.174	4.85
244.551	4.55
244.927	4.68
245.303	4.57
245.679	4.69
246.056	5.1
246.432	4.99
246.808	5.06
247.184	5.24
247.56	5.13
247.936	5.07
248.312	5.12
248.688	4.89
249.064	4.75
249.44	4.65
249.815	4.65
250.191	4.49
250.567	4.37
250.943	4.13
251.318	4.04
251.694	3.93
252.069	3.81
252.445	3.88
252.82	4.13
253.196	4.15
253.571	4.21
253.947	3.93
254.322	3.91
254.697	3.96
255.073	3.93
255.448	4.11
255.823	4.12
256.198	4.12
256.573	4.24
256.948	3.97
257.323	3.93
257.698	4.24
258.073	4.42
258.448	4.3
258.823	4.11
259.198	4.34
259.573	4.07
259.948	4.07
260.322	3.87
260.697	3.73
261.072	3.93
261.446	3.8
261.821	3.9
262.195	3.72
262.57	3.68
262.944	3.73
263.319	3.73
263.693	3.68
264.067	3.8
264.442	4.09
264.816	4.27
265.19	4.42
265.564	4.04
265.938	3.99
266.313	4.12
266.687	4.23
267.061	4.17
267.435	4.44
267.809	4.32
268.183	4.15
268.556	4.04
268.93	3.85
269.304	3.72
269.678	3.69
270.051	3.85
270.425	3.81
270.799	3.61
271.172	3.62
271.546	3.83
271.919	3.76
272.293	3.61
272.666	3.68
273.04	3.81
273.413	3.86
273.787	3.7
274.16	3.74
274.533	3.74
274.906	3.79
275.279	3.61
275.653	3.89
276.026	4.1
276.399	4.09
276.772	4.02
277.145	4.32
277.518	4.23
277.891	4.35
278.263	4.5
278.636	4.44
279.009	4.41
279.382	4.14
279.755	4.24
280.127	4.25
280.5	4.19
280.872	4.11
281.245	4.21
281.617	4.28
281.99	4.09
282.362	4.12
282.735	4.07
283.107	4.11
283.479	4.07
283.852	4.06
284.224	4.1
284.596	4.14
284.968	3.94
285.34	4.11
285.713	4.04
286.085	3.99
286.457	4.02
286.829	3.96
287.201	4.03
287.572	3.9
287.944	3.91
288.316	3.85
288.688	3.93
289.06	3.9
289.431	4.1
289.803	4.31
290.175	4.29
290.546	4.12
290.918	4.03
291.289	3.83
291.661	3.84
292.032	3.91
292.403	3.93
292.775	4.07
293.146	3.91
293.517	3.84
293.889	3.84
294.26	3.99
294.631	4.21
295.002	4.17
295.373	4.18
295.744	4.23
296.115	4.32
296.486	4.22
296.857	4.22
297.228	3.92
297.599	3.86
297.97	3.97
298.34	4.14
298.711	4.33
299.082	4.58
299.452	4.5
299.823	4.37
300.194	4.41
300.564	4.24
300.935	4.35
301.305	4.31
301.676	4.2
302.046	4.19
302.416	4.1
302.787	4.27
303.157	4.38
303.527	4.39
303.897	4.32
304.267	4.32
304.637	4.48
305.008	4.56
305.378	4.59
305.748	4.68
306.117	4.63
306.487	4.74
306.857	4.8
307.227	5.01
307.597	5.23
307.967	5.22
308.336	5.54
308.706	5.62
309.076	5.79
309.445	6.06
309.815	6.16
310.184	6.16
310.554	6.1
310.923	6.07
311.293	6.17
311.662	6.33
312.031	6.43
312.401	6.41
312.77	6.58
313.139	6.59
313.508	6.61
313.877	6.7
314.246	6.7
314.616	6.67
314.985	6.81
315.353	6.77
315.722	6.97
316.091	6.84
316.46	6.83
316.829	6.77
317.198	6.68
317.567	6.69
317.935	6.73
318.304	7
318.672	7.1
319.041	7.07
319.41	7.03
319.778	7.13
320.147	7.26
320.515	7.33
320.883	7.5
321.252	7.61
321.62	7.71
321.988	7.79
322.357	7.85
322.725	7.82
323.093	7.89
323.461	7.9
323.829	7.91
324.197	7.93
324.565	8.12
324.933	8.13
325.301	7.96
325.669	7.98
326.037	7.95
326.405	7.95
326.772	7.99
327.14	7.98
327.508	8.08
327.875	8
328.243	7.98
328.61	7.94
328.978	7.7
329.346	7.69
329.713	7.66
330.08	7.74
330.448	7.81
330.815	7.89
331.182	7.7
331.55	7.79
331.917	7.87
332.284	7.91
332.651	8.06
333.018	8.24
333.385	8.27
333.752	8.12
334.119	8.34
334.486	8.27
334.853	8.37
335.22	8.13
335.587	8.27
335.954	8.2
336.32	8.26
336.687	8.38
337.054	8.37
337.42	8.21
337.787	8.19
338.153	8.18
338.52	8.12
338.886	8.37
339.253	8.24
339.619	8.28
339.986	8.13
340.352	8.07
340.718	8.14
341.084	8.17
341.451	8.24
341.817	8.12
342.183	8.07
342.549	8.04
342.915	8.26
343.281	8.26
343.647	8.32
344.013	8.41
344.379	8.41
344.745	8.43
345.11	8.57
345.476	8.56
345.842	8.67
346.208	8.71
346.573	8.8
346.939	8.99
347.304	8.95
347.67	8.98
348.035	8.94
348.401	8.9
348.766	8.85
349.132	8.9
349.497	8.9
349.862	8.88
350.228	8.86
350.593	8.69
350.958	8.83
351.323	8.75
351.688	8.79
352.053	8.82
352.418	8.81
352.783	8.9
353.148	8.83
353.513	8.73
353.878	8.77
354.243	8.55
354.608	8.54
354.972	8.49
355.337	8.58
355.702	8.64
356.066	8.65
356.431	8.67
356.795	8.69
357.16	8.75
357.524	8.8
357.889	8.81
358.253	8.88
358.618	8.8
358.982	8.88
359.346	8.83
359.71	8.78
360.075	8.79
360.439	8.73
360.803	8.75
361.167	8.8
361.531	8.79
361.895	8.79
362.259	8.73
362.623	8.74
362.987	8.71
363.351	8.66
363.714	8.63
364.078	8.53
364.442	8.44
364.806	8.38
365.169	8.34
365.533	8.35
365.896	8.35
366.26	8.19
366.623	8.08
366.987	7.94
367.35	7.9
367.714	7.92
368.077	7.93
368.44	7.9
368.803	7.82
369.167	7.69
369.53	7.71
369.893	7.75
370.256	7.75
370.619	7.68
370.982	7.59
371.345	7.59
371.708	7.54
372.071	7.49
372.434	7.39
372.797	7.4
373.159	7.35
373.522	7.2
373.885	7.19
374.247	7.18
374.61	7.22
374.973	7.23
375.335	7.18
375.698	7.07
376.06	7.01
376.423	6.9
376.785	6.86
377.147	6.81
377.51	6.7
377.872	6.58
378.234	6.54
378.596	6.53
378.958	6.46
379.321	6.51
379.683	6.47
380.045	6.47
380.407	6.41
380.769	6.3
381.13	6.32
381.492	6.29
381.854	6.27
382.216	6.22
382.578	6.13
382.939	6.07
383.301	6.01
383.663	5.95
384.024	5.95
384.386	5.92
384.747	5.84
385.109	5.83
385.47	5.84
385.832	5.8
386.193	5.79
386.554	5.76
386.916	5.76
387.277	5.74
387.638	5.74
387.999	5.68
388.36	5.67
388.721	5.57
389.082	5.59
389.443	5.58
389.804	5.55
390.165	5.56
390.526	5.53
390.887	5.51
391.248	5.5
391.609	5.5
391.969	5.47
392.33	5.44
392.691	5.41
393.051	5.37
393.412	5.37
393.772	5.32
394.133	5.25
394.493	5.2
394.854	5.21
395.214	5.15
395.574	5.16
395.935	5.12
396.295	5.12
396.655	5.05
397.015	4.98
397.376	4.96
397.736	4.89
398.096	4.85
398.456	4.85
398.816	4.83
399.176	4.71
399.535	4.65
399.895	4.64
400.255	4.58
400.615	4.53
400.975	4.49
401.334	4.47
401.694	4.47
402.054	4.4
402.413	4.33
402.773	4.31
403.132	4.27
403.492	4.25
403.851	4.24
404.211	4.27
404.57	4.29
404.929	4.24
405.288	4.23
405.648	4.19
406.007	4.16
406.366	4.13
406.725	4.18
407.084	4.2
407.443	4.21
407.802	4.22
408.161	4.24
408.52	4.23
408.879	4.22
409.238	4.21
409.596	4.22
409.955	4.2
410.314	4.2
410.673	4.2
411.031	4.19
411.39	4.19
411.748	4.1
412.107	4.08
412.465	4.05
412.824	4.03
413.182	4
413.54	3.95
413.899	3.96
414.257	3.91
414.615	3.85
414.974	3.84
415.332	3.8
415.69	3.8
416.048	3.79
416.406	3.78
416.764	3.77
417.122	3.76
417.48	3.78
417.838	3.76
418.195	3.72
418.553	3.73
418.911	3.71
419.269	3.73
419.626	3.69
419.984	3.69
420.342	3.69
420.699	3.67
421.057	3.69
421.414	3.66
421.772	3.66
422.129	3.66
422.486	3.64
422.844	3.63
423.201	3.62
423.558	3.59
423.915	3.59
424.273	3.58
424.63	3.55
424.987	3.54
425.344	3.53
425.701	3.53
426.058	3.5
426.415	3.46
426.772	3.44
427.128	3.46
427.485	3.47
427.842	3.44
428.199	3.43
428.555	3.43
428.912	3.43
429.269	3.4
429.625	3.39
429.982	3.4
430.338	3.4
430.695	3.36
431.051	3.39
431.407	3.38
431.764	3.36
432.12	3.39
432.476	3.38
432.832	3.38
433.189	3.39
433.545	3.4
433.901	3.41
434.257	3.42
434.613	3.42
434.969	3.39
435.325	3.4
435.681	3.41
436.036	3.43
436.392	3.44
436.748	3.46
437.104	3.47
437.459	3.46
437.815	3.48
438.171	3.48
438.526	3.47
438.882	3.46
439.237	3.48
439.593	3.49
439.948	3.48
440.304	3.49
440.659	3.5
441.014	3.5
441.369	3.51
441.725	3.51
442.08	3.5
442.435	3.5
442.79	3.5
443.145	3.49
443.5	3.45
443.855	3.43
444.21	3.43
444.565	3.42
444.92	3.42
445.275	3.41
445.629	3.43
445.984	3.42
446.339	3.42
446.693	3.41
447.048	3.36
447.403	3.36
447.757	3.35
448.112	3.34
448.466	3.32
448.82	3.32
449.175	3.3
449.529	3.3
449.883	3.3
450.238	3.29
450.592	3.31
450.946	3.32
451.3	3.31
451.654	3.31
452.008	3.3
452.362	3.3
452.716	3.28
453.07	3.25
453.424	3.26
453.778	3.24
454.132	3.22
454.486	3.24
454.839	3.25
455.193	3.25
455.547	3.24
455.9	3.25
456.254	3.24
456.607	3.25
456.961	3.23
457.314	3.22
457.668	3.21
458.021	3.21
458.375	3.19
458.728	3.18
459.081	3.18
459.434	3.17
459.787	3.17
460.141	3.18
460.494	3.19
460.847	3.18
461.2	3.2
461.553	3.2
461.906	3.21
462.259	3.19
462.611	3.18
462.964	3.19
463.317	3.19
463.67	3.21
464.022	3.23
464.375	3.26
464.728	3.29
465.08	3.31
465.433	3.32
465.785	3.35
466.138	3.37
466.49	3.37
466.843	3.42
467.195	3.43
467.547	3.44
467.899	3.44
468.252	3.47
468.604	3.46
468.956	3.47
469.308	3.47
469.66	3.5
470.012	3.49
470.364	3.51
470.716	3.51
471.068	3.52
471.42	3.53
471.772	3.53
472.123	3.53
472.475	3.55
472.827	3.53
473.178	3.54
473.53	3.57
473.882	3.59
474.233	3.58
474.585	3.58
474.936	3.58
475.288	3.58
475.639	3.6
475.99	3.62
476.342	3.61
476.693	3.63
477.044	3.62
477.395	3.63
477.746	3.62
478.097	3.61
478.448	3.6
478.8	3.57
479.15	3.56
479.501	3.54
479.852	3.52
480.203	3.51
480.554	3.51
480.905	3.48
481.255	3.48
481.606	3.47
481.957	3.48
482.307	3.48
482.658	3.48
483.009	3.46
483.359	3.45
483.709	3.47
484.06	3.46
484.41	3.46
484.761	3.47
485.111	3.47
485.461	3.47
485.811	3.46
486.162	3.47
486.512	3.46
486.862	3.46
487.212	3.47
487.562	3.47
487.912	3.47
488.262	3.47
488.612	3.47
488.961	3.47
489.311	3.47
489.661	3.47
490.011	3.47
490.36	3.48
490.71	3.48
491.06	3.47
491.409	3.46
491.759	3.46
492.108	3.47
492.458	3.48
492.807	3.5
493.157	3.52
493.506	3.54
493.855	3.56
494.204	3.57
494.554	3.58
494.903	3.6
495.252	3.6
495.601	3.64
495.95	3.65
496.299	3.66
496.648	3.67
496.997	3.69
497.346	3.72
497.695	3.75
498.043	3.81
498.392	3.84
498.741	3.9
499.09	3.94
499.438	3.97
499.787	3.99
500.135	4.02
500.484	4.06
500.832	4.09
501.181	4.16
501.529	4.23
501.878	4.31
502.226	4.37
502.574	4.44
502.923	4.51
503.271	4.59
503.619	4.71
503.967	4.77
504.315	4.85
504.663	4.93
505.011	4.99
505.359	5.03
505.707	5.11
506.055	5.19
506.403	5.27
506.751	5.35
507.098	5.47
507.446	5.56
507.794	5.65
508.141	5.74
508.489	5.84
508.837	5.93
509.184	6.03
509.531	6.13
509.879	6.25
510.226	6.36
510.574	6.48
510.921	6.58
511.268	6.72
511.616	6.85
511.963	6.97
512.31	7.09
512.657	7.24
513.004	7.4
513.351	7.56
513.698	7.72
514.045	7.89
514.392	8.03
514.739	8.18
515.086	8.35
515.432	8.51
515.779	8.64
516.126	8.81
516.473	8.94
516.819	9.09
517.166	9.25
517.512	9.39
517.859	9.5
518.205	9.6
518.552	9.72
518.898	9.84
519.245	10
519.591	10.15
519.937	10.28
520.283	10.42
520.629	10.55
520.976	10.72
521.322	10.89
521.668	11.06
522.014	11.23
522.36	11.39
522.706	11.57
523.052	11.81
523.398	12.03
523.743	12.27
524.089	12.51
524.435	12.71
524.781	12.92
525.126	13.13
525.472	13.36
525.817	13.56
526.163	13.72
526.509	13.87
526.854	14
527.199	14.15
527.545	14.29
527.89	14.45
528.235	14.6
528.581	14.75
528.926	14.9
529.271	15.05
529.616	15.22
529.961	15.4
530.306	15.56
530.651	15.74
530.996	15.91
531.341	16.09
531.686	16.3
532.031	16.51
532.376	16.71
532.721	16.92
533.065	17.12
533.41	17.35
533.755	17.55
534.099	17.82
534.444	18.08
534.788	18.3
535.133	18.54
535.477	18.76
535.822	18.99
536.166	19.28
536.51	19.59
536.855	19.87
537.199	20.18
537.543	20.48
537.887	20.78
538.231	21.13
538.576	21.46
538.92	21.77
539.264	22.07
539.608	22.37
539.951	22.62
540.295	22.91
540.639	23.17
540.983	23.46
541.327	23.72
541.671	23.97
542.014	24.23
542.358	24.45
542.701	24.71
543.045	24.98
543.389	25.23
543.732	25.46
544.075	25.72
544.419	25.98
544.762	26.27
545.105	26.54
545.449	26.83
545.792	27.12
546.135	27.42
546.478	27.73
546.821	28.07
547.165	28.44
547.508	28.8
547.851	29.13
548.194	29.48
548.536	29.82
548.879	30.16
549.222	30.54
549.565	30.93
549.908	31.3
550.25	31.64
550.593	31.97
550.936	32.37
551.278	32.75
551.621	33.09
551.963	33.42
552.306	33.82
552.648	34.14
552.991	34.45
553.333	34.79
553.675	35.12
554.017	35.42
554.36	35.77
554.702	35.97
555.044	36.31
555.386	36.55
555.728	36.84
556.07	37.14
556.412	37.44
556.754	37.73
557.096	38.03
557.438	38.37
557.78	38.64
558.121	38.87
558.463	39.2
558.805	39.59
559.147	39.94
559.488	40.17
559.83	40.47
560.171	40.78
560.513	41.04
560.854	41.33
561.196	41.66
561.537	41.84
561.878	42.21
562.22	42.49
562.561	42.78
562.902	43.04
563.243	43.36
563.584	43.54
563.925	43.83
564.266	44.1
564.607	44.25
564.948	44.52
565.289	44.81
565.63	44.96
565.971	45.09
566.312	45.28
566.653	45.48
566.993	45.65
567.334	45.86
567.675	46.08
568.015	46.33
568.356	46.5
568.696	46.78
569.037	46.9
569.377	47.03
569.718	47.25
570.058	47.4
570.398	47.52
570.739	47.75
571.079	47.91
571.419	48.01
571.759	48.25
572.099	48.4
572.439	48.55
572.779	48.77
573.119	48.96
573.459	49.1
573.799	49.25
574.139	49.42
574.479	49.6
574.819	49.75
575.158	49.86
575.498	50.02
575.838	50.12
576.177	50.33
576.517	50.54
576.856	50.72
577.196	50.9
577.535	51.05
577.875	51.21
578.214	51.39
578.553	51.57
578.893	51.73
579.232	51.9
579.571	52.13
579.91	52.23
580.25	52.35
580.589	52.52
580.928	52.68
581.267	52.84
581.606	52.9
581.945	53.02
582.283	53.17
582.622	53.3
582.961	53.42
583.3	53.47
583.639	53.56
583.977	53.58
584.316	53.74
584.654	53.82
584.993	53.95
585.332	54.01
585.67	54.12
586.008	54.27
586.347	54.38
586.685	54.37
587.024	54.51
587.362	54.7
587.7	54.82
588.038	54.92
588.376	54.99
588.715	55.13
589.053	55.15
589.391	55.23
589.729	55.37
590.067	55.53
590.404	55.75
590.742	55.92
591.08	56.03
591.418	56.09
591.756	56.21
592.093	56.24
592.431	56.36
592.769	56.48
593.106	56.52
593.444	56.64
593.781	56.72
594.119	56.75
594.456	56.76
594.793	56.82
595.131	56.93
595.468	56.98
595.805	57.05
596.143	57.17
596.48	57.2
596.817	57.18
597.154	57.21
597.491	57.18
597.828	57.21
598.165	57.28
598.502	57.4
598.839	57.45
599.176	57.5
599.512	57.47
599.849	57.54
600.186	57.61
600.523	57.6
600.859	57.77
601.196	57.86
601.532	57.91
601.869	57.98
602.205	58.08
602.542	58.2
602.878	58.33
603.215	58.46
603.551	58.46
603.887	58.53
604.223	58.53
604.56	58.57
604.896	58.58
605.232	58.7
605.568	58.71
605.904	58.75
606.24	58.94
606.576	59.1
606.912	59.14
607.248	59.24
607.583	59.31
607.919	59.35
608.255	59.44
608.591	59.57
608.926	59.61
609.262	59.59
609.597	59.62
609.933	59.66
610.268	59.69
610.604	59.8
610.939	59.89
611.275	59.99
611.61	60.06
611.945	60.21
612.281	60.28
612.616	60.32
612.951	60.46
613.286	60.36
613.621	60.29
613.956	60.32
614.291	60.28
614.626	60.39
614.961	60.31
615.296	60.32
615.631	60.24
615.966	60.31
616.3	60.39
616.635	60.38
616.97	60.37
617.304	60.39
617.639	60.38
617.973	60.39
618.308	60.49
618.642	60.62
618.977	60.58
619.311	60.53
619.646	60.48
619.98	60.38
620.314	60.43
620.648	60.53
620.983	60.57
621.317	60.55
621.651	60.52
621.985	60.56
622.319	60.62
622.653	60.61
622.987	60.68
623.321	60.79
623.655	60.86
623.988	60.87
624.322	60.88
624.656	60.98
624.99	61.05
625.323	61.07
625.657	61.16
625.99	61.21
626.324	61.26
626.657	61.3
626.991	61.39
627.324	61.33
627.658	61.23
627.991	61.27
628.324	61.34
628.657	61.42
628.991	61.47
629.324	61.44
629.657	61.59
629.99	61.63
630.323	61.61
630.656	61.68
630.989	61.69
631.322	61.73
631.655	61.9
631.987	61.95
632.32	61.98
632.653	61.87
632.986	61.88
633.318	61.84
633.651	61.92
633.984	61.96
634.316	62.03
634.649	62.27
634.981	62.23
635.313	62.28
635.646	62.23
635.978	62.33
636.31	62.4
636.643	62.35
636.975	62.32
637.307	62.3
637.639	62.3
637.971	62.37
638.303	62.38
638.635	62.3
638.967	62.33
639.299	62.31
639.631	62.41
639.963	62.44
640.295	62.46
640.626	62.52
640.958	62.58
641.29	62.75
641.621	62.57
641.953	62.7
642.285	62.75
642.616	62.93
642.948	62.95
643.279	62.86
643.61	62.8
643.942	62.83
644.273	62.89
644.604	63.07
644.936	63.07
645.267	63.03
645.598	62.95
645.929	62.91
646.26	62.92
646.591	62.89
646.922	62.9
647.253	62.9
647.584	62.89
647.915	62.9
648.245	62.85
648.576	62.92
648.907	62.88
649.238	62.98
649.568	62.95
649.899	62.9
650.229	62.97
650.56	63.18
650.89	63.09
651.221	63.09
651.551	62.99
651.882	62.84
652.212	62.83
652.542	62.95
652.872	62.93
653.203	62.99
653.533	62.9
653.863	62.94
654.193	62.98
654.523	63.03
654.853	63.08
655.183	63.22
655.513	63.28
655.843	63.3
656.172	63.28
656.502	63.27
656.832	63.35
657.162	63.47
657.491	63.45
657.821	63.63
658.15	63.64
658.48	63.64
658.809	63.79
659.139	63.85
659.468	63.75
659.798	63.81
660.127	63.79
660.456	63.91
660.785	63.88
661.115	63.84
661.444	63.83
661.773	63.76
662.102	63.55
662.431	63.69
662.76	63.76
663.089	63.75
663.418	63.77
663.747	63.84
664.076	63.73
664.404	63.73
664.733	63.71
665.062	63.72
665.39	63.75
665.719	63.82
666.048	63.92
666.376	64.02
666.705	63.99
667.033	63.96
667.362	63.93
667.69	64
668.018	64.18
668.347	64.08
668.675	64.13
669.003	64.28
669.331	64.23
669.659	64.24
669.987	64.21
670.315	64
670.643	63.87
670.971	63.99
671.299	63.98
671.627	63.93
671.955	63.94
672.283	63.91
672.61	63.86
672.938	63.86
673.266	63.81
673.593	63.75
673.921	63.78
674.249	63.97
674.576	63.9
674.904	63.87
675.231	63.99
675.558	64.08
675.886	64.13
676.213	64.01
676.54	63.96
676.867	63.95
677.195	64.26
677.522	64.22
677.849	64.3
678.176	64.22
678.503	64.24
678.83	64.26
679.157	64.15
679.484	64.05
679.81	64.05
680.137	64.17
680.464	64.27
680.791	64.35
681.117	64.2
681.444	64.26
681.771	64.22
682.097	64.38
682.424	64.4
682.75	64.43
683.077	64.56
683.403	64.56
683.729	64.54
684.056	64.35
684.382	64.51
684.708	64.42
685.034	64.48
685.36	64.55
685.686	64.72
686.012	64.83
686.339	64.91
686.664	64.91
686.99	64.76
687.316	64.65
687.642	64.61
687.968	64.51
688.294	64.47
688.619	64.53
688.945	64.46
689.271	64.45
689.596	64.32
689.922	64.25
690.247	64.17
690.573	64.31
690.898	64.46
691.224	64.18
691.549	64.28
691.874	64.14
692.2	63.96
692.525	63.86
692.85	63.94
693.175	63.96
693.5	63.95
693.825	64.11
694.15	64.35
694.475	64.38
694.8	64.63
695.125	64.7
695.45	64.81
695.775	64.69
696.099	64.67
696.424	64.76
696.749	64.79
697.073	64.93
697.398	65.07
697.723	65.14
698.047	65.25
698.372	65.23
698.696	65.49
699.02	65.6
699.345	65.55
699.669	65.54
699.993	65.45
700.318	65.41
700.642	65.33
700.966	65.27
701.29	65.3
701.614	65.14
701.938	65.38
702.262	65.16
702.586	65.16
702.91	65.21
703.234	65.1
703.557	65.26
703.881	65.22
704.205	65.14
704.529	64.98
704.852	65.12
705.176	65.11
705.499	65.08
705.823	65.18
706.146	65.11
706.47	65.09
706.793	65.55
707.117	65.63
707.44	65.65
707.763	65.54
708.086	65.61
708.409	66.01
708.733	66.04
709.056	66.35
709.379	66.58
709.702	66.55
710.025	66.48
710.348	66.46
710.671	66.52
710.993	66.23
711.316	66.28
711.639	66.17
711.962	66.23
712.284	66.04
712.607	66.02
712.93	66.11
713.252	66.15
713.575	65.93
713.897	66.04
714.22	66.2
714.542	66.08
714.864	65.94
715.187	65.73
715.509	65.28
715.831	65.2
716.153	64.84
716.475	64.71
716.798	65.1
717.12	64.9
717.442	64.82
717.764	64.99
718.085	64.96
718.407	65.1
718.729	65.13
719.051	65.16
719.373	65.07
719.695	65.08
720.016	65.22
720.338	65.48
720.659	65.3
720.981	65.29
721.302	65.58
721.624	65.66
721.945	65.72
722.267	66.26
722.588	66.4
722.909	66.41
723.231	66.61
723.552	66.48
723.873	66.59
724.194	66.62
724.515	66.76
724.836	66.81
725.157	66.84
725.478	66.66
725.799	66.9
726.12	66.8
726.441	66.83
726.762	66.44
727.083	66.31
727.403	66.53
727.724	66.42
728.045	66.51
728.365	66.56
728.686	66.6
729.006	66.33
729.327	66.39
729.647	66.44
729.967	66.34
730.288	66.3
730.608	66.24
730.928	66.36
731.249	65.96
731.569	66.17
731.889	66.3
732.209	66.31
732.529	66.2
732.849	66.39
733.169	66.31
733.489	66.57
733.809	66.42
734.129	66.38
734.448	66.3
734.768	66.41
735.088	66.54
735.408	66.24
735.727	66.43
736.047	66.2
736.366	66.48
736.686	66.64
737.005	66.89
737.325	66.78
737.644	66.59
737.963	66.87
738.283	66.7
738.602	66.48
738.921	66.63
739.24	66.85
739.56	66.74
739.879	66.99
740.198	66.94
740.517	66.99
740.836	67.35
741.155	67.57
741.473	67.15
741.792	67.1
742.111	67.25
742.43	67.14
742.748	67.17
743.067	67.12
743.386	67.13
743.704	66.83
744.023	67.03
744.341	67.32
744.66	67.44
744.978	67.75
745.297	67.95
745.615	68.01
745.933	67.86
746.252	67.92
746.57	67.39
746.888	67.2
747.206	67.24
747.524	67.22
747.842	66.69
748.16	66.77
748.478	66.61
748.796	66.77
749.114	67.29
749.432	67.48
749.749	67.58
750.067	67.59
750.385	68.01
750.703	68.1
751.02	67.87
751.338	68.28
751.655	67.98
751.973	67.93
752.29	67.97
752.608	67.68
752.925	67.35
753.242	67.96
753.56	68.14
753.877	67.82
754.194	67.29
754.511	67.71
754.828	67.7
755.145	67.51
755.462	67.31
755.779	66.73
756.096	66.79
756.413	66.55
756.73	66.64
757.047	66.2
757.364	66.28
757.68	66.48
757.997	65.91
758.314	66.02
758.63	66.26
758.947	66.05
759.264	66.48
759.58	66.6
759.896	66.62
760.213	66.61
760.529	66.99
760.846	67.12
761.162	67.2
761.478	67.38
761.794	67.46
762.11	67.85
762.426	67.91
762.743	67.68
763.059	68.37
763.375	68.54
763.69	68.49
764.006	68.21
764.322	67.88
764.638	68.15
764.954	68.29
765.27	68.16
765.585	68.21
765.901	67.97
766.216	68.06
766.532	68.23
766.848	68.12
767.163	68.19
767.478	68.04
767.794	68.14
768.109	67.83
768.424	68.1
768.74	68.02
769.055	67.98
769.37	68.12
769.685	67.53
770	67.12
770.315	67.21
770.63	67.59
770.945	67.79
771.26	67.21
771.575	67.15
771.89	67.3
772.205	67.51
772.52	67.64
772.834	67.84
773.149	67.64
773.464	68.01
773.778	67.88
774.093	68.52
774.407	68.35
774.722	69.11
775.036	69.08
775.351	68.84
775.665	69.36
775.979	69.17
776.293	69.01
776.608	69.14
776.922	69.34
777.236	69.09
777.55	69.06
777.864	69.89
778.178	69.56
778.492	69.27
778.806	69.16
779.12	68.9
779.434	68.94
779.747	68.6
780.061	68.33
780.375	68.45
780.689	68.25
781.002	68.5
781.316	68.3
781.629	67.98
781.943	68.13
782.256	67.05
782.57	67.29
782.883	67.61
783.196	67.14
783.51	67.1
783.823	67.06
784.136	67.2
784.449	66.77
784.762	66.84
785.075	66.25
785.388	66.5
785.701	66.9
786.014	66.67
786.327	67
786.64	67.27
786.953	67.05
787.266	66.4
787.578	66.06
787.891	65.99
788.204	66.13
788.516	65.77
788.829	65.98
789.141	66.23
789.454	65.81
789.766	66.29
790.079	66.18
790.391	66.79
790.703	67.03
791.016	66.74
791.328	66.67
791.64	67.77
791.952	67.29
792.264	66.74
792.576	66.89
792.888	66.9
793.2	67.03
793.512	66.97
793.824	67.27
794.136	68.05
794.448	67.95
794.76	68.32
795.071	68.49
795.383	69.09
795.695	69.18
796.006	68.8
796.318	69.18
796.629	69.58
796.941	69.18
797.252	69.26
797.564	69.94
797.875	69.94
798.186	69.44
798.497	69.76
798.809	70.46
799.12	70.13
799.431	69.68
799.742	69.71
800.053	69.42
800.364	70.21
800.675	69.93
800.986	70.02
801.297	69.81
801.608	69.83
801.918	69.63
802.229	69.62
802.54	70.39
802.851	69.92
803.161	69.4
803.472	69.5
803.782	69.54
804.093	69.87
804.403	70.39
804.714	70.49
805.024	69.94
805.334	69.54
805.645	69.75
805.955	70.3
806.265	69.86
806.575	69.8
806.885	69.75
807.195	69.48
807.505	69.67
807.815	69.61
808.125	70.07
808.435	69.85
808.745	69.74
809.055	69.1
809.365	69.38
809.674	70.11
809.984	70.77
810.294	70.7
810.603	70.19
810.913	69.48
811.222	68.71
811.532	68.83
811.841	68.97
812.151	69.04
812.46	68.63
812.769	69.2
813.079	70.19
813.388	69.01
813.697	69.22
814.006	69.39
814.315	69.48
814.624	68.08
814.933	67.59
815.242	67.77
815.551	68.34
815.86	67.48
816.169	66.83
816.478	65.62
816.786	66.01
817.095	66.22
817.404	66.9
817.712	67.52
818.021	66.97
818.33	67.72
818.638	68.03
818.947	67.65
819.255	67.51
819.563	67.58
819.872	67.78
820.18	68.21
820.488	67.86
820.796	68.1
821.105	68.87
821.413	69.02
821.721	69.17
822.029	69.18
822.337	69.18
822.645	69.34
822.953	69.7
823.26	69.56
823.568	69.64
823.876	69.46
824.184	69.45
824.491	69.76
824.799	69.5
825.107	69.23
825.414	69.48
825.722	69.63
826.029	69.63
826.337	69.85
826.644	69.81
826.951	70.28
827.259	70.27
827.566	69.84
827.873	69.64
828.18	69.23
828.488	69.21
828.795	69.37
829.102	69.24
829.409	68.88
829.716	68.88
830.023	68.81
830.329	68.96
830.636	68.92
830.943	68.45
831.25	68.72
831.557	69.48
831.863	69.58
832.17	69.34
832.476	69.27
832.783	69.4
833.089	68.37
833.396	67.74
833.702	67.97
834.009	68.51
834.315	68.94
834.621	69.5
834.928	69.52
835.234	69.3
835.54	68.99
835.846	68.9
836.152	69.29
836.458	69.05
836.764	68.75
837.07	69.25
837.376	69.61
837.682	69.21
837.988	68.43
838.293	68.36
838.599	68
838.905	67.73
839.211	67.08
839.516	68.2
839.822	68.74
840.127	67.68
840.433	67.05
840.738	67.28
841.044	67.14
841.349	67.45
841.654	66.55
841.959	67.53
842.265	68.06
842.57	68.25
842.875	68.78
843.18	68.63
843.485	67.18
843.79	67.65
844.095	67.76
844.4	68.96
844.705	68.39
845.01	70.37
845.315	71.12
845.619	72.1
845.924	73.33
846.229	72.97
846.533	73.38
846.838	74.02
847.142	73.42
847.447	73.71
847.751	73.89
848.056	76.57
848.36	76.31
848.664	77.5
848.969	75.48
849.273	73.42
849.577	74.54
849.881	75.24
850.185	74.53
850.489	75.29
850.794	72.73
851.097	73.53
851.401	70.35
851.705	71.62
852.009	69.26
852.313	67.7
852.617	67.08
852.92	68.18
853.224	69.38
853.528	71.16
853.831	70.12
854.135	67.97
854.438	68.73
854.742	68.67
855.045	66.63
855.349	67.96
855.652	70.73
855.955	69.22
856.259	69.31
856.562	70.49
856.865	70.17
857.168	70.14
857.471	70.64
857.774	76.15
858.077	74.43
858.38	78.62
858.683	79.32
858.986	79.17
859.289	78.32
859.592	77.22
859.894	76.68
860.197	76.35
860.5	80.52
860.802	80.17
861.105	80.71
861.407	82.43
861.71	82.27
862.012	81.6
862.315	84.11
862.617	85.89
862.919	86.8
863.222	86.89
863.524	90.06
863.826	89.61
864.128	89.42
864.43	90.05
864.732	85.37
865.034	83.76
865.336	83.5
865.638	87.19
865.94	90.4
866.242	88.16
866.544	89.92
866.846	87.96
867.147	88.24
867.449	91.1
867.751	89.41
868.052	87.66
868.354	86.45
868.655	85.76
868.957	85.11
869.258	84.29
869.56	85.82
869.861	86.22
870.162	84.66
870.463	81.73
870.765	80.09
871.066	81.91
871.367	80.47
871.668	79.96
871.969	74.73
872.27	72.51
872.571	73.74
872.872	72.19
873.173	72.23
873.473	70.44
873.774	68.16
874.075	70.59
874.376	72.03
874.676	72.27
874.977	73.04
875.277	75.29
875.578	75.51
875.878	74.19
876.179	74.51
876.479	74.84
876.78	74.99
877.08	76.7
877.38	76.65
877.68	80.66
877.981	84.12
878.281	90.32
878.581	89.86
