Data from MVZ_BU8942_Reflection_00008.txt Node
Date: Tue Nov 19 12:04:03 EST 2019
User: vgr7
Spectrometer: USB2G7710
Scans to average: 3
Trigger mode: 4
Integration Time (sec): 2.000000E-2
Electric dark correction enabled: true
Boxcar width: 10
XAxis mode: Wavelengths
Number of Pixels in Spectrum: 2048
>>>>>Begin Spectral Data<<<<<
177.721	302.98
178.105	392.21
178.488	571.91
178.871	-757.14
179.254	160
179.636	-20.44
180.019	159.41
180.402	50
180.785	130
181.168	-248.84
181.55	957.14
181.933	-128.81
182.316	-140.33
182.698	-69.01
183.081	13.67
183.463	112.4
183.846	53.77
184.228	160.54
184.611	187.14
184.993	289.47
185.376	167.47
185.758	236.36
186.14	182.98
186.522	277.97
186.904	212.5
187.287	72.35
187.669	100
188.051	51.42
188.433	78.34
188.815	27.24
189.197	59.66
189.579	75.24
189.961	117.37
190.342	116.35
190.724	68.02
191.106	17.46
191.488	29.81
191.869	38.61
192.251	8.64
192.633	25.1
193.014	17.32
193.396	8.89
193.777	1.78
194.159	8.91
194.54	18.95
194.922	16.75
195.303	28.87
195.684	19.67
196.065	14.14
196.447	17.07
196.828	19.95
197.209	12.89
197.59	23.66
197.971	9.04
198.352	-3.32
198.733	-11.52
199.114	0.24
199.495	-44.79
199.876	-54.98
200.257	-13.49
200.638	-18.67
201.018	-3.05
201.399	35.28
201.78	47.31
202.16	47.96
202.541	-26.46
202.922	-67.87
203.302	-36.7
203.683	-16.25
204.063	-12.99
204.444	-41.44
204.824	-50
205.204	-19.73
205.585	-28.49
205.965	-28.42
206.345	25.21
206.725	-4.98
207.106	7.91
207.486	13.77
207.866	7.46
208.246	10.52
208.626	-36.67
209.006	-60.61
209.386	-60.06
209.766	-148.78
210.145	-74.14
210.525	-41.89
210.905	7.02
211.285	7.02
211.664	25
212.044	38.45
212.424	40.17
212.803	44.97
213.183	54.43
213.562	65.16
213.942	64.75
214.321	61.43
214.701	121.83
215.08	153.13
215.459	118.83
215.838	100
216.218	82.33
216.597	104.5
216.976	114.98
217.355	90.12
217.734	70.09
218.113	100
218.492	102.45
218.871	81.25
219.25	78.42
219.629	29.05
220.008	27
220.387	22.35
220.766	27.5
221.144	8.75
221.523	-4.46
221.902	-12.94
222.28	-5.88
222.659	3.62
223.037	-3.52
223.416	-3.07
223.794	-1.19
224.173	-0.11
224.551	-4.86
224.929	-3.83
225.308	-3.3
225.686	1.73
226.064	-2.4
226.442	-5.62
226.821	-5.3
227.199	-2.69
227.577	1.7
227.955	-0.51
228.333	-1.4
228.711	-1.35
229.089	1.49
229.467	2
229.845	0.72
230.222	0.2
230.6	-1.02
230.978	0.64
231.356	1.09
231.733	2.25
232.111	1.72
232.488	3.5
232.866	6.16
233.243	6.3
233.621	6.91
233.998	8.14
234.376	10.45
234.753	9.96
235.13	9.7
235.508	8.07
235.885	8.25
236.262	9.55
236.639	9.39
237.016	8.13
237.393	8.68
237.77	10.56
238.147	9.39
238.524	9.39
238.901	8.66
239.278	7.08
239.655	6
240.032	5.72
240.409	6.08
240.785	5.56
241.162	5.67
241.539	5.41
241.915	4.17
242.292	4.07
242.668	4.24
243.045	4.67
243.421	5.4
243.798	5.26
244.174	5.01
244.551	4.87
244.927	4.82
245.303	4.6
245.679	4.3
246.056	4.43
246.432	4.21
246.808	4.21
247.184	4.41
247.56	4.34
247.936	4.61
248.312	4.39
248.688	4.4
249.064	4.3
249.44	4.25
249.815	4.93
250.191	4.94
250.567	4.61
250.943	4.3
251.318	3.91
251.694	3.77
252.069	3.78
252.445	3.65
252.82	3.79
253.196	3.89
253.571	3.95
253.947	3.87
254.322	3.72
254.697	3.5
255.073	3.49
255.448	3.5
255.823	3.3
256.198	3.4
256.573	3.21
256.948	3.23
257.323	3.51
257.698	3.05
258.073	2.92
258.448	3.21
258.823	3.26
259.198	3.32
259.573	3.44
259.948	3.45
260.322	3.52
260.697	3.52
261.072	3.44
261.446	3.6
261.821	3.58
262.195	3.65
262.57	3.8
262.944	3.64
263.319	3.64
263.693	3.57
264.067	3.59
264.442	3.54
264.816	3.49
265.19	3.29
265.564	3.28
265.938	3.37
266.313	3.1
266.687	3.21
267.061	3.17
267.435	3.32
267.809	3.15
268.183	3.14
268.556	3.06
268.93	3.08
269.304	2.95
269.678	2.92
270.051	2.97
270.425	2.99
270.799	3.02
271.172	3.21
271.546	3.3
271.919	3.2
272.293	3.38
272.666	3.42
273.04	3.52
273.413	3.66
273.787	3.57
274.16	3.54
274.533	3.66
274.906	3.65
275.279	3.49
275.653	3.4
276.026	3.36
276.399	3.46
276.772	3.39
277.145	3.64
277.518	3.65
277.891	3.83
278.263	3.91
278.636	4.12
279.009	3.95
279.382	3.93
279.755	4.02
280.127	3.95
280.5	3.97
280.872	4.01
281.245	4.03
281.617	3.96
281.99	4.06
282.362	3.78
282.735	3.77
283.107	3.79
283.479	4.03
283.852	4.05
284.224	3.9
284.596	3.93
284.968	3.64
285.34	3.59
285.713	3.5
286.085	3.48
286.457	3.32
286.829	3.39
287.201	3.53
287.572	3.53
287.944	3.55
288.316	3.58
288.688	3.61
289.06	3.53
289.431	3.7
289.803	3.77
290.175	3.82
290.546	3.91
290.918	3.95
291.289	3.86
291.661	3.84
292.032	4
292.403	4
292.775	4.16
293.146	4.16
293.517	4.17
293.889	4.03
294.26	4.15
294.631	4.18
295.002	4.02
295.373	4.06
295.744	4.05
296.115	4.18
296.486	4
296.857	4.18
297.228	4.13
297.599	4.03
297.97	4.17
298.34	4.18
298.711	4.27
299.082	4.28
299.452	4.26
299.823	4.22
300.194	4.35
300.564	4.26
300.935	4.46
301.305	4.43
301.676	4.56
302.046	4.58
302.416	4.65
302.787	4.81
303.157	4.8
303.527	5
303.897	4.93
304.267	5.13
304.637	4.98
305.008	5.11
305.378	5.28
305.748	5.39
306.117	5.45
306.487	5.51
306.857	5.57
307.227	5.75
307.597	5.73
307.967	5.71
308.336	5.73
308.706	5.85
309.076	6.08
309.445	6.27
309.815	6.26
310.184	6.31
310.554	6.3
310.923	6.39
311.293	6.31
311.662	6.53
312.031	6.52
312.401	6.56
312.77	6.58
313.139	6.68
313.508	6.56
313.877	6.66
314.246	6.64
314.616	6.63
314.985	6.48
315.353	6.59
315.722	6.81
316.091	6.99
316.46	6.85
316.829	6.73
317.198	6.7
317.567	6.96
317.935	7.03
318.304	7.3
318.672	7.46
319.041	7.64
319.41	7.4
319.778	7.49
320.147	7.62
320.515	7.63
320.883	7.65
321.252	7.73
321.62	7.61
321.988	7.64
322.357	7.77
322.725	8.03
323.093	8.02
323.461	7.96
323.829	7.95
324.197	8.03
324.565	8.06
324.933	7.99
325.301	7.77
325.669	7.78
326.037	7.67
326.405	7.69
326.772	7.7
327.14	7.65
327.508	7.75
327.875	7.85
328.243	7.87
328.61	7.92
328.978	7.98
329.346	8.07
329.713	8.34
330.08	8.47
330.448	8.44
330.815	8.56
331.182	8.42
331.55	8.47
331.917	8.55
332.284	8.57
332.651	8.82
333.018	8.8
333.385	8.87
333.752	8.85
334.119	8.72
334.486	8.87
334.853	9.05
335.22	8.99
335.587	8.94
335.954	8.91
336.32	8.91
336.687	8.98
337.054	9.11
337.42	8.88
337.787	8.85
338.153	8.99
338.52	9.03
338.886	9.21
339.253	9.28
339.619	9.35
339.986	9.39
340.352	9.33
340.718	9.56
341.084	9.55
341.451	9.71
341.817	9.83
342.183	9.8
342.549	9.88
342.915	9.99
343.281	10.09
343.647	10.28
344.013	10.34
344.379	10.39
344.745	10.39
345.11	10.5
345.476	10.65
345.842	10.56
346.208	10.63
346.573	10.63
346.939	10.56
347.304	10.54
347.67	10.59
348.035	10.56
348.401	10.64
348.766	10.61
349.132	10.53
349.497	10.59
349.862	10.55
350.228	10.57
350.593	10.49
350.958	10.55
351.323	10.51
351.688	10.49
352.053	10.46
352.418	10.49
352.783	10.46
353.148	10.42
353.513	10.57
353.878	10.46
354.243	10.35
354.608	10.31
354.972	10.31
355.337	10.38
355.702	10.35
356.066	10.32
356.431	10.41
356.795	10.36
357.16	10.41
357.524	10.51
357.889	10.42
358.253	10.51
358.618	10.44
358.982	10.43
359.346	10.38
359.71	10.32
360.075	10.28
360.439	10.29
360.803	10.33
361.167	10.2
361.531	10.27
361.895	10.35
362.259	10.43
362.623	10.42
362.987	10.3
363.351	10.28
363.714	10.28
364.078	10.22
364.442	10.25
364.806	10.18
365.169	10.1
365.533	10.14
365.896	10.06
366.26	10.01
366.623	9.95
366.987	9.98
367.35	10.06
367.714	10.01
368.077	10
368.44	9.87
368.803	9.89
369.167	9.79
369.53	9.79
369.893	9.71
370.256	9.61
370.619	9.61
370.982	9.61
371.345	9.54
371.708	9.58
372.071	9.5
372.434	9.42
372.797	9.41
373.159	9.23
373.522	9.16
373.885	9.15
374.247	9.1
374.61	9.1
374.973	9.04
375.335	9
375.698	8.89
376.06	8.87
376.423	8.82
376.785	8.78
377.147	8.73
377.51	8.67
377.872	8.66
378.234	8.65
378.596	8.57
378.958	8.52
379.321	8.37
379.683	8.36
380.045	8.3
380.407	8.21
380.769	8.21
381.13	8.16
381.492	8.11
381.854	8.02
382.216	7.96
382.578	7.9
382.939	7.93
383.301	7.89
383.663	7.82
384.024	7.81
384.386	7.75
384.747	7.65
385.109	7.64
385.47	7.66
385.832	7.56
386.193	7.55
386.554	7.48
386.916	7.5
387.277	7.43
387.638	7.41
387.999	7.36
388.36	7.36
388.721	7.33
389.082	7.27
389.443	7.29
389.804	7.27
390.165	7.23
390.526	7.14
390.887	7.14
391.248	7.12
391.609	7.09
391.969	7.08
392.33	7.09
392.691	7.08
393.051	6.99
393.412	7.01
393.772	6.98
394.133	6.96
394.493	6.9
394.854	6.89
395.214	6.89
395.574	6.85
395.935	6.78
396.295	6.75
396.655	6.76
397.015	6.73
397.376	6.67
397.736	6.64
398.096	6.58
398.456	6.51
398.816	6.47
399.176	6.39
399.535	6.33
399.895	6.26
400.255	6.22
400.615	6.2
400.975	6.15
401.334	6.12
401.694	6.08
402.054	6.05
402.413	6.02
402.773	5.98
403.132	5.94
403.492	5.92
403.851	5.91
404.211	5.89
404.57	5.83
404.929	5.79
405.288	5.73
405.648	5.68
406.007	5.66
406.366	5.62
406.725	5.65
407.084	5.63
407.443	5.59
407.802	5.54
408.161	5.52
408.52	5.48
408.879	5.47
409.238	5.45
409.596	5.43
409.955	5.42
410.314	5.39
410.673	5.37
411.031	5.33
411.39	5.3
411.748	5.28
412.107	5.29
412.465	5.27
412.824	5.25
413.182	5.22
413.54	5.25
413.899	5.22
414.257	5.18
414.615	5.14
414.974	5.16
415.332	5.17
415.69	5.18
416.048	5.19
416.406	5.12
416.764	5.09
417.122	5.08
417.48	5.05
417.838	5.01
418.195	4.99
418.553	4.99
418.911	4.96
419.269	4.94
419.626	4.91
419.984	4.88
420.342	4.87
420.699	4.85
421.057	4.83
421.414	4.84
421.772	4.82
422.129	4.82
422.486	4.79
422.844	4.76
423.201	4.73
423.558	4.7
423.915	4.73
424.273	4.71
424.63	4.7
424.987	4.68
425.344	4.67
425.701	4.66
426.058	4.65
426.415	4.65
426.772	4.63
427.128	4.62
427.485	4.62
427.842	4.59
428.199	4.6
428.555	4.57
428.912	4.53
429.269	4.51
429.625	4.5
429.982	4.5
430.338	4.47
430.695	4.45
431.051	4.45
431.407	4.41
431.764	4.41
432.12	4.41
432.476	4.4
432.832	4.43
433.189	4.43
433.545	4.41
433.901	4.38
434.257	4.38
434.613	4.38
434.969	4.38
435.325	4.4
435.681	4.41
436.036	4.42
436.392	4.43
436.748	4.42
437.104	4.43
437.459	4.43
437.815	4.47
438.171	4.5
438.526	4.48
438.882	4.47
439.237	4.47
439.593	4.47
439.948	4.46
440.304	4.45
440.659	4.45
441.014	4.47
441.369	4.5
441.725	4.5
442.08	4.51
442.435	4.52
442.79	4.5
443.145	4.5
443.5	4.49
443.855	4.48
444.21	4.48
444.565	4.48
444.92	4.47
445.275	4.44
445.629	4.4
445.984	4.41
446.339	4.4
446.693	4.41
447.048	4.39
447.403	4.38
447.757	4.37
448.112	4.34
448.466	4.32
448.82	4.29
449.175	4.27
449.529	4.26
449.883	4.23
450.238	4.23
450.592	4.19
450.946	4.18
451.3	4.15
451.654	4.16
452.008	4.16
452.362	4.15
452.716	4.15
453.07	4.16
453.424	4.14
453.778	4.14
454.132	4.12
454.486	4.12
454.839	4.13
455.193	4.13
455.547	4.16
455.9	4.17
456.254	4.19
456.607	4.18
456.961	4.18
457.314	4.18
457.668	4.17
458.021	4.19
458.375	4.19
458.728	4.2
459.081	4.19
459.434	4.19
459.787	4.21
460.141	4.22
460.494	4.23
460.847	4.22
461.2	4.22
461.553	4.24
461.906	4.27
462.259	4.25
462.611	4.25
462.964	4.25
463.317	4.25
463.67	4.27
464.022	4.27
464.375	4.26
464.728	4.29
465.08	4.31
465.433	4.32
465.785	4.34
466.138	4.38
466.49	4.38
466.843	4.39
467.195	4.39
467.547	4.38
467.899	4.4
468.252	4.44
468.604	4.47
468.956	4.49
469.308	4.49
469.66	4.56
470.012	4.6
470.364	4.61
470.716	4.63
471.068	4.62
471.42	4.66
471.772	4.68
472.123	4.71
472.475	4.72
472.827	4.77
473.178	4.77
473.53	4.77
473.882	4.8
474.233	4.81
474.585	4.85
474.936	4.85
475.288	4.85
475.639	4.86
475.99	4.88
476.342	4.87
476.693	4.88
477.044	4.86
477.395	4.83
477.746	4.84
478.097	4.85
478.448	4.86
478.8	4.86
479.15	4.86
479.501	4.82
479.852	4.82
480.203	4.79
480.554	4.81
480.905	4.8
481.255	4.78
481.606	4.78
481.957	4.78
482.307	4.77
482.658	4.76
483.009	4.74
483.359	4.73
483.709	4.72
484.06	4.7
484.41	4.7
484.761	4.71
485.111	4.71
485.461	4.69
485.811	4.69
486.162	4.68
486.512	4.67
486.862	4.68
487.212	4.67
487.562	4.66
487.912	4.65
488.262	4.65
488.612	4.66
488.961	4.66
489.311	4.63
489.661	4.63
490.011	4.62
490.36	4.62
490.71	4.63
491.06	4.63
491.409	4.64
491.759	4.64
492.108	4.62
492.458	4.61
492.807	4.63
493.157	4.63
493.506	4.67
493.855	4.68
494.204	4.69
494.554	4.71
494.903	4.75
495.252	4.77
495.601	4.78
495.95	4.8
496.299	4.85
496.648	4.91
496.997	4.95
497.346	5.01
497.695	5.07
498.043	5.11
498.392	5.17
498.741	5.22
499.09	5.29
499.438	5.38
499.787	5.45
500.135	5.5
500.484	5.58
500.832	5.65
501.181	5.74
501.529	5.82
501.878	5.92
502.226	6.03
502.574	6.12
502.923	6.22
503.271	6.3
503.619	6.39
503.967	6.47
504.315	6.57
504.663	6.7
505.011	6.82
505.359	6.95
505.707	7.05
506.055	7.17
506.403	7.29
506.751	7.4
507.098	7.53
507.446	7.66
507.794	7.8
508.141	7.92
508.489	8.05
508.837	8.16
509.184	8.31
509.531	8.41
509.879	8.52
510.226	8.66
510.574	8.83
510.921	8.94
511.268	9.14
511.616	9.29
511.963	9.44
512.31	9.6
512.657	9.76
513.004	9.94
513.351	10.09
513.698	10.27
514.045	10.46
514.392	10.65
514.739	10.87
515.086	11.05
515.432	11.24
515.779	11.42
516.126	11.63
516.473	11.76
516.819	11.92
517.166	12.09
517.512	12.27
517.859	12.41
518.205	12.57
518.552	12.69
518.898	12.83
519.245	12.97
519.591	13.11
519.937	13.24
520.283	13.41
520.629	13.6
520.976	13.76
521.322	13.93
521.668	14.11
522.014	14.28
522.36	14.44
522.706	14.64
523.052	14.85
523.398	15.05
523.743	15.31
524.089	15.54
524.435	15.75
524.781	15.96
525.126	16.17
525.472	16.34
525.817	16.5
526.163	16.65
526.509	16.79
526.854	16.93
527.199	17.07
527.545	17.17
527.89	17.3
528.235	17.43
528.581	17.56
528.926	17.67
529.271	17.81
529.616	17.95
529.961	18.08
530.306	18.21
530.651	18.37
530.996	18.5
531.341	18.66
531.686	18.8
532.031	18.95
532.376	19.11
532.721	19.29
533.065	19.48
533.41	19.66
533.755	19.83
534.099	20.01
534.444	20.19
534.788	20.36
535.133	20.56
535.477	20.72
535.822	20.93
536.166	21.14
536.51	21.37
536.855	21.61
537.199	21.87
537.543	22.13
537.887	22.35
538.231	22.63
538.576	22.89
538.92	23.17
539.264	23.42
539.608	23.63
539.951	23.83
540.295	24.02
540.639	24.24
540.983	24.46
541.327	24.66
541.671	24.85
542.014	25.06
542.358	25.21
542.701	25.42
543.045	25.61
543.389	25.82
543.732	26.01
544.075	26.21
544.419	26.42
544.762	26.63
545.105	26.88
545.449	27.09
545.792	27.27
546.135	27.51
546.478	27.72
546.821	28.04
547.165	28.33
547.508	28.65
547.851	28.93
548.194	29.21
548.536	29.52
548.879	29.81
549.222	30.08
549.565	30.38
549.908	30.69
550.25	30.97
550.593	31.26
550.936	31.52
551.278	31.82
551.621	32.11
551.963	32.43
552.306	32.72
552.648	33.01
552.991	33.33
553.333	33.67
553.675	34.03
554.017	34.28
554.36	34.6
554.702	34.83
555.044	35.05
555.386	35.3
555.728	35.57
556.07	35.8
556.412	36.1
556.754	36.38
557.096	36.66
557.438	36.92
557.78	37.2
558.121	37.46
558.463	37.72
558.805	37.99
559.147	38.27
559.488	38.46
559.83	38.71
560.171	38.96
560.513	39.21
560.854	39.38
561.196	39.61
561.537	39.81
561.878	39.99
562.22	40.22
562.561	40.49
562.902	40.66
563.243	40.92
563.584	41.14
563.925	41.39
564.266	41.57
564.607	41.75
564.948	41.88
565.289	42.12
565.63	42.3
565.971	42.42
566.312	42.55
566.653	42.76
566.993	42.94
567.334	43.1
567.675	43.25
568.015	43.44
568.356	43.63
568.696	43.78
569.037	44.03
569.377	44.25
569.718	44.45
570.058	44.63
570.398	44.83
570.739	44.98
571.079	45.14
571.419	45.35
571.759	45.59
572.099	45.83
572.439	46.01
572.779	46.13
573.119	46.32
573.459	46.52
573.799	46.63
574.139	46.86
574.479	46.98
574.819	47.09
575.158	47.23
575.498	47.34
575.838	47.5
576.177	47.61
576.517	47.71
576.856	47.79
577.196	47.96
577.535	48.08
577.875	48.27
578.214	48.36
578.553	48.49
578.893	48.59
579.232	48.62
579.571	48.73
579.91	48.87
580.25	49.01
580.589	49.06
580.928	49.18
581.267	49.17
581.606	49.36
581.945	49.55
582.283	49.65
582.622	49.68
582.961	49.82
583.3	49.92
583.639	50.08
583.977	50.27
584.316	50.3
584.654	50.39
584.993	50.45
585.332	50.61
585.67	50.69
586.008	50.81
586.347	50.97
586.685	51.02
587.024	51.11
587.362	51.2
587.7	51.29
588.038	51.43
588.376	51.49
588.715	51.53
589.053	51.58
589.391	51.68
589.729	51.81
590.067	51.88
590.404	51.87
590.742	51.91
591.08	51.97
591.418	52.04
591.756	52.06
592.093	52.13
592.431	52.17
592.769	52.29
593.106	52.31
593.444	52.41
593.781	52.54
594.119	52.68
594.456	52.71
594.793	52.82
595.131	52.87
595.468	52.98
595.805	53.1
596.143	53.11
596.48	53.16
596.817	53.24
597.154	53.31
597.491	53.41
597.828	53.5
598.165	53.54
598.502	53.58
598.839	53.72
599.176	53.84
599.512	53.92
599.849	53.9
600.186	53.98
600.523	54
600.859	54.13
601.196	54.16
601.532	54.17
601.869	54.23
602.205	54.27
602.542	54.3
602.878	54.33
603.215	54.39
603.551	54.48
603.887	54.46
604.223	54.45
604.56	54.49
604.896	54.49
605.232	54.46
605.568	54.61
605.904	54.6
606.24	54.64
606.576	54.69
606.912	54.84
607.248	54.84
607.583	54.9
607.919	54.84
608.255	54.8
608.591	54.92
608.926	54.84
609.262	54.85
609.597	54.87
609.933	54.86
610.268	54.85
610.604	54.84
610.939	54.97
611.275	55.01
611.61	55.03
611.945	55.06
612.281	55.16
612.616	55.13
612.951	55.17
613.286	55.22
613.621	55.25
613.956	55.2
614.291	55.17
614.626	55.08
614.961	55.17
615.296	55.36
615.631	55.3
615.966	55.46
616.3	55.66
616.635	55.72
616.97	55.8
617.304	55.84
617.639	55.9
617.973	55.88
618.308	55.97
618.642	56
618.977	56.03
619.311	56.09
619.646	56.13
619.98	56.22
620.314	56.18
620.648	56.24
620.983	56.25
621.317	56.37
621.651	56.49
621.985	56.47
622.319	56.43
622.653	56.56
622.987	56.53
623.321	56.49
623.655	56.38
623.988	56.48
624.322	56.51
624.656	56.55
624.99	56.5
625.323	56.54
625.657	56.61
625.99	56.63
626.324	56.61
626.657	56.67
626.991	56.66
627.324	56.66
627.658	56.61
627.991	56.54
628.324	56.57
628.657	56.57
628.991	56.63
629.324	56.67
629.657	56.66
629.99	56.69
630.323	56.67
630.656	56.86
630.989	56.84
631.322	56.84
631.655	56.77
631.987	56.78
632.32	56.77
632.653	56.83
632.986	56.81
633.318	56.9
633.651	56.92
633.984	56.89
634.316	56.87
634.649	56.81
634.981	56.96
635.313	56.94
635.646	57.03
635.978	56.99
636.31	56.95
636.643	57.01
636.975	57.1
637.307	57.07
637.639	57.05
637.971	57.12
638.303	57.18
638.635	57.13
638.967	57.27
639.299	57.18
639.631	57.15
639.963	57.17
640.295	57.01
640.626	56.86
640.958	56.92
641.29	57.04
641.621	57.16
641.953	57.1
642.285	57.15
642.616	57.16
642.948	57.25
643.279	57.29
643.61	57.19
643.942	57.14
644.273	57.22
644.604	57.13
644.936	57.07
645.267	57.03
645.598	57.17
645.929	57.14
646.26	57.32
646.591	57.25
646.922	57.24
647.253	57.41
647.584	57.48
647.915	57.48
648.245	57.51
648.576	57.55
648.907	57.51
649.238	57.4
649.568	57.33
649.899	57.25
650.229	57.27
650.56	57.31
650.89	57.18
651.221	56.98
651.551	57.11
651.882	57.13
652.212	57.16
652.542	57.17
652.872	57.16
653.203	57.19
653.533	57.35
653.863	57.45
654.193	57.38
654.523	57.29
654.853	57.32
655.183	57.32
655.513	57.38
655.843	57.46
656.172	57.6
656.502	57.63
656.832	57.68
657.162	57.66
657.491	57.68
657.821	57.86
658.15	58.1
658.48	58.02
658.809	58.12
659.139	58.12
659.468	58.17
659.798	58.19
660.127	58.07
660.456	58.09
660.785	58.13
661.115	58.2
661.444	58.31
661.773	58.34
662.102	58.32
662.431	58.15
662.76	58.07
663.089	58.13
663.418	58.13
663.747	58.18
664.076	58.29
664.404	58.35
664.733	58.36
665.062	58.37
665.39	58.51
665.719	58.4
666.048	58.4
666.376	58.35
666.705	58.3
667.033	58.37
667.362	58.25
667.69	58.25
668.018	58.22
668.347	58.32
668.675	58.37
669.003	58.31
669.331	58.41
669.659	58.61
669.987	58.49
670.315	58.55
670.643	58.64
670.971	58.57
671.299	58.6
671.627	58.57
671.955	58.5
672.283	58.59
672.61	58.66
672.938	58.89
673.266	58.97
673.593	58.98
673.921	58.85
674.249	58.8
674.576	58.79
674.904	58.91
675.231	58.82
675.558	58.83
675.886	58.91
676.213	59.02
676.54	59.02
676.867	59.16
677.195	59.25
677.522	59.27
677.849	59.4
678.176	59.39
678.503	59.45
678.83	59.52
679.157	59.4
679.484	59.38
679.81	59.31
680.137	59.35
680.464	59.2
680.791	59.44
681.117	59.54
681.444	59.53
681.771	59.51
682.097	59.59
682.424	59.69
682.75	59.62
683.077	59.57
683.403	59.49
683.729	59.54
684.056	59.43
684.382	59.29
684.708	59.27
685.034	59.25
685.36	59.14
685.686	59.12
686.012	59.13
686.339	59.3
686.664	59.27
686.99	59.18
687.316	59.26
687.642	59.12
687.968	58.99
688.294	59.04
688.619	59.05
688.945	59.05
689.271	59.04
689.596	59.2
689.922	59.36
690.247	59.46
690.573	59.2
690.898	59.34
691.224	59.41
691.549	59.29
691.874	59.14
692.2	59.18
692.525	59.08
692.85	59.1
693.175	58.87
693.5	58.85
693.825	58.92
694.15	59.23
694.475	59.32
694.8	59.48
695.125	59.52
695.45	59.47
695.775	59.59
696.099	59.58
696.424	59.5
696.749	59.34
697.073	59.36
697.398	59.51
697.723	59.48
698.047	59.62
698.372	59.65
698.696	59.9
699.02	60.04
699.345	60.16
699.669	60.19
699.993	60.36
700.318	60.39
700.642	60.3
700.966	60.24
701.29	60.16
701.614	60.09
701.938	60.02
702.262	60.16
702.586	60.09
702.91	60.14
703.234	60.22
703.557	60.24
703.881	59.89
704.205	59.81
704.529	59.81
704.852	59.57
705.176	59.76
705.499	59.74
705.823	59.56
706.146	59.56
706.47	59.54
706.793	59.47
707.117	59.46
707.44	59.52
707.763	59.68
708.086	59.81
708.409	59.94
708.733	59.92
709.056	59.83
709.379	59.74
709.702	59.73
710.025	59.69
710.348	59.87
710.671	60.18
710.993	60.21
711.316	59.94
711.639	59.94
711.962	59.76
712.284	59.5
712.607	59.58
712.93	59.56
713.252	59.52
713.575	59.39
713.897	59.6
714.22	59.82
714.542	59.51
714.864	59.41
715.187	59.42
715.509	59.59
715.831	59.57
716.153	59.63
716.475	59.66
716.798	59.68
717.12	59.61
717.442	59.73
717.764	59.63
718.085	59.96
718.407	60.12
718.729	60.19
719.051	60.31
719.373	60.22
719.695	60.27
720.016	60.23
720.338	60.36
720.659	60.11
720.981	59.85
721.302	60.07
721.624	60.13
721.945	60.22
722.267	60.14
722.588	60
722.909	59.76
723.231	59.56
723.552	59.35
723.873	59.35
724.194	59.19
724.515	59.45
724.836	59.4
725.157	59.29
725.478	59.09
725.799	59.24
726.12	59.39
726.441	59.4
726.762	59.42
727.083	59.56
727.403	59.69
727.724	59.95
728.045	59.99
728.365	60.34
728.686	60.08
729.006	60.06
729.327	60.37
729.647	60.62
729.967	60.81
730.288	61.43
730.608	61.48
730.928	61.82
731.249	61.86
731.569	61.99
731.889	61.91
732.209	62.23
732.529	62.43
732.849	62.39
733.169	62.54
733.489	62.73
733.809	62.49
734.129	62.41
734.448	62.17
734.768	62
735.088	61.73
735.408	61.86
735.727	62.01
736.047	61.98
736.366	61.97
736.686	61.64
737.005	61.16
737.325	60.86
737.644	60.34
737.963	60.29
738.283	60.03
738.602	60.21
738.921	60.03
739.24	59.87
739.56	59.8
739.879	59.61
740.198	59.49
740.517	59.67
740.836	59.62
741.155	59.77
741.473	59.93
741.792	59.85
742.111	60.22
742.43	60.13
742.748	60.29
743.067	60.37
743.386	60.64
743.704	60.85
744.023	61.28
744.341	61.72
744.66	61.65
744.978	61.7
745.297	61.42
745.615	61.59
745.933	61.64
746.252	62.02
746.57	61.88
746.888	61.97
747.206	61.91
747.524	62.1
747.842	62.24
748.16	62.52
748.478	62.66
748.796	62.43
749.114	62.26
749.432	61.93
749.749	61.85
750.067	61.55
750.385	61.46
750.703	61.59
751.02	61.54
751.338	61.7
751.655	61.79
751.973	62.1
752.29	62.45
752.608	62.3
752.925	61.78
753.242	62.24
753.56	62.54
753.877	62.58
754.194	62.27
754.511	62.36
754.828	62.35
755.145	62.6
755.462	62.65
755.779	62.79
756.096	62.73
756.413	62.68
756.73	62.89
757.047	62.75
757.364	62.58
757.68	62.45
757.997	62.37
758.314	62.44
758.63	62.51
758.947	62.21
759.264	62.28
759.58	62.81
759.896	62.57
760.213	62.31
760.529	62.28
760.846	62.76
761.162	62.46
761.478	62.51
761.794	62.25
762.11	62.16
762.426	62.27
762.743	62.48
763.059	62.34
763.375	62.53
763.69	62.63
764.006	62.51
764.322	62.55
764.638	62.3
764.954	62.24
765.27	62.28
765.585	62.19
765.901	61.98
766.216	61.87
766.532	62.12
766.848	62.23
767.163	61.89
767.478	61.73
767.794	61.78
768.109	61.33
768.424	61.22
768.74	61.14
769.055	61.06
769.37	60.78
769.685	60.74
770	60.64
770.315	60.49
770.63	60.7
770.945	60.4
771.26	60.76
771.575	60.68
771.89	60.62
772.205	60.65
772.52	60.51
772.834	60.34
773.149	59.76
773.464	59.91
773.778	60.64
774.093	60.65
774.407	60.57
774.722	60.84
775.036	60.8
775.351	60.63
775.665	60.48
775.979	60.84
776.293	61.1
776.608	60.59
776.922	60.29
777.236	60.39
777.55	60.84
777.864	60.97
778.178	61.19
778.492	61.12
778.806	60.89
779.12	61.5
779.434	61.39
779.747	61.67
780.061	61.28
780.375	61.58
780.689	61.89
781.002	62.28
781.316	62.35
781.629	62.83
781.943	63.26
782.256	62.65
782.57	62.65
782.883	62.77
783.196	63.18
783.51	63.98
783.823	64.03
784.136	63.76
784.449	63.65
784.762	63.54
785.075	63.76
785.388	64.18
785.701	63.94
786.014	64.31
786.327	64.2
786.64	64.47
786.953	63.94
787.266	63.36
787.578	63.22
787.891	62.69
788.204	62.65
788.516	62.48
788.829	62.93
789.141	63.29
789.454	63.23
789.766	63.06
790.079	62.19
790.391	62.15
790.703	62.3
791.016	62.37
791.328	62.54
791.64	62.2
791.952	62.69
792.264	63.07
792.576	62.99
792.888	62.79
793.2	62.4
793.512	62.16
793.824	62.89
794.136	63.37
794.448	63.95
794.76	63.5
795.071	63.33
795.383	64.27
795.695	63.93
796.006	63.88
796.318	63.99
796.629	64.18
796.941	64.53
797.252	65.02
797.564	65.14
797.875	64.65
798.186	64.94
798.497	64.28
798.809	64.09
799.12	64.05
799.431	64.06
799.742	64.14
800.053	64.05
800.364	63.7
800.675	63.25
800.986	63.42
801.297	63.43
801.608	63.84
801.918	63.28
802.229	63.11
802.54	62.86
802.851	62.98
803.161	63.74
803.472	63.2
803.782	62.02
804.093	61.07
804.403	61.72
804.714	61.73
805.024	60.85
805.334	60.61
805.645	61.24
805.955	61.62
806.265	61.42
806.575	61.85
806.885	62.27
807.195	62.3
807.505	61.78
807.815	62.63
808.125	62.71
808.435	62.71
808.745	63.01
809.055	64.03
809.365	63.95
809.674	64.15
809.984	64.22
810.294	64.85
810.603	64.74
810.913	65.24
811.222	65.19
811.532	65.85
811.841	66.69
812.151	65.83
812.46	64.94
812.769	65.44
813.079	66
813.388	64.65
813.697	64.18
814.006	64.6
814.315	64.67
814.624	65.14
814.933	65
815.242	64.7
815.551	64.51
815.86	65.06
816.169	64.88
816.478	64.71
816.786	66.14
817.095	66.76
817.404	65.66
817.712	65.64
818.021	66.42
818.33	65.44
818.638	65.49
818.947	66.13
819.255	65.49
819.563	65.49
819.872	65.57
820.18	65.35
820.488	65.52
820.796	64.94
821.105	64.96
821.413	65.05
821.721	65.1
822.029	64.93
822.337	64.81
822.645	64.62
822.953	64.73
823.26	64.34
823.568	64.64
823.876	64.8
824.184	64.83
824.491	64.62
824.799	64.6
825.107	64.65
825.414	64.38
825.722	64.45
826.029	64.38
826.337	64.52
826.644	64.59
826.951	64.57
827.259	64.79
827.566	64.63
827.873	64.55
828.18	64.36
828.488	64.28
828.795	64.44
829.102	64.67
829.409	64.29
829.716	64.72
830.023	64.63
830.329	64.35
830.636	64.03
830.943	64.4
831.25	64.9
831.557	64.75
831.863	65.49
832.17	65.6
832.476	65.31
832.783	65.35
833.089	65.51
833.396	65.49
833.702	65.43
834.009	65.71
834.315	65.55
834.621	65.52
834.928	65.9
835.234	65.64
835.54	65.11
835.846	65.4
836.152	65.17
836.458	64.8
836.764	65.27
837.07	65.72
837.376	65.46
837.682	65.85
837.988	65.82
838.293	65.77
838.599	66.39
838.905	66.38
839.211	66.84
839.516	66.89
839.822	66.74
840.127	66.54
840.433	66.55
840.738	66.54
841.044	67.94
841.349	68.32
841.654	67.23
841.959	67.98
842.265	68.2
842.57	67.93
842.875	68
843.18	67.3
843.485	67.98
843.79	66.84
844.095	65.55
844.4	65.97
844.705	65.68
845.01	65.64
845.315	67.02
845.619	66.56
845.924	68.34
846.229	66.9
846.533	66.35
846.838	65.07
847.142	67.57
847.447	67.08
847.751	65.44
848.056	68.01
848.36	68.28
848.664	67.62
848.969	68.09
849.273	68.54
849.577	68.98
849.881	68.01
850.185	69.74
850.489	70.04
850.794	69.74
851.097	69.4
851.401	67.11
851.705	65.93
852.009	63.64
852.313	60.68
852.617	63.48
852.92	66.35
853.224	65.22
853.528	63.54
853.831	62.86
854.135	62.58
854.438	61.31
854.742	60.91
855.045	61.95
855.349	62.84
855.652	62.79
855.955	63.06
856.259	63.11
856.562	63.57
856.865	64.74
857.168	64.96
857.471	65.19
857.774	66.32
858.077	65.49
858.38	66.56
858.683	66.07
858.986	67.09
859.289	66.27
859.592	68.39
859.894	69.72
860.197	65.31
860.5	68.55
860.802	68.97
861.105	70.63
861.407	71.51
861.71	66.94
862.012	67.71
862.315	68.29
862.617	66.59
862.919	66.53
863.222	63.39
863.524	62.15
863.826	61.85
864.128	62
864.43	65.73
864.732	65.08
865.034	66.88
865.336	65.62
865.638	64.11
865.94	64.04
866.242	62.97
866.544	69.11
866.846	66.28
867.147	66.27
867.449	64.77
867.751	64.81
868.052	67.87
868.354	67.46
868.655	66.37
868.957	66.7
869.258	66.17
869.56	68.25
869.861	68.45
870.162	67.36
870.463	67.67
870.765	63.55
871.066	63.85
871.367	63.33
871.668	61.07
871.969	63.13
872.27	64.24
872.571	64.77
872.872	60.81
873.173	61
873.473	60.42
873.774	59.57
874.075	59.13
874.376	58.98
874.676	56.51
874.977	56.58
875.277	58.38
875.578	61.33
875.878	60.05
876.179	60.96
876.479	62.55
876.78	62.65
877.08	64.19
877.38	64.93
877.68	65.42
877.981	67.39
878.281	66.29
878.581	62.79
