Data from MVZ_BU5182_Reflection_00011.txt Node
Date: Tue Nov 19 12:19:24 EST 2019
User: vgr7
Spectrometer: USB2G7710
Scans to average: 3
Trigger mode: 4
Integration Time (sec): 2.000000E-2
Electric dark correction enabled: true
Boxcar width: 10
XAxis mode: Wavelengths
Number of Pixels in Spectrum: 2048
>>>>>Begin Spectral Data<<<<<
177.721	44.29
178.105	74.58
178.488	18.95
178.871	-25
179.254	-40
179.636	43.66
180.019	69.19
180.402	-9.09
180.785	179.31
181.168	2385.71
181.55	-203.92
181.933	-116.98
182.316	343.59
182.698	73.99
183.081	68.14
183.463	47.55
183.846	43.59
184.228	47.73
184.611	60.77
184.993	82.27
185.376	105.82
185.758	99.18
186.14	95.8
186.522	93.45
186.904	95.8
187.287	99.1
187.669	104.07
188.051	100.77
188.433	114.91
188.815	113.19
189.197	81.41
189.579	69.58
189.961	47.99
190.342	64.01
190.724	73.77
191.106	65.32
191.488	83.44
191.869	68.56
192.251	65.62
192.633	45.88
193.014	28.57
193.396	14.85
193.777	22.12
194.159	33.29
194.54	25.76
194.922	38.45
195.303	44.81
195.684	41.64
196.065	47.84
196.447	42.19
196.828	49.7
197.209	57.42
197.59	62.03
197.971	84
198.352	80.31
198.733	68.5
199.114	69.1
199.495	64.66
199.876	83.5
200.257	82.83
200.638	85.45
201.018	100.63
201.399	106.87
201.78	139.38
202.16	149.58
202.541	164.73
202.922	135.91
203.302	106.04
203.683	109.73
204.063	97.44
204.444	110.24
204.824	89.43
205.204	73.15
205.585	62.99
205.965	56.81
206.345	45.06
206.725	50.47
207.106	60.28
207.486	55.74
207.866	52.7
208.246	55.29
208.626	62.82
209.006	48.31
209.386	60.91
209.766	58.38
210.145	47.55
210.525	51.21
210.905	53.35
211.285	59.75
211.664	66.34
212.044	73.63
212.424	82.01
212.803	74.43
213.183	86.06
213.562	99.34
213.942	92.25
214.321	98.13
214.701	109.17
215.08	108.3
215.459	124.72
215.838	97.8
216.218	90.73
216.597	72.67
216.976	72.13
217.355	52.87
217.734	35.4
218.113	48.81
218.492	42.76
218.871	41.71
219.25	45.78
219.629	34.04
220.008	29.25
220.387	24.88
220.766	33.99
221.144	33.36
221.523	29.58
221.902	29.99
222.28	32.53
222.659	30.69
223.037	29.94
223.416	32.83
223.794	40.12
224.173	34.66
224.551	32.96
224.929	32.45
225.308	35.26
225.686	36.31
226.064	26.51
226.442	24.18
226.821	23.9
227.199	20.92
227.577	22.67
227.955	23.39
228.333	22.51
228.711	22.06
229.089	20.14
229.467	16.27
229.845	13.33
230.222	14.48
230.6	13.15
230.978	11.43
231.356	9.93
231.733	13.36
232.111	11.64
232.488	12.23
232.866	12
233.243	8.58
233.621	9.42
233.998	10.41
234.376	8.62
234.753	8.5
235.13	10.17
235.508	9.03
235.885	9.7
236.262	9.18
236.639	7.77
237.016	8.47
237.393	9.2
237.77	9.76
238.147	6.57
238.524	7.5
238.901	7.02
239.278	6.12
239.655	4.23
240.032	4.36
240.409	4.07
240.785	3.79
241.162	4.4
241.539	3.72
241.915	4.16
242.292	4.84
242.668	4.81
243.045	4.87
243.421	5.22
243.798	4.95
244.174	4.92
244.551	4.97
244.927	4.48
245.303	4.51
245.679	4.65
246.056	5.06
246.432	4.82
246.808	4.91
247.184	5.18
247.56	5.36
247.936	5.4
248.312	5.32
248.688	5.44
249.064	5.28
249.44	5.3
249.815	5.21
250.191	4.96
250.567	5.04
250.943	4.88
251.318	4.81
251.694	4.69
252.069	4.58
252.445	4.65
252.82	5.44
253.196	5.38
253.571	5.43
253.947	5.24
254.322	5.25
254.697	5.2
255.073	4.7
255.448	4.43
255.823	4.58
256.198	4.64
256.573	4.54
256.948	4.64
257.323	4.76
257.698	4.71
258.073	4.81
258.448	4.61
258.823	4.46
259.198	4.45
259.573	4.47
259.948	4.61
260.322	4.43
260.697	4.29
261.072	4.28
261.446	4.12
261.821	4.15
262.195	4.16
262.57	4.27
262.944	4.27
263.319	4.22
263.693	4.26
264.067	4.32
264.442	4.21
264.816	4.33
265.19	4.34
265.564	4.3
265.938	4.44
266.313	4.24
266.687	4.36
267.061	4.36
267.435	4.47
267.809	4.32
268.183	4.38
268.556	4.46
268.93	4.41
269.304	4.36
269.678	4.5
270.051	4.49
270.425	4.29
270.799	4.24
271.172	4.47
271.546	4.48
271.919	4.48
272.293	4.67
272.666	4.55
273.04	4.47
273.413	4.56
273.787	4.43
274.16	4.65
274.533	4.67
274.906	4.71
275.279	4.59
275.653	4.81
276.026	4.86
276.399	4.63
276.772	4.77
277.145	4.78
277.518	4.65
277.891	4.51
278.263	4.63
278.636	4.93
279.009	4.77
279.382	4.54
279.755	4.5
280.127	4.24
280.5	4.31
280.872	4.31
281.245	4.2
281.617	4.2
281.99	4.19
282.362	4.21
282.735	4.04
283.107	4
283.479	3.76
283.852	3.79
284.224	3.9
284.596	3.79
284.968	3.73
285.34	3.75
285.713	3.87
286.085	3.9
286.457	3.81
286.829	3.75
287.201	3.91
287.572	3.92
287.944	4.11
288.316	3.97
288.688	4.13
289.06	4.18
289.431	4.31
289.803	4.36
290.175	4.26
290.546	4.42
290.918	4.43
291.289	4.5
291.661	4.48
292.032	4.51
292.403	4.51
292.775	4.66
293.146	4.6
293.517	4.59
293.889	4.45
294.26	4.51
294.631	4.64
295.002	4.69
295.373	4.71
295.744	4.69
296.115	4.9
296.486	4.77
296.857	4.88
297.228	4.63
297.599	4.62
297.97	4.72
298.34	4.64
298.711	4.68
299.082	4.72
299.452	4.77
299.823	4.73
300.194	4.79
300.564	4.69
300.935	4.94
301.305	4.87
301.676	4.87
302.046	4.85
302.416	4.89
302.787	4.76
303.157	4.66
303.527	4.81
303.897	4.77
304.267	4.81
304.637	4.78
305.008	5.04
305.378	5.06
305.748	5.05
306.117	4.98
306.487	5.05
306.857	5.11
307.227	5.32
307.597	5.19
307.967	5.28
308.336	5.41
308.706	5.21
309.076	5.36
309.445	5.66
309.815	5.69
310.184	5.59
310.554	5.67
310.923	5.67
311.293	5.55
311.662	5.63
312.031	5.63
312.401	5.56
312.77	5.53
313.139	5.65
313.508	5.54
313.877	5.7
314.246	5.63
314.616	5.55
314.985	5.28
315.353	5.43
315.722	5.64
316.091	5.56
316.46	5.43
316.829	5.5
317.198	5.32
317.567	5.44
317.935	5.65
318.304	5.95
318.672	6.12
319.041	6.26
319.41	6.05
319.778	6.07
320.147	6.03
320.515	6.16
320.883	6.02
321.252	6.17
321.62	5.98
321.988	6.01
322.357	6.13
322.725	6.16
323.093	6.11
323.461	5.89
323.829	6.15
324.197	6.31
324.565	6.22
324.933	6.22
325.301	6.04
325.669	6.03
326.037	5.83
326.405	5.82
326.772	5.73
327.14	5.74
327.508	5.76
327.875	5.79
328.243	5.7
328.61	5.67
328.978	5.7
329.346	5.82
329.713	5.93
330.08	5.98
330.448	6.02
330.815	5.97
331.182	5.98
331.55	5.85
331.917	5.86
332.284	5.86
332.651	5.88
333.018	6
333.385	6
333.752	6.13
334.119	6.07
334.486	6.1
334.853	6.17
335.22	6.09
335.587	6.25
335.954	6.08
336.32	6.08
336.687	6.2
337.054	6.38
337.42	6.49
337.787	6.48
338.153	6.49
338.52	6.69
338.886	6.82
339.253	6.85
339.619	6.91
339.986	6.93
340.352	6.85
340.718	6.78
341.084	6.7
341.451	6.59
341.817	6.55
342.183	6.55
342.549	6.64
342.915	6.79
343.281	6.73
343.647	6.91
344.013	7.04
344.379	7
344.745	6.93
345.11	6.83
345.476	6.83
345.842	6.83
346.208	6.83
346.573	6.81
346.939	6.83
347.304	6.86
347.67	6.81
348.035	6.93
348.401	7.05
348.766	7.1
349.132	7.2
349.497	7.29
349.862	7.25
350.228	7.15
350.593	6.95
350.958	6.92
351.323	6.94
351.688	6.92
352.053	6.85
352.418	6.8
352.783	6.87
353.148	6.84
353.513	6.79
353.878	6.74
354.243	6.61
354.608	6.63
354.972	6.62
355.337	6.62
355.702	6.58
356.066	6.46
356.431	6.44
356.795	6.31
357.16	6.35
357.524	6.37
357.889	6.4
358.253	6.53
358.618	6.44
358.982	6.39
359.346	6.42
359.71	6.39
360.075	6.44
360.439	6.4
360.803	6.43
361.167	6.48
361.531	6.43
361.895	6.46
362.259	6.49
362.623	6.39
362.987	6.37
363.351	6.36
363.714	6.44
364.078	6.49
364.442	6.51
364.806	6.52
365.169	6.52
365.533	6.57
365.896	6.56
366.26	6.59
366.623	6.52
366.987	6.42
367.35	6.44
367.714	6.32
368.077	6.35
368.44	6.31
368.803	6.21
369.167	6.17
369.53	6.11
369.893	5.97
370.256	6.03
370.619	6.06
370.982	6.01
371.345	5.99
371.708	5.95
372.071	5.86
372.434	5.79
372.797	5.8
373.159	5.68
373.522	5.62
373.885	5.66
374.247	5.62
374.61	5.63
374.973	5.65
375.335	5.68
375.698	5.51
376.06	5.46
376.423	5.52
376.785	5.55
377.147	5.6
377.51	5.63
377.872	5.55
378.234	5.54
378.596	5.52
378.958	5.46
379.321	5.37
379.683	5.41
380.045	5.39
380.407	5.32
380.769	5.36
381.13	5.33
381.492	5.25
381.854	5.3
382.216	5.27
382.578	5.21
382.939	5.14
383.301	5.18
383.663	5.13
384.024	5.05
384.386	5
384.747	4.94
385.109	4.9
385.47	4.93
385.832	4.85
386.193	4.82
386.554	4.8
386.916	4.82
387.277	4.77
387.638	4.7
387.999	4.69
388.36	4.63
388.721	4.62
389.082	4.6
389.443	4.58
389.804	4.53
390.165	4.53
390.526	4.53
390.887	4.54
391.248	4.54
391.609	4.57
391.969	4.53
392.33	4.52
392.691	4.52
393.051	4.5
393.412	4.51
393.772	4.56
394.133	4.54
394.493	4.47
394.854	4.47
395.214	4.5
395.574	4.47
395.935	4.47
396.295	4.48
396.655	4.46
397.015	4.47
397.376	4.46
397.736	4.42
398.096	4.38
398.456	4.31
398.816	4.34
399.176	4.26
399.535	4.24
399.895	4.23
400.255	4.21
400.615	4.15
400.975	4.13
401.334	4.03
401.694	3.96
402.054	3.99
402.413	3.99
402.773	3.98
403.132	4.02
403.492	4.07
403.851	4.02
404.211	4.02
404.57	3.98
404.929	3.98
405.288	4
405.648	3.98
406.007	3.98
406.366	3.96
406.725	3.97
407.084	3.96
407.443	3.95
407.802	3.93
408.161	3.95
408.52	3.94
408.879	3.99
409.238	4.02
409.596	4.01
409.955	3.98
410.314	3.98
410.673	3.94
411.031	3.89
411.39	3.88
411.748	3.89
412.107	3.88
412.465	3.82
412.824	3.8
413.182	3.84
413.54	3.88
413.899	3.85
414.257	3.88
414.615	3.88
414.974	3.88
415.332	3.85
415.69	3.83
416.048	3.84
416.406	3.81
416.764	3.79
417.122	3.77
417.48	3.78
417.838	3.75
418.195	3.74
418.553	3.71
418.911	3.69
419.269	3.7
419.626	3.7
419.984	3.71
420.342	3.71
420.699	3.7
421.057	3.68
421.414	3.67
421.772	3.66
422.129	3.63
422.486	3.61
422.844	3.63
423.201	3.63
423.558	3.61
423.915	3.62
424.273	3.62
424.63	3.62
424.987	3.62
425.344	3.62
425.701	3.6
426.058	3.59
426.415	3.6
426.772	3.55
427.128	3.55
427.485	3.57
427.842	3.54
428.199	3.54
428.555	3.53
428.912	3.53
429.269	3.51
429.625	3.52
429.982	3.51
430.338	3.52
430.695	3.52
431.051	3.53
431.407	3.54
431.764	3.53
432.12	3.52
432.476	3.52
432.832	3.53
433.189	3.56
433.545	3.58
433.901	3.58
434.257	3.61
434.613	3.59
434.969	3.56
435.325	3.58
435.681	3.57
436.036	3.55
436.392	3.55
436.748	3.56
437.104	3.59
437.459	3.57
437.815	3.57
438.171	3.56
438.526	3.56
438.882	3.53
439.237	3.53
439.593	3.54
439.948	3.53
440.304	3.52
440.659	3.5
441.014	3.5
441.369	3.5
441.725	3.49
442.08	3.51
442.435	3.52
442.79	3.53
443.145	3.51
443.5	3.51
443.855	3.51
444.21	3.51
444.565	3.49
444.92	3.5
445.275	3.49
445.629	3.47
445.984	3.46
446.339	3.47
446.693	3.48
447.048	3.45
447.403	3.45
447.757	3.45
448.112	3.45
448.466	3.44
448.82	3.43
449.175	3.42
449.529	3.41
449.883	3.39
450.238	3.39
450.592	3.4
450.946	3.4
451.3	3.42
451.654	3.42
452.008	3.41
452.362	3.41
452.716	3.41
453.07	3.41
453.424	3.43
453.778	3.4
454.132	3.41
454.486	3.43
454.839	3.43
455.193	3.43
455.547	3.46
455.9	3.48
456.254	3.5
456.607	3.51
456.961	3.51
457.314	3.5
457.668	3.48
458.021	3.5
458.375	3.5
458.728	3.49
459.081	3.48
459.434	3.48
459.787	3.5
460.141	3.5
460.494	3.53
460.847	3.51
461.2	3.54
461.553	3.54
461.906	3.55
462.259	3.55
462.611	3.57
462.964	3.57
463.317	3.53
463.67	3.54
464.022	3.52
464.375	3.51
464.728	3.53
465.08	3.55
465.433	3.56
465.785	3.56
466.138	3.55
466.49	3.58
466.843	3.58
467.195	3.57
467.547	3.56
467.899	3.58
468.252	3.6
468.604	3.6
468.956	3.6
469.308	3.6
469.66	3.61
470.012	3.61
470.364	3.59
470.716	3.64
471.068	3.63
471.42	3.64
471.772	3.69
472.123	3.7
472.475	3.7
472.827	3.68
473.178	3.68
473.53	3.7
473.882	3.68
474.233	3.69
474.585	3.71
474.936	3.73
475.288	3.7
475.639	3.69
475.99	3.67
476.342	3.69
476.693	3.69
477.044	3.69
477.395	3.69
477.746	3.71
478.097	3.71
478.448	3.7
478.8	3.71
479.15	3.69
479.501	3.68
479.852	3.68
480.203	3.69
480.554	3.69
480.905	3.68
481.255	3.67
481.606	3.68
481.957	3.68
482.307	3.67
482.658	3.68
483.009	3.68
483.359	3.69
483.709	3.68
484.06	3.68
484.41	3.68
484.761	3.68
485.111	3.67
485.461	3.67
485.811	3.67
486.162	3.66
486.512	3.67
486.862	3.68
487.212	3.67
487.562	3.67
487.912	3.67
488.262	3.67
488.612	3.68
488.961	3.68
489.311	3.68
489.661	3.69
490.011	3.68
490.36	3.68
490.71	3.66
491.06	3.67
491.409	3.67
491.759	3.67
492.108	3.66
492.458	3.67
492.807	3.67
493.157	3.68
493.506	3.7
493.855	3.69
494.204	3.69
494.554	3.7
494.903	3.71
495.252	3.73
495.601	3.74
495.95	3.75
496.299	3.74
496.648	3.76
496.997	3.76
497.346	3.81
497.695	3.83
498.043	3.87
498.392	3.89
498.741	3.93
499.09	3.97
499.438	4.01
499.787	4.04
500.135	4.07
500.484	4.07
500.832	4.08
501.181	4.12
501.529	4.16
501.878	4.2
502.226	4.24
502.574	4.27
502.923	4.31
503.271	4.36
503.619	4.41
503.967	4.44
504.315	4.51
504.663	4.53
505.011	4.56
505.359	4.59
505.707	4.62
506.055	4.64
506.403	4.71
506.751	4.77
507.098	4.84
507.446	4.9
507.794	4.97
508.141	5.06
508.489	5.16
508.837	5.21
509.184	5.3
509.531	5.36
509.879	5.42
510.226	5.49
510.574	5.56
510.921	5.64
511.268	5.75
511.616	5.81
511.963	5.91
512.31	6
512.657	6.08
513.004	6.19
513.351	6.28
513.698	6.37
514.045	6.46
514.392	6.55
514.739	6.67
515.086	6.78
515.432	6.89
515.779	6.97
516.126	7.11
516.473	7.19
516.819	7.28
517.166	7.38
517.512	7.46
517.859	7.58
518.205	7.67
518.552	7.73
518.898	7.83
519.245	7.93
519.591	8.04
519.937	8.13
520.283	8.25
520.629	8.36
520.976	8.48
521.322	8.62
521.668	8.76
522.014	8.89
522.36	9.04
522.706	9.16
523.052	9.34
523.398	9.48
523.743	9.66
524.089	9.83
524.435	9.98
524.781	10.17
525.126	10.3
525.472	10.44
525.817	10.56
526.163	10.68
526.509	10.77
526.854	10.87
527.199	10.97
527.545	11.06
527.89	11.17
528.235	11.27
528.581	11.37
528.926	11.48
529.271	11.59
529.616	11.69
529.961	11.82
530.306	11.93
530.651	12.05
530.996	12.18
531.341	12.31
531.686	12.45
532.031	12.57
532.376	12.71
532.721	12.84
533.065	13.01
533.41	13.17
533.755	13.32
534.099	13.49
534.444	13.7
534.788	13.89
535.133	14.06
535.477	14.23
535.822	14.4
536.166	14.6
536.51	14.82
536.855	15.03
537.199	15.23
537.543	15.44
537.887	15.65
538.231	15.88
538.576	16.11
538.92	16.33
539.264	16.53
539.608	16.73
539.951	16.93
540.295	17.12
540.639	17.32
540.983	17.53
541.327	17.71
541.671	17.87
542.014	18.02
542.358	18.21
542.701	18.4
543.045	18.58
543.389	18.74
543.732	18.88
544.075	19.09
544.419	19.32
544.762	19.51
545.105	19.72
545.449	19.93
545.792	20.18
546.135	20.45
546.478	20.71
546.821	21.01
547.165	21.31
547.508	21.61
547.851	21.91
548.194	22.17
548.536	22.42
548.879	22.71
549.222	23
549.565	23.21
549.908	23.48
550.25	23.73
550.593	24.08
550.936	24.37
551.278	24.61
551.621	24.86
551.963	25.14
552.306	25.45
552.648	25.74
552.991	25.95
553.333	26.18
553.675	26.46
554.017	26.7
554.36	26.9
554.702	27.12
555.044	27.31
555.386	27.59
555.728	27.85
556.07	28.02
556.412	28.28
556.754	28.51
557.096	28.78
557.438	29.08
557.78	29.3
558.121	29.59
558.463	29.85
558.805	30.09
559.147	30.36
559.488	30.55
559.83	30.78
560.171	31.06
560.513	31.24
560.854	31.48
561.196	31.69
561.537	31.93
561.878	32.09
562.22	32.35
562.561	32.54
562.902	32.75
563.243	32.96
563.584	33.2
563.925	33.5
564.266	33.7
564.607	33.88
564.948	33.99
565.289	34.13
565.63	34.27
565.971	34.42
566.312	34.53
566.653	34.71
566.993	34.88
567.334	35.03
567.675	35.24
568.015	35.38
568.356	35.58
568.696	35.76
569.037	35.97
569.377	36.11
569.718	36.28
570.058	36.45
570.398	36.63
570.739	36.72
571.079	36.84
571.419	37.01
571.759	37.14
572.099	37.33
572.439	37.49
572.779	37.64
573.119	37.79
573.459	37.97
573.799	38.08
574.139	38.21
574.479	38.34
574.819	38.49
575.158	38.6
575.498	38.72
575.838	38.76
576.177	38.83
576.517	38.95
576.856	39.06
577.196	39.16
577.535	39.3
577.875	39.41
578.214	39.49
578.553	39.56
578.893	39.71
579.232	39.78
579.571	39.95
579.91	39.98
580.25	40.08
580.589	40.14
580.928	40.2
581.267	40.27
581.606	40.33
581.945	40.35
582.283	40.5
582.622	40.54
582.961	40.7
583.3	40.81
583.639	40.92
583.977	41
584.316	41.15
584.654	41.22
584.993	41.35
585.332	41.48
585.67	41.59
586.008	41.6
586.347	41.7
586.685	41.73
587.024	41.96
587.362	42.05
587.7	42.16
588.038	42.27
588.376	42.36
588.715	42.48
589.053	42.59
589.391	42.58
589.729	42.63
590.067	42.74
590.404	42.8
590.742	42.81
591.08	42.9
591.418	42.98
591.756	43.05
592.093	43.16
592.431	43.24
592.769	43.26
593.106	43.41
593.444	43.5
593.781	43.68
594.119	43.72
594.456	43.74
594.793	43.82
595.131	43.96
595.468	44.01
595.805	44.07
596.143	44.13
596.48	44.17
596.817	44.25
597.154	44.28
597.491	44.4
597.828	44.48
598.165	44.58
598.502	44.62
598.839	44.63
599.176	44.68
599.512	44.67
599.849	44.7
600.186	44.77
600.523	44.8
600.859	44.78
601.196	44.82
601.532	44.88
601.869	45
602.205	45.01
602.542	45.09
602.878	45.16
603.215	45.2
603.551	45.32
603.887	45.33
604.223	45.4
604.56	45.44
604.896	45.55
605.232	45.56
605.568	45.6
605.904	45.64
606.24	45.69
606.576	45.83
606.912	45.91
607.248	45.93
607.583	45.98
607.919	45.97
608.255	45.99
608.591	46.11
608.926	46.03
609.262	46.07
609.597	46.11
609.933	46.11
610.268	46.21
610.604	46.23
610.939	46.32
611.275	46.31
611.61	46.29
611.945	46.21
612.281	46.2
612.616	46.22
612.951	46.3
613.286	46.3
613.621	46.29
613.956	46.38
614.291	46.27
614.626	46.25
614.961	46.28
615.296	46.44
615.631	46.43
615.966	46.49
616.3	46.55
616.635	46.64
616.97	46.66
617.304	46.57
617.639	46.66
617.973	46.66
618.308	46.75
618.642	46.83
618.977	46.9
619.311	46.94
619.646	46.93
619.98	46.89
620.314	46.89
620.648	46.92
620.983	46.92
621.317	47.03
621.651	47.12
621.985	47.18
622.319	47.12
622.653	47.2
622.987	47.21
623.321	47.12
623.655	47.15
623.988	47.13
624.322	47.21
624.656	47.19
624.99	47.2
625.323	47.02
625.657	46.97
625.99	46.99
626.324	47.12
626.657	47.15
626.991	47.26
627.324	47.3
627.658	47.33
627.991	47.33
628.324	47.43
628.657	47.45
628.991	47.47
629.324	47.44
629.657	47.44
629.99	47.56
630.323	47.68
630.656	47.75
630.989	47.82
631.322	47.8
631.655	47.71
631.987	47.81
632.32	48.05
632.653	48.19
632.986	48.23
633.318	48.13
633.651	48.25
633.984	48.25
634.316	48.28
634.649	48.28
634.981	48.27
635.313	48.21
635.646	48.14
635.978	48.1
636.31	48.13
636.643	48.04
636.975	47.95
637.307	47.92
637.639	47.78
637.971	47.78
638.303	47.88
638.635	48.05
638.967	48.02
639.299	47.95
639.631	47.99
639.963	48.11
640.295	48.14
640.626	48.16
640.958	48.2
641.29	48.15
641.621	48.28
641.953	48.33
642.285	48.37
642.616	48.45
642.948	48.53
643.279	48.61
643.61	48.76
643.942	49.02
644.273	49.09
644.604	49.22
644.936	49.27
645.267	49.26
645.598	49.25
645.929	49.4
646.26	49.41
646.591	49.34
646.922	49.22
647.253	49.27
647.584	49.11
647.915	49.21
648.245	49.22
648.576	49.12
648.907	49.13
649.238	49.14
649.568	49.13
649.899	49.21
650.229	49.14
650.56	49.17
650.89	48.93
651.221	48.85
651.551	48.74
651.882	48.79
652.212	48.87
652.542	48.85
652.872	48.74
653.203	48.87
653.533	48.84
653.863	48.93
654.193	48.93
654.523	49.03
654.853	48.99
655.183	49.01
655.513	49.05
655.843	49.11
656.172	49.2
656.502	49.14
656.832	49.08
657.162	49.29
657.491	49.36
657.821	49.56
658.15	49.64
658.48	49.76
658.809	49.62
659.139	49.57
659.468	49.53
659.798	49.55
660.127	49.49
660.456	49.47
660.785	49.5
661.115	49.57
661.444	49.62
661.773	49.61
662.102	49.73
662.431	49.8
662.76	49.84
663.089	49.81
663.418	49.99
663.747	50.11
664.076	50.06
664.404	49.87
664.733	49.86
665.062	49.84
665.39	49.86
665.719	50.15
666.048	50.24
666.376	50.36
666.705	50.45
667.033	50.49
667.362	50.66
667.69	50.74
668.018	50.69
668.347	50.7
668.675	50.86
669.003	50.78
669.331	50.85
669.659	50.91
669.987	50.87
670.315	50.93
670.643	50.84
670.971	50.77
671.299	50.8
671.627	50.75
671.955	50.72
672.283	50.79
672.61	50.64
672.938	50.62
673.266	50.59
673.593	50.53
673.921	50.53
674.249	50.56
674.576	50.57
674.904	50.55
675.231	50.45
675.558	50.3
675.886	50.36
676.213	50.29
676.54	50.28
676.867	50.43
677.195	50.47
677.522	50.51
677.849	50.54
678.176	50.69
678.503	50.71
678.83	50.79
679.157	50.77
679.484	50.82
679.81	50.79
680.137	50.89
680.464	50.77
680.791	50.82
681.117	50.7
681.444	50.66
681.771	50.71
682.097	50.93
682.424	51
682.75	50.96
683.077	50.92
683.403	50.89
683.729	50.88
684.056	50.73
684.382	50.95
684.708	50.96
685.034	50.97
685.36	50.98
685.686	51.11
686.012	51.14
686.339	51.11
686.664	51.24
686.99	51.18
687.316	51.46
687.642	51.52
687.968	51.57
688.294	51.59
688.619	51.6
688.945	51.48
689.271	51.5
689.596	51.51
689.922	51.68
690.247	51.6
690.573	51.52
690.898	51.74
691.224	51.55
691.549	51.59
691.874	51.6
692.2	51.61
692.525	51.38
692.85	51.33
693.175	51.49
693.5	51.44
693.825	51.56
694.15	51.64
694.475	51.73
694.8	51.94
695.125	51.93
695.45	52.04
695.775	52.15
696.099	52.09
696.424	52.24
696.749	52.24
697.073	52.41
697.398	52.55
697.723	52.55
698.047	52.53
698.372	52.5
698.696	52.5
699.02	52.5
699.345	52.61
699.669	52.75
699.993	52.81
700.318	52.82
700.642	52.68
700.966	52.47
701.29	52.36
701.614	52.12
701.938	52.18
702.262	52.14
702.586	52.26
702.91	52.31
703.234	52.11
703.557	52.1
703.881	52.03
704.205	51.99
704.529	52.02
704.852	51.95
705.176	52.02
705.499	51.93
705.823	51.84
706.146	51.93
706.47	51.73
706.793	51.61
707.117	51.67
707.44	51.72
707.763	51.66
708.086	51.64
708.409	51.7
708.733	51.57
709.056	51.44
709.379	51.28
709.702	51.15
710.025	51.36
710.348	51.31
710.671	51.4
710.993	51.4
711.316	51.31
711.639	51.58
711.962	51.73
712.284	51.96
712.607	52.14
712.93	52.12
713.252	51.99
713.575	52.09
713.897	51.93
714.22	52.01
714.542	52.26
714.864	52.29
715.187	52.39
715.509	52.42
715.831	52.66
716.153	52.66
716.475	52.87
716.798	52.66
717.12	52.71
717.442	52.62
717.764	52.44
718.085	52.56
718.407	52.35
718.729	52.32
719.051	52.25
719.373	52.17
719.695	51.99
720.016	52.18
720.338	51.99
720.659	52.2
720.981	52.33
721.302	52.3
721.624	52.44
721.945	52.42
722.267	52.79
722.588	52.77
722.909	52.81
723.231	53.02
723.552	53.05
723.873	53.15
724.194	53.44
724.515	53.58
724.836	53.19
725.157	53.2
725.478	52.98
725.799	52.78
726.12	52.81
726.441	52.92
726.762	52.76
727.083	52.81
727.403	52.69
727.724	52.68
728.045	52.39
728.365	52.43
728.686	52.6
729.006	52.38
729.327	52.3
729.647	52.39
729.967	52.19
730.288	52.25
730.608	51.97
730.928	52.06
731.249	52.15
731.569	52.4
731.889	52.58
732.209	52.79
732.529	52.91
732.849	53.02
733.169	53.27
733.489	53.53
733.809	53.61
734.129	53.52
734.448	53.52
734.768	53.64
735.088	53.59
735.408	53.13
735.727	53.11
736.047	53.32
736.366	53.19
736.686	53.45
737.005	53.43
737.325	53.65
737.644	53.66
737.963	53.76
738.283	53.63
738.602	53.66
738.921	53.34
739.24	53.47
739.56	53.51
739.879	53.42
740.198	53.59
740.517	53.49
740.836	53.53
741.155	53.21
741.473	53.34
741.792	53.29
742.111	53.79
742.43	54.1
742.748	54.05
743.067	53.83
743.386	53.63
743.704	53.82
744.023	53.95
744.341	53.47
744.66	53.33
744.978	53.48
745.297	53.38
745.615	53.76
745.933	53.35
746.252	53.08
746.57	52.78
746.888	52.57
747.206	52.6
747.524	52.83
747.842	53.21
748.16	53.45
748.478	53.56
748.796	53.67
749.114	53.52
749.432	53.49
749.749	53.63
750.067	53.8
750.385	53.86
750.703	53.68
751.02	53.85
751.338	53.94
751.655	53.74
751.973	53.81
752.29	53.5
752.608	53.84
752.925	54.23
753.242	54.44
753.56	54.43
753.877	54.56
754.194	54.48
754.511	54.36
754.828	54.26
755.145	54.13
755.462	53.42
755.779	53.49
756.096	53.42
756.413	53.74
756.73	53.61
757.047	53.65
757.364	53.67
757.68	53.47
757.997	53.3
758.314	53.68
758.63	53.57
758.947	54.1
759.264	54.04
759.58	53.96
759.896	54.02
760.213	54.17
760.529	54.33
760.846	54.39
761.162	54.28
761.478	54.09
761.794	54.21
762.11	54.63
762.426	54.11
762.743	54.04
763.059	53.96
763.375	53.93
763.69	53.77
764.006	53.78
764.322	54.11
764.638	54.24
764.954	54.24
765.27	54.36
765.585	54.46
765.901	54.7
766.216	54.62
766.532	54.62
766.848	54.67
767.163	54.83
767.478	54.89
767.794	55.02
768.109	55.22
768.424	54.91
768.74	55.04
769.055	55.82
769.37	56.01
769.685	55.94
770	55.62
770.315	55.85
770.63	56.3
770.945	56.12
771.26	56.28
771.575	56
771.89	55.54
772.205	55.25
772.52	54.95
772.834	55.19
773.149	55.05
773.464	55.22
773.778	54.96
774.093	55.12
774.407	55.15
774.722	55.05
775.036	55.02
775.351	55.45
775.665	55.13
775.979	54.87
776.293	54.82
776.608	55.4
776.922	55.21
777.236	54.7
777.55	54.68
777.864	54.65
778.178	54.8
778.492	55.2
778.806	55.2
779.12	55.31
779.434	55.78
779.747	55.76
780.061	55.26
780.375	54.4
780.689	54.29
781.002	54.78
781.316	54.85
781.629	55.64
781.943	54.83
782.256	54.38
782.57	54.72
782.883	55.02
783.196	54.81
783.51	55.13
783.823	55.2
784.136	55.19
784.449	55.17
784.762	55.06
785.075	55.28
785.388	54.94
785.701	55.13
786.014	54.26
786.327	54.24
786.64	54.23
786.953	54.9
787.266	54.89
787.578	54.57
787.891	54.84
788.204	54.74
788.516	55.28
788.829	55.46
789.141	55.56
789.454	55.46
789.766	55.31
790.079	54.91
790.391	54.37
790.703	54.31
791.016	54.13
791.328	53.86
791.64	53.66
791.952	53.57
792.264	53.55
792.576	54.1
792.888	54.1
793.2	54.67
793.512	55.08
793.824	55.16
794.136	55.4
794.448	54.68
794.76	54.47
795.071	54.07
795.383	54.26
795.695	53.9
796.006	54.01
796.318	54.06
796.629	54.2
796.941	55.36
797.252	55.73
797.564	55.41
797.875	56.45
798.186	56.73
798.497	56.93
798.809	56.49
799.12	56.43
799.431	56.98
799.742	56.6
800.053	56.54
800.364	56.56
800.675	56.27
800.986	56.68
801.297	56.37
801.608	56.6
801.918	57.67
802.229	58.19
802.54	58.67
802.851	59.08
803.161	59.72
803.472	59.07
803.782	59.25
804.093	60.11
804.403	59.13
804.714	59.05
805.024	58.72
805.334	59.38
805.645	59.04
805.955	59.07
806.265	58.87
806.575	58.44
806.885	57.83
807.195	57.45
807.505	57.66
807.815	58.22
808.125	57.57
808.435	56.8
808.745	56.81
809.055	56.19
809.365	56.23
809.674	55.67
809.984	55.83
810.294	55.78
810.603	55.31
810.913	55.41
811.222	55.34
811.532	55.78
811.841	55.45
812.151	55.32
812.46	55.09
812.769	55.62
813.079	56.52
813.388	57.76
813.697	57.58
814.006	57.93
814.315	58.17
814.624	58
814.933	58.28
815.242	57.77
815.551	58.36
815.86	57.79
816.169	57.28
816.478	57.34
816.786	56.76
817.095	56.68
817.404	56.9
817.712	56.79
818.021	56.93
818.33	56.97
818.638	57.15
818.947	57.05
819.255	56.37
819.563	55.23
819.872	55
820.18	55.4
820.488	55.22
820.796	54.96
821.105	55.47
821.413	55.33
821.721	55.33
822.029	55.16
822.337	55.17
822.645	55.39
822.953	55.32
823.26	55.45
823.568	55.41
823.876	55.37
824.184	55.34
824.491	55.31
824.799	55.33
825.107	55.12
825.414	55.03
825.722	54.96
826.029	55.1
826.337	55.1
826.644	55.24
826.951	55.44
827.259	55.36
827.566	55.27
827.873	55.23
828.18	55.29
828.488	55.35
828.795	55.43
829.102	55.49
829.409	55.75
829.716	55.66
830.023	55.21
830.329	54.97
830.636	54.97
830.943	54.94
831.25	55.22
831.557	55.89
831.863	56.09
832.17	57.08
832.476	57.57
832.783	57.53
833.089	57.01
833.396	57
833.702	57.3
834.009	57.7
834.315	57.96
834.621	57.61
834.928	57.36
835.234	57.34
835.54	57.24
835.846	57.04
836.152	56.35
836.458	57.43
836.764	57.8
837.07	58.75
837.376	58.89
837.682	58.34
837.988	57.87
838.293	57.71
838.599	56.63
838.905	56.85
839.211	56.65
839.516	57.59
839.822	58.09
840.127	57.99
840.433	57.7
840.738	57.08
841.044	57.11
841.349	57.66
841.654	57.61
841.959	57.59
842.265	57.12
842.57	58.18
842.875	58.06
843.18	58.85
843.485	57.17
843.79	58.71
844.095	59.27
844.4	58.01
844.705	58.82
845.01	60.23
845.315	59.9
845.619	60.88
845.924	59.99
846.229	58.44
846.533	59.96
846.838	58.89
847.142	59.31
847.447	63.61
847.751	64.26
848.056	66.08
848.36	69.25
848.664	70.76
848.969	71.86
849.273	73.17
849.577	75.79
849.881	76.02
850.185	73.2
850.489	72.1
850.794	75.5
851.097	76.89
851.401	77.08
851.705	76.49
852.009	76.6
852.313	74.84
852.617	76.12
852.92	74
853.224	77.76
853.528	76.48
853.831	71.77
854.135	71.73
854.438	70.41
854.742	67.69
855.045	66.9
855.349	65.51
855.652	64.03
855.955	63.04
856.259	63.21
856.562	64.84
856.865	65.74
857.168	62.91
857.471	60.07
857.774	61.15
858.077	60.48
858.38	61.11
858.683	64.02
858.986	63.06
859.289	64.2
859.592	61.29
859.894	61.72
860.197	63.6
860.5	62.13
860.802	60.56
861.105	59.41
861.407	60.49
861.71	62.27
862.012	64.11
862.315	61.82
862.617	60
862.919	57.88
863.222	57.24
863.524	58.27
863.826	57.53
864.128	56.54
864.43	56.68
864.732	55.45
865.034	52.84
865.336	52.13
865.638	51.72
865.94	50.19
866.242	51.52
866.544	52.15
866.846	54.13
867.147	56.86
867.449	60.36
867.751	60
868.052	56.4
868.354	53.76
868.655	52.68
868.957	53.94
869.258	54.73
869.56	55.16
869.861	58.5
870.162	62.58
870.463	61.91
870.765	62.7
871.066	61.33
871.367	63.92
871.668	65.8
871.969	66.19
872.27	67.44
872.571	69.15
872.872	67.76
873.173	68.33
873.473	66.68
873.774	61.74
874.075	61.97
874.376	66.49
874.676	69.62
874.977	71.18
875.277	70.86
875.578	71.92
875.878	72.85
876.179	69.8
876.479	67.01
876.78	67.71
877.08	68.18
877.38	71.18
877.68	69.9
877.981	68.76
878.281	69.31
878.581	70.11
