Data from MVZ_BU65311_Reflection_00012.txt Node
Date: Tue Nov 19 12:20:22 EST 2019
User: vgr7
Spectrometer: USB2G7710
Scans to average: 3
Trigger mode: 4
Integration Time (sec): 2.000000E-2
Electric dark correction enabled: true
Boxcar width: 10
XAxis mode: Wavelengths
Number of Pixels in Spectrum: 2048
>>>>>Begin Spectral Data<<<<<
177.721	113.23
178.105	961.11
178.488	-107.73
178.871	-68.89
179.254	-51.85
179.636	40.61
180.019	81.48
180.402	258.33
180.785	19.75
181.168	241.98
181.55	174.07
181.933	1183.33
182.316	704.17
182.698	-580.56
183.081	-340.48
183.463	-160.23
183.846	-151.05
184.228	-263.1
184.611	-140.55
184.993	-143.33
185.376	-170.23
185.758	-89.51
186.14	-124.79
186.522	-75.53
186.904	-68.72
187.287	-66.67
187.669	-46.22
188.051	-42.44
188.433	-42.25
188.815	-45.1
189.197	-49.72
189.579	-31.78
189.961	-24.16
190.342	-21.27
190.724	-16.96
191.106	-13.62
191.488	-10.89
191.869	-4.98
192.251	-5.89
192.633	-6.52
193.014	-4.42
193.396	-1.8
193.777	-6.17
194.159	-2.84
194.54	-4.27
194.922	-3.31
195.303	-2.04
195.684	-14.89
196.065	-20.93
196.447	-19.18
196.828	-19.05
197.209	-17.41
197.59	-22.34
197.971	-41.57
198.352	-42.54
198.733	-50.84
199.114	-54.22
199.495	-57.15
199.876	-70.91
200.257	-77.56
200.638	-85.8
201.018	-78.08
201.399	-87.39
201.78	-85.97
202.16	-74.18
202.541	-69.12
202.922	-52.82
203.302	-76.29
203.683	-65.48
204.063	-54.17
204.444	-51.33
204.824	-47.85
205.204	-14.58
205.585	-6.78
205.965	15.73
206.345	12.41
206.725	48.36
207.106	50.34
207.486	50.48
207.866	50.29
208.246	61.87
208.626	64.73
209.006	61.14
209.386	60.74
209.766	61.74
210.145	49.59
210.525	44.19
210.905	33.77
211.285	34.09
211.664	39.04
212.044	32.85
212.424	31.71
212.803	30.48
213.183	9.72
213.562	14.89
213.942	9.6
214.321	16.33
214.701	7.78
215.08	5.2
215.459	7.09
215.838	5.57
216.218	3.69
216.597	0.13
216.976	-14.21
217.355	-23.38
217.734	-30.45
218.113	-28.55
218.492	-38.11
218.871	-31.8
219.25	-28.75
219.629	-37.76
220.008	-37.73
220.387	-47.41
220.766	-45.45
221.144	-33.92
221.523	-50.29
221.902	-46.9
222.28	-43.07
222.659	-29.28
223.037	-28.74
223.416	-34.8
223.794	-38.18
224.173	-42.16
224.551	-29.88
224.929	-20.93
225.308	-19.32
225.686	-19.02
226.064	-16.01
226.442	-9.37
226.821	-10.81
227.199	-12.84
227.577	-14.76
227.955	-6.22
228.333	-5.92
228.711	-3.86
229.089	-2.48
229.467	-2.44
229.845	-0.33
230.222	0.4
230.6	-1.44
230.978	-1.44
231.356	-1.46
231.733	1.31
232.111	1.08
232.488	1.19
232.866	1.81
233.243	2.45
233.621	2.98
233.998	3.45
234.376	3.54
234.753	2.1
235.13	2.45
235.508	2.19
235.885	1.31
236.262	2.64
236.639	2.01
237.016	1.48
237.393	2.07
237.77	2.59
238.147	2.97
238.524	2.39
238.901	1.36
239.278	1.07
239.655	0.6
240.032	1.05
240.409	1.5
240.785	1.71
241.162	1.86
241.539	2.08
241.915	2.16
242.292	2.48
242.668	3.42
243.045	3.9
243.421	4.89
243.798	4.87
244.174	4.85
244.551	5.04
244.927	5.17
245.303	4.83
245.679	4.59
246.056	4.5
246.432	4.53
246.808	5.07
247.184	5.34
247.56	5.44
247.936	5.57
248.312	5.45
248.688	5.24
249.064	5.24
249.44	5.05
249.815	4.91
250.191	4.72
250.567	4.39
250.943	4.18
251.318	3.63
251.694	3.56
252.069	3.53
252.445	3.2
252.82	3.13
253.196	3.54
253.571	3.51
253.947	3
254.322	2.64
254.697	2.53
255.073	2.46
255.448	2.4
255.823	2.41
256.198	2.29
256.573	2.62
256.948	2.78
257.323	2.94
257.698	3.22
258.073	3.22
258.448	3.25
258.823	3.32
259.198	3.57
259.573	3.57
259.948	3.81
260.322	3.81
260.697	3.82
261.072	3.76
261.446	3.64
261.821	3.8
262.195	3.97
262.57	3.89
262.944	3.96
263.319	3.92
263.693	3.87
264.067	4.01
264.442	3.85
264.816	3.81
265.19	3.73
265.564	3.49
265.938	3.66
266.313	3.86
266.687	4.11
267.061	4.02
267.435	4.04
267.809	3.77
268.183	3.5
268.556	3.55
268.93	3.68
269.304	3.59
269.678	3.75
270.051	3.84
270.425	3.93
270.799	3.68
271.172	3.65
271.546	3.81
271.919	3.72
272.293	3.95
272.666	3.96
273.04	4.1
273.413	4.16
273.787	4.14
274.16	4.02
274.533	3.81
274.906	3.84
275.279	3.85
275.653	3.82
276.026	4.18
276.399	4.09
276.772	3.97
277.145	4.11
277.518	3.87
277.891	3.73
278.263	3.79
278.636	4.03
279.009	4.34
279.382	4.23
279.755	4.26
280.127	4.1
280.5	4.3
280.872	4.13
281.245	4.12
281.617	4.05
281.99	4.2
282.362	4.05
282.735	3.98
283.107	3.95
283.479	4
283.852	3.99
284.224	3.99
284.596	4.01
284.968	4.18
285.34	4.21
285.713	4.32
286.085	4.26
286.457	4.17
286.829	4.02
287.201	3.96
287.572	3.93
287.944	4.04
288.316	3.89
288.688	4.04
289.06	4.16
289.431	4.38
289.803	4.24
290.175	4.33
290.546	4.31
290.918	4.37
291.289	4.22
291.661	4.36
292.032	4.41
292.403	4.49
292.775	4.5
293.146	4.59
293.517	4.55
293.889	4.45
294.26	4.45
294.631	4.59
295.002	4.72
295.373	4.59
295.744	4.63
296.115	4.73
296.486	4.69
296.857	4.63
297.228	4.4
297.599	4.39
297.97	4.53
298.34	4.66
298.711	4.59
299.082	4.56
299.452	4.36
299.823	4.29
300.194	4.28
300.564	4.18
300.935	4.23
301.305	4.22
301.676	4.15
302.046	4.29
302.416	4.12
302.787	4.11
303.157	4.21
303.527	4.23
303.897	4.18
304.267	4.16
304.637	4.1
305.008	4.13
305.378	4.25
305.748	4.16
306.117	4.1
306.487	4.17
306.857	4.41
307.227	4.5
307.597	4.55
307.967	4.51
308.336	4.51
308.706	4.49
309.076	4.55
309.445	4.81
309.815	4.79
310.184	4.84
310.554	4.87
310.923	4.78
311.293	4.7
311.662	4.72
312.031	4.81
312.401	4.71
312.77	4.76
313.139	4.81
313.508	4.86
313.877	4.9
314.246	4.7
314.616	4.67
314.985	4.59
315.353	4.69
315.722	4.86
316.091	4.89
316.46	4.81
316.829	4.78
317.198	4.54
317.567	4.53
317.935	4.51
318.304	4.56
318.672	4.96
319.041	4.92
319.41	4.75
319.778	4.48
320.147	4.72
320.515	4.88
320.883	4.75
321.252	4.79
321.62	4.64
321.988	4.82
322.357	4.83
322.725	4.87
323.093	4.84
323.461	4.76
323.829	4.86
324.197	4.94
324.565	5.03
324.933	5.12
325.301	5.12
325.669	5.23
326.037	5.36
326.405	5.16
326.772	5.29
327.14	5.4
327.508	5.46
327.875	5.54
328.243	5.47
328.61	5.51
328.978	5.34
329.346	5.53
329.713	5.6
330.08	5.72
330.448	5.78
330.815	5.72
331.182	5.69
331.55	5.57
331.917	5.71
332.284	5.75
332.651	5.77
333.018	5.83
333.385	5.79
333.752	5.78
334.119	5.83
334.486	5.85
334.853	5.8
335.22	5.94
335.587	5.83
335.954	5.85
336.32	5.82
336.687	5.97
337.054	5.98
337.42	5.98
337.787	5.88
338.153	5.92
338.52	5.84
338.886	5.87
339.253	5.9
339.619	5.78
339.986	5.6
340.352	5.55
340.718	5.68
341.084	5.71
341.451	5.54
341.817	5.58
342.183	5.61
342.549	5.74
342.915	5.65
343.281	5.58
343.647	5.6
344.013	5.66
344.379	5.62
344.745	5.65
345.11	5.55
345.476	5.58
345.842	5.57
346.208	5.85
346.573	5.83
346.939	5.97
347.304	6.06
347.67	6.19
348.035	6.25
348.401	6.23
348.766	6.13
349.132	6.23
349.497	6.14
349.862	6.08
350.228	5.96
350.593	6.07
350.958	6.1
351.323	5.94
351.688	5.92
352.053	5.97
352.418	5.99
352.783	6.03
353.148	6.13
353.513	6.11
353.878	5.9
354.243	5.89
354.608	5.87
354.972	5.88
355.337	5.9
355.702	5.92
356.066	5.87
356.431	5.92
356.795	5.92
357.16	5.93
357.524	6.01
357.889	6.05
358.253	6.05
358.618	6.06
358.982	6.11
359.346	6.09
359.71	6.02
360.075	6.06
360.439	6.13
360.803	6.12
361.167	6.15
361.531	6.19
361.895	6.19
362.259	6.16
362.623	6.2
362.987	6.22
363.351	6.21
363.714	6.2
364.078	6.28
364.442	6.29
364.806	6.31
365.169	6.26
365.533	6.24
365.896	6.23
366.26	6.21
366.623	6.25
366.987	6.23
367.35	6.26
367.714	6.23
368.077	6.22
368.44	6.28
368.803	6.21
369.167	6.19
369.53	6.21
369.893	6.21
370.256	6.13
370.619	6.1
370.982	5.99
371.345	5.99
371.708	5.95
372.071	5.82
372.434	5.79
372.797	5.72
373.159	5.75
373.522	5.75
373.885	5.82
374.247	5.8
374.61	5.81
374.973	5.85
375.335	5.8
375.698	5.73
376.06	5.59
376.423	5.61
376.785	5.63
377.147	5.59
377.51	5.59
377.872	5.55
378.234	5.56
378.596	5.67
378.958	5.63
379.321	5.64
379.683	5.69
380.045	5.66
380.407	5.68
380.769	5.65
381.13	5.56
381.492	5.5
381.854	5.41
382.216	5.49
382.578	5.45
382.939	5.44
383.301	5.43
383.663	5.45
384.024	5.46
384.386	5.45
384.747	5.42
385.109	5.42
385.47	5.38
385.832	5.33
386.193	5.23
386.554	5.17
386.916	5.17
387.277	5.13
387.638	5.15
387.999	5.18
388.36	5.19
388.721	5.21
389.082	5.19
389.443	5.24
389.804	5.21
390.165	5.2
390.526	5.17
390.887	5.14
391.248	5.13
391.609	5.13
391.969	5.11
392.33	5.08
392.691	5.03
393.051	5.08
393.412	5.11
393.772	5.13
394.133	5.15
394.493	5.09
394.854	5.15
395.214	5.16
395.574	5.15
395.935	5.1
396.295	5.09
396.655	5.09
397.015	5.09
397.376	5.11
397.736	5.09
398.096	5.09
398.456	5.14
398.816	5.14
399.176	5.13
399.535	5.08
399.895	5.11
400.255	5.12
400.615	5.1
400.975	5.04
401.334	5.01
401.694	5.04
402.054	5.02
402.413	4.93
402.773	4.91
403.132	4.89
403.492	4.9
403.851	4.91
404.211	4.88
404.57	4.87
404.929	4.8
405.288	4.84
405.648	4.83
406.007	4.77
406.366	4.73
406.725	4.72
407.084	4.78
407.443	4.78
407.802	4.78
408.161	4.77
408.52	4.76
408.879	4.78
409.238	4.82
409.596	4.85
409.955	4.85
410.314	4.87
410.673	4.86
411.031	4.81
411.39	4.84
411.748	4.87
412.107	4.83
412.465	4.82
412.824	4.78
413.182	4.76
413.54	4.79
413.899	4.8
414.257	4.8
414.615	4.77
414.974	4.76
415.332	4.77
415.69	4.77
416.048	4.79
416.406	4.79
416.764	4.77
417.122	4.74
417.48	4.76
417.838	4.73
418.195	4.73
418.553	4.76
418.911	4.71
419.269	4.69
419.626	4.71
419.984	4.73
420.342	4.73
420.699	4.72
421.057	4.7
421.414	4.7
421.772	4.68
422.129	4.65
422.486	4.63
422.844	4.63
423.201	4.63
423.558	4.62
423.915	4.59
424.273	4.57
424.63	4.58
424.987	4.56
425.344	4.57
425.701	4.55
426.058	4.52
426.415	4.53
426.772	4.54
427.128	4.54
427.485	4.51
427.842	4.52
428.199	4.54
428.555	4.53
428.912	4.53
429.269	4.53
429.625	4.55
429.982	4.58
430.338	4.58
430.695	4.56
431.051	4.57
431.407	4.59
431.764	4.58
432.12	4.58
432.476	4.6
432.832	4.58
433.189	4.58
433.545	4.6
433.901	4.61
434.257	4.61
434.613	4.61
434.969	4.62
435.325	4.62
435.681	4.62
436.036	4.64
436.392	4.64
436.748	4.65
437.104	4.67
437.459	4.66
437.815	4.67
438.171	4.65
438.526	4.65
438.882	4.67
439.237	4.67
439.593	4.65
439.948	4.63
440.304	4.64
440.659	4.65
441.014	4.64
441.369	4.65
441.725	4.65
442.08	4.64
442.435	4.65
442.79	4.64
443.145	4.64
443.5	4.65
443.855	4.64
444.21	4.63
444.565	4.64
444.92	4.65
445.275	4.63
445.629	4.64
445.984	4.63
446.339	4.62
446.693	4.63
447.048	4.64
447.403	4.65
447.757	4.67
448.112	4.69
448.466	4.71
448.82	4.7
449.175	4.71
449.529	4.7
449.883	4.69
450.238	4.68
450.592	4.68
450.946	4.69
451.3	4.68
451.654	4.67
452.008	4.68
452.362	4.65
452.716	4.67
453.07	4.69
453.424	4.67
453.778	4.68
454.132	4.68
454.486	4.66
454.839	4.67
455.193	4.66
455.547	4.64
455.9	4.64
456.254	4.66
456.607	4.66
456.961	4.68
457.314	4.68
457.668	4.67
458.021	4.66
458.375	4.65
458.728	4.67
459.081	4.67
459.434	4.68
459.787	4.7
460.141	4.7
460.494	4.72
460.847	4.73
461.2	4.73
461.553	4.72
461.906	4.75
462.259	4.73
462.611	4.72
462.964	4.73
463.317	4.73
463.67	4.73
464.022	4.72
464.375	4.7
464.728	4.7
465.08	4.7
465.433	4.74
465.785	4.72
466.138	4.75
466.49	4.78
466.843	4.77
467.195	4.78
467.547	4.78
467.899	4.78
468.252	4.8
468.604	4.8
468.956	4.83
469.308	4.82
469.66	4.83
470.012	4.82
470.364	4.83
470.716	4.84
471.068	4.84
471.42	4.86
471.772	4.87
472.123	4.89
472.475	4.9
472.827	4.89
473.178	4.91
473.53	4.89
473.882	4.87
474.233	4.87
474.585	4.87
474.936	4.88
475.288	4.85
475.639	4.85
475.99	4.85
476.342	4.86
476.693	4.89
477.044	4.91
477.395	4.91
477.746	4.89
478.097	4.89
478.448	4.89
478.8	4.88
479.15	4.88
479.501	4.88
479.852	4.88
480.203	4.89
480.554	4.9
480.905	4.89
481.255	4.9
481.606	4.9
481.957	4.89
482.307	4.89
482.658	4.9
483.009	4.9
483.359	4.89
483.709	4.89
484.06	4.9
484.41	4.89
484.761	4.9
485.111	4.91
485.461	4.91
485.811	4.91
486.162	4.92
486.512	4.93
486.862	4.93
487.212	4.93
487.562	4.93
487.912	4.93
488.262	4.95
488.612	4.95
488.961	4.95
489.311	4.97
489.661	4.98
490.011	4.98
490.36	4.97
490.71	4.97
491.06	4.97
491.409	4.97
491.759	4.98
492.108	4.97
492.458	4.97
492.807	4.98
493.157	5
493.506	5
493.855	5.01
494.204	5.04
494.554	5.05
494.903	5.07
495.252	5.08
495.601	5.08
495.95	5.08
496.299	5.09
496.648	5.1
496.997	5.12
497.346	5.14
497.695	5.18
498.043	5.22
498.392	5.24
498.741	5.25
499.09	5.29
499.438	5.34
499.787	5.38
500.135	5.38
500.484	5.39
500.832	5.44
501.181	5.47
501.529	5.52
501.878	5.57
502.226	5.61
502.574	5.66
502.923	5.7
503.271	5.76
503.619	5.8
503.967	5.84
504.315	5.87
504.663	5.95
505.011	5.99
505.359	6.03
505.707	6.09
506.055	6.17
506.403	6.23
506.751	6.27
507.098	6.34
507.446	6.43
507.794	6.5
508.141	6.56
508.489	6.65
508.837	6.68
509.184	6.75
509.531	6.82
509.879	6.88
510.226	6.97
510.574	7.06
510.921	7.15
511.268	7.25
511.616	7.36
511.963	7.45
512.31	7.57
512.657	7.68
513.004	7.78
513.351	7.87
513.698	8
514.045	8.12
514.392	8.26
514.739	8.41
515.086	8.56
515.432	8.7
515.779	8.84
516.126	9.01
516.473	9.18
516.819	9.34
517.166	9.5
517.512	9.63
517.859	9.78
518.205	9.92
518.552	10.06
518.898	10.2
519.245	10.34
519.591	10.49
519.937	10.67
520.283	10.84
520.629	11.01
520.976	11.2
521.322	11.41
521.668	11.61
522.014	11.8
522.36	12.01
522.706	12.22
523.052	12.46
523.398	12.69
523.743	12.96
524.089	13.23
524.435	13.47
524.781	13.74
525.126	13.95
525.472	14.17
525.817	14.35
526.163	14.54
526.509	14.71
526.854	14.88
527.199	15.02
527.545	15.16
527.89	15.3
528.235	15.42
528.581	15.57
528.926	15.71
529.271	15.87
529.616	16.02
529.961	16.19
530.306	16.32
530.651	16.49
530.996	16.63
531.341	16.81
531.686	16.98
532.031	17.14
532.376	17.34
532.721	17.52
533.065	17.74
533.41	17.94
533.755	18.12
534.099	18.32
534.444	18.51
534.788	18.71
535.133	18.91
535.477	19.15
535.822	19.37
536.166	19.59
536.51	19.86
536.855	20.1
537.199	20.36
537.543	20.64
537.887	20.87
538.231	21.18
538.576	21.36
538.92	21.63
539.264	21.87
539.608	22.08
539.951	22.31
540.295	22.5
540.639	22.72
540.983	22.95
541.327	23.15
541.671	23.37
542.014	23.58
542.358	23.81
542.701	23.98
543.045	24.18
543.389	24.39
543.732	24.57
544.075	24.76
544.419	24.96
544.762	25.13
545.105	25.39
545.449	25.57
545.792	25.86
546.135	26.12
546.478	26.4
546.821	26.65
547.165	26.94
547.508	27.26
547.851	27.51
548.194	27.78
548.536	28.05
548.879	28.33
549.222	28.61
549.565	28.83
549.908	29.15
550.25	29.41
550.593	29.67
550.936	29.9
551.278	30.19
551.621	30.44
551.963	30.77
552.306	31.01
552.648	31.33
552.991	31.55
553.333	31.76
553.675	32.02
554.017	32.26
554.36	32.42
554.702	32.61
555.044	32.83
555.386	33.08
555.728	33.28
556.07	33.44
556.412	33.68
556.754	33.92
557.096	34.13
557.438	34.38
557.78	34.56
558.121	34.8
558.463	35
558.805	35.23
559.147	35.44
559.488	35.7
559.83	35.87
560.171	36.15
560.513	36.33
560.854	36.48
561.196	36.74
561.537	36.99
561.878	37.14
562.22	37.37
562.561	37.58
562.902	37.81
563.243	38.05
563.584	38.21
563.925	38.46
564.266	38.61
564.607	38.75
564.948	38.94
565.289	39.13
565.63	39.31
565.971	39.52
566.312	39.71
566.653	39.86
566.993	40
567.334	40.15
567.675	40.36
568.015	40.59
568.356	40.74
568.696	40.92
569.037	41.07
569.377	41.21
569.718	41.34
570.058	41.49
570.398	41.62
570.739	41.82
571.079	41.95
571.419	42.09
571.759	42.23
572.099	42.38
572.439	42.54
572.779	42.65
573.119	42.72
573.459	42.81
573.799	42.95
574.139	43.11
574.479	43.23
574.819	43.35
575.158	43.44
575.498	43.61
575.838	43.71
576.177	43.81
576.517	43.96
576.856	44.12
577.196	44.23
577.535	44.42
577.875	44.5
578.214	44.59
578.553	44.8
578.893	44.96
579.232	45.12
579.571	45.27
579.91	45.5
580.25	45.7
580.589	45.8
580.928	45.9
581.267	46.01
581.606	46.17
581.945	46.31
582.283	46.36
582.622	46.45
582.961	46.53
583.3	46.57
583.639	46.65
583.977	46.72
584.316	46.84
584.654	46.95
584.993	47.07
585.332	47.23
585.67	47.32
586.008	47.41
586.347	47.49
586.685	47.54
587.024	47.51
587.362	47.66
587.7	47.83
588.038	47.97
588.376	48.06
588.715	48.11
589.053	48.14
589.391	48.35
589.729	48.37
590.067	48.56
590.404	48.8
590.742	48.94
591.08	49.1
591.418	49.17
591.756	49.23
592.093	49.35
592.431	49.39
592.769	49.53
593.106	49.74
593.444	49.87
593.781	50.03
594.119	50.11
594.456	50.08
594.793	50.15
595.131	50.2
595.468	50.23
595.805	50.31
596.143	50.39
596.48	50.45
596.817	50.55
597.154	50.6
597.491	50.6
597.828	50.67
598.165	50.66
598.502	50.75
598.839	50.76
599.176	50.83
599.512	50.95
599.849	50.91
600.186	50.85
600.523	50.95
600.859	50.96
601.196	51.1
601.532	51.17
601.869	51.2
602.205	51.21
602.542	51.27
602.878	51.28
603.215	51.34
603.551	51.42
603.887	51.45
604.223	51.55
604.56	51.6
604.896	51.67
605.232	51.71
605.568	51.74
605.904	51.83
606.24	51.88
606.576	51.88
606.912	51.96
607.248	52.06
607.583	52.02
607.919	52.11
608.255	52.15
608.591	52.3
608.926	52.33
609.262	52.45
609.597	52.54
609.933	52.69
610.268	52.73
610.604	52.77
610.939	52.91
611.275	52.95
611.61	52.96
611.945	52.92
612.281	53.02
612.616	53.06
612.951	53.21
613.286	53.17
613.621	53.24
613.956	53.36
614.291	53.38
614.626	53.48
614.961	53.42
615.296	53.38
615.631	53.4
615.966	53.46
616.3	53.53
616.635	53.55
616.97	53.58
617.304	53.6
617.639	53.6
617.973	53.63
618.308	53.61
618.642	53.66
618.977	53.82
619.311	53.94
619.646	54.06
619.98	54.07
620.314	54.22
620.648	54.3
620.983	54.31
621.317	54.38
621.651	54.44
621.985	54.59
622.319	54.7
622.653	54.76
622.987	54.8
623.321	54.76
623.655	54.68
623.988	54.77
624.322	54.88
624.656	54.86
624.99	54.78
625.323	54.81
625.657	54.92
625.99	54.85
626.324	54.79
626.657	54.79
626.991	54.81
627.324	54.81
627.658	54.83
627.991	54.87
628.324	54.86
628.657	54.87
628.991	55
629.324	55
629.657	54.97
629.99	54.98
630.323	55.1
630.656	55.2
630.989	55.15
631.322	55.2
631.655	55.25
631.987	55.32
632.32	55.4
632.653	55.43
632.986	55.57
633.318	55.62
633.651	55.73
633.984	55.68
634.316	55.6
634.649	55.68
634.981	55.7
635.313	55.67
635.646	55.64
635.978	55.55
636.31	55.57
636.643	55.6
636.975	55.66
637.307	55.64
637.639	55.83
637.971	55.87
638.303	55.82
638.635	55.9
638.967	55.98
639.299	55.97
639.631	56
639.963	55.94
640.295	55.96
640.626	55.89
640.958	55.87
641.29	56.05
641.621	55.99
641.953	56.06
642.285	56.21
642.616	56.42
642.948	56.48
643.279	56.56
643.61	56.58
643.942	56.5
644.273	56.55
644.604	56.49
644.936	56.45
645.267	56.53
645.598	56.59
645.929	56.5
646.26	56.47
646.591	56.42
646.922	56.52
647.253	56.46
647.584	56.49
647.915	56.49
648.245	56.47
648.576	56.6
648.907	56.51
649.238	56.53
649.568	56.4
649.899	56.43
650.229	56.51
650.56	56.47
650.89	56.56
651.221	56.59
651.551	56.74
651.882	56.88
652.212	56.75
652.542	56.7
652.872	56.9
653.203	56.9
653.533	56.94
653.863	56.83
654.193	56.95
654.523	56.91
654.853	56.99
655.183	56.99
655.513	56.84
655.843	56.89
656.172	56.86
656.502	56.87
656.832	56.84
657.162	56.93
657.491	57.18
657.821	57.18
658.15	57.22
658.48	57.06
658.809	57.07
659.139	57.11
659.468	57.19
659.798	57.01
660.127	57.12
660.456	57.18
660.785	57.28
661.115	57.27
661.444	57.4
661.773	57.51
662.102	57.53
662.431	57.63
662.76	57.68
663.089	57.81
663.418	57.79
663.747	57.88
664.076	57.76
664.404	57.56
664.733	57.65
665.062	57.71
665.39	57.78
665.719	57.71
666.048	57.81
666.376	57.78
666.705	57.82
667.033	57.83
667.362	57.83
667.69	57.77
668.018	57.76
668.347	57.66
668.675	57.56
669.003	57.69
669.331	57.67
669.659	57.7
669.987	57.6
670.315	57.72
670.643	57.63
670.971	57.55
671.299	57.64
671.627	57.55
671.955	57.5
672.283	57.59
672.61	57.69
672.938	57.64
673.266	57.63
673.593	57.65
673.921	57.72
674.249	57.74
674.576	57.8
674.904	57.84
675.231	57.9
675.558	57.81
675.886	57.84
676.213	57.89
676.54	58.09
676.867	58.16
677.195	58.17
677.522	58.27
677.849	58.47
678.176	58.33
678.503	58.35
678.83	58.33
679.157	58.29
679.484	58.32
679.81	58.45
680.137	58.51
680.464	58.61
680.791	58.49
681.117	58.56
681.444	58.4
681.771	58.4
682.097	58.35
682.424	58.52
682.75	58.4
683.077	58.39
683.403	58.15
683.729	58.02
684.056	57.97
684.382	57.95
684.708	57.76
685.034	57.77
685.36	57.9
685.686	57.96
686.012	57.99
686.339	57.97
686.664	57.94
686.99	57.99
687.316	57.86
687.642	57.88
687.968	57.97
688.294	58.14
688.619	58.15
688.945	58.28
689.271	58.31
689.596	58.43
689.922	58.45
690.247	58.4
690.573	58.53
690.898	58.7
691.224	58.74
691.549	58.86
691.874	58.97
692.2	58.9
692.525	58.84
692.85	58.63
693.175	58.55
693.5	58.66
693.825	58.64
694.15	58.92
694.475	58.94
694.8	59.06
695.125	59.12
695.45	59.17
695.775	58.98
696.099	59.11
696.424	59.11
696.749	59.21
697.073	59.41
697.398	59.4
697.723	59.35
698.047	59.43
698.372	59.5
698.696	59.62
699.02	59.66
699.345	59.61
699.669	59.79
699.993	59.8
700.318	59.59
700.642	59.56
700.966	59.47
701.29	59.55
701.614	59.3
701.938	59.14
702.262	59.07
702.586	59.17
702.91	59.19
703.234	59.13
703.557	59.22
703.881	59.29
704.205	59.19
704.529	59.17
704.852	59.16
705.176	59.27
705.499	59.21
705.823	59.27
706.146	59.42
706.47	59.33
706.793	59.28
707.117	59.42
707.44	59.57
707.763	59.62
708.086	59.55
708.409	59.58
708.733	59.89
709.056	60.03
709.379	60.2
709.702	59.93
710.025	59.87
710.348	59.95
710.671	59.88
710.993	60
711.316	60.12
711.639	59.98
711.962	59.87
712.284	59.85
712.607	59.75
712.93	59.74
713.252	59.73
713.575	59.94
713.897	59.9
714.22	59.88
714.542	60.02
714.864	59.86
715.187	59.93
715.509	59.88
715.831	59.67
716.153	59.52
716.475	59.61
716.798	59.62
717.12	59.29
717.442	59.25
717.764	59.43
718.085	59.18
718.407	59.25
718.729	59.11
719.051	58.98
719.373	58.99
719.695	59.13
720.016	59.25
720.338	59.13
720.659	59.37
720.981	59.38
721.302	59.08
721.624	59.44
721.945	59.64
722.267	59.92
722.588	60.24
722.909	60.1
723.231	59.85
723.552	60.04
723.873	60.15
724.194	60.16
724.515	60.16
724.836	60.35
725.157	60.4
725.478	60.57
725.799	60.72
726.12	60.59
726.441	60.3
726.762	60.29
727.083	60.03
727.403	59.9
727.724	59.85
728.045	59.93
728.365	59.68
728.686	59.62
729.006	59.48
729.327	59.2
729.647	59.21
729.967	59.35
730.288	59.48
730.608	59.58
730.928	59.57
731.249	59.32
731.569	59.38
731.889	59.31
732.209	59.32
732.529	59.28
732.849	59.24
733.169	59.31
733.489	59.39
733.809	59.69
734.129	59.74
734.448	59.88
734.768	59.73
735.088	59.9
735.408	59.61
735.727	59.55
736.047	60.01
736.366	60.02
736.686	60.01
737.005	59.98
737.325	59.72
737.644	59.69
737.963	59.76
738.283	60.13
738.602	60.38
738.921	60.3
739.24	60.39
739.56	60.57
739.879	60.76
740.198	60.6
740.517	60.39
740.836	60.45
741.155	60.41
741.473	60.73
741.792	60.47
742.111	60.5
742.43	60.46
742.748	60.2
743.067	60.74
743.386	61.02
743.704	60.84
744.023	61.03
744.341	61.17
744.66	61.23
744.978	60.86
745.297	60.7
745.615	60.63
745.933	60.6
746.252	60.87
746.57	60.8
746.888	60.85
747.206	61.14
747.524	60.86
747.842	60.88
748.16	60.63
748.478	61.17
748.796	61.11
749.114	61.38
749.432	61.26
749.749	60.95
750.067	60.64
750.385	60.64
750.703	60.67
751.02	60.89
751.338	60.63
751.655	60.66
751.973	60.52
752.29	60.7
752.608	60.74
752.925	60.8
753.242	61.03
753.56	60.69
753.877	60.69
754.194	60.93
754.511	60.69
754.828	60.59
755.145	60.61
755.462	60.96
755.779	60.84
756.096	60.88
756.413	61.06
756.73	61.58
757.047	61.92
757.364	62.28
757.68	61.95
757.997	62.26
758.314	62.37
758.63	62.66
758.947	62.66
759.264	62.27
759.58	62.17
759.896	61.88
760.213	62.08
760.529	61.75
760.846	62.25
761.162	62.5
761.478	62.63
761.794	62.69
762.11	62.51
762.426	62.27
762.743	61.99
763.059	61.83
763.375	61.62
763.69	61.56
764.006	61.28
764.322	61.06
764.638	61.3
764.954	60.69
765.27	60.49
765.585	60.45
765.901	60.79
766.216	60.73
766.532	60.47
766.848	60.41
767.163	60.64
767.478	60.09
767.794	59.92
768.109	60.2
768.424	59.96
768.74	60.17
769.055	60.43
769.37	60.73
769.685	60.76
770	60.75
770.315	60.7
770.63	60.76
770.945	61.09
771.26	60.84
771.575	61.43
771.89	61.36
772.205	61.14
772.52	60.87
772.834	60.91
773.149	61.35
773.464	61.18
773.778	61.24
774.093	61.38
774.407	60.97
774.722	60.59
775.036	60.3
775.351	60.06
775.665	59.42
775.979	59.79
776.293	59.9
776.608	60.13
776.922	59.94
777.236	60.28
777.55	59.6
777.864	59.39
778.178	59.21
778.492	59.45
778.806	59.35
779.12	59.04
779.434	58.74
779.747	58.57
780.061	58.98
780.375	58.64
780.689	58.3
781.002	58.66
781.316	58.28
781.629	58.27
781.943	58.38
782.256	58.6
782.57	57.96
782.883	57.83
783.196	57.48
783.51	57.25
783.823	56.73
784.136	57.34
784.449	57.8
784.762	57.98
785.075	57.31
785.388	57.72
785.701	57.9
786.014	57.93
786.327	57.93
786.64	58.12
786.953	58.48
787.266	58.44
787.578	58.51
787.891	58.84
788.204	58.7
788.516	58.5
788.829	58.61
789.141	58.82
789.454	58.69
789.766	58.79
790.079	58.69
790.391	58.98
790.703	58.74
791.016	58.5
791.328	58.82
791.64	60.05
791.952	59.78
792.264	59.74
792.576	59.92
792.888	60.12
793.2	60.19
793.512	60.54
793.824	61
794.136	60.25
794.448	60.05
794.76	60.11
795.071	60.06
795.383	59.65
795.695	60.17
796.006	60.02
796.318	59.99
796.629	60.45
796.941	60.42
797.252	60.42
797.564	60.5
797.875	60.45
798.186	59.95
798.497	60.41
798.809	60.4
799.12	60.15
799.431	59.84
799.742	59.57
800.053	58.63
800.364	58.44
800.675	59.01
800.986	58.82
801.297	58.48
801.608	58.64
801.918	59.59
802.229	59.44
802.54	59.87
802.851	59.77
803.161	59.94
803.472	59.78
803.782	59.9
804.093	58.97
804.403	58.96
804.714	58.39
805.024	58.12
805.334	58.06
805.645	58.72
805.955	59.7
806.265	60.3
806.575	60.74
806.885	60.35
807.195	60.41
807.505	61.18
807.815	61.96
808.125	62.18
808.435	61.31
808.745	60.33
809.055	60
809.365	59.71
809.674	59.58
809.984	59.59
810.294	59.78
810.603	60.86
810.913	60.22
811.222	60.89
811.532	60.67
811.841	61.92
812.151	61.19
812.46	60.19
812.769	59.58
813.079	60.21
813.388	60.52
813.697	60.33
814.006	59.1
814.315	58.67
814.624	58.48
814.933	58.87
815.242	59.09
815.551	59.9
815.86	60.72
816.169	60.07
816.478	59.52
816.786	59.01
817.095	57.99
817.404	59.32
817.712	58.93
818.021	59.47
818.33	59.01
818.638	59.08
818.947	59.8
819.255	60.29
819.563	60.25
819.872	60.63
820.18	61.26
820.488	61.77
820.796	62.13
821.105	61.99
821.413	62.23
821.721	62.38
822.029	61.9
822.337	62.23
822.645	62.29
822.953	62.37
823.26	62.58
823.568	62.75
823.876	62.51
824.184	62.72
824.491	62.76
824.799	62.84
825.107	62.94
825.414	63.04
825.722	63.04
826.029	63.07
826.337	63.17
826.644	62.76
826.951	62.76
827.259	62.65
827.566	63.07
827.873	63.06
828.18	63.09
828.488	63.64
828.795	63.22
829.102	63.4
829.409	63.7
829.716	63.73
830.023	64.02
830.329	64.38
830.636	64.22
830.943	64.23
831.25	64.73
831.557	64.83
831.863	64.21
832.17	63.97
832.476	64.14
832.783	64.32
833.089	64.55
833.396	64.64
833.702	64.62
834.009	63.89
834.315	63.65
834.621	63.82
834.928	63.48
835.234	63.27
835.54	63.39
835.846	62.84
836.152	63.24
836.458	62.62
836.764	62.25
837.07	61.89
837.376	61.49
837.682	60.41
837.988	60.21
838.293	59.97
838.599	59.79
838.905	59.87
839.211	59.34
839.516	59.61
839.822	60.17
840.127	60.01
840.433	60.26
840.738	60.76
841.044	59.99
841.349	60.54
841.654	60.23
841.959	60.19
842.265	59.6
842.57	58.18
842.875	58.33
843.18	58.82
843.485	59.33
843.79	60.91
844.095	60.87
844.4	61.3
844.705	61.5
845.01	61.73
845.315	61.05
845.619	60.61
845.924	60.64
846.229	60.73
846.533	60.4
846.838	61.07
847.142	59.69
847.447	60.21
847.751	58.4
848.056	57.02
848.36	56.37
848.664	58.32
848.969	59.38
849.273	60.93
849.577	59.08
849.881	57.71
850.185	55.31
850.489	56.21
850.794	55.26
851.097	54.63
851.401	52.96
851.705	52.65
852.009	52.32
852.313	54.37
852.617	52.08
852.92	53.07
853.224	52.2
853.528	51.1
853.831	52.61
854.135	53.38
854.438	55.61
854.742	55.04
855.045	54.48
855.349	52.68
855.652	52.4
855.955	52.36
856.259	56.63
856.562	57.3
856.865	54.72
857.168	55.34
857.471	56.83
857.774	60.66
858.077	58.83
858.38	59.76
858.683	56.87
858.986	58.05
859.289	57.81
859.592	56.61
859.894	55.62
860.197	53.44
860.5	53.04
860.802	52.57
861.105	53.3
861.407	52.81
861.71	53.15
862.012	52.29
862.315	50.57
862.617	48.1
862.919	47.23
863.222	49.9
863.524	49.78
863.826	49.65
864.128	47.73
864.43	51.34
864.732	50.54
865.034	50.3
865.336	50.66
865.638	47.99
865.94	48.13
866.242	49.88
866.544	50.21
866.846	52.15
867.147	52.66
867.449	50.43
867.751	50.57
868.052	51.71
868.354	49.79
868.655	50.09
868.957	50.34
869.258	49.46
869.56	48.51
869.861	49.56
870.162	48.84
870.463	49.61
870.765	48.66
871.066	49.28
871.367	48.68
871.668	47.66
871.969	50.68
872.27	51.36
872.571	50.97
872.872	51.74
873.173	51.95
873.473	52.63
873.774	55.67
874.075	57.13
874.376	56.54
874.676	59.82
874.977	62.22
875.277	60.78
875.578	63.51
875.878	64.18
876.179	63.03
876.479	64.86
876.78	64.09
877.08	63.46
877.38	62.42
877.68	64.68
877.981	65.28
878.281	64.62
878.581	66.23
