Data from MVZ_BU123442_Reflection_00011.txt Node
Date: Tue Nov 19 12:12:37 EST 2019
User: vgr7
Spectrometer: USB2G7710
Scans to average: 3
Trigger mode: 4
Integration Time (sec): 2.000000E-2
Electric dark correction enabled: true
Boxcar width: 10
XAxis mode: Wavelengths
Number of Pixels in Spectrum: 2048
>>>>>Begin Spectral Data<<<<<
177.721	333.38
178.105	515.58
178.488	255.52
178.871	144.07
179.254	342.11
179.636	224.22
180.019	137.74
180.402	-23.08
180.785	-143.37
181.168	-140.48
181.55	-19.53
181.933	35.2
182.316	67.67
182.698	93.6
183.081	39.12
183.463	17.38
183.846	17.29
184.228	4.47
184.611	-33.91
184.993	332
185.376	1882.61
185.758	-216.21
186.14	-407.32
186.522	-661.47
186.904	356
187.287	274.5
187.669	63.64
188.051	-13.71
188.433	-28.13
188.815	-40.09
189.197	-85.94
189.579	-90.34
189.961	-94.22
190.342	-58.2
190.724	-1.63
191.106	-9.15
191.488	-5.15
191.869	-0.68
192.251	-10.99
192.633	-16.37
193.014	-31
193.396	-28.07
193.777	-17.68
194.159	-46.66
194.54	-61.72
194.922	-71.04
195.303	-82.13
195.684	-70.07
196.065	-77.18
196.447	-69.76
196.828	-110.64
197.209	-69.91
197.59	-47.4
197.971	-12.66
198.352	-16.01
198.733	-33.67
199.114	-8.9
199.495	-20.81
199.876	-34.34
200.257	-54.03
200.638	-62.26
201.018	-73.76
201.399	-89.93
201.78	-87.13
202.16	-61.15
202.541	-113.36
202.922	-110.93
203.302	-139.87
203.683	-521.62
204.063	-288.06
204.444	-457.25
204.824	-106.59
205.204	-84.92
205.585	-131
205.965	-1238.98
206.345	400.61
206.725	632.11
207.106	384.77
207.486	604.35
207.866	33.47
208.246	-82.57
208.626	839.13
209.006	16.44
209.386	40.7
209.766	40.87
210.145	1.25
210.525	21.66
210.905	50.17
211.285	51.63
211.664	66.12
212.044	88.24
212.424	56.43
212.803	50.95
213.183	32.33
213.562	38.7
213.942	33.4
214.321	23.12
214.701	31.76
215.08	15.16
215.459	32.12
215.838	16.62
216.218	-2.18
216.597	13.57
216.976	6.66
217.355	10.37
217.734	1.01
218.113	12.88
218.492	24.21
218.871	23.01
219.25	16.63
219.629	0.87
220.008	0.76
220.387	15.25
220.766	17.54
221.144	17.64
221.523	12.13
221.902	17.04
222.28	27.03
222.659	26.96
223.037	16.31
223.416	7.45
223.794	7.54
224.173	2.88
224.551	4.82
224.929	5.17
225.308	6.75
225.686	7.02
226.064	-2.97
226.442	-2.07
226.821	1.12
227.199	5.99
227.577	5.06
227.955	0.96
228.333	-4.87
228.711	-6.5
229.089	-7.03
229.467	-4.21
229.845	-6.59
230.222	-3.88
230.6	-4.81
230.978	-0.79
231.356	-2.9
231.733	-1.76
232.111	0.22
232.488	-3.44
232.866	0.99
233.243	0.52
233.621	0.72
233.998	0.83
234.376	-0.33
234.753	-1.05
235.13	-1.02
235.508	0.01
235.885	0.63
236.262	0.23
236.639	1.61
237.016	2.59
237.393	2.78
237.77	5.21
238.147	4.14
238.524	3.8
238.901	3.1
239.278	4.36
239.655	3.75
240.032	4.45
240.409	4.8
240.785	4.58
241.162	4.66
241.539	4.12
241.915	4.92
242.292	4.64
242.668	4.5
243.045	4.59
243.421	4.53
243.798	4.43
244.174	4.82
244.551	4.73
244.927	4.49
245.303	4.29
245.679	4.17
246.056	4.16
246.432	4.13
246.808	4.3
247.184	4.28
247.56	4.37
247.936	4.4
248.312	4.31
248.688	4.31
249.064	4.14
249.44	4.25
249.815	3.97
250.191	4.07
250.567	3.92
250.943	3.83
251.318	3.81
251.694	3.92
252.069	3.72
252.445	3.64
252.82	3.76
253.196	3.81
253.571	3.71
253.947	4.04
254.322	4.1
254.697	4.02
255.073	3.87
255.448	3.51
255.823	3.31
256.198	3.4
256.573	3.25
256.948	3.25
257.323	3.23
257.698	3.34
258.073	3.53
258.448	3.79
258.823	3.65
259.198	3.6
259.573	3.46
259.948	3.42
260.322	3.35
260.697	3.54
261.072	3.5
261.446	3.47
261.821	3.32
262.195	3.26
262.57	3.34
262.944	3.33
263.319	3.48
263.693	3.14
264.067	3.03
264.442	2.97
264.816	3.13
265.19	3.15
265.564	3.21
265.938	2.98
266.313	2.92
266.687	3.02
267.061	3.11
267.435	3.22
267.809	3.35
268.183	3.17
268.556	2.83
268.93	2.97
269.304	2.83
269.678	2.99
270.051	3.08
270.425	2.93
270.799	2.74
271.172	2.55
271.546	3.04
271.919	3.18
272.293	3.29
272.666	3.15
273.04	3.2
273.413	3.06
273.787	2.96
274.16	2.82
274.533	2.87
274.906	2.83
275.279	2.8
275.653	2.68
276.026	2.92
276.399	2.95
276.772	2.73
277.145	2.94
277.518	2.85
277.891	2.77
278.263	2.88
278.636	3.21
279.009	3.21
279.382	3
279.755	2.87
280.127	2.74
280.5	2.87
280.872	2.69
281.245	2.8
281.617	2.93
281.99	2.92
282.362	2.95
282.735	2.82
283.107	2.93
283.479	2.97
283.852	2.84
284.224	2.96
284.596	3
284.968	3.01
285.34	2.98
285.713	2.99
286.085	2.98
286.457	2.85
286.829	3.06
287.201	3.19
287.572	3.26
287.944	3.33
288.316	3.29
288.688	3.53
289.06	3.48
289.431	3.63
289.803	3.83
290.175	3.75
290.546	3.97
290.918	3.81
291.289	3.72
291.661	3.8
292.032	3.82
292.403	3.94
292.775	3.9
293.146	4.02
293.517	4.01
293.889	3.84
294.26	3.85
294.631	3.86
295.002	3.79
295.373	3.84
295.744	3.8
296.115	3.8
296.486	3.77
296.857	3.69
297.228	3.56
297.599	3.38
297.97	3.5
298.34	3.51
298.711	3.61
299.082	3.76
299.452	3.81
299.823	3.8
300.194	3.73
300.564	3.53
300.935	3.44
301.305	3.48
301.676	3.62
302.046	3.69
302.416	3.73
302.787	3.75
303.157	3.74
303.527	3.8
303.897	3.79
304.267	3.81
304.637	3.97
305.008	3.88
305.378	4.05
305.748	3.84
306.117	3.72
306.487	3.78
306.857	3.79
307.227	3.86
307.597	3.94
307.967	4.05
308.336	4.24
308.706	4.24
309.076	4.45
309.445	4.5
309.815	4.44
310.184	4.44
310.554	4.34
310.923	4.19
311.293	4.25
311.662	4.3
312.031	4.3
312.401	4.33
312.77	4.44
313.139	4.45
313.508	4.64
313.877	4.69
314.246	4.62
314.616	4.64
314.985	4.65
315.353	4.49
315.722	4.5
316.091	4.5
316.46	4.6
316.829	4.46
317.198	4.49
317.567	4.61
317.935	4.49
318.304	4.6
318.672	4.78
319.041	4.68
319.41	4.74
319.778	4.8
320.147	4.88
320.515	4.94
320.883	4.88
321.252	5.02
321.62	4.94
321.988	4.93
322.357	4.94
322.725	4.85
323.093	4.93
323.461	4.97
323.829	5.08
324.197	5.05
324.565	5.07
324.933	5.03
325.301	4.85
325.669	4.86
326.037	4.8
326.405	4.73
326.772	4.76
327.14	4.84
327.508	4.88
327.875	4.76
328.243	4.84
328.61	4.89
328.978	4.67
329.346	4.82
329.713	5
330.08	5.06
330.448	5.1
330.815	5.14
331.182	5.14
331.55	5.13
331.917	5.2
332.284	5.23
332.651	5.27
333.018	5.47
333.385	5.61
333.752	5.65
334.119	5.67
334.486	5.74
334.853	5.7
335.22	5.74
335.587	5.89
335.954	5.74
336.32	5.78
336.687	5.85
337.054	5.73
337.42	5.68
337.787	5.71
338.153	5.79
338.52	5.92
338.886	5.99
339.253	6.05
339.619	6.02
339.986	5.86
340.352	5.96
340.718	6.03
341.084	6.06
341.451	6.11
341.817	6.11
342.183	6.02
342.549	5.97
342.915	5.88
343.281	5.93
343.647	5.89
344.013	5.8
344.379	5.77
344.745	5.86
345.11	5.89
345.476	5.87
345.842	5.89
346.208	5.89
346.573	5.84
346.939	5.9
347.304	5.87
347.67	6.09
348.035	6
348.401	6
348.766	5.89
349.132	5.86
349.497	6
349.862	6.08
350.228	6.14
350.593	6.2
350.958	6.25
351.323	6.42
351.688	6.52
352.053	6.6
352.418	6.6
352.783	6.51
353.148	6.47
353.513	6.42
353.878	6.32
354.243	6.26
354.608	6.24
354.972	6.33
355.337	6.25
355.702	6.3
356.066	6.34
356.431	6.37
356.795	6.48
357.16	6.47
357.524	6.45
357.889	6.35
358.253	6.23
358.618	6.12
358.982	6.01
359.346	5.99
359.71	5.95
360.075	5.94
360.439	5.94
360.803	6.02
361.167	6.02
361.531	6.09
361.895	6.12
362.259	6.15
362.623	6.15
362.987	6.12
363.351	6.08
363.714	6
364.078	6.01
364.442	5.92
364.806	5.88
365.169	5.91
365.533	6.01
365.896	6.05
366.26	6.04
366.623	6.1
366.987	6.14
367.35	6.24
367.714	6.29
368.077	6.27
368.44	6.23
368.803	6.15
369.167	6.09
369.53	6.04
369.893	5.94
370.256	5.88
370.619	5.96
370.982	5.89
371.345	5.9
371.708	5.87
372.071	5.79
372.434	5.8
372.797	5.79
373.159	5.69
373.522	5.64
373.885	5.59
374.247	5.61
374.61	5.54
374.973	5.44
375.335	5.39
375.698	5.44
376.06	5.41
376.423	5.48
376.785	5.44
377.147	5.38
377.51	5.34
377.872	5.34
378.234	5.26
378.596	5.28
378.958	5.3
379.321	5.25
379.683	5.36
380.045	5.32
380.407	5.29
380.769	5.28
381.13	5.26
381.492	5.3
381.854	5.26
382.216	5.28
382.578	5.2
382.939	5.14
383.301	5.06
383.663	5.05
384.024	5
384.386	5.01
384.747	5.07
385.109	5.07
385.47	5.01
385.832	4.98
386.193	4.96
386.554	4.87
386.916	4.87
387.277	4.84
387.638	4.85
387.999	4.86
388.36	4.83
388.721	4.85
389.082	4.84
389.443	4.83
389.804	4.83
390.165	4.87
390.526	4.88
390.887	4.93
391.248	4.91
391.609	4.92
391.969	4.89
392.33	4.85
392.691	4.8
393.051	4.78
393.412	4.81
393.772	4.82
394.133	4.86
394.493	4.85
394.854	4.83
395.214	4.78
395.574	4.71
395.935	4.72
396.295	4.74
396.655	4.73
397.015	4.68
397.376	4.66
397.736	4.64
398.096	4.64
398.456	4.59
398.816	4.6
399.176	4.57
399.535	4.59
399.895	4.57
400.255	4.58
400.615	4.6
400.975	4.52
401.334	4.5
401.694	4.49
402.054	4.45
402.413	4.45
402.773	4.47
403.132	4.49
403.492	4.45
403.851	4.41
404.211	4.4
404.57	4.39
404.929	4.35
405.288	4.32
405.648	4.28
406.007	4.33
406.366	4.3
406.725	4.3
407.084	4.3
407.443	4.31
407.802	4.34
408.161	4.37
408.52	4.4
408.879	4.43
409.238	4.41
409.596	4.42
409.955	4.42
410.314	4.4
410.673	4.36
411.031	4.34
411.39	4.32
411.748	4.31
412.107	4.29
412.465	4.29
412.824	4.3
413.182	4.31
413.54	4.28
413.899	4.27
414.257	4.26
414.615	4.25
414.974	4.23
415.332	4.21
415.69	4.18
416.048	4.16
416.406	4.1
416.764	4.1
417.122	4.11
417.48	4.09
417.838	4.1
418.195	4.1
418.553	4.13
418.911	4.13
419.269	4.13
419.626	4.12
419.984	4.12
420.342	4.13
420.699	4.12
421.057	4.11
421.414	4.09
421.772	4.08
422.129	4.07
422.486	4.08
422.844	4.07
423.201	4.07
423.558	4.09
423.915	4.12
424.273	4.12
424.63	4.13
424.987	4.13
425.344	4.14
425.701	4.14
426.058	4.13
426.415	4.14
426.772	4.13
427.128	4.14
427.485	4.16
427.842	4.16
428.199	4.17
428.555	4.19
428.912	4.21
429.269	4.21
429.625	4.2
429.982	4.2
430.338	4.23
430.695	4.22
431.051	4.2
431.407	4.18
431.764	4.18
432.12	4.18
432.476	4.18
432.832	4.17
433.189	4.18
433.545	4.18
433.901	4.15
434.257	4.15
434.613	4.16
434.969	4.15
435.325	4.15
435.681	4.14
436.036	4.12
436.392	4.13
436.748	4.15
437.104	4.18
437.459	4.17
437.815	4.16
438.171	4.16
438.526	4.17
438.882	4.17
439.237	4.16
439.593	4.15
439.948	4.14
440.304	4.15
440.659	4.15
441.014	4.14
441.369	4.16
441.725	4.16
442.08	4.16
442.435	4.18
442.79	4.16
443.145	4.15
443.5	4.15
443.855	4.14
444.21	4.13
444.565	4.13
444.92	4.14
445.275	4.14
445.629	4.12
445.984	4.12
446.339	4.14
446.693	4.13
447.048	4.11
447.403	4.11
447.757	4.1
448.112	4.09
448.466	4.1
448.82	4.09
449.175	4.09
449.529	4.08
449.883	4.05
450.238	4.05
450.592	4.06
450.946	4.04
451.3	4.04
451.654	4.03
452.008	4
452.362	4
452.716	4.01
453.07	4.03
453.424	4.03
453.778	4
454.132	3.99
454.486	4.02
454.839	4.02
455.193	4.02
455.547	4.05
455.9	4.05
456.254	4.04
456.607	4.05
456.961	4.07
457.314	4.07
457.668	4.1
458.021	4.12
458.375	4.12
458.728	4.12
459.081	4.12
459.434	4.12
459.787	4.13
460.141	4.12
460.494	4.13
460.847	4.14
461.2	4.15
461.553	4.16
461.906	4.17
462.259	4.18
462.611	4.2
462.964	4.19
463.317	4.2
463.67	4.23
464.022	4.26
464.375	4.26
464.728	4.27
465.08	4.28
465.433	4.29
465.785	4.32
466.138	4.35
466.49	4.38
466.843	4.42
467.195	4.41
467.547	4.41
467.899	4.41
468.252	4.4
468.604	4.4
468.956	4.44
469.308	4.46
469.66	4.45
470.012	4.46
470.364	4.48
470.716	4.47
471.068	4.48
471.42	4.49
471.772	4.49
472.123	4.51
472.475	4.5
472.827	4.49
473.178	4.51
473.53	4.53
473.882	4.49
474.233	4.46
474.585	4.46
474.936	4.49
475.288	4.49
475.639	4.51
475.99	4.53
476.342	4.51
476.693	4.46
477.044	4.47
477.395	4.47
477.746	4.46
478.097	4.47
478.448	4.48
478.8	4.46
479.15	4.43
479.501	4.42
479.852	4.4
480.203	4.4
480.554	4.38
480.905	4.38
481.255	4.4
481.606	4.42
481.957	4.43
482.307	4.42
482.658	4.43
483.009	4.41
483.359	4.41
483.709	4.42
484.06	4.44
484.41	4.44
484.761	4.44
485.111	4.44
485.461	4.44
485.811	4.45
486.162	4.45
486.512	4.46
486.862	4.47
487.212	4.48
487.562	4.48
487.912	4.49
488.262	4.48
488.612	4.48
488.961	4.48
489.311	4.48
489.661	4.49
490.011	4.48
490.36	4.48
490.71	4.48
491.06	4.48
491.409	4.47
491.759	4.49
492.108	4.48
492.458	4.49
492.807	4.5
493.157	4.5
493.506	4.51
493.855	4.52
494.204	4.53
494.554	4.54
494.903	4.57
495.252	4.6
495.601	4.63
495.95	4.64
496.299	4.66
496.648	4.68
496.997	4.72
497.346	4.76
497.695	4.79
498.043	4.82
498.392	4.85
498.741	4.9
499.09	4.91
499.438	4.96
499.787	4.96
500.135	4.99
500.484	5.01
500.832	5.03
501.181	5.07
501.529	5.09
501.878	5.12
502.226	5.15
502.574	5.17
502.923	5.19
503.271	5.23
503.619	5.28
503.967	5.34
504.315	5.34
504.663	5.36
505.011	5.42
505.359	5.49
505.707	5.53
506.055	5.59
506.403	5.66
506.751	5.71
507.098	5.79
507.446	5.84
507.794	5.9
508.141	5.96
508.489	6.06
508.837	6.12
509.184	6.18
509.531	6.22
509.879	6.29
510.226	6.35
510.574	6.44
510.921	6.5
511.268	6.55
511.616	6.62
511.963	6.74
512.31	6.79
512.657	6.84
513.004	6.88
513.351	6.92
513.698	6.98
514.045	7.02
514.392	7.08
514.739	7.17
515.086	7.24
515.432	7.35
515.779	7.41
516.126	7.5
516.473	7.55
516.819	7.62
517.166	7.7
517.512	7.77
517.859	7.85
518.205	7.89
518.552	7.97
518.898	8.05
519.245	8.08
519.591	8.16
519.937	8.22
520.283	8.3
520.629	8.36
520.976	8.42
521.322	8.51
521.668	8.59
522.014	8.68
522.36	8.76
522.706	8.82
523.052	8.92
523.398	8.99
523.743	9.11
524.089	9.22
524.435	9.33
524.781	9.43
525.126	9.51
525.472	9.6
525.817	9.68
526.163	9.75
526.509	9.82
526.854	9.88
527.199	9.96
527.545	10.02
527.89	10.1
528.235	10.19
528.581	10.27
528.926	10.34
529.271	10.4
529.616	10.49
529.961	10.57
530.306	10.63
530.651	10.72
530.996	10.82
531.341	10.89
531.686	10.98
532.031	11.07
532.376	11.17
532.721	11.28
533.065	11.37
533.41	11.5
533.755	11.62
534.099	11.76
534.444	11.87
534.788	12.01
535.133	12.13
535.477	12.27
535.822	12.38
536.166	12.53
536.51	12.68
536.855	12.83
537.199	13.01
537.543	13.17
537.887	13.36
538.231	13.52
538.576	13.75
538.92	13.94
539.264	14.13
539.608	14.29
539.951	14.46
540.295	14.63
540.639	14.75
540.983	14.91
541.327	15.07
541.671	15.23
542.014	15.38
542.358	15.53
542.701	15.68
543.045	15.87
543.389	16.03
543.732	16.19
544.075	16.36
544.419	16.51
544.762	16.7
545.105	16.88
545.449	17.09
545.792	17.25
546.135	17.43
546.478	17.64
546.821	17.84
547.165	18.08
547.508	18.31
547.851	18.55
548.194	18.79
548.536	18.97
548.879	19.16
549.222	19.37
549.565	19.57
549.908	19.78
550.25	19.96
550.593	20.2
550.936	20.44
551.278	20.68
551.621	20.89
551.963	21.14
552.306	21.36
552.648	21.59
552.991	21.81
553.333	22.07
553.675	22.3
554.017	22.55
554.36	22.78
554.702	23
555.044	23.19
555.386	23.38
555.728	23.6
556.07	23.87
556.412	24.19
556.754	24.44
557.096	24.7
557.438	24.96
557.78	25.19
558.121	25.43
558.463	25.66
558.805	25.94
559.147	26.18
559.488	26.42
559.83	26.65
560.171	26.86
560.513	27.06
560.854	27.28
561.196	27.54
561.537	27.71
561.878	27.99
562.22	28.23
562.561	28.45
562.902	28.68
563.243	28.88
563.584	29.06
563.925	29.22
564.266	29.41
564.607	29.59
564.948	29.78
565.289	29.96
565.63	30.19
565.971	30.33
566.312	30.5
566.653	30.67
566.993	30.82
567.334	30.98
567.675	31.11
568.015	31.23
568.356	31.32
568.696	31.49
569.037	31.61
569.377	31.78
569.718	31.95
570.058	32.13
570.398	32.29
570.739	32.41
571.079	32.61
571.419	32.78
571.759	32.94
572.099	33.1
572.439	33.26
572.779	33.37
573.119	33.53
573.459	33.68
573.799	33.85
574.139	33.99
574.479	34.21
574.819	34.42
575.158	34.57
575.498	34.74
575.838	34.89
576.177	35.02
576.517	35.16
576.856	35.28
577.196	35.41
577.535	35.49
577.875	35.63
578.214	35.82
578.553	35.87
578.893	36.01
579.232	36.08
579.571	36.22
579.91	36.35
580.25	36.47
580.589	36.52
580.928	36.65
581.267	36.71
581.606	36.77
581.945	36.86
582.283	37.01
582.622	37.15
582.961	37.26
583.3	37.39
583.639	37.51
583.977	37.63
584.316	37.71
584.654	37.91
584.993	38.1
585.332	38.14
585.67	38.28
586.008	38.35
586.347	38.52
586.685	38.62
587.024	38.72
587.362	38.87
587.7	39.03
588.038	39.09
588.376	39.19
588.715	39.27
589.053	39.34
589.391	39.43
589.729	39.51
590.067	39.64
590.404	39.72
590.742	39.84
591.08	39.96
591.418	40.04
591.756	40.12
592.093	40.11
592.431	40.24
592.769	40.34
593.106	40.41
593.444	40.46
593.781	40.49
594.119	40.57
594.456	40.64
594.793	40.71
595.131	40.84
595.468	40.9
595.805	40.91
596.143	40.97
596.48	40.97
596.817	41.02
597.154	41.01
597.491	41.1
597.828	41.07
598.165	41.08
598.502	41.13
598.839	41.23
599.176	41.32
599.512	41.28
599.849	41.37
600.186	41.45
600.523	41.53
600.859	41.63
601.196	41.68
601.532	41.72
601.869	41.8
602.205	41.78
602.542	41.84
602.878	41.94
603.215	42.03
603.551	42.1
603.887	42.11
604.223	42.17
604.56	42.2
604.896	42.32
605.232	42.4
605.568	42.48
605.904	42.46
606.24	42.5
606.576	42.64
606.912	42.69
607.248	42.73
607.583	42.77
607.919	42.78
608.255	42.83
608.591	42.87
608.926	42.94
609.262	43.01
609.597	43.15
609.933	43.2
610.268	43.23
610.604	43.29
610.939	43.41
611.275	43.43
611.61	43.49
611.945	43.43
612.281	43.47
612.616	43.51
612.951	43.6
613.286	43.61
613.621	43.58
613.956	43.64
614.291	43.69
614.626	43.66
614.961	43.77
615.296	43.82
615.631	43.86
615.966	43.76
616.3	43.78
616.635	43.73
616.97	43.78
617.304	43.81
617.639	43.81
617.973	43.79
618.308	43.95
618.642	43.96
618.977	44.04
619.311	44.09
619.646	44.21
619.98	44.27
620.314	44.34
620.648	44.42
620.983	44.43
621.317	44.53
621.651	44.69
621.985	44.67
622.319	44.64
622.653	44.65
622.987	44.72
623.321	44.75
623.655	44.75
623.988	44.8
624.322	44.88
624.656	44.99
624.99	45.01
625.323	44.9
625.657	45.01
625.99	45.04
626.324	45.04
626.657	45.03
626.991	45.01
627.324	45.05
627.658	45.08
627.991	45.12
628.324	45.13
628.657	45.09
628.991	45.09
629.324	45.16
629.657	45.29
629.99	45.39
630.323	45.46
630.656	45.55
630.989	45.6
631.322	45.68
631.655	45.61
631.987	45.71
632.32	45.75
632.653	45.71
632.986	45.8
633.318	45.81
633.651	45.8
633.984	45.83
634.316	45.77
634.649	45.76
634.981	45.64
635.313	45.65
635.646	45.73
635.978	45.76
636.31	45.81
636.643	45.7
636.975	45.66
637.307	45.6
637.639	45.54
637.971	45.46
638.303	45.35
638.635	45.37
638.967	45.43
639.299	45.5
639.631	45.48
639.963	45.41
640.295	45.44
640.626	45.5
640.958	45.47
641.29	45.59
641.621	45.66
641.953	45.84
642.285	45.77
642.616	45.73
642.948	45.76
643.279	45.74
643.61	45.77
643.942	45.76
644.273	45.89
644.604	46.07
644.936	46.12
645.267	46.1
645.598	46.18
645.929	46.13
646.26	46.12
646.591	46.08
646.922	46.13
647.253	46.19
647.584	46.24
647.915	46.33
648.245	46.33
648.576	46.28
648.907	46.31
649.238	46.43
649.568	46.41
649.899	46.46
650.229	46.47
650.56	46.57
650.89	46.56
651.221	46.46
651.551	46.44
651.882	46.42
652.212	46.38
652.542	46.45
652.872	46.59
653.203	46.61
653.533	46.78
653.863	46.76
654.193	46.79
654.523	46.84
654.853	46.73
655.183	46.78
655.513	46.93
655.843	46.92
656.172	46.94
656.502	47.09
656.832	47.09
657.162	47.21
657.491	47.27
657.821	47.34
658.15	47.44
658.48	47.48
658.809	47.53
659.139	47.65
659.468	47.65
659.798	47.55
660.127	47.56
660.456	47.57
660.785	47.67
661.115	47.7
661.444	47.65
661.773	47.7
662.102	47.62
662.431	47.5
662.76	47.55
663.089	47.46
663.418	47.39
663.747	47.51
664.076	47.48
664.404	47.45
664.733	47.46
665.062	47.44
665.39	47.38
665.719	47.4
666.048	47.36
666.376	47.42
666.705	47.37
667.033	47.49
667.362	47.44
667.69	47.37
668.018	47.28
668.347	47.19
668.675	47.35
669.003	47.54
669.331	47.69
669.659	47.6
669.987	47.79
670.315	47.75
670.643	47.68
670.971	47.64
671.299	47.64
671.627	47.68
671.955	47.77
672.283	47.79
672.61	47.86
672.938	48.02
673.266	47.93
673.593	47.95
673.921	47.97
674.249	47.92
674.576	48.05
674.904	48.14
675.231	48.15
675.558	48.1
675.886	48.15
676.213	48.09
676.54	48.22
676.867	48.2
677.195	48.24
677.522	48.34
677.849	48.47
678.176	48.56
678.503	48.57
678.83	48.59
679.157	48.6
679.484	48.6
679.81	48.52
680.137	48.65
680.464	48.83
680.791	48.89
681.117	49
681.444	49.1
681.771	49.25
682.097	49.4
682.424	49.44
682.75	49.38
683.077	49.31
683.403	49.41
683.729	49.51
684.056	49.67
684.382	49.7
684.708	49.61
685.034	49.64
685.36	49.65
685.686	49.55
686.012	49.56
686.339	49.5
686.664	49.72
686.99	49.61
687.316	49.5
687.642	49.35
687.968	49.37
688.294	49.28
688.619	49.21
688.945	49.16
689.271	49.1
689.596	49.05
689.922	49.22
690.247	49.07
690.573	48.83
690.898	48.67
691.224	48.52
691.549	48.59
691.874	48.46
692.2	48.52
692.525	48.7
692.85	48.9
693.175	49.03
693.5	48.75
693.825	48.68
694.15	48.7
694.475	48.89
694.8	48.96
695.125	49.08
695.45	49.01
695.775	49.08
696.099	49.19
696.424	49.35
696.749	49.36
697.073	49.47
697.398	49.57
697.723	49.6
698.047	49.64
698.372	49.8
698.696	49.82
699.02	49.84
699.345	49.84
699.669	49.68
699.993	49.8
700.318	49.87
700.642	50.09
700.966	50.07
701.29	50.24
701.614	50.31
701.938	50.22
702.262	50.22
702.586	50.22
702.91	50.19
703.234	50.23
703.557	50.23
703.881	50.16
704.205	50.15
704.529	50.04
704.852	50.05
705.176	49.81
705.499	49.84
705.823	49.98
706.146	49.96
706.47	49.94
706.793	49.7
707.117	49.65
707.44	49.46
707.763	49.41
708.086	49.27
708.409	49.02
708.733	49.09
709.056	49.3
709.379	49.63
709.702	49.57
710.025	49.52
710.348	49.58
710.671	49.56
710.993	49.71
711.316	50.08
711.639	50.16
711.962	50.31
712.284	50.31
712.607	50.15
712.93	50.03
713.252	50.11
713.575	50.28
713.897	50.39
714.22	50.53
714.542	50.73
714.864	50.82
715.187	50.93
715.509	50.91
715.831	50.89
716.153	50.54
716.475	50.93
716.798	50.65
717.12	50.6
717.442	50.82
717.764	50.88
718.085	50.68
718.407	50.8
718.729	50.69
719.051	50.79
719.373	50.91
719.695	51.23
720.016	51.29
720.338	51.2
720.659	51.24
720.981	51.2
721.302	51.4
721.624	50.92
721.945	51.04
722.267	51.02
722.588	50.89
722.909	50.94
723.231	50.71
723.552	51.19
723.873	51.16
724.194	50.98
724.515	50.65
724.836	50.68
725.157	50.7
725.478	50.84
725.799	50.91
726.12	50.72
726.441	50.67
726.762	50.74
727.083	50.91
727.403	51.18
727.724	51.31
728.045	51.14
728.365	51.49
728.686	51.21
729.006	51.31
729.327	51.27
729.647	51.57
729.967	51.68
730.288	51.6
730.608	51.64
730.928	51.58
731.249	51.69
731.569	51.77
731.889	51.65
732.209	51.49
732.529	51.49
732.849	51.63
733.169	51.34
733.489	51.25
733.809	51.12
734.129	51.11
734.448	51.01
734.768	50.92
735.088	50.84
735.408	51.19
735.727	51.23
736.047	51.42
736.366	51.18
736.686	50.87
737.005	50.6
737.325	50.73
737.644	50.72
737.963	50.95
738.283	50.74
738.602	50.81
738.921	51.09
739.24	50.87
739.56	50.96
739.879	51.03
740.198	51.18
740.517	50.91
740.836	50.65
741.155	50.74
741.473	50.73
741.792	50.91
742.111	50.77
742.43	51
742.748	50.92
743.067	51.05
743.386	51.14
743.704	51.62
744.023	51.84
744.341	52.01
744.66	52.05
744.978	52.46
745.297	52.29
745.615	52.07
745.933	52.36
746.252	52
746.57	52.48
746.888	52.62
747.206	52.74
747.524	52.78
747.842	52.7
748.16	52.87
748.478	52.96
748.796	52.65
749.114	51.98
749.432	51.9
749.749	51.62
750.067	51.74
750.385	51.3
750.703	51.01
751.02	51.11
751.338	50.63
751.655	50.43
751.973	50.81
752.29	51.16
752.608	51.22
752.925	51.28
753.242	51.05
753.56	50.8
753.877	50.89
754.194	50.77
754.511	50.95
754.828	50.92
755.145	50.78
755.462	51.24
755.779	51.93
756.096	52.33
756.413	52.66
756.73	52.78
757.047	53.09
757.364	53.03
757.68	53.12
757.997	53.84
758.314	53.8
758.63	53.56
758.947	53.35
759.264	53.42
759.58	53.82
759.896	53.91
760.213	54.21
760.529	54.35
760.846	54.58
761.162	54.51
761.478	54.36
761.794	54.2
762.11	54.1
762.426	53.64
762.743	53.33
763.059	53.39
763.375	53.1
763.69	53.17
764.006	53.27
764.322	52.92
764.638	52.79
764.954	52.85
765.27	53.01
765.585	52.77
765.901	52.53
766.216	52.44
766.532	52.33
766.848	52.25
767.163	52.38
767.478	52.26
767.794	52.07
768.109	51.99
768.424	51.9
768.74	51.79
769.055	51.88
769.37	51.99
769.685	51.85
770	52.28
770.315	52.23
770.63	52.22
770.945	52.47
771.26	52.02
771.575	52.14
771.89	51.93
772.205	51.71
772.52	51.79
772.834	51.73
773.149	51.76
773.464	51.25
773.778	50.94
774.093	51.11
774.407	51.59
774.722	51.56
775.036	51.92
775.351	52.04
775.665	52.03
775.979	52.26
776.293	52.09
776.608	51.43
776.922	50.67
777.236	50.85
777.55	50.83
777.864	51.2
778.178	50.94
778.492	51.01
778.806	51.82
779.12	51.72
779.434	52.01
779.747	51.98
780.061	52.38
780.375	52.7
780.689	52.42
781.002	52.18
781.316	52.78
781.629	52.89
781.943	52.76
782.256	52.92
782.57	52.76
782.883	53.07
783.196	53.44
783.51	54.19
783.823	53.92
784.136	53.9
784.449	53.92
784.762	54.6
785.075	54.67
785.388	54.33
785.701	54.21
786.014	54.31
786.327	54.6
786.64	54.66
786.953	54.31
787.266	54.45
787.578	54.7
787.891	54.64
788.204	54.25
788.516	54.51
788.829	54.32
789.141	54.17
789.454	53.98
789.766	54.44
790.079	54.27
790.391	54.23
790.703	54.35
791.016	54.06
791.328	53.44
791.64	53.34
791.952	54.15
792.264	54.15
792.576	53.91
792.888	52.87
793.2	53.41
793.512	53.08
793.824	53.46
794.136	53.58
794.448	53.01
794.76	53.07
795.071	52.89
795.383	52.83
795.695	53.09
796.006	52.07
796.318	52.26
796.629	52.4
796.941	52.65
797.252	52.74
797.564	52.5
797.875	52.51
798.186	52.91
798.497	52.05
798.809	52.65
799.12	52.6
799.431	53.75
799.742	53.12
800.053	54.02
800.364	53.77
800.675	52.57
800.986	52.98
801.297	53.07
801.608	53
801.918	53.15
802.229	53.15
802.54	54.57
802.851	54.29
803.161	54.3
803.472	54.13
803.782	54.23
804.093	54.48
804.403	54.85
804.714	55.11
805.024	55.81
805.334	55.94
805.645	56.04
805.955	55.71
806.265	55.93
806.575	55.92
806.885	55.78
807.195	56.05
807.505	55.81
807.815	56.79
808.125	56.81
808.435	57.07
808.745	57.05
809.055	56.68
809.365	56.21
809.674	56.43
809.984	56.64
810.294	56.56
810.603	57.02
810.913	56.62
811.222	55.48
811.532	55.31
811.841	54.67
812.151	55.07
812.46	55.29
812.769	55.75
813.079	55.79
813.388	55.67
813.697	56.9
814.006	57.48
814.315	56.5
814.624	56.91
814.933	56.77
815.242	56.55
815.551	56.88
815.86	57.59
816.169	57.23
816.478	57.16
816.786	57.8
817.095	57.8
817.404	57.51
817.712	58.46
818.021	57.63
818.33	58.05
818.638	57.96
818.947	57.61
819.255	56.82
819.563	56.01
819.872	56.23
820.18	55.83
820.488	55.28
820.796	55.07
821.105	55.15
821.413	55.28
821.721	55.21
822.029	55.24
822.337	55.29
822.645	55.44
822.953	55.21
823.26	54.97
823.568	55.25
823.876	55.45
824.184	55.3
824.491	55.32
824.799	55.4
825.107	55.23
825.414	55.15
825.722	55.25
826.029	55.38
826.337	55.11
826.644	55.29
826.951	55.66
827.259	55.85
827.566	55.95
827.873	55.97
828.18	56.27
828.488	56.32
828.795	56.27
829.102	56.15
829.409	56.33
829.716	56.56
830.023	56.01
830.329	55.91
830.636	55.73
830.943	55.96
831.25	55.81
831.557	55.67
831.863	55.99
832.17	55.95
832.476	55.87
832.783	56.56
833.089	56.19
833.396	56.05
833.702	55.61
834.009	55.99
834.315	55.59
834.621	55.19
834.928	55.1
835.234	54.84
835.54	55.18
835.846	55.76
836.152	55.71
836.458	55.99
836.764	55.68
837.07	55.77
837.376	55.27
837.682	54.87
837.988	55.53
838.293	55.42
838.599	55.08
838.905	55.03
839.211	54.94
839.516	55.63
839.822	55.57
840.127	56.67
840.433	55.68
840.738	55.95
841.044	55.99
841.349	55.41
841.654	55.85
841.959	54.94
842.265	54.29
842.57	53.85
842.875	54.42
843.18	55.29
843.485	56.16
843.79	56.35
844.095	57.08
844.4	56.91
844.705	57.87
845.01	59.6
845.315	60.06
845.619	59.19
845.924	58.28
846.229	59.37
846.533	57.67
846.838	57.76
847.142	57.34
847.447	57.95
847.751	56.88
848.056	58.22
848.36	59.7
848.664	61.47
848.969	61.11
849.273	58.09
849.577	57.61
849.881	57.16
850.185	58.66
850.489	57.59
850.794	57.15
851.097	56.07
851.401	54.4
851.705	55.72
852.009	56.3
852.313	54.72
852.617	52.16
852.92	52.09
853.224	49.66
853.528	51.63
853.831	49.33
854.135	51.2
854.438	48.22
854.742	48.34
855.045	45.97
855.349	47.24
855.652	50.15
855.955	49.89
856.259	48.2
856.562	46.7
856.865	47.91
857.168	48.37
857.471	47.36
857.774	48.54
858.077	50.9
858.38	50.67
858.683	50.63
858.986	51
859.289	50.66
859.592	52.61
859.894	50.57
860.197	51.28
860.5	51.79
860.802	52.5
861.105	48.76
861.407	48.95
861.71	49.12
862.012	49.02
862.315	48.58
862.617	52.11
862.919	54.42
863.222	54.81
863.524	52.1
863.826	51.05
864.128	48.87
864.43	47.45
864.732	46.87
865.034	49.15
865.336	50.48
865.638	53.84
865.94	55.89
866.242	56.42
866.544	60.93
866.846	61.44
867.147	63.12
867.449	66.74
867.751	65.12
868.052	67.19
868.354	69.95
868.655	71.27
868.957	67.55
869.258	67.48
869.56	66.27
869.861	67.82
870.162	69.96
870.463	71.63
870.765	70.66
871.066	73.32
871.367	73.89
871.668	70.19
871.969	67.4
872.27	66.43
872.571	66.74
872.872	63.7
873.173	61.34
873.473	61.88
873.774	58.37
874.075	61.88
874.376	60.3
874.676	57
874.977	56.98
875.277	56.72
875.578	56.41
875.878	56.26
876.179	57.01
876.479	56.08
876.78	55.45
877.08	54.74
877.38	52.87
877.68	51.85
877.981	54.45
878.281	55.26
878.581	54.52
