Data from MVZ_BU95633_Reflection_00008.txt Node
Date: Tue Nov 19 12:21:10 EST 2019
User: vgr7
Spectrometer: USB2G7710
Scans to average: 3
Trigger mode: 4
Integration Time (sec): 2.000000E-2
Electric dark correction enabled: true
Boxcar width: 10
XAxis mode: Wavelengths
Number of Pixels in Spectrum: 2048
>>>>>Begin Spectral Data<<<<<
177.721	107.04
178.105	87.92
178.488	97.63
178.871	226.67
179.254	-239.39
179.636	281.59
180.019	283.15
180.402	28.57
180.785	114.04
181.168	35.9
181.55	107.37
181.933	134.61
182.316	137.83
182.698	56.82
183.081	70.65
183.463	35.54
183.846	42.11
184.228	18.59
184.611	-9.73
184.993	44.09
185.376	518.8
185.758	734.92
186.14	-709.52
186.522	-346.74
186.904	-226.44
187.287	-744.96
187.669	-177.48
188.051	-257.01
188.433	-328.05
188.815	-215.28
189.197	-216.72
189.579	-172.91
189.961	-216.07
190.342	-310.51
190.724	-273.74
191.106	-264.28
191.488	-192.52
191.869	-104.94
192.251	-81.37
192.633	-99.03
193.014	-73.6
193.396	-102.69
193.777	-102.51
194.159	-102.54
194.54	-121.08
194.922	-178
195.303	-132.8
195.684	-155.09
196.065	-98.77
196.447	-84.05
196.828	-112.32
197.209	-90.85
197.59	-43.55
197.971	-40.75
198.352	-41.87
198.733	-40.63
199.114	-53.37
199.495	-50.31
199.876	-41.18
200.257	-81.75
200.638	-92.61
201.018	-84.96
201.399	-59.96
201.78	-47.6
202.16	-43.31
202.541	-36.61
202.922	-38.56
203.302	-49.24
203.683	-47.16
204.063	-49.26
204.444	-36.1
204.824	-13.98
205.204	-18.53
205.585	-25.56
205.965	-26.14
206.345	-14.62
206.725	-5.54
207.106	-1.04
207.486	-0.88
207.866	-6.61
208.246	6.74
208.626	-12.47
209.006	-17
209.386	-6.08
209.766	-9.55
210.145	-10.03
210.525	-12.1
210.905	-0.25
211.285	13.35
211.664	19.7
212.044	16.01
212.424	14.74
212.803	9.77
213.183	10.12
213.562	9.31
213.942	8.66
214.321	-7.41
214.701	-23.51
215.08	-26.4
215.459	-24.59
215.838	-33.13
216.218	-54.82
216.597	-40.77
216.976	-72.65
217.355	-85.13
217.734	-89.78
218.113	-83.94
218.492	-98.12
218.871	-86.56
219.25	-114.74
219.629	-143.21
220.008	-127.46
220.387	-128.42
220.766	-110.63
221.144	-113.37
221.523	-130.68
221.902	-101.32
222.28	-65.74
222.659	-51.63
223.037	-54.01
223.416	-43.16
223.794	-34.15
224.173	-32.3
224.551	-23.41
224.929	-20.29
225.308	-21.32
225.686	-26.9
226.064	-29.2
226.442	-22.97
226.821	-25.75
227.199	-22.97
227.577	-16.16
227.955	-13
228.333	-12.06
228.711	-14.12
229.089	-13.42
229.467	-8.98
229.845	-11.04
230.222	-9.32
230.6	-9.59
230.978	-6.76
231.356	-9.67
231.733	-9.43
232.111	-9.84
232.488	-10.49
232.866	-7.78
233.243	-5.74
233.621	-2.68
233.998	-1.8
234.376	-2.48
234.753	-1.03
235.13	-0.17
235.508	-1.71
235.885	-1.95
236.262	-0.64
236.639	-0.11
237.016	-0.04
237.393	-1.16
237.77	-0.11
238.147	-0.41
238.524	0.11
238.901	-0.28
239.278	0.34
239.655	0.29
240.032	0.5
240.409	-0.02
240.785	0.68
241.162	0.81
241.539	1.39
241.915	1.3
242.292	2.2
242.668	1.78
243.045	2.26
243.421	2.6
243.798	2.6
244.174	2.68
244.551	2.7
244.927	2.71
245.303	2.59
245.679	2.83
246.056	2.73
246.432	2.9
246.808	3.09
247.184	3.03
247.56	2.9
247.936	3.2
248.312	3.65
248.688	3.47
249.064	3.34
249.44	3
249.815	3.14
250.191	2.75
250.567	2.91
250.943	2.56
251.318	2.52
251.694	2.41
252.069	2.41
252.445	2.56
252.82	3
253.196	3.15
253.571	3.01
253.947	3.14
254.322	2.9
254.697	3.07
255.073	3.24
255.448	3.5
255.823	3.42
256.198	3.34
256.573	3.4
256.948	3.35
257.323	3.51
257.698	3.63
258.073	3.52
258.448	3.52
258.823	3.5
259.198	3.57
259.573	3.58
259.948	3.5
260.322	3.25
260.697	3.06
261.072	3.2
261.446	3.15
261.821	3.1
262.195	3.17
262.57	3.18
262.944	3.21
263.319	3.2
263.693	3.04
264.067	3.09
264.442	3.14
264.816	3.33
265.19	3.3
265.564	3.02
265.938	3.28
266.313	3.23
266.687	3.3
267.061	3.26
267.435	3.18
267.809	3.16
268.183	3.35
268.556	3.52
268.93	3.5
269.304	3.6
269.678	3.67
270.051	3.74
270.425	3.59
270.799	3.3
271.172	3.1
271.546	3.4
271.919	3.32
272.293	3.3
272.666	3.22
273.04	3.1
273.413	3.19
273.787	3.27
274.16	3.14
274.533	3.22
274.906	2.99
275.279	3.11
275.653	3.15
276.026	3.04
276.399	2.88
276.772	2.88
277.145	2.73
277.518	2.62
277.891	2.61
278.263	2.8
278.636	3.17
279.009	3.47
279.382	3.2
279.755	3.26
280.127	3.34
280.5	3.35
280.872	3.54
281.245	3.49
281.617	3.17
281.99	3.29
282.362	3.17
282.735	3.28
283.107	3.34
283.479	3.46
283.852	3.49
284.224	3.57
284.596	3.4
284.968	3.42
285.34	3.59
285.713	3.37
286.085	3.36
286.457	3.24
286.829	3.2
287.201	3.28
287.572	3.33
287.944	3.38
288.316	3.51
288.688	3.56
289.06	3.49
289.431	3.77
289.803	3.82
290.175	3.88
290.546	3.99
290.918	3.94
291.289	3.72
291.661	3.92
292.032	3.98
292.403	4.14
292.775	4.29
293.146	4.23
293.517	4.4
293.889	4.3
294.26	4.23
294.631	4.31
295.002	4.36
295.373	4.36
295.744	4.47
296.115	4.58
296.486	4.65
296.857	4.8
297.228	4.75
297.599	4.66
297.97	4.75
298.34	4.7
298.711	4.76
299.082	4.89
299.452	4.78
299.823	4.76
300.194	4.88
300.564	4.72
300.935	4.66
301.305	4.8
301.676	4.85
302.046	4.94
302.416	5.02
302.787	5.03
303.157	5.02
303.527	4.94
303.897	4.72
304.267	4.7
304.637	4.83
305.008	4.85
305.378	4.97
305.748	4.91
306.117	4.98
306.487	5.17
306.857	5.27
307.227	5.39
307.597	5.59
307.967	5.64
308.336	5.84
308.706	6.09
309.076	6.08
309.445	6.23
309.815	6.4
310.184	6.32
310.554	6.36
310.923	6.42
311.293	6.5
311.662	6.63
312.031	6.67
312.401	6.6
312.77	6.76
313.139	6.89
313.508	6.96
313.877	7
314.246	6.92
314.616	6.91
314.985	6.95
315.353	6.81
315.722	6.9
316.091	6.92
316.46	6.88
316.829	6.96
317.198	6.86
317.567	6.82
317.935	7.02
318.304	7.14
318.672	7.37
319.041	7.46
319.41	7.51
319.778	7.53
320.147	7.85
320.515	7.89
320.883	7.9
321.252	8.03
321.62	8.03
321.988	8.02
322.357	8.14
322.725	8.23
323.093	8.36
323.461	8.43
323.829	8.54
324.197	8.54
324.565	8.56
324.933	8.72
325.301	8.64
325.669	8.61
326.037	8.73
326.405	8.63
326.772	8.59
327.14	8.42
327.508	8.49
327.875	8.5
328.243	8.38
328.61	8.46
328.978	8.4
329.346	8.54
329.713	8.64
330.08	8.76
330.448	8.76
330.815	8.76
331.182	8.64
331.55	8.62
331.917	8.72
332.284	8.63
332.651	8.58
333.018	8.52
333.385	8.58
333.752	8.49
334.119	8.65
334.486	8.59
334.853	8.7
335.22	8.6
335.587	8.41
335.954	8.52
336.32	8.52
336.687	8.7
337.054	8.79
337.42	8.73
337.787	8.68
338.153	8.85
338.52	8.97
338.886	9
339.253	9
339.619	8.96
339.986	9.01
340.352	9.1
340.718	9.35
341.084	9.34
341.451	9.34
341.817	9.21
342.183	9.28
342.549	9.39
342.915	9.33
343.281	9.51
343.647	9.53
344.013	9.59
344.379	9.53
344.745	9.47
345.11	9.44
345.476	9.44
345.842	9.39
346.208	9.39
346.573	9.45
346.939	9.48
347.304	9.5
347.67	9.6
348.035	9.54
348.401	9.51
348.766	9.46
349.132	9.51
349.497	9.55
349.862	9.48
350.228	9.59
350.593	9.72
350.958	9.68
351.323	9.76
351.688	9.76
352.053	9.7
352.418	9.67
352.783	9.85
353.148	9.88
353.513	9.76
353.878	9.7
354.243	9.56
354.608	9.62
354.972	9.67
355.337	9.61
355.702	9.71
356.066	9.61
356.431	9.59
356.795	9.63
357.16	9.65
357.524	9.74
357.889	9.65
358.253	9.53
358.618	9.55
358.982	9.48
359.346	9.4
359.71	9.44
360.075	9.38
360.439	9.33
360.803	9.33
361.167	9.35
361.531	9.29
361.895	9.34
362.259	9.32
362.623	9.35
362.987	9.41
363.351	9.3
363.714	9.39
364.078	9.45
364.442	9.36
364.806	9.34
365.169	9.29
365.533	9.27
365.896	9.37
366.26	9.28
366.623	9.14
366.987	9.2
367.35	9.16
367.714	9.18
368.077	9.11
368.44	9.14
368.803	8.99
369.167	9
369.53	8.91
369.893	8.77
370.256	8.66
370.619	8.49
370.982	8.39
371.345	8.35
371.708	8.26
372.071	8.19
372.434	8.15
372.797	8.07
373.159	8
373.522	7.94
373.885	7.9
374.247	7.93
374.61	7.87
374.973	7.88
375.335	7.83
375.698	7.77
376.06	7.6
376.423	7.67
376.785	7.7
377.147	7.69
377.51	7.76
377.872	7.7
378.234	7.66
378.596	7.7
378.958	7.66
379.321	7.55
379.683	7.49
380.045	7.46
380.407	7.45
380.769	7.32
381.13	7.23
381.492	7.16
381.854	7.1
382.216	7.02
382.578	6.99
382.939	6.91
383.301	6.84
383.663	6.84
384.024	6.78
384.386	6.66
384.747	6.59
385.109	6.5
385.47	6.52
385.832	6.54
386.193	6.5
386.554	6.39
386.916	6.37
387.277	6.37
387.638	6.37
387.999	6.31
388.36	6.4
388.721	6.39
389.082	6.41
389.443	6.46
389.804	6.44
390.165	6.37
390.526	6.35
390.887	6.35
391.248	6.31
391.609	6.32
391.969	6.31
392.33	6.26
392.691	6.2
393.051	6.09
393.412	6.04
393.772	5.99
394.133	5.99
394.493	5.97
394.854	5.94
395.214	5.86
395.574	5.82
395.935	5.73
396.295	5.7
396.655	5.64
397.015	5.55
397.376	5.52
397.736	5.43
398.096	5.43
398.456	5.37
398.816	5.34
399.176	5.27
399.535	5.18
399.895	5.19
400.255	5.14
400.615	5.12
400.975	5.07
401.334	5.02
401.694	4.99
402.054	4.97
402.413	4.94
402.773	4.89
403.132	4.89
403.492	4.85
403.851	4.81
404.211	4.81
404.57	4.82
404.929	4.79
405.288	4.83
405.648	4.8
406.007	4.78
406.366	4.73
406.725	4.72
407.084	4.73
407.443	4.72
407.802	4.73
408.161	4.72
408.52	4.72
408.879	4.71
409.238	4.72
409.596	4.7
409.955	4.69
410.314	4.7
410.673	4.65
411.031	4.64
411.39	4.62
411.748	4.6
412.107	4.54
412.465	4.53
412.824	4.5
413.182	4.47
413.54	4.46
413.899	4.48
414.257	4.46
414.615	4.45
414.974	4.47
415.332	4.48
415.69	4.49
416.048	4.48
416.406	4.47
416.764	4.43
417.122	4.42
417.48	4.42
417.838	4.39
418.195	4.37
418.553	4.37
418.911	4.36
419.269	4.37
419.626	4.37
419.984	4.33
420.342	4.31
420.699	4.3
421.057	4.29
421.414	4.27
421.772	4.27
422.129	4.25
422.486	4.22
422.844	4.19
423.201	4.17
423.558	4.14
423.915	4.14
424.273	4.13
424.63	4.12
424.987	4.11
425.344	4.1
425.701	4.11
426.058	4.1
426.415	4.09
426.772	4.05
427.128	4.03
427.485	4.05
427.842	4.03
428.199	4.03
428.555	4.01
428.912	4.02
429.269	4
429.625	3.99
429.982	3.98
430.338	3.99
430.695	3.98
431.051	3.99
431.407	4
431.764	4.01
432.12	4
432.476	4.03
432.832	4.02
433.189	3.98
433.545	3.97
433.901	3.98
434.257	3.99
434.613	3.97
434.969	3.97
435.325	4
435.681	3.99
436.036	4.01
436.392	4.01
436.748	4.02
437.104	4.04
437.459	4.04
437.815	4.03
438.171	4.04
438.526	4.05
438.882	4.03
439.237	4.03
439.593	4.04
439.948	4.02
440.304	4.01
440.659	4.05
441.014	4.06
441.369	4.06
441.725	4.06
442.08	4.08
442.435	4.07
442.79	4.05
443.145	4.06
443.5	4.04
443.855	4.04
444.21	4.03
444.565	4.03
444.92	4.02
445.275	4.01
445.629	4
445.984	3.99
446.339	3.99
446.693	3.96
447.048	3.92
447.403	3.91
447.757	3.91
448.112	3.9
448.466	3.89
448.82	3.88
449.175	3.88
449.529	3.86
449.883	3.85
450.238	3.87
450.592	3.84
450.946	3.86
451.3	3.85
451.654	3.84
452.008	3.82
452.362	3.81
452.716	3.8
453.07	3.8
453.424	3.8
453.778	3.8
454.132	3.81
454.486	3.83
454.839	3.85
455.193	3.83
455.547	3.81
455.9	3.78
456.254	3.8
456.607	3.78
456.961	3.8
457.314	3.81
457.668	3.8
458.021	3.82
458.375	3.8
458.728	3.8
459.081	3.83
459.434	3.83
459.787	3.85
460.141	3.86
460.494	3.86
460.847	3.86
461.2	3.88
461.553	3.9
461.906	3.89
462.259	3.88
462.611	3.91
462.964	3.95
463.317	3.98
463.67	3.99
464.022	4.01
464.375	4.01
464.728	4.04
465.08	4.05
465.433	4.05
465.785	4.08
466.138	4.08
466.49	4.08
466.843	4.11
467.195	4.13
467.547	4.14
467.899	4.15
468.252	4.17
468.604	4.18
468.956	4.2
469.308	4.24
469.66	4.28
470.012	4.28
470.364	4.27
470.716	4.27
471.068	4.28
471.42	4.3
471.772	4.33
472.123	4.34
472.475	4.36
472.827	4.37
473.178	4.37
473.53	4.38
473.882	4.39
474.233	4.41
474.585	4.38
474.936	4.41
475.288	4.41
475.639	4.42
475.99	4.4
476.342	4.39
476.693	4.37
477.044	4.34
477.395	4.35
477.746	4.35
478.097	4.35
478.448	4.33
478.8	4.3
479.15	4.26
479.501	4.23
479.852	4.22
480.203	4.21
480.554	4.21
480.905	4.22
481.255	4.21
481.606	4.2
481.957	4.21
482.307	4.2
482.658	4.21
483.009	4.19
483.359	4.19
483.709	4.19
484.06	4.19
484.41	4.2
484.761	4.2
485.111	4.18
485.461	4.19
485.811	4.19
486.162	4.19
486.512	4.2
486.862	4.22
487.212	4.22
487.562	4.22
487.912	4.22
488.262	4.21
488.612	4.21
488.961	4.21
489.311	4.2
489.661	4.2
490.011	4.19
490.36	4.19
490.71	4.2
491.06	4.21
491.409	4.21
491.759	4.22
492.108	4.22
492.458	4.25
492.807	4.26
493.157	4.27
493.506	4.29
493.855	4.29
494.204	4.31
494.554	4.32
494.903	4.33
495.252	4.37
495.601	4.42
495.95	4.45
496.299	4.47
496.648	4.52
496.997	4.59
497.346	4.64
497.695	4.68
498.043	4.72
498.392	4.77
498.741	4.83
499.09	4.9
499.438	4.98
499.787	5.04
500.135	5.12
500.484	5.2
500.832	5.28
501.181	5.37
501.529	5.45
501.878	5.54
502.226	5.64
502.574	5.73
502.923	5.81
503.271	5.94
503.619	6.06
503.967	6.18
504.315	6.32
504.663	6.47
505.011	6.65
505.359	6.8
505.707	6.94
506.055	7.1
506.403	7.23
506.751	7.37
507.098	7.57
507.446	7.73
507.794	7.92
508.141	8.09
508.489	8.28
508.837	8.47
509.184	8.68
509.531	8.9
509.879	9.1
510.226	9.32
510.574	9.53
510.921	9.74
511.268	9.99
511.616	10.2
511.963	10.45
512.31	10.68
512.657	10.95
513.004	11.22
513.351	11.47
513.698	11.75
514.045	12.06
514.392	12.34
514.739	12.66
515.086	12.99
515.432	13.33
515.779	13.66
516.126	13.97
516.473	14.25
516.819	14.5
517.166	14.79
517.512	15.05
517.859	15.32
518.205	15.61
518.552	15.86
518.898	16.13
519.245	16.35
519.591	16.59
519.937	16.83
520.283	17.09
520.629	17.39
520.976	17.72
521.322	18.02
521.668	18.31
522.014	18.62
522.36	18.94
522.706	19.25
523.052	19.58
523.398	19.92
523.743	20.3
524.089	20.7
524.435	21.02
524.781	21.37
525.126	21.66
525.472	21.96
525.817	22.2
526.163	22.43
526.509	22.66
526.854	22.88
527.199	23.1
527.545	23.3
527.89	23.5
528.235	23.67
528.581	23.89
528.926	24.09
529.271	24.29
529.616	24.47
529.961	24.66
530.306	24.82
530.651	25.05
530.996	25.26
531.341	25.49
531.686	25.74
532.031	25.98
532.376	26.21
532.721	26.43
533.065	26.66
533.41	26.92
533.755	27.18
534.099	27.43
534.444	27.68
534.788	27.92
535.133	28.16
535.477	28.42
535.822	28.64
536.166	28.92
536.51	29.21
536.855	29.5
537.199	29.83
537.543	30.18
537.887	30.5
538.231	30.81
538.576	31.11
538.92	31.4
539.264	31.7
539.608	32
539.951	32.25
540.295	32.51
540.639	32.73
540.983	32.96
541.327	33.17
541.671	33.4
542.014	33.62
542.358	33.81
542.701	34
543.045	34.2
543.389	34.4
543.732	34.59
544.075	34.76
544.419	34.93
544.762	35.11
545.105	35.3
545.449	35.54
545.792	35.74
546.135	35.98
546.478	36.19
546.821	36.4
547.165	36.65
547.508	36.9
547.851	37.13
548.194	37.41
548.536	37.65
548.879	37.88
549.222	38.12
549.565	38.34
549.908	38.56
550.25	38.8
550.593	38.98
550.936	39.21
551.278	39.45
551.621	39.69
551.963	39.96
552.306	40.17
552.648	40.31
552.991	40.46
553.333	40.6
553.675	40.78
554.017	40.96
554.36	41.14
554.702	41.29
555.044	41.46
555.386	41.59
555.728	41.76
556.07	41.88
556.412	42.04
556.754	42.23
557.096	42.45
557.438	42.62
557.78	42.82
558.121	42.99
558.463	43.17
558.805	43.41
559.147	43.53
559.488	43.69
559.83	43.82
560.171	44.02
560.513	44.17
560.854	44.28
561.196	44.42
561.537	44.55
561.878	44.7
562.22	44.83
562.561	44.92
562.902	45.05
563.243	45.18
563.584	45.32
563.925	45.47
564.266	45.5
564.607	45.59
564.948	45.68
565.289	45.75
565.63	45.92
565.971	46
566.312	46.05
566.653	46.13
566.993	46.24
567.334	46.26
567.675	46.36
568.015	46.49
568.356	46.54
568.696	46.67
569.037	46.77
569.377	46.86
569.718	46.91
570.058	47.02
570.398	47.1
570.739	47.11
571.079	47.11
571.419	47.29
571.759	47.38
572.099	47.46
572.439	47.57
572.779	47.6
573.119	47.66
573.459	47.76
573.799	47.89
574.139	47.98
574.479	48.16
574.819	48.27
575.158	48.32
575.498	48.47
575.838	48.47
576.177	48.47
576.517	48.55
576.856	48.63
577.196	48.68
577.535	48.8
577.875	48.93
578.214	49.02
578.553	49.07
578.893	49.18
579.232	49.27
579.571	49.35
579.91	49.41
580.25	49.46
580.589	49.54
580.928	49.58
581.267	49.64
581.606	49.68
581.945	49.65
582.283	49.75
582.622	49.79
582.961	49.88
583.3	50.01
583.639	50.05
583.977	50.21
584.316	50.22
584.654	50.24
584.993	50.28
585.332	50.35
585.67	50.38
586.008	50.41
586.347	50.41
586.685	50.47
587.024	50.61
587.362	50.69
587.7	50.8
588.038	50.79
588.376	50.85
588.715	50.96
589.053	51.02
589.391	51.06
589.729	51.1
590.067	51.15
590.404	51.21
590.742	51.28
591.08	51.26
591.418	51.43
591.756	51.51
592.093	51.57
592.431	51.64
592.769	51.64
593.106	51.7
593.444	51.74
593.781	51.83
594.119	51.84
594.456	51.92
594.793	51.9
595.131	51.98
595.468	51.96
595.805	51.98
596.143	52.07
596.48	52.09
596.817	52.12
597.154	52.13
597.491	52.17
597.828	52.21
598.165	52.25
598.502	52.25
598.839	52.31
599.176	52.36
599.512	52.39
599.849	52.53
600.186	52.6
600.523	52.64
600.859	52.66
601.196	52.69
601.532	52.65
601.869	52.66
602.205	52.63
602.542	52.78
602.878	52.78
603.215	52.79
603.551	52.83
603.887	52.85
604.223	52.93
604.56	52.95
604.896	52.95
605.232	52.97
605.568	52.97
605.904	53.05
606.24	53.05
606.576	53.13
606.912	53.2
607.248	53.21
607.583	53.23
607.919	53.18
608.255	53.21
608.591	53.29
608.926	53.33
609.262	53.39
609.597	53.39
609.933	53.44
610.268	53.51
610.604	53.52
610.939	53.55
611.275	53.58
611.61	53.63
611.945	53.62
612.281	53.76
612.616	53.8
612.951	53.71
613.286	53.75
613.621	53.67
613.956	53.61
614.291	53.64
614.626	53.71
614.961	53.79
615.296	53.77
615.631	53.81
615.966	53.9
616.3	54.02
616.635	54.01
616.97	53.99
617.304	54.01
617.639	54
617.973	54.06
618.308	54.02
618.642	54.04
618.977	54.1
619.311	54.03
619.646	53.97
619.98	54.1
620.314	54.15
620.648	54.27
620.983	54.32
621.317	54.31
621.651	54.32
621.985	54.29
622.319	54.25
622.653	54.29
622.987	54.29
623.321	54.21
623.655	54.2
623.988	54.23
624.322	54.25
624.656	54.3
624.99	54.29
625.323	54.31
625.657	54.29
625.99	54.39
626.324	54.48
626.657	54.55
626.991	54.5
627.324	54.44
627.658	54.4
627.991	54.44
628.324	54.44
628.657	54.53
628.991	54.64
629.324	54.84
629.657	54.78
629.99	54.84
630.323	54.93
630.656	54.95
630.989	54.95
631.322	54.91
631.655	54.92
631.987	54.99
632.32	55.04
632.653	55.16
632.986	55.07
633.318	55.03
633.651	55.04
633.984	55.1
634.316	55.15
634.649	55.15
634.981	55.09
635.313	55.2
635.646	55.13
635.978	55.09
636.31	54.9
636.643	54.98
636.975	54.87
637.307	54.93
637.639	54.95
637.971	54.91
638.303	54.94
638.635	55.02
638.967	55.02
639.299	55.08
639.631	54.97
639.963	55.03
640.295	55.03
640.626	55.01
640.958	54.99
641.29	55.05
641.621	55.11
641.953	55
642.285	55.03
642.616	55.17
642.948	55.2
643.279	55.35
643.61	55.33
643.942	55.43
644.273	55.31
644.604	55.25
644.936	55.32
645.267	55.35
645.598	55.35
645.929	55.3
646.26	55.23
646.591	55.3
646.922	55.35
647.253	55.31
647.584	55.31
647.915	55.17
648.245	55.19
648.576	55.14
648.907	55.23
649.238	55.03
649.568	54.93
649.899	54.97
650.229	54.97
650.56	55.02
650.89	54.93
651.221	55.01
651.551	55.08
651.882	55.16
652.212	55.08
652.542	54.96
652.872	54.99
653.203	55.02
653.533	55
653.863	54.87
654.193	54.9
654.523	54.98
654.853	55.14
655.183	55.13
655.513	55.16
655.843	55.24
656.172	55.48
656.502	55.4
656.832	55.38
657.162	55.4
657.491	55.31
657.821	55.42
658.15	55.46
658.48	55.51
658.809	55.34
659.139	55.43
659.468	55.55
659.798	55.61
660.127	55.62
660.456	55.6
660.785	55.73
661.115	55.77
661.444	55.77
661.773	55.86
662.102	55.79
662.431	55.78
662.76	55.8
663.089	55.72
663.418	55.88
663.747	55.81
664.076	55.78
664.404	55.71
664.733	55.67
665.062	55.58
665.39	55.51
665.719	55.53
666.048	55.51
666.376	55.41
666.705	55.38
667.033	55.37
667.362	55.34
667.69	55.37
668.018	55.25
668.347	55.28
668.675	55.25
669.003	55.41
669.331	55.55
669.659	55.48
669.987	55.46
670.315	55.34
670.643	55.41
670.971	55.57
671.299	55.6
671.627	55.79
671.955	55.83
672.283	55.88
672.61	55.93
672.938	56.04
673.266	56.16
673.593	56.12
673.921	56.09
674.249	56
674.576	56.02
674.904	56.17
675.231	56.27
675.558	56.27
675.886	56.27
676.213	56.18
676.54	56.13
676.867	56.17
677.195	56.21
677.522	56.22
677.849	56.12
678.176	56.37
678.503	56.19
678.83	56.18
679.157	56.22
679.484	56.24
679.81	56.23
680.137	56.25
680.464	56.34
680.791	56.41
681.117	56.58
681.444	56.48
681.771	56.42
682.097	56.28
682.424	56.22
682.75	56.26
683.077	56.3
683.403	56.36
683.729	56.43
684.056	56.57
684.382	56.57
684.708	56.67
685.034	56.53
685.36	56.64
685.686	56.64
686.012	56.66
686.339	56.84
686.664	56.98
686.99	56.77
687.316	56.8
687.642	56.89
687.968	57
688.294	57.2
688.619	57.28
688.945	57.45
689.271	57.31
689.596	57.15
689.922	57.14
690.247	57.24
690.573	57.17
690.898	57.01
691.224	57.1
691.549	57.11
691.874	57.14
692.2	57
692.525	56.91
692.85	56.89
693.175	56.79
693.5	56.49
693.825	56.63
694.15	56.5
694.475	56.34
694.8	56.22
695.125	56.07
695.45	55.91
695.775	55.92
696.099	56.14
696.424	56.07
696.749	56.07
697.073	56.02
697.398	55.96
697.723	55.8
698.047	55.75
698.372	55.61
698.696	55.71
699.02	55.77
699.345	55.7
699.669	55.68
699.993	55.74
700.318	55.91
700.642	55.89
700.966	55.91
701.29	55.84
701.614	55.78
701.938	55.84
702.262	56
702.586	55.88
702.91	55.69
703.234	55.8
703.557	55.76
703.881	55.72
704.205	55.86
704.529	56.29
704.852	56.29
705.176	56.31
705.499	56.09
705.823	56.02
706.146	56.45
706.47	56.44
706.793	56.36
707.117	56.25
707.44	56.42
707.763	56.46
708.086	56.48
708.409	56.36
708.733	56.34
709.056	56.28
709.379	56.22
709.702	56.43
710.025	56.52
710.348	56.74
710.671	56.71
710.993	56.63
711.316	56.42
711.639	56.38
711.962	56.38
712.284	56.51
712.607	56.49
712.93	56.38
713.252	56.44
713.575	56.42
713.897	56.46
714.22	56.32
714.542	56.47
714.864	56.58
715.187	56.63
715.509	56.65
715.831	56.68
716.153	56.79
716.475	56.59
716.798	56.73
717.12	56.6
717.442	56.49
717.764	56.68
718.085	56.72
718.407	56.69
718.729	56.78
719.051	56.56
719.373	56.46
719.695	56.48
720.016	56.46
720.338	56.45
720.659	56.29
720.981	56.04
721.302	55.84
721.624	55.89
721.945	55.91
722.267	55.85
722.588	55.69
722.909	55.54
723.231	55.86
723.552	55.73
723.873	55.96
724.194	56.14
724.515	55.98
724.836	55.72
725.157	55.57
725.478	55.54
725.799	55.61
726.12	55.78
726.441	55.75
726.762	55.73
727.083	55.92
727.403	56.03
727.724	56.33
728.045	56.43
728.365	56.4
728.686	56.53
729.006	56.54
729.327	56.61
729.647	56.6
729.967	56.44
730.288	56.36
730.608	56.22
730.928	56.19
731.249	56.38
731.569	56.55
731.889	56.74
732.209	56.91
732.529	56.92
732.849	56.95
733.169	57.1
733.489	57
733.809	56.66
734.129	56.65
734.448	56.74
734.768	56.49
735.088	56.61
735.408	56.71
735.727	56.66
736.047	56.83
736.366	57.07
736.686	56.9
737.005	56.95
737.325	56.87
737.644	56.72
737.963	56.37
738.283	56.46
738.602	56.53
738.921	56.3
739.24	56.33
739.56	56.23
739.879	55.82
740.198	56.04
740.517	56.5
740.836	56.56
741.155	56.51
741.473	56.62
741.792	56.6
742.111	56.58
742.43	56.7
742.748	56.67
743.067	56.77
743.386	57.21
743.704	57.46
744.023	57.42
744.341	57.34
744.66	57.47
744.978	57.66
745.297	57.69
745.615	57.8
745.933	57.86
746.252	57.85
746.57	58.05
746.888	57.62
747.206	57.45
747.524	57.24
747.842	57.11
748.16	57.28
748.478	57.49
748.796	57.32
749.114	57.17
749.432	56.85
749.749	56.28
750.067	56.12
750.385	55.99
750.703	56.23
751.02	56.54
751.338	56.64
751.655	56.51
751.973	56.37
752.29	56.3
752.608	56.27
752.925	56.64
753.242	57.05
753.56	57.27
753.877	57.09
754.194	57.1
754.511	57.53
754.828	57.2
755.145	56.8
755.462	56.89
755.779	57.07
756.096	57.2
756.413	57.51
756.73	57.21
757.047	57.23
757.364	57.45
757.68	57.58
757.997	57.55
758.314	57.31
758.63	57.18
758.947	57.09
759.264	57.17
759.58	57.25
759.896	56.65
760.213	56.82
760.529	57
760.846	57.45
761.162	57.32
761.478	57.53
761.794	57.59
762.11	57.95
762.426	57.76
762.743	57.68
763.059	57.68
763.375	57.7
763.69	57.46
764.006	57.17
764.322	57.08
764.638	56.99
764.954	56.84
765.27	57.21
765.585	57.31
765.901	57.48
766.216	57.15
766.532	57.43
766.848	57.52
767.163	57.56
767.478	57.4
767.794	57.39
768.109	57.07
768.424	56.66
768.74	56.25
769.055	56.44
769.37	56.61
769.685	56.56
770	56.62
770.315	56.86
770.63	56.55
770.945	56.69
771.26	57.01
771.575	57.36
771.89	56.77
772.205	56.62
772.52	55.99
772.834	56.32
773.149	55.75
773.464	55.52
773.778	55.5
774.093	55.26
774.407	54.92
774.722	55.29
775.036	55.65
775.351	56.12
775.665	56.05
775.979	56.07
776.293	56.17
776.608	56.44
776.922	56.25
777.236	56.18
777.55	55.71
777.864	55.7
778.178	55.41
778.492	55.93
778.806	56.33
779.12	56.61
779.434	56.55
779.747	56.64
780.061	56.56
780.375	56.46
780.689	56.54
781.002	56.59
781.316	56.45
781.629	56.45
781.943	56.02
782.256	56.22
782.57	56.18
782.883	56.03
783.196	55.61
783.51	55.55
783.823	55.85
784.136	56.47
784.449	56.32
784.762	56.68
785.075	56.4
785.388	56.49
785.701	55.67
786.014	55.12
786.327	55.33
786.64	55.57
786.953	55.57
787.266	55.98
787.578	56.53
787.891	56.72
788.204	57.15
788.516	57.16
788.829	57.02
789.141	57.4
789.454	56.97
789.766	57.34
790.079	57.77
790.391	58.27
790.703	58.27
791.016	58.22
791.328	58.2
791.64	58.19
791.952	58.18
792.264	58.81
792.576	59.83
792.888	60.38
793.2	60.18
793.512	60.14
793.824	59.51
794.136	58.81
794.448	58.91
794.76	58.53
795.071	58.39
795.383	57.61
795.695	57.49
796.006	58.28
796.318	58.21
796.629	58.71
796.941	58.63
797.252	58.15
797.564	57.87
797.875	57.38
798.186	57.08
798.497	56.15
798.809	56.48
799.12	55.89
799.431	55.6
799.742	55.6
800.053	55.35
800.364	55.5
800.675	55.73
800.986	55.54
801.297	55.34
801.608	55.41
801.918	56.74
802.229	56.31
802.54	56.08
802.851	55.13
803.161	54.45
803.472	53.61
803.782	53.85
804.093	53.7
804.403	53.94
804.714	54.47
805.024	54.61
805.334	54.52
805.645	54.51
805.955	53.8
806.265	53.73
806.575	54.02
806.885	53.57
807.195	54.3
807.505	54.33
807.815	54.37
808.125	54.62
808.435	54.39
808.745	54.51
809.055	54.5
809.365	55.07
809.674	54.7
809.984	55.86
810.294	55.4
810.603	55.93
810.913	56.44
811.222	55.84
811.532	56.44
811.841	56.07
812.151	56.07
812.46	56.83
812.769	57.9
813.079	58.25
813.388	58.9
813.697	57.91
814.006	57.28
814.315	57.26
814.624	56.54
814.933	55.86
815.242	55.43
815.551	55.63
815.86	55.6
816.169	55.39
816.478	54.31
816.786	54.21
817.095	53.73
817.404	54.01
817.712	54.22
818.021	54.08
818.33	54.46
818.638	54.71
818.947	55.97
819.255	55.3
819.563	55.92
819.872	56.42
820.18	57.21
820.488	57.58
820.796	57.93
821.105	58.3
821.413	58.34
821.721	58.48
822.029	58.23
822.337	58.22
822.645	58.37
822.953	58.57
823.26	58.81
823.568	58.97
823.876	58.86
824.184	58.97
824.491	59.15
824.799	59.02
825.107	59.06
825.414	58.76
825.722	58.92
826.029	58.53
826.337	58.57
826.644	58.32
826.951	58.1
827.259	58.22
827.566	58.01
827.873	58
828.18	58.07
828.488	58.28
828.795	58.32
829.102	58.16
829.409	58.13
829.716	57.93
830.023	57.59
830.329	57.58
830.636	57.65
830.943	57.51
831.25	57.52
831.557	57.64
831.863	57.73
832.17	57.94
832.476	58.49
832.783	58.46
833.089	58.36
833.396	58.87
833.702	58.04
834.009	58.46
834.315	58.43
834.621	58.4
834.928	58.46
835.234	58.51
835.54	58.39
835.846	58.5
836.152	58.63
836.458	58.65
836.764	58.9
837.07	58.94
837.376	58.58
837.682	58.66
837.988	58.71
838.293	58.41
838.599	57.89
838.905	57.82
839.211	57.4
839.516	57.66
839.822	57.9
840.127	57.68
840.433	57.34
840.738	57.16
841.044	56.91
841.349	56.64
841.654	56.39
841.959	56.27
842.265	55.82
842.57	55.03
842.875	55.36
843.18	55.06
843.485	53.88
843.79	53.67
844.095	54.14
844.4	53.98
844.705	54.97
845.01	55.97
845.315	54.9
845.619	55.38
845.924	54.51
846.229	54.15
846.533	54.87
846.838	53.53
847.142	52.25
847.447	52.03
847.751	53.35
848.056	53.02
848.36	54.43
848.664	53.56
848.969	54.85
849.273	54.36
849.577	53.93
849.881	54.64
850.185	55.4
850.489	56.55
850.794	56.13
851.097	56.01
851.401	55.86
851.705	57.82
852.009	55.91
852.313	55.78
852.617	54.42
852.92	55.88
853.224	55.66
853.528	58.45
853.831	58.86
854.135	56.03
854.438	56.54
854.742	56.15
855.045	57.37
855.349	56.35
855.652	57.28
855.955	56.07
856.259	55.42
856.562	54.16
856.865	55.04
857.168	53.45
857.471	52.27
857.774	51.15
858.077	49.59
858.38	51.18
858.683	52.45
858.986	55.18
859.289	54.37
859.592	58.55
859.894	57.07
860.197	54.78
860.5	57.17
860.802	57.43
861.105	56.95
861.407	57.69
861.71	58.32
862.012	58.7
862.315	58.8
862.617	59.45
862.919	60.3
863.222	57.3
863.524	57.43
863.826	58
864.128	58.06
864.43	59.96
864.732	59.77
865.034	58.62
865.336	55.25
865.638	55.03
865.94	52.83
866.242	52.27
866.544	53.9
866.846	54.62
867.147	55.77
867.449	56.62
867.751	54.38
868.052	54.19
868.354	55.05
868.655	56.84
868.957	56.56
869.258	57.25
869.56	60.14
869.861	59.91
870.162	59.58
870.463	60.77
870.765	60.34
871.066	58.78
871.367	57.15
871.668	61.66
871.969	61.25
872.27	61.85
872.571	63.83
872.872	66.17
873.173	63.33
873.473	62.25
873.774	60.78
874.075	59.45
874.376	57.36
874.676	56.13
874.977	53.1
875.277	51.22
875.578	51.14
875.878	48.9
876.179	49.85
876.479	49.85
876.78	48.1
877.08	46
877.38	46.51
877.68	48.87
877.981	44.56
878.281	44.98
878.581	42.01
