Data from MVZ_BU78245_Reflection_00006.txt Node
Date: Tue Nov 19 12:01:09 EST 2019
User: vgr7
Spectrometer: USB2G7710
Scans to average: 3
Trigger mode: 4
Integration Time (sec): 2.000000E-2
Electric dark correction enabled: true
Boxcar width: 10
XAxis mode: Wavelengths
Number of Pixels in Spectrum: 2048
>>>>>Begin Spectral Data<<<<<
177.721	452.27
178.105	-11.11
178.488	-98.17
178.871	-2200
179.254	81.25
179.636	132.71
180.019	79.32
180.402	-150
180.785	-57.81
181.168	-190.98
181.55	-1078.57
181.933	-384.37
182.316	502.78
182.698	-983.33
183.081	-217.71
183.463	-201.95
183.846	-82.02
184.228	-70.96
184.611	-53.55
184.993	-58.75
185.376	-85.55
185.758	-90.17
186.14	-143.18
186.522	-135.47
186.904	-97.92
187.287	-86.24
187.669	-74.24
188.051	-61.83
188.433	-110.89
188.815	-131.37
189.197	-74.88
189.579	-68.45
189.961	-72.75
190.342	-52.66
190.724	-54.61
191.106	-26.49
191.488	-13.97
191.869	-10.04
192.251	1.82
192.633	-6.68
193.014	-3.99
193.396	-9.42
193.777	-10.45
194.159	-4.01
194.54	-18.96
194.922	-23.35
195.303	-25.31
195.684	-19.45
196.065	-33.29
196.447	-18.89
196.828	1.76
197.209	-6.68
197.59	-3.26
197.971	-16
198.352	-23.59
198.733	-28.19
199.114	-31.37
199.495	-31.99
199.876	-44.36
200.257	-58.7
200.638	-54.08
201.018	-53.42
201.399	-51.38
201.78	-59.77
202.16	-84.78
202.541	-66.44
202.922	-61.61
203.302	-70.17
203.683	-82
204.063	-78.17
204.444	-95.75
204.824	-115.22
205.204	-121.61
205.585	-126.49
205.965	-146.42
206.345	-147.14
206.725	-122.9
207.106	-135.66
207.486	-144.55
207.866	-128.5
208.246	-84.24
208.626	-87.68
209.006	-82.61
209.386	-78.57
209.766	-99.06
210.145	-67.96
210.525	-65.38
210.905	-53.58
211.285	-37.91
211.664	-26.28
212.044	-31.16
212.424	-28.63
212.803	-41.8
213.183	-32.58
213.562	-24.6
213.942	-10.63
214.321	3.52
214.701	3.15
215.08	26.09
215.459	49.29
215.838	76.6
216.218	58.59
216.597	27.03
216.976	57.01
217.355	43.97
217.734	26.55
218.113	18.51
218.492	18.27
218.871	8.33
219.25	-14.01
219.629	-28.25
220.008	24.56
220.387	12.22
220.766	50.4
221.144	34.95
221.523	22.01
221.902	17.05
222.28	1.7
222.659	9.04
223.037	-9.58
223.416	-8.85
223.794	-5.14
224.173	-6.51
224.551	-2.94
224.929	-18.82
225.308	-19.96
225.686	-15.51
226.064	-10.51
226.442	-8.42
226.821	-9.76
227.199	-10.89
227.577	-10.24
227.955	-14.78
228.333	-13.28
228.711	-12.35
229.089	-15.34
229.467	-16.29
229.845	-18.3
230.222	-11.87
230.6	-16.79
230.978	-10.73
231.356	-12.8
231.733	-11.22
232.111	-11.42
232.488	-10.86
232.866	-5.89
233.243	-4.65
233.621	-2.75
233.998	-3.44
234.376	-4.12
234.753	-1.82
235.13	1.78
235.508	1.16
235.885	1.61
236.262	0.37
236.639	-1.33
237.016	-1.87
237.393	-0.2
237.77	0.91
238.147	1.17
238.524	2.14
238.901	0.72
239.278	0.28
239.655	0.15
240.032	0.8
240.409	1.17
240.785	0.5
241.162	0.52
241.539	0.34
241.915	0.46
242.292	0.86
242.668	0.91
243.045	0.64
243.421	1.56
243.798	1.77
244.174	2.27
244.551	2.57
244.927	2.94
245.303	2.63
245.679	2.58
246.056	2.2
246.432	2.34
246.808	2.66
247.184	2.86
247.56	2.65
247.936	2.52
248.312	2.65
248.688	2.68
249.064	2.62
249.44	2.32
249.815	2.62
250.191	2.65
250.567	2.57
250.943	2.57
251.318	2.18
251.694	2.12
252.069	1.99
252.445	2.13
252.82	2.47
253.196	2.54
253.571	2.68
253.947	3.04
254.322	2.92
254.697	2.97
255.073	2.82
255.448	3.01
255.823	3.31
256.198	3.1
256.573	3.41
256.948	3.44
257.323	3.78
257.698	3.54
258.073	3.44
258.448	3.42
258.823	3.44
259.198	3.58
259.573	3.6
259.948	3.82
260.322	3.62
260.697	3.48
261.072	3.65
261.446	3.59
261.821	3.41
262.195	3.36
262.57	3.25
262.944	3.56
263.319	3.48
263.693	3.29
264.067	3.32
264.442	3.14
264.816	3.16
265.19	3.04
265.564	2.99
265.938	3.07
266.313	3.1
266.687	2.99
267.061	3.02
267.435	3.25
267.809	2.86
268.183	2.85
268.556	2.69
268.93	2.77
269.304	2.8
269.678	3.08
270.051	3.36
270.425	3.4
270.799	3.15
271.172	3.24
271.546	3.36
271.919	3.47
272.293	3.53
272.666	3.74
273.04	3.94
273.413	4.05
273.787	4.12
274.16	4.1
274.533	4.14
274.906	4.32
275.279	4.05
275.653	4.16
276.026	4.23
276.399	4.33
276.772	4.28
277.145	4.33
277.518	4.08
277.891	4.17
278.263	4.14
278.636	4.35
279.009	4.25
279.382	4.33
279.755	4.26
280.127	4.27
280.5	4
280.872	3.79
281.245	3.87
281.617	3.92
281.99	3.8
282.362	3.84
282.735	3.65
283.107	3.75
283.479	3.76
283.852	3.7
284.224	3.9
284.596	3.92
284.968	3.88
285.34	3.93
285.713	3.91
286.085	3.89
286.457	3.88
286.829	3.83
287.201	3.84
287.572	3.92
287.944	4.1
288.316	4.27
288.688	4.35
289.06	4.2
289.431	4.2
289.803	4.25
290.175	4.24
290.546	4.19
290.918	4.19
291.289	4.11
291.661	4.15
292.032	3.97
292.403	3.79
292.775	3.97
293.146	4.1
293.517	3.91
293.889	3.86
294.26	3.81
294.631	3.91
295.002	3.79
295.373	3.69
295.744	3.62
296.115	3.51
296.486	3.53
296.857	3.47
297.228	3.3
297.599	3.39
297.97	3.47
298.34	3.6
298.711	3.65
299.082	3.76
299.452	3.88
299.823	3.9
300.194	3.91
300.564	3.8
300.935	3.69
301.305	3.6
301.676	3.58
302.046	3.56
302.416	3.57
302.787	3.57
303.157	3.51
303.527	3.49
303.897	3.42
304.267	3.38
304.637	3.55
305.008	3.59
305.378	3.56
305.748	3.47
306.117	3.3
306.487	3.31
306.857	3.36
307.227	3.3
307.597	3.19
307.967	3.29
308.336	3.19
308.706	3.22
309.076	3.38
309.445	3.51
309.815	3.42
310.184	3.44
310.554	3.49
310.923	3.55
311.293	3.46
311.662	3.46
312.031	3.44
312.401	3.23
312.77	3.18
313.139	3.14
313.508	3.15
313.877	3.19
314.246	3.08
314.616	3.07
314.985	3.05
315.353	3.09
315.722	3.22
316.091	3.2
316.46	3.04
316.829	3.08
317.198	3.12
317.567	3.23
317.935	3.01
318.304	3.06
318.672	3.01
319.041	3.09
319.41	2.94
319.778	2.98
320.147	3.15
320.515	3.19
320.883	3.08
321.252	3.03
321.62	3.02
321.988	3.17
322.357	3.03
322.725	2.95
323.093	2.83
323.461	2.79
323.829	2.9
324.197	3.04
324.565	2.94
324.933	2.78
325.301	2.62
325.669	2.79
326.037	2.79
326.405	2.72
326.772	2.58
327.14	2.65
327.508	2.68
327.875	2.61
328.243	2.62
328.61	2.75
328.978	2.75
329.346	2.71
329.713	2.65
330.08	2.67
330.448	2.83
330.815	2.92
331.182	2.91
331.55	2.79
331.917	2.72
332.284	2.61
332.651	2.65
333.018	2.72
333.385	2.63
333.752	2.53
334.119	2.71
334.486	2.86
334.853	2.98
335.22	2.9
335.587	2.93
335.954	3
336.32	2.97
336.687	3.03
337.054	3.15
337.42	3.18
337.787	3.21
338.153	3.15
338.52	3.2
338.886	3.21
339.253	3.22
339.619	3.28
339.986	3.38
340.352	3.45
340.718	3.44
341.084	3.5
341.451	3.58
341.817	3.51
342.183	3.32
342.549	3.31
342.915	3.35
343.281	3.34
343.647	3.2
344.013	3.23
344.379	3.18
344.745	3.19
345.11	3.16
345.476	3.21
345.842	3.13
346.208	3.07
346.573	2.92
346.939	2.93
347.304	2.85
347.67	2.77
348.035	2.67
348.401	2.69
348.766	2.63
349.132	2.67
349.497	2.71
349.862	2.85
350.228	2.9
350.593	2.85
350.958	2.95
351.323	3.04
351.688	3.08
352.053	3.08
352.418	3.03
352.783	2.95
353.148	2.92
353.513	2.92
353.878	3
354.243	2.97
354.608	3.03
354.972	3.13
355.337	3.25
355.702	3.27
356.066	3.22
356.431	3.23
356.795	3.2
357.16	3.16
357.524	3.19
357.889	3.07
358.253	3.07
358.618	3.04
358.982	2.99
359.346	2.99
359.71	3.05
360.075	3.07
360.439	3.1
360.803	3.11
361.167	3.07
361.531	3.01
361.895	3.03
362.259	3.07
362.623	3.06
362.987	3.06
363.351	3.06
363.714	3.11
364.078	3.14
364.442	3.09
364.806	3.15
365.169	3.12
365.533	3.13
365.896	3.21
366.26	3.15
366.623	3.21
366.987	3.2
367.35	3.15
367.714	3.14
368.077	3.17
368.44	3.15
368.803	3.18
369.167	3.16
369.53	3.24
369.893	3.15
370.256	3.13
370.619	3.1
370.982	3.1
371.345	3.12
371.708	3.14
372.071	3.18
372.434	3.18
372.797	3.15
373.159	3.16
373.522	3.09
373.885	3.18
374.247	3.13
374.61	3.09
374.973	3.06
375.335	3.03
375.698	2.95
376.06	3.01
376.423	3.06
376.785	3.04
377.147	3.04
377.51	3.05
377.872	3.01
378.234	3.05
378.596	3.08
378.958	3.01
379.321	2.92
379.683	2.95
380.045	2.91
380.407	2.91
380.769	2.9
381.13	2.9
381.492	2.84
381.854	2.85
382.216	2.91
382.578	2.92
382.939	2.91
383.301	2.98
383.663	2.9
384.024	2.91
384.386	2.95
384.747	2.94
385.109	2.96
385.47	3.01
385.832	2.97
386.193	2.98
386.554	3
386.916	3.04
387.277	3.01
387.638	2.99
387.999	2.98
388.36	3.01
388.721	3.03
389.082	3.02
389.443	3.03
389.804	2.98
390.165	3.03
390.526	3.07
390.887	3.05
391.248	3.1
391.609	3.12
391.969	3.12
392.33	3.12
392.691	3.11
393.051	3.1
393.412	3.14
393.772	3.11
394.133	3.08
394.493	3.09
394.854	3.11
395.214	3.15
395.574	3.21
395.935	3.19
396.295	3.19
396.655	3.2
397.015	3.18
397.376	3.22
397.736	3.2
398.096	3.15
398.456	3.14
398.816	3.15
399.176	3.13
399.535	3.15
399.895	3.17
400.255	3.14
400.615	3.13
400.975	3.09
401.334	3.11
401.694	3.12
402.054	3.14
402.413	3.15
402.773	3.12
403.132	3.07
403.492	3.09
403.851	3.08
404.211	3.1
404.57	3.13
404.929	3.13
405.288	3.14
405.648	3.14
406.007	3.19
406.366	3.17
406.725	3.16
407.084	3.17
407.443	3.17
407.802	3.22
408.161	3.24
408.52	3.26
408.879	3.24
409.238	3.27
409.596	3.25
409.955	3.21
410.314	3.21
410.673	3.21
411.031	3.22
411.39	3.23
411.748	3.24
412.107	3.24
412.465	3.22
412.824	3.21
413.182	3.23
413.54	3.21
413.899	3.19
414.257	3.18
414.615	3.17
414.974	3.17
415.332	3.17
415.69	3.16
416.048	3.14
416.406	3.13
416.764	3.14
417.122	3.14
417.48	3.17
417.838	3.16
418.195	3.17
418.553	3.17
418.911	3.17
419.269	3.16
419.626	3.16
419.984	3.16
420.342	3.17
420.699	3.17
421.057	3.18
421.414	3.2
421.772	3.2
422.129	3.18
422.486	3.18
422.844	3.17
423.201	3.16
423.558	3.17
423.915	3.2
424.273	3.2
424.63	3.21
424.987	3.22
425.344	3.22
425.701	3.22
426.058	3.24
426.415	3.23
426.772	3.22
427.128	3.23
427.485	3.24
427.842	3.23
428.199	3.23
428.555	3.23
428.912	3.23
429.269	3.23
429.625	3.26
429.982	3.26
430.338	3.27
430.695	3.27
431.051	3.25
431.407	3.24
431.764	3.23
432.12	3.23
432.476	3.22
432.832	3.24
433.189	3.23
433.545	3.21
433.901	3.21
434.257	3.22
434.613	3.23
434.969	3.25
435.325	3.23
435.681	3.24
436.036	3.25
436.392	3.24
436.748	3.25
437.104	3.25
437.459	3.24
437.815	3.24
438.171	3.26
438.526	3.28
438.882	3.28
439.237	3.28
439.593	3.27
439.948	3.28
440.304	3.26
440.659	3.26
441.014	3.28
441.369	3.31
441.725	3.31
442.08	3.3
442.435	3.28
442.79	3.3
443.145	3.3
443.5	3.27
443.855	3.28
444.21	3.28
444.565	3.27
444.92	3.27
445.275	3.27
445.629	3.26
445.984	3.27
446.339	3.27
446.693	3.27
447.048	3.25
447.403	3.25
447.757	3.25
448.112	3.26
448.466	3.25
448.82	3.23
449.175	3.23
449.529	3.23
449.883	3.23
450.238	3.22
450.592	3.23
450.946	3.23
451.3	3.23
451.654	3.22
452.008	3.23
452.362	3.22
452.716	3.2
453.07	3.2
453.424	3.19
453.778	3.18
454.132	3.18
454.486	3.2
454.839	3.19
455.193	3.23
455.547	3.22
455.9	3.23
456.254	3.24
456.607	3.23
456.961	3.22
457.314	3.24
457.668	3.26
458.021	3.26
458.375	3.25
458.728	3.26
459.081	3.26
459.434	3.25
459.787	3.27
460.141	3.29
460.494	3.27
460.847	3.29
461.2	3.3
461.553	3.3
461.906	3.3
462.259	3.3
462.611	3.27
462.964	3.28
463.317	3.27
463.67	3.29
464.022	3.29
464.375	3.3
464.728	3.27
465.08	3.25
465.433	3.25
465.785	3.26
466.138	3.25
466.49	3.26
466.843	3.26
467.195	3.25
467.547	3.27
467.899	3.3
468.252	3.27
468.604	3.27
468.956	3.27
469.308	3.26
469.66	3.27
470.012	3.28
470.364	3.27
470.716	3.27
471.068	3.26
471.42	3.27
471.772	3.27
472.123	3.3
472.475	3.3
472.827	3.32
473.178	3.34
473.53	3.36
473.882	3.35
474.233	3.34
474.585	3.34
474.936	3.33
475.288	3.33
475.639	3.34
475.99	3.35
476.342	3.36
476.693	3.36
477.044	3.36
477.395	3.36
477.746	3.36
478.097	3.37
478.448	3.38
478.8	3.37
479.15	3.37
479.501	3.37
479.852	3.36
480.203	3.36
480.554	3.36
480.905	3.35
481.255	3.36
481.606	3.38
481.957	3.38
482.307	3.38
482.658	3.38
483.009	3.38
483.359	3.38
483.709	3.38
484.06	3.39
484.41	3.4
484.761	3.4
485.111	3.4
485.461	3.39
485.811	3.39
486.162	3.4
486.512	3.4
486.862	3.41
487.212	3.41
487.562	3.41
487.912	3.41
488.262	3.42
488.612	3.42
488.961	3.41
489.311	3.41
489.661	3.41
490.011	3.41
490.36	3.42
490.71	3.42
491.06	3.41
491.409	3.41
491.759	3.4
492.108	3.39
492.458	3.41
492.807	3.41
493.157	3.42
493.506	3.41
493.855	3.4
494.204	3.41
494.554	3.42
494.903	3.41
495.252	3.39
495.601	3.39
495.95	3.38
496.299	3.38
496.648	3.38
496.997	3.39
497.346	3.4
497.695	3.4
498.043	3.41
498.392	3.41
498.741	3.43
499.09	3.43
499.438	3.44
499.787	3.43
500.135	3.43
500.484	3.41
500.832	3.42
501.181	3.42
501.529	3.42
501.878	3.43
502.226	3.46
502.574	3.47
502.923	3.45
503.271	3.46
503.619	3.45
503.967	3.45
504.315	3.46
504.663	3.44
505.011	3.44
505.359	3.4
505.707	3.4
506.055	3.4
506.403	3.39
506.751	3.41
507.098	3.4
507.446	3.4
507.794	3.43
508.141	3.43
508.489	3.42
508.837	3.41
509.184	3.4
509.531	3.4
509.879	3.4
510.226	3.42
510.574	3.43
510.921	3.43
511.268	3.43
511.616	3.42
511.963	3.43
512.31	3.42
512.657	3.42
513.004	3.44
513.351	3.44
513.698	3.45
514.045	3.41
514.392	3.41
514.739	3.4
515.086	3.39
515.432	3.4
515.779	3.39
516.126	3.42
516.473	3.43
516.819	3.42
517.166	3.45
517.512	3.43
517.859	3.43
518.205	3.42
518.552	3.4
518.898	3.39
519.245	3.4
519.591	3.39
519.937	3.4
520.283	3.4
520.629	3.38
520.976	3.38
521.322	3.41
521.668	3.43
522.014	3.45
522.36	3.45
522.706	3.45
523.052	3.46
523.398	3.44
523.743	3.43
524.089	3.46
524.435	3.44
524.781	3.46
525.126	3.46
525.472	3.47
525.817	3.48
526.163	3.5
526.509	3.49
526.854	3.52
527.199	3.54
527.545	3.54
527.89	3.53
528.235	3.55
528.581	3.55
528.926	3.54
529.271	3.54
529.616	3.54
529.961	3.53
530.306	3.54
530.651	3.55
530.996	3.56
531.341	3.54
531.686	3.55
532.031	3.55
532.376	3.56
532.721	3.56
533.065	3.57
533.41	3.57
533.755	3.58
534.099	3.57
534.444	3.56
534.788	3.56
535.133	3.56
535.477	3.57
535.822	3.56
536.166	3.56
536.51	3.56
536.855	3.56
537.199	3.58
537.543	3.58
537.887	3.56
538.231	3.56
538.576	3.57
538.92	3.57
539.264	3.58
539.608	3.57
539.951	3.56
540.295	3.55
540.639	3.57
540.983	3.56
541.327	3.56
541.671	3.56
542.014	3.58
542.358	3.59
542.701	3.58
543.045	3.59
543.389	3.6
543.732	3.59
544.075	3.59
544.419	3.59
544.762	3.59
545.105	3.61
545.449	3.6
545.792	3.61
546.135	3.6
546.478	3.6
546.821	3.61
547.165	3.63
547.508	3.62
547.851	3.62
548.194	3.63
548.536	3.63
548.879	3.63
549.222	3.62
549.565	3.61
549.908	3.6
550.25	3.57
550.593	3.57
550.936	3.58
551.278	3.57
551.621	3.56
551.963	3.55
552.306	3.54
552.648	3.56
552.991	3.56
553.333	3.55
553.675	3.54
554.017	3.53
554.36	3.56
554.702	3.56
555.044	3.57
555.386	3.57
555.728	3.57
556.07	3.52
556.412	3.52
556.754	3.51
557.096	3.51
557.438	3.55
557.78	3.55
558.121	3.57
558.463	3.58
558.805	3.6
559.147	3.62
559.488	3.6
559.83	3.59
560.171	3.59
560.513	3.59
560.854	3.6
561.196	3.59
561.537	3.54
561.878	3.56
562.22	3.55
562.561	3.57
562.902	3.56
563.243	3.58
563.584	3.59
563.925	3.61
564.266	3.59
564.607	3.6
564.948	3.58
565.289	3.55
565.63	3.51
565.971	3.51
566.312	3.5
566.653	3.51
566.993	3.49
567.334	3.51
567.675	3.5
568.015	3.52
568.356	3.51
568.696	3.53
569.037	3.5
569.377	3.51
569.718	3.51
570.058	3.52
570.398	3.51
570.739	3.49
571.079	3.47
571.419	3.49
571.759	3.47
572.099	3.46
572.439	3.47
572.779	3.48
573.119	3.5
573.459	3.48
573.799	3.48
574.139	3.49
574.479	3.48
574.819	3.5
575.158	3.48
575.498	3.52
575.838	3.54
576.177	3.54
576.517	3.53
576.856	3.52
577.196	3.51
577.535	3.54
577.875	3.54
578.214	3.53
578.553	3.52
578.893	3.54
579.232	3.56
579.571	3.57
579.91	3.61
580.25	3.59
580.589	3.62
580.928	3.65
581.267	3.67
581.606	3.66
581.945	3.62
582.283	3.62
582.622	3.55
582.961	3.53
583.3	3.56
583.639	3.59
583.977	3.62
584.316	3.6
584.654	3.58
584.993	3.58
585.332	3.64
585.67	3.65
586.008	3.65
586.347	3.67
586.685	3.63
587.024	3.58
587.362	3.57
587.7	3.58
588.038	3.57
588.376	3.55
588.715	3.56
589.053	3.55
589.391	3.58
589.729	3.65
590.067	3.63
590.404	3.63
590.742	3.61
591.08	3.63
591.418	3.67
591.756	3.69
592.093	3.74
592.431	3.68
592.769	3.68
593.106	3.68
593.444	3.68
593.781	3.73
594.119	3.72
594.456	3.75
594.793	3.76
595.131	3.77
595.468	3.79
595.805	3.8
596.143	3.83
596.48	3.81
596.817	3.81
597.154	3.83
597.491	3.81
597.828	3.82
598.165	3.83
598.502	3.79
598.839	3.77
599.176	3.72
599.512	3.77
599.849	3.78
600.186	3.75
600.523	3.75
600.859	3.75
601.196	3.8
601.532	3.78
601.869	3.79
602.205	3.77
602.542	3.72
602.878	3.72
603.215	3.72
603.551	3.73
603.887	3.72
604.223	3.71
604.56	3.71
604.896	3.75
605.232	3.7
605.568	3.75
605.904	3.73
606.24	3.76
606.576	3.74
606.912	3.69
607.248	3.73
607.583	3.74
607.919	3.72
608.255	3.7
608.591	3.71
608.926	3.67
609.262	3.66
609.597	3.7
609.933	3.65
610.268	3.67
610.604	3.66
610.939	3.64
611.275	3.68
611.61	3.71
611.945	3.63
612.281	3.64
612.616	3.65
612.951	3.71
613.286	3.7
613.621	3.73
613.956	3.75
614.291	3.75
614.626	3.74
614.961	3.78
615.296	3.79
615.631	3.79
615.966	3.81
616.3	3.86
616.635	3.81
616.97	3.84
617.304	3.88
617.639	3.91
617.973	3.91
618.308	3.92
618.642	3.88
618.977	3.92
619.311	3.95
619.646	3.91
619.98	3.86
620.314	3.86
620.648	3.82
620.983	3.82
621.317	3.79
621.651	3.82
621.985	3.75
622.319	3.78
622.653	3.81
622.987	3.82
623.321	3.78
623.655	3.87
623.988	3.86
624.322	3.85
624.656	3.87
624.99	3.86
625.323	3.79
625.657	3.83
625.99	3.85
626.324	3.83
626.657	3.83
626.991	3.82
627.324	3.76
627.658	3.78
627.991	3.82
628.324	3.83
628.657	3.83
628.991	3.87
629.324	3.85
629.657	3.8
629.99	3.8
630.323	3.83
630.656	3.81
630.989	3.77
631.322	3.73
631.655	3.68
631.987	3.68
632.32	3.74
632.653	3.71
632.986	3.7
633.318	3.7
633.651	3.72
633.984	3.74
634.316	3.81
634.649	3.8
634.981	3.77
635.313	3.75
635.646	3.72
635.978	3.76
636.31	3.72
636.643	3.72
636.975	3.67
637.307	3.66
637.639	3.63
637.971	3.61
638.303	3.62
638.635	3.63
638.967	3.59
639.299	3.52
639.631	3.5
639.963	3.48
640.295	3.45
640.626	3.46
640.958	3.46
641.29	3.49
641.621	3.49
641.953	3.5
642.285	3.52
642.616	3.54
642.948	3.5
643.279	3.43
643.61	3.47
643.942	3.53
644.273	3.53
644.604	3.5
644.936	3.59
645.267	3.61
645.598	3.59
645.929	3.54
646.26	3.55
646.591	3.55
646.922	3.6
647.253	3.61
647.584	3.62
647.915	3.63
648.245	3.66
648.576	3.7
648.907	3.64
649.238	3.67
649.568	3.6
649.899	3.57
650.229	3.66
650.56	3.68
650.89	3.73
651.221	3.72
651.551	3.78
651.882	3.8
652.212	3.8
652.542	3.89
652.872	3.96
653.203	4.03
653.533	4.06
653.863	4.04
654.193	4.03
654.523	3.97
654.853	4.03
655.183	4.01
655.513	4.05
655.843	4.14
656.172	4.1
656.502	4.05
656.832	4.01
657.162	3.98
657.491	3.99
657.821	3.88
658.15	3.88
658.48	3.87
658.809	3.87
659.139	3.85
659.468	3.78
659.798	3.83
660.127	3.78
660.456	3.76
660.785	3.78
661.115	3.86
661.444	3.92
661.773	3.91
662.102	3.92
662.431	3.85
662.76	3.82
663.089	3.85
663.418	3.94
663.747	4.03
664.076	4.08
664.404	4.07
664.733	4.13
665.062	4.15
665.39	4.15
665.719	4.12
666.048	4.16
666.376	4.21
666.705	4.16
667.033	4.19
667.362	4.2
667.69	4.17
668.018	4.16
668.347	4.09
668.675	3.97
669.003	3.9
669.331	3.96
669.659	3.88
669.987	3.85
670.315	3.82
670.643	3.71
670.971	3.76
671.299	3.72
671.627	3.65
671.955	3.66
672.283	3.64
672.61	3.65
672.938	3.6
673.266	3.58
673.593	3.57
673.921	3.59
674.249	3.51
674.576	3.54
674.904	3.46
675.231	3.52
675.558	3.57
675.886	3.57
676.213	3.52
676.54	3.61
676.867	3.63
677.195	3.69
677.522	3.8
677.849	3.8
678.176	3.8
678.503	3.86
678.83	3.82
679.157	3.8
679.484	3.78
679.81	3.79
680.137	3.85
680.464	3.89
680.791	3.84
681.117	3.97
681.444	3.88
681.771	3.97
682.097	3.99
682.424	3.96
682.75	4.03
683.077	4
683.403	4.04
683.729	4.03
684.056	3.95
684.382	3.9
684.708	3.86
685.034	3.89
685.36	3.85
685.686	3.84
686.012	3.82
686.339	3.8
686.664	3.81
686.99	3.71
687.316	3.71
687.642	3.76
687.968	3.64
688.294	3.77
688.619	3.68
688.945	3.59
689.271	3.57
689.596	3.53
689.922	3.55
690.247	3.54
690.573	3.51
690.898	3.58
691.224	3.69
691.549	3.71
691.874	3.67
692.2	3.65
692.525	3.73
692.85	3.75
693.175	3.75
693.5	3.77
693.825	3.87
694.15	3.83
694.475	3.73
694.8	3.8
695.125	3.74
695.45	3.64
695.775	3.73
696.099	3.85
696.424	3.88
696.749	3.9
697.073	3.87
697.398	3.94
697.723	4.01
698.047	3.97
698.372	3.98
698.696	3.92
699.02	3.99
699.345	4.02
699.669	4.05
699.993	4.1
700.318	4.11
700.642	4.1
700.966	4.14
701.29	4.14
701.614	4.14
701.938	4.13
702.262	4.22
702.586	4.22
702.91	4.19
703.234	4.13
703.557	4.19
703.881	4.21
704.205	4.26
704.529	4.19
704.852	4.13
705.176	4.01
705.499	4.14
705.823	4.16
706.146	3.99
706.47	4.14
706.793	4.1
707.117	4.03
707.44	3.94
707.763	3.92
708.086	4.2
708.409	4.13
708.733	4.02
709.056	3.96
709.379	4.1
709.702	4.13
710.025	4.26
710.348	4.28
710.671	4.21
710.993	4.06
711.316	4.01
711.639	4.17
711.962	4.39
712.284	4.42
712.607	4.36
712.93	4.4
713.252	4.17
713.575	4.09
713.897	4.24
714.22	4.22
714.542	4.24
714.864	3.9
715.187	3.88
715.509	4.02
715.831	4.16
716.153	3.87
716.475	3.84
716.798	3.68
717.12	3.56
717.442	3.61
717.764	3.71
718.085	3.75
718.407	3.71
718.729	3.65
719.051	3.45
719.373	3.43
719.695	3.37
720.016	3.49
720.338	3.76
720.659	3.78
720.981	3.87
721.302	3.82
721.624	4.08
721.945	4.35
722.267	4.39
722.588	4.15
722.909	4.31
723.231	4.2
723.552	4.18
723.873	4.21
724.194	4.41
724.515	4.37
724.836	4.28
725.157	4.3
725.478	4.23
725.799	4.56
726.12	4.62
726.441	4.71
726.762	4.81
727.083	4.61
727.403	4.52
727.724	4.43
728.045	4.48
728.365	4.34
728.686	4.12
729.006	4.11
729.327	4.28
729.647	4.25
729.967	4.33
730.288	4.28
730.608	4.36
730.928	4.17
731.249	4.3
731.569	4.26
731.889	4.26
732.209	4.16
732.529	4.03
732.849	3.95
733.169	3.8
733.489	3.68
733.809	3.8
734.129	3.67
734.448	3.8
734.768	3.73
735.088	3.81
735.408	3.84
735.727	3.81
736.047	3.86
736.366	3.97
736.686	4.09
737.005	4.39
737.325	4.26
737.644	4.1
737.963	3.98
738.283	4.08
738.602	4.03
738.921	4.19
739.24	4.21
739.56	4.2
739.879	4.4
740.198	4.37
740.517	4.29
740.836	4.48
741.155	4.54
741.473	4.61
741.792	4.5
742.111	4.52
742.43	4.52
742.748	4.65
743.067	4.56
743.386	4.52
743.704	4.35
744.023	4.54
744.341	4.62
744.66	4.5
744.978	4.52
745.297	4.4
745.615	4.24
745.933	4.33
746.252	4.55
746.57	4.58
746.888	4.74
747.206	4.72
747.524	4.68
747.842	4.7
748.16	4.77
748.478	5.18
748.796	5.19
749.114	5.42
749.432	5.13
749.749	5.26
750.067	5.12
750.385	5.26
750.703	5.04
751.02	5.36
751.338	5.62
751.655	5.71
751.973	5.74
752.29	5.67
752.608	5.31
752.925	5.14
753.242	5.26
753.56	5.22
753.877	5.33
754.194	5.36
754.511	5.11
754.828	5.09
755.145	4.64
755.462	4.55
755.779	4.27
756.096	4.23
756.413	4.31
756.73	4.54
757.047	4.41
757.364	4.76
757.68	4.7
757.997	4.9
758.314	5.17
758.63	5.3
758.947	5.69
759.264	5.67
759.58	5.56
759.896	5.36
760.213	5.62
760.529	5.55
760.846	5.55
761.162	5.54
761.478	5.43
761.794	5.74
762.11	5.94
762.426	6.11
762.743	6.25
763.059	6.36
763.375	6.28
763.69	6.15
764.006	6.01
764.322	6.02
764.638	5.71
764.954	5.52
765.27	5.5
765.585	5.32
765.901	5.44
766.216	5.54
766.532	5.43
766.848	5.05
767.163	5.07
767.478	4.88
767.794	4.93
768.109	5.16
768.424	5.14
768.74	5.09
769.055	4.98
769.37	4.78
769.685	4.61
770	4.3
770.315	4.62
770.63	4.62
770.945	4.48
771.26	4.46
771.575	4.45
771.89	4.39
772.205	4.39
772.52	4.22
772.834	4.14
773.149	4.5
773.464	4.76
773.778	4.62
774.093	5.07
774.407	5.42
774.722	5.33
775.036	5.25
775.351	5.46
775.665	5.5
775.979	5.6
776.293	5.57
776.608	5.75
776.922	5.6
777.236	5.47
777.55	5.31
777.864	5.47
778.178	5.38
778.492	5.18
778.806	5.61
779.12	5.94
779.434	6.08
779.747	6.15
780.061	6.19
780.375	6.45
780.689	6.45
781.002	6.14
781.316	5.62
781.629	5.35
781.943	4.53
782.256	4.22
782.57	4.32
782.883	3.93
783.196	3.88
783.51	4.03
783.823	4.27
784.136	4.35
784.449	4.24
784.762	4.49
785.075	4.9
785.388	4.38
785.701	4.18
786.014	4.23
786.327	3.81
786.64	3.6
786.953	3.41
787.266	3.44
787.578	3.3
787.891	4.15
788.204	4.5
788.516	5.08
788.829	5.19
789.141	5.5
789.454	6.12
789.766	6.25
790.079	5.78
790.391	5.42
790.703	5.35
791.016	5.66
791.328	5.21
791.64	4.89
791.952	5.15
792.264	5.02
792.576	5.09
792.888	5.42
793.2	5.38
793.512	5.11
793.824	4.92
794.136	4.98
794.448	4.95
794.76	4.73
795.071	4.83
795.383	5.1
795.695	4.57
796.006	3.55
796.318	3.5
796.629	3.49
796.941	3.83
797.252	3.92
797.564	3.68
797.875	3.74
798.186	4.24
798.497	3.81
798.809	4.18
799.12	3.95
799.431	3.87
799.742	4.11
800.053	4.04
800.364	3.9
800.675	4.21
800.986	3.81
801.297	3.49
801.608	3.06
801.918	2.67
802.229	3.13
802.54	3.83
802.851	3.68
803.161	3.92
803.472	4.02
803.782	4.18
804.093	4.61
804.403	4.56
804.714	4.28
805.024	4.37
805.334	4.44
805.645	4.43
805.955	4.8
806.265	4.99
806.575	5.16
806.885	4.5
807.195	4.34
807.505	4.39
807.815	4.71
808.125	4.66
808.435	4.6
808.745	4.64
809.055	4.24
809.365	4.87
809.674	5.13
809.984	4.9
810.294	4.5
810.603	3.77
810.913	3.65
811.222	3.42
811.532	4.14
811.841	4.41
812.151	4.19
812.46	3.93
812.769	4.21
813.079	4.86
813.388	5.96
813.697	5.35
814.006	4.91
814.315	4.56
814.624	5.2
814.933	5.84
815.242	5.91
815.551	6.46
815.86	6.34
816.169	6.27
816.478	6.19
816.786	6.31
817.095	6.45
817.404	6.48
817.712	6.74
818.021	6.4
818.33	5.46
818.638	5.74
818.947	5.83
819.255	5.45
819.563	4.98
819.872	4.59
820.18	4.96
820.488	5.29
820.796	5.61
821.105	5.81
821.413	5.56
821.721	5.53
822.029	5.47
822.337	5.58
822.645	5.64
822.953	5.69
823.26	5.87
823.568	5.84
823.876	6.01
824.184	6.11
824.491	6.06
824.799	6.23
825.107	6.2
825.414	6.08
825.722	6.01
826.029	6.04
826.337	6.1
826.644	6.14
826.951	6.06
827.259	6.15
827.566	5.96
827.873	6.2
828.18	6.29
828.488	6.42
828.795	6.25
829.102	6.08
829.409	5.92
829.716	5.94
830.023	6.38
830.329	6.22
830.636	5.87
830.943	5.73
831.25	5.46
831.557	5.39
831.863	5.35
832.17	5.46
832.476	5.85
832.783	6.11
833.089	6.2
833.396	6.61
833.702	6.27
834.009	6.68
834.315	6.73
834.621	6.37
834.928	6.36
835.234	6.22
835.54	6.2
835.846	6.57
836.152	6.31
836.458	6.43
836.764	6.83
837.07	6.5
837.376	7.24
837.682	7.45
837.988	7.7
838.293	8.11
838.599	8.31
838.905	8.37
839.211	8.1
839.516	7.82
839.822	7.44
840.127	7.55
840.433	6.19
840.738	5.61
841.044	5.32
841.349	4.74
841.654	5.06
841.959	5.39
842.265	4.98
842.57	5.45
842.875	3.44
843.18	1.68
843.485	2.67
843.79	1.32
844.095	1.36
844.4	1.2
844.705	0.57
845.01	1.12
845.315	0.16
845.619	1.41
845.924	1.54
846.229	1.55
846.533	0.15
846.838	0.71
847.142	0.77
847.447	1.6
847.751	2.94
848.056	2.06
848.36	2.32
848.664	1.74
848.969	0.74
849.273	2.17
849.577	4.01
849.881	3.91
850.185	2.41
850.489	3.03
850.794	3.36
851.097	5.03
851.401	3.73
851.705	3.5
852.009	3.52
852.313	0.85
852.617	1.65
852.92	4.7
853.224	6.24
853.528	5.58
853.831	5.61
854.135	5.46
854.438	4.77
854.742	4.11
855.045	5.19
855.349	5.45
855.652	4.32
855.955	4.41
856.259	5.13
856.562	6.79
856.865	6.58
857.168	7.79
857.471	6.08
857.774	5.63
858.077	8.46
858.38	8.8
858.683	10.98
858.986	9.95
859.289	7.81
859.592	7.93
859.894	8.11
860.197	9.61
860.5	10.71
860.802	11.88
861.105	11.21
861.407	10.84
861.71	12.15
862.012	12.57
862.315	10.4
862.617	11.31
862.919	12.26
863.222	12.79
863.524	11.8
863.826	10.35
864.128	12.01
864.43	9.84
864.732	7.7
865.034	8.49
865.336	8.23
865.638	8.43
865.94	6.27
866.242	7.21
866.544	3.97
866.846	3.31
867.147	3.26
867.449	3.96
867.751	4.14
868.052	1.61
868.354	2.58
868.655	4.05
868.957	0.67
869.258	-2.03
869.56	-4.8
869.861	-5.76
870.162	-5.12
870.463	-6.15
870.765	-5.74
871.066	-6.37
871.367	-7.22
871.668	-6.44
871.969	-7.87
872.27	-7.73
872.571	-8.57
872.872	-8.05
873.173	-10.89
873.473	-9.81
873.774	-10.39
874.075	-9.48
874.376	-9.36
874.676	-7.09
874.977	-3.08
875.277	-1.47
875.578	0.63
875.878	2.53
876.179	2.94
876.479	3.95
876.78	4.37
877.08	3.6
877.38	4.87
877.68	5.45
877.981	4.35
878.281	7.73
878.581	10
