Data from MVZ_BU95633_Reflection_00001.txt Node
Date: Tue Nov 19 12:20:56 EST 2019
User: vgr7
Spectrometer: USB2G7710
Scans to average: 3
Trigger mode: 4
Integration Time (sec): 2.000000E-2
Electric dark correction enabled: true
Boxcar width: 10
XAxis mode: Wavelengths
Number of Pixels in Spectrum: 2048
>>>>>Begin Spectral Data<<<<<
177.721	113.19
178.105	78.26
178.488	210.32
178.871	510
179.254	-318.18
179.636	331.34
180.019	319.78
180.402	39.29
180.785	331.58
181.168	75.52
181.55	94.48
181.933	72.68
182.316	92.91
182.698	6.88
183.081	37.11
183.463	39.23
183.846	29.97
184.228	-2.31
184.611	-36.65
184.993	-22.58
185.376	-361.54
185.758	-804.76
186.14	471.43
186.522	326.8
186.904	113.79
187.287	425.58
187.669	78.38
188.051	50.82
188.433	45.36
188.815	53.07
189.197	66.78
189.579	87.92
189.961	80.08
190.342	124.63
190.724	104.33
191.106	125.32
191.488	97.08
191.869	71.07
192.251	47.68
192.633	51.98
193.014	25.12
193.396	21.62
193.777	4.66
194.159	12.81
194.54	14.09
194.922	52.57
195.303	20.63
195.684	19.61
196.065	5.01
196.447	-11.96
196.828	-22.11
197.209	-26.65
197.59	-9.73
197.971	4.03
198.352	-5.46
198.733	-31.06
199.114	-59.59
199.495	-59.73
199.876	-82.78
200.257	-111.14
200.638	-89.77
201.018	-82.19
201.399	-41.58
201.78	-32.24
202.16	-46.94
202.541	-51.32
202.922	-44.75
203.302	-50.22
203.683	-43.7
204.063	-30.97
204.444	-35.57
204.824	-18.71
205.204	-16.82
205.585	-21.51
205.965	-28.11
206.345	-21.87
206.725	-10.13
207.106	0.3
207.486	-1.59
207.866	11.28
208.246	15.78
208.626	13.29
209.006	13.21
209.386	11.54
209.766	14.59
210.145	25.08
210.525	34.08
210.905	23.24
211.285	33.07
211.664	39.56
212.044	29.38
212.424	37.21
212.803	33.61
213.183	24.38
213.562	30.96
213.942	31.24
214.321	35.79
214.701	41.34
215.08	29.72
215.459	35.84
215.838	29.96
216.218	21.33
216.597	23.08
216.976	28.17
217.355	18.14
217.734	7.01
218.113	5.9
218.492	1.23
218.871	20.93
219.25	6.74
219.629	-23.26
220.008	-22.16
220.387	-25.58
220.766	-17.07
221.144	-8.73
221.523	-20.14
221.902	-4.67
222.28	3.91
222.659	9.8
223.037	13.08
223.416	16.13
223.794	13.47
224.173	12.8
224.551	13.48
224.929	13.49
225.308	7.49
225.686	8.82
226.064	4.23
226.442	6.27
226.821	3.88
227.199	3.16
227.577	4.16
227.955	6.53
228.333	5.56
228.711	4.31
229.089	1.04
229.467	3.61
229.845	0.72
230.222	0.16
230.6	-0.54
230.978	0.94
231.356	-1.81
231.733	-1.63
232.111	0.13
232.488	-1.29
232.866	-0.02
233.243	1.2
233.621	0.68
233.998	2.41
234.376	0.46
234.753	-1.38
235.13	-0.9
235.508	-0.65
235.885	0.97
236.262	1.28
236.639	2.2
237.016	3.29
237.393	3.45
237.77	4.74
238.147	3.93
238.524	3.93
238.901	3.33
239.278	3.36
239.655	3.2
240.032	3.31
240.409	3.89
240.785	3.85
241.162	4.05
241.539	3.87
241.915	3.97
242.292	3.99
242.668	4.85
243.045	5.11
243.421	5.1
243.798	4.83
244.174	4.62
244.551	4.58
244.927	4.54
245.303	4.11
245.679	4.01
246.056	4.07
246.432	4.18
246.808	4.23
247.184	4.75
247.56	4.84
247.936	4.96
248.312	4.97
248.688	5.07
249.064	4.9
249.44	5.05
249.815	5.2
250.191	5.44
250.567	5.34
250.943	5.28
251.318	5.33
251.694	4.99
252.069	5.11
252.445	5.01
252.82	5.17
253.196	5.49
253.571	5.53
253.947	5.69
254.322	5.69
254.697	5.87
255.073	5.13
255.448	5.04
255.823	4.95
256.198	4.76
256.573	4.29
256.948	4.56
257.323	4.61
257.698	4.45
258.073	4.15
258.448	4.17
258.823	3.97
259.198	3.83
259.573	3.77
259.948	3.95
260.322	3.91
260.697	3.84
261.072	3.76
261.446	3.66
261.821	3.5
262.195	3.46
262.57	3.47
262.944	3.79
263.319	3.92
263.693	3.79
264.067	3.76
264.442	4
264.816	3.82
265.19	3.69
265.564	3.56
265.938	3.75
266.313	3.63
266.687	3.77
267.061	3.94
267.435	4.36
267.809	4.1
268.183	4.05
268.556	4.08
268.93	3.93
269.304	4.06
269.678	4.18
270.051	4.24
270.425	4.25
270.799	3.87
271.172	3.73
271.546	3.74
271.919	3.68
272.293	3.67
272.666	3.75
273.04	3.78
273.413	3.79
273.787	3.68
274.16	3.64
274.533	3.72
274.906	3.71
275.279	3.5
275.653	3.61
276.026	3.74
276.399	3.63
276.772	3.86
277.145	3.73
277.518	3.81
277.891	3.74
278.263	3.71
278.636	3.76
279.009	3.84
279.382	3.87
279.755	3.87
280.127	3.88
280.5	3.95
280.872	3.77
281.245	3.7
281.617	3.66
281.99	3.72
282.362	3.65
282.735	3.58
283.107	3.56
283.479	3.57
283.852	3.54
284.224	3.68
284.596	3.59
284.968	3.59
285.34	3.46
285.713	3.47
286.085	3.36
286.457	3.44
286.829	3.36
287.201	3.11
287.572	3.27
287.944	3.23
288.316	3.1
288.688	3.36
289.06	3.36
289.431	3.35
289.803	3.46
290.175	3.57
290.546	3.51
290.918	3.54
291.289	3.4
291.661	3.41
292.032	3.41
292.403	3.39
292.775	3.45
293.146	3.55
293.517	3.61
293.889	3.77
294.26	3.79
294.631	3.86
295.002	4.12
295.373	3.93
295.744	3.94
296.115	3.87
296.486	3.76
296.857	3.82
297.228	3.81
297.599	3.63
297.97	3.53
298.34	3.66
298.711	3.64
299.082	3.75
299.452	3.81
299.823	3.72
300.194	3.79
300.564	3.63
300.935	3.63
301.305	3.54
301.676	3.15
302.046	3.08
302.416	3.07
302.787	3
303.157	3.05
303.527	3.04
303.897	3.11
304.267	3.14
304.637	3.17
305.008	3.31
305.378	3.39
305.748	3.43
306.117	3.22
306.487	3.3
306.857	3.39
307.227	3.42
307.597	3.45
307.967	3.4
308.336	3.53
308.706	3.53
309.076	3.63
309.445	3.8
309.815	3.9
310.184	3.9
310.554	3.86
310.923	3.77
311.293	3.75
311.662	3.78
312.031	3.86
312.401	3.72
312.77	3.6
313.139	3.5
313.508	3.38
313.877	3.42
314.246	3.41
314.616	3.42
314.985	3.27
315.353	3.38
315.722	3.48
316.091	3.55
316.46	3.63
316.829	3.46
317.198	3.52
317.567	3.5
317.935	3.37
318.304	3.61
318.672	3.68
319.041	3.62
319.41	3.49
319.778	3.38
320.147	3.35
320.515	3.43
320.883	3.33
321.252	3.42
321.62	3.43
321.988	3.53
322.357	3.43
322.725	3.53
323.093	3.21
323.461	3.26
323.829	3.13
324.197	2.97
324.565	3.08
324.933	3.13
325.301	2.98
325.669	3
326.037	2.89
326.405	2.88
326.772	2.95
327.14	3.01
327.508	3.01
327.875	3.13
328.243	3
328.61	3.16
328.978	3.16
329.346	3.14
329.713	3.17
330.08	3.21
330.448	3.19
330.815	3.37
331.182	3.17
331.55	3.05
331.917	3.07
332.284	3
332.651	2.95
333.018	2.93
333.385	3.03
333.752	2.95
334.119	3.09
334.486	3.2
334.853	3.18
335.22	3.09
335.587	3.02
335.954	3.09
336.32	3.04
336.687	3.03
337.054	3.13
337.42	3.04
337.787	3
338.153	3.11
338.52	3.2
338.886	3.3
339.253	3.35
339.619	3.38
339.986	3.38
340.352	3.35
340.718	3.4
341.084	3.37
341.451	3.43
341.817	3.29
342.183	3.12
342.549	3.18
342.915	3.33
343.281	3.39
343.647	3.33
344.013	3.39
344.379	3.37
344.745	3.39
345.11	3.39
345.476	3.4
345.842	3.28
346.208	3.21
346.573	3.13
346.939	3.19
347.304	3.26
347.67	3.16
348.035	3.19
348.401	3.2
348.766	3.24
349.132	3.27
349.497	3.34
349.862	3.44
350.228	3.42
350.593	3.23
350.958	3.3
351.323	3.25
351.688	3.32
352.053	3.39
352.418	3.44
352.783	3.49
353.148	3.42
353.513	3.37
353.878	3.38
354.243	3.38
354.608	3.41
354.972	3.44
355.337	3.57
355.702	3.56
356.066	3.56
356.431	3.48
356.795	3.59
357.16	3.62
357.524	3.56
357.889	3.55
358.253	3.55
358.618	3.55
358.982	3.6
359.346	3.53
359.71	3.47
360.075	3.43
360.439	3.38
360.803	3.48
361.167	3.49
361.531	3.44
361.895	3.49
362.259	3.46
362.623	3.44
362.987	3.45
363.351	3.45
363.714	3.44
364.078	3.46
364.442	3.3
364.806	3.33
365.169	3.41
365.533	3.48
365.896	3.56
366.26	3.52
366.623	3.57
366.987	3.63
367.35	3.7
367.714	3.65
368.077	3.69
368.44	3.66
368.803	3.77
369.167	3.77
369.53	3.76
369.893	3.78
370.256	3.73
370.619	3.64
370.982	3.63
371.345	3.64
371.708	3.64
372.071	3.64
372.434	3.57
372.797	3.51
373.159	3.47
373.522	3.45
373.885	3.45
374.247	3.38
374.61	3.3
374.973	3.27
375.335	3.27
375.698	3.19
376.06	3.17
376.423	3.04
376.785	3.11
377.147	3.15
377.51	3.12
377.872	3.16
378.234	3.2
378.596	3.22
378.958	3.26
379.321	3.21
379.683	3.31
380.045	3.29
380.407	3.27
380.769	3.3
381.13	3.3
381.492	3.27
381.854	3.37
382.216	3.51
382.578	3.52
382.939	3.53
383.301	3.58
383.663	3.53
384.024	3.56
384.386	3.54
384.747	3.47
385.109	3.48
385.47	3.48
385.832	3.46
386.193	3.5
386.554	3.42
386.916	3.45
387.277	3.39
387.638	3.44
387.999	3.5
388.36	3.5
388.721	3.51
389.082	3.55
389.443	3.56
389.804	3.48
390.165	3.49
390.526	3.48
390.887	3.45
391.248	3.49
391.609	3.51
391.969	3.48
392.33	3.47
392.691	3.48
393.051	3.43
393.412	3.46
393.772	3.45
394.133	3.5
394.493	3.5
394.854	3.49
395.214	3.47
395.574	3.42
395.935	3.43
396.295	3.43
396.655	3.45
397.015	3.41
397.376	3.42
397.736	3.41
398.096	3.41
398.456	3.4
398.816	3.4
399.176	3.38
399.535	3.41
399.895	3.41
400.255	3.43
400.615	3.41
400.975	3.4
401.334	3.39
401.694	3.41
402.054	3.42
402.413	3.41
402.773	3.42
403.132	3.4
403.492	3.39
403.851	3.4
404.211	3.39
404.57	3.4
404.929	3.38
405.288	3.37
405.648	3.39
406.007	3.38
406.366	3.36
406.725	3.39
407.084	3.41
407.443	3.42
407.802	3.41
408.161	3.46
408.52	3.48
408.879	3.49
409.238	3.5
409.596	3.49
409.955	3.49
410.314	3.5
410.673	3.53
411.031	3.5
411.39	3.51
411.748	3.5
412.107	3.5
412.465	3.52
412.824	3.52
413.182	3.53
413.54	3.57
413.899	3.6
414.257	3.62
414.615	3.59
414.974	3.58
415.332	3.57
415.69	3.59
416.048	3.58
416.406	3.56
416.764	3.54
417.122	3.55
417.48	3.58
417.838	3.58
418.195	3.57
418.553	3.58
418.911	3.57
419.269	3.57
419.626	3.54
419.984	3.53
420.342	3.54
420.699	3.52
421.057	3.52
421.414	3.53
421.772	3.53
422.129	3.51
422.486	3.51
422.844	3.52
423.201	3.51
423.558	3.5
423.915	3.51
424.273	3.53
424.63	3.53
424.987	3.51
425.344	3.5
425.701	3.5
426.058	3.51
426.415	3.51
426.772	3.5
427.128	3.54
427.485	3.56
427.842	3.56
428.199	3.59
428.555	3.58
428.912	3.56
429.269	3.56
429.625	3.58
429.982	3.61
430.338	3.6
430.695	3.57
431.051	3.59
431.407	3.59
431.764	3.58
432.12	3.59
432.476	3.6
432.832	3.59
433.189	3.59
433.545	3.58
433.901	3.58
434.257	3.6
434.613	3.59
434.969	3.57
435.325	3.56
435.681	3.54
436.036	3.56
436.392	3.57
436.748	3.57
437.104	3.55
437.459	3.55
437.815	3.55
438.171	3.56
438.526	3.56
438.882	3.56
439.237	3.57
439.593	3.57
439.948	3.57
440.304	3.59
440.659	3.59
441.014	3.6
441.369	3.62
441.725	3.61
442.08	3.6
442.435	3.6
442.79	3.61
443.145	3.61
443.5	3.6
443.855	3.57
444.21	3.56
444.565	3.58
444.92	3.58
445.275	3.59
445.629	3.6
445.984	3.6
446.339	3.6
446.693	3.57
447.048	3.56
447.403	3.57
447.757	3.56
448.112	3.57
448.466	3.59
448.82	3.57
449.175	3.58
449.529	3.6
449.883	3.6
450.238	3.6
450.592	3.6
450.946	3.61
451.3	3.63
451.654	3.6
452.008	3.61
452.362	3.61
452.716	3.6
453.07	3.59
453.424	3.6
453.778	3.6
454.132	3.6
454.486	3.61
454.839	3.62
455.193	3.65
455.547	3.65
455.9	3.62
456.254	3.63
456.607	3.6
456.961	3.6
457.314	3.58
457.668	3.59
458.021	3.6
458.375	3.61
458.728	3.61
459.081	3.63
459.434	3.64
459.787	3.66
460.141	3.65
460.494	3.67
460.847	3.67
461.2	3.67
461.553	3.68
461.906	3.67
462.259	3.66
462.611	3.65
462.964	3.64
463.317	3.66
463.67	3.65
464.022	3.69
464.375	3.69
464.728	3.7
465.08	3.71
465.433	3.72
465.785	3.71
466.138	3.73
466.49	3.76
466.843	3.74
467.195	3.72
467.547	3.75
467.899	3.75
468.252	3.75
468.604	3.78
468.956	3.78
469.308	3.78
469.66	3.8
470.012	3.79
470.364	3.8
470.716	3.79
471.068	3.79
471.42	3.78
471.772	3.78
472.123	3.79
472.475	3.76
472.827	3.76
473.178	3.78
473.53	3.78
473.882	3.78
474.233	3.78
474.585	3.79
474.936	3.78
475.288	3.76
475.639	3.76
475.99	3.74
476.342	3.76
476.693	3.78
477.044	3.78
477.395	3.8
477.746	3.78
478.097	3.79
478.448	3.78
478.8	3.8
479.15	3.79
479.501	3.79
479.852	3.78
480.203	3.79
480.554	3.78
480.905	3.78
481.255	3.77
481.606	3.79
481.957	3.79
482.307	3.79
482.658	3.8
483.009	3.8
483.359	3.81
483.709	3.81
484.06	3.81
484.41	3.82
484.761	3.81
485.111	3.82
485.461	3.82
485.811	3.82
486.162	3.82
486.512	3.82
486.862	3.84
487.212	3.85
487.562	3.85
487.912	3.85
488.262	3.85
488.612	3.85
488.961	3.86
489.311	3.85
489.661	3.86
490.011	3.87
490.36	3.87
490.71	3.87
491.06	3.86
491.409	3.86
491.759	3.86
492.108	3.88
492.458	3.87
492.807	3.88
493.157	3.89
493.506	3.89
493.855	3.87
494.204	3.85
494.554	3.85
494.903	3.86
495.252	3.88
495.601	3.89
495.95	3.91
496.299	3.91
496.648	3.91
496.997	3.9
497.346	3.9
497.695	3.9
498.043	3.92
498.392	3.93
498.741	3.95
499.09	3.95
499.438	3.94
499.787	3.94
500.135	3.95
500.484	3.96
500.832	3.98
501.181	4
501.529	4.01
501.878	4.03
502.226	4.04
502.574	4.02
502.923	4.02
503.271	3.97
503.619	3.98
503.967	3.98
504.315	3.99
504.663	3.98
505.011	3.97
505.359	3.96
505.707	3.94
506.055	3.95
506.403	3.94
506.751	3.93
507.098	3.93
507.446	3.91
507.794	3.91
508.141	3.91
508.489	3.92
508.837	3.92
509.184	3.91
509.531	3.92
509.879	3.92
510.226	3.91
510.574	3.95
510.921	3.94
511.268	3.96
511.616	3.96
511.963	3.99
512.31	3.99
512.657	3.99
513.004	4.02
513.351	4
513.698	4.01
514.045	4.04
514.392	4.05
514.739	4.08
515.086	4.1
515.432	4.12
515.779	4.11
516.126	4.12
516.473	4.12
516.819	4.11
517.166	4.12
517.512	4.11
517.859	4.11
518.205	4.1
518.552	4.11
518.898	4.12
519.245	4.13
519.591	4.13
519.937	4.14
520.283	4.13
520.629	4.14
520.976	4.16
521.322	4.17
521.668	4.16
522.014	4.17
522.36	4.17
522.706	4.16
523.052	4.18
523.398	4.17
523.743	4.2
524.089	4.21
524.435	4.23
524.781	4.24
525.126	4.23
525.472	4.25
525.817	4.24
526.163	4.23
526.509	4.24
526.854	4.25
527.199	4.26
527.545	4.27
527.89	4.27
528.235	4.26
528.581	4.25
528.926	4.26
529.271	4.24
529.616	4.25
529.961	4.25
530.306	4.25
530.651	4.27
530.996	4.26
531.341	4.27
531.686	4.28
532.031	4.28
532.376	4.29
532.721	4.28
533.065	4.3
533.41	4.3
533.755	4.31
534.099	4.3
534.444	4.29
534.788	4.29
535.133	4.3
535.477	4.31
535.822	4.31
536.166	4.31
536.51	4.32
536.855	4.31
537.199	4.32
537.543	4.32
537.887	4.32
538.231	4.33
538.576	4.31
538.92	4.32
539.264	4.33
539.608	4.34
539.951	4.36
540.295	4.34
540.639	4.36
540.983	4.36
541.327	4.36
541.671	4.37
542.014	4.37
542.358	4.36
542.701	4.36
543.045	4.38
543.389	4.38
543.732	4.4
544.075	4.41
544.419	4.41
544.762	4.4
545.105	4.39
545.449	4.4
545.792	4.41
546.135	4.41
546.478	4.41
546.821	4.41
547.165	4.42
547.508	4.44
547.851	4.44
548.194	4.42
548.536	4.43
548.879	4.42
549.222	4.43
549.565	4.42
549.908	4.43
550.25	4.42
550.593	4.4
550.936	4.42
551.278	4.41
551.621	4.42
551.963	4.41
552.306	4.42
552.648	4.4
552.991	4.4
553.333	4.4
553.675	4.41
554.017	4.43
554.36	4.41
554.702	4.39
555.044	4.35
555.386	4.38
555.728	4.36
556.07	4.38
556.412	4.41
556.754	4.39
557.096	4.38
557.438	4.35
557.78	4.38
558.121	4.35
558.463	4.35
558.805	4.34
559.147	4.41
559.488	4.4
559.83	4.41
560.171	4.42
560.513	4.43
560.854	4.46
561.196	4.44
561.537	4.48
561.878	4.48
562.22	4.54
562.561	4.53
562.902	4.52
563.243	4.51
563.584	4.51
563.925	4.57
564.266	4.6
564.607	4.66
564.948	4.64
565.289	4.63
565.63	4.63
565.971	4.6
566.312	4.59
566.653	4.59
566.993	4.59
567.334	4.58
567.675	4.58
568.015	4.55
568.356	4.56
568.696	4.53
569.037	4.52
569.377	4.5
569.718	4.46
570.058	4.5
570.398	4.48
570.739	4.45
571.079	4.43
571.419	4.43
571.759	4.4
572.099	4.39
572.439	4.39
572.779	4.42
573.119	4.45
573.459	4.41
573.799	4.4
574.139	4.37
574.479	4.39
574.819	4.4
575.158	4.39
575.498	4.36
575.838	4.34
576.177	4.36
576.517	4.34
576.856	4.35
577.196	4.33
577.535	4.34
577.875	4.37
578.214	4.38
578.553	4.35
578.893	4.38
579.232	4.43
579.571	4.43
579.91	4.45
580.25	4.47
580.589	4.49
580.928	4.48
581.267	4.5
581.606	4.48
581.945	4.45
582.283	4.49
582.622	4.52
582.961	4.55
583.3	4.55
583.639	4.58
583.977	4.63
584.316	4.66
584.654	4.66
584.993	4.63
585.332	4.64
585.67	4.62
586.008	4.56
586.347	4.51
586.685	4.47
587.024	4.42
587.362	4.4
587.7	4.38
588.038	4.42
588.376	4.45
588.715	4.44
589.053	4.44
589.391	4.41
589.729	4.42
590.067	4.42
590.404	4.46
590.742	4.48
591.08	4.46
591.418	4.49
591.756	4.47
592.093	4.53
592.431	4.51
592.769	4.54
593.106	4.61
593.444	4.67
593.781	4.69
594.119	4.71
594.456	4.71
594.793	4.73
595.131	4.76
595.468	4.76
595.805	4.8
596.143	4.79
596.48	4.84
596.817	4.82
597.154	4.81
597.491	4.79
597.828	4.77
598.165	4.76
598.502	4.73
598.839	4.71
599.176	4.7
599.512	4.65
599.849	4.63
600.186	4.56
600.523	4.54
600.859	4.54
601.196	4.54
601.532	4.54
601.869	4.57
602.205	4.55
602.542	4.56
602.878	4.55
603.215	4.58
603.551	4.56
603.887	4.58
604.223	4.58
604.56	4.6
604.896	4.63
605.232	4.61
605.568	4.63
605.904	4.67
606.24	4.67
606.576	4.73
606.912	4.73
607.248	4.76
607.583	4.8
607.919	4.76
608.255	4.74
608.591	4.74
608.926	4.68
609.262	4.65
609.597	4.62
609.933	4.61
610.268	4.6
610.604	4.58
610.939	4.59
611.275	4.63
611.61	4.62
611.945	4.56
612.281	4.59
612.616	4.59
612.951	4.56
613.286	4.53
613.621	4.51
613.956	4.53
614.291	4.51
614.626	4.52
614.961	4.59
615.296	4.59
615.631	4.68
615.966	4.72
616.3	4.79
616.635	4.77
616.97	4.8
617.304	4.8
617.639	4.83
617.973	4.8
618.308	4.81
618.642	4.86
618.977	4.93
619.311	5.02
619.646	5.03
619.98	5.11
620.314	5.11
620.648	5.07
620.983	5.12
621.317	5.14
621.651	5.09
621.985	5.06
622.319	5.11
622.653	5.04
622.987	5.05
623.321	5.05
623.655	5.07
623.988	5.09
624.322	5.1
624.656	5.14
624.99	5.14
625.323	5.06
625.657	5.07
625.99	5.06
626.324	4.98
626.657	4.99
626.991	4.96
627.324	5
627.658	5.06
627.991	5.04
628.324	5.02
628.657	5.01
628.991	5.04
629.324	5.01
629.657	5.02
629.99	5.02
630.323	4.97
630.656	4.99
630.989	4.94
631.322	4.95
631.655	4.87
631.987	4.9
632.32	4.96
632.653	4.93
632.986	4.91
633.318	4.95
633.651	4.93
633.984	4.89
634.316	4.87
634.649	4.84
634.981	4.82
635.313	4.85
635.646	4.87
635.978	4.93
636.31	4.91
636.643	4.93
636.975	4.92
637.307	4.94
637.639	4.9
637.971	4.9
638.303	4.91
638.635	4.95
638.967	4.9
639.299	4.86
639.631	4.86
639.963	4.86
640.295	4.83
640.626	4.82
640.958	4.86
641.29	4.85
641.621	4.79
641.953	4.75
642.285	4.76
642.616	4.79
642.948	4.71
643.279	4.79
643.61	4.79
643.942	4.83
644.273	4.8
644.604	4.79
644.936	4.89
645.267	4.91
645.598	4.88
645.929	4.95
646.26	4.92
646.591	4.99
646.922	5
647.253	5
647.584	5.01
647.915	5.02
648.245	5.03
648.576	5.16
648.907	5.23
649.238	5.24
649.568	5.28
649.899	5.27
650.229	5.26
650.56	5.22
650.89	5.25
651.221	5.29
651.551	5.33
651.882	5.29
652.212	5.23
652.542	5.3
652.872	5.29
653.203	5.38
653.533	5.34
653.863	5.37
654.193	5.41
654.523	5.4
654.853	5.5
655.183	5.5
655.513	5.43
655.843	5.41
656.172	5.44
656.502	5.43
656.832	5.45
657.162	5.4
657.491	5.46
657.821	5.42
658.15	5.46
658.48	5.48
658.809	5.49
659.139	5.57
659.468	5.55
659.798	5.57
660.127	5.48
660.456	5.4
660.785	5.32
661.115	5.26
661.444	5.3
661.773	5.23
662.102	5.22
662.431	5.23
662.76	5.23
663.089	5.24
663.418	5.21
663.747	5.22
664.076	5.24
664.404	5.24
664.733	5.29
665.062	5.25
665.39	5.28
665.719	5.15
666.048	5.08
666.376	5.15
666.705	5.07
667.033	5.16
667.362	5.19
667.69	5.19
668.018	5.26
668.347	5.24
668.675	5.24
669.003	5.21
669.331	5.25
669.659	5.26
669.987	5.27
670.315	5.28
670.643	5.28
670.971	5.41
671.299	5.44
671.627	5.4
671.955	5.32
672.283	5.27
672.61	5.38
672.938	5.39
673.266	5.31
673.593	5.39
673.921	5.37
674.249	5.45
674.576	5.48
674.904	5.44
675.231	5.48
675.558	5.49
675.886	5.62
676.213	5.64
676.54	5.62
676.867	5.6
677.195	5.64
677.522	5.74
677.849	5.62
678.176	5.52
678.503	5.51
678.83	5.59
679.157	5.63
679.484	5.54
679.81	5.52
680.137	5.59
680.464	5.61
680.791	5.64
681.117	5.57
681.444	5.66
681.771	5.68
682.097	5.63
682.424	5.49
682.75	5.39
683.077	5.4
683.403	5.53
683.729	5.49
684.056	5.47
684.382	5.4
684.708	5.4
685.034	5.52
685.36	5.57
685.686	5.65
686.012	5.63
686.339	5.7
686.664	5.74
686.99	5.61
687.316	5.59
687.642	5.56
687.968	5.63
688.294	5.53
688.619	5.6
688.945	5.64
689.271	5.81
689.596	5.93
689.922	5.87
690.247	5.8
690.573	5.82
690.898	5.79
691.224	5.87
691.549	5.88
691.874	5.88
692.2	5.82
692.525	5.78
692.85	5.78
693.175	5.84
693.5	5.83
693.825	6.05
694.15	5.98
694.475	6.06
694.8	5.94
695.125	6
695.45	5.97
695.775	5.96
696.099	6
696.424	5.92
696.749	6.03
697.073	6.01
697.398	6.04
697.723	6.09
698.047	5.98
698.372	5.96
698.696	5.84
699.02	5.92
699.345	5.93
699.669	5.95
699.993	5.98
700.318	6.07
700.642	5.93
700.966	5.95
701.29	6.09
701.614	6.26
701.938	6.34
702.262	6.3
702.586	6.29
702.91	6.24
703.234	6.14
703.557	6.08
703.881	6.02
704.205	5.91
704.529	5.99
704.852	6.13
705.176	6.19
705.499	6.17
705.823	6.15
706.146	6.19
706.47	6.21
706.793	6.15
707.117	5.91
707.44	6.02
707.763	5.97
708.086	5.66
708.409	5.58
708.733	5.53
709.056	5.66
709.379	5.74
709.702	5.76
710.025	6.05
710.348	6
710.671	6.05
710.993	6.09
711.316	6.1
711.639	6.03
711.962	6.11
712.284	6.2
712.607	6.17
712.93	5.94
713.252	5.99
713.575	6.01
713.897	5.93
714.22	5.88
714.542	5.97
714.864	6.01
715.187	5.89
715.509	5.81
715.831	5.71
716.153	5.61
716.475	5.63
716.798	5.47
717.12	5.41
717.442	5.39
717.764	5.45
718.085	5.3
718.407	5.39
718.729	5.28
719.051	5.37
719.373	5.35
719.695	5.49
720.016	5.46
720.338	5.53
720.659	5.73
720.981	5.63
721.302	5.79
721.624	5.71
721.945	5.8
722.267	5.87
722.588	5.94
722.909	6.18
723.231	6.19
723.552	6.25
723.873	6.31
724.194	6.31
724.515	6.37
724.836	6.33
725.157	6.35
725.478	6.22
725.799	6.08
726.12	6.23
726.441	6.06
726.762	6.01
727.083	6.14
727.403	6.09
727.724	6.14
728.045	6
728.365	6.13
728.686	6.34
729.006	6.39
729.327	6.34
729.647	6.1
729.967	6.11
730.288	6.22
730.608	6.33
730.928	6.53
731.249	6.55
731.569	6.58
731.889	6.41
732.209	6.62
732.529	6.71
732.849	6.66
733.169	6.95
733.489	6.89
733.809	6.7
734.129	6.85
734.448	6.93
734.768	6.92
735.088	6.85
735.408	6.67
735.727	6.62
736.047	6.74
736.366	6.84
736.686	6.68
737.005	6.72
737.325	6.72
737.644	6.49
737.963	6.32
738.283	6.35
738.602	6.56
738.921	6.49
739.24	6.46
739.56	6.65
739.879	6.52
740.198	6.65
740.517	6.45
740.836	6.3
741.155	6.4
741.473	6.38
741.792	6.61
742.111	6.77
742.43	6.95
742.748	7.29
743.067	7.02
743.386	6.99
743.704	6.88
744.023	6.95
744.341	6.94
744.66	7.23
744.978	7.23
745.297	7.05
745.615	7.24
745.933	7.4
746.252	7.19
746.57	7.26
746.888	7.23
747.206	7.71
747.524	7.7
747.842	7.47
748.16	7.59
748.478	7.32
748.796	7.03
749.114	6.74
749.432	6.3
749.749	6.58
750.067	6.87
750.385	6.91
750.703	6.79
751.02	6.72
751.338	6.52
751.655	6.63
751.973	6.75
752.29	6.56
752.608	6.51
752.925	6.65
753.242	6.7
753.56	6.67
753.877	6.25
754.194	6.42
754.511	6.5
754.828	6.18
755.145	6.23
755.462	6.62
755.779	6.81
756.096	6.73
756.413	6.89
756.73	6.78
757.047	6.88
757.364	6.94
757.68	7.25
757.997	7.39
758.314	7.35
758.63	7.34
758.947	7.52
759.264	7.49
759.58	7.4
759.896	7.48
760.213	7.53
760.529	7.71
760.846	7.89
761.162	7.86
761.478	8.02
761.794	8.3
762.11	8.03
762.426	7.87
762.743	7.76
763.059	7.79
763.375	7.72
763.69	7.64
764.006	7.71
764.322	7.74
764.638	7.74
764.954	7.79
765.27	7.85
765.585	7.85
765.901	7.81
766.216	7.85
766.532	7.99
766.848	8.08
767.163	8.12
767.478	8.03
767.794	8.12
768.109	8.2
768.424	8.18
768.74	8.37
769.055	8.48
769.37	8.67
769.685	8.44
770	8.59
770.315	8.6
770.63	8.35
770.945	8.3
771.26	8.25
771.575	8.08
771.89	7.81
772.205	7.22
772.52	7.14
772.834	6.76
773.149	6.59
773.464	6.65
773.778	6.44
774.093	6.4
774.407	6.54
774.722	6.69
775.036	6.49
775.351	6.57
775.665	6.52
775.979	6.79
776.293	6.9
776.608	6.76
776.922	6.67
777.236	6.74
777.55	6.23
777.864	6.41
778.178	6.23
778.492	6.32
778.806	7.03
779.12	7.38
779.434	7.66
779.747	7.54
780.061	7.63
780.375	7.99
780.689	8.05
781.002	8.01
781.316	8.05
781.629	8.11
781.943	7.78
782.256	7.84
782.57	7.56
782.883	7.79
783.196	8.3
783.51	8.34
783.823	8.4
784.136	8.4
784.449	8.25
784.762	8.43
785.075	8.41
785.388	8.14
785.701	8.05
786.014	7.83
786.327	7.71
786.64	7.46
786.953	7.24
787.266	7.23
787.578	7.43
787.891	7.31
788.204	7.53
788.516	7.82
788.829	7.7
789.141	7.99
789.454	7.56
789.766	7.37
790.079	7.76
790.391	7.94
790.703	8.37
791.016	8.83
791.328	9
791.64	8.71
791.952	8.91
792.264	8.65
792.576	9.03
792.888	9.16
793.2	9.22
793.512	9.36
793.824	9.1
794.136	8.89
794.448	8.72
794.76	8.62
795.071	8.5
795.383	8.91
795.695	8.71
796.006	9.3
796.318	9.47
796.629	9.25
796.941	9.11
797.252	9.03
797.564	8.94
797.875	8.67
798.186	9.22
798.497	8.75
798.809	8.38
799.12	7.99
799.431	8.19
799.742	8.04
800.053	7.54
800.364	8.11
800.675	8.4
800.986	8.65
801.297	8.27
801.608	8.4
801.918	8.26
802.229	8.3
802.54	7.48
802.851	7.21
803.161	6.95
803.472	7.41
803.782	7.95
804.093	7.7
804.403	8.39
804.714	8.17
805.024	9.14
805.334	9.41
805.645	9.81
805.955	10.04
806.265	10.31
806.575	10.92
806.885	10.46
807.195	10.26
807.505	9.9
807.815	9.91
808.125	9.51
808.435	9.91
808.745	9.82
809.055	10.21
809.365	10.65
809.674	11.06
809.984	10.59
810.294	10.22
810.603	10.07
810.913	9.39
811.222	8.95
811.532	8.2
811.841	8.84
812.151	8.49
812.46	7.5
812.769	7.47
813.079	7.99
813.388	8.24
813.697	7.49
814.006	8.15
814.315	8.07
814.624	8.57
814.933	8.22
815.242	8.26
815.551	8.36
815.86	8.3
816.169	7.97
816.478	8.93
816.786	8.98
817.095	9.15
817.404	9
817.712	9.95
818.021	10.26
818.33	10.24
818.638	10.81
818.947	11.07
819.255	10.45
819.563	9.88
819.872	9.5
820.18	9.98
820.488	10.07
820.796	10.34
821.105	10.3
821.413	10.34
821.721	10.43
822.029	10.45
822.337	10.37
822.645	10.53
822.953	10.4
823.26	10.49
823.568	10.31
823.876	10.43
824.184	10.32
824.491	10.2
824.799	10.27
825.107	10.18
825.414	10.06
825.722	10.16
826.029	10.16
826.337	10.3
826.644	10.32
826.951	10.06
827.259	10.01
827.566	10.04
827.873	10.01
828.18	9.88
828.488	9.86
828.795	9.91
829.102	9.74
829.409	9.37
829.716	9.16
830.023	9.45
830.329	9.64
830.636	9.62
830.943	9.54
831.25	9.66
831.557	9.58
831.863	9.86
832.17	10.18
832.476	10.36
832.783	10.28
833.089	10.21
833.396	10.36
833.702	10
834.009	9.74
834.315	9.67
834.621	9.75
834.928	9.99
835.234	10.03
835.54	10.07
835.846	10.39
836.152	10.03
836.458	9.68
836.764	9.8
837.07	9.65
837.376	9.93
837.682	9.58
837.988	9.39
838.293	9.62
838.599	8.76
838.905	8.45
839.211	8.17
839.516	7.88
839.822	8.16
840.127	8.94
840.433	10.19
840.738	10.8
841.044	10.72
841.349	10.06
841.654	9.89
841.959	10.31
842.265	9.74
842.57	10.6
842.875	11.28
843.18	10.6
843.485	11.63
843.79	11.55
844.095	11.79
844.4	12.91
844.705	13.45
845.01	14.88
845.315	15.18
845.619	16.49
845.924	17.02
846.229	16.28
846.533	16.33
846.838	13.87
847.142	13.4
847.447	15.13
847.751	16.25
848.056	16.86
848.36	17.08
848.664	18.18
848.969	17.32
849.273	16.88
849.577	17.35
849.881	15.44
850.185	14.39
850.489	14.64
850.794	14.34
851.097	13.57
851.401	13.32
851.705	12.62
852.009	14.69
852.313	14.85
852.617	18.15
852.92	19.22
853.224	19.3
853.528	20.65
853.831	19.92
854.135	19.87
854.438	18.7
854.742	19.62
855.045	17.35
855.349	18.56
855.652	19.24
855.955	18.7
856.259	20.6
856.562	22.68
856.865	21.23
857.168	22.58
857.471	22.69
857.774	21.94
858.077	24.18
858.38	21.51
858.683	21.6
858.986	20.14
859.289	20.89
859.592	22.47
859.894	20.19
860.197	16.82
860.5	17.58
860.802	18.31
861.105	17.38
861.407	18.91
861.71	17.43
862.012	16.68
862.315	16.47
862.617	14.26
862.919	13.19
863.222	12.69
863.524	11.66
863.826	10.16
864.128	9.6
864.43	10.34
864.732	10.7
865.034	10.53
865.336	10.63
865.638	7.3
865.94	8.52
866.242	9.22
866.544	14.42
866.846	15.46
867.147	15.25
867.449	14.43
867.751	14.79
868.052	15.81
868.354	15.79
868.655	16.1
868.957	18.08
869.258	18.44
869.56	18.92
869.861	18.23
870.162	18.22
870.463	19.13
870.765	16.79
871.066	18.32
871.367	18.12
871.668	17.82
871.969	17.35
872.27	16.13
872.571	15.86
872.872	12.88
873.173	10.93
873.473	11.25
873.774	10.51
874.075	11.05
874.376	9.55
874.676	10.82
874.977	12.01
875.277	12.68
875.578	13.12
875.878	13.79
876.179	13.55
876.479	14.46
876.78	14.84
877.08	16.79
877.38	14.38
877.68	14.57
877.981	14.43
878.281	17.28
878.581	16.26
