Data from MVZ_BU147393_Reflection_00015.txt Node
Date: Tue Nov 19 12:07:18 EST 2019
User: vgr7
Spectrometer: USB2G7710
Scans to average: 3
Trigger mode: 4
Integration Time (sec): 2.000000E-2
Electric dark correction enabled: true
Boxcar width: 10
XAxis mode: Wavelengths
Number of Pixels in Spectrum: 2048
>>>>>Begin Spectral Data<<<<<
177.721	-13.3
178.105	-8400
178.488	-85.04
178.871	-28.12
179.254	27.27
179.636	175.7
180.019	6.47
180.402	-600
180.785	-61.36
181.168	-179.13
181.55	962.07
181.933	243.44
182.316	144.64
182.698	321.24
183.081	146.26
183.463	225
183.846	427.43
184.228	285.63
184.611	423.53
184.993	623.08
185.376	-9525
185.758	-41400
186.14	-2040
186.522	-391.53
186.904	-1680
187.287	-6042.86
187.669	-230.77
188.051	-377.68
188.433	-138.55
188.815	-166.82
189.197	-158.69
189.579	-96.28
189.961	-79.96
190.342	-81.82
190.724	-72.33
191.106	-56.92
191.488	-55.3
191.869	-58.35
192.251	-44.62
192.633	-49.4
193.014	-47.03
193.396	-52.71
193.777	-42.22
194.159	-56.73
194.54	-53.64
194.922	-34.34
195.303	-30.8
195.684	-23.12
196.065	-19.73
196.447	-32.91
196.828	-31.33
197.209	-4
197.59	5.72
197.971	-0.64
198.352	6.45
198.733	-4.32
199.114	7.33
199.495	32.48
199.876	41
200.257	41.33
200.638	34.48
201.018	27.33
201.399	38.63
201.78	36.24
202.16	41.28
202.541	34.1
202.922	29.62
203.302	19.56
203.683	16.36
204.063	17.96
204.444	15.75
204.824	16.24
205.204	2.93
205.585	3.86
205.965	2.25
206.345	5.56
206.725	15.24
207.106	24.7
207.486	7.65
207.866	3
208.246	7.57
208.626	8.53
209.006	6.57
209.386	6.41
209.766	1.79
210.145	0.53
210.525	1.97
210.905	0.66
211.285	15.13
211.664	8.57
212.044	7.96
212.424	12.03
212.803	3.11
213.183	15.57
213.562	27.27
213.942	47.6
214.321	43.31
214.701	49.8
215.08	33.3
215.459	62.14
215.838	78.16
216.218	65.8
216.597	59.75
216.976	101.75
217.355	89.88
217.734	92.9
218.113	133.51
218.492	122.73
218.871	83.17
219.25	63.88
219.629	132.64
220.008	97.74
220.387	85.14
220.766	98.1
221.144	128.8
221.523	84.89
221.902	46.93
222.28	45.76
222.659	36.49
223.037	30.35
223.416	16.03
223.794	15.61
224.173	14.57
224.551	20.62
224.929	20.62
225.308	25.4
225.686	18.81
226.064	10.1
226.442	6.86
226.821	5.47
227.199	3.47
227.577	7.06
227.955	8.03
228.333	10.78
228.711	7.13
229.089	4.35
229.467	1.67
229.845	1.77
230.222	2.45
230.6	-1.05
230.978	1.11
231.356	2.73
231.733	4.94
232.111	6.16
232.488	6
232.866	3.77
233.243	-1.35
233.621	-0.14
233.998	-0
234.376	-0.09
234.753	-1.95
235.13	-1.27
235.508	-2.78
235.885	-4.55
236.262	-4.71
236.639	-3.89
237.016	-3.39
237.393	-1.64
237.77	0.14
238.147	1.59
238.524	2.2
238.901	1.09
239.278	0.82
239.655	0.29
240.032	0.17
240.409	-0.19
240.785	-0.04
241.162	1.39
241.539	1.43
241.915	1.66
242.292	2.38
242.668	3.8
243.045	4.37
243.421	4.48
243.798	4.56
244.174	4.48
244.551	4.55
244.927	4.5
245.303	4.41
245.679	4.02
246.056	3.44
246.432	3.51
246.808	3.78
247.184	3.82
247.56	3.75
247.936	3.99
248.312	4.18
248.688	4.62
249.064	4.51
249.44	4.45
249.815	4.43
250.191	4.22
250.567	3.66
250.943	3.4
251.318	3.19
251.694	3.16
252.069	3.21
252.445	3.25
252.82	3.63
253.196	3.75
253.571	3.98
253.947	4.31
254.322	4.17
254.697	3.82
255.073	3.45
255.448	3.55
255.823	3.47
256.198	3.48
256.573	3.15
256.948	3.19
257.323	3.3
257.698	3.15
258.073	3.26
258.448	3.32
258.823	3.23
259.198	3.25
259.573	3.14
259.948	3.06
260.322	2.76
260.697	2.58
261.072	2.6
261.446	2.6
261.821	2.55
262.195	2.51
262.57	2.66
262.944	2.78
263.319	2.73
263.693	2.47
264.067	2.29
264.442	2.21
264.816	2
265.19	1.6
265.564	1.76
265.938	1.73
266.313	1.87
266.687	1.97
267.061	1.9
267.435	2.08
267.809	2.25
268.183	2.55
268.556	2.62
268.93	2.76
269.304	2.81
269.678	2.94
270.051	3.11
270.425	3.05
270.799	2.81
271.172	2.94
271.546	3.2
271.919	3.25
272.293	3.39
272.666	3.45
273.04	3.73
273.413	3.62
273.787	3.5
274.16	3.21
274.533	3.31
274.906	3.39
275.279	3.24
275.653	3.3
276.026	3.29
276.399	3.37
276.772	3.18
277.145	3.16
277.518	2.98
277.891	2.8
278.263	2.86
278.636	3.15
279.009	3.16
279.382	3.22
279.755	3.41
280.127	3.34
280.5	3.32
280.872	3.22
281.245	3.29
281.617	3.39
281.99	3.53
282.362	3.52
282.735	3.38
283.107	3.43
283.479	3.42
283.852	3.32
284.224	3.14
284.596	3.05
284.968	2.93
285.34	2.97
285.713	3.08
286.085	3.01
286.457	2.93
286.829	2.92
287.201	2.9
287.572	2.81
287.944	2.98
288.316	3.09
288.688	3.09
289.06	3.1
289.431	2.96
289.803	3.13
290.175	3.05
290.546	3.12
290.918	3.14
291.289	3.07
291.661	3.27
292.032	3.51
292.403	3.69
292.775	3.95
293.146	4.12
293.517	4.06
293.889	3.98
294.26	4.17
294.631	4.12
295.002	4.04
295.373	4.11
295.744	3.95
296.115	3.9
296.486	4.02
296.857	4.1
297.228	4.21
297.599	4.1
297.97	4.2
298.34	4.29
298.711	4.42
299.082	4.54
299.452	4.44
299.823	4.37
300.194	4.38
300.564	4.27
300.935	4.13
301.305	4.14
301.676	4.26
302.046	4.24
302.416	4.35
302.787	4.46
303.157	4.46
303.527	4.59
303.897	4.71
304.267	4.71
304.637	4.58
305.008	4.62
305.378	4.82
305.748	4.88
306.117	4.9
306.487	5.14
306.857	5.3
307.227	5.5
307.597	5.43
307.967	5.47
308.336	5.51
308.706	5.67
309.076	5.82
309.445	5.91
309.815	5.78
310.184	5.79
310.554	5.81
310.923	5.84
311.293	5.79
311.662	5.89
312.031	5.85
312.401	5.91
312.77	5.93
313.139	5.81
313.508	5.69
313.877	5.67
314.246	5.42
314.616	5.46
314.985	5.37
315.353	5.54
315.722	5.73
316.091	5.87
316.46	5.77
316.829	5.86
317.198	5.94
317.567	6.32
317.935	6.4
318.304	6.61
318.672	6.65
319.041	6.83
319.41	6.67
319.778	6.89
320.147	6.9
320.515	7
320.883	7.1
321.252	7.19
321.62	7.23
321.988	7.52
322.357	7.35
322.725	7.41
323.093	7.39
323.461	7.35
323.829	7.41
324.197	7.53
324.565	7.41
324.933	7.35
325.301	7.15
325.669	7.11
326.037	6.96
326.405	7.12
326.772	7.03
327.14	7.11
327.508	7.07
327.875	7.19
328.243	7.07
328.61	7.08
328.978	7.21
329.346	7.3
329.713	7.17
330.08	7.21
330.448	7.36
330.815	7.43
331.182	7.37
331.55	7.37
331.917	7.25
332.284	7.46
332.651	7.48
333.018	7.64
333.385	7.71
333.752	7.82
334.119	7.71
334.486	7.81
334.853	7.79
335.22	7.83
335.587	7.84
335.954	8.01
336.32	8.06
336.687	8.03
337.054	7.88
337.42	8.08
337.787	8.03
338.153	7.82
338.52	7.84
338.886	8.05
339.253	8.03
339.619	8.26
339.986	8.1
340.352	8.13
340.718	8.06
341.084	8.15
341.451	8.15
341.817	8.13
342.183	8.15
342.549	8.24
342.915	8.37
343.281	8.42
343.647	8.45
344.013	8.38
344.379	8.32
344.745	8.48
345.11	8.4
345.476	8.55
345.842	8.58
346.208	8.52
346.573	8.34
346.939	8.37
347.304	8.27
347.67	8.28
348.035	8.37
348.401	8.44
348.766	8.38
349.132	8.38
349.497	8.55
349.862	8.59
350.228	8.61
350.593	8.55
350.958	8.56
351.323	8.53
351.688	8.71
352.053	8.83
352.418	8.85
352.783	8.87
353.148	8.79
353.513	8.75
353.878	8.71
354.243	8.77
354.608	8.74
354.972	8.83
355.337	8.85
355.702	8.8
356.066	8.86
356.431	8.88
356.795	8.86
357.16	8.7
357.524	8.67
357.889	8.68
358.253	8.67
358.618	8.68
358.982	8.58
359.346	8.52
359.71	8.48
360.075	8.44
360.439	8.39
360.803	8.43
361.167	8.44
361.531	8.46
361.895	8.38
362.259	8.41
362.623	8.38
362.987	8.33
363.351	8.27
363.714	8.23
364.078	8.17
364.442	8.18
364.806	8.21
365.169	8.24
365.533	8.15
365.896	8.09
366.26	7.98
366.623	8.06
366.987	8.04
367.35	8.04
367.714	8.05
368.077	8.07
368.44	7.97
368.803	7.95
369.167	7.91
369.53	7.96
369.893	7.92
370.256	7.86
370.619	7.82
370.982	7.82
371.345	7.74
371.708	7.71
372.071	7.59
372.434	7.57
372.797	7.45
373.159	7.43
373.522	7.4
373.885	7.43
374.247	7.38
374.61	7.39
374.973	7.31
375.335	7.22
375.698	7.14
376.06	7.11
376.423	7.07
376.785	7.02
377.147	6.92
377.51	6.79
377.872	6.71
378.234	6.7
378.596	6.64
378.958	6.63
379.321	6.61
379.683	6.62
380.045	6.61
380.407	6.59
380.769	6.52
381.13	6.45
381.492	6.4
381.854	6.31
382.216	6.23
382.578	6.18
382.939	6.18
383.301	6.11
383.663	6.09
384.024	6.05
384.386	6
384.747	5.95
385.109	5.97
385.47	5.96
385.832	5.93
386.193	5.89
386.554	5.77
386.916	5.74
387.277	5.69
387.638	5.61
387.999	5.55
388.36	5.55
388.721	5.56
389.082	5.56
389.443	5.53
389.804	5.54
390.165	5.49
390.526	5.41
390.887	5.42
391.248	5.42
391.609	5.38
391.969	5.4
392.33	5.38
392.691	5.34
393.051	5.27
393.412	5.25
393.772	5.21
394.133	5.21
394.493	5.17
394.854	5.17
395.214	5.16
395.574	5.12
395.935	5.09
396.295	5.04
396.655	4.96
397.015	4.96
397.376	4.88
397.736	4.88
398.096	4.83
398.456	4.77
398.816	4.67
399.176	4.63
399.535	4.58
399.895	4.57
400.255	4.58
400.615	4.56
400.975	4.55
401.334	4.52
401.694	4.52
402.054	4.48
402.413	4.41
402.773	4.36
403.132	4.35
403.492	4.32
403.851	4.28
404.211	4.26
404.57	4.22
404.929	4.21
405.288	4.19
405.648	4.19
406.007	4.19
406.366	4.2
406.725	4.22
407.084	4.22
407.443	4.21
407.802	4.18
408.161	4.16
408.52	4.16
408.879	4.16
409.238	4.17
409.596	4.16
409.955	4.16
410.314	4.15
410.673	4.16
411.031	4.13
411.39	4.12
411.748	4.13
412.107	4.12
412.465	4.13
412.824	4.1
413.182	4.1
413.54	4.1
413.899	4.05
414.257	4.04
414.615	4
414.974	3.98
415.332	3.97
415.69	3.95
416.048	3.89
416.406	3.89
416.764	3.83
417.122	3.81
417.48	3.81
417.838	3.79
418.195	3.76
418.553	3.75
418.911	3.72
419.269	3.7
419.626	3.68
419.984	3.66
420.342	3.65
420.699	3.61
421.057	3.61
421.414	3.61
421.772	3.58
422.129	3.57
422.486	3.57
422.844	3.55
423.201	3.55
423.558	3.54
423.915	3.53
424.273	3.53
424.63	3.53
424.987	3.52
425.344	3.5
425.701	3.5
426.058	3.5
426.415	3.49
426.772	3.47
427.128	3.48
427.485	3.47
427.842	3.45
428.199	3.45
428.555	3.44
428.912	3.44
429.269	3.45
429.625	3.42
429.982	3.41
430.338	3.38
430.695	3.35
431.051	3.37
431.407	3.35
431.764	3.34
432.12	3.33
432.476	3.33
432.832	3.35
433.189	3.33
433.545	3.33
433.901	3.34
434.257	3.34
434.613	3.29
434.969	3.3
435.325	3.33
435.681	3.35
436.036	3.34
436.392	3.34
436.748	3.34
437.104	3.35
437.459	3.36
437.815	3.37
438.171	3.4
438.526	3.4
438.882	3.43
439.237	3.43
439.593	3.44
439.948	3.44
440.304	3.43
440.659	3.43
441.014	3.4
441.369	3.42
441.725	3.44
442.08	3.45
442.435	3.45
442.79	3.43
443.145	3.42
443.5	3.41
443.855	3.39
444.21	3.39
444.565	3.38
444.92	3.38
445.275	3.37
445.629	3.35
445.984	3.33
446.339	3.31
446.693	3.29
447.048	3.26
447.403	3.26
447.757	3.26
448.112	3.25
448.466	3.25
448.82	3.22
449.175	3.19
449.529	3.18
449.883	3.15
450.238	3.14
450.592	3.12
450.946	3.12
451.3	3.13
451.654	3.12
452.008	3.13
452.362	3.1
452.716	3.08
453.07	3.08
453.424	3.08
453.778	3.07
454.132	3.06
454.486	3.08
454.839	3.06
455.193	3.06
455.547	3.06
455.9	3.07
456.254	3.09
456.607	3.09
456.961	3.1
457.314	3.1
457.668	3.12
458.021	3.13
458.375	3.11
458.728	3.12
459.081	3.13
459.434	3.11
459.787	3.14
460.141	3.17
460.494	3.17
460.847	3.16
461.2	3.18
461.553	3.18
461.906	3.2
462.259	3.21
462.611	3.22
462.964	3.24
463.317	3.27
463.67	3.28
464.022	3.3
464.375	3.3
464.728	3.32
465.08	3.3
465.433	3.33
465.785	3.36
466.138	3.36
466.49	3.38
466.843	3.43
467.195	3.42
467.547	3.39
467.899	3.41
468.252	3.46
468.604	3.46
468.956	3.48
469.308	3.49
469.66	3.52
470.012	3.54
470.364	3.57
470.716	3.56
471.068	3.57
471.42	3.58
471.772	3.59
472.123	3.62
472.475	3.65
472.827	3.66
473.178	3.67
473.53	3.69
473.882	3.67
474.233	3.63
474.585	3.66
474.936	3.65
475.288	3.64
475.639	3.67
475.99	3.67
476.342	3.65
476.693	3.66
477.044	3.64
477.395	3.63
477.746	3.61
478.097	3.63
478.448	3.6
478.8	3.58
479.15	3.57
479.501	3.54
479.852	3.51
480.203	3.49
480.554	3.47
480.905	3.46
481.255	3.46
481.606	3.47
481.957	3.45
482.307	3.45
482.658	3.45
483.009	3.43
483.359	3.43
483.709	3.43
484.06	3.43
484.41	3.43
484.761	3.43
485.111	3.42
485.461	3.42
485.811	3.42
486.162	3.42
486.512	3.42
486.862	3.43
487.212	3.44
487.562	3.45
487.912	3.46
488.262	3.46
488.612	3.45
488.961	3.45
489.311	3.46
489.661	3.47
490.011	3.47
490.36	3.47
490.71	3.48
491.06	3.5
491.409	3.5
491.759	3.5
492.108	3.49
492.458	3.51
492.807	3.53
493.157	3.55
493.506	3.56
493.855	3.58
494.204	3.61
494.554	3.62
494.903	3.63
495.252	3.64
495.601	3.69
495.95	3.74
496.299	3.76
496.648	3.8
496.997	3.84
497.346	3.89
497.695	3.93
498.043	3.99
498.392	3.98
498.741	4.04
499.09	4.08
499.438	4.16
499.787	4.18
500.135	4.22
500.484	4.26
500.832	4.32
501.181	4.4
501.529	4.46
501.878	4.55
502.226	4.63
502.574	4.72
502.923	4.78
503.271	4.86
503.619	4.96
503.967	5.05
504.315	5.16
504.663	5.25
505.011	5.36
505.359	5.43
505.707	5.57
506.055	5.68
506.403	5.8
506.751	5.9
507.098	6.05
507.446	6.2
507.794	6.35
508.141	6.48
508.489	6.61
508.837	6.74
509.184	6.88
509.531	7.01
509.879	7.14
510.226	7.3
510.574	7.45
510.921	7.6
511.268	7.75
511.616	7.91
511.963	8.08
512.31	8.24
512.657	8.44
513.004	8.62
513.351	8.78
513.698	9.01
514.045	9.22
514.392	9.42
514.739	9.61
515.086	9.82
515.432	10.02
515.779	10.22
516.126	10.46
516.473	10.64
516.819	10.85
517.166	11.04
517.512	11.22
517.859	11.4
518.205	11.56
518.552	11.72
518.898	11.89
519.245	12.05
519.591	12.24
519.937	12.42
520.283	12.59
520.629	12.79
520.976	12.98
521.322	13.18
521.668	13.37
522.014	13.57
522.36	13.75
522.706	13.96
523.052	14.16
523.398	14.37
523.743	14.61
524.089	14.87
524.435	15.09
524.781	15.33
525.126	15.56
525.472	15.76
525.817	15.95
526.163	16.12
526.509	16.28
526.854	16.42
527.199	16.55
527.545	16.7
527.89	16.84
528.235	16.99
528.581	17.15
528.926	17.29
529.271	17.45
529.616	17.62
529.961	17.79
530.306	17.97
530.651	18.15
530.996	18.33
531.341	18.49
531.686	18.69
532.031	18.89
532.376	19.07
532.721	19.26
533.065	19.47
533.41	19.69
533.755	19.94
534.099	20.2
534.444	20.41
534.788	20.64
535.133	20.86
535.477	21.07
535.822	21.29
536.166	21.56
536.51	21.82
536.855	22.08
537.199	22.34
537.543	22.6
537.887	22.88
538.231	23.14
538.576	23.46
538.92	23.7
539.264	23.95
539.608	24.2
539.951	24.44
540.295	24.69
540.639	24.89
540.983	25.05
541.327	25.25
541.671	25.47
542.014	25.66
542.358	25.88
542.701	26.07
543.045	26.24
543.389	26.41
543.732	26.59
544.075	26.81
544.419	27.04
544.762	27.23
545.105	27.45
545.449	27.71
545.792	27.93
546.135	28.2
546.478	28.46
546.821	28.69
547.165	29
547.508	29.24
547.851	29.48
548.194	29.79
548.536	30.04
548.879	30.32
549.222	30.6
549.565	30.85
549.908	31.09
550.25	31.36
550.593	31.68
550.936	31.92
551.278	32.17
551.621	32.38
551.963	32.68
552.306	32.93
552.648	33.12
552.991	33.35
553.333	33.54
553.675	33.75
554.017	34
554.36	34.15
554.702	34.34
555.044	34.55
555.386	34.7
555.728	34.89
556.07	35.08
556.412	35.27
556.754	35.42
557.096	35.63
557.438	35.88
557.78	36.09
558.121	36.26
558.463	36.42
558.805	36.63
559.147	36.78
559.488	36.89
559.83	37.08
560.171	37.21
560.513	37.4
560.854	37.54
561.196	37.7
561.537	37.89
561.878	38.08
562.22	38.21
562.561	38.4
562.902	38.47
563.243	38.61
563.584	38.74
563.925	38.89
564.266	38.99
564.607	39.13
564.948	39.21
565.289	39.41
565.63	39.49
565.971	39.61
566.312	39.72
566.653	39.87
566.993	40
567.334	40.1
567.675	40.25
568.015	40.33
568.356	40.47
568.696	40.6
569.037	40.69
569.377	40.84
569.718	40.95
570.058	41.12
570.398	41.25
570.739	41.33
571.079	41.49
571.419	41.6
571.759	41.59
572.099	41.65
572.439	41.65
572.779	41.8
573.119	41.86
573.459	41.99
573.799	42.06
574.139	42.13
574.479	42.27
574.819	42.34
575.158	42.43
575.498	42.47
575.838	42.5
576.177	42.56
576.517	42.59
576.856	42.69
577.196	42.72
577.535	42.83
577.875	42.95
578.214	42.95
578.553	43.08
578.893	43.29
579.232	43.39
579.571	43.54
579.91	43.62
580.25	43.79
580.589	43.82
580.928	43.96
581.267	44.03
581.606	44.08
581.945	44.08
582.283	44.21
582.622	44.24
582.961	44.37
583.3	44.49
583.639	44.62
583.977	44.65
584.316	44.79
584.654	44.84
584.993	44.92
585.332	45.02
585.67	45.04
586.008	44.97
586.347	45.07
586.685	45.11
587.024	45.18
587.362	45.28
587.7	45.34
588.038	45.43
588.376	45.5
588.715	45.57
589.053	45.68
589.391	45.69
589.729	45.84
590.067	45.88
590.404	45.92
590.742	45.94
591.08	45.99
591.418	46.02
591.756	46.03
592.093	46.04
592.431	46.09
592.769	46.09
593.106	46.25
593.444	46.3
593.781	46.4
594.119	46.43
594.456	46.38
594.793	46.35
595.131	46.37
595.468	46.43
595.805	46.4
596.143	46.49
596.48	46.53
596.817	46.54
597.154	46.58
597.491	46.61
597.828	46.68
598.165	46.71
598.502	46.69
598.839	46.79
599.176	46.79
599.512	46.78
599.849	46.95
600.186	47
600.523	47.08
600.859	47.05
601.196	47.02
601.532	47.03
601.869	47.16
602.205	47.13
602.542	47.16
602.878	47.29
603.215	47.31
603.551	47.35
603.887	47.39
604.223	47.4
604.56	47.4
604.896	47.36
605.232	47.4
605.568	47.48
605.904	47.49
606.24	47.55
606.576	47.53
606.912	47.48
607.248	47.52
607.583	47.51
607.919	47.56
608.255	47.71
608.591	47.75
608.926	47.81
609.262	47.88
609.597	47.93
609.933	47.88
610.268	47.91
610.604	47.95
610.939	47.94
611.275	47.96
611.61	48.02
611.945	48.13
612.281	48.21
612.616	48.3
612.951	48.42
613.286	48.51
613.621	48.63
613.956	48.76
614.291	48.81
614.626	48.88
614.961	48.95
615.296	49
615.631	49.21
615.966	49.26
616.3	49.35
616.635	49.34
616.97	49.43
617.304	49.4
617.639	49.45
617.973	49.54
618.308	49.62
618.642	49.65
618.977	49.6
619.311	49.54
619.646	49.61
619.98	49.54
620.314	49.61
620.648	49.56
620.983	49.55
621.317	49.54
621.651	49.53
621.985	49.52
622.319	49.39
622.653	49.29
622.987	49.18
623.321	49.1
623.655	49.16
623.988	49.21
624.322	49.22
624.656	49.24
624.99	49.21
625.323	49.2
625.657	49.23
625.99	49.35
626.324	49.45
626.657	49.29
626.991	49.29
627.324	49.23
627.658	49.28
627.991	49.26
628.324	49.27
628.657	49.26
628.991	49.31
629.324	49.35
629.657	49.36
629.99	49.46
630.323	49.53
630.656	49.48
630.989	49.45
631.322	49.48
631.655	49.51
631.987	49.55
632.32	49.6
632.653	49.62
632.986	49.52
633.318	49.58
633.651	49.67
633.984	49.66
634.316	49.65
634.649	49.73
634.981	49.8
635.313	49.82
635.646	49.87
635.978	49.97
636.31	50.03
636.643	50.02
636.975	50.04
637.307	50.09
637.639	50.16
637.971	50.24
638.303	50.22
638.635	50.27
638.967	50.21
639.299	50.21
639.631	50.18
639.963	50.26
640.295	50.18
640.626	50.21
640.958	50.23
641.29	50.26
641.621	50.2
641.953	50.14
642.285	50.25
642.616	50.24
642.948	50.19
643.279	50.2
643.61	50.36
643.942	50.32
644.273	50.34
644.604	50.3
644.936	50.21
645.267	50.25
645.598	50.25
645.929	50.44
646.26	50.38
646.591	50.36
646.922	50.33
647.253	50.35
647.584	50.46
647.915	50.58
648.245	50.61
648.576	50.71
648.907	50.76
649.238	50.67
649.568	50.79
649.899	50.74
650.229	50.71
650.56	50.66
650.89	50.71
651.221	50.72
651.551	50.67
651.882	50.73
652.212	50.8
652.542	50.83
652.872	50.78
653.203	50.8
653.533	50.96
653.863	51.07
654.193	51.03
654.523	50.84
654.853	50.91
655.183	50.92
655.513	50.87
655.843	50.76
656.172	50.79
656.502	50.68
656.832	50.72
657.162	50.71
657.491	50.64
657.821	50.58
658.15	50.53
658.48	50.59
658.809	50.63
659.139	50.63
659.468	50.61
659.798	50.66
660.127	50.71
660.456	50.5
660.785	50.43
661.115	50.45
661.444	50.52
661.773	50.4
662.102	50.42
662.431	50.44
662.76	50.53
663.089	50.58
663.418	50.72
663.747	50.76
664.076	50.72
664.404	50.86
664.733	51.09
665.062	51.2
665.39	51.26
665.719	51.16
666.048	51.05
666.376	51.06
666.705	50.97
667.033	50.9
667.362	50.93
667.69	50.98
668.018	50.92
668.347	51.04
668.675	51.05
669.003	51.15
669.331	51.18
669.659	51.21
669.987	51.38
670.315	51.38
670.643	51.3
670.971	51.49
671.299	51.51
671.627	51.33
671.955	51.27
672.283	51.31
672.61	51.42
672.938	51.53
673.266	51.44
673.593	51.48
673.921	51.4
674.249	51.49
674.576	51.49
674.904	51.62
675.231	51.75
675.558	51.7
675.886	51.65
676.213	51.49
676.54	51.59
676.867	51.4
677.195	51.33
677.522	51.46
677.849	51.32
678.176	51.21
678.503	51.32
678.83	51.4
679.157	51.33
679.484	51.14
679.81	51.13
680.137	51.2
680.464	51.25
680.791	51.45
681.117	51.47
681.444	51.6
681.771	51.62
682.097	51.38
682.424	51.4
682.75	51.44
683.077	51.66
683.403	51.65
683.729	51.56
684.056	51.57
684.382	51.47
684.708	51.6
685.034	51.65
685.36	51.55
685.686	51.54
686.012	51.54
686.339	51.59
686.664	51.51
686.99	51.38
687.316	51.25
687.642	51.23
687.968	51.26
688.294	51.15
688.619	51.22
688.945	51.21
689.271	51.24
689.596	51.03
689.922	50.85
690.247	50.73
690.573	50.74
690.898	50.72
691.224	50.89
691.549	50.85
691.874	50.78
692.2	50.79
692.525	50.71
692.85	50.71
693.175	50.95
693.5	51.21
693.825	51.38
694.15	51.48
694.475	51.32
694.8	51.23
695.125	51.25
695.45	51.3
695.775	51.32
696.099	51.4
696.424	51.4
696.749	51.44
697.073	51.53
697.398	51.59
697.723	51.61
698.047	51.53
698.372	51.47
698.696	51.59
699.02	51.65
699.345	51.61
699.669	51.63
699.993	51.56
700.318	51.52
700.642	51.55
700.966	51.54
701.29	51.79
701.614	51.94
701.938	51.98
702.262	51.95
702.586	52.06
702.91	52.02
703.234	52.14
703.557	52.11
703.881	52.13
704.205	52.07
704.529	52.07
704.852	52.12
705.176	52.11
705.499	51.8
705.823	51.72
706.146	51.73
706.47	51.67
706.793	51.66
707.117	51.43
707.44	51.32
707.763	51.44
708.086	51.15
708.409	51.05
708.733	51.05
709.056	51.04
709.379	50.93
709.702	50.98
710.025	51.11
710.348	51.1
710.671	51.06
710.993	51.13
711.316	51.16
711.639	51.07
711.962	51.28
712.284	51.38
712.607	51.5
712.93	51.72
713.252	51.63
713.575	51.68
713.897	51.78
714.22	51.85
714.542	51.78
714.864	51.91
715.187	51.93
715.509	51.8
715.831	51.83
716.153	51.78
716.475	51.72
716.798	51.74
717.12	51.8
717.442	51.64
717.764	51.41
718.085	51.4
718.407	51.45
718.729	51.4
719.051	51.55
719.373	51.56
719.695	51.26
720.016	51.55
720.338	51.61
720.659	51.64
720.981	51.5
721.302	51.61
721.624	51.31
721.945	51.24
722.267	51.48
722.588	51.48
722.909	51.78
723.231	51.89
723.552	51.58
723.873	51.63
724.194	51.82
724.515	51.92
724.836	51.97
725.157	51.85
725.478	51.79
725.799	51.92
726.12	51.86
726.441	51.97
726.762	51.61
727.083	51.58
727.403	51.69
727.724	51.8
728.045	51.6
728.365	51.87
728.686	51.67
729.006	51.34
729.327	51.12
729.647	50.98
729.967	50.67
730.288	50.89
730.608	50.85
730.928	50.87
731.249	51.18
731.569	51.19
731.889	51.42
732.209	51.5
732.529	51.31
732.849	51.41
733.169	51.42
733.489	51.66
733.809	51.56
734.129	51.36
734.448	51.38
734.768	51.53
735.088	51.33
735.408	51.7
735.727	51.9
736.047	51.96
736.366	52.09
736.686	52.51
737.005	52.54
737.325	52.46
737.644	52.63
737.963	52.75
738.283	52.71
738.602	52.52
738.921	52.57
739.24	52.87
739.56	52.55
739.879	52.73
740.198	52.67
740.517	52.78
740.836	52.68
741.155	52.56
741.473	52.63
741.792	52.89
742.111	52.86
742.43	52.85
742.748	53.02
743.067	53.14
743.386	52.97
743.704	52.85
744.023	53.01
744.341	52.78
744.66	52.23
744.978	52.34
745.297	52.15
745.615	52.02
745.933	51.62
746.252	51.56
746.57	51.63
746.888	51.53
747.206	51.72
747.524	51.79
747.842	51.76
748.16	51.48
748.478	51.46
748.796	51.17
749.114	51.13
749.432	51.11
749.749	50.84
750.067	50.76
750.385	50.46
750.703	50.52
751.02	50.49
751.338	50.62
751.655	50.52
751.973	50.77
752.29	50.72
752.608	50.82
752.925	50.89
753.242	50.92
753.56	50.78
753.877	50.54
754.194	50.68
754.511	50.91
754.828	51.26
755.145	51.03
755.462	51.46
755.779	51.47
756.096	51
756.413	50.82
756.73	50.9
757.047	51.11
757.364	51.12
757.68	51.24
757.997	51.06
758.314	51.09
758.63	51.1
758.947	50.89
759.264	51
759.58	50.91
759.896	50.41
760.213	50.79
760.529	50.54
760.846	50.65
761.162	50.7
761.478	50.29
761.794	50.21
762.11	50.08
762.426	49.94
762.743	50.08
763.059	50.19
763.375	50.42
763.69	50.64
764.006	50.75
764.322	50.62
764.638	50.86
764.954	50.99
765.27	51.11
765.585	51.25
765.901	51.28
766.216	51.28
766.532	51.51
766.848	51.38
767.163	51.78
767.478	51.61
767.794	51.4
768.109	51.91
768.424	52.09
768.74	52.1
769.055	52.27
769.37	52.51
769.685	52.65
770	52.39
770.315	52.4
770.63	52.18
770.945	52.55
771.26	52.58
771.575	52.46
771.89	51.98
772.205	51.8
772.52	51.78
772.834	52
773.149	52.09
773.464	52.45
773.778	52.06
774.093	52.47
774.407	52.57
774.722	52.08
775.036	52.53
775.351	52.5
775.665	52.88
775.979	53.21
776.293	53.07
776.608	52.8
776.922	52.11
777.236	51.52
777.55	51.13
777.864	51.51
778.178	51.42
778.492	51.53
778.806	51.92
779.12	51.9
779.434	52.41
779.747	52.48
780.061	51.98
780.375	52.21
780.689	52.39
781.002	51.56
781.316	51.62
781.629	51.69
781.943	51.6
782.256	51.52
782.57	51.2
782.883	51.92
783.196	52.39
783.51	52.69
783.823	53.72
784.136	54.39
784.449	53.61
784.762	53.7
785.075	53.73
785.388	53.58
785.701	53.09
786.014	52.23
786.327	51.85
786.64	51.55
786.953	51.42
787.266	51.54
787.578	52.52
787.891	52.49
788.204	52.3
788.516	52.54
788.829	52.31
789.141	52.03
789.454	51.53
789.766	50.85
790.079	51.39
790.391	50.25
790.703	49.71
791.016	50.09
791.328	50.02
791.64	50.46
791.952	50.76
792.264	51.5
792.576	51.68
792.888	51.77
793.2	52.15
793.512	52.31
793.824	51.74
794.136	51.78
794.448	51.98
794.76	51.31
795.071	51.51
795.383	51.69
795.695	51.98
796.006	51.82
796.318	52.19
796.629	51.73
796.941	52.72
797.252	52.53
797.564	52.53
797.875	52.27
798.186	51.69
798.497	51.98
798.809	52.1
799.12	52.56
799.431	53.14
799.742	53.35
800.053	53.37
800.364	53
800.675	52.77
800.986	52.81
801.297	53.8
801.608	53.74
801.918	53.87
802.229	53.98
802.54	53.85
802.851	53.61
803.161	53.61
803.472	53.6
803.782	54.09
804.093	53.52
804.403	54.13
804.714	54.38
805.024	53.28
805.334	53.15
805.645	52.64
805.955	52.36
806.265	51.9
806.575	51.48
806.885	52.1
807.195	52.08
807.505	52.73
807.815	51.53
808.125	51.73
808.435	51.12
808.745	50.76
809.055	51.32
809.365	52.61
809.674	53.29
809.984	53.66
810.294	53.61
810.603	54.57
810.913	54.8
811.222	54.59
811.532	55.37
811.841	55.56
812.151	55.52
812.46	55.6
812.769	55.54
813.079	55.74
813.388	55.92
813.697	55.68
814.006	54.79
814.315	55.65
814.624	55.37
814.933	56.53
815.242	57
815.551	56.58
815.86	55.57
816.169	55.21
816.478	54.79
816.786	54.41
817.095	53.77
817.404	53.38
817.712	53.23
818.021	52.71
818.33	51.9
818.638	52.43
818.947	51.99
819.255	52.31
819.563	52.08
819.872	51.57
820.18	51.58
820.488	51.68
820.796	51.41
821.105	51.59
821.413	51.34
821.721	51.5
822.029	51.45
822.337	51.36
822.645	51.6
822.953	51.42
823.26	51.57
823.568	51.37
823.876	51.15
824.184	51.28
824.491	51.28
824.799	51.16
825.107	50.85
825.414	50.96
825.722	50.98
826.029	51.15
826.337	51.24
826.644	51.12
826.951	50.97
827.259	51.11
827.566	50.99
827.873	51.01
828.18	50.75
828.488	50.76
828.795	50.84
829.102	50.57
829.409	50.72
829.716	50.52
830.023	50.74
830.329	51.04
830.636	50.83
830.943	51.1
831.25	51.54
831.557	52.11
831.863	52.24
832.17	52.2
832.476	52.23
832.783	51.96
833.089	52.53
833.396	52.79
833.702	52.97
834.009	52.87
834.315	53.12
834.621	52.81
834.928	53.06
835.234	53.03
835.54	52.56
835.846	52.84
836.152	52.95
836.458	53.64
836.764	53.68
837.07	54.47
837.376	53.86
837.682	53.92
837.988	53.41
838.293	53.11
838.599	53.08
838.905	52.32
839.211	53.17
839.516	52.78
839.822	53.01
840.127	53.09
840.433	52.78
840.738	52.37
841.044	53.1
841.349	52.42
841.654	52.41
841.959	52.99
842.265	52.5
842.57	53.61
842.875	53.12
843.18	53.94
843.485	52.16
843.79	53.36
844.095	54.01
844.4	55.54
844.705	54.94
845.01	55.82
845.315	56.6
845.619	55.55
845.924	55.48
846.229	54.18
846.533	52.89
846.838	54.06
847.142	53.46
847.447	53.05
847.751	53.83
848.056	55.58
848.36	54.16
848.664	54.17
848.969	53.72
849.273	52.9
849.577	51.25
849.881	50.97
850.185	50.69
850.489	49.6
850.794	49.45
851.097	49.85
851.401	47.24
851.705	47.14
852.009	47.42
852.313	46.79
852.617	45.68
852.92	45.43
853.224	45.53
853.528	46.88
853.831	47.17
854.135	45.4
854.438	44.26
854.742	45.55
855.045	44.67
855.349	44.83
855.652	45.55
855.955	45.19
856.259	47.2
856.562	47.13
856.865	48.07
857.168	48.27
857.471	47.08
857.774	47.64
858.077	47.89
858.38	47.42
858.683	47.54
858.986	49.68
859.289	50.28
859.592	48.8
859.894	47.16
860.197	47.46
860.5	50.73
860.802	50.33
861.105	50.98
861.407	52.58
861.71	50.92
862.012	51.81
862.315	52.8
862.617	52.54
862.919	52.01
863.222	50.91
863.524	49.95
863.826	50.36
864.128	53.12
864.43	53.76
864.732	53.18
865.034	56.52
865.336	55.94
865.638	59.49
865.94	58.51
866.242	60.52
866.544	60.77
866.846	57.71
867.147	57.12
867.449	55.15
867.751	54.04
868.052	54.02
868.354	51.76
868.655	51.94
868.957	50.81
869.258	51.3
869.56	51.55
869.861	51.55
870.162	54.05
870.463	52.33
870.765	51.25
871.066	53.02
871.367	51.82
871.668	52.72
871.969	50.03
872.27	50.63
872.571	52.29
872.872	52.06
873.173	55.21
873.473	55.82
873.774	57.78
874.075	59.12
874.376	60.07
874.676	61.51
874.977	62.07
875.277	62.43
875.578	63.14
875.878	63.82
876.179	64
876.479	63.11
876.78	64.16
877.08	66.21
877.38	66.97
877.68	67.03
877.981	67.52
878.281	69.65
878.581	72.91
