Data from MVZ_BU163026_Reflection_00002.txt Node
Date: Tue Nov 19 12:05:52 EST 2019
User: vgr7
Spectrometer: USB2G7710
Scans to average: 3
Trigger mode: 4
Integration Time (sec): 2.000000E-2
Electric dark correction enabled: true
Boxcar width: 10
XAxis mode: Wavelengths
Number of Pixels in Spectrum: 2048
>>>>>Begin Spectral Data<<<<<
177.721	209.71
178.105	937.84
178.488	741.64
178.871	262.69
179.254	56.92
179.636	71.35
180.019	38.01
180.402	433.33
180.785	227.27
181.168	-51.79
181.55	-37.93
181.933	324.72
182.316	104.23
182.698	67.21
183.081	30.99
183.463	15.77
183.846	-49.18
184.228	-9.63
184.611	-20.04
184.993	-48.57
185.376	-36.41
185.758	-41.66
186.14	-2.98
186.522	-11.5
186.904	-0.4
187.287	29.38
187.669	12.66
188.051	19.9
188.433	28.69
188.815	33.9
189.197	30.73
189.579	34.86
189.961	28.72
190.342	21.5
190.724	64.1
191.106	42.65
191.488	30.76
191.869	59.26
192.251	34.28
192.633	104.84
193.014	105.76
193.396	103.41
193.777	125.13
194.159	196.65
194.54	437.66
194.922	-2531.58
195.303	284
195.684	262.44
196.065	198.52
196.447	-75.88
196.828	2736.36
197.209	515.93
197.59	1392.68
197.971	1291.49
198.352	166.15
198.733	76.59
199.114	272.41
199.495	153.05
199.876	162.95
200.257	88.65
200.638	66.17
201.018	52.62
201.399	-146.75
201.78	-336.62
202.16	-70.87
202.541	18.03
202.922	26.97
203.302	23.87
203.683	47.02
204.063	63.64
204.444	52.96
204.824	55.29
205.204	137.74
205.585	368.29
205.965	-83.1
206.345	-5.26
206.725	29.05
207.106	127.16
207.486	88.11
207.866	138.52
208.246	76.34
208.626	60.27
209.006	56.37
209.386	101.39
209.766	122.47
210.145	57.59
210.525	87.95
210.905	75.99
211.285	36.03
211.664	40.84
212.044	42.99
212.424	29.96
212.803	5.43
213.183	-2.2
213.562	21.03
213.942	9.47
214.321	-4.61
214.701	-59.15
215.08	-119.61
215.459	-92.1
215.838	-82.11
216.218	-144.59
216.597	-182.34
216.976	-162.72
217.355	-135.1
217.734	-101.04
218.113	-77.05
218.492	-54.79
218.871	-36.34
219.25	-48.78
219.629	-80.29
220.008	-58.63
220.387	-78.49
220.766	-24.21
221.144	-8.47
221.523	-32.81
221.902	-24.68
222.28	-18.06
222.659	11.01
223.037	16.17
223.416	15.07
223.794	7.4
224.173	7.25
224.551	14.8
224.929	-1.34
225.308	-4.17
225.686	-1.8
226.064	5.28
226.442	9.67
226.821	3.43
227.199	0.71
227.577	2.77
227.955	2.97
228.333	-1.35
228.711	-0.01
229.089	-2.88
229.467	-4.59
229.845	-4.51
230.222	-1.54
230.6	-1.29
230.978	1.42
231.356	2.67
231.733	4.14
232.111	6.17
232.488	5.7
232.866	6.75
233.243	5.78
233.621	5.99
233.998	2.68
234.376	1.5
234.753	2
235.13	3
235.508	1.3
235.885	3.26
236.262	3.12
236.639	1.68
237.016	2.32
237.393	4.52
237.77	5.08
238.147	4.8
238.524	4.5
238.901	2.66
239.278	2.34
239.655	2.84
240.032	2.62
240.409	2.92
240.785	3.06
241.162	2.4
241.539	2.11
241.915	2.05
242.292	1.95
242.668	2.12
243.045	2.69
243.421	3.2
243.798	2.93
244.174	3.06
244.551	2.77
244.927	2.68
245.303	2.26
245.679	2.02
246.056	1.89
246.432	2.13
246.808	2.32
247.184	2.43
247.56	2.46
247.936	2.45
248.312	2.3
248.688	2.33
249.064	2.55
249.44	2.42
249.815	2.61
250.191	2.73
250.567	2.68
250.943	2.39
251.318	2.1
251.694	1.65
252.069	1.54
252.445	1.91
252.82	2.17
253.196	2.61
253.571	3.05
253.947	3.28
254.322	3.01
254.697	3.16
255.073	3.03
255.448	3.14
255.823	3.4
256.198	3.27
256.573	2.95
256.948	2.83
257.323	3
257.698	3.06
258.073	2.85
258.448	2.88
258.823	2.87
259.198	3
259.573	2.95
259.948	3.06
260.322	2.95
260.697	2.87
261.072	2.78
261.446	2.74
261.821	2.36
262.195	2.44
262.57	2.34
262.944	2.26
263.319	2.18
263.693	1.92
264.067	1.88
264.442	2.13
264.816	2.2
265.19	2.05
265.564	1.99
265.938	2
266.313	1.98
266.687	1.92
267.061	1.79
267.435	2.06
267.809	1.91
268.183	1.86
268.556	1.69
268.93	1.82
269.304	1.63
269.678	2.03
270.051	1.86
270.425	1.99
270.799	1.79
271.172	1.89
271.546	2.14
271.919	2.33
272.293	2.34
272.666	2.44
273.04	2.49
273.413	2.47
273.787	2.59
274.16	2.67
274.533	2.57
274.906	2.69
275.279	2.71
275.653	2.74
276.026	2.89
276.399	2.96
276.772	2.91
277.145	2.93
277.518	2.98
277.891	3.11
278.263	3.11
278.636	3.55
279.009	3.63
279.382	3.52
279.755	3.58
280.127	3.38
280.5	3.24
280.872	3.35
281.245	3.49
281.617	3.43
281.99	3.28
282.362	3.4
282.735	3.4
283.107	3.29
283.479	3.39
283.852	3.32
284.224	3.34
284.596	3.3
284.968	3.26
285.34	2.95
285.713	3.07
286.085	3.08
286.457	2.97
286.829	2.84
287.201	2.87
287.572	2.83
287.944	2.97
288.316	3.06
288.688	3.07
289.06	2.89
289.431	3.06
289.803	3.08
290.175	3.05
290.546	3.12
290.918	3.15
291.289	2.99
291.661	3.15
292.032	3.11
292.403	3.25
292.775	3.43
293.146	3.74
293.517	3.6
293.889	3.53
294.26	3.52
294.631	3.52
295.002	3.5
295.373	3.42
295.744	3.26
296.115	3.23
296.486	3.15
296.857	3.34
297.228	3.22
297.599	3.24
297.97	3.43
298.34	3.38
298.711	3.38
299.082	3.46
299.452	3.22
299.823	3.29
300.194	3.25
300.564	3.12
300.935	3.09
301.305	3.15
301.676	3.09
302.046	2.99
302.416	2.94
302.787	2.95
303.157	2.96
303.527	3.07
303.897	2.96
304.267	3.09
304.637	2.9
305.008	3.01
305.378	3.01
305.748	2.78
306.117	2.65
306.487	2.7
306.857	2.67
307.227	2.91
307.597	2.92
307.967	2.97
308.336	3.09
308.706	2.9
309.076	3
309.445	3.19
309.815	3.18
310.184	3.15
310.554	3.04
310.923	3.04
311.293	3.06
311.662	3.21
312.031	3.28
312.401	3.15
312.77	3.14
313.139	3.16
313.508	3.28
313.877	3.48
314.246	3.52
314.616	3.59
314.985	3.37
315.353	3.45
315.722	3.41
316.091	3.37
316.46	3.5
316.829	3.45
317.198	3.34
317.567	3.59
317.935	3.63
318.304	3.82
318.672	3.93
319.041	3.9
319.41	3.91
319.778	3.68
320.147	3.86
320.515	3.79
320.883	3.71
321.252	3.81
321.62	3.8
321.988	3.75
322.357	3.8
322.725	3.91
323.093	3.93
323.461	3.84
323.829	3.86
324.197	3.83
324.565	3.86
324.933	3.98
325.301	3.79
325.669	3.79
326.037	3.77
326.405	3.62
326.772	3.6
327.14	3.49
327.508	3.57
327.875	3.49
328.243	3.44
328.61	3.49
328.978	3.29
329.346	3.15
329.713	3.16
330.08	3.09
330.448	3.07
330.815	2.97
331.182	3.02
331.55	2.99
331.917	2.91
332.284	2.81
332.651	2.67
333.018	2.68
333.385	2.7
333.752	2.6
334.119	2.79
334.486	2.77
334.853	2.69
335.22	2.56
335.587	2.66
335.954	2.71
336.32	2.7
336.687	2.72
337.054	2.84
337.42	2.76
337.787	2.83
338.153	2.91
338.52	2.93
338.886	2.93
339.253	2.88
339.619	2.95
339.986	2.93
340.352	2.94
340.718	2.94
341.084	2.96
341.451	3.02
341.817	2.96
342.183	2.95
342.549	3.13
342.915	3.18
343.281	3.27
343.647	3.34
344.013	3.37
344.379	3.47
344.745	3.47
345.11	3.59
345.476	3.55
345.842	3.39
346.208	3.46
346.573	3.43
346.939	3.44
347.304	3.51
347.67	3.55
348.035	3.67
348.401	3.69
348.766	3.62
349.132	3.61
349.497	3.61
349.862	3.55
350.228	3.47
350.593	3.55
350.958	3.49
351.323	3.48
351.688	3.46
352.053	3.43
352.418	3.44
352.783	3.32
353.148	3.3
353.513	3.41
353.878	3.36
354.243	3.32
354.608	3.35
354.972	3.25
355.337	3.28
355.702	3.27
356.066	3.26
356.431	3.31
356.795	3.4
357.16	3.34
357.524	3.37
357.889	3.46
358.253	3.42
358.618	3.47
358.982	3.48
359.346	3.49
359.71	3.48
360.075	3.46
360.439	3.5
360.803	3.55
361.167	3.56
361.531	3.6
361.895	3.65
362.259	3.68
362.623	3.74
362.987	3.71
363.351	3.61
363.714	3.61
364.078	3.6
364.442	3.55
364.806	3.64
365.169	3.64
365.533	3.58
365.896	3.63
366.26	3.53
366.623	3.45
366.987	3.42
367.35	3.42
367.714	3.38
368.077	3.39
368.44	3.38
368.803	3.34
369.167	3.19
369.53	3.21
369.893	3.16
370.256	3.19
370.619	3.22
370.982	3.17
371.345	3.23
371.708	3.29
372.071	3.23
372.434	3.17
372.797	3.2
373.159	3.26
373.522	3.22
373.885	3.31
374.247	3.27
374.61	3.31
374.973	3.36
375.335	3.38
375.698	3.39
376.06	3.4
376.423	3.42
376.785	3.53
377.147	3.51
377.51	3.56
377.872	3.51
378.234	3.54
378.596	3.6
378.958	3.56
379.321	3.51
379.683	3.53
380.045	3.58
380.407	3.65
380.769	3.63
381.13	3.61
381.492	3.6
381.854	3.65
382.216	3.69
382.578	3.64
382.939	3.65
383.301	3.59
383.663	3.62
384.024	3.63
384.386	3.64
384.747	3.58
385.109	3.53
385.47	3.53
385.832	3.5
386.193	3.5
386.554	3.48
386.916	3.54
387.277	3.54
387.638	3.56
387.999	3.52
388.36	3.51
388.721	3.5
389.082	3.54
389.443	3.51
389.804	3.46
390.165	3.47
390.526	3.49
390.887	3.55
391.248	3.5
391.609	3.55
391.969	3.55
392.33	3.56
392.691	3.57
393.051	3.6
393.412	3.61
393.772	3.61
394.133	3.63
394.493	3.59
394.854	3.6
395.214	3.58
395.574	3.57
395.935	3.57
396.295	3.6
396.655	3.56
397.015	3.64
397.376	3.67
397.736	3.64
398.096	3.63
398.456	3.6
398.816	3.61
399.176	3.49
399.535	3.46
399.895	3.51
400.255	3.55
400.615	3.53
400.975	3.54
401.334	3.57
401.694	3.59
402.054	3.59
402.413	3.58
402.773	3.55
403.132	3.57
403.492	3.54
403.851	3.49
404.211	3.47
404.57	3.45
404.929	3.43
405.288	3.46
405.648	3.47
406.007	3.44
406.366	3.45
406.725	3.52
407.084	3.52
407.443	3.49
407.802	3.46
408.161	3.47
408.52	3.45
408.879	3.43
409.238	3.43
409.596	3.42
409.955	3.43
410.314	3.44
410.673	3.46
411.031	3.5
411.39	3.53
411.748	3.52
412.107	3.5
412.465	3.48
412.824	3.46
413.182	3.45
413.54	3.49
413.899	3.48
414.257	3.45
414.615	3.43
414.974	3.49
415.332	3.49
415.69	3.48
416.048	3.49
416.406	3.48
416.764	3.47
417.122	3.48
417.48	3.47
417.838	3.48
418.195	3.48
418.553	3.48
418.911	3.48
419.269	3.51
419.626	3.51
419.984	3.52
420.342	3.54
420.699	3.53
421.057	3.53
421.414	3.54
421.772	3.55
422.129	3.57
422.486	3.55
422.844	3.53
423.201	3.53
423.558	3.54
423.915	3.57
424.273	3.57
424.63	3.57
424.987	3.59
425.344	3.58
425.701	3.58
426.058	3.57
426.415	3.58
426.772	3.57
427.128	3.58
427.485	3.58
427.842	3.58
428.199	3.59
428.555	3.59
428.912	3.57
429.269	3.55
429.625	3.53
429.982	3.53
430.338	3.55
430.695	3.53
431.051	3.51
431.407	3.48
431.764	3.48
432.12	3.5
432.476	3.48
432.832	3.49
433.189	3.46
433.545	3.48
433.901	3.47
434.257	3.47
434.613	3.48
434.969	3.46
435.325	3.47
435.681	3.47
436.036	3.48
436.392	3.52
436.748	3.55
437.104	3.56
437.459	3.56
437.815	3.58
438.171	3.6
438.526	3.61
438.882	3.62
439.237	3.61
439.593	3.62
439.948	3.63
440.304	3.62
440.659	3.65
441.014	3.63
441.369	3.63
441.725	3.63
442.08	3.62
442.435	3.64
442.79	3.62
443.145	3.62
443.5	3.6
443.855	3.58
444.21	3.57
444.565	3.56
444.92	3.58
445.275	3.57
445.629	3.57
445.984	3.57
446.339	3.57
446.693	3.58
447.048	3.56
447.403	3.56
447.757	3.56
448.112	3.55
448.466	3.57
448.82	3.55
449.175	3.54
449.529	3.54
449.883	3.54
450.238	3.54
450.592	3.55
450.946	3.56
451.3	3.57
451.654	3.55
452.008	3.57
452.362	3.56
452.716	3.55
453.07	3.56
453.424	3.54
453.778	3.54
454.132	3.53
454.486	3.53
454.839	3.53
455.193	3.51
455.547	3.51
455.9	3.5
456.254	3.54
456.607	3.55
456.961	3.55
457.314	3.53
457.668	3.51
458.021	3.5
458.375	3.49
458.728	3.49
459.081	3.5
459.434	3.48
459.787	3.48
460.141	3.5
460.494	3.5
460.847	3.5
461.2	3.49
461.553	3.48
461.906	3.5
462.259	3.47
462.611	3.48
462.964	3.48
463.317	3.47
463.67	3.47
464.022	3.48
464.375	3.49
464.728	3.49
465.08	3.51
465.433	3.51
465.785	3.49
466.138	3.5
466.49	3.5
466.843	3.51
467.195	3.52
467.547	3.51
467.899	3.51
468.252	3.51
468.604	3.55
468.956	3.55
469.308	3.57
469.66	3.58
470.012	3.57
470.364	3.58
470.716	3.6
471.068	3.59
471.42	3.59
471.772	3.57
472.123	3.58
472.475	3.58
472.827	3.6
473.178	3.63
473.53	3.63
473.882	3.65
474.233	3.64
474.585	3.64
474.936	3.64
475.288	3.65
475.639	3.66
475.99	3.62
476.342	3.63
476.693	3.62
477.044	3.63
477.395	3.64
477.746	3.64
478.097	3.66
478.448	3.65
478.8	3.63
479.15	3.63
479.501	3.64
479.852	3.64
480.203	3.65
480.554	3.67
480.905	3.68
481.255	3.68
481.606	3.7
481.957	3.71
482.307	3.71
482.658	3.71
483.009	3.71
483.359	3.73
483.709	3.73
484.06	3.74
484.41	3.74
484.761	3.74
485.111	3.74
485.461	3.74
485.811	3.74
486.162	3.74
486.512	3.74
486.862	3.74
487.212	3.74
487.562	3.74
487.912	3.73
488.262	3.72
488.612	3.72
488.961	3.72
489.311	3.71
489.661	3.71
490.011	3.71
490.36	3.71
490.71	3.71
491.06	3.7
491.409	3.7
491.759	3.68
492.108	3.69
492.458	3.68
492.807	3.68
493.157	3.68
493.506	3.68
493.855	3.69
494.204	3.7
494.554	3.69
494.903	3.69
495.252	3.71
495.601	3.73
495.95	3.72
496.299	3.72
496.648	3.73
496.997	3.73
497.346	3.75
497.695	3.77
498.043	3.77
498.392	3.79
498.741	3.79
499.09	3.81
499.438	3.82
499.787	3.82
500.135	3.82
500.484	3.84
500.832	3.84
501.181	3.88
501.529	3.9
501.878	3.92
502.226	3.91
502.574	3.9
502.923	3.9
503.271	3.9
503.619	3.9
503.967	3.9
504.315	3.91
504.663	3.89
505.011	3.88
505.359	3.87
505.707	3.89
506.055	3.91
506.403	3.92
506.751	3.89
507.098	3.92
507.446	3.96
507.794	3.95
508.141	3.94
508.489	3.92
508.837	3.92
509.184	3.92
509.531	3.94
509.879	3.93
510.226	3.94
510.574	3.95
510.921	3.94
511.268	3.96
511.616	3.97
511.963	3.99
512.31	3.99
512.657	3.99
513.004	3.98
513.351	3.98
513.698	3.96
514.045	4
514.392	4.01
514.739	4.01
515.086	4.04
515.432	4.09
515.779	4.1
516.126	4.14
516.473	4.16
516.819	4.16
517.166	4.18
517.512	4.18
517.859	4.19
518.205	4.19
518.552	4.21
518.898	4.19
519.245	4.2
519.591	4.19
519.937	4.21
520.283	4.2
520.629	4.21
520.976	4.22
521.322	4.22
521.668	4.2
522.014	4.19
522.36	4.19
522.706	4.17
523.052	4.17
523.398	4.16
523.743	4.16
524.089	4.16
524.435	4.17
524.781	4.18
525.126	4.19
525.472	4.2
525.817	4.19
526.163	4.21
526.509	4.21
526.854	4.22
527.199	4.22
527.545	4.23
527.89	4.24
528.235	4.25
528.581	4.24
528.926	4.25
529.271	4.25
529.616	4.25
529.961	4.26
530.306	4.26
530.651	4.25
530.996	4.26
531.341	4.28
531.686	4.28
532.031	4.28
532.376	4.28
532.721	4.29
533.065	4.29
533.41	4.29
533.755	4.3
534.099	4.31
534.444	4.31
534.788	4.31
535.133	4.31
535.477	4.31
535.822	4.33
536.166	4.34
536.51	4.35
536.855	4.35
537.199	4.35
537.543	4.34
537.887	4.35
538.231	4.36
538.576	4.34
538.92	4.34
539.264	4.36
539.608	4.37
539.951	4.37
540.295	4.37
540.639	4.36
540.983	4.37
541.327	4.38
541.671	4.4
542.014	4.41
542.358	4.42
542.701	4.43
543.045	4.42
543.389	4.42
543.732	4.41
544.075	4.42
544.419	4.41
544.762	4.41
545.105	4.43
545.449	4.44
545.792	4.45
546.135	4.46
546.478	4.44
546.821	4.44
547.165	4.45
547.508	4.46
547.851	4.46
548.194	4.44
548.536	4.45
548.879	4.44
549.222	4.44
549.565	4.43
549.908	4.42
550.25	4.43
550.593	4.43
550.936	4.45
551.278	4.47
551.621	4.48
551.963	4.5
552.306	4.47
552.648	4.47
552.991	4.46
553.333	4.47
553.675	4.49
554.017	4.5
554.36	4.49
554.702	4.47
555.044	4.47
555.386	4.47
555.728	4.44
556.07	4.46
556.412	4.44
556.754	4.42
557.096	4.43
557.438	4.45
557.78	4.44
558.121	4.42
558.463	4.43
558.805	4.43
559.147	4.4
559.488	4.42
559.83	4.4
560.171	4.39
560.513	4.37
560.854	4.37
561.196	4.35
561.537	4.37
561.878	4.41
562.22	4.42
562.561	4.44
562.902	4.46
563.243	4.43
563.584	4.43
563.925	4.46
564.266	4.46
564.607	4.48
564.948	4.47
565.289	4.48
565.63	4.48
565.971	4.5
566.312	4.49
566.653	4.49
566.993	4.49
567.334	4.53
567.675	4.53
568.015	4.49
568.356	4.53
568.696	4.53
569.037	4.51
569.377	4.47
569.718	4.5
570.058	4.51
570.398	4.52
570.739	4.52
571.079	4.53
571.419	4.52
571.759	4.49
572.099	4.5
572.439	4.53
572.779	4.53
573.119	4.52
573.459	4.54
573.799	4.55
574.139	4.55
574.479	4.52
574.819	4.52
575.158	4.58
575.498	4.56
575.838	4.57
576.177	4.57
576.517	4.61
576.856	4.57
577.196	4.54
577.535	4.54
577.875	4.56
578.214	4.53
578.553	4.54
578.893	4.58
579.232	4.6
579.571	4.59
579.91	4.58
580.25	4.58
580.589	4.53
580.928	4.51
581.267	4.53
581.606	4.5
581.945	4.5
582.283	4.47
582.622	4.45
582.961	4.44
583.3	4.43
583.639	4.47
583.977	4.47
584.316	4.51
584.654	4.52
584.993	4.52
585.332	4.56
585.67	4.56
586.008	4.53
586.347	4.52
586.685	4.47
587.024	4.49
587.362	4.56
587.7	4.62
588.038	4.64
588.376	4.66
588.715	4.7
589.053	4.68
589.391	4.67
589.729	4.64
590.067	4.7
590.404	4.74
590.742	4.71
591.08	4.71
591.418	4.71
591.756	4.7
592.093	4.72
592.431	4.73
592.769	4.75
593.106	4.75
593.444	4.74
593.781	4.79
594.119	4.79
594.456	4.76
594.793	4.73
595.131	4.73
595.468	4.73
595.805	4.76
596.143	4.82
596.48	4.84
596.817	4.84
597.154	4.79
597.491	4.75
597.828	4.75
598.165	4.75
598.502	4.75
598.839	4.78
599.176	4.74
599.512	4.72
599.849	4.72
600.186	4.72
600.523	4.74
600.859	4.73
601.196	4.69
601.532	4.67
601.869	4.7
602.205	4.67
602.542	4.68
602.878	4.67
603.215	4.65
603.551	4.64
603.887	4.67
604.223	4.69
604.56	4.69
604.896	4.74
605.232	4.74
605.568	4.74
605.904	4.71
606.24	4.75
606.576	4.78
606.912	4.76
607.248	4.8
607.583	4.8
607.919	4.79
608.255	4.79
608.591	4.84
608.926	4.82
609.262	4.83
609.597	4.81
609.933	4.75
610.268	4.76
610.604	4.78
610.939	4.79
611.275	4.81
611.61	4.82
611.945	4.79
612.281	4.83
612.616	4.88
612.951	4.94
613.286	4.95
613.621	4.91
613.956	4.94
614.291	4.92
614.626	4.92
614.961	4.89
615.296	4.99
615.631	4.95
615.966	4.95
616.3	4.96
616.635	4.96
616.97	5.01
617.304	4.98
617.639	4.97
617.973	4.93
618.308	4.93
618.642	4.91
618.977	4.91
619.311	4.9
619.646	4.87
619.98	4.8
620.314	4.8
620.648	4.81
620.983	4.83
621.317	4.87
621.651	4.85
621.985	4.9
622.319	4.84
622.653	4.87
622.987	4.9
623.321	4.97
623.655	5
623.988	4.98
624.322	5.02
624.656	5.02
624.99	5.02
625.323	4.98
625.657	5.03
625.99	5.03
626.324	4.99
626.657	4.98
626.991	4.99
627.324	4.94
627.658	4.95
627.991	4.94
628.324	4.92
628.657	4.98
628.991	4.97
629.324	4.94
629.657	4.97
629.99	4.99
630.323	4.92
630.656	4.89
630.989	4.92
631.322	4.9
631.655	4.88
631.987	4.93
632.32	4.96
632.653	4.95
632.986	5
633.318	5.01
633.651	5
633.984	5.06
634.316	5.1
634.649	5.09
634.981	5.06
635.313	5.07
635.646	4.99
635.978	5.05
636.31	5.11
636.643	5.02
636.975	5
637.307	5.03
637.639	5.04
637.971	5.04
638.303	5.06
638.635	5.03
638.967	5.06
639.299	5.03
639.631	4.97
639.963	4.86
640.295	4.88
640.626	4.91
640.958	4.87
641.29	4.92
641.621	4.94
641.953	5.04
642.285	5.03
642.616	5.09
642.948	5.06
643.279	5.04
643.61	5.08
643.942	5.18
644.273	5.24
644.604	5.29
644.936	5.33
645.267	5.32
645.598	5.38
645.929	5.38
646.26	5.38
646.591	5.48
646.922	5.66
647.253	5.63
647.584	5.63
647.915	5.65
648.245	5.6
648.576	5.57
648.907	5.61
649.238	5.57
649.568	5.55
649.899	5.51
650.229	5.61
650.56	5.63
650.89	5.54
651.221	5.44
651.551	5.4
651.882	5.4
652.212	5.45
652.542	5.51
652.872	5.52
653.203	5.61
653.533	5.64
653.863	5.55
654.193	5.57
654.523	5.51
654.853	5.54
655.183	5.54
655.513	5.6
655.843	5.47
656.172	5.52
656.502	5.47
656.832	5.47
657.162	5.32
657.491	5.35
657.821	5.39
658.15	5.44
658.48	5.51
658.809	5.48
659.139	5.49
659.468	5.46
659.798	5.46
660.127	5.39
660.456	5.37
660.785	5.36
661.115	5.37
661.444	5.43
661.773	5.4
662.102	5.41
662.431	5.38
662.76	5.37
663.089	5.32
663.418	5.36
663.747	5.38
664.076	5.5
664.404	5.49
664.733	5.49
665.062	5.5
665.39	5.47
665.719	5.4
666.048	5.4
666.376	5.41
666.705	5.4
667.033	5.42
667.362	5.38
667.69	5.44
668.018	5.41
668.347	5.4
668.675	5.39
669.003	5.38
669.331	5.38
669.659	5.41
669.987	5.49
670.315	5.53
670.643	5.55
670.971	5.52
671.299	5.53
671.627	5.57
671.955	5.55
672.283	5.48
672.61	5.59
672.938	5.54
673.266	5.53
673.593	5.46
673.921	5.49
674.249	5.5
674.576	5.37
674.904	5.4
675.231	5.42
675.558	5.51
675.886	5.5
676.213	5.55
676.54	5.66
676.867	5.7
677.195	5.72
677.522	5.7
677.849	5.8
678.176	5.85
678.503	5.82
678.83	5.79
679.157	5.86
679.484	5.82
679.81	5.86
680.137	5.93
680.464	6.09
680.791	6.07
681.117	6.04
681.444	6.15
681.771	6.17
682.097	6.18
682.424	6.08
682.75	6.19
683.077	6.13
683.403	6.13
683.729	6.09
684.056	6.19
684.382	6.15
684.708	6.12
685.034	6.1
685.36	6.14
685.686	6.17
686.012	6.12
686.339	6.09
686.664	6.05
686.99	6.03
687.316	5.92
687.642	6
687.968	6.11
688.294	6.15
688.619	6.15
688.945	6.25
689.271	6.31
689.596	6.22
689.922	6.28
690.247	6.26
690.573	6.33
690.898	6.26
691.224	6.36
691.549	6.25
691.874	6.22
692.2	6.2
692.525	6.18
692.85	6.21
693.175	6.3
693.5	6.33
693.825	6.23
694.15	6.12
694.475	6.06
694.8	5.96
695.125	5.84
695.45	5.81
695.775	5.71
696.099	5.91
696.424	5.9
696.749	5.92
697.073	5.91
697.398	5.92
697.723	5.95
698.047	5.97
698.372	6.05
698.696	5.97
699.02	6.01
699.345	6.15
699.669	6.22
699.993	6.24
700.318	6.28
700.642	6.38
700.966	6.5
701.29	6.55
701.614	6.61
701.938	6.6
702.262	6.67
702.586	6.72
702.91	6.61
703.234	6.61
703.557	6.62
703.881	6.69
704.205	6.63
704.529	6.55
704.852	6.51
705.176	6.48
705.499	6.54
705.823	6.38
706.146	6.3
706.47	6.33
706.793	6.35
707.117	6.29
707.44	6.17
707.763	6.24
708.086	6.25
708.409	6.2
708.733	6.38
709.056	6.38
709.379	6.41
709.702	6.35
710.025	6.55
710.348	6.58
710.671	6.6
710.993	6.59
711.316	6.67
711.639	6.75
711.962	6.81
712.284	6.91
712.607	6.98
712.93	6.97
713.252	6.76
713.575	6.84
713.897	6.97
714.22	7.04
714.542	7.03
714.864	6.88
715.187	6.94
715.509	7
715.831	7.02
716.153	7.05
716.475	7.05
716.798	6.89
717.12	6.83
717.442	6.76
717.764	6.82
718.085	6.8
718.407	6.8
718.729	6.69
719.051	6.75
719.373	6.79
719.695	6.81
720.016	6.88
720.338	6.85
720.659	6.7
720.981	6.78
721.302	6.81
721.624	6.84
721.945	6.9
722.267	6.8
722.588	6.69
722.909	6.54
723.231	6.48
723.552	6.62
723.873	6.68
724.194	6.66
724.515	6.45
724.836	6.32
725.157	6.24
725.478	6.3
725.799	6.12
726.12	6.13
726.441	6.06
726.762	6.19
727.083	6.07
727.403	6.02
727.724	6.07
728.045	6.09
728.365	6.27
728.686	6.29
729.006	6.18
729.327	6.34
729.647	6.47
729.967	6.5
730.288	6.37
730.608	6.36
730.928	6.39
731.249	6.47
731.569	6.48
731.889	6.44
732.209	6.5
732.529	6.45
732.849	6.42
733.169	6.39
733.489	6.31
733.809	6.41
734.129	6.5
734.448	6.38
734.768	6.22
735.088	6.03
735.408	6.12
735.727	6.3
736.047	6.22
736.366	6.28
736.686	6.22
737.005	6.42
737.325	6.64
737.644	6.62
737.963	6.66
738.283	6.73
738.602	6.82
738.921	7.04
739.24	7.2
739.56	7.28
739.879	7.35
740.198	7.36
740.517	7.31
740.836	7.22
741.155	7.15
741.473	7.17
741.792	7.39
742.111	7.47
742.43	7.5
742.748	7.59
743.067	7.48
743.386	7.53
743.704	7.53
744.023	7.2
744.341	7.41
744.66	7.41
744.978	7.41
745.297	7.28
745.615	6.98
745.933	6.91
746.252	6.88
746.57	6.88
746.888	7
747.206	7.19
747.524	7.28
747.842	7.3
748.16	7.54
748.478	7.66
748.796	7.39
749.114	7.28
749.432	7.21
749.749	7.12
750.067	7.18
750.385	7.21
750.703	7.25
751.02	7.17
751.338	7.2
751.655	7.39
751.973	7.52
752.29	7.5
752.608	7.53
752.925	7.53
753.242	7.59
753.56	7.58
753.877	7.31
754.194	7.5
754.511	7.74
754.828	7.56
755.145	7.49
755.462	7.46
755.779	7.16
756.096	7.25
756.413	7.62
756.73	7.7
757.047	7.47
757.364	7.67
757.68	7.77
757.997	7.62
758.314	7.8
758.63	7.79
758.947	7.89
759.264	7.99
759.58	8.14
759.896	8.15
760.213	8.15
760.529	8.11
760.846	7.97
761.162	7.79
761.478	7.88
761.794	8
762.11	8.04
762.426	8.27
762.743	8.24
763.059	8.15
763.375	8.18
763.69	8.42
764.006	8.32
764.322	8.2
764.638	8.56
764.954	8.33
765.27	8.33
765.585	8.34
765.901	8.36
766.216	8.01
766.532	7.86
766.848	7.91
767.163	7.89
767.478	7.91
767.794	8.1
768.109	8.24
768.424	8.34
768.74	8.39
769.055	8.65
769.37	8.77
769.685	8.75
770	8.48
770.315	8.29
770.63	8.4
770.945	8.22
771.26	7.66
771.575	7.44
771.89	7.52
772.205	7.47
772.52	7.42
772.834	7.91
773.149	8.11
773.464	8.01
773.778	8.41
774.093	8.65
774.407	8.66
774.722	8.52
775.036	8.57
775.351	8.81
775.665	8.45
775.979	8.31
776.293	8.34
776.608	8.54
776.922	8.24
777.236	8.3
777.55	8.33
777.864	8.82
778.178	9.43
778.492	9.48
778.806	9.27
779.12	9.33
779.434	9.16
779.747	8.95
780.061	9.26
780.375	9.32
780.689	9.08
781.002	8.67
781.316	8.82
781.629	8.36
781.943	8.15
782.256	8.75
782.57	9.37
782.883	9.66
783.196	9.69
783.51	10.33
783.823	10.12
784.136	10.1
784.449	10.13
784.762	9.86
785.075	9.45
785.388	10.03
785.701	10.1
786.014	9.84
786.327	10.04
786.64	10.12
786.953	9.93
787.266	9.54
787.578	9.66
787.891	9.47
788.204	9.26
788.516	8.97
788.829	8.17
789.141	8.04
789.454	8.07
789.766	8.37
790.079	8.21
790.391	8.78
790.703	9.16
791.016	8.55
791.328	8.71
791.64	9.22
791.952	9.19
792.264	8.9
792.576	9.9
792.888	10.04
793.2	9.41
793.512	9.24
793.824	9.41
794.136	9.7
794.448	9.59
794.76	10.08
795.071	10.32
795.383	10.9
795.695	10.51
796.006	10.13
796.318	10.18
796.629	9.96
796.941	9.67
797.252	9.48
797.564	9.4
797.875	8.8
798.186	8.73
798.497	8.7
798.809	8.59
799.12	8.23
799.431	8.26
799.742	8.72
800.053	8.78
800.364	9.54
800.675	9.84
800.986	10.25
801.297	10.34
801.608	10.3
801.918	10.23
802.229	10.67
802.54	10.35
802.851	9.95
803.161	10.07
803.472	9.69
803.782	10.22
804.093	10.19
804.403	10.99
804.714	11.29
805.024	11.4
805.334	11.82
805.645	11.91
805.955	12.23
806.265	12.59
806.575	12.82
806.885	13.22
807.195	13.02
807.505	12.59
807.815	12.53
808.125	11.73
808.435	11.05
808.745	11.63
809.055	11.71
809.365	12.44
809.674	12.67
809.984	13.07
810.294	12.95
810.603	13.5
810.913	13.09
811.222	12.93
811.532	12.71
811.841	12.96
812.151	12.75
812.46	12.54
812.769	11.99
813.079	11.77
813.388	12.24
813.697	12.17
814.006	12.1
814.315	11.26
814.624	12.75
814.933	13.7
815.242	12.93
815.551	12.77
815.86	13
816.169	12.34
816.478	12.12
816.786	11.6
817.095	11.77
817.404	11.97
817.712	12.32
818.021	11.79
818.33	11.81
818.638	12.01
818.947	11.98
819.255	11.93
819.563	11.98
819.872	10.84
820.18	10.81
820.488	11.16
820.796	11.45
821.105	11.46
821.413	11.33
821.721	11.28
822.029	11.57
822.337	11.42
822.645	11.64
822.953	11.68
823.26	11.76
823.568	11.91
823.876	11.98
824.184	11.76
824.491	11.86
824.799	11.72
825.107	11.67
825.414	11.68
825.722	11.71
826.029	11.6
826.337	11.7
826.644	11.78
826.951	11.69
827.259	11.87
827.566	11.69
827.873	11.84
828.18	11.8
828.488	11.86
828.795	11.84
829.102	11.82
829.409	11.64
829.716	11.68
830.023	11.55
830.329	11.53
830.636	11.79
830.943	12.18
831.25	12.2
831.557	12.05
831.863	11.61
832.17	11.6
832.476	11.95
832.783	12.56
833.089	12.64
833.396	12.84
833.702	12.53
834.009	12.74
834.315	12.53
834.621	13.11
834.928	12.51
835.234	12.55
835.54	12.18
835.846	12.58
836.152	12.18
836.458	12.06
836.764	11.67
837.07	11.1
837.376	10.41
837.682	10.29
837.988	10.56
838.293	10.89
838.599	10.86
838.905	11
839.211	10.28
839.516	10.24
839.822	10.58
840.127	9.88
840.433	9.78
840.738	9.33
841.044	8.42
841.349	8.93
841.654	7.54
841.959	8.81
842.265	8.25
842.57	9.32
842.875	9.58
843.18	10.53
843.485	12.22
843.79	13.09
844.095	12.88
844.4	12.05
844.705	12.14
845.01	13.05
845.315	12.25
845.619	12.32
845.924	11.18
846.229	10.63
846.533	11.58
846.838	11.66
847.142	13.05
847.447	12.46
847.751	12.77
848.056	13.93
848.36	12.16
848.664	12.74
848.969	13.04
849.273	10.05
849.577	10.12
849.881	10.78
850.185	9.89
850.489	13.17
850.794	14.74
851.097	15.08
851.401	14.58
851.705	14.59
852.009	16.19
852.313	15.8
852.617	14.93
852.92	14.37
853.224	16.11
853.528	14.08
853.831	15.14
854.135	16.17
854.438	16.89
854.742	18.82
855.045	18.01
855.349	16.49
855.652	19.28
855.955	18.38
856.259	18.05
856.562	20.26
856.865	18.31
857.168	19.97
857.471	20.69
857.774	21.26
858.077	20.61
858.38	20.74
858.683	21.67
858.986	22.11
859.289	22.13
859.592	22.4
859.894	22.24
860.197	21.84
860.5	22.66
860.802	23.94
861.105	20.66
861.407	24.17
861.71	25.61
862.012	26.84
862.315	26.29
862.617	23.43
862.919	21.6
863.222	23.4
863.524	19.68
863.826	18.07
864.128	18.11
864.43	21.74
864.732	18.62
865.034	17.31
865.336	14.92
865.638	14.59
865.94	12.56
866.242	13.77
866.544	14.88
866.846	12.5
867.147	12.32
867.449	14.14
867.751	9.91
868.052	9.85
868.354	7.97
868.655	8.25
868.957	8.78
869.258	7.26
869.56	5.05
869.861	5.67
870.162	7.04
870.463	4.01
870.765	3.31
871.066	5.61
871.367	6.63
871.668	10.3
871.969	11.13
872.27	14.42
872.571	15.23
872.872	14.3
873.173	12.6
873.473	8.48
873.774	6.8
874.075	9.87
874.376	6.82
874.676	11.34
874.977	14.06
875.277	14.75
875.578	17.82
875.878	19.23
876.179	20.59
876.479	21.4
876.78	23.88
877.08	21.58
877.38	21.78
877.68	23.84
877.981	21.44
878.281	23.23
878.581	16.57
