Data from MVZ_BU28167_Reflection_00010.txt Node
Date: Tue Nov 19 12:17:37 EST 2019
User: vgr7
Spectrometer: USB2G7710
Scans to average: 3
Trigger mode: 4
Integration Time (sec): 2.000000E-2
Electric dark correction enabled: true
Boxcar width: 10
XAxis mode: Wavelengths
Number of Pixels in Spectrum: 2048
>>>>>Begin Spectral Data<<<<<
177.721	476.13
178.105	-622.22
178.488	6.18
178.871	47.92
179.254	61.11
179.636	-32.03
180.019	50.91
180.402	45
180.785	81.67
181.168	96.21
181.55	70.88
181.933	80.51
182.316	45.57
182.698	25.16
183.081	10.52
183.463	-21.33
183.846	5.12
184.228	-17.78
184.611	-43.42
184.993	-67.01
185.376	-62.1
185.758	-46.96
186.14	-27.6
186.522	-45.34
186.904	-62.68
187.287	-35.25
187.669	-42.35
188.051	-60.18
188.433	-45.45
188.815	-54.99
189.197	-50.3
189.579	-72.1
189.961	-86.18
190.342	-123.47
190.724	-212.31
191.106	-236.71
191.488	-201.64
191.869	-872.22
192.251	1242.16
192.633	-3014.58
193.014	-11358.33
193.396	-569.27
193.777	-10358.33
194.159	-5879.17
194.54	506.57
194.922	476.44
195.303	613.89
195.684	1402.08
196.065	509.72
196.447	415.48
196.828	594.05
197.209	181.35
197.59	86.74
197.971	512.04
198.352	-161.7
198.733	-75.77
199.114	-65.9
199.495	-80.56
199.876	-58.14
200.257	7.68
200.638	80.9
201.018	101.37
201.399	254.76
201.78	530.56
202.16	-73.81
202.541	-132.64
202.922	280.56
203.302	-47.36
203.683	-5.56
204.063	-16.67
204.444	13.9
204.824	-27.22
205.204	15.21
205.585	55.82
205.965	33.45
206.345	3.48
206.725	-3
207.106	42.05
207.486	62.38
207.866	84.71
208.246	111.04
208.626	121.14
209.006	116
209.386	257.83
209.766	409.26
210.145	235.84
210.525	352.56
210.905	252.21
211.285	348.93
211.664	477.38
212.044	506.38
212.424	533.57
212.803	371.58
213.183	567.95
213.562	606.41
213.942	557.18
214.321	869.1
214.701	621.14
215.08	607.06
215.459	528.4
215.838	645.6
216.218	795.18
216.597	279.97
216.976	279.64
217.355	182.04
217.734	200.09
218.113	201.7
218.492	201.91
218.871	190.1
219.25	180.91
219.629	152.94
220.008	174.94
220.387	202.87
220.766	184.98
221.144	123.52
221.523	111.9
221.902	117.72
222.28	109.29
222.659	109.17
223.037	104.31
223.416	115.13
223.794	110.17
224.173	104.09
224.551	113.7
224.929	102.68
225.308	98.44
225.686	70.66
226.064	60.59
226.442	51.35
226.821	49.57
227.199	47.43
227.577	46.66
227.955	38.54
228.333	32.68
228.711	30.73
229.089	32.6
229.467	29.04
229.845	26.67
230.222	20.83
230.6	17.04
230.978	18.26
231.356	12.68
231.733	13.54
232.111	14.96
232.488	15.61
232.866	20.34
233.243	19.42
233.621	19.54
233.998	20.12
234.376	21.93
234.753	19.51
235.13	17.53
235.508	16.16
235.885	15.02
236.262	14.07
236.639	12.58
237.016	11.7
237.393	10.8
237.77	10.09
238.147	9.47
238.524	9.45
238.901	9.55
239.278	8.93
239.655	7.62
240.032	7.81
240.409	6.92
240.785	5.37
241.162	4.86
241.539	4.66
241.915	4.27
242.292	3.8
242.668	4.35
243.045	4.56
243.421	4.82
243.798	5.09
244.174	4.78
244.551	4.99
244.927	4.56
245.303	4.52
245.679	4.85
246.056	5.08
246.432	5.14
246.808	5.05
247.184	5.05
247.56	4.93
247.936	4.82
248.312	4.97
248.688	4.91
249.064	4.99
249.44	4.87
249.815	5.11
250.191	5.26
250.567	5.44
250.943	5.3
251.318	5.38
251.694	5.35
252.069	5.85
252.445	5.91
252.82	6.33
253.196	6.44
253.571	6.15
253.947	6.14
254.322	5.78
254.697	5.43
255.073	5.2
255.448	5.21
255.823	5.22
256.198	5.15
256.573	5.56
256.948	5.36
257.323	5.36
257.698	4.96
258.073	4.67
258.448	4.56
258.823	4.64
259.198	4.21
259.573	4.16
259.948	3.95
260.322	3.73
260.697	3.8
261.072	4
261.446	4.16
261.821	3.98
262.195	4
262.57	3.98
262.944	3.99
263.319	3.94
263.693	3.86
264.067	3.58
264.442	3.13
264.816	3.19
265.19	3.15
265.564	3.16
265.938	3.19
266.313	3.1
266.687	2.81
267.061	2.97
267.435	3.01
267.809	2.79
268.183	2.94
268.556	2.76
268.93	2.48
269.304	2.45
269.678	2.68
270.051	2.76
270.425	2.83
270.799	2.61
271.172	2.73
271.546	2.66
271.919	2.82
272.293	3.11
272.666	3.16
273.04	3.14
273.413	3.2
273.787	3.14
274.16	3.05
274.533	3.1
274.906	3.2
275.279	3.09
275.653	3.39
276.026	3.48
276.399	3.63
276.772	3.79
277.145	3.71
277.518	3.55
277.891	3.44
278.263	3.51
278.636	3.78
279.009	3.69
279.382	3.85
279.755	3.85
280.127	3.89
280.5	3.77
280.872	4
281.245	4.08
281.617	4.14
281.99	4.11
282.362	4.17
282.735	4.09
283.107	4.15
283.479	4.07
283.852	3.97
284.224	3.91
284.596	3.84
284.968	3.62
285.34	3.72
285.713	3.88
286.085	3.88
286.457	3.87
286.829	3.81
287.201	3.74
287.572	3.66
287.944	3.67
288.316	3.63
288.688	3.57
289.06	3.51
289.431	3.53
289.803	3.64
290.175	3.66
290.546	3.68
290.918	3.75
291.289	3.74
291.661	3.76
292.032	3.8
292.403	3.91
292.775	4.05
293.146	4.19
293.517	4.06
293.889	4.04
294.26	4.03
294.631	4.17
295.002	4.34
295.373	4.37
295.744	4.29
296.115	4.29
296.486	4.33
296.857	4.38
297.228	4.36
297.599	4.17
297.97	4.12
298.34	4.13
298.711	4.12
299.082	4.15
299.452	4.24
299.823	4.18
300.194	4.14
300.564	4.17
300.935	4.09
301.305	4.22
301.676	4.15
302.046	4.18
302.416	4.11
302.787	3.96
303.157	3.93
303.527	4.02
303.897	4.13
304.267	4.06
304.637	4.18
305.008	4.34
305.378	4.61
305.748	4.71
306.117	4.81
306.487	4.82
306.857	4.91
307.227	5.04
307.597	5.12
307.967	5.02
308.336	5.14
308.706	5.13
309.076	5.24
309.445	5.47
309.815	5.65
310.184	5.76
310.554	5.84
310.923	6
311.293	6.12
311.662	6.16
312.031	6.15
312.401	6.11
312.77	6.08
313.139	6.01
313.508	6.19
313.877	6.28
314.246	6.29
314.616	6.37
314.985	6.36
315.353	6.54
315.722	6.79
316.091	6.83
316.46	7
316.829	6.95
317.198	6.94
317.567	6.98
317.935	7.08
318.304	7.16
318.672	7.23
319.041	7.08
319.41	7.12
319.778	7.2
320.147	7.18
320.515	7.24
320.883	7.23
321.252	7.11
321.62	7.01
321.988	7.15
322.357	7.2
322.725	7.2
323.093	7.06
323.461	6.91
323.829	7
324.197	6.95
324.565	7.04
324.933	6.99
325.301	6.97
325.669	6.91
326.037	6.94
326.405	7.03
326.772	7.15
327.14	7.1
327.508	7.06
327.875	7.25
328.243	7.26
328.61	7.46
328.978	7.4
329.346	7.44
329.713	7.52
330.08	7.58
330.448	7.5
330.815	7.56
331.182	7.5
331.55	7.33
331.917	7.3
332.284	7.33
332.651	7.52
333.018	7.62
333.385	7.74
333.752	7.66
334.119	7.51
334.486	7.51
334.853	7.59
335.22	7.68
335.587	7.54
335.954	7.56
336.32	7.48
336.687	7.57
337.054	7.69
337.42	7.65
337.787	7.59
338.153	7.73
338.52	7.83
338.886	8.02
339.253	8.16
339.619	8.11
339.986	8.05
340.352	7.91
340.718	7.85
341.084	7.84
341.451	7.96
341.817	8
342.183	7.98
342.549	8.07
342.915	8.06
343.281	8.11
343.647	8.17
344.013	8.1
344.379	8.21
344.745	8.19
345.11	8.18
345.476	8.16
345.842	8.05
346.208	8.14
346.573	8.14
346.939	8.16
347.304	8.34
347.67	8.32
348.035	8.38
348.401	8.49
348.766	8.44
349.132	8.49
349.497	8.5
349.862	8.62
350.228	8.62
350.593	8.68
350.958	8.71
351.323	8.66
351.688	8.74
352.053	8.67
352.418	8.73
352.783	8.7
353.148	8.77
353.513	8.81
353.878	8.7
354.243	8.59
354.608	8.62
354.972	8.59
355.337	8.64
355.702	8.57
356.066	8.53
356.431	8.52
356.795	8.46
357.16	8.49
357.524	8.29
357.889	8.17
358.253	8.09
358.618	8.09
358.982	8.03
359.346	8
359.71	7.95
360.075	7.9
360.439	8.01
360.803	7.96
361.167	7.9
361.531	7.81
361.895	7.88
362.259	7.8
362.623	7.72
362.987	7.7
363.351	7.72
363.714	7.72
364.078	7.75
364.442	7.75
364.806	7.68
365.169	7.78
365.533	7.76
365.896	7.8
366.26	7.79
366.623	7.86
366.987	7.87
367.35	7.84
367.714	7.8
368.077	7.66
368.44	7.64
368.803	7.64
369.167	7.62
369.53	7.59
369.893	7.6
370.256	7.54
370.619	7.43
370.982	7.42
371.345	7.37
371.708	7.26
372.071	7.16
372.434	7.17
372.797	7.12
373.159	7.1
373.522	6.95
373.885	6.89
374.247	6.7
374.61	6.71
374.973	6.7
375.335	6.69
375.698	6.6
376.06	6.52
376.423	6.52
376.785	6.52
377.147	6.48
377.51	6.48
377.872	6.48
378.234	6.51
378.596	6.43
378.958	6.37
379.321	6.32
379.683	6.36
380.045	6.26
380.407	6.18
380.769	6.13
381.13	6.14
381.492	6.06
381.854	6.07
382.216	6.04
382.578	6.03
382.939	5.97
383.301	5.93
383.663	5.94
384.024	5.89
384.386	5.83
384.747	5.82
385.109	5.72
385.47	5.72
385.832	5.66
386.193	5.7
386.554	5.6
386.916	5.6
387.277	5.52
387.638	5.55
387.999	5.56
388.36	5.53
388.721	5.51
389.082	5.56
389.443	5.55
389.804	5.54
390.165	5.5
390.526	5.44
390.887	5.43
391.248	5.4
391.609	5.35
391.969	5.37
392.33	5.28
392.691	5.29
393.051	5.23
393.412	5.19
393.772	5.09
394.133	5.09
394.493	5.02
394.854	4.99
395.214	4.93
395.574	4.89
395.935	4.88
396.295	4.85
396.655	4.8
397.015	4.78
397.376	4.71
397.736	4.66
398.096	4.63
398.456	4.59
398.816	4.54
399.176	4.54
399.535	4.45
399.895	4.44
400.255	4.41
400.615	4.33
400.975	4.3
401.334	4.28
401.694	4.27
402.054	4.26
402.413	4.21
402.773	4.17
403.132	4.14
403.492	4.08
403.851	4.04
404.211	4.02
404.57	3.99
404.929	3.97
405.288	3.94
405.648	3.94
406.007	3.93
406.366	3.9
406.725	3.88
407.084	3.89
407.443	3.87
407.802	3.85
408.161	3.91
408.52	3.92
408.879	3.95
409.238	3.93
409.596	3.92
409.955	3.94
410.314	3.92
410.673	3.91
411.031	3.94
411.39	3.98
411.748	3.97
412.107	3.95
412.465	3.93
412.824	3.91
413.182	3.88
413.54	3.89
413.899	3.88
414.257	3.85
414.615	3.83
414.974	3.83
415.332	3.81
415.69	3.76
416.048	3.75
416.406	3.73
416.764	3.71
417.122	3.71
417.48	3.7
417.838	3.7
418.195	3.67
418.553	3.66
418.911	3.61
419.269	3.59
419.626	3.59
419.984	3.59
420.342	3.57
420.699	3.56
421.057	3.56
421.414	3.55
421.772	3.54
422.129	3.53
422.486	3.51
422.844	3.48
423.201	3.46
423.558	3.46
423.915	3.47
424.273	3.46
424.63	3.43
424.987	3.43
425.344	3.4
425.701	3.42
426.058	3.4
426.415	3.4
426.772	3.39
427.128	3.35
427.485	3.34
427.842	3.35
428.199	3.35
428.555	3.32
428.912	3.31
429.269	3.3
429.625	3.28
429.982	3.28
430.338	3.32
430.695	3.32
431.051	3.3
431.407	3.28
431.764	3.26
432.12	3.27
432.476	3.27
432.832	3.29
433.189	3.27
433.545	3.27
433.901	3.27
434.257	3.28
434.613	3.3
434.969	3.29
435.325	3.3
435.681	3.29
436.036	3.3
436.392	3.31
436.748	3.34
437.104	3.36
437.459	3.33
437.815	3.34
438.171	3.34
438.526	3.32
438.882	3.32
439.237	3.34
439.593	3.33
439.948	3.32
440.304	3.32
440.659	3.3
441.014	3.32
441.369	3.31
441.725	3.3
442.08	3.3
442.435	3.31
442.79	3.28
443.145	3.29
443.5	3.27
443.855	3.27
444.21	3.27
444.565	3.27
444.92	3.28
445.275	3.27
445.629	3.26
445.984	3.26
446.339	3.27
446.693	3.25
447.048	3.24
447.403	3.24
447.757	3.21
448.112	3.23
448.466	3.22
448.82	3.21
449.175	3.2
449.529	3.2
449.883	3.19
450.238	3.2
450.592	3.17
450.946	3.18
451.3	3.18
451.654	3.13
452.008	3.11
452.362	3.09
452.716	3.06
453.07	3.06
453.424	3.06
453.778	3.04
454.132	3.05
454.486	3.07
454.839	3.08
455.193	3.09
455.547	3.07
455.9	3.08
456.254	3.09
456.607	3.1
456.961	3.1
457.314	3.1
457.668	3.1
458.021	3.11
458.375	3.11
458.728	3.09
459.081	3.11
459.434	3.11
459.787	3.13
460.141	3.17
460.494	3.19
460.847	3.19
461.2	3.2
461.553	3.21
461.906	3.2
462.259	3.2
462.611	3.21
462.964	3.23
463.317	3.24
463.67	3.27
464.022	3.28
464.375	3.28
464.728	3.3
465.08	3.3
465.433	3.32
465.785	3.34
466.138	3.39
466.49	3.43
466.843	3.47
467.195	3.47
467.547	3.45
467.899	3.47
468.252	3.49
468.604	3.52
468.956	3.52
469.308	3.53
469.66	3.57
470.012	3.6
470.364	3.61
470.716	3.63
471.068	3.65
471.42	3.68
471.772	3.69
472.123	3.7
472.475	3.74
472.827	3.76
473.178	3.76
473.53	3.75
473.882	3.75
474.233	3.72
474.585	3.76
474.936	3.77
475.288	3.75
475.639	3.75
475.99	3.72
476.342	3.73
476.693	3.72
477.044	3.71
477.395	3.69
477.746	3.67
478.097	3.66
478.448	3.63
478.8	3.6
479.15	3.57
479.501	3.56
479.852	3.51
480.203	3.49
480.554	3.49
480.905	3.48
481.255	3.46
481.606	3.47
481.957	3.48
482.307	3.48
482.658	3.48
483.009	3.48
483.359	3.49
483.709	3.49
484.06	3.49
484.41	3.47
484.761	3.48
485.111	3.48
485.461	3.48
485.811	3.47
486.162	3.47
486.512	3.48
486.862	3.47
487.212	3.48
487.562	3.47
487.912	3.48
488.262	3.48
488.612	3.48
488.961	3.47
489.311	3.46
489.661	3.44
490.011	3.45
490.36	3.44
490.71	3.44
491.06	3.43
491.409	3.44
491.759	3.46
492.108	3.46
492.458	3.48
492.807	3.49
493.157	3.51
493.506	3.52
493.855	3.54
494.204	3.58
494.554	3.62
494.903	3.65
495.252	3.67
495.601	3.71
495.95	3.73
496.299	3.79
496.648	3.82
496.997	3.87
497.346	3.91
497.695	3.94
498.043	4
498.392	4.05
498.741	4.1
499.09	4.15
499.438	4.22
499.787	4.27
500.135	4.32
500.484	4.38
500.832	4.42
501.181	4.51
501.529	4.59
501.878	4.66
502.226	4.75
502.574	4.83
502.923	4.92
503.271	5.02
503.619	5.13
503.967	5.24
504.315	5.36
504.663	5.49
505.011	5.64
505.359	5.76
505.707	5.88
506.055	6.03
506.403	6.16
506.751	6.27
507.098	6.4
507.446	6.54
507.794	6.67
508.141	6.86
508.489	7.01
508.837	7.13
509.184	7.32
509.531	7.49
509.879	7.67
510.226	7.83
510.574	7.99
510.921	8.16
511.268	8.34
511.616	8.53
511.963	8.71
512.31	8.9
512.657	9.09
513.004	9.32
513.351	9.51
513.698	9.74
514.045	9.99
514.392	10.25
514.739	10.48
515.086	10.76
515.432	10.98
515.779	11.23
516.126	11.48
516.473	11.71
516.819	11.9
517.166	12.13
517.512	12.34
517.859	12.59
518.205	12.78
518.552	12.98
518.898	13.17
519.245	13.36
519.591	13.56
519.937	13.76
520.283	13.95
520.629	14.17
520.976	14.39
521.322	14.63
521.668	14.86
522.014	15.11
522.36	15.34
522.706	15.63
523.052	15.92
523.398	16.22
523.743	16.53
524.089	16.88
524.435	17.15
524.781	17.4
525.126	17.62
525.472	17.86
525.817	18.07
526.163	18.27
526.509	18.48
526.854	18.67
527.199	18.85
527.545	19.04
527.89	19.22
528.235	19.38
528.581	19.54
528.926	19.7
529.271	19.89
529.616	20.07
529.961	20.21
530.306	20.36
530.651	20.53
530.996	20.71
531.341	20.89
531.686	21.09
532.031	21.33
532.376	21.57
532.721	21.8
533.065	22.04
533.41	22.27
533.755	22.5
534.099	22.73
534.444	22.97
534.788	23.17
535.133	23.39
535.477	23.65
535.822	23.9
536.166	24.19
536.51	24.43
536.855	24.73
537.199	25.04
537.543	25.38
537.887	25.71
538.231	26.01
538.576	26.3
538.92	26.62
539.264	26.9
539.608	27.15
539.951	27.4
540.295	27.65
540.639	27.9
540.983	28.12
541.327	28.33
541.671	28.54
542.014	28.76
542.358	28.97
542.701	29.2
543.045	29.41
543.389	29.6
543.732	29.81
544.075	30.03
544.419	30.26
544.762	30.45
545.105	30.65
545.449	30.88
545.792	31.12
546.135	31.31
546.478	31.55
546.821	31.85
547.165	32.08
547.508	32.29
547.851	32.55
548.194	32.82
548.536	33.06
548.879	33.33
549.222	33.56
549.565	33.8
549.908	34.02
550.25	34.26
550.593	34.45
550.936	34.75
551.278	35
551.621	35.23
551.963	35.48
552.306	35.7
552.648	35.93
552.991	36.15
553.333	36.37
553.675	36.59
554.017	36.7
554.36	36.93
554.702	37.13
555.044	37.36
555.386	37.51
555.728	37.73
556.07	37.9
556.412	38.13
556.754	38.31
557.096	38.49
557.438	38.69
557.78	38.91
558.121	39.03
558.463	39.14
558.805	39.38
559.147	39.62
559.488	39.8
559.83	40.03
560.171	40.21
560.513	40.42
560.854	40.61
561.196	40.89
561.537	41.04
561.878	41.27
562.22	41.39
562.561	41.61
562.902	41.78
563.243	41.95
563.584	42.14
563.925	42.31
564.266	42.46
564.607	42.59
564.948	42.72
565.289	42.9
565.63	43.07
565.971	43.18
566.312	43.3
566.653	43.39
566.993	43.5
567.334	43.58
567.675	43.68
568.015	43.76
568.356	43.78
568.696	43.94
569.037	44.08
569.377	44.18
569.718	44.26
570.058	44.39
570.398	44.51
570.739	44.57
571.079	44.67
571.419	44.76
571.759	44.91
572.099	45.03
572.439	45.13
572.779	45.24
573.119	45.35
573.459	45.41
573.799	45.58
574.139	45.69
574.479	45.87
574.819	45.99
575.158	46.08
575.498	46.22
575.838	46.28
576.177	46.38
576.517	46.53
576.856	46.64
577.196	46.7
577.535	46.78
577.875	46.92
578.214	47.05
578.553	47.18
578.893	47.21
579.232	47.37
579.571	47.52
579.91	47.58
580.25	47.69
580.589	47.81
580.928	47.81
581.267	47.88
581.606	47.93
581.945	48.03
582.283	48.12
582.622	48.25
582.961	48.31
583.3	48.31
583.639	48.41
583.977	48.52
584.316	48.65
584.654	48.72
584.993	48.74
585.332	48.8
585.67	48.83
586.008	48.94
586.347	49.02
586.685	48.99
587.024	49.13
587.362	49.16
587.7	49.27
588.038	49.48
588.376	49.44
588.715	49.54
589.053	49.63
589.391	49.71
589.729	49.74
590.067	49.89
590.404	49.96
590.742	49.96
591.08	49.98
591.418	50.05
591.756	50.13
592.093	50.24
592.431	50.33
592.769	50.39
593.106	50.52
593.444	50.5
593.781	50.61
594.119	50.54
594.456	50.55
594.793	50.54
595.131	50.55
595.468	50.68
595.805	50.67
596.143	50.68
596.48	50.73
596.817	50.72
597.154	50.65
597.491	50.68
597.828	50.75
598.165	50.86
598.502	50.89
598.839	51
599.176	51.01
599.512	51.01
599.849	51.13
600.186	51.14
600.523	51.24
600.859	51.29
601.196	51.43
601.532	51.48
601.869	51.52
602.205	51.53
602.542	51.59
602.878	51.69
603.215	51.74
603.551	51.81
603.887	51.89
604.223	51.95
604.56	52.04
604.896	52.02
605.232	51.97
605.568	51.98
605.904	51.98
606.24	52.09
606.576	52.11
606.912	52.05
607.248	52.14
607.583	52.16
607.919	52.2
608.255	52.23
608.591	52.3
608.926	52.35
609.262	52.4
609.597	52.43
609.933	52.4
610.268	52.37
610.604	52.37
610.939	52.41
611.275	52.49
611.61	52.47
611.945	52.55
612.281	52.68
612.616	52.75
612.951	52.85
613.286	52.82
613.621	52.85
613.956	52.92
614.291	52.81
614.626	52.9
614.961	53
615.296	52.98
615.631	53
615.966	53.04
616.3	53.06
616.635	53.03
616.97	53.1
617.304	53.15
617.639	53.14
617.973	53.11
618.308	53.12
618.642	53.16
618.977	53.17
619.311	53.12
619.646	53.11
619.98	53.1
620.314	53.21
620.648	53.26
620.983	53.35
621.317	53.45
621.651	53.49
621.985	53.44
622.319	53.54
622.653	53.54
622.987	53.63
623.321	53.59
623.655	53.58
623.988	53.61
624.322	53.6
624.656	53.69
624.99	53.81
625.323	53.81
625.657	53.8
625.99	53.96
626.324	53.94
626.657	53.91
626.991	53.87
627.324	53.79
627.658	53.81
627.991	53.88
628.324	53.88
628.657	53.78
628.991	53.86
629.324	53.78
629.657	53.83
629.99	53.71
630.323	53.84
630.656	54.02
630.989	53.97
631.322	54.11
631.655	54.08
631.987	54.16
632.32	54.19
632.653	54.25
632.986	54.1
633.318	54.15
633.651	54.22
633.984	54.26
634.316	54.33
634.649	54.28
634.981	54.22
635.313	54.28
635.646	54.31
635.978	54.26
636.31	54.37
636.643	54.4
636.975	54.51
637.307	54.45
637.639	54.34
637.971	54.32
638.303	54.29
638.635	54.29
638.967	54.25
639.299	54.21
639.631	54.24
639.963	54.32
640.295	54.31
640.626	54.4
640.958	54.38
641.29	54.48
641.621	54.62
641.953	54.61
642.285	54.55
642.616	54.68
642.948	54.69
643.279	54.57
643.61	54.57
643.942	54.56
644.273	54.58
644.604	54.67
644.936	54.77
645.267	54.83
645.598	54.8
645.929	54.61
646.26	54.7
646.591	54.71
646.922	54.7
647.253	54.71
647.584	54.66
647.915	54.81
648.245	54.7
648.576	54.65
648.907	54.55
649.238	54.59
649.568	54.52
649.899	54.65
650.229	54.8
650.56	54.76
650.89	54.7
651.221	54.64
651.551	54.55
651.882	54.66
652.212	54.69
652.542	54.87
652.872	55.01
653.203	55.05
653.533	55.1
653.863	55.16
654.193	55.23
654.523	55.35
654.853	55.3
655.183	55.45
655.513	55.58
655.843	55.74
656.172	55.82
656.502	55.8
656.832	55.69
657.162	55.79
657.491	55.94
657.821	56.06
658.15	56.25
658.48	56.32
658.809	56.2
659.139	56.06
659.468	56.12
659.798	56.22
660.127	56.24
660.456	56.21
660.785	56.25
661.115	56.36
661.444	56.4
661.773	56.31
662.102	56.15
662.431	56.09
662.76	56.07
663.089	56.07
663.418	56.08
663.747	56.23
664.076	56.14
664.404	56.1
664.733	56.18
665.062	56.03
665.39	55.89
665.719	55.94
666.048	56.01
666.376	55.91
666.705	55.82
667.033	55.89
667.362	55.94
667.69	55.96
668.018	55.83
668.347	55.61
668.675	55.74
669.003	55.73
669.331	55.8
669.659	55.79
669.987	55.77
670.315	55.86
670.643	55.79
670.971	55.88
671.299	55.77
671.627	55.66
671.955	55.82
672.283	56.14
672.61	56.22
672.938	56.32
673.266	56.4
673.593	56.45
673.921	56.45
674.249	56.42
674.576	56.41
674.904	56.35
675.231	56.44
675.558	56.57
675.886	56.77
676.213	56.71
676.54	56.78
676.867	56.8
677.195	56.74
677.522	56.84
677.849	56.78
678.176	56.9
678.503	56.96
678.83	57
679.157	56.96
679.484	57.03
679.81	57.07
680.137	57.12
680.464	57.24
680.791	57.31
681.117	57.48
681.444	57.63
681.771	57.74
682.097	57.87
682.424	57.81
682.75	57.79
683.077	57.89
683.403	57.88
683.729	57.91
684.056	57.96
684.382	57.85
684.708	57.98
685.034	57.91
685.36	57.95
685.686	57.78
686.012	57.5
686.339	57.52
686.664	57.56
686.99	57.53
687.316	57.61
687.642	57.62
687.968	57.61
688.294	57.38
688.619	57.46
688.945	57.5
689.271	57.44
689.596	57.42
689.922	57.39
690.247	57.28
690.573	57.29
690.898	57.29
691.224	57.4
691.549	57.15
691.874	57.3
692.2	57.25
692.525	57.44
692.85	57.64
693.175	57.55
693.5	57.32
693.825	57.29
694.15	57.02
694.475	57.04
694.8	56.98
695.125	57.04
695.45	57.04
695.775	56.96
696.099	57.09
696.424	57.24
696.749	57.21
697.073	57.4
697.398	57.58
697.723	57.7
698.047	57.63
698.372	57.75
698.696	57.78
699.02	57.77
699.345	57.69
699.669	57.6
699.993	57.49
700.318	57.64
700.642	57.77
700.966	57.77
701.29	57.7
701.614	57.64
701.938	57.72
702.262	57.61
702.586	57.66
702.91	57.61
703.234	57.34
703.557	57.49
703.881	57.44
704.205	57.32
704.529	57.24
704.852	57.19
705.176	57.22
705.499	57.13
705.823	57.06
706.146	57.1
706.47	57.19
706.793	57.43
707.117	57.33
707.44	57.05
707.763	57.27
708.086	57.21
708.409	57.2
708.733	57.21
709.056	57.38
709.379	57.33
709.702	57.52
710.025	57.71
710.348	57.58
710.671	57.56
710.993	57.39
711.316	57.28
711.639	57.19
711.962	57.28
712.284	57.44
712.607	57.5
712.93	57.35
713.252	57.54
713.575	57.43
713.897	57.51
714.22	57.76
714.542	57.49
714.864	57.52
715.187	57.73
715.509	57.53
715.831	57.39
716.153	57.46
716.475	57.34
716.798	57.42
717.12	57.36
717.442	57.34
717.764	57.5
718.085	57.7
718.407	57.77
718.729	57.55
719.051	57.43
719.373	57.67
719.695	57.94
720.016	57.93
720.338	58.02
720.659	57.94
720.981	57.81
721.302	57.99
721.624	58
721.945	57.73
722.267	58.07
722.588	58.03
722.909	58.26
723.231	58.36
723.552	58.24
723.873	58.45
724.194	58.75
724.515	58.9
724.836	58.67
725.157	58.79
725.478	59.14
725.799	59.09
726.12	58.57
726.441	58.6
726.762	58.36
727.083	58.4
727.403	58.6
727.724	58.46
728.045	58.64
728.365	58.63
728.686	58.61
729.006	58.66
729.327	58.58
729.647	58.26
729.967	58.16
730.288	58.28
730.608	58.4
730.928	58.14
731.249	58.1
731.569	58.38
731.889	58.52
732.209	58.54
732.529	58.68
732.849	58.9
733.169	59.15
733.489	59.35
733.809	59.16
734.129	59.23
734.448	59.41
734.768	59.26
735.088	59.44
735.408	59.72
735.727	59.48
736.047	60.03
736.366	60.26
736.686	60.21
737.005	60.3
737.325	60.13
737.644	60.2
737.963	60.32
738.283	59.97
738.602	60.09
738.921	60.09
739.24	60.04
739.56	60.24
739.879	60.11
740.198	60.08
740.517	60.22
740.836	60.15
741.155	60.28
741.473	60.43
741.792	60.23
742.111	60.17
742.43	60.55
742.748	60.58
743.067	60.51
743.386	60.42
743.704	60.33
744.023	60.36
744.341	60.58
744.66	60.47
744.978	60.8
745.297	60.73
745.615	60.38
745.933	60.53
746.252	60.31
746.57	60.24
746.888	60.15
747.206	60.19
747.524	60.31
747.842	60.25
748.16	60.61
748.478	60.87
748.796	61.18
749.114	61.1
749.432	60.87
749.749	60.76
750.067	60.85
750.385	60.88
750.703	60.68
751.02	60.83
751.338	60.6
751.655	60.29
751.973	60.28
752.29	60.47
752.608	60.3
752.925	60.45
753.242	60.71
753.56	60.66
753.877	61
754.194	60.92
754.511	60.89
754.828	60.68
755.145	60.58
755.462	59.92
755.779	59.71
756.096	59.58
756.413	59.67
756.73	59.76
757.047	59.47
757.364	59.82
757.68	59.38
757.997	59.61
758.314	59.82
758.63	59.68
758.947	60.1
759.264	60.39
759.58	60.54
759.896	60.03
760.213	60.39
760.529	60.06
760.846	59.8
761.162	59.55
761.478	59.34
761.794	59.18
762.11	59.4
762.426	59.37
762.743	59.48
763.059	59.49
763.375	59.05
763.69	59.45
764.006	59.27
764.322	59.62
764.638	59.68
764.954	59.52
765.27	59.74
765.585	59.41
765.901	59.19
766.216	59.32
766.532	59.53
766.848	59.71
767.163	60.01
767.478	60.17
767.794	60.57
768.109	60.68
768.424	61.01
768.74	61.17
769.055	61.38
769.37	61.17
769.685	61.03
770	61.66
770.315	61.59
770.63	61.53
770.945	61.63
771.26	61.61
771.575	62.33
771.89	62.12
772.205	62.29
772.52	62.23
772.834	61.59
773.149	61.44
773.464	61.42
773.778	61.34
774.093	61.11
774.407	61.37
774.722	61.49
775.036	61.43
775.351	61.35
775.665	61.08
775.979	61.65
776.293	61.48
776.608	62.2
776.922	62.03
777.236	62.18
777.55	61.71
777.864	61.58
778.178	61.12
778.492	61.42
778.806	61.59
779.12	61.44
779.434	61.66
779.747	62.18
780.061	62.28
780.375	62.53
780.689	63.43
781.002	62.94
781.316	63.12
781.629	63
781.943	63.47
782.256	63.56
782.57	63.58
782.883	63.93
783.196	63.31
783.51	63.45
783.823	63.94
784.136	64.16
784.449	64.01
784.762	64.31
785.075	63.81
785.388	64.16
785.701	64.39
786.014	64.98
786.327	64.26
786.64	63.48
786.953	63.57
787.266	62.75
787.578	62.48
787.891	62.04
788.204	62.12
788.516	61.96
788.829	62.14
789.141	62
789.454	61.95
789.766	61.74
790.079	61.67
790.391	61.58
790.703	61.26
791.016	61.73
791.328	61.8
791.64	61.86
791.952	61.22
792.264	61.78
792.576	61.46
792.888	61.73
793.2	62.54
793.512	62.72
793.824	63.02
794.136	63.39
794.448	63.21
794.76	63.34
795.071	63.35
795.383	63.49
795.695	63.89
796.006	63.91
796.318	64.66
796.629	64.72
796.941	64.43
797.252	64.78
797.564	64.97
797.875	64.03
798.186	64.12
798.497	63.86
798.809	63.56
799.12	63.78
799.431	64.06
799.742	62.93
800.053	62.98
800.364	62.97
800.675	62.58
800.986	63.18
801.297	63.06
801.608	62.7
801.918	62.08
802.229	62.38
802.54	63.23
802.851	62.83
803.161	62.09
803.472	62.06
803.782	62.02
804.093	61.18
804.403	61.75
804.714	62.56
805.024	62.78
805.334	62.71
805.645	62.08
805.955	62.18
806.265	63.79
806.575	62.42
806.885	62.09
807.195	62.18
807.505	61.76
807.815	62.1
808.125	62.15
808.435	62.81
808.745	62.44
809.055	62.45
809.365	62.49
809.674	63.42
809.984	63.9
810.294	63.78
810.603	64.4
810.913	64.44
811.222	63.5
811.532	63.74
811.841	63.31
812.151	63.59
812.46	62.9
812.769	61.35
813.079	61.68
813.388	62.65
813.697	63.13
814.006	62.74
814.315	62.69
814.624	62.78
814.933	62.58
815.242	61.73
815.551	62.15
815.86	62.08
816.169	62.1
816.478	62.54
816.786	62.5
817.095	62.47
817.404	62.56
817.712	63.08
818.021	63.2
818.33	64.09
818.638	64.34
818.947	64.59
819.255	64.33
819.563	64.17
819.872	63.46
820.18	63.5
820.488	63.85
820.796	63.71
821.105	63.6
821.413	63.34
821.721	63.28
822.029	62.82
822.337	62.7
822.645	62.87
822.953	62.69
823.26	62.59
823.568	62.53
823.876	62.42
824.184	62.2
824.491	62.09
824.799	61.92
825.107	61.89
825.414	61.77
825.722	61.85
826.029	61.99
826.337	61.96
826.644	61.88
826.951	61.85
827.259	61.81
827.566	61.92
827.873	62.27
828.18	62.3
828.488	62.52
828.795	62.42
829.102	62.12
829.409	61.76
829.716	61.74
830.023	61.92
830.329	62.36
830.636	62.73
830.943	62.87
831.25	62.41
831.557	62.84
831.863	62.78
832.17	63.18
832.476	63.34
832.783	63.59
833.089	62.86
833.396	62.63
833.702	62.83
834.009	62.46
834.315	62.31
834.621	62.6
834.928	62.63
835.234	62.64
835.54	62.83
835.846	63.41
836.152	63.57
836.458	63.68
836.764	63.38
837.07	63.45
837.376	63.46
837.682	64.45
837.988	64.32
838.293	64.85
838.599	64.92
838.905	64.31
839.211	64.35
839.516	65.82
839.822	66.49
840.127	66.21
840.433	66.87
840.738	66.35
841.044	66.54
841.349	65.82
841.654	66.72
841.959	67.15
842.265	67.43
842.57	68.63
842.875	67.93
843.18	66.81
843.485	66.49
843.79	67.28
844.095	68.07
844.4	66.61
844.705	67.12
845.01	68.08
845.315	66.95
845.619	68.36
845.924	69.28
846.229	68.6
846.533	69.94
846.838	69.88
847.142	71.16
847.447	70.55
847.751	70.38
848.056	70.86
848.36	69.65
848.664	69.68
848.969	68.97
849.273	68.71
849.577	71.05
849.881	72.6
850.185	72.27
850.489	72.03
850.794	73.44
851.097	72.83
851.401	72.12
851.705	75.16
852.009	73.88
852.313	71.12
852.617	70.83
852.92	68.65
853.224	69.09
853.528	70.01
853.831	71.07
854.135	75.47
854.438	75.52
854.742	75.69
855.045	78.67
855.349	77.3
855.652	77.5
855.955	78.53
856.259	81.42
856.562	83.07
856.865	86.04
857.168	84.3
857.471	85.66
857.774	83.79
858.077	86.14
858.38	83.91
858.683	86.8
858.986	88.67
859.289	91.13
859.592	91.14
859.894	91.95
860.197	93.82
860.5	91.19
860.802	91.45
861.105	94.21
861.407	89.77
861.71	91.63
862.012	91.56
862.315	90.84
862.617	86.7
862.919	85.87
863.222	82.84
863.524	87.86
863.826	82.67
864.128	80.75
864.43	77.51
864.732	79.94
865.034	79.24
865.336	79.52
865.638	79.79
865.94	77.01
866.242	75.55
866.544	73.07
866.846	77.86
867.147	78.76
867.449	76.62
867.751	77.91
868.052	78.27
868.354	79.3
868.655	80.73
868.957	81.18
869.258	81.88
869.56	81.42
869.861	75.33
870.162	78.02
870.463	79.62
870.765	81
871.066	80.23
871.367	79.23
871.668	75.89
871.969	75.49
872.27	72.94
872.571	69.76
872.872	70.28
873.173	65.74
873.473	63.73
873.774	67.29
874.075	69.49
874.376	66.43
874.676	67.4
874.977	67.93
875.277	69.21
875.578	69.61
875.878	68.84
876.179	71.92
876.479	73.06
876.78	72.45
877.08	72.34
877.38	72.12
877.68	71.92
877.981	76.33
878.281	75.64
878.581	83.9
