Data from MVZ_BU57658_Reflection_00007.txt Node
Date: Tue Nov 19 12:13:30 EST 2019
User: vgr7
Spectrometer: USB2G7710
Scans to average: 3
Trigger mode: 4
Integration Time (sec): 2.000000E-2
Electric dark correction enabled: true
Boxcar width: 10
XAxis mode: Wavelengths
Number of Pixels in Spectrum: 2048
>>>>>Begin Spectral Data<<<<<
177.721	876.84
178.105	328.07
178.488	319.65
178.871	301.67
179.254	493.33
179.636	1443.14
180.019	-304.76
180.402	131.25
180.785	-26.02
181.168	63.66
181.55	71.65
181.933	155.56
182.316	89.54
182.698	53.55
183.081	16.5
183.463	24.48
183.846	37.46
184.228	40.34
184.611	41.33
184.993	38.52
185.376	-3.6
185.758	13.55
186.14	12.4
186.522	-53.12
186.904	-573.33
187.287	-104.47
187.669	-90.67
188.051	17.17
188.433	212.61
188.815	-51.34
189.197	43.22
189.579	33
189.961	87.87
190.342	49.97
190.724	23.58
191.106	2.41
191.488	10.01
191.869	4.66
192.251	13
192.633	8.76
193.014	5.53
193.396	2.41
193.777	5.87
194.159	-1.91
194.54	-2.95
194.922	-5.09
195.303	-21.25
195.684	-23.91
196.065	-23.82
196.447	-17.62
196.828	-70.2
197.209	-52.64
197.59	-67.93
197.971	-61.14
198.352	1229.63
198.733	-329.08
199.114	229.11
199.495	-824.24
199.876	-119.3
200.257	-7066.67
200.638	346.03
201.018	104.5
201.399	0.75
201.78	-66.67
202.16	-173.33
202.541	50.98
202.922	-451.28
203.302	-1.34
203.683	8.89
204.063	13.33
204.444	6.58
204.824	24.92
205.204	17.41
205.585	36.42
205.965	2.56
206.345	7.19
206.725	24.18
207.106	45.61
207.486	42.32
207.866	36.41
208.246	32.07
208.626	14.44
209.006	13.06
209.386	28.09
209.766	-12.35
210.145	-41.87
210.525	17.78
210.905	49.17
211.285	18.22
211.664	133.33
212.044	231.84
212.424	-1447.62
212.803	-77.6
213.183	-9.52
213.562	69.14
213.942	106
214.321	134.53
214.701	43.89
215.08	3.74
215.459	-12.52
215.838	-35.16
216.218	-16.87
216.597	29.07
216.976	34.34
217.355	13.64
217.734	19.38
218.113	44.79
218.492	48.06
218.871	42.61
219.25	39.05
219.629	9.84
220.008	-2.95
220.387	12.12
220.766	17.96
221.144	22.01
221.523	4.25
221.902	11.27
222.28	7.32
222.659	24.31
223.037	30.72
223.416	33.95
223.794	32.47
224.173	26.18
224.551	20.08
224.929	12.87
225.308	11.39
225.686	10.33
226.064	-0.51
226.442	-10.34
226.821	-10.3
227.199	-11.2
227.577	-6.88
227.955	-0.78
228.333	-7.42
228.711	-4.16
229.089	-4.06
229.467	-2.83
229.845	-2.54
230.222	0.11
230.6	-3.89
230.978	-2.87
231.356	-3.82
231.733	-1.71
232.111	0.37
232.488	2
232.866	2.1
233.243	3.93
233.621	5.44
233.998	6.53
234.376	8.77
234.753	10.04
235.13	11.52
235.508	10.3
235.885	7.58
236.262	9.68
236.639	8.72
237.016	7.38
237.393	8.2
237.77	7.52
238.147	6.84
238.524	6.46
238.901	5.02
239.278	4.46
239.655	4.22
240.032	4.06
240.409	3.61
240.785	4
241.162	3.86
241.539	3.09
241.915	2.49
242.292	2.72
242.668	2.79
243.045	3.57
243.421	4.26
243.798	4.81
244.174	4.7
244.551	4.47
244.927	4.83
245.303	4.62
245.679	4.51
246.056	4.42
246.432	4.45
246.808	4.57
247.184	4.7
247.56	4.67
247.936	4.85
248.312	4.82
248.688	4.56
249.064	4.33
249.44	4.56
249.815	4.91
250.191	4.49
250.567	4.32
250.943	4.16
251.318	4.06
251.694	3.92
252.069	4
252.445	3.96
252.82	4.03
253.196	3.94
253.571	3.94
253.947	3.97
254.322	3.97
254.697	3.54
255.073	3.34
255.448	3.49
255.823	3.67
256.198	3.62
256.573	3.78
256.948	4.01
257.323	3.85
257.698	3.63
258.073	3.73
258.448	3.83
258.823	3.45
259.198	3.38
259.573	3.2
259.948	3.22
260.322	3.05
260.697	2.95
261.072	3.03
261.446	3.12
261.821	2.88
262.195	2.85
262.57	3.17
262.944	3.31
263.319	3.02
263.693	2.84
264.067	2.77
264.442	2.76
264.816	2.53
265.19	2.33
265.564	2.23
265.938	2.18
266.313	1.82
266.687	2.03
267.061	1.96
267.435	2.14
267.809	1.94
268.183	2.27
268.556	2.46
268.93	2.67
269.304	2.51
269.678	2.66
270.051	2.67
270.425	2.54
270.799	2.39
271.172	2.72
271.546	2.77
271.919	2.85
272.293	3.04
272.666	3.2
273.04	3.25
273.413	3.43
273.787	3.41
274.16	3.59
274.533	3.68
274.906	3.73
275.279	3.69
275.653	3.79
276.026	3.77
276.399	3.62
276.772	3.45
277.145	3.53
277.518	3.37
277.891	3.48
278.263	3.51
278.636	3.73
279.009	3.65
279.382	3.64
279.755	3.69
280.127	3.51
280.5	3.46
280.872	3.57
281.245	3.51
281.617	3.59
281.99	3.5
282.362	3.29
282.735	3.26
283.107	3.22
283.479	3.32
283.852	3.3
284.224	3.26
284.596	3.34
284.968	3.18
285.34	3.37
285.713	3.46
286.085	3.28
286.457	3.28
286.829	3.27
287.201	3.23
287.572	3.28
287.944	3.25
288.316	3.32
288.688	3.43
289.06	3.39
289.431	3.65
289.803	3.65
290.175	3.76
290.546	3.9
290.918	4.02
291.289	3.83
291.661	3.88
292.032	3.95
292.403	3.96
292.775	4.14
293.146	4.16
293.517	4.01
293.889	4.16
294.26	4.09
294.631	4.04
295.002	4.23
295.373	4.25
295.744	4.3
296.115	4.22
296.486	4.17
296.857	4.17
297.228	3.91
297.599	3.79
297.97	3.82
298.34	3.71
298.711	3.71
299.082	3.9
299.452	3.95
299.823	3.94
300.194	4.02
300.564	3.9
300.935	3.96
301.305	4.01
301.676	3.97
302.046	3.93
302.416	3.95
302.787	3.82
303.157	3.8
303.527	3.94
303.897	3.93
304.267	4.02
304.637	3.98
305.008	3.99
305.378	4.35
305.748	4.39
306.117	4.64
306.487	4.75
306.857	4.66
307.227	4.79
307.597	4.8
307.967	4.73
308.336	4.86
308.706	4.79
309.076	4.99
309.445	5.22
309.815	5.23
310.184	5.35
310.554	5.41
310.923	5.35
311.293	5.32
311.662	5.47
312.031	5.42
312.401	5.5
312.77	5.63
313.139	5.68
313.508	5.76
313.877	5.84
314.246	5.77
314.616	5.92
314.985	5.77
315.353	5.89
315.722	5.98
316.091	6.2
316.46	6.55
316.829	6.53
317.198	6.45
317.567	6.82
317.935	6.99
318.304	7.06
318.672	7.36
319.041	7.45
319.41	7.39
319.778	7.42
320.147	7.63
320.515	7.67
320.883	7.48
321.252	7.39
321.62	7.45
321.988	7.53
322.357	7.57
322.725	7.83
323.093	7.79
323.461	7.74
323.829	7.63
324.197	7.47
324.565	7.47
324.933	7.61
325.301	7.36
325.669	7.32
326.037	7.32
326.405	7.22
326.772	7.25
327.14	7.33
327.508	7.58
327.875	7.48
328.243	7.57
328.61	7.72
328.978	7.72
329.346	7.43
329.713	7.35
330.08	7.46
330.448	7.38
330.815	7.47
331.182	7.39
331.55	7.29
331.917	7.23
332.284	7.28
332.651	7.26
333.018	7.41
333.385	7.29
333.752	7.3
334.119	7.48
334.486	7.44
334.853	7.45
335.22	7.19
335.587	7.19
335.954	7.08
336.32	7.21
336.687	7.39
337.054	7.52
337.42	7.73
337.787	7.72
338.153	7.78
338.52	7.86
338.886	8.01
339.253	8.04
339.619	8.2
339.986	8.1
340.352	8.16
340.718	8.21
341.084	8.4
341.451	8.41
341.817	8.45
342.183	8.4
342.549	8.45
342.915	8.56
343.281	8.72
343.647	8.77
344.013	8.72
344.379	8.54
344.745	8.51
345.11	8.46
345.476	8.45
345.842	8.47
346.208	8.44
346.573	8.47
346.939	8.53
347.304	8.49
347.67	8.56
348.035	8.46
348.401	8.5
348.766	8.48
349.132	8.51
349.497	8.49
349.862	8.58
350.228	8.6
350.593	8.52
350.958	8.46
351.323	8.46
351.688	8.38
352.053	8.49
352.418	8.52
352.783	8.53
353.148	8.48
353.513	8.37
353.878	8.32
354.243	8.26
354.608	8.31
354.972	8.35
355.337	8.4
355.702	8.46
356.066	8.44
356.431	8.45
356.795	8.38
357.16	8.33
357.524	8.3
357.889	8.19
358.253	8.16
358.618	8.12
358.982	8.13
359.346	8.17
359.71	8.14
360.075	8.2
360.439	8.23
360.803	8.25
361.167	8.25
361.531	8.2
361.895	8.26
362.259	8.31
362.623	8.32
362.987	8.23
363.351	8.21
363.714	8.13
364.078	8.07
364.442	8.02
364.806	7.95
365.169	7.92
365.533	7.95
365.896	7.97
366.26	7.98
366.623	7.92
366.987	7.88
367.35	7.79
367.714	7.74
368.077	7.64
368.44	7.6
368.803	7.57
369.167	7.55
369.53	7.39
369.893	7.25
370.256	7.16
370.619	7.16
370.982	7.07
371.345	7.07
371.708	7.03
372.071	7.02
372.434	6.96
372.797	6.93
373.159	6.84
373.522	6.8
373.885	6.74
374.247	6.65
374.61	6.63
374.973	6.6
375.335	6.58
375.698	6.47
376.06	6.39
376.423	6.37
376.785	6.35
377.147	6.41
377.51	6.37
377.872	6.3
378.234	6.27
378.596	6.28
378.958	6.19
379.321	6.12
379.683	6.06
380.045	6.05
380.407	6.02
380.769	5.97
381.13	5.91
381.492	5.87
381.854	5.86
382.216	5.87
382.578	5.9
382.939	5.79
383.301	5.75
383.663	5.72
384.024	5.67
384.386	5.58
384.747	5.5
385.109	5.46
385.47	5.46
385.832	5.42
386.193	5.37
386.554	5.3
386.916	5.28
387.277	5.31
387.638	5.29
387.999	5.26
388.36	5.24
388.721	5.3
389.082	5.27
389.443	5.25
389.804	5.21
390.165	5.18
390.526	5.18
390.887	5.16
391.248	5.18
391.609	5.14
391.969	5.13
392.33	5.13
392.691	5.09
393.051	5.04
393.412	5.02
393.772	5.02
394.133	5.01
394.493	5
394.854	4.95
395.214	4.95
395.574	4.9
395.935	4.88
396.295	4.82
396.655	4.79
397.015	4.77
397.376	4.71
397.736	4.67
398.096	4.65
398.456	4.61
398.816	4.54
399.176	4.51
399.535	4.54
399.895	4.52
400.255	4.52
400.615	4.47
400.975	4.42
401.334	4.34
401.694	4.36
402.054	4.35
402.413	4.28
402.773	4.2
403.132	4.16
403.492	4.15
403.851	4.11
404.211	4.09
404.57	4.08
404.929	4.06
405.288	4.02
405.648	3.98
406.007	3.97
406.366	3.95
406.725	3.93
407.084	3.91
407.443	3.87
407.802	3.85
408.161	3.82
408.52	3.84
408.879	3.89
409.238	3.88
409.596	3.85
409.955	3.87
410.314	3.88
410.673	3.89
411.031	3.87
411.39	3.86
411.748	3.87
412.107	3.87
412.465	3.85
412.824	3.83
413.182	3.86
413.54	3.9
413.899	3.87
414.257	3.89
414.615	3.84
414.974	3.84
415.332	3.85
415.69	3.86
416.048	3.84
416.406	3.78
416.764	3.76
417.122	3.73
417.48	3.71
417.838	3.72
418.195	3.72
418.553	3.72
418.911	3.73
419.269	3.7
419.626	3.69
419.984	3.69
420.342	3.7
420.699	3.68
421.057	3.67
421.414	3.67
421.772	3.65
422.129	3.65
422.486	3.65
422.844	3.63
423.201	3.62
423.558	3.61
423.915	3.61
424.273	3.59
424.63	3.59
424.987	3.6
425.344	3.59
425.701	3.57
426.058	3.57
426.415	3.56
426.772	3.55
427.128	3.54
427.485	3.53
427.842	3.52
428.199	3.49
428.555	3.48
428.912	3.44
429.269	3.43
429.625	3.43
429.982	3.41
430.338	3.4
430.695	3.39
431.051	3.37
431.407	3.37
431.764	3.38
432.12	3.39
432.476	3.41
432.832	3.39
433.189	3.41
433.545	3.39
433.901	3.39
434.257	3.39
434.613	3.38
434.969	3.39
435.325	3.38
435.681	3.38
436.036	3.37
436.392	3.38
436.748	3.39
437.104	3.39
437.459	3.37
437.815	3.4
438.171	3.42
438.526	3.44
438.882	3.46
439.237	3.45
439.593	3.45
439.948	3.42
440.304	3.42
440.659	3.41
441.014	3.41
441.369	3.42
441.725	3.43
442.08	3.44
442.435	3.45
442.79	3.43
443.145	3.45
443.5	3.45
443.855	3.44
444.21	3.45
444.565	3.46
444.92	3.48
445.275	3.46
445.629	3.46
445.984	3.45
446.339	3.45
446.693	3.43
447.048	3.42
447.403	3.43
447.757	3.42
448.112	3.41
448.466	3.4
448.82	3.4
449.175	3.37
449.529	3.36
449.883	3.33
450.238	3.35
450.592	3.34
450.946	3.33
451.3	3.34
451.654	3.32
452.008	3.31
452.362	3.28
452.716	3.3
453.07	3.28
453.424	3.29
453.778	3.25
454.132	3.26
454.486	3.25
454.839	3.26
455.193	3.27
455.547	3.24
455.9	3.25
456.254	3.26
456.607	3.28
456.961	3.29
457.314	3.31
457.668	3.32
458.021	3.32
458.375	3.32
458.728	3.33
459.081	3.33
459.434	3.33
459.787	3.33
460.141	3.33
460.494	3.33
460.847	3.31
461.2	3.34
461.553	3.35
461.906	3.36
462.259	3.35
462.611	3.36
462.964	3.39
463.317	3.38
463.67	3.39
464.022	3.39
464.375	3.39
464.728	3.39
465.08	3.39
465.433	3.4
465.785	3.41
466.138	3.44
466.49	3.46
466.843	3.49
467.195	3.5
467.547	3.48
467.899	3.47
468.252	3.51
468.604	3.51
468.956	3.51
469.308	3.52
469.66	3.54
470.012	3.57
470.364	3.56
470.716	3.59
471.068	3.58
471.42	3.59
471.772	3.59
472.123	3.61
472.475	3.64
472.827	3.65
473.178	3.67
473.53	3.67
473.882	3.67
474.233	3.64
474.585	3.67
474.936	3.7
475.288	3.72
475.639	3.71
475.99	3.7
476.342	3.71
476.693	3.73
477.044	3.74
477.395	3.71
477.746	3.72
478.097	3.71
478.448	3.7
478.8	3.68
479.15	3.66
479.501	3.64
479.852	3.62
480.203	3.61
480.554	3.6
480.905	3.59
481.255	3.58
481.606	3.58
481.957	3.58
482.307	3.57
482.658	3.57
483.009	3.56
483.359	3.56
483.709	3.56
484.06	3.55
484.41	3.54
484.761	3.55
485.111	3.55
485.461	3.55
485.811	3.55
486.162	3.55
486.512	3.56
486.862	3.56
487.212	3.56
487.562	3.57
487.912	3.57
488.262	3.57
488.612	3.57
488.961	3.56
489.311	3.55
489.661	3.56
490.011	3.57
490.36	3.56
490.71	3.56
491.06	3.56
491.409	3.56
491.759	3.58
492.108	3.58
492.458	3.59
492.807	3.58
493.157	3.59
493.506	3.62
493.855	3.63
494.204	3.64
494.554	3.65
494.903	3.65
495.252	3.67
495.601	3.7
495.95	3.73
496.299	3.77
496.648	3.81
496.997	3.83
497.346	3.88
497.695	3.94
498.043	3.99
498.392	4.04
498.741	4.1
499.09	4.13
499.438	4.18
499.787	4.23
500.135	4.29
500.484	4.33
500.832	4.37
501.181	4.43
501.529	4.5
501.878	4.59
502.226	4.68
502.574	4.74
502.923	4.82
503.271	4.9
503.619	5
503.967	5.07
504.315	5.17
504.663	5.25
505.011	5.31
505.359	5.41
505.707	5.52
506.055	5.65
506.403	5.78
506.751	5.89
507.098	6.04
507.446	6.15
507.794	6.28
508.141	6.45
508.489	6.59
508.837	6.72
509.184	6.86
509.531	7
509.879	7.15
510.226	7.29
510.574	7.47
510.921	7.62
511.268	7.79
511.616	7.96
511.963	8.13
512.31	8.34
512.657	8.55
513.004	8.75
513.351	8.97
513.698	9.17
514.045	9.43
514.392	9.65
514.739	9.9
515.086	10.15
515.432	10.37
515.779	10.59
516.126	10.83
516.473	11.07
516.819	11.31
517.166	11.52
517.512	11.71
517.859	11.9
518.205	12.09
518.552	12.31
518.898	12.49
519.245	12.68
519.591	12.92
519.937	13.09
520.283	13.29
520.629	13.45
520.976	13.7
521.322	13.93
521.668	14.16
522.014	14.4
522.36	14.65
522.706	14.94
523.052	15.21
523.398	15.48
523.743	15.79
524.089	16.07
524.435	16.35
524.781	16.64
525.126	16.87
525.472	17.11
525.817	17.31
526.163	17.52
526.509	17.72
526.854	17.87
527.199	18.03
527.545	18.19
527.89	18.36
528.235	18.52
528.581	18.68
528.926	18.84
529.271	19.01
529.616	19.18
529.961	19.34
530.306	19.53
530.651	19.73
530.996	19.9
531.341	20.11
531.686	20.32
532.031	20.54
532.376	20.75
532.721	20.98
533.065	21.2
533.41	21.43
533.755	21.67
534.099	21.94
534.444	22.21
534.788	22.45
535.133	22.71
535.477	22.97
535.822	23.23
536.166	23.52
536.51	23.82
536.855	24.12
537.199	24.45
537.543	24.78
537.887	25.1
538.231	25.43
538.576	25.75
538.92	26.06
539.264	26.36
539.608	26.64
539.951	26.91
540.295	27.19
540.639	27.5
540.983	27.74
541.327	27.93
541.671	28.18
542.014	28.43
542.358	28.7
542.701	28.91
543.045	29.16
543.389	29.41
543.732	29.66
544.075	29.89
544.419	30.13
544.762	30.38
545.105	30.63
545.449	30.89
545.792	31.16
546.135	31.46
546.478	31.73
546.821	32.08
547.165	32.38
547.508	32.67
547.851	32.94
548.194	33.23
548.536	33.56
548.879	33.89
549.222	34.18
549.565	34.43
549.908	34.71
550.25	34.98
550.593	35.22
550.936	35.51
551.278	35.81
551.621	36.06
551.963	36.34
552.306	36.61
552.648	36.89
552.991	37.13
553.333	37.39
553.675	37.66
554.017	37.9
554.36	38.17
554.702	38.33
555.044	38.53
555.386	38.78
555.728	39.05
556.07	39.25
556.412	39.47
556.754	39.7
557.096	39.94
557.438	40.24
557.78	40.48
558.121	40.67
558.463	40.96
558.805	41.23
559.147	41.38
559.488	41.59
559.83	41.75
560.171	41.95
560.513	42.17
560.854	42.43
561.196	42.65
561.537	42.82
561.878	43.1
562.22	43.29
562.561	43.39
562.902	43.6
563.243	43.74
563.584	43.84
563.925	44.04
564.266	44.2
564.607	44.25
564.948	44.41
565.289	44.58
565.63	44.67
565.971	44.79
566.312	44.98
566.653	45.13
566.993	45.23
567.334	45.4
567.675	45.53
568.015	45.59
568.356	45.73
568.696	45.81
569.037	45.97
569.377	46.13
569.718	46.32
570.058	46.37
570.398	46.52
570.739	46.73
571.079	46.86
571.419	47.09
571.759	47.19
572.099	47.27
572.439	47.41
572.779	47.5
573.119	47.64
573.459	47.77
573.799	47.86
574.139	48.1
574.479	48.22
574.819	48.31
575.158	48.46
575.498	48.49
575.838	48.68
576.177	48.77
576.517	48.86
576.856	48.92
577.196	49.09
577.535	49.2
577.875	49.27
578.214	49.35
578.553	49.4
578.893	49.55
579.232	49.72
579.571	49.83
579.91	50.03
580.25	50.03
580.589	50.12
580.928	50.24
581.267	50.28
581.606	50.39
581.945	50.46
582.283	50.56
582.622	50.66
582.961	50.72
583.3	50.8
583.639	50.94
583.977	51.04
584.316	51.13
584.654	51.28
584.993	51.34
585.332	51.4
585.67	51.47
586.008	51.59
586.347	51.69
586.685	51.68
587.024	51.71
587.362	51.8
587.7	51.85
588.038	51.91
588.376	52.03
588.715	51.98
589.053	52.07
589.391	52.16
589.729	52.25
590.067	52.3
590.404	52.32
590.742	52.36
591.08	52.49
591.418	52.6
591.756	52.59
592.093	52.73
592.431	52.79
592.769	52.84
593.106	53
593.444	52.98
593.781	53.03
594.119	53.07
594.456	53.23
594.793	53.31
595.131	53.39
595.468	53.44
595.805	53.61
596.143	53.73
596.48	53.7
596.817	53.83
597.154	53.89
597.491	53.99
597.828	54.02
598.165	54.03
598.502	54.1
598.839	54.19
599.176	54.23
599.512	54.28
599.849	54.35
600.186	54.3
600.523	54.42
600.859	54.53
601.196	54.5
601.532	54.52
601.869	54.51
602.205	54.57
602.542	54.54
602.878	54.52
603.215	54.51
603.551	54.6
603.887	54.59
604.223	54.62
604.56	54.6
604.896	54.62
605.232	54.64
605.568	54.59
605.904	54.57
606.24	54.6
606.576	54.73
606.912	54.71
607.248	54.8
607.583	54.83
607.919	54.91
608.255	55.01
608.591	55.02
608.926	55.14
609.262	55.2
609.597	55.28
609.933	55.33
610.268	55.31
610.604	55.31
610.939	55.35
611.275	55.42
611.61	55.41
611.945	55.52
612.281	55.63
612.616	55.74
612.951	55.95
613.286	56.01
613.621	56.03
613.956	56.17
614.291	56.16
614.626	56.22
614.961	56.19
615.296	56.15
615.631	56.21
615.966	56.19
616.3	56.12
616.635	56.12
616.97	56.09
617.304	56.13
617.639	56.12
617.973	56.12
618.308	56.21
618.642	56.37
618.977	56.39
619.311	56.34
619.646	56.29
619.98	56.18
620.314	56.11
620.648	56
620.983	55.93
621.317	55.96
621.651	56.01
621.985	56.06
622.319	56.19
622.653	56.2
622.987	56.23
623.321	56.42
623.655	56.45
623.988	56.53
624.322	56.5
624.656	56.63
624.99	56.67
625.323	56.69
625.657	56.67
625.99	56.57
626.324	56.58
626.657	56.67
626.991	56.76
627.324	56.88
627.658	56.96
627.991	57.03
628.324	57.07
628.657	57.12
628.991	57.17
629.324	57.17
629.657	57.24
629.99	57.33
630.323	57.27
630.656	57.27
630.989	57.34
631.322	57.47
631.655	57.56
631.987	57.58
632.32	57.54
632.653	57.52
632.986	57.66
633.318	57.71
633.651	57.73
633.984	57.59
634.316	57.52
634.649	57.54
634.981	57.65
635.313	57.65
635.646	57.63
635.978	57.54
636.31	57.6
636.643	57.58
636.975	57.54
637.307	57.48
637.639	57.47
637.971	57.41
638.303	57.27
638.635	57.22
638.967	57.17
639.299	57.21
639.631	57.23
639.963	57.21
640.295	57.31
640.626	57.25
640.958	57.52
641.29	57.49
641.621	57.46
641.953	57.48
642.285	57.46
642.616	57.38
642.948	57.48
643.279	57.6
643.61	57.65
643.942	57.61
644.273	57.71
644.604	57.74
644.936	57.68
645.267	57.86
645.598	57.74
645.929	57.91
646.26	57.76
646.591	57.81
646.922	57.85
647.253	57.78
647.584	57.98
647.915	57.93
648.245	57.94
648.576	57.83
648.907	57.75
649.238	57.77
649.568	57.91
649.899	57.84
650.229	57.7
650.56	57.66
650.89	57.77
651.221	57.8
651.551	57.83
651.882	57.88
652.212	57.97
652.542	58.16
652.872	58.14
653.203	58.41
653.533	58.4
653.863	58.43
654.193	58.52
654.523	58.39
654.853	58.45
655.183	58.59
655.513	58.7
655.843	58.77
656.172	58.78
656.502	58.72
656.832	58.78
657.162	58.89
657.491	58.95
657.821	58.84
658.15	58.85
658.48	58.86
658.809	58.92
659.139	58.86
659.468	58.82
659.798	58.82
660.127	58.73
660.456	58.69
660.785	58.64
661.115	58.71
661.444	58.75
661.773	58.57
662.102	58.59
662.431	58.6
662.76	58.53
663.089	58.72
663.418	58.75
663.747	58.8
664.076	58.74
664.404	58.76
664.733	58.85
665.062	58.83
665.39	58.83
665.719	58.82
666.048	58.56
666.376	58.46
666.705	58.54
667.033	58.61
667.362	58.74
667.69	58.9
668.018	58.82
668.347	58.89
668.675	59.04
669.003	59.15
669.331	59.31
669.659	59.28
669.987	59.31
670.315	59.51
670.643	59.41
670.971	59.5
671.299	59.38
671.627	59.53
671.955	59.48
672.283	59.62
672.61	59.72
672.938	60.13
673.266	60.2
673.593	60.24
673.921	60.22
674.249	60.2
674.576	60.11
674.904	60.17
675.231	60.14
675.558	60.18
675.886	60.12
676.213	60.07
676.54	60.14
676.867	59.94
677.195	59.8
677.522	59.96
677.849	59.99
678.176	60.12
678.503	60.08
678.83	60.22
679.157	60.3
679.484	60.4
679.81	60.34
680.137	60.43
680.464	60.34
680.791	60.47
681.117	60.51
681.444	60.51
681.771	60.47
682.097	60.44
682.424	60.38
682.75	60.42
683.077	60.43
683.403	60.47
683.729	60.6
684.056	60.62
684.382	60.57
684.708	60.5
685.034	60.45
685.36	60.46
685.686	60.4
686.012	60.3
686.339	60.22
686.664	60.23
686.99	60.22
687.316	60.34
687.642	60.15
687.968	60.26
688.294	60.34
688.619	60.53
688.945	60.52
689.271	60.74
689.596	60.76
689.922	60.66
690.247	60.75
690.573	60.75
690.898	60.66
691.224	60.82
691.549	61.17
691.874	61.14
692.2	61.08
692.525	61.11
692.85	61.14
693.175	61
693.5	61.01
693.825	60.8
694.15	60.66
694.475	60.9
694.8	60.96
695.125	60.91
695.45	60.78
695.775	60.71
696.099	60.59
696.424	60.6
696.749	60.73
697.073	60.74
697.398	60.59
697.723	60.74
698.047	60.61
698.372	60.37
698.696	60.36
699.02	60.39
699.345	60.38
699.669	60.4
699.993	60.48
700.318	60.56
700.642	60.72
700.966	60.78
701.29	60.66
701.614	60.53
701.938	60.7
702.262	60.58
702.586	60.72
702.91	60.73
703.234	60.68
703.557	60.51
703.881	60.57
704.205	60.74
704.529	60.71
704.852	60.76
705.176	60.81
705.499	60.88
705.823	60.8
706.146	60.89
706.47	60.72
706.793	60.69
707.117	60.52
707.44	60.66
707.763	60.61
708.086	60.47
708.409	60.58
708.733	60.34
709.056	60.54
709.379	60.57
709.702	60.5
710.025	60.46
710.348	60.53
710.671	60.39
710.993	60.34
711.316	60.18
711.639	60.09
711.962	60.22
712.284	60.32
712.607	60.37
712.93	60.47
713.252	60.58
713.575	60.58
713.897	60.85
714.22	60.88
714.542	60.99
714.864	61.07
715.187	60.94
715.509	61.06
715.831	61.01
716.153	60.99
716.475	61.16
716.798	61.07
717.12	61.26
717.442	61.37
717.764	61.43
718.085	61.56
718.407	61.57
718.729	61.5
719.051	61.47
719.373	61.36
719.695	61.19
720.016	61.44
720.338	61.73
720.659	61.42
720.981	61.16
721.302	61.33
721.624	61.54
721.945	61.4
722.267	61.32
722.588	61.25
722.909	61.25
723.231	61.33
723.552	61.47
723.873	61.41
724.194	61.04
724.515	61.09
724.836	61.29
725.157	61.49
725.478	61.39
725.799	61.47
726.12	61.66
726.441	61.84
726.762	61.52
727.083	61.56
727.403	61.59
727.724	61.93
728.045	61.86
728.365	61.93
728.686	62.09
729.006	62.13
729.327	62.15
729.647	62.27
729.967	62.05
730.288	62.2
730.608	62.09
730.928	62.36
731.249	62.56
731.569	62.47
731.889	62.45
732.209	62.64
732.529	62.96
732.849	62.97
733.169	63.03
733.489	63.08
733.809	62.71
734.129	62.61
734.448	62.44
734.768	62.37
735.088	62.15
735.408	62.25
735.727	62.36
736.047	62.5
736.366	62.49
736.686	62.59
737.005	62.42
737.325	62.7
737.644	62.65
737.963	62.45
738.283	62.53
738.602	62.7
738.921	62.41
739.24	62.29
739.56	62.36
739.879	62.23
740.198	62.11
740.517	62.36
740.836	62.28
741.155	62.29
741.473	61.96
741.792	61.92
742.111	61.79
742.43	61.93
742.748	61.94
743.067	61.7
743.386	61.2
743.704	61.54
744.023	61.32
744.341	61.25
744.66	61.27
744.978	61.48
745.297	61.39
745.615	61.46
745.933	61.25
746.252	61.39
746.57	61.5
746.888	61.89
747.206	61.87
747.524	61.97
747.842	61.8
748.16	62.11
748.478	62.64
748.796	62.66
749.114	62.41
749.432	62.56
749.749	63.01
750.067	63.57
750.385	63.39
750.703	63.49
751.02	63.9
751.338	63.75
751.655	63.54
751.973	63.62
752.29	63.53
752.608	63.25
752.925	63.32
753.242	63.15
753.56	62.93
753.877	62.65
754.194	63.21
754.511	63.27
754.828	63.48
755.145	63.13
755.462	63.2
755.779	63.32
756.096	62.98
756.413	62.8
756.73	62.74
757.047	62.81
757.364	63.05
757.68	62.87
757.997	63.14
758.314	63.19
758.63	62.81
758.947	62.74
759.264	63.28
759.58	63.28
759.896	63.6
760.213	63.57
760.529	63.85
760.846	63.84
761.162	63.95
761.478	64.01
761.794	64.25
762.11	64.46
762.426	64.37
762.743	64.3
763.059	64.3
763.375	64.34
763.69	64.33
764.006	64.31
764.322	64.2
764.638	64.39
764.954	64.63
765.27	64.67
765.585	64.85
765.901	64.46
766.216	64.28
766.532	63.94
766.848	64.04
767.163	64.03
767.478	63.79
767.794	63.95
768.109	63.72
768.424	63.46
768.74	62.93
769.055	63.15
769.37	63.5
769.685	63.35
770	63.23
770.315	63.14
770.63	62.9
770.945	63.38
771.26	62.75
771.575	62
771.89	62.35
772.205	62.22
772.52	62.37
772.834	62.28
773.149	62.37
773.464	62.6
773.778	62.35
774.093	61.97
774.407	61.62
774.722	61.76
775.036	61.72
775.351	62.46
775.665	61.84
775.979	61.57
776.293	61.31
776.608	61.46
776.922	61.67
777.236	61.81
777.55	61.41
777.864	61.98
778.178	62.34
778.492	62.15
778.806	62.36
779.12	62.16
779.434	61.97
779.747	62.51
780.061	62.2
780.375	62.44
780.689	62.58
781.002	62.97
781.316	63.2
781.629	63.15
781.943	62.65
782.256	62.54
782.57	62.74
782.883	63.37
783.196	63.25
783.51	63.39
783.823	63.11
784.136	62.72
784.449	62.15
784.762	61.99
785.075	61.98
785.388	61.74
785.701	62.04
786.014	62.71
786.327	62.49
786.64	62.1
786.953	62.23
787.266	62.29
787.578	61.78
787.891	61.63
788.204	61.59
788.516	61.75
788.829	62.04
789.141	61.95
789.454	61.71
789.766	61.93
790.079	61.62
790.391	61.68
790.703	62.35
791.016	62.59
791.328	62.97
791.64	63.14
791.952	63.19
792.264	63.27
792.576	62.99
792.888	63.2
793.2	63.68
793.512	63.49
793.824	64.02
794.136	64.37
794.448	64.54
794.76	64.99
795.071	65.25
795.383	65.67
795.695	65.52
796.006	66.3
796.318	66.37
796.629	66.26
796.941	66.18
797.252	66.14
797.564	66.45
797.875	65.94
798.186	65.5
798.497	65.83
798.809	65.45
799.12	65.44
799.431	64.55
799.742	64.82
800.053	65.55
800.364	65.94
800.675	66
800.986	66
801.297	66.21
801.608	65.73
801.918	65.14
802.229	64.81
802.54	64.25
802.851	63.14
803.161	63.39
803.472	63.82
803.782	64.2
804.093	63.4
804.403	63.4
804.714	64.23
805.024	64.01
805.334	64.63
805.645	64.51
805.955	65.17
806.265	64.75
806.575	64.15
806.885	63.62
807.195	64.24
807.505	64.19
807.815	64.41
808.125	64.57
808.435	64.78
808.745	65.65
809.055	65.51
809.365	66.5
809.674	66.77
809.984	65.94
810.294	64.77
810.603	65.14
810.913	66.15
811.222	65.32
811.532	65.25
811.841	65.14
812.151	65.88
812.46	65.58
812.769	65.91
813.079	66.6
813.388	67.57
813.697	66.8
814.006	66.91
814.315	65.91
814.624	66.4
814.933	66.93
815.242	66.93
815.551	66.32
815.86	66.29
816.169	65.94
816.478	67.37
816.786	67.26
817.095	67.41
817.404	66.15
817.712	65.92
818.021	66.58
818.33	66.31
818.638	65.76
818.947	66.16
819.255	65.84
819.563	66.09
819.872	65.17
820.18	65.61
820.488	65.55
820.796	65.35
821.105	65.61
821.413	65.52
821.721	65.57
822.029	65.58
822.337	65.59
822.645	65.61
822.953	65.45
823.26	65.34
823.568	65.34
823.876	65.4
824.184	65.46
824.491	65.15
824.799	65.18
825.107	65.12
825.414	64.96
825.722	64.89
826.029	64.73
826.337	64.96
826.644	64.74
826.951	64.72
827.259	64.94
827.566	64.79
827.873	64.85
828.18	64.71
828.488	65.04
828.795	64.85
829.102	64.82
829.409	64.88
829.716	65.4
830.023	65.1
830.329	65.18
830.636	64.89
830.943	65.84
831.25	65.87
831.557	66.37
831.863	66.21
832.17	66.08
832.476	65.91
832.783	65.71
833.089	66.03
833.396	66.37
833.702	66.14
834.009	66.2
834.315	66.51
834.621	67.03
834.928	67.14
835.234	67.15
835.54	67.07
835.846	67.03
836.152	66.99
836.458	67.91
836.764	68.17
837.07	68.51
837.376	67.85
837.682	67.36
837.988	67.59
838.293	68.19
838.599	68.96
838.905	69.07
839.211	68.77
839.516	68.4
839.822	67.81
840.127	68.55
840.433	69.02
840.738	68.01
841.044	66.65
841.349	65.55
841.654	65.68
841.959	65.53
842.265	66.11
842.57	65.36
842.875	63.39
843.18	63.65
843.485	64.03
843.79	63.91
844.095	64.39
844.4	63.43
844.705	62.77
845.01	63.55
845.315	63.78
845.619	64.27
845.924	63.7
846.229	64.97
846.533	64.47
846.838	62.41
847.142	63.52
847.447	65.47
847.751	67.27
848.056	66.4
848.36	67.97
848.664	68.34
848.969	69.21
849.273	70.78
849.577	70.5
849.881	69.49
850.185	68.97
850.489	70.67
850.794	71.56
851.097	71.61
851.401	70.83
851.705	69.54
852.009	69.97
852.313	73.04
852.617	70.28
852.92	70.4
853.224	73.37
853.528	71.24
853.831	70.77
854.135	69.98
854.438	70.8
854.742	68.85
855.045	64.66
855.349	64.49
855.652	64.71
855.955	65.79
856.259	68.46
856.562	68.24
856.865	65.54
857.168	65.57
857.471	65.95
857.774	63.41
858.077	65.09
858.38	64.71
858.683	60.97
858.986	63.39
859.289	63.22
859.592	61.56
859.894	61.73
860.197	60.73
860.5	59.67
860.802	61.74
861.105	61.22
861.407	62.73
861.71	63.39
862.012	62.27
862.315	58.74
862.617	55.54
862.919	53.01
863.222	54.05
863.524	52.45
863.826	52.24
864.128	54.14
864.43	53.44
864.732	55.11
865.034	55.52
865.336	54.11
865.638	54.21
865.94	53.96
866.242	52.82
866.544	54.1
866.846	55.41
867.147	53.73
867.449	55.69
867.751	55.66
868.052	56.07
868.354	55.39
868.655	61.07
868.957	66.81
869.258	72.42
869.56	73.94
869.861	77.13
870.162	76.86
870.463	76.7
870.765	78.95
871.066	75
871.367	76.7
871.668	76.06
871.969	76.36
872.27	75.65
872.571	77.32
872.872	78.07
873.173	75.42
873.473	75.06
873.774	74.02
874.075	74.22
874.376	72.16
874.676	78.94
874.977	76.45
875.277	73.16
875.578	70.82
875.878	70.17
876.179	67.49
876.479	69.05
876.78	69.87
877.08	68.37
877.38	71.64
877.68	72.29
877.981	72.59
878.281	71.12
878.581	71.09
