Data from MVZ_BU8943_Reflection_00011.txt Node
Date: Tue Nov 19 12:09:21 EST 2019
User: vgr7
Spectrometer: USB2G7710
Scans to average: 3
Trigger mode: 4
Integration Time (sec): 2.000000E-2
Electric dark correction enabled: true
Boxcar width: 10
XAxis mode: Wavelengths
Number of Pixels in Spectrum: 2048
>>>>>Begin Spectral Data<<<<<
177.721	167.26
178.105	408.51
178.488	-137.88
178.871	-106.85
179.254	-635.29
179.636	-402.96
180.019	-54.63
180.402	260
180.785	-132.47
181.168	21.32
181.55	23.33
181.933	61.74
182.316	34.24
182.698	21600
183.081	-303.61
183.463	148.87
183.846	83.44
184.228	-501.27
184.611	273.15
184.993	67.55
185.376	78.26
185.758	71.41
186.14	107.28
186.522	92.08
186.904	52.85
187.287	56.71
187.669	49.84
188.051	37.36
188.433	8.89
188.815	1.92
189.197	10.19
189.579	12.34
189.961	8.95
190.342	9.88
190.724	18.19
191.106	21.87
191.488	23.15
191.869	14.45
192.251	-5.97
192.633	5.92
193.014	38.02
193.396	26.42
193.777	28.39
194.159	3.95
194.54	32.25
194.922	87.8
195.303	112.23
195.684	414.16
196.065	74.45
196.447	-17400
196.828	-389.01
197.209	2011.76
197.59	-73.13
197.971	-127.52
198.352	8.62
198.733	223.12
199.114	645.11
199.495	-561.85
199.876	-405.99
200.257	-103.56
200.638	-210.81
201.018	-375.68
201.399	-199.25
201.78	-214.2
202.16	-265.82
202.541	-605.02
202.922	-1467.23
203.302	-1195.62
203.683	-891.89
204.063	-297.09
204.444	-241.65
204.824	-231.72
205.204	-245.6
205.585	-138.27
205.965	-193.06
206.345	-158.51
206.725	-97.67
207.106	-60.07
207.486	-76.43
207.866	-137.48
208.246	-108.28
208.626	-164.28
209.006	-249.19
209.386	-312.72
209.766	-303.3
210.145	-283.68
210.525	-438.81
210.905	-430.04
211.285	-508.37
211.664	-157.28
212.044	-439.6
212.424	-366.44
212.803	250.18
213.183	703.45
213.562	744.83
213.942	1421.92
214.321	-390.15
214.701	1367.44
215.08	1761.29
215.459	-469.31
215.838	387.4
216.218	124.33
216.597	114.41
216.976	165.68
217.355	649.18
217.734	-1332.2
218.113	440.24
218.492	-5400
218.871	-421.62
219.25	-465.99
219.629	-937.82
220.008	-196.5
220.387	-118.47
220.766	-57.12
221.144	-65.55
221.523	-95.41
221.902	-73.93
222.28	-91.53
222.659	-74.29
223.037	-74.96
223.416	-67
223.794	-45.79
224.173	-25.89
224.551	-24.53
224.929	-17.05
225.308	-15.42
225.686	-2.54
226.064	-4.57
226.442	-6.11
226.821	-5.2
227.199	-2.42
227.577	0.6
227.955	-1.71
228.333	-9.92
228.711	-11.87
229.089	-7.61
229.467	-6.06
229.845	-6.03
230.222	-0.65
230.6	-4.19
230.978	-3.26
231.356	-2.61
231.733	-1.47
232.111	-0.84
232.488	-0.16
232.866	-0.69
233.243	-3.28
233.621	-2.94
233.998	-0.47
234.376	-0.1
234.753	-3.05
235.13	-2.45
235.508	-1.07
235.885	-0.3
236.262	2.85
236.639	3.44
237.016	2.43
237.393	2.5
237.77	3.75
238.147	2.43
238.524	5.01
238.901	4.59
239.278	4.48
239.655	4.14
240.032	3.38
240.409	4.31
240.785	3.55
241.162	3.52
241.539	3.37
241.915	3.45
242.292	3.73
242.668	4.37
243.045	4.88
243.421	4.58
243.798	4.54
244.174	4.48
244.551	4.58
244.927	4.36
245.303	4.19
245.679	3.9
246.056	3.89
246.432	3.57
246.808	4
247.184	3.99
247.56	3.7
247.936	3.78
248.312	3.56
248.688	4.03
249.064	4.05
249.44	4.11
249.815	4.07
250.191	4.16
250.567	4.12
250.943	3.73
251.318	3.74
251.694	3.52
252.069	3.44
252.445	3.6
252.82	4.19
253.196	4.59
253.571	4.9
253.947	5.02
254.322	4.94
254.697	4.57
255.073	4.53
255.448	4.94
255.823	5.22
256.198	5.1
256.573	5.07
256.948	5.25
257.323	4.88
257.698	4.86
258.073	4.64
258.448	4.5
258.823	4.28
259.198	4.09
259.573	4.06
259.948	4.15
260.322	3.94
260.697	3.79
261.072	3.77
261.446	3.74
261.821	3.66
262.195	3.68
262.57	3.84
262.944	3.89
263.319	3.89
263.693	3.52
264.067	3.46
264.442	3.24
264.816	2.81
265.19	2.91
265.564	2.89
265.938	3.03
266.313	3.17
266.687	3.39
267.061	3.71
267.435	4.03
267.809	3.92
268.183	4.09
268.556	4.17
268.93	4.15
269.304	4.16
269.678	4.17
270.051	4.1
270.425	3.99
270.799	3.8
271.172	3.83
271.546	3.98
271.919	4.03
272.293	4.11
272.666	4.43
273.04	4.47
273.413	4.5
273.787	4.31
274.16	4.29
274.533	4.33
274.906	4.4
275.279	4.35
275.653	4.28
276.026	4.31
276.399	4.1
276.772	3.96
277.145	3.99
277.518	3.79
277.891	3.84
278.263	4.1
278.636	4.35
279.009	4.36
279.382	4.37
279.755	4.23
280.127	4.29
280.5	4.22
280.872	4.27
281.245	4.28
281.617	4.25
281.99	4.18
282.362	4.08
282.735	3.7
283.107	3.56
283.479	3.69
283.852	3.67
284.224	3.87
284.596	3.94
284.968	3.92
285.34	4.17
285.713	4.15
286.085	3.87
286.457	3.59
286.829	3.51
287.201	3.53
287.572	3.65
287.944	3.73
288.316	3.7
288.688	3.62
289.06	3.68
289.431	3.84
289.803	4.05
290.175	4.01
290.546	4.19
290.918	4.3
291.289	4.23
291.661	4.13
292.032	4.11
292.403	4.22
292.775	4.34
293.146	4.33
293.517	4.42
293.889	4.43
294.26	4.55
294.631	4.76
295.002	4.77
295.373	4.81
295.744	4.75
296.115	4.76
296.486	4.95
296.857	5.15
297.228	5
297.599	4.85
297.97	5.03
298.34	5.02
298.711	5.13
299.082	5.3
299.452	5.51
299.823	5.57
300.194	5.5
300.564	5.42
300.935	5.59
301.305	5.68
301.676	5.8
302.046	5.94
302.416	5.84
302.787	5.98
303.157	5.91
303.527	6.18
303.897	6.28
304.267	6.25
304.637	5.92
305.008	6.01
305.378	6.2
305.748	6.15
306.117	6.29
306.487	6.29
306.857	6.29
307.227	6.12
307.597	6.04
307.967	6.08
308.336	6.34
308.706	6.23
309.076	6.27
309.445	6.4
309.815	6.48
310.184	6.48
310.554	6.44
310.923	6.43
311.293	6.27
311.662	6.35
312.031	6.4
312.401	6.49
312.77	6.57
313.139	6.56
313.508	6.54
313.877	6.51
314.246	6.61
314.616	6.7
314.985	6.8
315.353	6.99
315.722	7.19
316.091	7.09
316.46	7.14
316.829	7.05
317.198	7.12
317.567	7.13
317.935	7.21
318.304	7.36
318.672	7.6
319.041	7.72
319.41	7.61
319.778	7.58
320.147	7.69
320.515	7.59
320.883	7.52
321.252	7.77
321.62	7.95
321.988	7.94
322.357	7.9
322.725	7.98
323.093	7.94
323.461	7.92
323.829	7.81
324.197	7.78
324.565	7.97
324.933	8.03
325.301	7.88
325.669	8.02
326.037	8.07
326.405	8.15
326.772	8.08
327.14	8.27
327.508	8.36
327.875	8.44
328.243	8.55
328.61	8.67
328.978	8.69
329.346	8.61
329.713	8.72
330.08	8.81
330.448	8.95
330.815	9.02
331.182	9.04
331.55	9.2
331.917	9.35
332.284	9.39
332.651	9.33
333.018	9.54
333.385	9.61
333.752	9.64
334.119	9.61
334.486	9.7
334.853	9.67
335.22	9.6
335.587	9.59
335.954	9.67
336.32	9.64
336.687	9.68
337.054	9.8
337.42	9.81
337.787	9.78
338.153	9.82
338.52	9.87
338.886	9.75
339.253	9.72
339.619	9.81
339.986	9.79
340.352	9.84
340.718	9.93
341.084	9.9
341.451	10.12
341.817	10.18
342.183	10.19
342.549	10.29
342.915	10.43
343.281	10.48
343.647	10.58
344.013	10.69
344.379	10.66
344.745	10.71
345.11	10.71
345.476	10.8
345.842	10.69
346.208	10.74
346.573	10.93
346.939	11.02
347.304	10.94
347.67	11.05
348.035	11.01
348.401	11.11
348.766	11.2
349.132	11.1
349.497	11.17
349.862	11.26
350.228	11.26
350.593	11.34
350.958	11.5
351.323	11.41
351.688	11.48
352.053	11.51
352.418	11.45
352.783	11.45
353.148	11.46
353.513	11.47
353.878	11.41
354.243	11.38
354.608	11.43
354.972	11.52
355.337	11.64
355.702	11.72
356.066	11.66
356.431	11.68
356.795	11.69
357.16	11.71
357.524	11.7
357.889	11.72
358.253	11.67
358.618	11.52
358.982	11.59
359.346	11.51
359.71	11.53
360.075	11.61
360.439	11.71
360.803	11.64
361.167	11.66
361.531	11.7
361.895	11.68
362.259	11.7
362.623	11.67
362.987	11.56
363.351	11.51
363.714	11.46
364.078	11.4
364.442	11.36
364.806	11.36
365.169	11.29
365.533	11.32
365.896	11.35
366.26	11.42
366.623	11.35
366.987	11.4
367.35	11.42
367.714	11.29
368.077	11.25
368.44	11.35
368.803	11.28
369.167	11.24
369.53	11.27
369.893	11.23
370.256	11.19
370.619	11.18
370.982	11.22
371.345	11.26
371.708	11.32
372.071	11.34
372.434	11.24
372.797	11.27
373.159	11.2
373.522	11.15
373.885	11.08
374.247	11.08
374.61	11.11
374.973	11.08
375.335	11.11
375.698	11.08
376.06	11.07
376.423	11.09
376.785	11.11
377.147	11.07
377.51	11.09
377.872	11.06
378.234	11.08
378.596	11.09
378.958	11.08
379.321	11
379.683	10.99
380.045	10.94
380.407	10.89
380.769	10.85
381.13	10.84
381.492	10.81
381.854	10.81
382.216	10.73
382.578	10.7
382.939	10.65
383.301	10.58
383.663	10.5
384.024	10.5
384.386	10.5
384.747	10.47
385.109	10.36
385.47	10.36
385.832	10.26
386.193	10.15
386.554	10.02
386.916	10.07
387.277	10
387.638	10
387.999	9.99
388.36	9.96
388.721	9.93
389.082	9.91
389.443	9.88
389.804	9.86
390.165	9.83
390.526	9.81
390.887	9.76
391.248	9.71
391.609	9.67
391.969	9.61
392.33	9.56
392.691	9.58
393.051	9.51
393.412	9.53
393.772	9.55
394.133	9.56
394.493	9.47
394.854	9.44
395.214	9.39
395.574	9.34
395.935	9.29
396.295	9.27
396.655	9.25
397.015	9.22
397.376	9.16
397.736	9.07
398.096	9.04
398.456	9.04
398.816	9.01
399.176	8.96
399.535	8.86
399.895	8.82
400.255	8.77
400.615	8.77
400.975	8.7
401.334	8.63
401.694	8.58
402.054	8.56
402.413	8.5
402.773	8.48
403.132	8.41
403.492	8.39
403.851	8.33
404.211	8.25
404.57	8.2
404.929	8.19
405.288	8.21
405.648	8.18
406.007	8.13
406.366	8.11
406.725	8.06
407.084	8.08
407.443	8.07
407.802	8.05
408.161	7.99
408.52	7.98
408.879	7.94
409.238	7.96
409.596	7.91
409.955	7.88
410.314	7.9
410.673	7.89
411.031	7.87
411.39	7.84
411.748	7.85
412.107	7.85
412.465	7.79
412.824	7.73
413.182	7.7
413.54	7.7
413.899	7.67
414.257	7.68
414.615	7.65
414.974	7.59
415.332	7.53
415.69	7.52
416.048	7.5
416.406	7.49
416.764	7.43
417.122	7.41
417.48	7.42
417.838	7.36
418.195	7.35
418.553	7.35
418.911	7.32
419.269	7.29
419.626	7.25
419.984	7.22
420.342	7.21
420.699	7.16
421.057	7.13
421.414	7.12
421.772	7.08
422.129	7.03
422.486	7.04
422.844	7.02
423.201	7
423.558	6.98
423.915	6.95
424.273	6.92
424.63	6.88
424.987	6.84
425.344	6.81
425.701	6.76
426.058	6.71
426.415	6.68
426.772	6.63
427.128	6.62
427.485	6.6
427.842	6.59
428.199	6.6
428.555	6.57
428.912	6.52
429.269	6.5
429.625	6.51
429.982	6.46
430.338	6.44
430.695	6.37
431.051	6.35
431.407	6.33
431.764	6.31
432.12	6.33
432.476	6.34
432.832	6.36
433.189	6.37
433.545	6.37
433.901	6.38
434.257	6.38
434.613	6.37
434.969	6.36
435.325	6.32
435.681	6.3
436.036	6.29
436.392	6.28
436.748	6.28
437.104	6.28
437.459	6.29
437.815	6.28
438.171	6.31
438.526	6.3
438.882	6.32
439.237	6.33
439.593	6.33
439.948	6.32
440.304	6.31
440.659	6.32
441.014	6.32
441.369	6.31
441.725	6.3
442.08	6.29
442.435	6.31
442.79	6.32
443.145	6.32
443.5	6.33
443.855	6.34
444.21	6.34
444.565	6.32
444.92	6.33
445.275	6.34
445.629	6.33
445.984	6.31
446.339	6.31
446.693	6.3
447.048	6.28
447.403	6.27
447.757	6.24
448.112	6.2
448.466	6.17
448.82	6.16
449.175	6.16
449.529	6.15
449.883	6.14
450.238	6.12
450.592	6.09
450.946	6.08
451.3	6.05
451.654	6.01
452.008	6.01
452.362	5.99
452.716	5.96
453.07	5.93
453.424	5.92
453.778	5.88
454.132	5.88
454.486	5.87
454.839	5.87
455.193	5.87
455.547	5.88
455.9	5.9
456.254	5.88
456.607	5.88
456.961	5.88
457.314	5.87
457.668	5.86
458.021	5.85
458.375	5.85
458.728	5.85
459.081	5.89
459.434	5.86
459.787	5.86
460.141	5.87
460.494	5.89
460.847	5.9
461.2	5.89
461.553	5.91
461.906	5.91
462.259	5.93
462.611	5.95
462.964	6
463.317	5.99
463.67	6.03
464.022	6.06
464.375	6.08
464.728	6.1
465.08	6.12
465.433	6.18
465.785	6.2
466.138	6.23
466.49	6.24
466.843	6.31
467.195	6.34
467.547	6.39
467.899	6.41
468.252	6.45
468.604	6.51
468.956	6.53
469.308	6.56
469.66	6.61
470.012	6.64
470.364	6.64
470.716	6.71
471.068	6.72
471.42	6.72
471.772	6.75
472.123	6.78
472.475	6.84
472.827	6.85
473.178	6.87
473.53	6.88
473.882	6.87
474.233	6.9
474.585	6.94
474.936	6.93
475.288	6.95
475.639	6.97
475.99	6.99
476.342	6.98
476.693	7
477.044	7
477.395	7
477.746	7.01
478.097	6.97
478.448	6.97
478.8	6.98
479.15	6.97
479.501	6.97
479.852	6.95
480.203	6.96
480.554	6.95
480.905	6.94
481.255	6.94
481.606	6.94
481.957	6.92
482.307	6.92
482.658	6.91
483.009	6.88
483.359	6.87
483.709	6.88
484.06	6.86
484.41	6.85
484.761	6.84
485.111	6.82
485.461	6.83
485.811	6.81
486.162	6.81
486.512	6.81
486.862	6.79
487.212	6.79
487.562	6.76
487.912	6.76
488.262	6.74
488.612	6.74
488.961	6.71
489.311	6.71
489.661	6.7
490.011	6.72
490.36	6.73
490.71	6.72
491.06	6.72
491.409	6.72
491.759	6.73
492.108	6.75
492.458	6.78
492.807	6.79
493.157	6.81
493.506	6.83
493.855	6.83
494.204	6.87
494.554	6.9
494.903	6.95
495.252	6.99
495.601	7.07
495.95	7.1
496.299	7.17
496.648	7.24
496.997	7.3
497.346	7.38
497.695	7.46
498.043	7.56
498.392	7.64
498.741	7.72
499.09	7.8
499.438	7.91
499.787	7.98
500.135	8.09
500.484	8.21
500.832	8.3
501.181	8.45
501.529	8.58
501.878	8.69
502.226	8.82
502.574	8.97
502.923	9.07
503.271	9.25
503.619	9.41
503.967	9.53
504.315	9.68
504.663	9.83
505.011	9.98
505.359	10.11
505.707	10.3
506.055	10.49
506.403	10.67
506.751	10.81
507.098	11.01
507.446	11.18
507.794	11.35
508.141	11.58
508.489	11.75
508.837	11.91
509.184	12.12
509.531	12.31
509.879	12.47
510.226	12.67
510.574	12.84
510.921	13.01
511.268	13.23
511.616	13.4
511.963	13.58
512.31	13.76
512.657	13.99
513.004	14.16
513.351	14.35
513.698	14.59
514.045	14.84
514.392	15.06
514.739	15.28
515.086	15.49
515.432	15.66
515.779	15.86
516.126	16.09
516.473	16.29
516.819	16.49
517.166	16.71
517.512	16.9
517.859	17.1
518.205	17.28
518.552	17.44
518.898	17.63
519.245	17.82
519.591	18.01
519.937	18.18
520.283	18.37
520.629	18.57
520.976	18.75
521.322	18.92
521.668	19.1
522.014	19.3
522.36	19.51
522.706	19.76
523.052	20.02
523.398	20.25
523.743	20.47
524.089	20.71
524.435	20.94
524.781	21.16
525.126	21.37
525.472	21.57
525.817	21.74
526.163	21.9
526.509	22.05
526.854	22.21
527.199	22.32
527.545	22.45
527.89	22.6
528.235	22.74
528.581	22.88
528.926	23.04
529.271	23.2
529.616	23.35
529.961	23.49
530.306	23.63
530.651	23.79
530.996	23.98
531.341	24.15
531.686	24.29
532.031	24.46
532.376	24.66
532.721	24.85
533.065	25.06
533.41	25.27
533.755	25.48
534.099	25.68
534.444	25.92
534.788	26.13
535.133	26.31
535.477	26.52
535.822	26.7
536.166	26.93
536.51	27.16
536.855	27.38
537.199	27.63
537.543	27.88
537.887	28.09
538.231	28.34
538.576	28.61
538.92	28.88
539.264	29.13
539.608	29.36
539.951	29.59
540.295	29.78
540.639	29.99
540.983	30.18
541.327	30.4
541.671	30.56
542.014	30.75
542.358	30.94
542.701	31.12
543.045	31.36
543.389	31.55
543.732	31.74
544.075	31.99
544.419	32.22
544.762	32.41
545.105	32.69
545.449	32.93
545.792	33.13
546.135	33.39
546.478	33.63
546.821	33.87
547.165	34.16
547.508	34.43
547.851	34.69
548.194	34.9
548.536	35.13
548.879	35.45
549.222	35.73
549.565	36.02
549.908	36.32
550.25	36.56
550.593	36.82
550.936	37.06
551.278	37.25
551.621	37.53
551.963	37.86
552.306	38.05
552.648	38.23
552.991	38.49
553.333	38.71
553.675	38.95
554.017	39.19
554.36	39.3
554.702	39.52
555.044	39.73
555.386	39.97
555.728	40.18
556.07	40.35
556.412	40.56
556.754	40.75
557.096	40.93
557.438	41.15
557.78	41.36
558.121	41.6
558.463	41.82
558.805	41.98
559.147	42.12
559.488	42.32
559.83	42.55
560.171	42.77
560.513	42.93
560.854	43.17
561.196	43.32
561.537	43.52
561.878	43.67
562.22	43.8
562.561	44
562.902	44.15
563.243	44.45
563.584	44.61
563.925	44.8
564.266	44.96
564.607	45.05
564.948	45.14
565.289	45.22
565.63	45.32
565.971	45.5
566.312	45.61
566.653	45.78
566.993	45.89
567.334	46.05
567.675	46.18
568.015	46.3
568.356	46.43
568.696	46.6
569.037	46.8
569.377	46.95
569.718	47.04
570.058	47.22
570.398	47.25
570.739	47.32
571.079	47.39
571.419	47.48
571.759	47.63
572.099	47.76
572.439	47.83
572.779	47.95
573.119	47.94
573.459	48.11
573.799	48.15
574.139	48.26
574.479	48.3
574.819	48.36
575.158	48.38
575.498	48.47
575.838	48.53
576.177	48.54
576.517	48.59
576.856	48.67
577.196	48.7
577.535	48.83
577.875	48.94
578.214	49.08
578.553	49.2
578.893	49.31
579.232	49.41
579.571	49.57
579.91	49.66
580.25	49.85
580.589	49.83
580.928	50.01
581.267	50.06
581.606	50.15
581.945	50.31
582.283	50.4
582.622	50.45
582.961	50.56
583.3	50.65
583.639	50.77
583.977	50.81
584.316	50.88
584.654	50.9
584.993	51.03
585.332	50.94
585.67	50.9
586.008	50.92
586.347	51
586.685	51.08
587.024	51.09
587.362	51.13
587.7	51.22
588.038	51.21
588.376	51.34
588.715	51.4
589.053	51.43
589.391	51.48
589.729	51.65
590.067	51.71
590.404	51.75
590.742	51.84
591.08	51.89
591.418	51.95
591.756	52.03
592.093	52.05
592.431	52.13
592.769	52.23
593.106	52.29
593.444	52.31
593.781	52.38
594.119	52.47
594.456	52.49
594.793	52.43
595.131	52.53
595.468	52.53
595.805	52.64
596.143	52.7
596.48	52.74
596.817	52.69
597.154	52.75
597.491	52.78
597.828	52.79
598.165	52.78
598.502	52.8
598.839	52.78
599.176	52.85
599.512	52.9
599.849	52.89
600.186	52.99
600.523	53.03
600.859	53.09
601.196	53.1
601.532	53.17
601.869	53.29
602.205	53.35
602.542	53.41
602.878	53.4
603.215	53.4
603.551	53.46
603.887	53.48
604.223	53.39
604.56	53.43
604.896	53.43
605.232	53.57
605.568	53.6
605.904	53.61
606.24	53.64
606.576	53.71
606.912	53.79
607.248	53.68
607.583	53.69
607.919	53.64
608.255	53.69
608.591	53.66
608.926	53.67
609.262	53.67
609.597	53.65
609.933	53.68
610.268	53.7
610.604	53.75
610.939	53.85
611.275	53.96
611.61	54.04
611.945	54.06
612.281	54.07
612.616	54.08
612.951	54.19
613.286	54.22
613.621	54.22
613.956	54.22
614.291	54.28
614.626	54.39
614.961	54.41
615.296	54.32
615.631	54.4
615.966	54.58
616.3	54.55
616.635	54.58
616.97	54.53
617.304	54.56
617.639	54.55
617.973	54.58
618.308	54.62
618.642	54.6
618.977	54.64
619.311	54.65
619.646	54.69
619.98	54.73
620.314	54.71
620.648	54.75
620.983	54.82
621.317	54.98
621.651	54.98
621.985	55.15
622.319	55.29
622.653	55.31
622.987	55.2
623.321	55.21
623.655	55.16
623.988	55.2
624.322	55.24
624.656	55.28
624.99	55.19
625.323	55.18
625.657	55.24
625.99	55.27
626.324	55.33
626.657	55.47
626.991	55.48
627.324	55.48
627.658	55.51
627.991	55.53
628.324	55.44
628.657	55.41
628.991	55.34
629.324	55.35
629.657	55.45
629.99	55.49
630.323	55.55
630.656	55.57
630.989	55.68
631.322	55.74
631.655	55.67
631.987	55.73
632.32	55.83
632.653	55.79
632.986	55.8
633.318	55.89
633.651	55.73
633.984	55.76
634.316	55.72
634.649	55.78
634.981	55.79
635.313	55.82
635.646	55.86
635.978	55.92
636.31	55.91
636.643	55.83
636.975	55.72
637.307	55.66
637.639	55.74
637.971	55.63
638.303	55.53
638.635	55.61
638.967	55.77
639.299	55.73
639.631	55.82
639.963	55.85
640.295	55.68
640.626	55.64
640.958	55.59
641.29	55.65
641.621	55.64
641.953	55.56
642.285	55.67
642.616	55.65
642.948	55.59
643.279	55.65
643.61	55.59
643.942	55.72
644.273	55.92
644.604	56.01
644.936	56.2
645.267	56.09
645.598	56.14
645.929	56.04
646.26	56
646.591	55.94
646.922	55.91
647.253	56.06
647.584	56.23
647.915	56.04
648.245	55.96
648.576	55.94
648.907	56.07
649.238	56.07
649.568	56.19
649.899	56.25
650.229	56.17
650.56	56.33
650.89	56.37
651.221	56.3
651.551	56.24
651.882	56.04
652.212	56.21
652.542	56.19
652.872	56.15
653.203	56.14
653.533	56.02
653.863	56.13
654.193	56.04
654.523	56.02
654.853	56.23
655.183	56.38
655.513	56.41
655.843	56.39
656.172	56.41
656.502	56.47
656.832	56.48
657.162	56.49
657.491	56.5
657.821	56.49
658.15	56.38
658.48	56.44
658.809	56.39
659.139	56.5
659.468	56.56
659.798	56.59
660.127	56.62
660.456	56.82
660.785	56.81
661.115	56.93
661.444	56.92
661.773	56.77
662.102	56.7
662.431	56.68
662.76	56.68
663.089	56.69
663.418	56.69
663.747	56.68
664.076	56.74
664.404	56.72
664.733	56.81
665.062	56.93
665.39	56.87
665.719	57.04
666.048	56.96
666.376	56.98
666.705	57
667.033	56.99
667.362	57.02
667.69	56.96
668.018	56.92
668.347	56.92
668.675	57.21
669.003	57.2
669.331	57.21
669.659	57.32
669.987	57.17
670.315	57.08
670.643	56.97
670.971	57.05
671.299	56.97
671.627	56.94
671.955	56.94
672.283	57.14
672.61	57.29
672.938	57.29
673.266	57.31
673.593	57.28
673.921	57.19
674.249	57.09
674.576	57.12
674.904	57.24
675.231	57.34
675.558	57.25
675.886	57.38
676.213	57.45
676.54	57.28
676.867	57.25
677.195	57.29
677.522	57.28
677.849	57.26
678.176	57.27
678.503	57.4
678.83	57.42
679.157	57.36
679.484	57.4
679.81	57.47
680.137	57.45
680.464	57.43
680.791	57.62
681.117	57.67
681.444	57.7
681.771	57.52
682.097	57.48
682.424	57.5
682.75	57.49
683.077	57.56
683.403	57.74
683.729	57.96
684.056	57.9
684.382	58.1
684.708	58.18
685.034	58.19
685.36	57.97
685.686	58.15
686.012	58.2
686.339	58.04
686.664	57.91
686.99	57.85
687.316	57.85
687.642	57.72
687.968	57.56
688.294	57.51
688.619	57.57
688.945	57.61
689.271	57.7
689.596	57.7
689.922	57.57
690.247	57.47
690.573	57.31
690.898	57.38
691.224	57.34
691.549	57.36
691.874	57.49
692.2	57.51
692.525	57.23
692.85	57.14
693.175	57.16
693.5	57.14
693.825	57.1
694.15	57.16
694.475	57.38
694.8	57.55
695.125	57.57
695.45	57.68
695.775	57.71
696.099	57.7
696.424	57.84
696.749	57.97
697.073	58.07
697.398	58.09
697.723	58.11
698.047	58.07
698.372	58.01
698.696	58.04
699.02	58.07
699.345	58.18
699.669	58.27
699.993	58.3
700.318	58.38
700.642	58.47
700.966	58.58
701.29	58.52
701.614	58.38
701.938	58.34
702.262	58.49
702.586	58.47
702.91	58.53
703.234	58.49
703.557	58.4
703.881	58.35
704.205	58.45
704.529	58.37
704.852	58.35
705.176	58.47
705.499	58.32
705.823	58.2
706.146	58.15
706.47	58.01
706.793	58.05
707.117	57.97
707.44	58.04
707.763	57.89
708.086	57.65
708.409	57.75
708.733	57.83
709.056	57.64
709.379	57.71
709.702	57.65
710.025	57.72
710.348	57.83
710.671	57.82
710.993	57.66
711.316	57.76
711.639	57.96
711.962	58.13
712.284	58.08
712.607	58.23
712.93	58.22
713.252	58.26
713.575	58.03
713.897	58.18
714.22	58.21
714.542	58.24
714.864	58.35
715.187	58.31
715.509	58.39
715.831	58.39
716.153	58.23
716.475	58.25
716.798	58.08
717.12	57.93
717.442	57.91
717.764	58.29
718.085	58.31
718.407	58.39
718.729	58.2
719.051	58.29
719.373	58.33
719.695	58.24
720.016	58.22
720.338	58.56
720.659	58.35
720.981	58.26
721.302	58.42
721.624	58.68
721.945	58.86
722.267	58.81
722.588	58.76
722.909	58.74
723.231	58.82
723.552	59.13
723.873	59.38
724.194	59.53
724.515	59.3
724.836	59.25
725.157	58.88
725.478	58.81
725.799	58.94
726.12	58.85
726.441	58.9
726.762	58.96
727.083	58.95
727.403	59.23
727.724	59.29
728.045	59.41
728.365	59.18
728.686	59.06
729.006	59.03
729.327	58.89
729.647	59.16
729.967	59.06
730.288	58.71
730.608	58.53
730.928	58.36
731.249	58.56
731.569	58.59
731.889	58.74
732.209	58.85
732.529	58.75
732.849	58.83
733.169	58.95
733.489	58.82
733.809	59.04
734.129	59.07
734.448	58.88
734.768	58.65
735.088	58.78
735.408	58.83
735.727	58.8
736.047	58.95
736.366	58.9
736.686	58.89
737.005	59.27
737.325	58.95
737.644	59.22
737.963	59.04
738.283	59
738.602	58.97
738.921	58.67
739.24	58.93
739.56	58.89
739.879	58.84
740.198	58.95
740.517	58.77
740.836	58.63
741.155	58.69
741.473	58.82
741.792	58.67
742.111	58.87
742.43	59.34
742.748	59.59
743.067	59.39
743.386	59.07
743.704	58.77
744.023	59.5
744.341	59.22
744.66	58.85
744.978	58.84
745.297	58.77
745.615	59.04
745.933	59.19
746.252	59.08
746.57	59.2
746.888	58.99
747.206	58.95
747.524	59.03
747.842	58.87
748.16	58.51
748.478	58.58
748.796	58.34
749.114	57.87
749.432	57.27
749.749	57.32
750.067	57.47
750.385	57.69
750.703	57.42
751.02	57.22
751.338	57.58
751.655	57.71
751.973	58.02
752.29	58.13
752.608	57.78
752.925	57.92
753.242	57.92
753.56	58
753.877	57.75
754.194	58.03
754.511	58.64
754.828	58.72
755.145	58.71
755.462	58.99
755.779	59.12
756.096	59.47
756.413	59.77
756.73	59.73
757.047	59.5
757.364	59.6
757.68	59.9
757.997	60.12
758.314	60.08
758.63	59.6
758.947	59.34
759.264	59.47
759.58	59.76
759.896	59.52
760.213	59.93
760.529	60.16
760.846	59.84
761.162	59.42
761.478	59.56
761.794	59.68
762.11	59.56
762.426	59.86
762.743	59.99
763.059	59.89
763.375	60.16
763.69	60.23
764.006	60.36
764.322	60.51
764.638	60.31
764.954	60.2
765.27	60.63
765.585	60.69
765.901	60.55
766.216	60.64
766.532	60.9
766.848	60.7
767.163	60.59
767.478	60.6
767.794	60.82
768.109	60.79
768.424	60.95
768.74	60.95
769.055	60.6
769.37	60.42
769.685	60.21
770	60.2
770.315	60.1
770.63	59.76
770.945	60.05
771.26	60
771.575	60.35
771.89	59.97
772.205	59.92
772.52	59.82
772.834	59.66
773.149	59.65
773.464	59.76
773.778	60.25
774.093	60.57
774.407	60.66
774.722	60.92
775.036	60.29
775.351	60.64
775.665	60.28
775.979	60.02
776.293	60.08
776.608	59.92
776.922	59.92
777.236	60.28
777.55	59.94
777.864	59.62
778.178	59.1
778.492	59.24
778.806	59.23
779.12	59.79
779.434	59.25
779.747	59.38
780.061	58.95
780.375	58.1
780.689	57.86
781.002	58.25
781.316	57.85
781.629	57.7
781.943	57.44
782.256	58
782.57	58.24
782.883	57.85
783.196	57.96
783.51	57.81
783.823	57.67
784.136	57.39
784.449	57.43
784.762	57.94
785.075	57.35
785.388	57.5
785.701	57.23
786.014	57.4
786.327	56.89
786.64	56.58
786.953	57.14
787.266	57.09
787.578	56.27
787.891	56.91
788.204	57.62
788.516	57.57
788.829	57.05
789.141	57.36
789.454	57.8
789.766	58.14
790.079	58.57
790.391	58.35
790.703	58.25
791.016	58.55
791.328	58.37
791.64	58.57
791.952	58.74
792.264	58.82
792.576	59.21
792.888	59.7
793.2	60.87
793.512	60.73
793.824	61.36
794.136	62.22
794.448	61.82
794.76	61.43
795.071	61.21
795.383	61.31
795.695	61.06
796.006	60.94
796.318	60.22
796.629	59.84
796.941	60.45
797.252	60.26
797.564	60.73
797.875	60.7
798.186	61.19
798.497	61.16
798.809	60.89
799.12	60.23
799.431	59.96
799.742	59.31
800.053	59.15
800.364	58.81
800.675	58.47
800.986	58.66
801.297	58.89
801.608	59.27
801.918	60.21
802.229	59.8
802.54	59.48
802.851	59.08
803.161	59.54
803.472	58.65
803.782	59.05
804.093	58.62
804.403	58.55
804.714	57.85
805.024	58.01
805.334	58.23
805.645	58.58
805.955	58.26
806.265	58.29
806.575	58.68
806.885	58.26
807.195	58.25
807.505	57.65
807.815	58.17
808.125	57.74
808.435	56.94
808.745	57.11
809.055	57.44
809.365	58.17
809.674	57.86
809.984	57.73
810.294	58.38
810.603	57.94
810.913	57.41
811.222	58.43
811.532	57.92
811.841	58.12
812.151	57.56
812.46	58.22
812.769	58.21
813.079	58.37
813.388	58.69
813.697	57.85
814.006	59.38
814.315	58.5
814.624	58.81
814.933	59.27
815.242	59.77
815.551	59.69
815.86	59.95
816.169	60.17
816.478	59.75
816.786	58.99
817.095	59.04
817.404	60.34
817.712	59.88
818.021	59.92
818.33	59.61
818.638	60.49
818.947	59.81
819.255	60.24
819.563	60.45
819.872	60.51
820.18	60.72
820.488	60.45
820.796	60.56
821.105	61.08
821.413	61.11
821.721	61.09
822.029	60.99
822.337	61.03
822.645	60.78
822.953	61.04
823.26	61.25
823.568	61.08
823.876	60.92
824.184	61.05
824.491	61.13
824.799	61.37
825.107	61.38
825.414	61.62
825.722	61.46
826.029	61.37
826.337	61.22
826.644	61.38
826.951	61.1
827.259	61.33
827.566	61.18
827.873	61.02
828.18	61.08
828.488	61.4
828.795	61.59
829.102	62
829.409	61.78
829.716	61.7
830.023	62.08
830.329	62.33
830.636	62.49
830.943	62.42
831.25	62.17
831.557	62.19
831.863	61.92
832.17	62.45
832.476	62.71
832.783	63.28
833.089	63.39
833.396	64.01
833.702	64.05
834.009	63.89
834.315	63.92
834.621	64.6
834.928	64.15
835.234	64.33
835.54	64.1
835.846	64.75
836.152	64.76
836.458	65.17
836.764	65.05
837.07	64.76
837.376	65.53
837.682	64.98
837.988	65.54
838.293	65.93
838.599	65.9
838.905	65.28
839.211	65.25
839.516	65
839.822	63.97
840.127	63.82
840.433	63.77
840.738	64.8
841.044	63.24
841.349	63.28
841.654	62.11
841.959	62.88
842.265	62.49
842.57	63.61
842.875	63.69
843.18	63.66
843.485	62.63
843.79	60.84
844.095	61.93
844.4	61.26
844.705	62.23
845.01	60.48
845.315	61.36
845.619	61.37
845.924	61.4
846.229	62.19
846.533	61.36
846.838	62.73
847.142	62.27
847.447	62.83
847.751	62.74
848.056	61.87
848.36	60.46
848.664	61.02
848.969	57.6
849.273	57.55
849.577	54.83
849.881	54.27
850.185	54.01
850.489	53.3
850.794	52.82
851.097	51.79
851.401	53.98
851.705	53.88
852.009	53.96
852.313	53.02
852.617	54.81
852.92	55.33
853.224	53.62
853.528	53.57
853.831	54.32
854.135	53.95
854.438	56.21
854.742	59.74
855.045	59.77
855.349	60.15
855.652	59.24
855.955	60.63
856.259	63.74
856.562	65.7
856.865	68.74
857.168	67.04
857.471	68.08
857.774	67.68
858.077	67.08
858.38	67.36
858.683	66.31
858.986	65.16
859.289	64.62
859.592	64.36
859.894	62.45
860.197	62.1
860.5	64.42
860.802	62.66
861.105	58.1
861.407	57.43
861.71	57.45
862.012	56.81
862.315	57.98
862.617	55.82
862.919	54.96
863.222	52.98
863.524	53.48
863.826	53.55
864.128	54.3
864.43	55.05
864.732	53.91
865.034	54.07
865.336	52.57
865.638	51.48
865.94	51.17
866.242	51.37
866.544	52.47
866.846	52.15
867.147	51.98
867.449	53.8
867.751	52.34
868.052	52.77
868.354	55.66
868.655	55.79
868.957	54.9
869.258	53.11
869.56	51.06
869.861	48.56
870.162	47.19
870.463	45.57
870.765	46.86
871.066	48.73
871.367	49.32
871.668	50.12
871.969	51.49
872.27	50.53
872.571	50.42
872.872	48.31
873.173	48.41
873.473	47.68
873.774	48.19
874.075	50.96
874.376	50.81
874.676	47.57
874.977	48.1
875.277	47.23
875.578	50.37
875.878	51.66
876.179	54.17
876.479	54.23
876.78	55.01
877.08	51.78
877.38	49.41
877.68	50.06
877.981	52.08
878.281	51.96
878.581	54.46
