Data from MVZ_BU165823_Reflection_00010.txt Node
Date: Tue Nov 19 12:10:33 EST 2019
User: vgr7
Spectrometer: USB2G7710
Scans to average: 3
Trigger mode: 4
Integration Time (sec): 2.000000E-2
Electric dark correction enabled: true
Boxcar width: 10
XAxis mode: Wavelengths
Number of Pixels in Spectrum: 2048
>>>>>Begin Spectral Data<<<<<
177.721	26.81
178.105	58.53
178.488	47.96
178.871	77.69
179.254	4.26
179.636	55.67
180.019	55.19
180.402	225
180.785	-62.3
181.168	-12.81
181.55	-35.19
181.933	28.97
182.316	-64.74
182.698	-854.55
183.081	-20.44
183.463	301.03
183.846	436.73
184.228	23.5
184.611	9.68
184.993	22.34
185.376	15.05
185.758	11.89
186.14	8.87
186.522	16.71
186.904	25.59
187.287	11.21
187.669	21.35
188.051	15.99
188.433	12.17
188.815	11.07
189.197	12.68
189.579	2.71
189.961	1.29
190.342	-1.26
190.724	-7.99
191.106	-15.38
191.488	-25.38
191.869	-14.17
192.251	-16.98
192.633	2.88
193.014	1.6
193.396	-3.48
193.777	16.72
194.159	34.95
194.54	32.87
194.922	31.05
195.303	12.9
195.684	-40.54
196.065	-42.17
196.447	-30.34
196.828	-25.78
197.209	-8.98
197.59	-7.9
197.971	3.4
198.352	2.56
198.733	7.67
199.114	-9.03
199.495	6.75
199.876	-5.24
200.257	3.28
200.638	-39.27
201.018	-36.67
201.399	-27.04
201.78	-47
202.16	-92.49
202.541	-74.69
202.922	-100.65
203.302	-72.74
203.683	-47.39
204.063	-49.55
204.444	-56.93
204.824	-51.99
205.204	-69.83
205.585	-45.51
205.965	-45.36
206.345	-65.11
206.725	-59.08
207.106	-23
207.486	-32.91
207.866	-33.31
208.246	-23.31
208.626	-24.27
209.006	-18.41
209.386	-11.4
209.766	-12.14
210.145	-6.72
210.525	-16.2
210.905	-2.42
211.285	-3.77
211.664	-1.96
212.044	4.31
212.424	16.5
212.803	9.76
213.183	11.27
213.562	10.35
213.942	5.32
214.321	6.1
214.701	-11.87
215.08	-29.47
215.459	-12.23
215.838	1.47
216.218	-5.53
216.597	0.24
216.976	-44.01
217.355	-46.75
217.734	-84.93
218.113	-54.22
218.492	-51.56
218.871	-68.2
219.25	-62.92
219.629	-84.96
220.008	-59.78
220.387	-70.99
220.766	-41.38
221.144	-46.84
221.523	-53.28
221.902	-36.22
222.28	-31.2
222.659	5.77
223.037	10.09
223.416	8.07
223.794	2.31
224.173	9.16
224.551	24.06
224.929	28.19
225.308	22.05
225.686	16.89
226.064	23.47
226.442	28.8
226.821	30.1
227.199	25.89
227.577	26.64
227.955	23.24
228.333	18.42
228.711	20.66
229.089	22.62
229.467	19.39
229.845	17.93
230.222	17.73
230.6	12.18
230.978	10.66
231.356	9.71
231.733	10.67
232.111	11.33
232.488	10.86
232.866	12.58
233.243	13.97
233.621	18.19
233.998	16.21
234.376	14.09
234.753	12.22
235.13	13.61
235.508	12.85
235.885	10.52
236.262	11.06
236.639	7.22
237.016	6.95
237.393	7.57
237.77	6.77
238.147	5.66
238.524	6.4
238.901	6.11
239.278	5.01
239.655	4.99
240.032	3.47
240.409	2.59
240.785	2.41
241.162	2.17
241.539	1.52
241.915	1.74
242.292	1.7
242.668	2.26
243.045	2.54
243.421	3.03
243.798	3.65
244.174	4.05
244.551	4.28
244.927	4.22
245.303	3.71
245.679	3.85
246.056	3.72
246.432	3.76
246.808	3.67
247.184	3.73
247.56	3.45
247.936	3.71
248.312	3.77
248.688	3.87
249.064	3.72
249.44	3.7
249.815	3.79
250.191	3.87
250.567	3.9
250.943	4.08
251.318	4
251.694	3.86
252.069	3.55
252.445	3.88
252.82	3.91
253.196	4.35
253.571	4.33
253.947	4.82
254.322	4.74
254.697	4.8
255.073	4.77
255.448	4.99
255.823	4.92
256.198	4.51
256.573	4.15
256.948	4.25
257.323	4.41
257.698	4.37
258.073	4.39
258.448	4.39
258.823	3.9
259.198	3.77
259.573	3.66
259.948	3.63
260.322	3.39
260.697	3.49
261.072	3.34
261.446	3.22
261.821	3.16
262.195	3.24
262.57	3.29
262.944	3.37
263.319	3.31
263.693	3.4
264.067	3.44
264.442	3.47
264.816	3.53
265.19	3.45
265.564	3.38
265.938	3.16
266.313	2.94
266.687	3.16
267.061	3.2
267.435	3.24
267.809	3.33
268.183	3.32
268.556	3.02
268.93	3.39
269.304	3.52
269.678	3.47
270.051	3.34
270.425	3.34
270.799	3.2
271.172	3.22
271.546	3.25
271.919	3.23
272.293	3.32
272.666	3.31
273.04	3.36
273.413	3.32
273.787	3.48
274.16	3.46
274.533	3.55
274.906	3.5
275.279	3.6
275.653	3.65
276.026	3.57
276.399	3.58
276.772	3.59
277.145	3.48
277.518	3.45
277.891	3.43
278.263	3.38
278.636	3.5
279.009	3.41
279.382	3.19
279.755	3.26
280.127	3.24
280.5	3.18
280.872	3.08
281.245	3.3
281.617	3.27
281.99	3.35
282.362	3.12
282.735	3.14
283.107	2.95
283.479	2.82
283.852	3.05
284.224	3.18
284.596	2.96
284.968	2.96
285.34	2.96
285.713	3.12
286.085	3.06
286.457	2.93
286.829	2.93
287.201	3.01
287.572	2.99
287.944	2.99
288.316	2.9
288.688	2.83
289.06	2.67
289.431	2.68
289.803	2.82
290.175	2.82
290.546	2.88
290.918	2.95
291.289	2.96
291.661	2.8
292.032	2.78
292.403	2.81
292.775	2.92
293.146	2.91
293.517	2.75
293.889	2.72
294.26	2.84
294.631	2.86
295.002	2.76
295.373	2.75
295.744	2.86
296.115	3.12
296.486	3.24
296.857	3.39
297.228	3.41
297.599	3.29
297.97	3.59
298.34	3.51
298.711	3.51
299.082	3.58
299.452	3.56
299.823	3.46
300.194	3.59
300.564	3.58
300.935	3.77
301.305	3.86
301.676	4
302.046	4.04
302.416	4.22
302.787	4.32
303.157	4.49
303.527	4.55
303.897	4.51
304.267	4.59
304.637	4.52
305.008	4.47
305.378	4.5
305.748	4.38
306.117	4.48
306.487	4.48
306.857	4.57
307.227	4.74
307.597	4.94
307.967	5.04
308.336	5.06
308.706	5.04
309.076	5.05
309.445	5.24
309.815	5.27
310.184	5.1
310.554	5.24
310.923	5.23
311.293	5.13
311.662	5.12
312.031	5.13
312.401	5.06
312.77	5.1
313.139	5.18
313.508	5.21
313.877	5.24
314.246	5.27
314.616	5.31
314.985	5.33
315.353	5.38
315.722	5.48
316.091	5.54
316.46	5.62
316.829	5.65
317.198	5.59
317.567	5.72
317.935	5.76
318.304	5.97
318.672	5.98
319.041	6.22
319.41	6.12
319.778	6.04
320.147	6.28
320.515	6.33
320.883	6.47
321.252	6.51
321.62	6.39
321.988	6.39
322.357	6.4
322.725	6.41
323.093	6.28
323.461	6.13
323.829	6.09
324.197	6.1
324.565	6.16
324.933	6.13
325.301	6.02
325.669	6.05
326.037	5.91
326.405	6.01
326.772	5.97
327.14	6.13
327.508	6.28
327.875	6.28
328.243	6.39
328.61	6.26
328.978	6.13
329.346	6.25
329.713	6.36
330.08	6.48
330.448	6.63
330.815	6.87
331.182	6.82
331.55	6.9
331.917	6.74
332.284	6.77
332.651	6.84
333.018	7.07
333.385	7.33
333.752	7.27
334.119	7.21
334.486	7.2
334.853	7.24
335.22	7.21
335.587	7.12
335.954	7.11
336.32	7.21
336.687	7.4
337.054	7.46
337.42	7.42
337.787	7.31
338.153	7.29
338.52	7.24
338.886	7.32
339.253	7.3
339.619	7.3
339.986	7.27
340.352	7.28
340.718	7.15
341.084	7.15
341.451	7.2
341.817	7.21
342.183	7.2
342.549	7.16
342.915	7.12
343.281	7.15
343.647	7.16
344.013	7.13
344.379	7.09
344.745	7.19
345.11	7.26
345.476	7.43
345.842	7.32
346.208	7.35
346.573	7.3
346.939	7.38
347.304	7.45
347.67	7.42
348.035	7.41
348.401	7.3
348.766	7.21
349.132	7.26
349.497	7.28
349.862	7.24
350.228	7.17
350.593	7.22
350.958	7.31
351.323	7.3
351.688	7.32
352.053	7.24
352.418	7.06
352.783	7.12
353.148	7.02
353.513	7.06
353.878	7.06
354.243	7.02
354.608	7.13
354.972	7.17
355.337	7.2
355.702	7.22
356.066	7.27
356.431	7.25
356.795	7.2
357.16	7.09
357.524	7.06
357.889	7.07
358.253	7.03
358.618	6.89
358.982	6.83
359.346	6.79
359.71	6.82
360.075	6.93
360.439	6.85
360.803	6.84
361.167	6.83
361.531	6.79
361.895	6.89
362.259	6.78
362.623	6.74
362.987	6.74
363.351	6.68
363.714	6.78
364.078	6.73
364.442	6.67
364.806	6.73
365.169	6.7
365.533	6.66
365.896	6.63
366.26	6.68
366.623	6.65
366.987	6.57
367.35	6.57
367.714	6.46
368.077	6.44
368.44	6.44
368.803	6.36
369.167	6.27
369.53	6.18
369.893	6.09
370.256	5.96
370.619	5.89
370.982	5.78
371.345	5.63
371.708	5.67
372.071	5.65
372.434	5.56
372.797	5.61
373.159	5.63
373.522	5.57
373.885	5.58
374.247	5.63
374.61	5.7
374.973	5.61
375.335	5.63
375.698	5.53
376.06	5.46
376.423	5.43
376.785	5.46
377.147	5.37
377.51	5.39
377.872	5.42
378.234	5.39
378.596	5.41
378.958	5.42
379.321	5.35
379.683	5.3
380.045	5.28
380.407	5.23
380.769	5.14
381.13	5.14
381.492	5.03
381.854	4.98
382.216	4.89
382.578	4.85
382.939	4.73
383.301	4.72
383.663	4.69
384.024	4.7
384.386	4.6
384.747	4.61
385.109	4.52
385.47	4.48
385.832	4.45
386.193	4.45
386.554	4.39
386.916	4.37
387.277	4.29
387.638	4.31
387.999	4.26
388.36	4.19
388.721	4.16
389.082	4.18
389.443	4.12
389.804	4.1
390.165	4.09
390.526	4.08
390.887	4.03
391.248	3.98
391.609	3.96
391.969	3.95
392.33	3.88
392.691	3.85
393.051	3.82
393.412	3.75
393.772	3.72
394.133	3.67
394.493	3.66
394.854	3.67
395.214	3.6
395.574	3.58
395.935	3.59
396.295	3.57
396.655	3.52
397.015	3.5
397.376	3.52
397.736	3.48
398.096	3.46
398.456	3.48
398.816	3.48
399.176	3.42
399.535	3.38
399.895	3.39
400.255	3.39
400.615	3.37
400.975	3.41
401.334	3.39
401.694	3.44
402.054	3.41
402.413	3.4
402.773	3.42
403.132	3.38
403.492	3.39
403.851	3.39
404.211	3.4
404.57	3.36
404.929	3.28
405.288	3.3
405.648	3.28
406.007	3.28
406.366	3.27
406.725	3.25
407.084	3.26
407.443	3.23
407.802	3.21
408.161	3.21
408.52	3.21
408.879	3.2
409.238	3.14
409.596	3.13
409.955	3.11
410.314	3.06
410.673	3.05
411.031	3.01
411.39	3.02
411.748	3.01
412.107	3.01
412.465	3.02
412.824	2.99
413.182	3.01
413.54	3.01
413.899	3
414.257	3.01
414.615	3.01
414.974	3.03
415.332	3.03
415.69	3.02
416.048	2.98
416.406	2.96
416.764	2.99
417.122	2.99
417.48	3
417.838	3.02
418.195	3.01
418.553	3
418.911	2.97
419.269	2.97
419.626	2.98
419.984	2.97
420.342	2.96
420.699	2.93
421.057	2.92
421.414	2.91
421.772	2.88
422.129	2.86
422.486	2.85
422.844	2.84
423.201	2.84
423.558	2.83
423.915	2.84
424.273	2.82
424.63	2.82
424.987	2.81
425.344	2.79
425.701	2.79
426.058	2.8
426.415	2.79
426.772	2.76
427.128	2.75
427.485	2.76
427.842	2.75
428.199	2.75
428.555	2.74
428.912	2.73
429.269	2.74
429.625	2.76
429.982	2.75
430.338	2.76
430.695	2.75
431.051	2.75
431.407	2.75
431.764	2.74
432.12	2.73
432.476	2.74
432.832	2.73
433.189	2.72
433.545	2.7
433.901	2.69
434.257	2.69
434.613	2.68
434.969	2.68
435.325	2.68
435.681	2.68
436.036	2.69
436.392	2.69
436.748	2.69
437.104	2.68
437.459	2.67
437.815	2.64
438.171	2.66
438.526	2.65
438.882	2.64
439.237	2.64
439.593	2.63
439.948	2.63
440.304	2.63
440.659	2.63
441.014	2.63
441.369	2.64
441.725	2.64
442.08	2.64
442.435	2.63
442.79	2.64
443.145	2.63
443.5	2.62
443.855	2.6
444.21	2.6
444.565	2.6
444.92	2.61
445.275	2.61
445.629	2.6
445.984	2.62
446.339	2.63
446.693	2.62
447.048	2.62
447.403	2.61
447.757	2.61
448.112	2.61
448.466	2.61
448.82	2.61
449.175	2.62
449.529	2.62
449.883	2.62
450.238	2.61
450.592	2.62
450.946	2.62
451.3	2.62
451.654	2.62
452.008	2.61
452.362	2.61
452.716	2.62
453.07	2.63
453.424	2.59
453.778	2.56
454.132	2.57
454.486	2.57
454.839	2.58
455.193	2.6
455.547	2.6
455.9	2.59
456.254	2.58
456.607	2.57
456.961	2.56
457.314	2.56
457.668	2.57
458.021	2.56
458.375	2.55
458.728	2.55
459.081	2.56
459.434	2.57
459.787	2.56
460.141	2.56
460.494	2.58
460.847	2.59
461.2	2.6
461.553	2.6
461.906	2.6
462.259	2.6
462.611	2.58
462.964	2.59
463.317	2.6
463.67	2.61
464.022	2.62
464.375	2.63
464.728	2.65
465.08	2.65
465.433	2.66
465.785	2.68
466.138	2.7
466.49	2.71
466.843	2.7
467.195	2.73
467.547	2.72
467.899	2.73
468.252	2.75
468.604	2.78
468.956	2.78
469.308	2.79
469.66	2.78
470.012	2.79
470.364	2.81
470.716	2.81
471.068	2.82
471.42	2.83
471.772	2.84
472.123	2.84
472.475	2.86
472.827	2.87
473.178	2.84
473.53	2.8
473.882	2.79
474.233	2.8
474.585	2.81
474.936	2.79
475.288	2.76
475.639	2.76
475.99	2.76
476.342	2.76
476.693	2.75
477.044	2.76
477.395	2.78
477.746	2.78
478.097	2.76
478.448	2.76
478.8	2.76
479.15	2.74
479.501	2.72
479.852	2.7
480.203	2.69
480.554	2.69
480.905	2.71
481.255	2.7
481.606	2.71
481.957	2.71
482.307	2.72
482.658	2.73
483.009	2.73
483.359	2.72
483.709	2.73
484.06	2.74
484.41	2.73
484.761	2.74
485.111	2.73
485.461	2.73
485.811	2.74
486.162	2.73
486.512	2.75
486.862	2.74
487.212	2.76
487.562	2.76
487.912	2.77
488.262	2.77
488.612	2.77
488.961	2.77
489.311	2.76
489.661	2.76
490.011	2.77
490.36	2.75
490.71	2.76
491.06	2.75
491.409	2.74
491.759	2.74
492.108	2.73
492.458	2.72
492.807	2.72
493.157	2.73
493.506	2.75
493.855	2.75
494.204	2.76
494.554	2.77
494.903	2.78
495.252	2.8
495.601	2.81
495.95	2.82
496.299	2.82
496.648	2.84
496.997	2.87
497.346	2.89
497.695	2.91
498.043	2.94
498.392	2.96
498.741	3
499.09	3.03
499.438	3.07
499.787	3.13
500.135	3.15
500.484	3.17
500.832	3.19
501.181	3.19
501.529	3.21
501.878	3.23
502.226	3.26
502.574	3.27
502.923	3.32
503.271	3.35
503.619	3.4
503.967	3.44
504.315	3.48
504.663	3.49
505.011	3.52
505.359	3.55
505.707	3.59
506.055	3.62
506.403	3.65
506.751	3.68
507.098	3.7
507.446	3.75
507.794	3.76
508.141	3.8
508.489	3.85
508.837	3.91
509.184	3.96
509.531	4
509.879	4.05
510.226	4.08
510.574	4.15
510.921	4.2
511.268	4.24
511.616	4.3
511.963	4.39
512.31	4.46
512.657	4.5
513.004	4.56
513.351	4.61
513.698	4.68
514.045	4.74
514.392	4.81
514.739	4.88
515.086	4.98
515.432	5.05
515.779	5.14
516.126	5.21
516.473	5.26
516.819	5.34
517.166	5.41
517.512	5.48
517.859	5.52
518.205	5.58
518.552	5.65
518.898	5.7
519.245	5.75
519.591	5.82
519.937	5.91
520.283	5.99
520.629	6.06
520.976	6.13
521.322	6.22
521.668	6.32
522.014	6.4
522.36	6.48
522.706	6.57
523.052	6.66
523.398	6.78
523.743	6.93
524.089	7.04
524.435	7.15
524.781	7.27
525.126	7.37
525.472	7.48
525.817	7.56
526.163	7.65
526.509	7.73
526.854	7.8
527.199	7.88
527.545	7.94
527.89	8.02
528.235	8.08
528.581	8.13
528.926	8.2
529.271	8.28
529.616	8.35
529.961	8.43
530.306	8.51
530.651	8.58
530.996	8.65
531.341	8.74
531.686	8.83
532.031	8.93
532.376	9.02
532.721	9.11
533.065	9.22
533.41	9.31
533.755	9.42
534.099	9.5
534.444	9.59
534.788	9.69
535.133	9.79
535.477	9.92
535.822	10.06
536.166	10.21
536.51	10.34
536.855	10.48
537.199	10.64
537.543	10.8
537.887	10.96
538.231	11.1
538.576	11.27
538.92	11.45
539.264	11.58
539.608	11.73
539.951	11.88
540.295	12.02
540.639	12.16
540.983	12.29
541.327	12.43
541.671	12.57
542.014	12.71
542.358	12.83
542.701	12.96
543.045	13.08
543.389	13.22
543.732	13.35
544.075	13.5
544.419	13.63
544.762	13.78
545.105	13.96
545.449	14.11
545.792	14.27
546.135	14.44
546.478	14.62
546.821	14.8
547.165	14.98
547.508	15.18
547.851	15.36
548.194	15.56
548.536	15.75
548.879	15.97
549.222	16.18
549.565	16.4
549.908	16.61
550.25	16.84
550.593	17.02
550.936	17.27
551.278	17.48
551.621	17.77
551.963	18
552.306	18.2
552.648	18.42
552.991	18.65
553.333	18.85
553.675	19.09
554.017	19.32
554.36	19.5
554.702	19.74
555.044	19.97
555.386	20.18
555.728	20.41
556.07	20.61
556.412	20.85
556.754	21.04
557.096	21.31
557.438	21.48
557.78	21.76
558.121	22.01
558.463	22.25
558.805	22.44
559.147	22.68
559.488	22.89
559.83	23.16
560.171	23.38
560.513	23.63
560.854	23.87
561.196	24.12
561.537	24.35
561.878	24.56
562.22	24.79
562.561	25.05
562.902	25.33
563.243	25.55
563.584	25.8
563.925	26.12
564.266	26.32
564.607	26.58
564.948	26.75
565.289	26.97
565.63	27.18
565.971	27.42
566.312	27.6
566.653	27.87
566.993	28.1
567.334	28.31
567.675	28.55
568.015	28.75
568.356	28.99
568.696	29.26
569.037	29.47
569.377	29.7
569.718	29.92
570.058	30.17
570.398	30.44
570.739	30.64
571.079	30.76
571.419	30.98
571.759	31.19
572.099	31.38
572.439	31.6
572.779	31.83
573.119	32.05
573.459	32.21
573.799	32.33
574.139	32.52
574.479	32.78
574.819	32.97
575.158	33.15
575.498	33.3
575.838	33.44
576.177	33.6
576.517	33.77
576.856	33.94
577.196	34.09
577.535	34.22
577.875	34.42
578.214	34.66
578.553	34.84
578.893	35.06
579.232	35.33
579.571	35.49
579.91	35.64
580.25	35.75
580.589	35.95
580.928	36.16
581.267	36.29
581.606	36.37
581.945	36.53
582.283	36.7
582.622	36.87
582.961	37.09
583.3	37.31
583.639	37.48
583.977	37.62
584.316	37.84
584.654	38.06
584.993	38.21
585.332	38.36
585.67	38.5
586.008	38.63
586.347	38.73
586.685	38.84
587.024	38.97
587.362	39.15
587.7	39.33
588.038	39.49
588.376	39.66
588.715	39.82
589.053	39.95
589.391	40.14
589.729	40.25
590.067	40.39
590.404	40.52
590.742	40.62
591.08	40.74
591.418	40.82
591.756	40.89
592.093	40.98
592.431	41.13
592.769	41.28
593.106	41.4
593.444	41.46
593.781	41.61
594.119	41.71
594.456	41.75
594.793	41.82
595.131	41.89
595.468	41.99
595.805	42.1
596.143	42.16
596.48	42.2
596.817	42.38
597.154	42.48
597.491	42.52
597.828	42.65
598.165	42.77
598.502	42.84
598.839	42.91
599.176	43.06
599.512	43.12
599.849	43.15
600.186	43.19
600.523	43.29
600.859	43.34
601.196	43.44
601.532	43.59
601.869	43.73
602.205	43.76
602.542	43.78
602.878	43.82
603.215	43.93
603.551	44
603.887	44.04
604.223	44.06
604.56	44.13
604.896	44.12
605.232	44.17
605.568	44.27
605.904	44.23
606.24	44.27
606.576	44.33
606.912	44.47
607.248	44.56
607.583	44.65
607.919	44.71
608.255	44.8
608.591	44.79
608.926	44.79
609.262	44.94
609.597	45.03
609.933	45.09
610.268	45.06
610.604	45.03
610.939	45
611.275	45.02
611.61	45.07
611.945	45.17
612.281	45.25
612.616	45.27
612.951	45.46
613.286	45.5
613.621	45.51
613.956	45.51
614.291	45.59
614.626	45.65
614.961	45.79
615.296	45.86
615.631	45.96
615.966	45.99
616.3	46.09
616.635	46.17
616.97	46.18
617.304	46.25
617.639	46.47
617.973	46.56
618.308	46.63
618.642	46.71
618.977	46.76
619.311	46.71
619.646	46.78
619.98	46.8
620.314	46.79
620.648	46.94
620.983	46.93
621.317	46.97
621.651	47.06
621.985	47.01
622.319	47
622.653	47.03
622.987	47.04
623.321	46.97
623.655	47.01
623.988	47.13
624.322	47.18
624.656	47.2
624.99	47.21
625.323	47.23
625.657	47.19
625.99	47.26
626.324	47.4
626.657	47.37
626.991	47.46
627.324	47.46
627.658	47.49
627.991	47.54
628.324	47.48
628.657	47.39
628.991	47.43
629.324	47.48
629.657	47.48
629.99	47.64
630.323	47.63
630.656	47.67
630.989	47.73
631.322	47.75
631.655	47.76
631.987	47.84
632.32	47.88
632.653	47.99
632.986	47.92
633.318	47.95
633.651	47.94
633.984	47.97
634.316	48.07
634.649	48.08
634.981	48.1
635.313	48.18
635.646	48.23
635.978	48.24
636.31	48.33
636.643	48.35
636.975	48.26
637.307	48.27
637.639	48.23
637.971	48.21
638.303	48.24
638.635	48.24
638.967	48.2
639.299	48.3
639.631	48.33
639.963	48.43
640.295	48.43
640.626	48.49
640.958	48.51
641.29	48.57
641.621	48.49
641.953	48.36
642.285	48.39
642.616	48.5
642.948	48.64
643.279	48.55
643.61	48.63
643.942	48.7
644.273	48.8
644.604	48.82
644.936	48.83
645.267	48.85
645.598	48.88
645.929	48.93
646.26	48.86
646.591	48.89
646.922	48.89
647.253	48.89
647.584	48.88
647.915	48.84
648.245	48.95
648.576	49.04
648.907	49.31
649.238	49.3
649.568	49.35
649.899	49.38
650.229	49.4
650.56	49.47
650.89	49.6
651.221	49.59
651.551	49.52
651.882	49.62
652.212	49.69
652.542	49.7
652.872	49.72
653.203	49.78
653.533	49.82
653.863	49.78
654.193	49.7
654.523	49.71
654.853	49.72
655.183	49.56
655.513	49.64
655.843	49.61
656.172	49.71
656.502	49.76
656.832	49.73
657.162	49.74
657.491	49.69
657.821	49.58
658.15	49.62
658.48	49.8
658.809	49.66
659.139	49.58
659.468	49.55
659.798	49.6
660.127	49.65
660.456	49.64
660.785	49.78
661.115	49.78
661.444	49.78
661.773	49.76
662.102	49.8
662.431	49.73
662.76	49.77
663.089	49.76
663.418	49.72
663.747	49.66
664.076	49.67
664.404	49.67
664.733	49.66
665.062	49.64
665.39	49.54
665.719	49.61
666.048	49.56
666.376	49.63
666.705	49.6
667.033	49.65
667.362	49.73
667.69	49.72
668.018	49.84
668.347	49.96
668.675	49.99
669.003	50.04
669.331	50.1
669.659	50.06
669.987	50.05
670.315	50.03
670.643	49.99
670.971	50.04
671.299	50.13
671.627	50.19
671.955	50.27
672.283	50.24
672.61	50.25
672.938	50.45
673.266	50.48
673.593	50.55
673.921	50.45
674.249	50.36
674.576	50.4
674.904	50.34
675.231	50.39
675.558	50.43
675.886	50.57
676.213	50.53
676.54	50.67
676.867	50.74
677.195	50.91
677.522	51.02
677.849	51.04
678.176	51
678.503	51.05
678.83	51.13
679.157	51.37
679.484	51.44
679.81	51.37
680.137	51.35
680.464	51.32
680.791	51.4
681.117	51.37
681.444	51.28
681.771	51.36
682.097	51.45
682.424	51.53
682.75	51.37
683.077	51.5
683.403	51.38
683.729	51.32
684.056	51.21
684.382	51.33
684.708	51.29
685.034	51.48
685.36	51.52
685.686	51.53
686.012	51.43
686.339	51.4
686.664	51.45
686.99	51.25
687.316	51.28
687.642	51.17
687.968	51.33
688.294	51.48
688.619	51.33
688.945	51.21
689.271	51.22
689.596	51.36
689.922	51.3
690.247	51.43
690.573	51.57
690.898	51.43
691.224	51.49
691.549	51.55
691.874	51.48
692.2	51.4
692.525	51.32
692.85	51.16
693.175	51.34
693.5	51.47
693.825	51.74
694.15	51.92
694.475	52.2
694.8	52.17
695.125	52.09
695.45	52.25
695.775	52.21
696.099	52.35
696.424	52.35
696.749	52.41
697.073	52.37
697.398	52.32
697.723	52.42
698.047	52.25
698.372	52.39
698.696	52.39
699.02	52.45
699.345	52.57
699.669	52.7
699.993	52.74
700.318	52.64
700.642	52.7
700.966	52.66
701.29	52.47
701.614	52.47
701.938	52.34
702.262	52.3
702.586	52.4
702.91	52.2
703.234	52.19
703.557	52.26
703.881	52.19
704.205	52.29
704.529	52.25
704.852	52.36
705.176	52.26
705.499	52.12
705.823	52.18
706.146	52.17
706.47	52.11
706.793	52.06
707.117	52.07
707.44	52.13
707.763	52
708.086	51.99
708.409	52.03
708.733	52.31
709.056	52.16
709.379	52.25
709.702	52.29
710.025	52.45
710.348	52.33
710.671	52.44
710.993	52.35
711.316	52.39
711.639	52.38
711.962	52.62
712.284	52.63
712.607	52.57
712.93	52.58
713.252	52.67
713.575	52.74
713.897	52.99
714.22	53.17
714.542	53.23
714.864	53.19
715.187	53.1
715.509	53.13
715.831	53.26
716.153	53.19
716.475	53.29
716.798	53.26
717.12	53.31
717.442	53.13
717.764	53.14
718.085	53
718.407	53.28
718.729	53.08
719.051	53.3
719.373	53.45
719.695	53.54
720.016	53.53
720.338	53.44
720.659	53.1
720.981	52.59
721.302	52.55
721.624	52.79
721.945	52.78
722.267	52.72
722.588	53.06
722.909	53.12
723.231	53.33
723.552	53.29
723.873	53.21
724.194	53.59
724.515	53.74
724.836	53.96
725.157	53.63
725.478	53.45
725.799	53.31
726.12	53.17
726.441	53.07
726.762	52.98
727.083	52.78
727.403	52.91
727.724	53.04
728.045	53.24
728.365	53.2
728.686	53.11
729.006	52.99
729.327	52.93
729.647	52.87
729.967	52.55
730.288	52.62
730.608	52.56
730.928	52.5
731.249	52.26
731.569	52.22
731.889	52.17
732.209	52.24
732.529	52.23
732.849	52.3
733.169	52.15
733.489	52.26
733.809	52.47
734.129	52.6
734.448	52.63
734.768	52.24
735.088	52.08
735.408	52.43
735.727	52.56
736.047	52.58
736.366	52.65
736.686	52.85
737.005	52.78
737.325	52.88
737.644	52.69
737.963	52.71
738.283	52.8
738.602	52.7
738.921	52.92
739.24	52.72
739.56	52.92
739.879	52.87
740.198	53
740.517	52.89
740.836	52.56
741.155	52.47
741.473	52.83
741.792	53.34
742.111	52.93
742.43	53
742.748	52.89
743.067	52.76
743.386	52.82
743.704	52.89
744.023	53.05
744.341	53.17
744.66	53.36
744.978	53.44
745.297	53.45
745.615	53.33
745.933	54.02
746.252	53.8
746.57	53.81
746.888	53.82
747.206	54.11
747.524	54.23
747.842	54.31
748.16	54.16
748.478	54.03
748.796	54.57
749.114	54.47
749.432	54.44
749.749	54.31
750.067	54.39
750.385	54.59
750.703	54.6
751.02	54.62
751.338	54.57
751.655	54.69
751.973	54.96
752.29	54.88
752.608	54.18
752.925	54.11
753.242	54.33
753.56	54.32
753.877	53.89
754.194	53.82
754.511	54.02
754.828	54.04
755.145	53.8
755.462	53.37
755.779	53.64
756.096	53.5
756.413	53.84
756.73	53.84
757.047	53.55
757.364	53.5
757.68	53.46
757.997	53.55
758.314	53.58
758.63	53.24
758.947	53.13
759.264	53.29
759.58	53.3
759.896	53.1
760.213	53.3
760.529	53.58
760.846	53.79
761.162	53.66
761.478	53.79
761.794	53.69
762.11	53.67
762.426	53.65
762.743	53.4
763.059	53.37
763.375	53.19
763.69	53.34
764.006	53.31
764.322	53.38
764.638	53.7
764.954	53.51
765.27	53.62
765.585	53.42
765.901	53.39
766.216	53.32
766.532	53.27
766.848	53.2
767.163	52.93
767.478	52.83
767.794	52.79
768.109	52.91
768.424	52.84
768.74	52.9
769.055	52.67
769.37	53.02
769.685	52.89
770	53.02
770.315	52.64
770.63	52.89
770.945	52.7
771.26	52.15
771.575	52.47
771.89	52.67
772.205	53.4
772.52	53.34
772.834	53.6
773.149	53.91
773.464	53.59
773.778	53.72
774.093	53.89
774.407	53.82
774.722	53.63
775.036	53.9
775.351	54.16
775.665	54.45
775.979	54.66
776.293	54.81
776.608	54.75
776.922	54.9
777.236	54.82
777.55	55.23
777.864	55.29
778.178	54.83
778.492	54.69
778.806	54.33
779.12	54.63
779.434	54.18
779.747	54.04
780.061	54.34
780.375	54.59
780.689	54.6
781.002	54.42
781.316	54.43
781.629	54.79
781.943	54.8
782.256	54.58
782.57	54.73
782.883	54.3
783.196	54.45
783.51	54.31
783.823	54.54
784.136	54.04
784.449	53.86
784.762	53.86
785.075	54.05
785.388	54.48
785.701	54.46
786.014	54.86
786.327	55.16
786.64	54.72
786.953	54.7
787.266	55.07
787.578	55.16
787.891	55.65
788.204	55.55
788.516	55.33
788.829	55.39
789.141	55.17
789.454	55.71
789.766	55.81
790.079	56.38
790.391	55.76
790.703	56.11
791.016	56.43
791.328	56.59
791.64	56.81
791.952	56.75
792.264	56.58
792.576	56.34
792.888	56.56
793.2	57.18
793.512	57.04
793.824	56.4
794.136	56.52
794.448	56.18
794.76	56.21
795.071	56.91
795.383	56.79
795.695	56.43
796.006	56.66
796.318	56.07
796.629	55.7
796.941	55.65
797.252	55.2
797.564	55.28
797.875	54.91
798.186	54.33
798.497	53.66
798.809	53.51
799.12	53.9
799.431	53.42
799.742	53.05
800.053	53.02
800.364	53.48
800.675	53.39
800.986	52.94
801.297	52.52
801.608	51.77
801.918	52.15
802.229	52.51
802.54	52.08
802.851	52.82
803.161	52.61
803.472	52.86
803.782	52.97
804.093	52.48
804.403	53.3
804.714	54.37
805.024	54.77
805.334	55.36
805.645	54.65
805.955	54.68
806.265	54.97
806.575	55.38
806.885	54.05
807.195	54.82
807.505	54.82
807.815	54.84
808.125	55.39
808.435	55.21
808.745	54.52
809.055	55
809.365	54.29
809.674	54.84
809.984	55.26
810.294	55.27
810.603	55.99
810.913	54.99
811.222	54.27
811.532	55.09
811.841	54.38
812.151	54.41
812.46	54.43
812.769	53.45
813.079	52.93
813.388	54.43
813.697	53.99
814.006	54.3
814.315	54.26
814.624	53.81
814.933	53.36
815.242	54.48
815.551	53.93
815.86	54.71
816.169	54.48
816.478	53.62
816.786	53.65
817.095	53.17
817.404	53.66
817.712	53.43
818.021	53.25
818.33	53.48
818.638	54.22
818.947	54.68
819.255	55.22
819.563	55.09
819.872	54.69
820.18	54.51
820.488	55
820.796	54.97
821.105	54.93
821.413	55.13
821.721	54.98
822.029	54.89
822.337	54.71
822.645	54.71
822.953	54.87
823.26	55.08
823.568	55.09
823.876	55.03
824.184	55.05
824.491	54.89
824.799	55.07
825.107	55.05
825.414	54.98
825.722	55.02
826.029	55.14
826.337	55.2
826.644	55.36
826.951	55.16
827.259	55.13
827.566	55.03
827.873	55.09
828.18	55.28
828.488	55.35
828.795	55.42
829.102	55.4
829.409	55.56
829.716	55.32
830.023	55.64
830.329	55.49
830.636	55.22
830.943	55.53
831.25	55.68
831.557	55.53
831.863	55.25
832.17	54.77
832.476	54.41
832.783	54.45
833.089	54.42
833.396	54.51
833.702	54.94
834.009	55.33
834.315	55.03
834.621	54.84
834.928	54.95
835.234	55.08
835.54	55.23
835.846	54.96
836.152	55.28
836.458	54.88
836.764	55.65
837.07	56.16
837.376	55.99
837.682	55.43
837.988	55.44
838.293	56.21
838.599	57.38
838.905	57.82
839.211	58.5
839.516	59.17
839.822	60.05
840.127	58.8
840.433	59.48
840.738	60.1
841.044	60.05
841.349	60.23
841.654	60.17
841.959	60.43
842.265	60.3
842.57	59.82
842.875	60.45
843.18	60.01
843.485	60.21
843.79	59.74
844.095	61.28
844.4	61.6
844.705	61.87
845.01	60.51
845.315	60.47
845.619	59.24
845.924	57.62
846.229	56.16
846.533	58.73
846.838	57.18
847.142	54.88
847.447	54.06
847.751	53.82
848.056	53.63
848.36	54.04
848.664	54.36
848.969	55.08
849.273	55.55
849.577	55.35
849.881	56.23
850.185	56.19
850.489	52.81
850.794	51.13
851.097	48.9
851.401	48.41
851.705	50.06
852.009	51.49
852.313	52.48
852.617	52.55
852.92	51.98
853.224	53.93
853.528	54.74
853.831	55.15
854.135	55.76
854.438	56.75
854.742	55.49
855.045	56.02
855.349	54.93
855.652	53.47
855.955	54.64
856.259	53.74
856.562	54.96
856.865	57.19
857.168	60.71
857.471	61.21
857.774	62.33
858.077	62.46
858.38	62.47
858.683	61.56
858.986	63.87
859.289	64.56
859.592	62.18
859.894	60.87
860.197	62.61
860.5	64
860.802	63.86
861.105	65.09
861.407	64.18
861.71	63.69
862.012	64.39
862.315	63.27
862.617	63.74
862.919	63.53
863.222	62.31
863.524	62.87
863.826	62.7
864.128	63.53
864.43	61.55
864.732	61.38
865.034	63.79
865.336	60.55
865.638	60.96
865.94	64.37
866.242	67.94
866.544	67.02
866.846	65.42
867.147	64.24
867.449	65.26
867.751	64.92
868.052	65.59
868.354	66.78
868.655	65.69
868.957	65.98
869.258	64.27
869.56	65.21
869.861	60.77
870.162	61.32
870.463	57.97
870.765	58.72
871.066	59.67
871.367	57.95
871.668	56.82
871.969	54.87
872.27	52.68
872.571	52.02
872.872	51.18
873.173	50.64
873.473	49.43
873.774	48.65
874.075	50.41
874.376	51.31
874.676	50.45
874.977	51.89
875.277	48.91
875.578	48.3
875.878	47.71
876.179	49.45
876.479	49.46
876.78	51.17
877.08	50.73
877.38	48.02
877.68	47.22
877.981	48.8
878.281	50.38
878.581	49.4
