Data from MVZ_BU8943_Reflection_00003.txt Node
Date: Tue Nov 19 12:08:58 EST 2019
User: vgr7
Spectrometer: USB2G7710
Scans to average: 3
Trigger mode: 4
Integration Time (sec): 2.000000E-2
Electric dark correction enabled: true
Boxcar width: 10
XAxis mode: Wavelengths
Number of Pixels in Spectrum: 2048
>>>>>Begin Spectral Data<<<<<
177.721	-34.52
178.105	-261.7
178.488	139.5
178.871	57.53
179.254	405.88
179.636	173.96
180.019	126.69
180.402	290
180.785	50.65
181.168	86.04
181.55	91.36
181.933	176.52
182.316	268.73
182.698	98100
183.081	-900
183.463	385.71
183.846	232.45
184.228	808.86
184.611	-293
184.993	-117.22
185.376	-71.11
185.758	-35.36
186.14	-105.3
186.522	-92.45
186.904	-79.27
187.287	-92.22
187.669	-52.72
188.051	-77.17
188.433	-64.3
188.815	-64.62
189.197	-63.15
189.579	-44.88
189.961	-39.18
190.342	-18.62
190.724	-32.78
191.106	-45.22
191.488	-52.39
191.869	-56.89
192.251	-41.55
192.633	-47.08
193.014	-55.64
193.396	-149.13
193.777	-107.97
194.159	-73.44
194.54	-53.42
194.922	-33.5
195.303	-15.11
195.684	-342.48
196.065	-89.78
196.447	-15900
196.828	-504.4
197.209	4747.06
197.59	-127.15
197.971	-115.26
198.352	5.54
198.733	110.05
199.114	-65.41
199.495	-50.29
199.876	-73.65
200.257	-27.58
200.638	-8.11
201.018	-24.62
201.399	28.71
201.78	-35.7
202.16	-87.34
202.541	-197.07
202.922	-547.06
203.302	-418.25
203.683	-251.35
204.063	-119.42
204.444	-135.8
204.824	-109.66
205.204	-172.89
205.585	-45.99
205.965	-82.91
206.345	-58.83
206.725	-62.79
207.106	-102.72
207.486	-97.45
207.866	-121.55
208.246	-80.47
208.626	-140.12
209.006	-217.87
209.386	-234.16
209.766	-234.07
210.145	-173.92
210.525	-228.36
210.905	-320.6
211.285	-367.98
211.664	-107.77
212.044	-573.27
212.424	-336.24
212.803	117.67
213.183	506.9
213.562	506.9
213.942	867.12
214.321	-427.09
214.701	2518.6
215.08	2680.65
215.459	-751.49
215.838	517.32
216.218	117.27
216.597	31.26
216.976	73.19
217.355	181.97
217.734	-35.59
218.113	-225.44
218.492	-1172.73
218.871	40.54
219.25	28.93
219.629	-244.54
220.008	-31.96
220.387	-24.84
220.766	-40.69
221.144	18.27
221.523	23.85
221.902	21.86
222.28	47.8
222.659	67.09
223.037	67.65
223.416	72.21
223.794	51.08
224.173	38.84
224.551	25.49
224.929	17.27
225.308	17.79
225.686	17.59
226.064	6.2
226.442	14.15
226.821	10.67
227.199	10.94
227.577	8.16
227.955	7.05
228.333	10.39
228.711	12.32
229.089	11.61
229.467	7.1
229.845	5.92
230.222	4.4
230.6	2.32
230.978	-0.6
231.356	-0.68
231.733	2.92
232.111	1.55
232.488	4.04
232.866	6.9
233.243	5.17
233.621	7.83
233.998	8.67
234.376	7.29
234.753	5.28
235.13	5.23
235.508	7.72
235.885	10.22
236.262	8.7
236.639	7.5
237.016	5.38
237.393	6.54
237.77	8.32
238.147	8.15
238.524	8.72
238.901	7.84
239.278	7.18
239.655	5.17
240.032	6.61
240.409	5.29
240.785	4.95
241.162	5.5
241.539	3.97
241.915	4.08
242.292	4.07
242.668	4.57
243.045	5.06
243.421	4.99
243.798	4.56
244.174	4.62
244.551	4.68
244.927	4.49
245.303	4.75
245.679	4.37
246.056	4.47
246.432	4.46
246.808	4.85
247.184	4.97
247.56	5.17
247.936	4.91
248.312	5.29
248.688	5.27
249.064	5
249.44	5.22
249.815	5.29
250.191	5.29
250.567	5.32
250.943	5.14
251.318	4.84
251.694	4.91
252.069	4.82
252.445	4.96
252.82	5.37
253.196	5.34
253.571	5.71
253.947	5.64
254.322	5.53
254.697	5.41
255.073	5.41
255.448	5.61
255.823	5.58
256.198	5.12
256.573	5.09
256.948	5.18
257.323	4.94
257.698	4.96
258.073	4.95
258.448	5.01
258.823	4.81
259.198	5.04
259.573	4.82
259.948	4.9
260.322	4.78
260.697	4.66
261.072	4.25
261.446	4.01
261.821	4.06
262.195	4.28
262.57	4.21
262.944	3.98
263.319	3.71
263.693	3.45
264.067	3.68
264.442	3.49
264.816	3.43
265.19	3.57
265.564	3.37
265.938	3.35
266.313	3.07
266.687	3.15
267.061	3.04
267.435	3.36
267.809	3.32
268.183	3.14
268.556	3.24
268.93	3.61
269.304	3.78
269.678	3.82
270.051	3.56
270.425	3.63
270.799	3.72
271.172	3.89
271.546	4.14
271.919	4.06
272.293	4.36
272.666	4.24
273.04	4.25
273.413	4.15
273.787	3.92
274.16	3.92
274.533	3.86
274.906	3.99
275.279	3.7
275.653	3.69
276.026	4
276.399	3.94
276.772	3.85
277.145	3.71
277.518	3.53
277.891	3.62
278.263	3.66
278.636	3.81
279.009	3.89
279.382	3.93
279.755	3.97
280.127	3.84
280.5	3.85
280.872	3.83
281.245	3.88
281.617	4.04
281.99	4.05
282.362	4.02
282.735	3.92
283.107	3.91
283.479	4.18
283.852	4
284.224	3.92
284.596	3.87
284.968	3.81
285.34	3.87
285.713	3.94
286.085	3.62
286.457	3.46
286.829	3.54
287.201	3.42
287.572	3.35
287.944	3.47
288.316	3.52
288.688	3.57
289.06	3.7
289.431	3.78
289.803	3.9
290.175	3.9
290.546	3.81
290.918	3.87
291.289	3.49
291.661	3.51
292.032	3.51
292.403	3.58
292.775	3.57
293.146	3.54
293.517	3.45
293.889	3.68
294.26	3.74
294.631	3.66
295.002	3.6
295.373	3.56
295.744	3.54
296.115	3.57
296.486	3.56
296.857	3.65
297.228	3.63
297.599	3.67
297.97	3.82
298.34	3.93
298.711	3.97
299.082	4.06
299.452	4.06
299.823	4.14
300.194	4.32
300.564	4.58
300.935	4.61
301.305	4.78
301.676	4.77
302.046	4.82
302.416	4.74
302.787	4.93
303.157	4.93
303.527	5.04
303.897	4.88
304.267	4.98
304.637	4.75
305.008	4.79
305.378	4.82
305.748	4.65
306.117	4.55
306.487	4.53
306.857	4.5
307.227	4.71
307.597	4.74
307.967	4.62
308.336	4.47
308.706	4.44
309.076	4.24
309.445	4.3
309.815	4.24
310.184	4.3
310.554	4.12
310.923	4.29
311.293	4.19
311.662	4.37
312.031	4.16
312.401	4.29
312.77	4.26
313.139	4.14
313.508	4.24
313.877	4.36
314.246	4.46
314.616	4.53
314.985	4.46
315.353	4.4
315.722	4.29
316.091	4.31
316.46	4.33
316.829	4.42
317.198	4.49
317.567	4.67
317.935	4.77
318.304	5.07
318.672	5.08
319.041	5.12
319.41	5.06
319.778	5.38
320.147	5.33
320.515	5.31
320.883	5.23
321.252	5.04
321.62	5.06
321.988	4.95
322.357	4.84
322.725	4.78
323.093	4.88
323.461	4.91
323.829	5.01
324.197	5
324.565	4.87
324.933	4.86
325.301	4.58
325.669	4.47
326.037	4.35
326.405	4.25
326.772	4.24
327.14	4.08
327.508	3.94
327.875	3.91
328.243	3.83
328.61	3.82
328.978	3.86
329.346	3.89
329.713	4
330.08	4.14
330.448	4.15
330.815	4.06
331.182	4.07
331.55	4.05
331.917	4.04
332.284	4.21
332.651	4.03
333.018	4.14
333.385	4.28
333.752	4.42
334.119	4.59
334.486	4.61
334.853	4.79
335.22	4.86
335.587	4.89
335.954	4.94
336.32	5.14
336.687	5.13
337.054	5.12
337.42	5.05
337.787	4.98
338.153	5.02
338.52	5.09
338.886	5.21
339.253	5.27
339.619	5.29
339.986	5.26
340.352	5.33
340.718	5.44
341.084	5.36
341.451	5.27
341.817	5.2
342.183	5.18
342.549	5.27
342.915	5.22
343.281	5.35
343.647	5.31
344.013	5.25
344.379	5.24
344.745	5.1
345.11	5.13
345.476	5.24
345.842	5.21
346.208	5.14
346.573	5.06
346.939	4.87
347.304	4.92
347.67	4.92
348.035	4.96
348.401	4.94
348.766	5
349.132	4.97
349.497	4.96
349.862	4.91
350.228	4.82
350.593	4.8
350.958	4.77
351.323	4.82
351.688	4.94
352.053	5.08
352.418	5.19
352.783	5.09
353.148	5.09
353.513	5.23
353.878	5.28
354.243	5.25
354.608	5.32
354.972	5.31
355.337	5.27
355.702	5.28
356.066	5.22
356.431	5.22
356.795	5.27
357.16	5.31
357.524	5.37
357.889	5.4
358.253	5.38
358.618	5.28
358.982	5.28
359.346	5.25
359.71	5.2
360.075	5.23
360.439	5.32
360.803	5.34
361.167	5.24
361.531	5.25
361.895	5.27
362.259	5.34
362.623	5.42
362.987	5.45
363.351	5.38
363.714	5.43
364.078	5.41
364.442	5.37
364.806	5.33
365.169	5.33
365.533	5.28
365.896	5.3
366.26	5.34
366.623	5.35
366.987	5.27
367.35	5.28
367.714	5.19
368.077	5.15
368.44	5.06
368.803	5
369.167	4.98
369.53	5.05
369.893	5
370.256	4.89
370.619	4.84
370.982	4.85
371.345	4.87
371.708	4.79
372.071	4.78
372.434	4.81
372.797	4.79
373.159	4.77
373.522	4.71
373.885	4.64
374.247	4.68
374.61	4.67
374.973	4.66
375.335	4.69
375.698	4.7
376.06	4.73
376.423	4.74
376.785	4.77
377.147	4.69
377.51	4.69
377.872	4.7
378.234	4.72
378.596	4.83
378.958	4.77
379.321	4.88
379.683	4.9
380.045	4.91
380.407	4.85
380.769	4.9
381.13	4.93
381.492	4.96
381.854	4.89
382.216	4.96
382.578	5
382.939	5.06
383.301	5.08
383.663	5.11
384.024	5.14
384.386	5.1
384.747	5.13
385.109	5.17
385.47	5.17
385.832	5.17
386.193	5.08
386.554	5.07
386.916	5.1
387.277	5.11
387.638	5.09
387.999	5.14
388.36	5.1
388.721	5.14
389.082	5.15
389.443	5.19
389.804	5.2
390.165	5.15
390.526	5.12
390.887	5.13
391.248	5.13
391.609	5.16
391.969	5.15
392.33	5.11
392.691	5.07
393.051	5.07
393.412	5.06
393.772	5.04
394.133	5.09
394.493	5
394.854	5.02
395.214	5.02
395.574	5.03
395.935	5.03
396.295	5.04
396.655	5.08
397.015	5.05
397.376	5
397.736	5.01
398.096	5.01
398.456	4.99
398.816	4.98
399.176	4.91
399.535	4.94
399.895	4.95
400.255	4.95
400.615	4.96
400.975	4.92
401.334	4.95
401.694	4.94
402.054	5
402.413	4.96
402.773	5
403.132	4.93
403.492	4.96
403.851	4.91
404.211	4.91
404.57	4.93
404.929	4.97
405.288	4.98
405.648	4.96
406.007	4.97
406.366	4.95
406.725	4.96
407.084	4.98
407.443	5.01
407.802	5
408.161	4.99
408.52	5
408.879	5
409.238	4.99
409.596	4.96
409.955	4.96
410.314	4.93
410.673	5
411.031	5.02
411.39	5.01
411.748	5.01
412.107	5
412.465	4.98
412.824	4.96
413.182	4.96
413.54	4.93
413.899	4.91
414.257	4.94
414.615	4.92
414.974	4.92
415.332	4.94
415.69	4.92
416.048	4.94
416.406	4.94
416.764	4.93
417.122	4.91
417.48	4.88
417.838	4.9
418.195	4.87
418.553	4.85
418.911	4.84
419.269	4.84
419.626	4.82
419.984	4.82
420.342	4.81
420.699	4.82
421.057	4.8
421.414	4.83
421.772	4.82
422.129	4.82
422.486	4.81
422.844	4.8
423.201	4.82
423.558	4.81
423.915	4.8
424.273	4.82
424.63	4.85
424.987	4.86
425.344	4.84
425.701	4.83
426.058	4.83
426.415	4.83
426.772	4.84
427.128	4.84
427.485	4.86
427.842	4.86
428.199	4.87
428.555	4.89
428.912	4.86
429.269	4.85
429.625	4.85
429.982	4.84
430.338	4.85
430.695	4.83
431.051	4.83
431.407	4.86
431.764	4.83
432.12	4.8
432.476	4.79
432.832	4.79
433.189	4.81
433.545	4.8
433.901	4.8
434.257	4.81
434.613	4.78
434.969	4.77
435.325	4.76
435.681	4.72
436.036	4.71
436.392	4.72
436.748	4.72
437.104	4.73
437.459	4.75
437.815	4.75
438.171	4.76
438.526	4.78
438.882	4.76
439.237	4.76
439.593	4.79
439.948	4.81
440.304	4.81
440.659	4.79
441.014	4.81
441.369	4.82
441.725	4.81
442.08	4.84
442.435	4.82
442.79	4.84
443.145	4.85
443.5	4.85
443.855	4.86
444.21	4.88
444.565	4.86
444.92	4.85
445.275	4.83
445.629	4.82
445.984	4.81
446.339	4.81
446.693	4.81
447.048	4.78
447.403	4.77
447.757	4.77
448.112	4.81
448.466	4.79
448.82	4.79
449.175	4.79
449.529	4.79
449.883	4.8
450.238	4.81
450.592	4.8
450.946	4.8
451.3	4.79
451.654	4.77
452.008	4.79
452.362	4.8
452.716	4.81
453.07	4.8
453.424	4.81
453.778	4.81
454.132	4.82
454.486	4.82
454.839	4.81
455.193	4.83
455.547	4.83
455.9	4.82
456.254	4.84
456.607	4.82
456.961	4.83
457.314	4.82
457.668	4.81
458.021	4.83
458.375	4.83
458.728	4.81
459.081	4.84
459.434	4.84
459.787	4.84
460.141	4.84
460.494	4.84
460.847	4.84
461.2	4.84
461.553	4.85
461.906	4.89
462.259	4.88
462.611	4.87
462.964	4.86
463.317	4.87
463.67	4.86
464.022	4.88
464.375	4.88
464.728	4.89
465.08	4.89
465.433	4.9
465.785	4.93
466.138	4.96
466.49	4.96
466.843	4.96
467.195	4.97
467.547	4.96
467.899	4.99
468.252	4.99
468.604	5.01
468.956	5.01
469.308	4.99
469.66	5.04
470.012	5.03
470.364	5.05
470.716	5.05
471.068	5.05
471.42	5.07
471.772	5.07
472.123	5.07
472.475	5.07
472.827	5.1
473.178	5.11
473.53	5.12
473.882	5.12
474.233	5.12
474.585	5.13
474.936	5.16
475.288	5.13
475.639	5.14
475.99	5.13
476.342	5.12
476.693	5.15
477.044	5.13
477.395	5.15
477.746	5.16
478.097	5.16
478.448	5.18
478.8	5.17
479.15	5.17
479.501	5.18
479.852	5.19
480.203	5.19
480.554	5.19
480.905	5.18
481.255	5.2
481.606	5.22
481.957	5.21
482.307	5.22
482.658	5.24
483.009	5.24
483.359	5.23
483.709	5.23
484.06	5.23
484.41	5.23
484.761	5.23
485.111	5.22
485.461	5.22
485.811	5.22
486.162	5.23
486.512	5.23
486.862	5.23
487.212	5.23
487.562	5.23
487.912	5.22
488.262	5.21
488.612	5.2
488.961	5.19
489.311	5.21
489.661	5.21
490.011	5.2
490.36	5.2
490.71	5.21
491.06	5.21
491.409	5.21
491.759	5.2
492.108	5.21
492.458	5.21
492.807	5.21
493.157	5.22
493.506	5.22
493.855	5.23
494.204	5.23
494.554	5.22
494.903	5.24
495.252	5.25
495.601	5.27
495.95	5.29
496.299	5.29
496.648	5.3
496.997	5.29
497.346	5.3
497.695	5.31
498.043	5.31
498.392	5.33
498.741	5.35
499.09	5.38
499.438	5.36
499.787	5.37
500.135	5.39
500.484	5.39
500.832	5.41
501.181	5.41
501.529	5.42
501.878	5.44
502.226	5.47
502.574	5.48
502.923	5.5
503.271	5.49
503.619	5.49
503.967	5.46
504.315	5.47
504.663	5.47
505.011	5.5
505.359	5.49
505.707	5.49
506.055	5.53
506.403	5.53
506.751	5.58
507.098	5.62
507.446	5.64
507.794	5.66
508.141	5.69
508.489	5.72
508.837	5.73
509.184	5.76
509.531	5.75
509.879	5.76
510.226	5.76
510.574	5.8
510.921	5.84
511.268	5.89
511.616	5.89
511.963	5.93
512.31	5.92
512.657	5.95
513.004	5.97
513.351	5.96
513.698	5.97
514.045	5.99
514.392	6.02
514.739	6.05
515.086	6.06
515.432	6.09
515.779	6.12
516.126	6.15
516.473	6.16
516.819	6.21
517.166	6.23
517.512	6.26
517.859	6.29
518.205	6.28
518.552	6.29
518.898	6.32
519.245	6.36
519.591	6.4
519.937	6.41
520.283	6.43
520.629	6.44
520.976	6.45
521.322	6.46
521.668	6.45
522.014	6.44
522.36	6.46
522.706	6.47
523.052	6.47
523.398	6.48
523.743	6.5
524.089	6.5
524.435	6.52
524.781	6.55
525.126	6.55
525.472	6.56
525.817	6.57
526.163	6.58
526.509	6.58
526.854	6.59
527.199	6.61
527.545	6.63
527.89	6.65
528.235	6.66
528.581	6.67
528.926	6.68
529.271	6.7
529.616	6.71
529.961	6.71
530.306	6.73
530.651	6.73
530.996	6.75
531.341	6.76
531.686	6.75
532.031	6.77
532.376	6.77
532.721	6.78
533.065	6.79
533.41	6.79
533.755	6.81
534.099	6.81
534.444	6.8
534.788	6.8
535.133	6.79
535.477	6.8
535.822	6.81
536.166	6.81
536.51	6.81
536.855	6.82
537.199	6.82
537.543	6.84
537.887	6.84
538.231	6.83
538.576	6.84
538.92	6.86
539.264	6.85
539.608	6.85
539.951	6.87
540.295	6.88
540.639	6.9
540.983	6.9
541.327	6.91
541.671	6.93
542.014	6.94
542.358	6.96
542.701	6.97
543.045	6.97
543.389	6.98
543.732	6.97
544.075	6.97
544.419	6.97
544.762	6.96
545.105	6.97
545.449	6.98
545.792	6.99
546.135	6.97
546.478	6.96
546.821	6.98
547.165	6.98
547.508	6.98
547.851	6.97
548.194	6.95
548.536	6.96
548.879	6.95
549.222	6.95
549.565	6.94
549.908	6.96
550.25	6.95
550.593	6.93
550.936	6.94
551.278	6.94
551.621	6.96
551.963	7
552.306	7.03
552.648	7.04
552.991	7
553.333	7.01
553.675	7.02
554.017	7
554.36	7.01
554.702	6.99
555.044	7.01
555.386	7.01
555.728	7
556.07	6.95
556.412	6.99
556.754	6.98
557.096	6.97
557.438	7.01
557.78	7.02
558.121	7.06
558.463	7.08
558.805	7.1
559.147	7.08
559.488	7.04
559.83	7.1
560.171	7.14
560.513	7.13
560.854	7.15
561.196	7.2
561.537	7.18
561.878	7.22
562.22	7.24
562.561	7.27
562.902	7.29
563.243	7.36
563.584	7.31
563.925	7.32
564.266	7.35
564.607	7.34
564.948	7.33
565.289	7.32
565.63	7.32
565.971	7.35
566.312	7.32
566.653	7.34
566.993	7.28
567.334	7.31
567.675	7.31
568.015	7.3
568.356	7.28
568.696	7.31
569.037	7.32
569.377	7.35
569.718	7.34
570.058	7.33
570.398	7.32
570.739	7.35
571.079	7.36
571.419	7.32
571.759	7.3
572.099	7.32
572.439	7.33
572.779	7.33
573.119	7.3
573.459	7.29
573.799	7.24
574.139	7.25
574.479	7.21
574.819	7.24
575.158	7.27
575.498	7.25
575.838	7.26
576.177	7.23
576.517	7.2
576.856	7.2
577.196	7.2
577.535	7.21
577.875	7.19
578.214	7.2
578.553	7.23
578.893	7.27
579.232	7.29
579.571	7.28
579.91	7.26
580.25	7.25
580.589	7.29
580.928	7.34
581.267	7.33
581.606	7.33
581.945	7.36
582.283	7.37
582.622	7.39
582.961	7.38
583.3	7.38
583.639	7.37
583.977	7.39
584.316	7.38
584.654	7.39
584.993	7.41
585.332	7.41
585.67	7.42
586.008	7.36
586.347	7.32
586.685	7.32
587.024	7.34
587.362	7.34
587.7	7.37
588.038	7.35
588.376	7.39
588.715	7.41
589.053	7.36
589.391	7.33
589.729	7.38
590.067	7.4
590.404	7.39
590.742	7.43
591.08	7.41
591.418	7.41
591.756	7.4
592.093	7.39
592.431	7.34
592.769	7.33
593.106	7.35
593.444	7.39
593.781	7.41
594.119	7.44
594.456	7.44
594.793	7.43
595.131	7.45
595.468	7.48
595.805	7.46
596.143	7.48
596.48	7.49
596.817	7.46
597.154	7.49
597.491	7.49
597.828	7.5
598.165	7.48
598.502	7.45
598.839	7.46
599.176	7.45
599.512	7.47
599.849	7.49
600.186	7.51
600.523	7.48
600.859	7.47
601.196	7.45
601.532	7.48
601.869	7.45
602.205	7.46
602.542	7.49
602.878	7.5
603.215	7.51
603.551	7.51
603.887	7.52
604.223	7.52
604.56	7.53
604.896	7.52
605.232	7.53
605.568	7.57
605.904	7.58
606.24	7.62
606.576	7.67
606.912	7.67
607.248	7.64
607.583	7.64
607.919	7.61
608.255	7.61
608.591	7.64
608.926	7.66
609.262	7.66
609.597	7.62
609.933	7.63
610.268	7.63
610.604	7.6
610.939	7.64
611.275	7.59
611.61	7.61
611.945	7.57
612.281	7.62
612.616	7.62
612.951	7.68
613.286	7.68
613.621	7.67
613.956	7.68
614.291	7.69
614.626	7.7
614.961	7.79
615.296	7.78
615.631	7.8
615.966	7.77
616.3	7.75
616.635	7.74
616.97	7.73
617.304	7.76
617.639	7.8
617.973	7.78
618.308	7.82
618.642	7.78
618.977	7.71
619.311	7.71
619.646	7.7
619.98	7.63
620.314	7.57
620.648	7.53
620.983	7.5
621.317	7.56
621.651	7.58
621.985	7.52
622.319	7.55
622.653	7.51
622.987	7.52
623.321	7.53
623.655	7.51
623.988	7.54
624.322	7.51
624.656	7.45
624.99	7.49
625.323	7.5
625.657	7.53
625.99	7.62
626.324	7.63
626.657	7.6
626.991	7.63
627.324	7.67
627.658	7.68
627.991	7.69
628.324	7.65
628.657	7.68
628.991	7.71
629.324	7.73
629.657	7.68
629.99	7.7
630.323	7.67
630.656	7.68
630.989	7.69
631.322	7.72
631.655	7.76
631.987	7.76
632.32	7.74
632.653	7.75
632.986	7.75
633.318	7.75
633.651	7.8
633.984	7.76
634.316	7.78
634.649	7.77
634.981	7.8
635.313	7.85
635.646	7.87
635.978	7.93
636.31	7.91
636.643	7.95
636.975	7.96
637.307	8.03
637.639	7.98
637.971	7.95
638.303	7.94
638.635	8
638.967	7.97
639.299	7.93
639.631	7.93
639.963	7.9
640.295	7.85
640.626	7.78
640.958	7.74
641.29	7.72
641.621	7.66
641.953	7.65
642.285	7.63
642.616	7.54
642.948	7.5
643.279	7.47
643.61	7.43
643.942	7.46
644.273	7.43
644.604	7.48
644.936	7.48
645.267	7.5
645.598	7.4
645.929	7.44
646.26	7.53
646.591	7.57
646.922	7.7
647.253	7.77
647.584	7.83
647.915	7.89
648.245	7.99
648.576	8.15
648.907	8.2
649.238	8.2
649.568	8.24
649.899	8.23
650.229	8.29
650.56	8.37
650.89	8.37
651.221	8.41
651.551	8.38
651.882	8.39
652.212	8.34
652.542	8.47
652.872	8.48
653.203	8.48
653.533	8.48
653.863	8.39
654.193	8.33
654.523	8.25
654.853	8.31
655.183	8.29
655.513	8.24
655.843	8.19
656.172	8.17
656.502	8.18
656.832	8.15
657.162	8.16
657.491	8.14
657.821	8.11
658.15	8.11
658.48	8.24
658.809	8.23
659.139	8.29
659.468	8.17
659.798	8.11
660.127	8.14
660.456	8.14
660.785	8.16
661.115	8.16
661.444	8.24
661.773	8.24
662.102	8.21
662.431	8.12
662.76	8.1
663.089	8.23
663.418	8.24
663.747	8.26
664.076	8.19
664.404	8.18
664.733	8.24
665.062	8.28
665.39	8.11
665.719	8.09
666.048	8.04
666.376	8.11
666.705	8.21
667.033	8.25
667.362	8.23
667.69	8.22
668.018	8.32
668.347	8.25
668.675	8.19
669.003	8.1
669.331	8.24
669.659	8.23
669.987	8.11
670.315	8.12
670.643	8.18
670.971	8.27
671.299	8.24
671.627	8.19
671.955	8.14
672.283	8.23
672.61	8.33
672.938	8.51
673.266	8.49
673.593	8.38
673.921	8.34
674.249	8.35
674.576	8.33
674.904	8.32
675.231	8.42
675.558	8.45
675.886	8.6
676.213	8.56
676.54	8.7
676.867	8.7
677.195	8.7
677.522	8.65
677.849	8.64
678.176	8.61
678.503	8.63
678.83	8.66
679.157	8.65
679.484	8.59
679.81	8.49
680.137	8.52
680.464	8.6
680.791	8.6
681.117	8.52
681.444	8.49
681.771	8.42
682.097	8.4
682.424	8.46
682.75	8.38
683.077	8.39
683.403	8.33
683.729	8.38
684.056	8.4
684.382	8.43
684.708	8.42
685.034	8.51
685.36	8.48
685.686	8.43
686.012	8.45
686.339	8.52
686.664	8.48
686.99	8.39
687.316	8.38
687.642	8.44
687.968	8.54
688.294	8.6
688.619	8.64
688.945	8.62
689.271	8.59
689.596	8.64
689.922	8.62
690.247	8.65
690.573	8.55
690.898	8.58
691.224	8.6
691.549	8.62
691.874	8.63
692.2	8.68
692.525	8.67
692.85	8.61
693.175	8.65
693.5	8.73
693.825	8.84
694.15	8.85
694.475	8.81
694.8	8.93
695.125	8.89
695.45	8.8
695.775	8.85
696.099	8.98
696.424	9.01
696.749	9.05
697.073	9.03
697.398	9.12
697.723	9.08
698.047	9.06
698.372	9.02
698.696	9.01
699.02	9.03
699.345	9.06
699.669	9.1
699.993	9.05
700.318	9.06
700.642	9.1
700.966	9.08
701.29	8.99
701.614	8.83
701.938	8.82
702.262	8.99
702.586	8.94
702.91	8.81
703.234	8.61
703.557	8.59
703.881	8.6
704.205	8.52
704.529	8.61
704.852	8.52
705.176	8.59
705.499	8.64
705.823	8.54
706.146	8.66
706.47	8.79
706.793	8.73
707.117	8.83
707.44	8.9
707.763	8.89
708.086	8.83
708.409	8.8
708.733	8.79
709.056	8.75
709.379	8.84
709.702	8.96
710.025	9.29
710.348	9.27
710.671	9.24
710.993	9.22
711.316	9.18
711.639	9.23
711.962	9.28
712.284	9.13
712.607	9.22
712.93	9.27
713.252	9.11
713.575	9.21
713.897	9.06
714.22	8.81
714.542	8.88
714.864	9.05
715.187	9.09
715.509	9.06
715.831	9.16
716.153	9.01
716.475	8.93
716.798	8.7
717.12	8.92
717.442	8.84
717.764	8.9
718.085	8.82
718.407	8.81
718.729	8.72
719.051	8.86
719.373	8.8
719.695	8.71
720.016	8.75
720.338	8.69
720.659	8.88
720.981	8.87
721.302	8.92
721.624	8.92
721.945	9.17
722.267	9.32
722.588	9.19
722.909	9.42
723.231	9.12
723.552	9.15
723.873	8.99
724.194	9.05
724.515	9.01
724.836	9.05
725.157	9.15
725.478	9.2
725.799	9.22
726.12	9.11
726.441	9.2
726.762	9.43
727.083	9.38
727.403	9.28
727.724	9.58
728.045	9.47
728.365	9.45
728.686	9.21
729.006	9.25
729.327	9.35
729.647	9.28
729.967	9.59
730.288	9.72
730.608	9.79
730.928	9.87
731.249	9.92
731.569	9.97
731.889	10.01
732.209	10.07
732.529	9.89
732.849	10.12
733.169	10.13
733.489	9.76
733.809	9.91
734.129	9.95
734.448	9.92
734.768	9.78
735.088	9.58
735.408	9.65
735.727	9.56
736.047	9.54
736.366	9.65
736.686	9.51
737.005	9.5
737.325	9.36
737.644	9.27
737.963	9.37
738.283	9.12
738.602	9.06
738.921	9.02
739.24	9.35
739.56	9.36
739.879	9.16
740.198	9.29
740.517	9.22
740.836	9.16
741.155	9.16
741.473	9.34
741.792	9.56
742.111	9.89
742.43	10.07
742.748	10.11
743.067	9.98
743.386	10
743.704	9.94
744.023	10.08
744.341	10.26
744.66	9.94
744.978	10.19
745.297	10.32
745.615	10.24
745.933	10.28
746.252	10.33
746.57	10.44
746.888	10.72
747.206	10.83
747.524	10.7
747.842	10.63
748.16	10.58
748.478	10.74
748.796	10.69
749.114	10.44
749.432	10.34
749.749	10.38
750.067	10.59
750.385	10.77
750.703	10.79
751.02	10.71
751.338	10.9
751.655	10.8
751.973	10.73
752.29	10.84
752.608	10.54
752.925	10.31
753.242	10.49
753.56	10.46
753.877	10.46
754.194	10.95
754.511	11.04
754.828	10.99
755.145	10.86
755.462	10.54
755.779	10.78
756.096	11.04
756.413	11.31
756.73	11.25
757.047	10.9
757.364	11
757.68	10.88
757.997	11.14
758.314	11.39
758.63	11.54
758.947	11.5
759.264	11.62
759.58	11.88
759.896	11.77
760.213	11.87
760.529	11.99
760.846	11.63
761.162	11.54
761.478	11.68
761.794	11.7
762.11	11.78
762.426	11.6
762.743	11.52
763.059	11.61
763.375	11.6
763.69	11.92
764.006	11.88
764.322	11.83
764.638	11.87
764.954	11.7
765.27	11.58
765.585	11.81
765.901	12.01
766.216	12.1
766.532	11.91
766.848	11.68
767.163	11.35
767.478	11.28
767.794	11.37
768.109	11.45
768.424	11.59
768.74	11.35
769.055	11.31
769.37	11.26
769.685	11.03
770	10.93
770.315	10.85
770.63	10.53
770.945	10.8
771.26	10.44
771.575	10.52
771.89	10.46
772.205	9.98
772.52	9.68
772.834	9.37
773.149	9.22
773.464	9.18
773.778	9.56
774.093	9.72
774.407	9.72
774.722	9.46
775.036	9.37
775.351	9.95
775.665	10.36
775.979	10.05
776.293	9.85
776.608	9.92
776.922	9.67
777.236	10.09
777.55	9.77
777.864	10.12
778.178	10.45
778.492	10.58
778.806	10.86
779.12	10.82
779.434	10.76
779.747	10.95
780.061	11.42
780.375	11.23
780.689	11.72
781.002	11.72
781.316	12.14
781.629	11.99
781.943	11.53
782.256	11.64
782.57	12.12
782.883	12.63
783.196	12.45
783.51	12.53
783.823	12.28
784.136	12.4
784.449	11.72
784.762	11.81
785.075	11.54
785.388	11.49
785.701	11.43
786.014	11.48
786.327	12.04
786.64	11.7
786.953	11.78
787.266	11.56
787.578	11.66
787.891	11.62
788.204	11.59
788.516	11.46
788.829	10.91
789.141	11.13
789.454	10.68
789.766	11.08
790.079	11.32
790.391	11.57
790.703	11.62
791.016	11.81
791.328	11.53
791.64	12.27
791.952	12.18
792.264	12.06
792.576	12.41
792.888	12.37
793.2	12.64
793.512	12.48
793.824	12.37
794.136	12.04
794.448	12.26
794.76	12.25
795.071	12.79
795.383	13
795.695	12.32
796.006	12.53
796.318	12.02
796.629	11.75
796.941	11.34
797.252	11.35
797.564	11.68
797.875	11.01
798.186	10.71
798.497	10.71
798.809	10.78
799.12	9.98
799.431	9.57
799.742	9.18
800.053	9.41
800.364	9.2
800.675	9.73
800.986	9.6
801.297	10.05
801.608	9.59
801.918	9.95
802.229	10.43
802.54	10.11
802.851	10.75
803.161	10.59
803.472	10.98
803.782	11.31
804.093	11.4
804.403	12.09
804.714	12.35
805.024	12.12
805.334	12.66
805.645	13.54
805.955	13.87
806.265	14.75
806.575	14.58
806.885	14.85
807.195	14.28
807.505	13.79
807.815	12.91
808.125	13.19
808.435	13.02
808.745	13.3
809.055	13.88
809.365	13.4
809.674	13.79
809.984	13.95
810.294	13.56
810.603	13.41
810.913	13.54
811.222	13.42
811.532	13.8
811.841	14.2
812.151	13.54
812.46	13.58
812.769	12.79
813.079	12.57
813.388	12.13
813.697	11.62
814.006	12.7
814.315	13.28
814.624	13.13
814.933	14.04
815.242	13.76
815.551	13.52
815.86	14.27
816.169	14.04
816.478	13.33
816.786	13.93
817.095	13.86
817.404	14.04
817.712	13.68
818.021	13.96
818.33	13.37
818.638	14.1
818.947	13.38
819.255	13.42
819.563	13.67
819.872	13.59
820.18	13.98
820.488	13.96
820.796	13.97
821.105	14.28
821.413	13.76
821.721	13.76
822.029	13.88
822.337	13.75
822.645	13.89
822.953	14.12
823.26	14.16
823.568	14.07
823.876	14.04
824.184	14.05
824.491	13.96
824.799	13.87
825.107	13.98
825.414	14.23
825.722	14.28
826.029	14.34
826.337	14.59
826.644	14.66
826.951	14.51
827.259	14.7
827.566	14.41
827.873	14.53
828.18	14.58
828.488	14.36
828.795	14.37
829.102	14.47
829.409	14.41
829.716	14.27
830.023	14.67
830.329	14.76
830.636	14.99
830.943	14.83
831.25	15.16
831.557	14.8
831.863	14.87
832.17	15.07
832.476	15.21
832.783	14.82
833.089	14.55
833.396	14.61
833.702	14.8
834.009	15.33
834.315	15.3
834.621	15.3
834.928	15.54
835.234	16.02
835.54	15.98
835.846	15.9
836.152	15.76
836.458	15.77
836.764	16.12
837.07	16.07
837.376	16.21
837.682	16
837.988	16.25
838.293	15.94
838.599	16.1
838.905	16.26
839.211	16.46
839.516	17.42
839.822	16.91
840.127	15.96
840.433	15.87
840.738	16.01
841.044	16.52
841.349	15.96
841.654	14.78
841.959	14.6
842.265	14.43
842.57	14.04
842.875	14.06
843.18	12.76
843.485	12.8
843.79	12.78
844.095	12.85
844.4	13.61
844.705	13.66
845.01	14.2
845.315	12.83
845.619	13.22
845.924	12.06
846.229	13.01
846.533	12.79
846.838	12.03
847.142	13.14
847.447	13.18
847.751	14.14
848.056	16.04
848.36	15.79
848.664	17.74
848.969	17.37
849.273	15.56
849.577	16.78
849.881	16.9
850.185	17.82
850.489	18.79
850.794	19.83
851.097	20.49
851.401	18.64
851.705	17.46
852.009	16.82
852.313	16.5
852.617	16.6
852.92	18.68
853.224	19.76
853.528	19.9
853.831	18.16
854.135	18.58
854.438	15.91
854.742	17.37
855.045	16.42
855.349	15.74
855.652	16.97
855.955	16.04
856.259	16.56
856.562	16.38
856.865	17.16
857.168	14.56
857.471	15.63
857.774	17.61
858.077	19.37
858.38	19.89
858.683	21.26
858.986	21.99
859.289	21.27
859.592	21.34
859.894	19.51
860.197	20.54
860.5	20.4
860.802	20.74
861.105	20.24
861.407	19.77
861.71	21.85
862.012	21.58
862.315	20.99
862.617	19.7
862.919	21.93
863.222	21.83
863.524	21.04
863.826	20.42
864.128	19.37
864.43	19.64
864.732	19.08
865.034	18.69
865.336	17.42
865.638	17.64
865.94	18.37
866.242	19.55
866.544	21.28
866.846	22.04
867.147	25.44
867.449	24.96
867.751	24.63
868.052	24.3
868.354	25.61
868.655	27.8
868.957	26.58
869.258	24.83
869.56	23.85
869.861	24.14
870.162	23.64
870.463	24.12
870.765	25.31
871.066	26.24
871.367	24.83
871.668	23.33
871.969	22.15
872.27	20.07
872.571	20.4
872.872	19.87
873.173	20.35
873.473	19.22
873.774	20.59
874.075	20.53
874.376	19.78
874.676	19.17
874.977	20.68
875.277	22.35
875.578	23.06
875.878	22.9
876.179	23.33
876.479	23.36
876.78	22.69
877.08	21.9
877.38	22.45
877.68	24.31
877.981	27.58
878.281	29.46
878.581	32.65
