Data from MVZ_BU163026_Reflection_00015.txt Node
Date: Tue Nov 19 12:06:17 EST 2019
User: vgr7
Spectrometer: USB2G7710
Scans to average: 3
Trigger mode: 4
Integration Time (sec): 2.000000E-2
Electric dark correction enabled: true
Boxcar width: 10
XAxis mode: Wavelengths
Number of Pixels in Spectrum: 2048
>>>>>Begin Spectral Data<<<<<
177.721	69.22
178.105	302.7
178.488	110.24
178.871	95.52
179.254	53.85
179.636	86.14
180.019	139.15
180.402	-50
180.785	-281.82
181.168	73.21
181.55	277.34
181.933	774.16
182.316	150.74
182.698	122.35
183.081	81.18
183.463	122.97
183.846	141.72
184.228	77.12
184.611	81.69
184.993	96.57
185.376	116.91
185.758	118.01
186.14	100
186.522	107.9
186.904	90.51
187.287	88.73
187.669	92.14
188.051	90.09
188.433	74.73
188.815	87.27
189.197	116.14
189.579	108.59
189.961	89.91
190.342	121.41
190.724	160.19
191.106	150.05
191.488	97.64
191.869	178.84
192.251	307.82
192.633	354.24
193.014	376.66
193.396	207.33
193.777	213.11
194.159	378.81
194.54	1541.56
194.922	-6373.68
195.303	1084
195.684	693.91
196.065	661.58
196.447	-714.07
196.828	13736.36
197.209	1055.75
197.59	2807.32
197.971	2525.53
198.352	461.87
198.733	380.94
199.114	661.58
199.495	434.22
199.876	405.08
200.257	284.76
200.638	436.15
201.018	563.84
201.399	2866.23
201.78	3100
202.16	461.17
202.541	319.08
202.922	319.08
203.302	297.66
203.683	290.73
204.063	244.39
204.444	341.27
204.824	438.82
205.204	3326.42
205.585	3758.54
205.965	2635.21
206.345	-762.35
206.725	-385.59
207.106	-271.82
207.486	-208.11
207.866	-242.06
208.246	-110.19
208.626	-82.59
209.006	-110.1
209.386	-137.17
209.766	-149.44
210.145	-90.86
210.525	-131.33
210.905	-33.79
211.285	-7.24
211.664	-2.25
212.044	21.2
212.424	20.54
212.803	6.85
213.183	15.42
213.562	25.32
213.942	39.88
214.321	44.25
214.701	39.28
215.08	17.26
215.459	67.47
215.838	41.67
216.218	35.09
216.597	25.76
216.976	21.6
217.355	32.51
217.734	-16.48
218.113	3.76
218.492	-10.71
218.871	-35.28
219.25	-54.71
219.629	-78.76
220.008	-84.87
220.387	-124.7
220.766	-92.66
221.144	-97.34
221.523	-121.82
221.902	-181.81
222.28	-166.96
222.659	-95.33
223.037	-78.47
223.416	-87.4
223.794	-68.97
224.173	-58.04
224.551	-54.05
224.929	-49.21
225.308	-49.21
225.686	-45.67
226.064	-52.39
226.442	-40.28
226.821	-35.13
227.199	-34.69
227.577	-29.7
227.955	-26.54
228.333	-26.43
228.711	-27.35
229.089	-29.34
229.467	-25.44
229.845	-23.37
230.222	-23.31
230.6	-22.51
230.978	-20.97
231.356	-21.93
231.733	-19.18
232.111	-17.14
232.488	-15.34
232.866	-12.44
233.243	-11
233.621	-8.75
233.998	-9.95
234.376	-11.64
234.753	-9.43
235.13	-8.49
235.508	-7.73
235.885	-8.47
236.262	-6.56
236.639	-6.65
237.016	-4.97
237.393	-4.3
237.77	-3.11
238.147	-1.9
238.524	-1.47
238.901	-1.09
239.278	-1.07
239.655	-1.9
240.032	-2.62
240.409	-1.98
240.785	-2.14
241.162	-2.4
241.539	-2.14
241.915	-1.45
242.292	-0.76
242.668	-0.54
243.045	0.55
243.421	0.67
243.798	1.13
244.174	1.18
244.551	1.6
244.927	1.73
245.303	1.52
245.679	1.77
246.056	1.82
246.432	1.71
246.808	1.94
247.184	2.05
247.56	2.09
247.936	2.44
248.312	2.49
248.688	2.7
249.064	2.86
249.44	2.68
249.815	2.68
250.191	2.69
250.567	2.47
250.943	2.23
251.318	2.06
251.694	2.05
252.069	2.2
252.445	2.19
252.82	2.41
253.196	2.76
253.571	2.65
253.947	2.7
254.322	2.83
254.697	2.68
255.073	3.05
255.448	3.16
255.823	2.95
256.198	2.9
256.573	2.79
256.948	2.92
257.323	3.18
257.698	3.38
258.073	3.27
258.448	3.35
258.823	3.32
259.198	3.45
259.573	3.33
259.948	3.34
260.322	3.24
260.697	3.18
261.072	3.14
261.446	3.09
261.821	3
262.195	3.07
262.57	3.07
262.944	3.03
263.319	3.2
263.693	3.21
264.067	3.05
264.442	2.87
264.816	2.89
265.19	2.79
265.564	2.6
265.938	2.57
266.313	2.3
266.687	2.16
267.061	1.94
267.435	1.97
267.809	1.59
268.183	1.6
268.556	1.47
268.93	1.63
269.304	1.75
269.678	1.81
270.051	1.75
270.425	1.72
270.799	1.47
271.172	1.2
271.546	1.37
271.919	1.46
272.293	1.64
272.666	1.55
273.04	1.59
273.413	1.67
273.787	1.63
274.16	1.71
274.533	1.86
274.906	2.05
275.279	2.01
275.653	2.25
276.026	2.21
276.399	2.06
276.772	1.87
277.145	1.8
277.518	1.59
277.891	1.65
278.263	1.75
278.636	2.01
279.009	2.13
279.382	2.04
279.755	2.15
280.127	2.19
280.5	2.2
280.872	2.18
281.245	2.05
281.617	2.25
281.99	2.46
282.362	2.42
282.735	2.4
283.107	2.35
283.479	2.43
283.852	2.55
284.224	2.67
284.596	2.73
284.968	2.79
285.34	2.93
285.713	2.91
286.085	2.82
286.457	2.68
286.829	2.73
287.201	2.63
287.572	2.59
287.944	2.54
288.316	2.61
288.688	2.78
289.06	2.85
289.431	2.72
289.803	2.69
290.175	2.68
290.546	2.68
290.918	2.76
291.289	2.61
291.661	2.52
292.032	2.62
292.403	2.71
292.775	2.69
293.146	2.59
293.517	2.64
293.889	2.63
294.26	2.68
294.631	2.83
295.002	2.97
295.373	2.93
295.744	2.95
296.115	2.89
296.486	2.79
296.857	2.83
297.228	2.9
297.599	2.96
297.97	3.06
298.34	3.05
298.711	3.18
299.082	3.24
299.452	3.28
299.823	3.18
300.194	3.05
300.564	3.14
300.935	3.38
301.305	3.32
301.676	3.3
302.046	3.49
302.416	3.38
302.787	3.43
303.157	3.65
303.527	3.9
303.897	4.06
304.267	4.1
304.637	4.1
305.008	4.12
305.378	4.03
305.748	4.1
306.117	4.21
306.487	4.26
306.857	4.39
307.227	4.46
307.597	4.58
307.967	4.79
308.336	4.74
308.706	4.64
309.076	4.84
309.445	5.1
309.815	5.08
310.184	5.12
310.554	5.13
310.923	5.18
311.293	5.09
311.662	4.98
312.031	5.01
312.401	5.07
312.77	5.12
313.139	5.26
313.508	5.24
313.877	5.28
314.246	5.21
314.616	5.23
314.985	5.15
315.353	5.28
315.722	5.5
316.091	5.67
316.46	5.74
316.829	5.74
317.198	5.66
317.567	5.7
317.935	5.72
318.304	5.97
318.672	6
319.041	6.07
319.41	6.2
319.778	6.19
320.147	6.23
320.515	6.51
320.883	6.39
321.252	6.59
321.62	6.78
321.988	6.91
322.357	6.92
322.725	7.15
323.093	7.05
323.461	6.97
323.829	6.94
324.197	7.14
324.565	7.14
324.933	7.19
325.301	7.16
325.669	7.18
326.037	7.01
326.405	6.98
326.772	7
327.14	6.9
327.508	6.87
327.875	6.86
328.243	6.72
328.61	6.82
328.978	6.64
329.346	6.62
329.713	6.68
330.08	6.84
330.448	6.92
330.815	6.94
331.182	6.91
331.55	7
331.917	7.01
332.284	6.98
332.651	7
333.018	7.07
333.385	7.08
333.752	7.17
334.119	7.26
334.486	7.38
334.853	7.43
335.22	7.58
335.587	7.6
335.954	7.63
336.32	7.58
336.687	7.62
337.054	7.5
337.42	7.48
337.787	7.36
338.153	7.19
338.52	7.48
338.886	7.48
339.253	7.35
339.619	7.28
339.986	7.35
340.352	7.36
340.718	7.48
341.084	7.54
341.451	7.52
341.817	7.48
342.183	7.44
342.549	7.56
342.915	7.59
343.281	7.6
343.647	7.66
344.013	7.88
344.379	7.94
344.745	8.06
345.11	8.09
345.476	8.1
345.842	8.03
346.208	7.84
346.573	7.82
346.939	7.88
347.304	7.91
347.67	7.86
348.035	8
348.401	7.93
348.766	7.88
349.132	7.99
349.497	8.07
349.862	8.11
350.228	8.13
350.593	8.1
350.958	8.15
351.323	8.08
351.688	7.95
352.053	7.95
352.418	7.92
352.783	7.96
353.148	7.98
353.513	8.16
353.878	8.14
354.243	8.07
354.608	8.18
354.972	8.21
355.337	8.27
355.702	8.11
356.066	8.13
356.431	8.18
356.795	8.09
357.16	8.08
357.524	7.99
357.889	7.94
358.253	7.93
358.618	7.96
358.982	7.98
359.346	7.92
359.71	7.88
360.075	7.87
360.439	7.82
360.803	7.8
361.167	7.72
361.531	7.8
361.895	7.88
362.259	7.8
362.623	7.67
362.987	7.63
363.351	7.62
363.714	7.57
364.078	7.61
364.442	7.6
364.806	7.57
365.169	7.54
365.533	7.48
365.896	7.49
366.26	7.39
366.623	7.34
366.987	7.38
367.35	7.37
367.714	7.31
368.077	7.27
368.44	7.31
368.803	7.22
369.167	7.16
369.53	7.1
369.893	7.05
370.256	7.03
370.619	7
370.982	6.94
371.345	6.99
371.708	6.85
372.071	6.78
372.434	6.72
372.797	6.68
373.159	6.69
373.522	6.63
373.885	6.59
374.247	6.56
374.61	6.47
374.973	6.37
375.335	6.32
375.698	6.22
376.06	6.09
376.423	6.13
376.785	6.1
377.147	6.04
377.51	6
377.872	6.03
378.234	5.98
378.596	5.97
378.958	5.82
379.321	5.78
379.683	5.72
380.045	5.63
380.407	5.64
380.769	5.56
381.13	5.49
381.492	5.48
381.854	5.39
382.216	5.45
382.578	5.44
382.939	5.42
383.301	5.36
383.663	5.32
384.024	5.24
384.386	5.09
384.747	5.02
385.109	5
385.47	5
385.832	4.92
386.193	4.89
386.554	4.84
386.916	4.84
387.277	4.79
387.638	4.77
387.999	4.71
388.36	4.72
388.721	4.7
389.082	4.68
389.443	4.7
389.804	4.66
390.165	4.65
390.526	4.66
390.887	4.65
391.248	4.66
391.609	4.65
391.969	4.67
392.33	4.65
392.691	4.63
393.051	4.56
393.412	4.59
393.772	4.54
394.133	4.55
394.493	4.48
394.854	4.49
395.214	4.47
395.574	4.43
395.935	4.37
396.295	4.34
396.655	4.28
397.015	4.26
397.376	4.18
397.736	4.13
398.096	4.01
398.456	3.99
398.816	3.97
399.176	3.93
399.535	3.89
399.895	3.88
400.255	3.88
400.615	3.85
400.975	3.8
401.334	3.81
401.694	3.76
402.054	3.75
402.413	3.74
402.773	3.74
403.132	3.72
403.492	3.7
403.851	3.67
404.211	3.68
404.57	3.65
404.929	3.62
405.288	3.61
405.648	3.64
406.007	3.64
406.366	3.58
406.725	3.61
407.084	3.6
407.443	3.57
407.802	3.53
408.161	3.52
408.52	3.53
408.879	3.51
409.238	3.53
409.596	3.53
409.955	3.49
410.314	3.48
410.673	3.49
411.031	3.47
411.39	3.48
411.748	3.45
412.107	3.41
412.465	3.42
412.824	3.41
413.182	3.38
413.54	3.39
413.899	3.4
414.257	3.39
414.615	3.39
414.974	3.42
415.332	3.43
415.69	3.41
416.048	3.37
416.406	3.36
416.764	3.33
417.122	3.31
417.48	3.31
417.838	3.28
418.195	3.26
418.553	3.25
418.911	3.25
419.269	3.24
419.626	3.24
419.984	3.23
420.342	3.21
420.699	3.18
421.057	3.16
421.414	3.16
421.772	3.13
422.129	3.12
422.486	3.09
422.844	3.07
423.201	3.08
423.558	3.08
423.915	3.08
424.273	3.08
424.63	3.06
424.987	3.04
425.344	3.04
425.701	3.02
426.058	3.01
426.415	2.99
426.772	2.99
427.128	2.99
427.485	2.99
427.842	2.99
428.199	3.02
428.555	3.01
428.912	2.99
429.269	2.98
429.625	2.96
429.982	2.95
430.338	2.92
430.695	2.9
431.051	2.88
431.407	2.87
431.764	2.84
432.12	2.83
432.476	2.85
432.832	2.86
433.189	2.87
433.545	2.88
433.901	2.88
434.257	2.89
434.613	2.88
434.969	2.85
435.325	2.85
435.681	2.84
436.036	2.84
436.392	2.86
436.748	2.88
437.104	2.9
437.459	2.91
437.815	2.95
438.171	2.96
438.526	2.97
438.882	2.96
439.237	2.97
439.593	2.98
439.948	2.97
440.304	2.96
440.659	2.97
441.014	2.96
441.369	2.97
441.725	2.96
442.08	2.96
442.435	2.98
442.79	2.98
443.145	2.97
443.5	2.95
443.855	2.94
444.21	2.94
444.565	2.93
444.92	2.93
445.275	2.91
445.629	2.9
445.984	2.89
446.339	2.91
446.693	2.92
447.048	2.9
447.403	2.92
447.757	2.89
448.112	2.89
448.466	2.9
448.82	2.88
449.175	2.88
449.529	2.87
449.883	2.85
450.238	2.86
450.592	2.85
450.946	2.84
451.3	2.84
451.654	2.83
452.008	2.84
452.362	2.82
452.716	2.82
453.07	2.83
453.424	2.81
453.778	2.8
454.132	2.78
454.486	2.82
454.839	2.79
455.193	2.81
455.547	2.79
455.9	2.79
456.254	2.81
456.607	2.81
456.961	2.81
457.314	2.84
457.668	2.84
458.021	2.85
458.375	2.86
458.728	2.86
459.081	2.86
459.434	2.85
459.787	2.86
460.141	2.87
460.494	2.88
460.847	2.9
461.2	2.87
461.553	2.89
461.906	2.89
462.259	2.89
462.611	2.89
462.964	2.9
463.317	2.9
463.67	2.89
464.022	2.91
464.375	2.89
464.728	2.87
465.08	2.86
465.433	2.88
465.785	2.88
466.138	2.92
466.49	2.92
466.843	2.93
467.195	2.91
467.547	2.92
467.899	2.9
468.252	2.92
468.604	2.94
468.956	2.96
469.308	2.97
469.66	3
470.012	3.01
470.364	3.06
470.716	3.06
471.068	3.09
471.42	3.08
471.772	3.12
472.123	3.14
472.475	3.17
472.827	3.18
473.178	3.23
473.53	3.2
473.882	3.19
474.233	3.19
474.585	3.23
474.936	3.25
475.288	3.24
475.639	3.23
475.99	3.23
476.342	3.22
476.693	3.21
477.044	3.2
477.395	3.21
477.746	3.17
478.097	3.18
478.448	3.15
478.8	3.15
479.15	3.13
479.501	3.12
479.852	3.11
480.203	3.09
480.554	3.07
480.905	3.05
481.255	3.07
481.606	3.08
481.957	3.07
482.307	3.08
482.658	3.08
483.009	3.09
483.359	3.08
483.709	3.09
484.06	3.08
484.41	3.08
484.761	3.08
485.111	3.08
485.461	3.07
485.811	3.07
486.162	3.08
486.512	3.08
486.862	3.09
487.212	3.09
487.562	3.09
487.912	3.1
488.262	3.11
488.612	3.11
488.961	3.12
489.311	3.11
489.661	3.1
490.011	3.1
490.36	3.1
490.71	3.09
491.06	3.08
491.409	3.09
491.759	3.1
492.108	3.11
492.458	3.1
492.807	3.11
493.157	3.14
493.506	3.14
493.855	3.15
494.204	3.15
494.554	3.15
494.903	3.18
495.252	3.18
495.601	3.19
495.95	3.21
496.299	3.23
496.648	3.25
496.997	3.28
497.346	3.32
497.695	3.35
498.043	3.41
498.392	3.45
498.741	3.48
499.09	3.51
499.438	3.55
499.787	3.6
500.135	3.64
500.484	3.65
500.832	3.69
501.181	3.74
501.529	3.82
501.878	3.86
502.226	3.93
502.574	3.98
502.923	4.01
503.271	4.07
503.619	4.13
503.967	4.17
504.315	4.23
504.663	4.27
505.011	4.37
505.359	4.41
505.707	4.49
506.055	4.57
506.403	4.64
506.751	4.71
507.098	4.8
507.446	4.91
507.794	5.02
508.141	5.12
508.489	5.19
508.837	5.27
509.184	5.37
509.531	5.46
509.879	5.54
510.226	5.66
510.574	5.75
510.921	5.83
511.268	5.95
511.616	6.04
511.963	6.15
512.31	6.23
512.657	6.33
513.004	6.41
513.351	6.52
513.698	6.65
514.045	6.77
514.392	6.86
514.739	6.95
515.086	7.05
515.432	7.14
515.779	7.29
516.126	7.4
516.473	7.5
516.819	7.6
517.166	7.71
517.512	7.8
517.859	7.92
518.205	8.01
518.552	8.1
518.898	8.19
519.245	8.29
519.591	8.36
519.937	8.46
520.283	8.57
520.629	8.65
520.976	8.76
521.322	8.87
521.668	8.99
522.014	9.11
522.36	9.23
522.706	9.38
523.052	9.49
523.398	9.63
523.743	9.78
524.089	9.93
524.435	10.08
524.781	10.22
525.126	10.33
525.472	10.47
525.817	10.57
526.163	10.68
526.509	10.79
526.854	10.88
527.199	10.96
527.545	11.06
527.89	11.16
528.235	11.25
528.581	11.33
528.926	11.43
529.271	11.54
529.616	11.65
529.961	11.74
530.306	11.85
530.651	11.97
530.996	12.08
531.341	12.21
531.686	12.34
532.031	12.47
532.376	12.62
532.721	12.77
533.065	12.92
533.41	13.09
533.755	13.24
534.099	13.42
534.444	13.61
534.788	13.78
535.133	13.96
535.477	14.13
535.822	14.35
536.166	14.56
536.51	14.76
536.855	15
537.199	15.26
537.543	15.5
537.887	15.76
538.231	16.04
538.576	16.28
538.92	16.53
539.264	16.78
539.608	17
539.951	17.2
540.295	17.43
540.639	17.63
540.983	17.83
541.327	18.04
541.671	18.23
542.014	18.44
542.358	18.63
542.701	18.86
543.045	19.05
543.389	19.26
543.732	19.49
544.075	19.72
544.419	19.94
544.762	20.18
545.105	20.42
545.449	20.64
545.792	20.94
546.135	21.25
546.478	21.53
546.821	21.85
547.165	22.19
547.508	22.51
547.851	22.83
548.194	23.17
548.536	23.5
548.879	23.88
549.222	24.17
549.565	24.51
549.908	24.8
550.25	25.15
550.593	25.48
550.936	25.79
551.278	26.1
551.621	26.42
551.963	26.73
552.306	27.06
552.648	27.4
552.991	27.68
553.333	27.99
553.675	28.34
554.017	28.61
554.36	28.96
554.702	29.29
555.044	29.58
555.386	29.9
555.728	30.16
556.07	30.45
556.412	30.84
556.754	31.15
557.096	31.5
557.438	31.81
557.78	32.16
558.121	32.49
558.463	32.81
558.805	33.19
559.147	33.54
559.488	33.86
559.83	34.17
560.171	34.48
560.513	34.75
560.854	35.05
561.196	35.35
561.537	35.64
561.878	35.93
562.22	36.29
562.561	36.57
562.902	36.92
563.243	37.22
563.584	37.53
563.925	37.85
564.266	38.06
564.607	38.32
564.948	38.56
565.289	38.85
565.63	39.14
565.971	39.43
566.312	39.72
566.653	39.97
566.993	40.18
567.334	40.44
567.675	40.68
568.015	40.89
568.356	41.15
568.696	41.33
569.037	41.59
569.377	41.83
569.718	42.05
570.058	42.2
570.398	42.45
570.739	42.67
571.079	42.87
571.419	43.09
571.759	43.25
572.099	43.47
572.439	43.66
572.779	43.84
573.119	43.94
573.459	44.09
573.799	44.25
574.139	44.45
574.479	44.64
574.819	44.85
575.158	45
575.498	45.19
575.838	45.39
576.177	45.54
576.517	45.67
576.856	45.89
577.196	46.12
577.535	46.23
577.875	46.37
578.214	46.54
578.553	46.74
578.893	47.05
579.232	47.21
579.571	47.37
579.91	47.57
580.25	47.72
580.589	47.85
580.928	47.99
581.267	48.11
581.606	48.23
581.945	48.28
582.283	48.47
582.622	48.65
582.961	48.79
583.3	48.86
583.639	49.05
583.977	49.08
584.316	49.21
584.654	49.39
584.993	49.49
585.332	49.66
585.67	49.75
586.008	49.88
586.347	49.95
586.685	50.05
587.024	50.12
587.362	50.32
587.7	50.5
588.038	50.68
588.376	50.86
588.715	51
589.053	51.19
589.391	51.29
589.729	51.39
590.067	51.52
590.404	51.7
590.742	51.72
591.08	51.86
591.418	51.94
591.756	52
592.093	52.18
592.431	52.23
592.769	52.34
593.106	52.39
593.444	52.49
593.781	52.66
594.119	52.72
594.456	52.75
594.793	52.77
595.131	52.84
595.468	52.84
595.805	52.96
596.143	53.04
596.48	53.13
596.817	53.2
597.154	53.21
597.491	53.23
597.828	53.4
598.165	53.53
598.502	53.61
598.839	53.7
599.176	53.73
599.512	53.8
599.849	53.93
600.186	53.91
600.523	53.97
600.859	54.01
601.196	54.15
601.532	54.25
601.869	54.32
602.205	54.43
602.542	54.53
602.878	54.59
603.215	54.66
603.551	54.65
603.887	54.7
604.223	54.76
604.56	54.83
604.896	54.86
605.232	54.84
605.568	54.92
605.904	54.97
606.24	55.03
606.576	55.11
606.912	55.15
607.248	55.33
607.583	55.53
607.919	55.62
608.255	55.63
608.591	55.77
608.926	55.92
609.262	55.98
609.597	56.04
609.933	56.08
610.268	56.19
610.604	56.31
610.939	56.36
611.275	56.43
611.61	56.56
611.945	56.56
612.281	56.73
612.616	56.77
612.951	56.83
613.286	56.81
613.621	56.82
613.956	56.89
614.291	56.86
614.626	56.85
614.961	56.85
615.296	56.95
615.631	56.87
615.966	56.85
616.3	56.82
616.635	56.86
616.97	56.83
617.304	56.76
617.639	56.81
617.973	56.81
618.308	56.85
618.642	56.72
618.977	56.71
619.311	56.65
619.646	56.66
619.98	56.7
620.314	56.81
620.648	56.86
620.983	56.85
621.317	56.92
621.651	56.92
621.985	56.91
622.319	56.88
622.653	56.98
622.987	57.03
623.321	57.02
623.655	57.09
623.988	57.17
624.322	57.23
624.656	57.29
624.99	57.36
625.323	57.42
625.657	57.49
625.99	57.48
626.324	57.48
626.657	57.53
626.991	57.5
627.324	57.5
627.658	57.56
627.991	57.54
628.324	57.49
628.657	57.46
628.991	57.47
629.324	57.52
629.657	57.45
629.99	57.42
630.323	57.46
630.656	57.38
630.989	57.39
631.322	57.4
631.655	57.42
631.987	57.39
632.32	57.43
632.653	57.44
632.986	57.53
633.318	57.63
633.651	57.61
633.984	57.71
634.316	57.7
634.649	57.7
634.981	57.71
635.313	57.78
635.646	57.74
635.978	57.89
636.31	57.83
636.643	57.92
636.975	57.95
637.307	58.01
637.639	58.16
637.971	58.13
638.303	58.13
638.635	58.08
638.967	58.14
639.299	58.07
639.631	58.08
639.963	58.19
640.295	58.18
640.626	58.27
640.958	58.35
641.29	58.48
641.621	58.45
641.953	58.51
642.285	58.55
642.616	58.73
642.948	58.75
643.279	58.93
643.61	58.99
643.942	58.95
644.273	58.98
644.604	58.91
644.936	58.93
645.267	58.93
645.598	59.01
645.929	58.9
646.26	58.86
646.591	58.98
646.922	58.94
647.253	58.88
647.584	58.81
647.915	58.81
648.245	58.75
648.576	58.75
648.907	58.73
649.238	58.79
649.568	58.8
649.899	58.73
650.229	58.75
650.56	58.81
650.89	58.78
651.221	58.77
651.551	58.88
651.882	59.04
652.212	59.1
652.542	59.05
652.872	59.1
653.203	59.21
653.533	59.19
653.863	59.35
654.193	59.36
654.523	59.43
654.853	59.34
655.183	59.37
655.513	59.44
655.843	59.61
656.172	59.6
656.502	59.41
656.832	59.3
657.162	59.23
657.491	59.09
657.821	59.26
658.15	59.2
658.48	59.14
658.809	59.04
659.139	58.93
659.468	58.94
659.798	58.95
660.127	59.02
660.456	59.03
660.785	58.91
661.115	58.96
661.444	59.02
661.773	59.13
662.102	59.15
662.431	59.19
662.76	59.13
663.089	59.1
663.418	59.23
663.747	59.28
664.076	59.36
664.404	59.4
664.733	59.38
665.062	59.46
665.39	59.58
665.719	59.56
666.048	59.61
666.376	59.61
666.705	59.74
667.033	59.56
667.362	59.51
667.69	59.43
668.018	59.42
668.347	59.4
668.675	59.35
669.003	59.45
669.331	59.43
669.659	59.44
669.987	59.44
670.315	59.44
670.643	59.52
670.971	59.49
671.299	59.55
671.627	59.45
671.955	59.43
672.283	59.36
672.61	59.47
672.938	59.55
673.266	59.66
673.593	59.53
673.921	59.6
674.249	59.62
674.576	59.78
674.904	59.8
675.231	59.72
675.558	59.77
675.886	59.68
676.213	59.71
676.54	59.78
676.867	59.68
677.195	59.7
677.522	59.67
677.849	59.75
678.176	59.81
678.503	60
678.83	60.03
679.157	60.12
679.484	60.07
679.81	60.09
680.137	60.16
680.464	60.31
680.791	60.43
681.117	60.43
681.444	60.24
681.771	60.23
682.097	60.37
682.424	60.34
682.75	60.45
683.077	60.52
683.403	60.39
683.729	60.42
684.056	60.64
684.382	60.61
684.708	60.57
685.034	60.52
685.36	60.56
685.686	60.52
686.012	60.49
686.339	60.47
686.664	60.36
686.99	60.3
687.316	60.27
687.642	60.26
687.968	60.26
688.294	60.58
688.619	60.77
688.945	60.71
689.271	60.56
689.596	60.46
689.922	60.54
690.247	60.43
690.573	60.53
690.898	60.35
691.224	60.53
691.549	60.61
691.874	60.59
692.2	60.56
692.525	60.61
692.85	60.55
693.175	60.69
693.5	60.83
693.825	60.67
694.15	60.7
694.475	60.64
694.8	60.79
695.125	60.77
695.45	60.59
695.775	60.7
696.099	60.85
696.424	60.84
696.749	60.75
697.073	60.98
697.398	60.98
697.723	61.11
698.047	61.05
698.372	61.01
698.696	61
699.02	61.03
699.345	61.02
699.669	60.95
699.993	61.05
700.318	61.18
700.642	61.21
700.966	61.23
701.29	61.19
701.614	61.17
701.938	61.03
702.262	60.99
702.586	60.84
702.91	60.88
703.234	60.96
703.557	60.9
703.881	60.94
704.205	60.86
704.529	60.73
704.852	60.78
705.176	60.87
705.499	61.01
705.823	60.76
706.146	60.85
706.47	61.1
706.793	60.84
707.117	60.74
707.44	60.84
707.763	60.69
708.086	60.92
708.409	60.73
708.733	60.82
709.056	60.81
709.379	60.85
709.702	60.79
710.025	60.6
710.348	60.73
710.671	60.55
710.993	60.69
711.316	60.68
711.639	60.6
711.962	60.52
712.284	60.55
712.607	60.55
712.93	60.45
713.252	60.36
713.575	60.42
713.897	60.37
714.22	60.41
714.542	60.64
714.864	60.46
715.187	60.58
715.509	60.49
715.831	60.68
716.153	60.76
716.475	60.8
716.798	60.91
717.12	60.9
717.442	60.86
717.764	60.66
718.085	60.97
718.407	60.73
718.729	60.71
719.051	60.55
719.373	60.72
719.695	61.01
720.016	60.72
720.338	60.9
720.659	61.04
720.981	61.01
721.302	60.84
721.624	60.72
721.945	60.76
722.267	60.85
722.588	60.71
722.909	60.74
723.231	60.79
723.552	60.86
723.873	60.92
724.194	61.05
724.515	61.09
724.836	60.77
725.157	61.06
725.478	61.14
725.799	61.29
726.12	61.06
726.441	60.85
726.762	61.48
727.083	61.24
727.403	61.11
727.724	61.25
728.045	61.32
728.365	61.37
728.686	61.17
729.006	61.29
729.327	61.28
729.647	61.23
729.967	60.92
730.288	60.99
730.608	60.98
730.928	60.98
731.249	61.07
731.569	61.21
731.889	61.42
732.209	61.31
732.529	61.15
732.849	61.23
733.169	61.38
733.489	61.05
733.809	61.01
734.129	60.94
734.448	60.99
734.768	61.19
735.088	61.27
735.408	61.75
735.727	61.65
736.047	61.67
736.366	61.74
736.686	61.87
737.005	61.65
737.325	61.58
737.644	61.73
737.963	61.7
738.283	61.49
738.602	61.28
738.921	61.05
739.24	61.34
739.56	61.5
739.879	61.17
740.198	61.07
740.517	61.51
740.836	61.57
741.155	61.37
741.473	60.98
741.792	61.29
742.111	61.05
742.43	61.16
742.748	61.04
743.067	60.9
743.386	61.23
743.704	61.66
744.023	61.93
744.341	62.01
744.66	62.38
744.978	62.09
745.297	61.98
745.615	62.76
745.933	62.89
746.252	63.06
746.57	63.3
746.888	63.37
747.206	63.1
747.524	63.16
747.842	63.23
748.16	63.57
748.478	63.31
748.796	63.22
749.114	62.87
749.432	62.93
749.749	62.76
750.067	62.31
750.385	62.35
750.703	62
751.02	61.87
751.338	61.68
751.655	62.01
751.973	62.4
752.29	62
752.608	61.55
752.925	61.31
753.242	61.27
753.56	61.6
753.877	61.55
754.194	61.58
754.511	61.51
754.828	61.53
755.145	61.35
755.462	61.58
755.779	61.66
756.096	61.92
756.413	62.26
756.73	62.59
757.047	62.44
757.364	62.42
757.68	62.51
757.997	62.44
758.314	62.74
758.63	62.48
758.947	62.44
759.264	62.65
759.58	63.02
759.896	62.92
760.213	63.08
760.529	63.05
760.846	63.07
761.162	63.01
761.478	62.52
761.794	62.72
762.11	62.65
762.426	63.03
762.743	63.21
763.059	63.28
763.375	63.08
763.69	62.96
764.006	63.19
764.322	63.11
764.638	63.41
764.954	63.19
765.27	63.14
765.585	63.18
765.901	62.98
766.216	62.48
766.532	62.46
766.848	62.33
767.163	62.39
767.478	62.14
767.794	62.6
768.109	62.65
768.424	62.63
768.74	62.48
769.055	62.27
769.37	62.07
769.685	62.38
770	63.02
770.315	63.25
770.63	62.99
770.945	63.6
771.26	63.19
771.575	63.08
771.89	63.22
772.205	63.53
772.52	63.74
772.834	64.11
773.149	64.79
773.464	64.58
773.778	64.48
774.093	65.01
774.407	64.79
774.722	64.9
775.036	64.6
775.351	64.78
775.665	64.85
775.979	64.89
776.293	64.38
776.608	63.98
776.922	63.58
777.236	63.85
777.55	63.28
777.864	63.42
778.178	63.81
778.492	64.35
778.806	64.04
779.12	64.51
779.434	64.87
779.747	64.46
780.061	64.27
780.375	64.45
780.689	63.72
781.002	63.06
781.316	62.73
781.629	62.64
781.943	63.02
782.256	63.14
782.57	63.19
782.883	63.52
783.196	63.7
783.51	63.6
783.823	63.16
784.136	62.86
784.449	62.77
784.762	63.18
785.075	62.79
785.388	62.48
785.701	62.15
786.014	61.97
786.327	61.91
786.64	62.26
786.953	62.06
787.266	62.99
787.578	63.57
787.891	64.12
788.204	64.35
788.516	64.16
788.829	63.76
789.141	63.95
789.454	63.24
789.766	63.49
790.079	62.97
790.391	63.29
790.703	63.85
791.016	63.67
791.328	62.75
791.64	62.21
791.952	62.37
792.264	61.83
792.576	61.81
792.888	62.06
793.2	61.96
793.512	61.71
793.824	61.68
794.136	61.17
794.448	61.52
794.76	61.5
795.071	61.74
795.383	61.73
795.695	61.34
796.006	61.22
796.318	60.91
796.629	61.25
796.941	60.81
797.252	60.33
797.564	60.29
797.875	60.51
798.186	60.73
798.497	60.92
798.809	61.27
799.12	61.54
799.431	61.35
799.742	61.45
800.053	61.67
800.364	60.73
800.675	60.91
800.986	60.41
801.297	60.36
801.608	58.75
801.918	59.75
802.229	59.79
802.54	60.31
802.851	60.59
803.161	60.88
803.472	61.6
803.782	61.88
804.093	62.07
804.403	62.08
804.714	62.29
805.024	63.04
805.334	63.13
805.645	62.8
805.955	62.8
806.265	62.37
806.575	62.32
806.885	62.59
807.195	61.85
807.505	61.96
807.815	62.2
808.125	63.2
808.435	62.83
808.745	61.93
809.055	60.93
809.365	60.24
809.674	60.53
809.984	60.24
810.294	60.33
810.603	59.96
810.913	60.47
811.222	59.82
811.532	59.24
811.841	59.49
812.151	58.53
812.46	58.64
812.769	58.58
813.079	58.53
813.388	58.59
813.697	58.95
814.006	59.03
814.315	58.5
814.624	58.16
814.933	57.12
815.242	58.56
815.551	59.83
815.86	60.01
816.169	59.66
816.478	58.68
816.786	58.38
817.095	59.54
817.404	59.07
817.712	59.77
818.021	60.19
818.33	59.85
818.638	60.94
818.947	60.87
819.255	61.42
819.563	62
819.872	61.59
820.18	61.9
820.488	61.99
820.796	62.27
821.105	62.43
821.413	62.72
821.721	62.52
822.029	62.47
822.337	62.72
822.645	62.8
822.953	62.88
823.26	63.05
823.568	62.73
823.876	62.92
824.184	62.9
824.491	62.81
824.799	62.74
825.107	62.82
825.414	62.73
825.722	62.54
826.029	62.19
826.337	62.36
826.644	62.63
826.951	62.5
827.259	62.52
827.566	62.5
827.873	62.51
828.18	62.48
828.488	62.34
828.795	62.37
829.102	62.53
829.409	62.45
829.716	62.27
830.023	62.47
830.329	61.97
830.636	61.76
830.943	61.54
831.25	61.85
831.557	61.25
831.863	61.25
832.17	61.21
832.476	61.92
832.783	62.29
833.089	61.88
833.396	62.12
833.702	62.51
834.009	63.01
834.315	62.95
834.621	62.95
834.928	62.74
835.234	62.21
835.54	62.44
835.846	63.04
836.152	63.27
836.458	63.47
836.764	63.78
837.07	63.98
837.376	64.41
837.682	64.13
837.988	64.67
838.293	65.14
838.599	65.74
838.905	65.49
839.211	65.94
839.516	65.9
839.822	66.58
840.127	65.98
840.433	65.57
840.738	64.97
841.044	65.54
841.349	66.81
841.654	66.92
841.959	66.3
842.265	66.3
842.57	64.86
842.875	64.42
843.18	63.58
843.485	63.62
843.79	60.95
844.095	62.25
844.4	61.76
844.705	63.67
845.01	62.96
845.315	63.36
845.619	62.77
845.924	62.44
846.229	60.71
846.533	60.83
846.838	62.12
847.142	62.78
847.447	62.81
847.751	63.05
848.056	62.36
848.36	61.79
848.664	61.23
848.969	62.52
849.273	62.28
849.577	64.58
849.881	64.63
850.185	67.78
850.489	67.56
850.794	69.6
851.097	64.66
851.401	67.94
851.705	67.63
852.009	65.24
852.313	64.99
852.617	66.61
852.92	65.39
853.224	64.83
853.528	67.01
853.831	66.11
854.135	67.47
854.438	65.95
854.742	65.49
855.045	66.68
855.349	67.14
855.652	70.12
855.955	71.93
856.259	71.28
856.562	71.08
856.865	69.71
857.168	67.31
857.471	73.54
857.774	70.83
858.077	68.91
858.38	72.9
858.683	71.93
858.986	69.3
859.289	73.02
859.592	69.7
859.894	68.05
860.197	66.75
860.5	64.83
860.802	68.48
861.105	68.63
861.407	68.03
861.71	68.56
862.012	66.82
862.315	65.44
862.617	65.39
862.919	65.42
863.222	67.28
863.524	68.67
863.826	63.94
864.128	63.46
864.43	63.84
864.732	61.64
865.034	64.56
865.336	69.51
865.638	64.29
865.94	68.44
866.242	67.03
866.544	68.7
866.846	70.08
867.147	68.92
867.449	67.9
867.751	66.58
868.052	65.31
868.354	65.88
868.655	63.95
868.957	66.99
869.258	70.08
869.56	68.32
869.861	69.16
870.162	68.72
870.463	71.64
870.765	74.56
871.066	74.38
871.367	72.13
871.668	69.97
871.969	75.21
872.27	74.75
872.571	75.79
872.872	79.25
873.173	77.8
873.473	78.93
873.774	80.81
874.075	78.92
874.376	80.52
874.676	77.89
874.977	75.19
875.277	72.8
875.578	68.88
875.878	69.67
876.179	67.53
876.479	68.94
876.78	67.13
877.08	64.92
877.38	65.46
877.68	67.05
877.981	66.73
878.281	62.62
878.581	59.76
