Data from MVZ_BU95633_Reflection_00002.txt Node
Date: Tue Nov 19 12:20:58 EST 2019
User: vgr7
Spectrometer: USB2G7710
Scans to average: 3
Trigger mode: 4
Integration Time (sec): 2.000000E-2
Electric dark correction enabled: true
Boxcar width: 10
XAxis mode: Wavelengths
Number of Pixels in Spectrum: 2048
>>>>>Begin Spectral Data<<<<<
177.721	88.13
178.105	42.03
178.488	41.28
178.871	-80
179.254	18.18
179.636	55.22
180.019	50.55
180.402	96.43
180.785	-168.42
181.168	-25.87
181.55	14.36
181.933	31.69
182.316	39.72
182.698	-23.48
183.081	-66.67
183.463	-35.36
183.846	-10.64
184.228	-27.06
184.611	-64.6
184.993	-51.61
185.376	-425.64
185.758	-638.1
186.14	371.43
186.522	146.39
186.904	75.86
187.287	390.7
187.669	75.68
188.051	48.09
188.433	9.84
188.815	-24.55
189.197	-24.58
189.579	-25.38
189.961	-41.43
190.342	-35.47
190.724	-96.97
191.106	-104.64
191.488	-70.55
191.869	-56.42
192.251	-42.75
192.633	-57.62
193.014	-43.93
193.396	-57.96
193.777	-47.45
194.159	-83.92
194.54	-101.03
194.922	-154.94
195.303	-123.81
195.684	-126.69
196.065	-91.29
196.447	-74.3
196.828	-119.47
197.209	-86.02
197.59	-54.24
197.971	-44.91
198.352	-49.72
198.733	-49.91
199.114	-53.65
199.495	-43.93
199.876	-37.96
200.257	-42.69
200.638	-22.6
201.018	-48.03
201.399	-33.38
201.78	-31.5
202.16	-27.21
202.541	-25.47
202.922	-21.51
203.302	-25.92
203.683	-29.63
204.063	-42.48
204.444	-29.98
204.824	-10.32
205.204	-5.91
205.585	-5.1
205.965	-8.54
206.345	-8.27
206.725	-4.72
207.106	-6.24
207.486	-0
207.866	5.26
208.246	-2.13
208.626	-17.34
209.006	-16.2
209.386	-24.6
209.766	-36.76
210.145	-28.66
210.525	-35.75
210.905	-25.66
211.285	-25.61
211.664	-17.78
212.044	-15.52
212.424	-23.27
212.803	-29.21
213.183	-31.84
213.562	-30.46
213.942	-34.98
214.321	-48.04
214.701	-66.67
215.08	-60.32
215.459	-69.46
215.838	-87.03
216.218	-86.84
216.597	-75.72
216.976	-74.86
217.355	-54.9
217.734	-57.42
218.113	-66.67
218.492	-66.67
218.871	-77.52
219.25	-78.76
219.629	-87.87
220.008	-63.18
220.387	-46.51
220.766	-40.34
221.144	-41.65
221.523	-56.51
221.902	-33.66
222.28	-21.23
222.659	-3.3
223.037	-6.59
223.416	-0
223.794	0.82
224.173	-4.73
224.551	-2.49
224.929	-8.78
225.308	-11.69
225.686	-3.91
226.064	-1.13
226.442	2.51
226.821	6.2
227.199	2.46
227.577	3.11
227.955	2.38
228.333	1.09
228.711	1.07
229.089	-0.22
229.467	2.43
229.845	0.21
230.222	1.62
230.6	0.89
230.978	0.79
231.356	2.65
231.733	3.94
232.111	4.81
232.488	5.67
232.866	7.77
233.243	8.68
233.621	6.18
233.998	6.43
234.376	3.22
234.753	4.26
235.13	4
235.508	5.39
235.885	5.64
236.262	6.38
236.639	6.97
237.016	6.48
237.393	5.5
237.77	6.74
238.147	5.88
238.524	5.13
238.901	4.54
239.278	3.7
239.655	3.68
240.032	3.84
240.409	4.23
240.785	3.6
241.162	3.68
241.539	3.65
241.915	3
242.292	3.24
242.668	2.79
243.045	3.34
243.421	3.12
243.798	2.72
244.174	2.64
244.551	2.39
244.927	2.54
245.303	2.62
245.679	2.5
246.056	2.5
246.432	2.43
246.808	2.82
247.184	2.5
247.56	2.42
247.936	2.34
248.312	2.28
248.688	2.29
249.064	2.2
249.44	1.99
249.815	1.98
250.191	2.14
250.567	2.19
250.943	1.73
251.318	1.6
251.694	1.38
252.069	1.17
252.445	1.58
252.82	1.14
253.196	0.88
253.571	0.97
253.947	1.05
254.322	1.16
254.697	0.8
255.073	1.42
255.448	1.62
255.823	1.87
256.198	1.67
256.573	1.78
256.948	1.99
257.323	2.38
257.698	2.61
258.073	2.37
258.448	2.4
258.823	2.56
259.198	2.55
259.573	2.67
259.948	2.96
260.322	2.68
260.697	3.13
261.072	3.3
261.446	3.22
261.821	3.11
262.195	3.27
262.57	3.38
262.944	3.19
263.319	3.17
263.693	3.2
264.067	3.36
264.442	3.42
264.816	3.38
265.19	3.43
265.564	3.41
265.938	3.58
266.313	3.57
266.687	3.4
267.061	3.38
267.435	3.49
267.809	3.12
268.183	3.09
268.556	2.92
268.93	2.87
269.304	2.67
269.678	2.9
270.051	2.7
270.425	2.58
270.799	2.51
271.172	2.38
271.546	2.43
271.919	2.36
272.293	2.33
272.666	2.29
273.04	2.14
273.413	2.16
273.787	2.13
274.16	2.09
274.533	2.44
274.906	2.48
275.279	2.37
275.653	2.39
276.026	2.33
276.399	2.22
276.772	2.23
277.145	2.51
277.518	2.34
277.891	2.48
278.263	2.6
278.636	2.78
279.009	2.89
279.382	2.67
279.755	2.65
280.127	2.68
280.5	2.69
280.872	2.9
281.245	2.81
281.617	2.92
281.99	2.89
282.362	2.73
282.735	2.66
283.107	2.89
283.479	2.99
283.852	3.11
284.224	3.22
284.596	3.07
284.968	2.96
285.34	2.98
285.713	2.91
286.085	2.79
286.457	2.72
286.829	2.76
287.201	2.87
287.572	2.99
287.944	3.05
288.316	3.05
288.688	2.96
289.06	3.07
289.431	2.98
289.803	3.06
290.175	3
290.546	2.87
290.918	2.63
291.289	2.44
291.661	2.5
292.032	2.49
292.403	2.55
292.775	2.53
293.146	2.75
293.517	2.69
293.889	2.63
294.26	2.7
294.631	2.74
295.002	2.78
295.373	2.68
295.744	2.71
296.115	2.71
296.486	2.67
296.857	2.69
297.228	2.47
297.599	2.4
297.97	2.54
298.34	2.78
298.711	2.89
299.082	3.06
299.452	3.03
299.823	2.88
300.194	2.92
300.564	2.95
300.935	2.77
301.305	2.86
301.676	2.79
302.046	2.82
302.416	2.73
302.787	2.52
303.157	2.45
303.527	2.41
303.897	2.2
304.267	2.28
304.637	2.16
305.008	2.52
305.378	2.58
305.748	2.44
306.117	2.38
306.487	2.43
306.857	2.5
307.227	2.61
307.597	2.7
307.967	2.49
308.336	2.48
308.706	2.44
309.076	2.56
309.445	2.76
309.815	2.66
310.184	2.6
310.554	2.74
310.923	2.73
311.293	2.76
311.662	2.8
312.031	2.74
312.401	2.72
312.77	2.53
313.139	2.54
313.508	2.44
313.877	2.4
314.246	2.27
314.616	2.11
314.985	2.02
315.353	2.16
315.722	2.36
316.091	2.31
316.46	2.19
316.829	2.05
317.198	2.16
317.567	2.27
317.935	2.27
318.304	2.33
318.672	2.41
319.041	2.37
319.41	2.53
319.778	2.44
320.147	2.47
320.515	2.64
320.883	2.7
321.252	2.89
321.62	2.91
321.988	2.89
322.357	2.87
322.725	2.87
323.093	2.54
323.461	2.55
323.829	2.39
324.197	2.47
324.565	2.37
324.933	2.27
325.301	2.05
325.669	2.13
326.037	2.1
326.405	2.08
326.772	2.02
327.14	1.91
327.508	1.91
327.875	1.91
328.243	1.84
328.61	1.65
328.978	1.61
329.346	1.54
329.713	1.72
330.08	1.75
330.448	1.58
330.815	1.66
331.182	1.65
331.55	1.89
331.917	2
332.284	2.12
332.651	2.09
333.018	2.17
333.385	2.09
333.752	2.03
334.119	2.08
334.486	2.16
334.853	2.29
335.22	2.28
335.587	2.23
335.954	2.24
336.32	2.25
336.687	2.31
337.054	2.35
337.42	2.3
337.787	2.4
338.153	2.51
338.52	2.69
338.886	2.76
339.253	2.65
339.619	2.6
339.986	2.44
340.352	2.43
340.718	2.46
341.084	2.56
341.451	2.6
341.817	2.55
342.183	2.52
342.549	2.43
342.915	2.39
343.281	2.46
343.647	2.41
344.013	2.52
344.379	2.43
344.745	2.46
345.11	2.4
345.476	2.35
345.842	2.2
346.208	2.13
346.573	2
346.939	2.07
347.304	2.11
347.67	2.11
348.035	2.06
348.401	2.12
348.766	2
349.132	2.04
349.497	2.21
349.862	2.14
350.228	2.21
350.593	2.26
350.958	2.31
351.323	2.33
351.688	2.41
352.053	2.35
352.418	2.4
352.783	2.36
353.148	2.37
353.513	2.46
353.878	2.4
354.243	2.37
354.608	2.48
354.972	2.45
355.337	2.47
355.702	2.45
356.066	2.47
356.431	2.55
356.795	2.53
357.16	2.42
357.524	2.44
357.889	2.37
358.253	2.47
358.618	2.51
358.982	2.54
359.346	2.54
359.71	2.54
360.075	2.55
360.439	2.61
360.803	2.57
361.167	2.6
361.531	2.63
361.895	2.62
362.259	2.48
362.623	2.52
362.987	2.57
363.351	2.63
363.714	2.6
364.078	2.55
364.442	2.54
364.806	2.57
365.169	2.59
365.533	2.66
365.896	2.66
366.26	2.53
366.623	2.58
366.987	2.51
367.35	2.57
367.714	2.61
368.077	2.63
368.44	2.72
368.803	2.7
369.167	2.62
369.53	2.73
369.893	2.86
370.256	2.82
370.619	2.77
370.982	2.77
371.345	2.81
371.708	2.78
372.071	2.8
372.434	2.81
372.797	2.84
373.159	2.8
373.522	2.72
373.885	2.8
374.247	2.76
374.61	2.82
374.973	2.82
375.335	2.77
375.698	2.77
376.06	2.72
376.423	2.74
376.785	2.79
377.147	2.76
377.51	2.71
377.872	2.65
378.234	2.74
378.596	2.74
378.958	2.78
379.321	2.79
379.683	2.83
380.045	2.83
380.407	2.82
380.769	2.83
381.13	2.84
381.492	2.84
381.854	2.85
382.216	2.84
382.578	2.88
382.939	2.92
383.301	2.88
383.663	2.89
384.024	2.87
384.386	2.89
384.747	2.87
385.109	2.85
385.47	2.91
385.832	2.86
386.193	2.87
386.554	2.79
386.916	2.82
387.277	2.78
387.638	2.74
387.999	2.74
388.36	2.75
388.721	2.8
389.082	2.77
389.443	2.79
389.804	2.78
390.165	2.7
390.526	2.7
390.887	2.7
391.248	2.73
391.609	2.73
391.969	2.73
392.33	2.73
392.691	2.77
393.051	2.75
393.412	2.76
393.772	2.77
394.133	2.8
394.493	2.77
394.854	2.74
395.214	2.75
395.574	2.74
395.935	2.73
396.295	2.71
396.655	2.71
397.015	2.71
397.376	2.69
397.736	2.72
398.096	2.73
398.456	2.73
398.816	2.75
399.176	2.74
399.535	2.72
399.895	2.75
400.255	2.72
400.615	2.75
400.975	2.75
401.334	2.76
401.694	2.75
402.054	2.79
402.413	2.8
402.773	2.76
403.132	2.75
403.492	2.77
403.851	2.76
404.211	2.76
404.57	2.78
404.929	2.78
405.288	2.78
405.648	2.77
406.007	2.78
406.366	2.75
406.725	2.77
407.084	2.79
407.443	2.8
407.802	2.8
408.161	2.82
408.52	2.82
408.879	2.84
409.238	2.85
409.596	2.83
409.955	2.85
410.314	2.9
410.673	2.89
411.031	2.89
411.39	2.89
411.748	2.92
412.107	2.9
412.465	2.91
412.824	2.92
413.182	2.91
413.54	2.94
413.899	2.93
414.257	2.95
414.615	2.92
414.974	2.92
415.332	2.92
415.69	2.9
416.048	2.89
416.406	2.85
416.764	2.87
417.122	2.88
417.48	2.89
417.838	2.87
418.195	2.88
418.553	2.9
418.911	2.89
419.269	2.88
419.626	2.88
419.984	2.87
420.342	2.85
420.699	2.85
421.057	2.84
421.414	2.85
421.772	2.85
422.129	2.84
422.486	2.83
422.844	2.83
423.201	2.84
423.558	2.84
423.915	2.85
424.273	2.84
424.63	2.85
424.987	2.84
425.344	2.85
425.701	2.85
426.058	2.83
426.415	2.84
426.772	2.83
427.128	2.84
427.485	2.85
427.842	2.85
428.199	2.84
428.555	2.85
428.912	2.84
429.269	2.83
429.625	2.84
429.982	2.85
430.338	2.86
430.695	2.86
431.051	2.87
431.407	2.87
431.764	2.88
432.12	2.86
432.476	2.86
432.832	2.85
433.189	2.86
433.545	2.86
433.901	2.86
434.257	2.87
434.613	2.88
434.969	2.87
435.325	2.89
435.681	2.9
436.036	2.89
436.392	2.91
436.748	2.92
437.104	2.93
437.459	2.94
437.815	2.93
438.171	2.96
438.526	2.96
438.882	2.94
439.237	2.95
439.593	2.95
439.948	2.96
440.304	2.96
440.659	2.97
441.014	2.98
441.369	3
441.725	3
442.08	3
442.435	2.99
442.79	2.98
443.145	2.99
443.5	2.97
443.855	2.97
444.21	2.98
444.565	2.96
444.92	2.95
445.275	2.95
445.629	2.93
445.984	2.94
446.339	2.94
446.693	2.92
447.048	2.91
447.403	2.91
447.757	2.9
448.112	2.9
448.466	2.91
448.82	2.89
449.175	2.86
449.529	2.86
449.883	2.88
450.238	2.88
450.592	2.85
450.946	2.85
451.3	2.85
451.654	2.83
452.008	2.87
452.362	2.85
452.716	2.84
453.07	2.83
453.424	2.81
453.778	2.82
454.132	2.81
454.486	2.83
454.839	2.83
455.193	2.87
455.547	2.85
455.9	2.85
456.254	2.86
456.607	2.86
456.961	2.86
457.314	2.86
457.668	2.88
458.021	2.91
458.375	2.93
458.728	2.91
459.081	2.92
459.434	2.91
459.787	2.93
460.141	2.93
460.494	2.94
460.847	2.97
461.2	2.97
461.553	2.99
461.906	2.99
462.259	2.98
462.611	2.95
462.964	2.97
463.317	2.95
463.67	2.94
464.022	2.97
464.375	2.97
464.728	2.97
465.08	2.94
465.433	2.92
465.785	2.92
466.138	2.95
466.49	2.95
466.843	2.97
467.195	2.96
467.547	2.97
467.899	2.94
468.252	2.93
468.604	2.95
468.956	2.96
469.308	2.95
469.66	2.98
470.012	2.99
470.364	2.99
470.716	3.03
471.068	3.03
471.42	3.03
471.772	3.04
472.123	3.03
472.475	3.07
472.827	3.08
473.178	3.08
473.53	3.1
473.882	3.11
474.233	3.11
474.585	3.1
474.936	3.12
475.288	3.13
475.639	3.13
475.99	3.12
476.342	3.13
476.693	3.12
477.044	3.11
477.395	3.11
477.746	3.09
478.097	3.07
478.448	3.08
478.8	3.09
479.15	3.09
479.501	3.1
479.852	3.09
480.203	3.09
480.554	3.1
480.905	3.1
481.255	3.11
481.606	3.11
481.957	3.13
482.307	3.13
482.658	3.13
483.009	3.14
483.359	3.14
483.709	3.13
484.06	3.14
484.41	3.14
484.761	3.15
485.111	3.16
485.461	3.17
485.811	3.17
486.162	3.17
486.512	3.18
486.862	3.17
487.212	3.17
487.562	3.17
487.912	3.17
488.262	3.17
488.612	3.16
488.961	3.16
489.311	3.16
489.661	3.14
490.011	3.15
490.36	3.15
490.71	3.15
491.06	3.15
491.409	3.14
491.759	3.15
492.108	3.13
492.458	3.14
492.807	3.14
493.157	3.13
493.506	3.13
493.855	3.11
494.204	3.13
494.554	3.14
494.903	3.15
495.252	3.15
495.601	3.14
495.95	3.15
496.299	3.15
496.648	3.15
496.997	3.17
497.346	3.19
497.695	3.2
498.043	3.23
498.392	3.24
498.741	3.26
499.09	3.26
499.438	3.27
499.787	3.26
500.135	3.24
500.484	3.26
500.832	3.25
501.181	3.25
501.529	3.25
501.878	3.26
502.226	3.27
502.574	3.28
502.923	3.28
503.271	3.27
503.619	3.28
503.967	3.29
504.315	3.31
504.663	3.3
505.011	3.29
505.359	3.28
505.707	3.28
506.055	3.26
506.403	3.27
506.751	3.29
507.098	3.28
507.446	3.3
507.794	3.3
508.141	3.31
508.489	3.34
508.837	3.34
509.184	3.35
509.531	3.33
509.879	3.33
510.226	3.34
510.574	3.36
510.921	3.34
511.268	3.36
511.616	3.34
511.963	3.33
512.31	3.32
512.657	3.32
513.004	3.3
513.351	3.34
513.698	3.36
514.045	3.34
514.392	3.35
514.739	3.36
515.086	3.38
515.432	3.38
515.779	3.35
516.126	3.37
516.473	3.39
516.819	3.38
517.166	3.39
517.512	3.4
517.859	3.4
518.205	3.41
518.552	3.4
518.898	3.41
519.245	3.44
519.591	3.45
519.937	3.44
520.283	3.44
520.629	3.44
520.976	3.44
521.322	3.46
521.668	3.44
522.014	3.45
522.36	3.45
522.706	3.44
523.052	3.46
523.398	3.46
523.743	3.43
524.089	3.45
524.435	3.44
524.781	3.44
525.126	3.45
525.472	3.47
525.817	3.47
526.163	3.49
526.509	3.49
526.854	3.5
527.199	3.51
527.545	3.53
527.89	3.53
528.235	3.54
528.581	3.55
528.926	3.56
529.271	3.56
529.616	3.56
529.961	3.57
530.306	3.57
530.651	3.59
530.996	3.62
531.341	3.63
531.686	3.65
532.031	3.65
532.376	3.64
532.721	3.64
533.065	3.64
533.41	3.64
533.755	3.65
534.099	3.66
534.444	3.65
534.788	3.65
535.133	3.66
535.477	3.65
535.822	3.66
536.166	3.66
536.51	3.67
536.855	3.67
537.199	3.69
537.543	3.69
537.887	3.68
538.231	3.66
538.576	3.64
538.92	3.65
539.264	3.67
539.608	3.68
539.951	3.68
540.295	3.68
540.639	3.67
540.983	3.67
541.327	3.67
541.671	3.66
542.014	3.68
542.358	3.67
542.701	3.68
543.045	3.69
543.389	3.7
543.732	3.69
544.075	3.69
544.419	3.66
544.762	3.65
545.105	3.66
545.449	3.66
545.792	3.68
546.135	3.68
546.478	3.67
546.821	3.69
547.165	3.7
547.508	3.7
547.851	3.71
548.194	3.71
548.536	3.7
548.879	3.71
549.222	3.71
549.565	3.69
549.908	3.7
550.25	3.68
550.593	3.68
550.936	3.68
551.278	3.69
551.621	3.72
551.963	3.73
552.306	3.75
552.648	3.77
552.991	3.78
553.333	3.78
553.675	3.78
554.017	3.76
554.36	3.75
554.702	3.74
555.044	3.73
555.386	3.73
555.728	3.74
556.07	3.74
556.412	3.72
556.754	3.71
557.096	3.7
557.438	3.72
557.78	3.7
558.121	3.68
558.463	3.69
558.805	3.68
559.147	3.69
559.488	3.66
559.83	3.67
560.171	3.65
560.513	3.64
560.854	3.63
561.196	3.62
561.537	3.64
561.878	3.66
562.22	3.71
562.561	3.7
562.902	3.71
563.243	3.72
563.584	3.73
563.925	3.79
564.266	3.74
564.607	3.72
564.948	3.71
565.289	3.74
565.63	3.74
565.971	3.76
566.312	3.75
566.653	3.78
566.993	3.77
567.334	3.8
567.675	3.82
568.015	3.82
568.356	3.84
568.696	3.85
569.037	3.83
569.377	3.8
569.718	3.8
570.058	3.81
570.398	3.81
570.739	3.78
571.079	3.73
571.419	3.79
571.759	3.77
572.099	3.76
572.439	3.77
572.779	3.77
573.119	3.74
573.459	3.74
573.799	3.71
574.139	3.71
574.479	3.7
574.819	3.71
575.158	3.72
575.498	3.71
575.838	3.73
576.177	3.72
576.517	3.73
576.856	3.71
577.196	3.66
577.535	3.67
577.875	3.7
578.214	3.74
578.553	3.75
578.893	3.8
579.232	3.83
579.571	3.79
579.91	3.79
580.25	3.8
580.589	3.81
580.928	3.83
581.267	3.81
581.606	3.76
581.945	3.74
582.283	3.77
582.622	3.77
582.961	3.77
583.3	3.77
583.639	3.78
583.977	3.8
584.316	3.86
584.654	3.82
584.993	3.8
585.332	3.79
585.67	3.78
586.008	3.73
586.347	3.75
586.685	3.69
587.024	3.68
587.362	3.72
587.7	3.74
588.038	3.77
588.376	3.8
588.715	3.84
589.053	3.82
589.391	3.79
589.729	3.8
590.067	3.77
590.404	3.78
590.742	3.79
591.08	3.78
591.418	3.75
591.756	3.83
592.093	3.86
592.431	3.87
592.769	3.87
593.106	3.9
593.444	3.88
593.781	3.97
594.119	3.98
594.456	3.96
594.793	3.92
595.131	3.94
595.468	3.94
595.805	3.92
596.143	3.94
596.48	3.94
596.817	3.95
597.154	3.96
597.491	3.98
597.828	3.97
598.165	3.98
598.502	3.99
598.839	3.95
599.176	3.95
599.512	3.93
599.849	3.93
600.186	3.91
600.523	3.92
600.859	3.91
601.196	3.91
601.532	3.88
601.869	3.91
602.205	3.9
602.542	3.88
602.878	3.88
603.215	3.89
603.551	3.92
603.887	3.9
604.223	3.9
604.56	3.89
604.896	3.88
605.232	3.92
605.568	3.92
605.904	3.91
606.24	3.89
606.576	3.92
606.912	3.9
607.248	3.94
607.583	3.94
607.919	3.92
608.255	3.95
608.591	3.97
608.926	3.97
609.262	3.96
609.597	3.99
609.933	4
610.268	4.01
610.604	3.97
610.939	3.98
611.275	4
611.61	4
611.945	4.01
612.281	4.04
612.616	4.04
612.951	4.06
613.286	4.09
613.621	4.08
613.956	4.12
614.291	4.12
614.626	4.09
614.961	4.13
615.296	4.13
615.631	4.12
615.966	4.1
616.3	4.1
616.635	4.06
616.97	4.06
617.304	4.07
617.639	4.09
617.973	4.07
618.308	4.07
618.642	4.04
618.977	4.03
619.311	3.98
619.646	3.96
619.98	3.98
620.314	3.98
620.648	3.97
620.983	3.96
621.317	3.96
621.651	4
621.985	3.98
622.319	3.91
622.653	3.91
622.987	3.94
623.321	3.98
623.655	4.03
623.988	4.05
624.322	4.05
624.656	4.04
624.99	4.04
625.323	4
625.657	4.03
625.99	4.04
626.324	4.04
626.657	4.06
626.991	4.04
627.324	4
627.658	3.99
627.991	4.04
628.324	4.05
628.657	4.03
628.991	4.02
629.324	4.04
629.657	3.98
629.99	3.99
630.323	3.95
630.656	3.96
630.989	3.94
631.322	3.88
631.655	3.9
631.987	3.92
632.32	3.96
632.653	3.95
632.986	3.94
633.318	3.93
633.651	3.93
633.984	3.98
634.316	4.08
634.649	4.07
634.981	4
635.313	3.98
635.646	4.04
635.978	4.04
636.31	4.09
636.643	4.14
636.975	4.09
637.307	4.05
637.639	4.04
637.971	4.05
638.303	4.07
638.635	4.09
638.967	4.08
639.299	4.02
639.631	4.01
639.963	4
640.295	4.02
640.626	4.05
640.958	3.91
641.29	3.91
641.621	3.93
641.953	4
642.285	4.02
642.616	4.04
642.948	4.06
643.279	4.1
643.61	4.2
643.942	4.27
644.273	4.37
644.604	4.33
644.936	4.31
645.267	4.3
645.598	4.36
645.929	4.3
646.26	4.31
646.591	4.29
646.922	4.35
647.253	4.35
647.584	4.32
647.915	4.41
648.245	4.36
648.576	4.32
648.907	4.31
649.238	4.31
649.568	4.23
649.899	4.19
650.229	4.15
650.56	4.07
650.89	4.05
651.221	3.98
651.551	4.03
651.882	4.06
652.212	4.08
652.542	4.02
652.872	4.07
653.203	4.17
653.533	4.25
653.863	4.23
654.193	4.19
654.523	4.14
654.853	4.22
655.183	4.2
655.513	4.19
655.843	4.16
656.172	4.16
656.502	4.17
656.832	4.11
657.162	4.08
657.491	4.13
657.821	4.08
658.15	4.13
658.48	4.17
658.809	4.23
659.139	4.22
659.468	4.23
659.798	4.27
660.127	4.24
660.456	4.2
660.785	4.21
661.115	4.22
661.444	4.26
661.773	4.18
662.102	4.19
662.431	4.19
662.76	4.2
663.089	4.25
663.418	4.3
663.747	4.43
664.076	4.45
664.404	4.46
664.733	4.57
665.062	4.59
665.39	4.51
665.719	4.45
666.048	4.48
666.376	4.49
666.705	4.52
667.033	4.6
667.362	4.62
667.69	4.68
668.018	4.71
668.347	4.71
668.675	4.8
669.003	4.78
669.331	4.88
669.659	4.93
669.987	4.89
670.315	4.83
670.643	4.86
670.971	4.88
671.299	4.87
671.627	4.81
671.955	4.8
672.283	4.85
672.61	4.9
672.938	4.87
673.266	4.9
673.593	4.8
673.921	4.71
674.249	4.66
674.576	4.62
674.904	4.56
675.231	4.59
675.558	4.6
675.886	4.59
676.213	4.52
676.54	4.5
676.867	4.52
677.195	4.59
677.522	4.56
677.849	4.68
678.176	4.7
678.503	4.64
678.83	4.65
679.157	4.65
679.484	4.58
679.81	4.62
680.137	4.64
680.464	4.71
680.791	4.69
681.117	4.71
681.444	4.67
681.771	4.78
682.097	4.77
682.424	4.68
682.75	4.72
683.077	4.77
683.403	4.78
683.729	4.77
684.056	4.76
684.382	4.7
684.708	4.53
685.034	4.57
685.36	4.59
685.686	4.49
686.012	4.49
686.339	4.51
686.664	4.6
686.99	4.45
687.316	4.45
687.642	4.54
687.968	4.73
688.294	4.8
688.619	4.75
688.945	4.72
689.271	4.85
689.596	4.91
689.922	4.83
690.247	4.86
690.573	4.83
690.898	4.95
691.224	5.09
691.549	5.15
691.874	5.22
692.2	5.13
692.525	5.23
692.85	5.17
693.175	5.17
693.5	5.07
693.825	5.18
694.15	5.17
694.475	5.06
694.8	4.98
695.125	4.94
695.45	4.97
695.775	4.96
696.099	4.9
696.424	4.87
696.749	4.96
697.073	4.94
697.398	5.03
697.723	4.79
698.047	4.82
698.372	4.78
698.696	4.67
699.02	4.73
699.345	4.67
699.669	4.77
699.993	4.84
700.318	4.84
700.642	4.9
700.966	4.9
701.29	5
701.614	4.91
701.938	4.91
702.262	4.83
702.586	4.91
702.91	4.87
703.234	4.74
703.557	4.61
703.881	4.62
704.205	4.59
704.529	4.69
704.852	4.53
705.176	4.59
705.499	4.63
705.823	4.72
706.146	4.79
706.47	4.79
706.793	4.81
707.117	4.76
707.44	4.73
707.763	4.61
708.086	4.55
708.409	4.53
708.733	4.5
709.056	4.52
709.379	4.64
709.702	4.71
710.025	4.89
710.348	4.96
710.671	5
710.993	5.08
711.316	5.22
711.639	5.21
711.962	5.34
712.284	5.2
712.607	5.29
712.93	5.32
713.252	5.1
713.575	5.15
713.897	5.31
714.22	5.36
714.542	5.57
714.864	5.47
715.187	5.68
715.509	5.72
715.831	5.86
716.153	5.75
716.475	5.65
716.798	5.52
717.12	5.54
717.442	5.45
717.764	5.37
718.085	5.29
718.407	5.44
718.729	5.27
719.051	5.48
719.373	5.33
719.695	5.25
720.016	5.47
720.338	5.34
720.659	5.19
720.981	5.02
721.302	4.98
721.624	5.23
721.945	5.08
722.267	5.08
722.588	4.88
722.909	4.86
723.231	4.96
723.552	5.09
723.873	5.21
724.194	5.22
724.515	5.23
724.836	5.14
725.157	5.11
725.478	5.01
725.799	4.96
726.12	5.09
726.441	5.13
726.762	5.14
727.083	5.32
727.403	5.35
727.724	5.5
728.045	5.52
728.365	5.43
728.686	5.18
729.006	5.11
729.327	5.25
729.647	5.12
729.967	5.07
730.288	4.99
730.608	4.97
730.928	5.01
731.249	5.01
731.569	5.13
731.889	5.07
732.209	5.29
732.529	5.33
732.849	5.17
733.169	5.3
733.489	5.28
733.809	5.1
734.129	4.97
734.448	4.75
734.768	4.69
735.088	4.69
735.408	4.89
735.727	4.93
736.047	4.88
736.366	5.16
736.686	5.28
737.005	5.56
737.325	5.36
737.644	5.12
737.963	5.05
738.283	5
738.602	5.04
738.921	5.11
739.24	5.09
739.56	5.09
739.879	5.21
740.198	5.31
740.517	5.26
740.836	5.55
741.155	5.91
741.473	5.83
741.792	5.93
742.111	6.27
742.43	6.6
742.748	6.46
743.067	6.31
743.386	6.14
743.704	6.11
744.023	6.07
744.341	6.4
744.66	6.31
744.978	6.4
745.297	6.33
745.615	6.07
745.933	6.31
746.252	6.67
746.57	6.6
746.888	6.47
747.206	6.6
747.524	6.78
747.842	6.53
748.16	6.84
748.478	6.83
748.796	6.47
749.114	6.22
749.432	6.46
749.749	6.5
750.067	6.66
750.385	6.74
750.703	7.12
751.02	6.98
751.338	6.89
751.655	7.05
751.973	7.12
752.29	7.21
752.608	6.88
752.925	6.9
753.242	6.74
753.56	6.78
753.877	6.83
754.194	6.56
754.511	6.39
754.828	6.32
755.145	6.19
755.462	6.23
755.779	6.13
756.096	6.24
756.413	6.4
756.73	6.48
757.047	6.06
757.364	5.88
757.68	6.14
757.997	6.36
758.314	6.33
758.63	6.38
758.947	6.49
759.264	6.67
759.58	6.52
759.896	6.69
760.213	6.87
760.529	6.55
760.846	6.45
761.162	6.78
761.478	6.73
761.794	6.88
762.11	6.65
762.426	6.58
762.743	6.56
763.059	6.52
763.375	6.41
763.69	6.5
764.006	6.62
764.322	6.78
764.638	6.95
764.954	6.83
765.27	6.77
765.585	6.78
765.901	6.73
766.216	6.55
766.532	6.45
766.848	6.25
767.163	6.29
767.478	6.4
767.794	6.36
768.109	6.37
768.424	6.18
768.74	6.62
769.055	6.83
769.37	6.78
769.685	6.69
770	6.88
770.315	6.93
770.63	6.82
770.945	6.56
771.26	6.16
771.575	6.2
771.89	6.26
772.205	5.72
772.52	5.88
772.834	5.98
773.149	6.24
773.464	6.3
773.778	6.39
774.093	6.59
774.407	6.56
774.722	6.5
775.036	6.71
775.351	6.83
775.665	6.93
775.979	6.95
776.293	7.28
776.608	7.32
776.922	7.6
777.236	7.82
777.55	7.61
777.864	8.09
778.178	8.14
778.492	8.13
778.806	8.71
779.12	8.54
779.434	8.78
779.747	8.33
780.061	8.31
780.375	8.78
780.689	8.38
781.002	8.31
781.316	8.31
781.629	8.01
781.943	7.4
782.256	7.38
782.57	7.71
782.883	7.56
783.196	6.79
783.51	6.49
783.823	6.24
784.136	6.47
784.449	6.23
784.762	6.28
785.075	6.55
785.388	6.84
785.701	6.88
786.014	6.66
786.327	6.92
786.64	7.14
786.953	6.54
787.266	6.35
787.578	6.64
787.891	6.94
788.204	6.88
788.516	7.24
788.829	7
789.141	6.69
789.454	6.66
789.766	7.6
790.079	7.53
790.391	7.53
790.703	7.24
791.016	7.6
791.328	7.93
791.64	7.8
791.952	7.69
792.264	7.6
792.576	7.83
792.888	8.08
793.2	8.08
793.512	8.26
793.824	8.89
794.136	8.77
794.448	8.56
794.76	8.88
795.071	8.62
795.383	9.17
795.695	9.07
796.006	9.47
796.318	8.91
796.629	9.08
796.941	9.23
797.252	9.59
797.564	9.49
797.875	8.94
798.186	8.67
798.497	8.49
798.809	8.4
799.12	7.82
799.431	7.25
799.742	7.34
800.053	7.22
800.364	7.01
800.675	7.1
800.986	6.94
801.297	7.15
801.608	7.42
801.918	7.06
802.229	6.94
802.54	6.37
802.851	6.67
803.161	6.71
803.472	6.81
803.782	6.46
804.093	6.04
804.403	6.82
804.714	7.4
805.024	7.51
805.334	7.38
805.645	7.61
805.955	7.93
806.265	7.85
806.575	8.5
806.885	8.2
807.195	7.6
807.505	8
807.815	7.78
808.125	7.48
808.435	8.03
808.745	8.38
809.055	8.77
809.365	8.71
809.674	8.5
809.984	8.22
810.294	8
810.603	8.39
810.913	7.76
811.222	7.36
811.532	6.73
811.841	7.49
812.151	7.6
812.46	7.73
812.769	7.91
813.079	7.48
813.388	7.86
813.697	8.35
814.006	8.11
814.315	8.38
814.624	8.54
814.933	8.18
815.242	7.75
815.551	7.37
815.86	7.27
816.169	7.34
816.478	7.46
816.786	8.11
817.095	7.79
817.404	8.03
817.712	8.51
818.021	8.81
818.33	8.48
818.638	8.9
818.947	8.6
819.255	8.19
819.563	8.41
819.872	8.52
820.18	8.58
820.488	8.65
820.796	8.29
821.105	8.3
821.413	8.39
821.721	8.38
822.029	8.47
822.337	8.37
822.645	8.47
822.953	8.42
823.26	8.37
823.568	8.52
823.876	8.55
824.184	8.44
824.491	8.58
824.799	8.65
825.107	8.57
825.414	8.56
825.722	8.48
826.029	8.36
826.337	8.23
826.644	8.32
826.951	8.37
827.259	8.65
827.566	8.61
827.873	8.43
828.18	8.71
828.488	8.76
828.795	9.04
829.102	9.13
829.409	9.3
829.716	9.4
830.023	9.08
830.329	9
830.636	9.25
830.943	8.92
831.25	8.67
831.557	8.45
831.863	8.41
832.17	8.77
832.476	8.8
832.783	9.08
833.089	8.9
833.396	9.07
833.702	8.69
834.009	8.92
834.315	8.97
834.621	8.95
834.928	8.63
835.234	8.7
835.54	8.33
835.846	8.24
836.152	7.97
836.458	8.41
836.764	8.47
837.07	7.96
837.376	8.24
837.682	8.08
837.988	8.46
838.293	8.88
838.599	8.57
838.905	9.01
839.211	8.45
839.516	8.7
839.822	8.61
840.127	8.83
840.433	9.09
840.738	9.96
841.044	9.59
841.349	9.24
841.654	8.5
841.959	8.52
842.265	8.38
842.57	9.3
842.875	8.44
843.18	7.04
843.485	7.36
843.79	7.37
844.095	7.86
844.4	8.2
844.705	8.31
845.01	9.09
845.315	8.35
845.619	10.15
845.924	9.17
846.229	7.13
846.533	7
846.838	4.94
847.142	3.35
847.447	2.73
847.751	3.38
848.056	5.28
848.36	5.54
848.664	5.52
848.969	5.04
849.273	5.31
849.577	7.54
849.881	8.96
850.185	7.86
850.489	8.68
850.794	9.26
851.097	9.03
851.401	6.74
851.705	8.09
852.009	6.9
852.313	8.61
852.617	9.44
852.92	11.41
853.224	12.48
853.528	14.27
853.831	15.68
854.135	14.9
854.438	13.87
854.742	13.08
855.045	11.53
855.349	9.1
855.652	10.24
855.955	8.58
856.259	5.09
856.562	6.81
856.865	7.39
857.168	6.15
857.471	5.35
857.774	7.88
858.077	5.57
858.38	5.02
858.683	2.51
858.986	3.2
859.289	1.12
859.592	2.51
859.894	1.1
860.197	-0.37
860.5	2.81
860.802	1.2
861.105	0.58
861.407	4.37
861.71	7.51
862.012	7.23
862.315	6.72
862.617	7.72
862.919	7.84
863.222	7.67
863.524	6.32
863.826	6.84
864.128	8.2
864.43	8.33
864.732	6.32
865.034	9.38
865.336	7.47
865.638	8.03
865.94	7.79
866.242	7.67
866.544	7.62
866.846	8.01
867.147	10.52
867.449	13.48
867.751	9.6
868.052	6.6
868.354	8.28
868.655	10.61
868.957	12.74
869.258	9.68
869.56	9.73
869.861	11.2
870.162	11.03
870.463	8.81
870.765	7.58
871.066	8.19
871.367	5.49
871.668	5.71
871.969	5.75
872.27	5.68
872.571	6.05
872.872	7.53
873.173	4.6
873.473	1.2
873.774	0.55
874.075	2.7
874.376	2.04
874.676	-0.18
874.977	-0.54
875.277	-1.35
875.578	0.76
875.878	-0.63
876.179	-1.17
876.479	-1.32
876.78	-0.91
877.08	1.31
877.38	3.45
877.68	4.71
877.981	6.64
878.281	5.42
878.581	4
