Data from MVZ_BU95633_Reflection_00003.txt Node
Date: Tue Nov 19 12:21:00 EST 2019
User: vgr7
Spectrometer: USB2G7710
Scans to average: 3
Trigger mode: 4
Integration Time (sec): 2.000000E-2
Electric dark correction enabled: true
Boxcar width: 10
XAxis mode: Wavelengths
Number of Pixels in Spectrum: 2048
>>>>>Begin Spectral Data<<<<<
177.721	62.18
178.105	-6.28
178.488	-12.69
178.871	-183.33
179.254	51.52
179.636	50.25
180.019	63.37
180.402	39.29
180.785	292.98
181.168	102.33
181.55	35.54
181.933	52.64
182.316	66.9
182.698	32.52
183.081	51.78
183.463	35.54
183.846	14.1
184.228	25.19
184.611	46.17
184.993	-33.33
185.376	-147.86
185.758	-312.7
186.14	-80.95
186.522	45.02
186.904	42.53
187.287	231.78
187.669	44.14
188.051	49
188.433	65.39
188.815	77.14
189.197	78.96
189.579	56.7
189.961	66.8
190.342	73.73
190.724	59.6
191.106	31.08
191.488	23.23
191.869	19.83
192.251	24.76
192.633	3.27
193.014	1.28
193.396	16.07
193.777	32.74
194.159	22.8
194.54	6.07
194.922	-27.8
195.303	-31.22
195.684	2.47
196.065	-6.42
196.447	-0.08
196.828	9.79
197.209	6.77
197.59	4.07
197.971	12.99
198.352	29.69
198.733	15.02
199.114	23.03
199.495	31.23
199.876	20.33
200.257	15.7
200.638	45.98
201.018	35.13
201.399	11.57
201.78	5.89
202.16	17.91
202.541	15.09
202.922	10.58
203.302	12.62
203.683	3.21
204.063	9.14
204.444	-7.39
204.824	-2.37
205.204	7.15
205.585	10.9
205.965	5.89
206.345	8.23
206.725	19.04
207.106	18.09
207.486	26.63
207.866	33.92
208.246	29.01
208.626	20.52
209.006	25.43
209.386	27.36
209.766	21.8
210.145	19.29
210.525	21.42
210.905	19.73
211.285	21.11
211.664	26.81
212.044	24.73
212.424	23.98
212.803	18.96
213.183	14.1
213.562	18.44
213.942	13.72
214.321	11.61
214.701	12.26
215.08	11.66
215.459	1.91
215.838	-10.78
216.218	-6.4
216.597	-7.59
216.976	-14.05
217.355	1.55
217.734	-0.05
218.113	-1.01
218.492	-1.12
218.871	12.66
219.25	14.8
219.629	7.89
220.008	1.69
220.387	12.66
220.766	17.72
221.144	4.54
221.523	-8.86
221.902	-2.31
222.28	-5.4
222.659	-0.23
223.037	-0.03
223.416	-3.53
223.794	-0.68
224.173	-4.59
224.551	-3.92
224.929	-0.93
225.308	-6.72
225.686	-7.95
226.064	-6.1
226.442	-3.43
226.821	-5.6
227.199	-4.55
227.577	-4.81
227.955	-2.71
228.333	-6.62
228.711	-6.88
229.089	-5.89
229.467	-4.93
229.845	-5.56
230.222	-1.88
230.6	-3.84
230.978	0.23
231.356	-3.06
231.733	-0.87
232.111	1.11
232.488	1.16
232.866	-0.85
233.243	1.36
233.621	0.84
233.998	0.96
234.376	1.05
234.753	2.38
235.13	-0.17
235.508	-1.31
235.885	-1
236.262	-0.64
236.639	-1.84
237.016	-1.02
237.393	-0.86
237.77	1.12
238.147	0.73
238.524	1.14
238.901	0.88
239.278	3.04
239.655	2.47
240.032	1.89
240.409	2.34
240.785	2.83
241.162	3.16
241.539	3.91
241.915	4.13
242.292	3.58
242.668	3.56
243.045	4.01
243.421	4.39
243.798	4.25
244.174	4.35
244.551	4.43
244.927	4.14
245.303	4.23
245.679	4.03
246.056	3.78
246.432	3.81
246.808	4.03
247.184	4.05
247.56	3.83
247.936	4.06
248.312	3.91
248.688	3.8
249.064	3.6
249.44	3.23
249.815	3.09
250.191	3.15
250.567	2.88
250.943	2.84
251.318	2.83
251.694	2.9
252.069	2.91
252.445	3
252.82	3.39
253.196	3.4
253.571	3.36
253.947	3.43
254.322	3.07
254.697	2.6
255.073	2.34
255.448	2.5
255.823	2.44
256.198	2.72
256.573	2.82
256.948	2.8
257.323	3.15
257.698	3.13
258.073	3.09
258.448	3.35
258.823	3.26
259.198	3.17
259.573	3.02
259.948	2.83
260.322	2.78
260.697	2.72
261.072	2.85
261.446	2.83
261.821	2.71
262.195	2.84
262.57	2.88
262.944	2.94
263.319	3
263.693	2.9
264.067	2.79
264.442	2.76
264.816	2.83
265.19	2.71
265.564	2.71
265.938	2.86
266.313	2.63
266.687	2.74
267.061	2.71
267.435	2.9
267.809	2.95
268.183	2.99
268.556	2.94
268.93	2.68
269.304	2.64
269.678	2.93
270.051	2.69
270.425	2.55
270.799	2.51
271.172	2.52
271.546	2.57
271.919	2.58
272.293	2.73
272.666	2.71
273.04	2.67
273.413	2.58
273.787	2.74
274.16	2.8
274.533	2.9
274.906	3.16
275.279	3.16
275.653	3.27
276.026	3.39
276.399	3.38
276.772	3.53
277.145	3.48
277.518	3.32
277.891	3.49
278.263	3.75
278.636	3.93
279.009	3.96
279.382	3.92
279.755	3.81
280.127	3.45
280.5	3.4
280.872	3.54
281.245	3.59
281.617	3.42
281.99	3.35
282.362	3.38
282.735	3.1
283.107	3.01
283.479	3.05
283.852	3.02
284.224	3.07
284.596	2.98
284.968	3.08
285.34	3.1
285.713	3.13
286.085	3.06
286.457	2.9
286.829	2.86
287.201	2.94
287.572	2.97
287.944	3.2
288.316	3.27
288.688	3.25
289.06	3.24
289.431	3.1
289.803	3.29
290.175	3.19
290.546	3.19
290.918	3.2
291.289	3.21
291.661	3.11
292.032	3.1
292.403	3.21
292.775	3.3
293.146	3.32
293.517	3.34
293.889	3.39
294.26	3.35
294.631	3.33
295.002	3.34
295.373	3.43
295.744	3.29
296.115	3.27
296.486	3.24
296.857	3.36
297.228	3.39
297.599	3.28
297.97	3.34
298.34	3.42
298.711	3.58
299.082	3.55
299.452	3.53
299.823	3.47
300.194	3.51
300.564	3.34
300.935	3.38
301.305	3.39
301.676	3.2
302.046	3.21
302.416	3.16
302.787	3.12
303.157	3.06
303.527	3.16
303.897	3.15
304.267	3.13
304.637	2.97
305.008	3.04
305.378	3.06
305.748	2.8
306.117	2.67
306.487	2.62
306.857	2.65
307.227	2.86
307.597	2.87
307.967	2.8
308.336	2.84
308.706	2.77
309.076	2.75
309.445	2.89
309.815	2.85
310.184	2.86
310.554	2.85
310.923	2.75
311.293	2.7
311.662	2.69
312.031	2.71
312.401	2.65
312.77	2.59
313.139	2.71
313.508	2.65
313.877	2.67
314.246	2.61
314.616	2.68
314.985	2.52
315.353	2.54
315.722	2.64
316.091	2.77
316.46	2.81
316.829	2.9
317.198	2.83
317.567	2.9
317.935	2.9
318.304	2.86
318.672	2.94
319.041	3.19
319.41	3.1
319.778	3.12
320.147	3.16
320.515	3.06
320.883	2.78
321.252	2.89
321.62	2.89
321.988	2.89
322.357	2.76
322.725	2.81
323.093	2.68
323.461	2.6
323.829	2.5
324.197	2.33
324.565	2.28
324.933	2.4
325.301	2.3
325.669	2.33
326.037	2.46
326.405	2.57
326.772	2.42
327.14	2.39
327.508	2.31
327.875	2.28
328.243	2.4
328.61	2.47
328.978	2.68
329.346	2.8
329.713	2.84
330.08	2.97
330.448	2.95
330.815	3.04
331.182	2.98
331.55	3.06
331.917	3.17
332.284	3.19
332.651	3.15
333.018	3.29
333.385	3.31
333.752	3.3
334.119	3.21
334.486	3.31
334.853	3.35
335.22	3.34
335.587	3.29
335.954	3.33
336.32	3.42
336.687	3.41
337.054	3.29
337.42	3.2
337.787	3.04
338.153	3.02
338.52	3.06
338.886	3.03
339.253	2.98
339.619	3.02
339.986	2.85
340.352	2.81
340.718	2.87
341.084	2.92
341.451	2.87
341.817	3.02
342.183	2.89
342.549	2.98
342.915	2.94
343.281	3.1
343.647	2.97
344.013	2.92
344.379	2.89
344.745	3.04
345.11	2.91
345.476	3.09
345.842	2.98
346.208	3.03
346.573	3.07
346.939	3.17
347.304	3.33
347.67	3.42
348.035	3.43
348.401	3.33
348.766	3.16
349.132	3.25
349.497	3.14
349.862	3.12
350.228	3.03
350.593	3.03
350.958	3.04
351.323	3.09
351.688	3.05
352.053	2.96
352.418	2.8
352.783	2.97
353.148	2.91
353.513	2.99
353.878	2.9
354.243	2.8
354.608	2.72
354.972	2.53
355.337	2.54
355.702	2.46
356.066	2.56
356.431	2.65
356.795	2.55
357.16	2.51
357.524	2.5
357.889	2.56
358.253	2.65
358.618	2.63
358.982	2.69
359.346	2.67
359.71	2.75
360.075	2.84
360.439	2.86
360.803	2.8
361.167	2.75
361.531	2.75
361.895	2.76
362.259	2.74
362.623	2.74
362.987	2.76
363.351	2.78
363.714	2.73
364.078	2.78
364.442	2.79
364.806	2.84
365.169	2.85
365.533	2.77
365.896	2.76
366.26	2.76
366.623	2.77
366.987	2.81
367.35	2.8
367.714	2.75
368.077	2.7
368.44	2.74
368.803	2.72
369.167	2.67
369.53	2.71
369.893	2.79
370.256	2.76
370.619	2.74
370.982	2.72
371.345	2.72
371.708	2.67
372.071	2.65
372.434	2.61
372.797	2.64
373.159	2.73
373.522	2.69
373.885	2.62
374.247	2.62
374.61	2.6
374.973	2.6
375.335	2.64
375.698	2.58
376.06	2.58
376.423	2.63
376.785	2.74
377.147	2.74
377.51	2.66
377.872	2.73
378.234	2.78
378.596	2.81
378.958	2.88
379.321	2.89
379.683	2.94
380.045	2.95
380.407	2.92
380.769	2.87
381.13	2.88
381.492	2.91
381.854	2.91
382.216	2.94
382.578	2.93
382.939	2.91
383.301	2.89
383.663	2.9
384.024	2.9
384.386	2.85
384.747	2.83
385.109	2.87
385.47	2.93
385.832	2.9
386.193	2.9
386.554	2.82
386.916	2.85
387.277	2.81
387.638	2.8
387.999	2.86
388.36	2.84
388.721	2.92
389.082	2.95
389.443	2.99
389.804	3
390.165	3.02
390.526	3.02
390.887	3.09
391.248	3.12
391.609	3.15
391.969	3.16
392.33	3.19
392.691	3.2
393.051	3.13
393.412	3.13
393.772	3.17
394.133	3.23
394.493	3.2
394.854	3.2
395.214	3.27
395.574	3.24
395.935	3.25
396.295	3.22
396.655	3.18
397.015	3.13
397.376	3.09
397.736	3.09
398.096	3.09
398.456	3.05
398.816	3
399.176	2.96
399.535	2.95
399.895	2.94
400.255	2.91
400.615	2.92
400.975	2.93
401.334	2.94
401.694	2.9
402.054	2.9
402.413	2.92
402.773	2.89
403.132	2.9
403.492	2.94
403.851	2.93
404.211	2.88
404.57	2.9
404.929	2.9
405.288	2.91
405.648	2.93
406.007	2.96
406.366	2.98
406.725	2.99
407.084	3.05
407.443	3.05
407.802	3.06
408.161	3.1
408.52	3.13
408.879	3.1
409.238	3.1
409.596	3.1
409.955	3.11
410.314	3.11
410.673	3.11
411.031	3.1
411.39	3.13
411.748	3.21
412.107	3.17
412.465	3.2
412.824	3.2
413.182	3.21
413.54	3.2
413.899	3.18
414.257	3.19
414.615	3.15
414.974	3.15
415.332	3.14
415.69	3.12
416.048	3.11
416.406	3.12
416.764	3.1
417.122	3.07
417.48	3.08
417.838	3.09
418.195	3.08
418.553	3.07
418.911	3.06
419.269	3.05
419.626	3.07
419.984	3.05
420.342	3.06
420.699	3.05
421.057	3.06
421.414	3.07
421.772	3.07
422.129	3.06
422.486	3.07
422.844	3.08
423.201	3.08
423.558	3.08
423.915	3.1
424.273	3.11
424.63	3.14
424.987	3.12
425.344	3.12
425.701	3.12
426.058	3.13
426.415	3.12
426.772	3.11
427.128	3.11
427.485	3.12
427.842	3.11
428.199	3.11
428.555	3.1
428.912	3.1
429.269	3.11
429.625	3.12
429.982	3.11
430.338	3.12
430.695	3.1
431.051	3.07
431.407	3.05
431.764	3.02
432.12	3.01
432.476	3.01
432.832	3.01
433.189	3.01
433.545	3.01
433.901	3.02
434.257	3.03
434.613	3.03
434.969	3.03
435.325	3.02
435.681	3.01
436.036	3.05
436.392	3.03
436.748	3.02
437.104	3.03
437.459	3.05
437.815	3.06
438.171	3.07
438.526	3.07
438.882	3.07
439.237	3.08
439.593	3.09
439.948	3.1
440.304	3.09
440.659	3.11
441.014	3.11
441.369	3.1
441.725	3.12
442.08	3.13
442.435	3.14
442.79	3.14
443.145	3.15
443.5	3.14
443.855	3.14
444.21	3.16
444.565	3.16
444.92	3.14
445.275	3.13
445.629	3.13
445.984	3.15
446.339	3.16
446.693	3.16
447.048	3.16
447.403	3.16
447.757	3.14
448.112	3.13
448.466	3.14
448.82	3.16
449.175	3.14
449.529	3.14
449.883	3.11
450.238	3.12
450.592	3.11
450.946	3.09
451.3	3.1
451.654	3.1
452.008	3.09
452.362	3.09
452.716	3.08
453.07	3.07
453.424	3.05
453.778	3.05
454.132	3.04
454.486	3.05
454.839	3.04
455.193	3.06
455.547	3.08
455.9	3.08
456.254	3.07
456.607	3.08
456.961	3.09
457.314	3.1
457.668	3.12
458.021	3.13
458.375	3.15
458.728	3.14
459.081	3.13
459.434	3.15
459.787	3.14
460.141	3.17
460.494	3.18
460.847	3.18
461.2	3.19
461.553	3.21
461.906	3.2
462.259	3.19
462.611	3.19
462.964	3.18
463.317	3.17
463.67	3.19
464.022	3.19
464.375	3.19
464.728	3.2
465.08	3.18
465.433	3.17
465.785	3.18
466.138	3.18
466.49	3.2
466.843	3.2
467.195	3.19
467.547	3.17
467.899	3.18
468.252	3.2
468.604	3.2
468.956	3.2
469.308	3.21
469.66	3.23
470.012	3.23
470.364	3.22
470.716	3.25
471.068	3.23
471.42	3.23
471.772	3.22
472.123	3.23
472.475	3.23
472.827	3.25
473.178	3.24
473.53	3.27
473.882	3.25
474.233	3.24
474.585	3.25
474.936	3.26
475.288	3.28
475.639	3.27
475.99	3.27
476.342	3.29
476.693	3.33
477.044	3.32
477.395	3.32
477.746	3.31
478.097	3.29
478.448	3.31
478.8	3.3
479.15	3.3
479.501	3.28
479.852	3.27
480.203	3.28
480.554	3.3
480.905	3.29
481.255	3.3
481.606	3.3
481.957	3.31
482.307	3.3
482.658	3.31
483.009	3.31
483.359	3.31
483.709	3.29
484.06	3.29
484.41	3.3
484.761	3.31
485.111	3.32
485.461	3.32
485.811	3.32
486.162	3.32
486.512	3.32
486.862	3.34
487.212	3.34
487.562	3.33
487.912	3.33
488.262	3.34
488.612	3.34
488.961	3.34
489.311	3.33
489.661	3.33
490.011	3.32
490.36	3.32
490.71	3.32
491.06	3.31
491.409	3.31
491.759	3.3
492.108	3.3
492.458	3.29
492.807	3.3
493.157	3.31
493.506	3.3
493.855	3.29
494.204	3.27
494.554	3.27
494.903	3.27
495.252	3.26
495.601	3.25
495.95	3.26
496.299	3.27
496.648	3.28
496.997	3.29
497.346	3.31
497.695	3.32
498.043	3.33
498.392	3.35
498.741	3.36
499.09	3.36
499.438	3.39
499.787	3.39
500.135	3.39
500.484	3.39
500.832	3.43
501.181	3.45
501.529	3.47
501.878	3.49
502.226	3.51
502.574	3.53
502.923	3.52
503.271	3.51
503.619	3.53
503.967	3.52
504.315	3.52
504.663	3.5
505.011	3.5
505.359	3.49
505.707	3.52
506.055	3.55
506.403	3.55
506.751	3.53
507.098	3.56
507.446	3.57
507.794	3.59
508.141	3.59
508.489	3.61
508.837	3.6
509.184	3.6
509.531	3.59
509.879	3.58
510.226	3.59
510.574	3.6
510.921	3.58
511.268	3.61
511.616	3.63
511.963	3.64
512.31	3.65
512.657	3.68
513.004	3.66
513.351	3.63
513.698	3.63
514.045	3.66
514.392	3.65
514.739	3.65
515.086	3.65
515.432	3.64
515.779	3.63
516.126	3.65
516.473	3.65
516.819	3.68
517.166	3.69
517.512	3.68
517.859	3.68
518.205	3.69
518.552	3.69
518.898	3.66
519.245	3.65
519.591	3.65
519.937	3.64
520.283	3.66
520.629	3.67
520.976	3.68
521.322	3.68
521.668	3.69
522.014	3.7
522.36	3.69
522.706	3.69
523.052	3.69
523.398	3.67
523.743	3.66
524.089	3.67
524.435	3.68
524.781	3.7
525.126	3.7
525.472	3.72
525.817	3.7
526.163	3.7
526.509	3.7
526.854	3.71
527.199	3.73
527.545	3.71
527.89	3.71
528.235	3.71
528.581	3.71
528.926	3.7
529.271	3.69
529.616	3.7
529.961	3.7
530.306	3.7
530.651	3.71
530.996	3.72
531.341	3.73
531.686	3.73
532.031	3.72
532.376	3.73
532.721	3.72
533.065	3.75
533.41	3.77
533.755	3.78
534.099	3.77
534.444	3.76
534.788	3.78
535.133	3.79
535.477	3.81
535.822	3.81
536.166	3.83
536.51	3.83
536.855	3.85
537.199	3.85
537.543	3.87
537.887	3.88
538.231	3.89
538.576	3.88
538.92	3.89
539.264	3.9
539.608	3.9
539.951	3.9
540.295	3.89
540.639	3.89
540.983	3.88
541.327	3.9
541.671	3.91
542.014	3.92
542.358	3.94
542.701	3.93
543.045	3.92
543.389	3.91
543.732	3.92
544.075	3.92
544.419	3.91
544.762	3.89
545.105	3.88
545.449	3.88
545.792	3.87
546.135	3.88
546.478	3.87
546.821	3.87
547.165	3.88
547.508	3.88
547.851	3.88
548.194	3.89
548.536	3.87
548.879	3.88
549.222	3.88
549.565	3.86
549.908	3.85
550.25	3.86
550.593	3.87
550.936	3.88
551.278	3.87
551.621	3.9
551.963	3.93
552.306	3.95
552.648	3.92
552.991	3.97
553.333	3.94
553.675	3.98
554.017	3.95
554.36	3.97
554.702	3.95
555.044	3.98
555.386	3.98
555.728	4
556.07	3.97
556.412	3.94
556.754	3.94
557.096	3.92
557.438	3.92
557.78	3.9
558.121	3.92
558.463	3.93
558.805	3.91
559.147	3.91
559.488	3.91
559.83	3.93
560.171	3.9
560.513	3.86
560.854	3.85
561.196	3.85
561.537	3.86
561.878	3.86
562.22	3.87
562.561	3.87
562.902	3.85
563.243	3.87
563.584	3.87
563.925	3.91
564.266	3.92
564.607	3.93
564.948	3.92
565.289	3.89
565.63	3.92
565.971	3.94
566.312	3.95
566.653	3.97
566.993	3.99
567.334	4
567.675	4
568.015	4
568.356	3.99
568.696	3.98
569.037	4
569.377	3.99
569.718	3.99
570.058	3.99
570.398	4.02
570.739	4
571.079	3.95
571.419	3.94
571.759	3.94
572.099	3.94
572.439	3.93
572.779	3.88
573.119	3.87
573.459	3.89
573.799	3.88
574.139	3.85
574.479	3.88
574.819	3.91
575.158	3.89
575.498	3.88
575.838	3.88
576.177	3.86
576.517	3.89
576.856	3.87
577.196	3.92
577.535	3.88
577.875	3.92
578.214	3.97
578.553	4.02
578.893	4.05
579.232	4.07
579.571	4.16
579.91	4.22
580.25	4.21
580.589	4.2
580.928	4.2
581.267	4.24
581.606	4.18
581.945	4.2
582.283	4.25
582.622	4.24
582.961	4.25
583.3	4.26
583.639	4.25
583.977	4.26
584.316	4.21
584.654	4.21
584.993	4.23
585.332	4.19
585.67	4.19
586.008	4.18
586.347	4.17
586.685	4.08
587.024	4.04
587.362	4.05
587.7	4.04
588.038	4.07
588.376	4.05
588.715	4.04
589.053	4.02
589.391	4.02
589.729	4.04
590.067	4.02
590.404	4.05
590.742	4.02
591.08	4.06
591.418	4.08
591.756	4.04
592.093	4.02
592.431	4.03
592.769	4.01
593.106	4
593.444	4.03
593.781	4.11
594.119	4.13
594.456	4.11
594.793	4.11
595.131	4.09
595.468	4.11
595.805	4.15
596.143	4.21
596.48	4.22
596.817	4.2
597.154	4.22
597.491	4.17
597.828	4.18
598.165	4.16
598.502	4.1
598.839	4.12
599.176	4.12
599.512	4.09
599.849	4.13
600.186	4.14
600.523	4.12
600.859	4.09
601.196	4.09
601.532	4.12
601.869	4.11
602.205	4.12
602.542	4.11
602.878	4.11
603.215	4.05
603.551	4.02
603.887	4.06
604.223	4.06
604.56	4.1
604.896	4.12
605.232	4.09
605.568	4.15
605.904	4.13
606.24	4.14
606.576	4.19
606.912	4.14
607.248	4.16
607.583	4.16
607.919	4.17
608.255	4.17
608.591	4.19
608.926	4.17
609.262	4.16
609.597	4.18
609.933	4.16
610.268	4.21
610.604	4.21
610.939	4.25
611.275	4.25
611.61	4.26
611.945	4.21
612.281	4.29
612.616	4.3
612.951	4.42
613.286	4.44
613.621	4.4
613.956	4.44
614.291	4.44
614.626	4.48
614.961	4.52
615.296	4.55
615.631	4.53
615.966	4.57
616.3	4.61
616.635	4.56
616.97	4.58
617.304	4.55
617.639	4.56
617.973	4.5
618.308	4.53
618.642	4.51
618.977	4.55
619.311	4.47
619.646	4.49
619.98	4.48
620.314	4.44
620.648	4.46
620.983	4.47
621.317	4.5
621.651	4.47
621.985	4.48
622.319	4.48
622.653	4.48
622.987	4.49
623.321	4.5
623.655	4.5
623.988	4.49
624.322	4.47
624.656	4.5
624.99	4.48
625.323	4.47
625.657	4.44
625.99	4.48
626.324	4.49
626.657	4.43
626.991	4.46
627.324	4.45
627.658	4.4
627.991	4.44
628.324	4.35
628.657	4.32
628.991	4.27
629.324	4.27
629.657	4.23
629.99	4.22
630.323	4.19
630.656	4.21
630.989	4.19
631.322	4.23
631.655	4.19
631.987	4.2
632.32	4.2
632.653	4.24
632.986	4.25
633.318	4.32
633.651	4.38
633.984	4.32
634.316	4.37
634.649	4.43
634.981	4.33
635.313	4.44
635.646	4.53
635.978	4.55
636.31	4.5
636.643	4.54
636.975	4.57
637.307	4.61
637.639	4.62
637.971	4.64
638.303	4.62
638.635	4.64
638.967	4.69
639.299	4.74
639.631	4.75
639.963	4.76
640.295	4.74
640.626	4.68
640.958	4.68
641.29	4.7
641.621	4.64
641.953	4.64
642.285	4.6
642.616	4.57
642.948	4.57
643.279	4.58
643.61	4.59
643.942	4.61
644.273	4.64
644.604	4.57
644.936	4.61
645.267	4.62
645.598	4.67
645.929	4.61
646.26	4.51
646.591	4.49
646.922	4.44
647.253	4.39
647.584	4.44
647.915	4.43
648.245	4.44
648.576	4.43
648.907	4.5
649.238	4.52
649.568	4.48
649.899	4.5
650.229	4.61
650.56	4.62
650.89	4.56
651.221	4.58
651.551	4.67
651.882	4.59
652.212	4.55
652.542	4.53
652.872	4.56
653.203	4.64
653.533	4.66
653.863	4.63
654.193	4.6
654.523	4.57
654.853	4.65
655.183	4.64
655.513	4.7
655.843	4.64
656.172	4.62
656.502	4.65
656.832	4.66
657.162	4.59
657.491	4.64
657.821	4.61
658.15	4.56
658.48	4.6
658.809	4.65
659.139	4.7
659.468	4.73
659.798	4.79
660.127	4.77
660.456	4.76
660.785	4.85
661.115	4.89
661.444	4.95
661.773	4.88
662.102	4.88
662.431	4.9
662.76	5
663.089	5.04
663.418	5.09
663.747	5.06
664.076	5.09
664.404	5.06
664.733	5.1
665.062	5.09
665.39	5
665.719	4.95
666.048	4.94
666.376	4.89
666.705	4.86
667.033	4.85
667.362	4.85
667.69	4.86
668.018	4.92
668.347	4.9
668.675	4.9
669.003	4.83
669.331	4.86
669.659	4.75
669.987	4.71
670.315	4.68
670.643	4.71
670.971	4.69
671.299	4.7
671.627	4.73
671.955	4.68
672.283	4.75
672.61	4.83
672.938	4.83
673.266	4.92
673.593	4.91
673.921	4.92
674.249	4.9
674.576	4.86
674.904	4.84
675.231	4.82
675.558	4.82
675.886	4.86
676.213	4.8
676.54	4.84
676.867	4.81
677.195	4.84
677.522	4.78
677.849	4.75
678.176	4.73
678.503	4.79
678.83	4.84
679.157	4.82
679.484	4.8
679.81	4.89
680.137	4.89
680.464	5.02
680.791	5.1
681.117	5.17
681.444	5.13
681.771	5.15
682.097	5.14
682.424	5.19
682.75	5.22
683.077	5.29
683.403	5.29
683.729	5.27
684.056	5.2
684.382	5.25
684.708	5.33
685.034	5.28
685.36	5.28
685.686	5.28
686.012	5.3
686.339	5.29
686.664	5.23
686.99	5.04
687.316	4.88
687.642	4.93
687.968	5
688.294	5.03
688.619	5.05
688.945	4.97
689.271	4.97
689.596	5
689.922	4.94
690.247	4.98
690.573	5.08
690.898	5.13
691.224	5.2
691.549	5.23
691.874	5.22
692.2	5.17
692.525	5.23
692.85	5.23
693.175	5.38
693.5	5.31
693.825	5.43
694.15	5.4
694.475	5.25
694.8	5.16
695.125	5.15
695.45	5.12
695.775	5.24
696.099	5.31
696.424	5.23
696.749	5.29
697.073	5.28
697.398	5.3
697.723	5.35
698.047	5.39
698.372	5.36
698.696	5.41
699.02	5.41
699.345	5.39
699.669	5.48
699.993	5.37
700.318	5.53
700.642	5.56
700.966	5.58
701.29	5.58
701.614	5.53
701.938	5.54
702.262	5.56
702.586	5.56
702.91	5.49
703.234	5.49
703.557	5.56
703.881	5.56
704.205	5.68
704.529	5.69
704.852	5.43
705.176	5.41
705.499	5.48
705.823	5.49
706.146	5.47
706.47	5.34
706.793	5.43
707.117	5.3
707.44	5.15
707.763	5.22
708.086	5.28
708.409	5.3
708.733	5.24
709.056	5.17
709.379	5.16
709.702	5.17
710.025	5.31
710.348	5.25
710.671	5.37
710.993	5.19
711.316	5.12
711.639	5.19
711.962	5.24
712.284	5.25
712.607	5.19
712.93	5.18
713.252	5.23
713.575	5.14
713.897	5.03
714.22	5.05
714.542	5.1
714.864	4.98
715.187	5.03
715.509	5.15
715.831	5.16
716.153	5.04
716.475	5.12
716.798	5.04
717.12	5.11
717.442	4.86
717.764	4.81
718.085	4.84
718.407	4.89
718.729	4.98
719.051	4.88
719.373	4.98
719.695	5.05
720.016	5.08
720.338	5.17
720.659	5.3
720.981	5.37
721.302	5.35
721.624	5.54
721.945	5.39
722.267	5.47
722.588	5.6
722.909	5.69
723.231	5.69
723.552	5.72
723.873	5.6
724.194	5.93
724.515	5.92
724.836	5.86
725.157	5.99
725.478	5.68
725.799	5.85
726.12	5.95
726.441	5.93
726.762	5.72
727.083	5.8
727.403	5.81
727.724	5.81
728.045	5.57
728.365	5.46
728.686	5.68
729.006	5.58
729.327	5.59
729.647	5.5
729.967	5.49
730.288	5.48
730.608	5.62
730.928	5.57
731.249	5.82
731.569	5.81
731.889	5.85
732.209	6.06
732.529	6.04
732.849	5.81
733.169	5.69
733.489	5.92
733.809	5.91
734.129	5.98
734.448	6.12
734.768	6.23
735.088	6.44
735.408	6.35
735.727	6.48
736.047	6.48
736.366	6.73
736.686	6.73
737.005	6.99
737.325	6.82
737.644	6.88
737.963	6.73
738.283	6.73
738.602	6.63
738.921	6.7
739.24	6.67
739.56	6.77
739.879	6.89
740.198	6.74
740.517	6.69
740.836	6.54
741.155	6.56
741.473	6.73
741.792	6.6
742.111	6.83
742.43	6.86
742.748	7.05
743.067	7.08
743.386	6.81
743.704	6.69
744.023	7.01
744.341	6.98
744.66	6.78
744.978	6.59
745.297	6.33
745.615	6.21
745.933	6.13
746.252	6.29
746.57	6.36
746.888	6.67
747.206	6.58
747.524	6.59
747.842	6.43
748.16	6.62
748.478	6.91
748.796	6.7
749.114	6.7
749.432	6.39
749.749	6.22
750.067	6.58
750.385	6.5
750.703	6.18
751.02	6.28
751.338	6.44
751.655	6.85
751.973	7.07
752.29	6.86
752.608	6.89
752.925	6.85
753.242	6.93
753.56	6.6
753.877	6.68
754.194	6.91
754.511	7.1
754.828	7.15
755.145	6.94
755.462	7.08
755.779	6.96
756.096	7.1
756.413	7.17
756.73	7.17
757.047	7.21
757.364	7.39
757.68	7.41
757.997	7.38
758.314	7.47
758.63	7.65
758.947	7.86
759.264	7.9
759.58	8.16
759.896	8.18
760.213	8.41
760.529	8.45
760.846	8.43
761.162	8.35
761.478	7.99
761.794	7.89
762.11	7.82
762.426	7.77
762.743	7.56
763.059	7.78
763.375	7.74
763.69	7.67
764.006	7.56
764.322	7.53
764.638	7.8
764.954	7.64
765.27	7.69
765.585	7.78
765.901	7.87
766.216	7.66
766.532	7.62
766.848	7.47
767.163	7.34
767.478	7.23
767.794	7.34
768.109	7.69
768.424	7.66
768.74	7.66
769.055	7.77
769.37	7.94
769.685	7.69
770	7.59
770.315	7.69
770.63	7.63
770.945	7.62
771.26	7.25
771.575	7.18
771.89	7.16
772.205	6.86
772.52	6.48
772.834	6.49
773.149	6.31
773.464	6.51
773.778	6.56
774.093	6.7
774.407	6.59
774.722	6.12
775.036	6.19
775.351	6.13
775.665	6.01
775.979	6.49
776.293	6.67
776.608	6.67
776.922	6.66
777.236	7.13
777.55	6.66
777.864	6.96
778.178	7.22
778.492	7.02
778.806	7.7
779.12	8.09
779.434	8.29
779.747	8.45
780.061	8.43
780.375	8.29
780.689	8.16
781.002	8.35
781.316	9.02
781.629	9.24
781.943	9.47
782.256	9.72
782.57	9.38
782.883	9.41
783.196	9.65
783.51	9.98
783.823	9.65
784.136	9.74
784.449	9.9
784.762	10.11
785.075	9.92
785.388	9.75
785.701	9.61
786.014	9.48
786.327	9.53
786.64	9.66
786.953	9.7
787.266	9.96
787.578	10.05
787.891	9.54
788.204	9.47
788.516	9.34
788.829	9.3
789.141	9.71
789.454	9.32
789.766	9.42
790.079	9.06
790.391	9.29
790.703	9.69
791.016	9.47
791.328	9.2
791.64	9.53
791.952	9.64
792.264	9.27
792.576	9.43
792.888	9.47
793.2	9.34
793.512	9.48
793.824	9.42
794.136	9.07
794.448	9.37
794.76	9.36
795.071	9.35
795.383	9.27
795.695	9.13
796.006	9.33
796.318	9.64
796.629	9.57
796.941	10.06
797.252	9.74
797.564	10.08
797.875	10.2
798.186	10.7
798.497	9.89
798.809	10
799.12	9.91
799.431	9.91
799.742	9.86
800.053	9.65
800.364	10
800.675	9.71
800.986	9.42
801.297	9.35
801.608	9.18
801.918	8.9
802.229	8.64
802.54	8.6
802.851	7.93
803.161	8.56
803.472	8.18
803.782	9.24
804.093	8.53
804.403	8.42
804.714	8.42
805.024	8.81
805.334	9.5
805.645	9.14
805.955	8.98
806.265	9.4
806.575	10.24
806.885	9.88
807.195	10.41
807.505	10.33
807.815	10.69
808.125	10.47
808.435	11.11
808.745	11.38
809.055	11.67
809.365	12.12
809.674	12.49
809.984	12.6
810.294	12.14
810.603	12.39
810.913	12.32
811.222	11.9
811.532	11.91
811.841	12.1
812.151	12.75
812.46	12.83
812.769	11.6
813.079	11.67
813.388	11.55
813.697	11.17
814.006	11.15
814.315	10.81
814.624	11.24
814.933	10.85
815.242	10.96
815.551	10.8
815.86	10.43
816.169	8.81
816.478	8.78
816.786	8.31
817.095	8.75
817.404	9.36
817.712	9.63
818.021	10.13
818.33	9.72
818.638	9.48
818.947	9.76
819.255	9.75
819.563	9.24
819.872	9.1
820.18	9.29
820.488	9.56
820.796	9.62
821.105	9.81
821.413	9.96
821.721	9.74
822.029	9.79
822.337	10.01
822.645	10.35
822.953	10.29
823.26	10.46
823.568	10.43
823.876	10.43
824.184	10.34
824.491	10.32
824.799	10.3
825.107	10.35
825.414	10.27
825.722	10.51
826.029	10.63
826.337	10.94
826.644	11
826.951	11.03
827.259	11.38
827.566	11.41
827.873	11.24
828.18	11.48
828.488	11.58
828.795	11.32
829.102	11.09
829.409	10.95
829.716	10.98
830.023	10.6
830.329	10.35
830.636	10.33
830.943	10.21
831.25	10.31
831.557	9.96
831.863	10.21
832.17	10.17
832.476	9.66
832.783	9.24
833.089	9.07
833.396	9.11
833.702	8.57
834.009	8.5
834.315	8.98
834.621	8.36
834.928	8.38
835.234	8.66
835.54	8.64
835.846	8.69
836.152	8.03
836.458	8.28
836.764	8.8
837.07	8.68
837.376	8.3
837.682	7.99
837.988	8.53
838.293	8.29
838.599	8.46
838.905	9.44
839.211	9.46
839.516	10.29
839.822	10.4
840.127	9.85
840.433	10.69
840.738	11.25
841.044	11.52
841.349	11.49
841.654	10.66
841.959	11.38
842.265	11.86
842.57	12.6
842.875	12.74
843.18	11.81
843.485	11.8
843.79	11.95
844.095	12.86
844.4	12.76
844.705	12.58
845.01	13.29
845.315	12.43
845.619	12.55
845.924	12.7
846.229	13.16
846.533	14.21
846.838	13.39
847.142	11.88
847.447	13.88
847.751	14.67
848.056	16.5
848.36	15.43
848.664	15.51
848.969	15.76
849.273	17.17
849.577	17.46
849.881	17.98
850.185	17.64
850.489	18.67
850.794	20.15
851.097	21.33
851.401	20.29
851.705	21.61
852.009	22.89
852.313	19.82
852.617	16.59
852.92	15.77
853.224	14.57
853.528	14.87
853.831	15.14
854.135	13.43
854.438	12.39
854.742	13.49
855.045	12.13
855.349	11.43
855.652	11.41
855.955	11.45
856.259	14.37
856.562	15.88
856.865	16.91
857.168	15.13
857.471	14.68
857.774	13.84
858.077	12.77
858.38	11.73
858.683	11.63
858.986	14.32
859.289	14.82
859.592	16.96
859.894	17.47
860.197	15.53
860.5	18.75
860.802	19.9
861.105	20.65
861.407	21.39
861.71	23.33
862.012	23.63
862.315	21.02
862.617	16.89
862.919	18.36
863.222	16.92
863.524	16.4
863.826	16.08
864.128	18.33
864.43	19.36
864.732	18.75
865.034	19.59
865.336	18.52
865.638	20.06
865.94	19.34
866.242	19.26
866.544	19.37
866.846	18.54
867.147	20.22
867.449	19.64
867.751	18.18
868.052	16.95
868.354	16.75
868.655	19.55
868.957	20.73
869.258	19.22
869.56	18.41
869.861	18.16
870.162	16.65
870.463	16.08
870.765	15.24
871.066	17.83
871.367	18.48
871.668	19.78
871.969	17.72
872.27	18.04
872.571	17.14
872.872	17.6
873.173	17.07
873.473	13.49
873.774	13.86
874.075	15.31
874.376	14.57
874.676	13.24
874.977	13.52
875.277	13.06
875.578	13.94
875.878	13.89
876.179	14.56
876.479	16.24
876.78	15.06
877.08	15.22
877.38	12.33
877.68	12.33
877.981	11.37
878.281	11.97
878.581	9.68
