Data from MVZ_BU28167_Reflection_00011.txt Node
Date: Tue Nov 19 12:17:39 EST 2019
User: vgr7
Spectrometer: USB2G7710
Scans to average: 3
Trigger mode: 4
Integration Time (sec): 2.000000E-2
Electric dark correction enabled: true
Boxcar width: 10
XAxis mode: Wavelengths
Number of Pixels in Spectrum: 2048
>>>>>Begin Spectral Data<<<<<
177.721	442.34
178.105	-705.56
178.488	67.37
178.871	82.29
179.254	244.44
179.636	208.23
180.019	115.98
180.402	115
180.785	-133.33
181.168	5.3
181.55	49.8
181.933	34.14
182.316	9.44
182.698	-14.89
183.081	-15.98
183.463	-7.08
183.846	27.85
184.228	10.76
184.611	-1.57
184.993	-23.13
185.376	-44.16
185.758	-45.99
186.14	-36.61
186.522	-34.51
186.904	-57.25
187.287	-46.94
187.669	-64.48
188.051	-43.82
188.433	-21.17
188.815	-18.59
189.197	-26.7
189.579	-34.06
189.961	-45.5
190.342	-42.62
190.724	-55.76
191.106	-111.71
191.488	-141.78
191.869	-812.7
192.251	698.04
192.633	-1108.33
193.014	-3233.33
193.396	-170.83
193.777	16.67
194.159	558.33
194.54	-16.16
194.922	-152.87
195.303	-277.78
195.684	-1379.17
196.065	-511.11
196.447	-138.1
196.828	-138.1
197.209	-26.98
197.59	-21.21
197.971	-418.52
198.352	61.99
198.733	48.18
199.114	93.83
199.495	73.86
199.876	86.74
200.257	49.35
200.638	106.94
201.018	48.09
201.399	433.33
201.78	-761.11
202.16	76.19
202.541	211.11
202.922	-1261.11
203.302	108.13
203.683	39.68
204.063	-6.67
204.444	-6.81
204.824	-22.22
205.204	-21.12
205.585	7.16
205.965	90.74
206.345	86.82
206.725	128.99
207.106	112.45
207.486	89.52
207.866	89.15
208.246	87.06
208.626	93.96
209.006	97.79
209.386	185.86
209.766	137.04
210.145	157.08
210.525	171.79
210.905	122.11
211.285	204.7
211.664	338.1
212.044	348.97
212.424	406.76
212.803	271.13
213.183	417.95
213.562	356.41
213.942	213.43
214.321	270.14
214.701	147.26
215.08	297.74
215.459	334.74
215.838	395.6
216.218	314.91
216.597	151.82
216.976	93.17
217.355	69.93
217.734	71.01
218.113	65.95
218.492	64.86
218.871	51.04
219.25	19.57
219.629	-15.3
220.008	-13.91
220.387	-9.2
220.766	-10.75
221.144	5.1
221.523	2.3
221.902	12.52
222.28	17.95
222.659	29.77
223.037	3.24
223.416	-11.79
223.794	-9.96
224.173	-3.56
224.551	2.97
224.929	4
225.308	-5.17
225.686	5.77
226.064	2.18
226.442	9.07
226.821	6.67
227.199	9.82
227.577	11.62
227.955	13.4
228.333	9.67
228.711	11.35
229.089	6.47
229.467	8.1
229.845	6.21
230.222	7.21
230.6	3.78
230.978	7.43
231.356	7.22
231.733	8.24
232.111	10.33
232.488	7.84
232.866	8.87
233.243	10.74
233.621	10.65
233.998	10.17
234.376	9.49
234.753	11.94
235.13	9.65
235.508	9.47
235.885	6.96
236.262	9.06
236.639	7.94
237.016	10.29
237.393	11.59
237.77	12.73
238.147	11.43
238.524	12.22
238.901	10.65
239.278	10.03
239.655	9.19
240.032	7.77
240.409	6.96
240.785	6.54
241.162	6.1
241.539	6.23
241.915	6.25
242.292	5.51
242.668	5.23
243.045	5.52
243.421	5.84
243.798	6.15
244.174	5.73
244.551	5.69
244.927	5.08
245.303	4.89
245.679	4.53
246.056	4.34
246.432	4.05
246.808	4.23
247.184	4.32
247.56	4.32
247.936	4.65
248.312	4.75
248.688	4.69
249.064	4.64
249.44	4.58
249.815	4.51
250.191	4.63
250.567	4.8
250.943	4.73
251.318	4.62
251.694	4.45
252.069	4.83
252.445	4.83
252.82	5.27
253.196	4.99
253.571	5.05
253.947	5.17
254.322	4.9
254.697	4.66
255.073	4.65
255.448	4.4
255.823	4.08
256.198	4.05
256.573	4.15
256.948	4.16
257.323	4.13
257.698	4.26
258.073	4.27
258.448	4.26
258.823	4.09
259.198	4.15
259.573	3.84
259.948	3.74
260.322	3.66
260.697	3.61
261.072	3.85
261.446	3.85
261.821	3.74
262.195	3.87
262.57	4.09
262.944	4.07
263.319	4.2
263.693	4.35
264.067	4.35
264.442	4.18
264.816	4.27
265.19	4.21
265.564	4.18
265.938	4.12
266.313	3.93
266.687	4.09
267.061	4.02
267.435	4.41
267.809	4.21
268.183	4.01
268.556	3.83
268.93	3.62
269.304	3.35
269.678	3.43
270.051	3.33
270.425	3.21
270.799	2.96
271.172	3.01
271.546	2.98
271.919	2.99
272.293	3.2
272.666	3.09
273.04	3.15
273.413	3.1
273.787	3.03
274.16	2.96
274.533	2.94
274.906	2.78
275.279	2.8
275.653	2.79
276.026	2.82
276.399	3.05
276.772	2.94
277.145	3.17
277.518	3.08
277.891	3.1
278.263	3.04
278.636	3.49
279.009	3.67
279.382	3.53
279.755	3.48
280.127	3.39
280.5	3.32
280.872	3.22
281.245	3.19
281.617	3.22
281.99	3.28
282.362	3.13
282.735	3.2
283.107	3.11
283.479	3.19
283.852	3.42
284.224	3.36
284.596	3.31
284.968	3.28
285.34	3.25
285.713	3.25
286.085	3.19
286.457	2.97
286.829	2.86
287.201	2.93
287.572	2.97
287.944	2.97
288.316	3.06
288.688	3.2
289.06	3.28
289.431	3.29
289.803	3.18
290.175	3.36
290.546	3.42
290.918	3.45
291.289	3.25
291.661	3.04
292.032	3
292.403	3.14
292.775	3.21
293.146	3.33
293.517	3.26
293.889	3.15
294.26	3.24
294.631	3.2
295.002	3.32
295.373	3.35
295.744	3.41
296.115	3.44
296.486	3.42
296.857	3.34
297.228	3.33
297.599	3.52
297.97	3.54
298.34	3.5
298.711	3.49
299.082	3.75
299.452	3.84
299.823	3.93
300.194	3.96
300.564	3.83
300.935	3.87
301.305	3.94
301.676	4.13
302.046	4.14
302.416	4.13
302.787	3.98
303.157	4.11
303.527	4.25
303.897	4.4
304.267	4.36
304.637	4.39
305.008	4.44
305.378	4.29
305.748	4.13
306.117	4.17
306.487	4.22
306.857	4.19
307.227	4.33
307.597	4.49
307.967	4.51
308.336	4.61
308.706	4.65
309.076	4.89
309.445	5.1
309.815	5.22
310.184	5.27
310.554	5.49
310.923	5.52
311.293	5.37
311.662	5.32
312.031	5.39
312.401	5.41
312.77	5.42
313.139	5.72
313.508	5.86
313.877	5.91
314.246	5.9
314.616	6.01
314.985	6
315.353	5.96
315.722	6.12
316.091	6.31
316.46	6.37
316.829	6.26
317.198	6.28
317.567	6.35
317.935	6.48
318.304	6.49
318.672	6.55
319.041	6.61
319.41	6.69
319.778	6.8
320.147	7.04
320.515	7.13
320.883	7.01
321.252	7.17
321.62	7.33
321.988	7.32
322.357	7.2
322.725	7.22
323.093	7.22
323.461	7.24
323.829	7.28
324.197	7.3
324.565	7.25
324.933	7.27
325.301	7.19
325.669	7.17
326.037	7.17
326.405	7.14
326.772	7.24
327.14	7.04
327.508	7.08
327.875	7.07
328.243	7.15
328.61	7.17
328.978	7.2
329.346	7.1
329.713	7.24
330.08	7.36
330.448	7.31
330.815	7.24
331.182	7.16
331.55	7.09
331.917	6.97
332.284	7.1
332.651	7.04
333.018	7.01
333.385	7.05
333.752	7.08
334.119	7.18
334.486	7.21
334.853	7.37
335.22	7.19
335.587	7.19
335.954	7.13
336.32	7.19
336.687	7.09
337.054	7.09
337.42	7.11
337.787	7.12
338.153	7.21
338.52	7.32
338.886	7.48
339.253	7.44
339.619	7.7
339.986	7.67
340.352	7.81
340.718	7.84
341.084	7.99
341.451	8.02
341.817	8.03
342.183	8.07
342.549	8.12
342.915	8.21
343.281	8.19
343.647	8.25
344.013	8.23
344.379	8.27
344.745	8.39
345.11	8.45
345.476	8.5
345.842	8.52
346.208	8.64
346.573	8.65
346.939	8.78
347.304	8.74
347.67	8.89
348.035	8.84
348.401	8.92
348.766	8.73
349.132	8.73
349.497	8.69
349.862	8.64
350.228	8.76
350.593	8.77
350.958	8.78
351.323	8.83
351.688	8.85
352.053	8.83
352.418	8.87
352.783	8.86
353.148	8.76
353.513	8.79
353.878	8.66
354.243	8.51
354.608	8.53
354.972	8.53
355.337	8.52
355.702	8.44
356.066	8.43
356.431	8.47
356.795	8.47
357.16	8.4
357.524	8.34
357.889	8.27
358.253	8.26
358.618	8.24
358.982	8.25
359.346	8.23
359.71	8.25
360.075	8.16
360.439	8.15
360.803	8.2
361.167	8.09
361.531	8.07
361.895	8.09
362.259	8.05
362.623	8.01
362.987	7.97
363.351	8
363.714	7.99
364.078	8.03
364.442	7.97
364.806	8.05
365.169	8.05
365.533	7.99
365.896	8.04
366.26	7.96
366.623	7.84
366.987	7.81
367.35	7.83
367.714	7.78
368.077	7.75
368.44	7.76
368.803	7.74
369.167	7.76
369.53	7.8
369.893	7.75
370.256	7.72
370.619	7.59
370.982	7.51
371.345	7.47
371.708	7.36
372.071	7.26
372.434	7.24
372.797	7.22
373.159	7.2
373.522	7.12
373.885	7.09
374.247	7.05
374.61	7
374.973	6.88
375.335	6.91
375.698	6.79
376.06	6.74
376.423	6.72
376.785	6.59
377.147	6.45
377.51	6.37
377.872	6.23
378.234	6.27
378.596	6.22
378.958	6.16
379.321	6.1
379.683	6.14
380.045	6.05
380.407	5.97
380.769	5.91
381.13	5.87
381.492	5.89
381.854	5.87
382.216	5.86
382.578	5.87
382.939	5.75
383.301	5.76
383.663	5.67
384.024	5.67
384.386	5.66
384.747	5.7
385.109	5.69
385.47	5.72
385.832	5.62
386.193	5.58
386.554	5.53
386.916	5.55
387.277	5.46
387.638	5.44
387.999	5.48
388.36	5.45
388.721	5.45
389.082	5.4
389.443	5.39
389.804	5.32
390.165	5.28
390.526	5.3
390.887	5.24
391.248	5.21
391.609	5.18
391.969	5.16
392.33	5.09
392.691	5.03
393.051	5.03
393.412	5.07
393.772	5.05
394.133	5
394.493	4.96
394.854	4.98
395.214	4.9
395.574	4.84
395.935	4.82
396.295	4.76
396.655	4.69
397.015	4.65
397.376	4.64
397.736	4.59
398.096	4.52
398.456	4.51
398.816	4.47
399.176	4.42
399.535	4.39
399.895	4.37
400.255	4.32
400.615	4.27
400.975	4.22
401.334	4.19
401.694	4.22
402.054	4.19
402.413	4.1
402.773	4.12
403.132	4.11
403.492	4.11
403.851	4.05
404.211	4.09
404.57	4.08
404.929	4.03
405.288	4.05
405.648	4.03
406.007	4
406.366	4.03
406.725	4.01
407.084	3.98
407.443	3.98
407.802	4
408.161	4.02
408.52	4
408.879	4
409.238	3.99
409.596	3.98
409.955	4.01
410.314	3.96
410.673	3.95
411.031	3.89
411.39	3.89
411.748	3.86
412.107	3.83
412.465	3.85
412.824	3.77
413.182	3.79
413.54	3.81
413.899	3.79
414.257	3.78
414.615	3.77
414.974	3.76
415.332	3.76
415.69	3.72
416.048	3.72
416.406	3.69
416.764	3.65
417.122	3.64
417.48	3.64
417.838	3.65
418.195	3.62
418.553	3.63
418.911	3.63
419.269	3.62
419.626	3.61
419.984	3.59
420.342	3.57
420.699	3.55
421.057	3.53
421.414	3.51
421.772	3.49
422.129	3.49
422.486	3.49
422.844	3.48
423.201	3.48
423.558	3.47
423.915	3.48
424.273	3.47
424.63	3.47
424.987	3.46
425.344	3.46
425.701	3.47
426.058	3.46
426.415	3.47
426.772	3.46
427.128	3.47
427.485	3.46
427.842	3.47
428.199	3.47
428.555	3.46
428.912	3.45
429.269	3.44
429.625	3.45
429.982	3.42
430.338	3.41
430.695	3.38
431.051	3.37
431.407	3.36
431.764	3.37
432.12	3.35
432.476	3.36
432.832	3.35
433.189	3.33
433.545	3.35
433.901	3.33
434.257	3.32
434.613	3.33
434.969	3.32
435.325	3.32
435.681	3.34
436.036	3.37
436.392	3.4
436.748	3.39
437.104	3.39
437.459	3.39
437.815	3.4
438.171	3.39
438.526	3.4
438.882	3.39
439.237	3.4
439.593	3.41
439.948	3.39
440.304	3.39
440.659	3.4
441.014	3.38
441.369	3.39
441.725	3.39
442.08	3.37
442.435	3.39
442.79	3.37
443.145	3.35
443.5	3.32
443.855	3.29
444.21	3.31
444.565	3.31
444.92	3.3
445.275	3.29
445.629	3.28
445.984	3.29
446.339	3.28
446.693	3.26
447.048	3.26
447.403	3.25
447.757	3.24
448.112	3.22
448.466	3.22
448.82	3.21
449.175	3.2
449.529	3.23
449.883	3.21
450.238	3.22
450.592	3.22
450.946	3.22
451.3	3.23
451.654	3.21
452.008	3.22
452.362	3.22
452.716	3.22
453.07	3.24
453.424	3.23
453.778	3.22
454.132	3.22
454.486	3.22
454.839	3.24
455.193	3.22
455.547	3.25
455.9	3.24
456.254	3.25
456.607	3.24
456.961	3.23
457.314	3.24
457.668	3.24
458.021	3.25
458.375	3.26
458.728	3.28
459.081	3.28
459.434	3.25
459.787	3.25
460.141	3.26
460.494	3.27
460.847	3.27
461.2	3.3
461.553	3.31
461.906	3.31
462.259	3.29
462.611	3.31
462.964	3.3
463.317	3.29
463.67	3.27
464.022	3.29
464.375	3.3
464.728	3.3
465.08	3.32
465.433	3.31
465.785	3.31
466.138	3.31
466.49	3.33
466.843	3.4
467.195	3.43
467.547	3.41
467.899	3.41
468.252	3.42
468.604	3.41
468.956	3.41
469.308	3.43
469.66	3.47
470.012	3.48
470.364	3.52
470.716	3.58
471.068	3.61
471.42	3.62
471.772	3.6
472.123	3.63
472.475	3.62
472.827	3.63
473.178	3.68
473.53	3.71
473.882	3.7
474.233	3.68
474.585	3.66
474.936	3.68
475.288	3.67
475.639	3.67
475.99	3.67
476.342	3.68
476.693	3.68
477.044	3.67
477.395	3.66
477.746	3.64
478.097	3.62
478.448	3.6
478.8	3.57
479.15	3.56
479.501	3.55
479.852	3.53
480.203	3.51
480.554	3.5
480.905	3.48
481.255	3.47
481.606	3.46
481.957	3.46
482.307	3.46
482.658	3.46
483.009	3.45
483.359	3.45
483.709	3.44
484.06	3.45
484.41	3.45
484.761	3.45
485.111	3.45
485.461	3.44
485.811	3.44
486.162	3.45
486.512	3.46
486.862	3.46
487.212	3.46
487.562	3.47
487.912	3.47
488.262	3.46
488.612	3.47
488.961	3.48
489.311	3.48
489.661	3.48
490.011	3.48
490.36	3.48
490.71	3.48
491.06	3.49
491.409	3.48
491.759	3.5
492.108	3.51
492.458	3.52
492.807	3.53
493.157	3.55
493.506	3.55
493.855	3.56
494.204	3.58
494.554	3.59
494.903	3.61
495.252	3.64
495.601	3.68
495.95	3.71
496.299	3.74
496.648	3.78
496.997	3.84
497.346	3.89
497.695	3.96
498.043	4.03
498.392	4.08
498.741	4.13
499.09	4.17
499.438	4.25
499.787	4.31
500.135	4.37
500.484	4.41
500.832	4.49
501.181	4.59
501.529	4.71
501.878	4.79
502.226	4.88
502.574	4.97
502.923	5.06
503.271	5.16
503.619	5.26
503.967	5.38
504.315	5.5
504.663	5.61
505.011	5.69
505.359	5.77
505.707	5.9
506.055	6.05
506.403	6.18
506.751	6.33
507.098	6.48
507.446	6.62
507.794	6.77
508.141	6.91
508.489	7.07
508.837	7.21
509.184	7.38
509.531	7.56
509.879	7.71
510.226	7.87
510.574	8.04
510.921	8.22
511.268	8.4
511.616	8.58
511.963	8.77
512.31	9.01
512.657	9.24
513.004	9.46
513.351	9.67
513.698	9.91
514.045	10.14
514.392	10.38
514.739	10.62
515.086	10.9
515.432	11.19
515.779	11.44
516.126	11.68
516.473	11.92
516.819	12.14
517.166	12.39
517.512	12.59
517.859	12.82
518.205	13.04
518.552	13.25
518.898	13.43
519.245	13.66
519.591	13.82
519.937	14.04
520.283	14.27
520.629	14.53
520.976	14.77
521.322	14.98
521.668	15.25
522.014	15.53
522.36	15.81
522.706	16.1
523.052	16.39
523.398	16.68
523.743	17.02
524.089	17.35
524.435	17.64
524.781	17.94
525.126	18.22
525.472	18.46
525.817	18.68
526.163	18.92
526.509	19.12
526.854	19.3
527.199	19.46
527.545	19.64
527.89	19.81
528.235	19.98
528.581	20.17
528.926	20.34
529.271	20.53
529.616	20.69
529.961	20.85
530.306	21.05
530.651	21.25
530.996	21.44
531.341	21.63
531.686	21.85
532.031	22.08
532.376	22.29
532.721	22.5
533.065	22.74
533.41	22.96
533.755	23.2
534.099	23.48
534.444	23.75
534.788	23.97
535.133	24.23
535.477	24.5
535.822	24.8
536.166	25.06
536.51	25.33
536.855	25.66
537.199	25.98
537.543	26.3
537.887	26.61
538.231	26.91
538.576	27.21
538.92	27.54
539.264	27.81
539.608	28.1
539.951	28.4
540.295	28.64
540.639	28.9
540.983	29.12
541.327	29.35
541.671	29.58
542.014	29.79
542.358	30.01
542.701	30.23
543.045	30.41
543.389	30.65
543.732	30.87
544.075	31.08
544.419	31.3
544.762	31.49
545.105	31.74
545.449	31.96
545.792	32.23
546.135	32.48
546.478	32.76
546.821	33.05
547.165	33.29
547.508	33.56
547.851	33.83
548.194	34.1
548.536	34.32
548.879	34.64
549.222	34.91
549.565	35.1
549.908	35.31
550.25	35.51
550.593	35.71
550.936	35.97
551.278	36.21
551.621	36.36
551.963	36.64
552.306	36.84
552.648	37.09
552.991	37.31
553.333	37.51
553.675	37.73
554.017	37.89
554.36	38.08
554.702	38.26
555.044	38.46
555.386	38.66
555.728	38.87
556.07	38.99
556.412	39.18
556.754	39.47
557.096	39.72
557.438	39.93
557.78	40.18
558.121	40.34
558.463	40.5
558.805	40.85
559.147	40.95
559.488	41.18
559.83	41.35
560.171	41.5
560.513	41.63
560.854	41.77
561.196	41.94
561.537	42.16
561.878	42.38
562.22	42.57
562.561	42.71
562.902	42.93
563.243	43.07
563.584	43.26
563.925	43.43
564.266	43.55
564.607	43.73
564.948	43.86
565.289	44.02
565.63	44.13
565.971	44.2
566.312	44.4
566.653	44.48
566.993	44.58
567.334	44.75
567.675	44.93
568.015	45.1
568.356	45.27
568.696	45.39
569.037	45.53
569.377	45.63
569.718	45.75
570.058	45.81
570.398	45.95
570.739	46.12
571.079	46.1
571.419	46.2
571.759	46.28
572.099	46.39
572.439	46.51
572.779	46.68
573.119	46.83
573.459	46.91
573.799	47
574.139	47.19
574.479	47.25
574.819	47.36
575.158	47.45
575.498	47.47
575.838	47.5
576.177	47.62
576.517	47.71
576.856	47.81
577.196	47.94
577.535	48.06
577.875	48.05
578.214	48.24
578.553	48.35
578.893	48.49
579.232	48.58
579.571	48.66
579.91	48.7
580.25	48.76
580.589	48.83
580.928	48.91
581.267	48.98
581.606	49.13
581.945	49.16
582.283	49.22
582.622	49.34
582.961	49.52
583.3	49.4
583.639	49.52
583.977	49.65
584.316	49.69
584.654	49.68
584.993	49.75
585.332	49.9
585.67	50.03
586.008	50.04
586.347	50.13
586.685	50.18
587.024	50.27
587.362	50.3
587.7	50.45
588.038	50.66
588.376	50.72
588.715	50.79
589.053	50.89
589.391	50.97
589.729	51.05
590.067	51.1
590.404	51.24
590.742	51.21
591.08	51.28
591.418	51.42
591.756	51.52
592.093	51.63
592.431	51.67
592.769	51.61
593.106	51.79
593.444	51.81
593.781	51.92
594.119	51.94
594.456	52.08
594.793	52.08
595.131	52.03
595.468	52.09
595.805	52.06
596.143	52.12
596.48	52.16
596.817	52.26
597.154	52.3
597.491	52.39
597.828	52.52
598.165	52.55
598.502	52.61
598.839	52.7
599.176	52.76
599.512	52.82
599.849	52.98
600.186	52.92
600.523	53
600.859	52.96
601.196	53.13
601.532	53.16
601.869	53.2
602.205	53.28
602.542	53.26
602.878	53.42
603.215	53.5
603.551	53.59
603.887	53.61
604.223	53.6
604.56	53.61
604.896	53.6
605.232	53.6
605.568	53.58
605.904	53.61
606.24	53.63
606.576	53.65
606.912	53.59
607.248	53.67
607.583	53.79
607.919	53.92
608.255	53.84
608.591	53.86
608.926	53.95
609.262	54.01
609.597	54.04
609.933	53.98
610.268	53.93
610.604	53.84
610.939	53.88
611.275	53.92
611.61	53.96
611.945	53.97
612.281	54.05
612.616	54.09
612.951	54.12
613.286	54.13
613.621	54.15
613.956	54.23
614.291	54.23
614.626	54.24
614.961	54.24
615.296	54.33
615.631	54.35
615.966	54.35
616.3	54.21
616.635	54.23
616.97	54.23
617.304	54.29
617.639	54.4
617.973	54.39
618.308	54.45
618.642	54.52
618.977	54.65
619.311	54.71
619.646	54.79
619.98	54.78
620.314	54.82
620.648	54.79
620.983	54.82
621.317	54.95
621.651	54.95
621.985	54.95
622.319	55.05
622.653	55.01
622.987	55.08
623.321	55.14
623.655	55.22
623.988	55.27
624.322	55.32
624.656	55.42
624.99	55.47
625.323	55.52
625.657	55.42
625.99	55.44
626.324	55.35
626.657	55.41
626.991	55.46
627.324	55.54
627.658	55.58
627.991	55.66
628.324	55.56
628.657	55.51
628.991	55.54
629.324	55.43
629.657	55.46
629.99	55.44
630.323	55.55
630.656	55.6
630.989	55.61
631.322	55.67
631.655	55.74
631.987	55.77
632.32	55.74
632.653	55.89
632.986	55.89
633.318	55.9
633.651	55.91
633.984	55.93
634.316	55.92
634.649	56.02
634.981	56.09
635.313	56.12
635.646	56.21
635.978	56.2
636.31	56.28
636.643	56.44
636.975	56.51
637.307	56.56
637.639	56.58
637.971	56.61
638.303	56.56
638.635	56.43
638.967	56.46
639.299	56.49
639.631	56.51
639.963	56.41
640.295	56.46
640.626	56.45
640.958	56.46
641.29	56.5
641.621	56.46
641.953	56.36
642.285	56.44
642.616	56.55
642.948	56.57
643.279	56.56
643.61	56.5
643.942	56.4
644.273	56.38
644.604	56.36
644.936	56.43
645.267	56.34
645.598	56.4
645.929	56.29
646.26	56.36
646.591	56.5
646.922	56.63
647.253	56.64
647.584	56.81
647.915	56.89
648.245	56.91
648.576	56.81
648.907	56.78
649.238	56.72
649.568	56.6
649.899	56.75
650.229	56.81
650.56	56.9
650.89	56.91
651.221	56.85
651.551	56.79
651.882	56.79
652.212	56.88
652.542	56.96
652.872	57.11
653.203	57.11
653.533	56.9
653.863	56.91
654.193	56.99
654.523	56.81
654.853	56.82
655.183	56.84
655.513	56.99
655.843	57.07
656.172	57.23
656.502	57.32
656.832	57.21
657.162	57.27
657.491	57.27
657.821	57.2
658.15	57.3
658.48	57.32
658.809	57.32
659.139	57.17
659.468	57.2
659.798	57.07
660.127	57.07
660.456	57.18
660.785	57.15
661.115	57.18
661.444	57.28
661.773	57.3
662.102	57.24
662.431	57.26
662.76	57.34
663.089	57.33
663.418	57.27
663.747	57.33
664.076	57.25
664.404	57.19
664.733	57.22
665.062	57.16
665.39	57.22
665.719	57.19
666.048	57.27
666.376	57.23
666.705	57.15
667.033	57.27
667.362	57.26
667.69	57.27
668.018	57.14
668.347	56.95
668.675	56.85
669.003	56.96
669.331	57.05
669.659	56.91
669.987	56.98
670.315	57
670.643	57.01
670.971	57.13
671.299	57.01
671.627	57.14
671.955	57.15
672.283	57.17
672.61	57.29
672.938	57.38
673.266	57.34
673.593	57.46
673.921	57.41
674.249	57.39
674.576	57.43
674.904	57.37
675.231	57.55
675.558	57.59
675.886	57.51
676.213	57.38
676.54	57.46
676.867	57.4
677.195	57.36
677.522	57.36
677.849	57.33
678.176	57.52
678.503	57.47
678.83	57.5
679.157	57.48
679.484	57.45
679.81	57.57
680.137	57.6
680.464	57.79
680.791	57.81
681.117	57.88
681.444	57.93
681.771	58.05
682.097	58.07
682.424	58.09
682.75	58.12
683.077	58.23
683.403	58.29
683.729	58.25
684.056	58.26
684.382	58.37
684.708	58.27
685.034	58.34
685.36	58.31
685.686	58.34
686.012	58.34
686.339	58.22
686.664	58.19
686.99	58.24
687.316	58.15
687.642	58.11
687.968	58.21
688.294	58.07
688.619	58.26
688.945	58.35
689.271	58.34
689.596	58.4
689.922	58.28
690.247	58.21
690.573	58.17
690.898	58.14
691.224	58.09
691.549	58.05
691.874	58.07
692.2	58.38
692.525	58.62
692.85	58.56
693.175	58.76
693.5	58.67
693.825	58.64
694.15	58.54
694.475	58.73
694.8	58.63
695.125	58.86
695.45	58.54
695.775	58.66
696.099	58.78
696.424	58.8
696.749	58.89
697.073	59.09
697.398	59.23
697.723	59.4
698.047	59.44
698.372	59.67
698.696	59.62
699.02	59.4
699.345	59.09
699.669	59.07
699.993	59.12
700.318	59.23
700.642	59.22
700.966	59.16
701.29	59.06
701.614	59.03
701.938	58.88
702.262	58.94
702.586	58.82
702.91	58.73
703.234	58.79
703.557	58.95
703.881	58.91
704.205	58.77
704.529	58.62
704.852	58.47
705.176	58.31
705.499	58.25
705.823	58.29
706.146	58.41
706.47	58.79
706.793	58.72
707.117	58.61
707.44	58.66
707.763	58.96
708.086	58.94
708.409	58.99
708.733	59.06
709.056	59.42
709.379	59.26
709.702	59.47
710.025	59.28
710.348	59.32
710.671	59.24
710.993	59.21
711.316	59.55
711.639	59.56
711.962	59.65
712.284	59.59
712.607	59.66
712.93	59.77
713.252	59.61
713.575	59.59
713.897	59.71
714.22	59.6
714.542	59.5
714.864	59.51
715.187	59.65
715.509	59.69
715.831	59.66
716.153	59.89
716.475	59.76
716.798	59.84
717.12	59.6
717.442	59.52
717.764	59.63
718.085	59.4
718.407	59.44
718.729	59.51
719.051	59.61
719.373	59.6
719.695	59.48
720.016	59.41
720.338	59.52
720.659	59.36
720.981	59.67
721.302	59.74
721.624	59.79
721.945	59.57
722.267	59.53
722.588	59.29
722.909	59.07
723.231	58.88
723.552	58.9
723.873	59.1
724.194	59.3
724.515	59.3
724.836	59.09
725.157	59.05
725.478	58.92
725.799	58.99
726.12	58.62
726.441	58.7
726.762	58.8
727.083	58.88
727.403	59.28
727.724	59.15
728.045	59.23
728.365	59.05
728.686	59.04
729.006	59.08
729.327	59.16
729.647	59.14
729.967	59.39
730.288	59.48
730.608	59.55
730.928	59.61
731.249	59.89
731.569	60.02
731.889	59.85
732.209	60.11
732.529	60.03
732.849	60.23
733.169	60.25
733.489	60.36
733.809	60.25
734.129	59.88
734.448	59.87
734.768	59.67
735.088	59.76
735.408	59.62
735.727	59.67
736.047	59.93
736.366	60.27
736.686	60.21
737.005	60.33
737.325	60.04
737.644	59.88
737.963	59.65
738.283	59.67
738.602	60.32
738.921	60.26
739.24	60.11
739.56	60.44
739.879	60.62
740.198	60.54
740.517	60.36
740.836	60.6
741.155	60.74
741.473	60.74
741.792	60.88
742.111	61.44
742.43	61.48
742.748	61.65
743.067	61.64
743.386	61.81
743.704	61.82
744.023	61.96
744.341	61.8
744.66	61.67
744.978	61.69
745.297	61.14
745.615	60.75
745.933	60.97
746.252	60.73
746.57	60.71
746.888	60.52
747.206	60.47
747.524	60.44
747.842	60.49
748.16	60.65
748.478	60.83
748.796	60.64
749.114	60.86
749.432	60.33
749.749	59.84
750.067	59.55
750.385	59.32
750.703	59.4
751.02	59.95
751.338	60.02
751.655	59.78
751.973	59.98
752.29	60.45
752.608	60.6
752.925	60.78
753.242	60.73
753.56	60.65
753.877	61.28
754.194	61.18
754.511	61.27
754.828	61.18
755.145	61.05
755.462	61.12
755.779	60.94
756.096	61.25
756.413	61.66
756.73	61.72
757.047	61.81
757.364	62.23
757.68	61.97
757.997	61.87
758.314	62.15
758.63	61.93
758.947	61.6
759.264	61.37
759.58	61.46
759.896	61.24
760.213	61.57
760.529	61.14
760.846	60.9
761.162	60.82
761.478	61
761.794	60.81
762.11	60.83
762.426	60.94
762.743	60.69
763.059	60.55
763.375	60.41
763.69	60.48
764.006	60.2
764.322	60.21
764.638	60.35
764.954	60.3
765.27	60.62
765.585	60.75
765.901	60.93
766.216	61.28
766.532	61.41
766.848	61.41
767.163	61.9
767.478	62.05
767.794	62.22
768.109	62.28
768.424	62.51
768.74	62.49
769.055	62.45
769.37	62.62
769.685	63
770	63.4
770.315	63.96
770.63	63.83
770.945	64.05
771.26	63.96
771.575	64.25
771.89	64.4
772.205	64.41
772.52	64.17
772.834	63.03
773.149	63.24
773.464	63.59
773.778	62.61
774.093	63.04
774.407	62.64
774.722	62.63
775.036	62.58
775.351	62.43
775.665	62.36
775.979	62.45
776.293	62.13
776.608	62.14
776.922	61.52
777.236	61.64
777.55	61.35
777.864	61.48
778.178	61.75
778.492	61.25
778.806	61.54
779.12	61.58
779.434	62.23
779.747	62.59
780.061	62.06
780.375	62.75
780.689	63.49
781.002	63.32
781.316	63.27
781.629	63.1
781.943	63.58
782.256	63.66
782.57	63.81
782.883	63.74
783.196	63.94
783.51	64.21
783.823	64.44
784.136	64.53
784.449	64.48
784.762	63.8
785.075	63.97
785.388	63.78
785.701	63.74
786.014	63.93
786.327	63.39
786.64	63.28
786.953	63.5
787.266	61.9
787.578	62.24
787.891	62.28
788.204	62.14
788.516	62.46
788.829	62.51
789.141	62.32
789.454	62.45
789.766	62.07
790.079	61.6
790.391	61.6
790.703	61.81
791.016	61.75
791.328	61.64
791.64	61.36
791.952	61.24
792.264	61.85
792.576	61.62
792.888	62.16
793.2	62.19
793.512	61.86
793.824	62.72
794.136	63.13
794.448	62.95
794.76	63.22
795.071	62.98
795.383	62.6
795.695	63.04
796.006	63.25
796.318	63.46
796.629	63.47
796.941	63.42
797.252	63.18
797.564	63.46
797.875	63.56
798.186	63.84
798.497	64.23
798.809	64.33
799.12	64.21
799.431	63.78
799.742	63.97
800.053	64.18
800.364	64.29
800.675	64.21
800.986	64.15
801.297	64.15
801.608	63.47
801.918	63.66
802.229	62.78
802.54	62.83
802.851	62.58
803.161	62.45
803.472	62.14
803.782	62.33
804.093	62.04
804.403	62.95
804.714	63.1
805.024	62.41
805.334	62.12
805.645	61.99
805.955	61.81
806.265	62.04
806.575	61.3
806.885	61.54
807.195	61.22
807.505	61.09
807.815	60.78
808.125	61.65
808.435	61.84
808.745	62.3
809.055	62.54
809.365	63
809.674	63.57
809.984	64.12
810.294	63.69
810.603	63.48
810.913	62.25
811.222	61.93
811.532	61.84
811.841	61.71
812.151	62.04
812.46	62.4
812.769	61.85
813.079	61.78
813.388	60.93
813.697	60.84
814.006	61.14
814.315	61.7
814.624	59.74
814.933	60.48
815.242	60.11
815.551	59.15
815.86	58.49
816.169	58.57
816.478	58.69
816.786	59.48
817.095	59.58
817.404	60.95
817.712	61.64
818.021	62.36
818.33	62.69
818.638	62.78
818.947	62.28
819.255	62.74
819.563	63.79
819.872	63.55
820.18	63.92
820.488	63.75
820.796	63.56
821.105	63.72
821.413	63.63
821.721	63.83
822.029	63.75
822.337	63.94
822.645	63.86
822.953	63.64
823.26	63.27
823.568	63.26
823.876	63.08
824.184	62.84
824.491	62.84
824.799	62.63
825.107	62.67
825.414	62.93
825.722	62.78
826.029	62.64
826.337	62.69
826.644	62.7
826.951	62.89
827.259	62.93
827.566	63.38
827.873	63.11
828.18	62.98
828.488	63.15
828.795	62.84
829.102	62.83
829.409	62.79
829.716	62.87
830.023	62.83
830.329	62.89
830.636	63.35
830.943	63.69
831.25	64.06
831.557	63.68
831.863	63.22
832.17	63.36
832.476	63.44
832.783	64.11
833.089	63.63
833.396	63.54
833.702	63.98
834.009	63.09
834.315	63.7
834.621	63.51
834.928	63.6
835.234	64.17
835.54	63.76
835.846	63.99
836.152	64.82
836.458	65.52
836.764	65.25
837.07	65.12
837.376	64.72
837.682	65.33
837.988	66.19
838.293	66.81
838.599	67.2
838.905	67.32
839.211	67.63
839.516	67.96
839.822	67.79
840.127	67.73
840.433	69.46
840.738	69.14
841.044	70.28
841.349	70.03
841.654	69.78
841.959	71.85
842.265	72.84
842.57	72.78
842.875	71.98
843.18	71.28
843.485	71.67
843.79	71.15
844.095	70.44
844.4	70.14
844.705	69.96
845.01	71.02
845.315	68.47
845.619	68.29
845.924	68.64
846.229	68.53
846.533	67.79
846.838	67.16
847.142	68.2
847.447	68.19
847.751	68.29
848.056	67.87
848.36	66.14
848.664	64.92
848.969	62.27
849.273	62.05
849.577	65.1
849.881	66.09
850.185	65.16
850.489	65.52
850.794	65.14
851.097	67.11
851.401	66.5
851.705	69.36
852.009	68.27
852.313	65.73
852.617	66.22
852.92	64.25
853.224	65.49
853.528	62.88
853.831	62.74
854.135	63.01
854.438	63.41
854.742	63.67
855.045	67.09
855.349	68.92
855.652	71
855.955	70.23
856.259	70.47
856.562	72.09
856.865	73.23
857.168	73.16
857.471	70.74
857.774	72.89
858.077	72.95
858.38	73.25
858.683	74.5
858.986	77.25
859.289	77.63
859.592	72.63
859.894	74.29
860.197	74.27
860.5	77.12
860.802	77.14
861.105	79.19
861.407	74.61
861.71	75.62
862.012	74.1
862.315	74.83
862.617	73.57
862.919	72.42
863.222	69.43
863.524	69.73
863.826	68.44
864.128	63.48
864.43	65.27
864.732	63.64
865.034	63.32
865.336	60.77
865.638	63.16
865.94	64.75
866.242	63.74
866.544	62.59
866.846	63.17
867.147	61.68
867.449	57.63
867.751	59
868.052	59.49
868.354	58.27
868.655	57.07
868.957	57.9
869.258	61.32
869.56	60.66
869.861	59.81
870.162	59.56
870.463	60.44
870.765	59.28
871.066	60.11
871.367	61.3
871.668	62.93
871.969	63.26
872.27	65.58
872.571	65.95
872.872	70.42
873.173	68.79
873.473	69.68
873.774	72.01
874.075	70.41
874.376	69.16
874.676	68.03
874.977	69.8
875.277	68.33
875.578	68.22
875.878	69.19
876.179	70.28
876.479	71.58
876.78	73.03
877.08	71.9
877.38	71.59
877.68	71.67
877.981	70.59
878.281	71.34
878.581	69.31
