Data from MVZ_BU147393_Reflection_00013.txt Node
Date: Tue Nov 19 12:07:14 EST 2019
User: vgr7
Spectrometer: USB2G7710
Scans to average: 3
Trigger mode: 4
Integration Time (sec): 2.000000E-2
Electric dark correction enabled: true
Boxcar width: 10
XAxis mode: Wavelengths
Number of Pixels in Spectrum: 2048
>>>>>Begin Spectral Data<<<<<
177.721	1.48
178.105	-6900
178.488	-214.96
178.871	-103.12
179.254	-136.36
179.636	44.22
180.019	49.64
180.402	-1133.33
180.785	190.91
181.168	53.88
181.55	393.1
181.933	218.85
182.316	124.55
182.698	108.85
183.081	76.87
183.463	77.68
183.846	268.14
184.228	204.79
184.611	297.48
184.993	253.85
185.376	-3150
185.758	-6900
186.14	-840
186.522	-162.71
186.904	-60
187.287	385.71
187.669	196.15
188.051	238.39
188.433	-24.05
188.815	-52.47
189.197	-8.11
189.579	36.96
189.961	39.69
190.342	77.76
190.724	29.54
191.106	29
191.488	14.97
191.869	14.97
192.251	19.71
192.633	22.76
193.014	12.75
193.396	11.64
193.777	14.27
194.159	21.89
194.54	26.66
194.922	18.16
195.303	14.73
195.684	-3.19
196.065	-4.55
196.447	16.01
196.828	9
197.209	11.37
197.59	26.78
197.971	34.69
198.352	19.08
198.733	26.52
199.114	27.3
199.495	30.73
199.876	28.74
200.257	29.85
200.638	31.26
201.018	37.09
201.399	28.07
201.78	13.59
202.16	4.13
202.541	-4.97
202.922	-2.43
203.302	-14.46
203.683	-13.09
204.063	-16.9
204.444	1.17
204.824	3.82
205.204	-3.1
205.585	-7.39
205.965	-14.62
206.345	-11.82
206.725	-13.11
207.106	-6.89
207.486	-1.7
207.866	0.63
208.246	0.62
208.626	-4.35
209.006	-7.85
209.386	-6.1
209.766	-0.9
210.145	2.3
210.525	1.97
210.905	1.77
211.285	18.73
211.664	39.18
212.044	56.76
212.424	46.4
212.803	45.93
213.183	48.11
213.562	41.63
213.942	56.42
214.321	35.34
214.701	21.47
215.08	18.02
215.459	15.37
215.838	26.2
216.218	30.42
216.597	69.28
216.976	96.5
217.355	126.32
217.734	75.85
218.113	137.53
218.492	122.73
218.871	92.08
219.25	75.29
219.629	74.78
220.008	9.5
220.387	-12.16
220.766	-4.56
221.144	-12.57
221.523	-18.13
221.902	5.03
222.28	35.59
222.659	82.11
223.037	47.95
223.416	70.99
223.794	69.36
224.173	47.09
224.551	31.67
224.929	24.88
225.308	21.74
225.686	7.05
226.064	-7.77
226.442	-4.81
226.821	-4.86
227.199	-2.12
227.577	-4.7
227.955	0.94
228.333	0.85
228.711	-0.54
229.089	3.93
229.467	4.46
229.845	-0.54
230.222	1.75
230.6	-3.35
230.978	-2.58
231.356	-4.69
231.733	-7.82
232.111	-5.08
232.488	-4.51
232.866	-3.09
233.243	-3.99
233.621	-0.14
233.998	0.68
234.376	-0.31
234.753	1.95
235.13	2.11
235.508	3.47
235.885	2.84
236.262	1.73
236.639	1.46
237.016	0.43
237.393	0.64
237.77	0.96
238.147	0.58
238.524	2.31
238.901	1.2
239.278	1.02
239.655	0.84
240.032	0.76
240.409	0.76
240.785	0.18
241.162	0.49
241.539	0.38
241.915	0.43
242.292	0.89
242.668	0.58
243.045	0.53
243.421	0.62
243.798	0.87
244.174	1.18
244.551	1.66
244.927	1.81
245.303	1.94
245.679	2.17
246.056	2.22
246.432	2.27
246.808	2.68
247.184	2.56
247.56	2.57
247.936	2.49
248.312	2.67
248.688	3.07
249.064	3.03
249.44	3.39
249.815	3.51
250.191	3.77
250.567	3.69
250.943	3.5
251.318	3.41
251.694	3.41
252.069	3.3
252.445	3.16
252.82	3.51
253.196	3.59
253.571	3.54
253.947	3.69
254.322	3.36
254.697	3.22
255.073	3.48
255.448	3.48
255.823	3.25
256.198	3.07
256.573	2.95
256.948	2.83
257.323	2.54
257.698	2.45
258.073	2.23
258.448	2.39
258.823	2.41
259.198	2.58
259.573	2.62
259.948	2.74
260.322	2.54
260.697	2.34
261.072	2.24
261.446	2.19
261.821	2.19
262.195	2.35
262.57	2.43
262.944	2.55
263.319	2.57
263.693	2.62
264.067	2.71
264.442	2.78
264.816	2.82
265.19	2.78
265.564	2.5
265.938	2.63
266.313	2.52
266.687	2.75
267.061	2.45
267.435	2.43
267.809	2.38
268.183	2.63
268.556	2.56
268.93	2.46
269.304	2.36
269.678	2.17
270.051	2.21
270.425	2.18
270.799	1.86
271.172	1.88
271.546	1.87
271.919	1.76
272.293	1.73
272.666	1.91
273.04	1.86
273.413	2.05
273.787	1.9
274.16	1.94
274.533	1.88
274.906	2.07
275.279	2
275.653	2.01
276.026	2.07
276.399	2.24
276.772	2.37
277.145	2.47
277.518	2.6
277.891	2.46
278.263	2.31
278.636	2.43
279.009	2.4
279.382	2.45
279.755	2.59
280.127	2.42
280.5	2.12
280.872	2.21
281.245	2.26
281.617	2.22
281.99	2.19
282.362	2.13
282.735	2.12
283.107	2
283.479	2.04
283.852	1.88
284.224	1.94
284.596	1.89
284.968	1.88
285.34	1.79
285.713	1.99
286.085	2.08
286.457	2.03
286.829	2.18
287.201	2.34
287.572	2.36
287.944	2.52
288.316	2.68
288.688	2.71
289.06	2.67
289.431	2.88
289.803	2.98
290.175	2.93
290.546	2.88
290.918	2.92
291.289	2.91
291.661	2.86
292.032	2.87
292.403	2.89
292.775	3.06
293.146	3.13
293.517	3.05
293.889	2.97
294.26	3.09
294.631	2.94
295.002	2.76
295.373	2.81
295.744	2.67
296.115	2.61
296.486	2.56
296.857	2.71
297.228	2.51
297.599	2.38
297.97	2.62
298.34	2.65
298.711	2.85
299.082	2.91
299.452	3.05
299.823	2.88
300.194	3
300.564	2.95
300.935	3.12
301.305	2.99
301.676	3.14
302.046	3.11
302.416	3.24
302.787	3.31
303.157	3.22
303.527	3.42
303.897	3.57
304.267	3.75
304.637	3.61
305.008	3.71
305.378	3.99
305.748	3.87
306.117	3.87
306.487	3.84
306.857	3.8
307.227	3.92
307.597	4.04
307.967	3.94
308.336	3.97
308.706	4
309.076	4.29
309.445	4.34
309.815	4.3
310.184	4.25
310.554	4.3
310.923	4.39
311.293	4.4
311.662	4.32
312.031	4.35
312.401	4.34
312.77	4.45
313.139	4.31
313.508	4.31
313.877	4.38
314.246	4.36
314.616	4.49
314.985	4.37
315.353	4.39
315.722	4.58
316.091	4.52
316.46	4.46
316.829	4.25
317.198	4.17
317.567	4.42
317.935	4.38
318.304	4.61
318.672	4.59
319.041	4.66
319.41	4.84
319.778	4.76
320.147	4.87
320.515	4.74
320.883	4.74
321.252	4.81
321.62	4.71
321.988	4.86
322.357	4.73
322.725	4.76
323.093	4.83
323.461	4.89
323.829	4.79
324.197	4.84
324.565	5.01
324.933	4.93
325.301	4.88
325.669	4.93
326.037	4.73
326.405	4.73
326.772	4.65
327.14	4.57
327.508	4.74
327.875	4.79
328.243	4.73
328.61	4.88
328.978	4.84
329.346	4.99
329.713	4.96
330.08	5.09
330.448	5.11
330.815	5.07
331.182	4.85
331.55	4.94
331.917	4.82
332.284	4.84
332.651	4.98
333.018	5.03
333.385	5.01
333.752	5.2
334.119	5.21
334.486	5.19
334.853	5.03
335.22	4.95
335.587	4.98
335.954	5.05
336.32	4.98
336.687	5
337.054	5.05
337.42	5.09
337.787	5.08
338.153	5.19
338.52	5.3
338.886	5.53
339.253	5.66
339.619	5.77
339.986	5.75
340.352	5.85
340.718	5.78
341.084	5.86
341.451	5.82
341.817	5.85
342.183	5.95
342.549	6.18
342.915	6.19
343.281	6.23
343.647	6.26
344.013	6.29
344.379	6.21
344.745	6.19
345.11	6.19
345.476	6.2
345.842	6.16
346.208	6.12
346.573	6.14
346.939	6.11
347.304	6.04
347.67	6.06
348.035	6.01
348.401	6.12
348.766	6.05
349.132	6.09
349.497	6.23
349.862	6.14
350.228	6.1
350.593	6.15
350.958	6.17
351.323	6.23
351.688	6.38
352.053	6.49
352.418	6.46
352.783	6.41
353.148	6.38
353.513	6.36
353.878	6.33
354.243	6.19
354.608	6.16
354.972	6.25
355.337	6.22
355.702	6.24
356.066	6.14
356.431	6.16
356.795	6.1
357.16	5.95
357.524	6
357.889	5.95
358.253	5.83
358.618	5.75
358.982	5.72
359.346	5.63
359.71	5.56
360.075	5.57
360.439	5.59
360.803	5.62
361.167	5.63
361.531	5.64
361.895	5.71
362.259	5.78
362.623	5.83
362.987	5.78
363.351	5.8
363.714	5.82
364.078	5.89
364.442	5.9
364.806	5.93
365.169	5.88
365.533	5.91
365.896	6.07
366.26	6.03
366.623	6.08
366.987	6.1
367.35	6.18
367.714	6.09
368.077	6.09
368.44	6.05
368.803	6.01
369.167	5.99
369.53	5.93
369.893	5.9
370.256	5.75
370.619	5.75
370.982	5.59
371.345	5.6
371.708	5.54
372.071	5.49
372.434	5.47
372.797	5.46
373.159	5.38
373.522	5.23
373.885	5.27
374.247	5.22
374.61	5.13
374.973	5.16
375.335	5.22
375.698	5.11
376.06	5.08
376.423	5.07
376.785	5.05
377.147	5.03
377.51	4.99
377.872	4.98
378.234	4.97
378.596	5.04
378.958	4.99
379.321	4.9
379.683	4.86
380.045	4.83
380.407	4.8
380.769	4.85
381.13	4.8
381.492	4.73
381.854	4.67
382.216	4.71
382.578	4.64
382.939	4.63
383.301	4.62
383.663	4.62
384.024	4.56
384.386	4.54
384.747	4.5
385.109	4.49
385.47	4.49
385.832	4.42
386.193	4.35
386.554	4.28
386.916	4.36
387.277	4.34
387.638	4.32
387.999	4.33
388.36	4.24
388.721	4.25
389.082	4.27
389.443	4.23
389.804	4.2
390.165	4.19
390.526	4.12
390.887	4.16
391.248	4.11
391.609	4.13
391.969	4.1
392.33	4.09
392.691	4.07
393.051	4.03
393.412	4.06
393.772	4.09
394.133	4.09
394.493	4.04
394.854	4.04
395.214	4.02
395.574	3.95
395.935	3.94
396.295	3.95
396.655	3.93
397.015	3.96
397.376	3.92
397.736	3.87
398.096	3.89
398.456	3.85
398.816	3.83
399.176	3.81
399.535	3.79
399.895	3.74
400.255	3.74
400.615	3.77
400.975	3.73
401.334	3.72
401.694	3.72
402.054	3.72
402.413	3.68
402.773	3.68
403.132	3.72
403.492	3.69
403.851	3.65
404.211	3.65
404.57	3.6
404.929	3.58
405.288	3.6
405.648	3.58
406.007	3.58
406.366	3.62
406.725	3.6
407.084	3.61
407.443	3.64
407.802	3.62
408.161	3.58
408.52	3.58
408.879	3.57
409.238	3.57
409.596	3.56
409.955	3.59
410.314	3.57
410.673	3.55
411.031	3.55
411.39	3.54
411.748	3.52
412.107	3.53
412.465	3.53
412.824	3.52
413.182	3.49
413.54	3.47
413.899	3.44
414.257	3.45
414.615	3.4
414.974	3.38
415.332	3.35
415.69	3.33
416.048	3.31
416.406	3.27
416.764	3.24
417.122	3.21
417.48	3.18
417.838	3.16
418.195	3.15
418.553	3.14
418.911	3.13
419.269	3.12
419.626	3.1
419.984	3.09
420.342	3.08
420.699	3.07
421.057	3.05
421.414	3.03
421.772	3
422.129	3.01
422.486	3.01
422.844	2.99
423.201	3
423.558	2.99
423.915	2.98
424.273	2.98
424.63	2.99
424.987	3
425.344	3
425.701	2.99
426.058	2.99
426.415	2.97
426.772	2.95
427.128	2.96
427.485	2.97
427.842	2.97
428.199	2.97
428.555	3
428.912	3
429.269	3.01
429.625	3.02
429.982	3.02
430.338	3.05
430.695	3.03
431.051	3.06
431.407	3.06
431.764	3.04
432.12	3.04
432.476	3.03
432.832	3.05
433.189	3.05
433.545	3.06
433.901	3.08
434.257	3.08
434.613	3.07
434.969	3.07
435.325	3.08
435.681	3.1
436.036	3.09
436.392	3.09
436.748	3.1
437.104	3.11
437.459	3.08
437.815	3.06
438.171	3.08
438.526	3.08
438.882	3.08
439.237	3.09
439.593	3.08
439.948	3.09
440.304	3.09
440.659	3.1
441.014	3.09
441.369	3.08
441.725	3.08
442.08	3.07
442.435	3.05
442.79	3.04
443.145	3.01
443.5	3.01
443.855	3
444.21	2.99
444.565	2.98
444.92	2.98
445.275	2.99
445.629	2.97
445.984	2.97
446.339	2.97
446.693	2.97
447.048	2.98
447.403	2.97
447.757	2.94
448.112	2.93
448.466	2.94
448.82	2.94
449.175	2.95
449.529	2.97
449.883	2.96
450.238	2.96
450.592	2.98
450.946	2.98
451.3	2.97
451.654	2.97
452.008	2.98
452.362	2.99
452.716	3
453.07	3.01
453.424	2.99
453.778	2.99
454.132	2.98
454.486	2.99
454.839	2.97
455.193	2.99
455.547	3
455.9	2.98
456.254	2.99
456.607	2.99
456.961	2.96
457.314	2.97
457.668	2.98
458.021	2.96
458.375	2.96
458.728	2.98
459.081	3
459.434	3
459.787	3.01
460.141	3
460.494	3.02
460.847	3.04
461.2	3.08
461.553	3.09
461.906	3.09
462.259	3.1
462.611	3.11
462.964	3.11
463.317	3.14
463.67	3.16
464.022	3.18
464.375	3.21
464.728	3.23
465.08	3.23
465.433	3.25
465.785	3.28
466.138	3.3
466.49	3.31
466.843	3.33
467.195	3.34
467.547	3.36
467.899	3.33
468.252	3.35
468.604	3.33
468.956	3.35
469.308	3.35
469.66	3.39
470.012	3.39
470.364	3.4
470.716	3.42
471.068	3.44
471.42	3.44
471.772	3.45
472.123	3.46
472.475	3.48
472.827	3.52
473.178	3.54
473.53	3.53
473.882	3.55
474.233	3.55
474.585	3.55
474.936	3.56
475.288	3.55
475.639	3.54
475.99	3.54
476.342	3.54
476.693	3.54
477.044	3.52
477.395	3.51
477.746	3.48
478.097	3.48
478.448	3.43
478.8	3.4
479.15	3.37
479.501	3.32
479.852	3.31
480.203	3.26
480.554	3.23
480.905	3.2
481.255	3.18
481.606	3.15
481.957	3.13
482.307	3.11
482.658	3.1
483.009	3.08
483.359	3.07
483.709	3.06
484.06	3.05
484.41	3.04
484.761	3.04
485.111	3.04
485.461	3.03
485.811	3.03
486.162	3.04
486.512	3.03
486.862	3.04
487.212	3.04
487.562	3.04
487.912	3.04
488.262	3.04
488.612	3.05
488.961	3.06
489.311	3.07
489.661	3.08
490.011	3.1
490.36	3.11
490.71	3.12
491.06	3.13
491.409	3.14
491.759	3.17
492.108	3.19
492.458	3.21
492.807	3.23
493.157	3.26
493.506	3.29
493.855	3.31
494.204	3.34
494.554	3.37
494.903	3.39
495.252	3.44
495.601	3.48
495.95	3.51
496.299	3.56
496.648	3.63
496.997	3.66
497.346	3.71
497.695	3.77
498.043	3.81
498.392	3.87
498.741	3.93
499.09	3.99
499.438	4.03
499.787	4.07
500.135	4.15
500.484	4.2
500.832	4.27
501.181	4.35
501.529	4.44
501.878	4.49
502.226	4.59
502.574	4.67
502.923	4.76
503.271	4.87
503.619	4.97
503.967	5.04
504.315	5.14
504.663	5.22
505.011	5.32
505.359	5.41
505.707	5.53
506.055	5.65
506.403	5.74
506.751	5.87
507.098	6.01
507.446	6.13
507.794	6.26
508.141	6.38
508.489	6.52
508.837	6.63
509.184	6.82
509.531	6.94
509.879	7.09
510.226	7.24
510.574	7.39
510.921	7.53
511.268	7.71
511.616	7.89
511.963	8.09
512.31	8.28
512.657	8.47
513.004	8.64
513.351	8.8
513.698	9
514.045	9.17
514.392	9.34
514.739	9.53
515.086	9.75
515.432	9.95
515.779	10.13
516.126	10.35
516.473	10.55
516.819	10.74
517.166	10.94
517.512	11.14
517.859	11.32
518.205	11.54
518.552	11.71
518.898	11.93
519.245	12.15
519.591	12.35
519.937	12.56
520.283	12.81
520.629	13.02
520.976	13.26
521.322	13.51
521.668	13.72
522.014	13.98
522.36	14.16
522.706	14.36
523.052	14.56
523.398	14.72
523.743	14.83
524.089	14.98
524.435	15.06
524.781	15.17
525.126	15.24
525.472	15.3
525.817	15.35
526.163	15.39
526.509	15.43
526.854	15.5
527.199	15.59
527.545	15.68
527.89	15.79
528.235	15.91
528.581	16.02
528.926	16.13
529.271	16.25
529.616	16.42
529.961	16.57
530.306	16.73
530.651	16.92
530.996	17.15
531.341	17.36
531.686	17.63
532.031	17.88
532.376	18.17
532.721	18.46
533.065	18.81
533.41	19.15
533.755	19.52
534.099	19.87
534.444	20.19
534.788	20.51
535.133	20.84
535.477	21.17
535.822	21.5
536.166	21.87
536.51	22.21
536.855	22.48
537.199	22.77
537.543	23.07
537.887	23.35
538.231	23.62
538.576	23.88
538.92	24.13
539.264	24.35
539.608	24.56
539.951	24.76
540.295	24.98
540.639	25.19
540.983	25.39
541.327	25.61
541.671	25.86
542.014	26.09
542.358	26.31
542.701	26.55
543.045	26.82
543.389	27.1
543.732	27.38
544.075	27.76
544.419	28.17
544.762	28.61
545.105	29.11
545.449	29.67
545.792	30.29
546.135	30.88
546.478	31.56
546.821	32.27
547.165	33.02
547.508	33.67
547.851	34.37
548.194	35.01
548.536	35.67
548.879	36.31
549.222	36.94
549.565	37.56
549.908	38.16
550.25	38.74
550.593	39.34
550.936	39.97
551.278	40.56
551.621	41.13
551.963	41.68
552.306	42.21
552.648	42.66
552.991	43.1
553.333	43.54
553.675	43.96
554.017	44.31
554.36	44.67
554.702	45.05
555.044	45.41
555.386	45.81
555.728	46.18
556.07	46.52
556.412	46.93
556.754	47.34
557.096	47.74
557.438	48.17
557.78	48.55
558.121	48.93
558.463	49.19
558.805	49.52
559.147	49.83
559.488	50.04
559.83	50.27
560.171	50.49
560.513	50.68
560.854	50.81
561.196	51
561.537	51.08
561.878	51.12
562.22	51.12
562.561	51.16
562.902	51.1
563.243	51.06
563.584	51.02
563.925	51.06
564.266	51.03
564.607	51.02
564.948	51.03
565.289	51.01
565.63	51.04
565.971	51.07
566.312	51.03
566.653	51.06
566.993	51.06
567.334	51
567.675	51.01
568.015	51.01
568.356	51.01
568.696	51.06
569.037	51.08
569.377	51.12
569.718	51.14
570.058	51.23
570.398	51.41
570.739	51.47
571.079	51.48
571.419	51.53
571.759	51.6
572.099	51.62
572.439	51.68
572.779	51.83
573.119	51.91
573.459	52.09
573.799	52.22
574.139	52.42
574.479	52.65
574.819	52.89
575.158	53.12
575.498	53.4
575.838	53.74
576.177	54.13
576.517	54.6
576.856	55.01
577.196	55.44
577.535	55.89
577.875	56.41
578.214	56.91
578.553	57.46
578.893	58
579.232	58.56
579.571	59.18
579.91	59.65
580.25	60.18
580.589	60.67
580.928	61.11
581.267	61.55
581.606	61.98
581.945	62.33
582.283	62.74
582.622	63.11
582.961	63.36
583.3	63.56
583.639	63.67
583.977	63.83
584.316	64.06
584.654	64.07
584.993	64.18
585.332	64.2
585.67	64.14
586.008	64.01
586.347	63.95
586.685	63.81
587.024	63.75
587.362	63.64
587.7	63.49
588.038	63.48
588.376	63.37
588.715	63.32
589.053	63.33
589.391	63.25
589.729	63.15
590.067	63.03
590.404	62.95
590.742	62.89
591.08	62.86
591.418	62.75
591.756	62.54
592.093	62.31
592.431	62.2
592.769	62.02
593.106	61.99
593.444	61.81
593.781	61.7
594.119	61.54
594.456	61.43
594.793	61.25
595.131	61.08
595.468	61.07
595.805	61.06
596.143	61.05
596.48	61.09
596.817	61.16
597.154	61.29
597.491	61.44
597.828	61.57
598.165	61.62
598.502	61.63
598.839	61.82
599.176	61.96
599.512	61.93
599.849	62.05
600.186	61.93
600.523	61.93
600.859	61.87
601.196	61.75
601.532	61.59
601.869	61.56
602.205	61.42
602.542	61.23
602.878	61.21
603.215	61.05
603.551	60.91
603.887	60.79
604.223	60.63
604.56	60.4
604.896	60.25
605.232	60.12
605.568	60.03
605.904	59.95
606.24	59.91
606.576	59.9
606.912	59.91
607.248	60.09
607.583	60.24
607.919	60.35
608.255	60.63
608.591	60.88
608.926	61.24
609.262	61.67
609.597	61.99
609.933	62.11
610.268	62.42
610.604	62.75
610.939	63
611.275	63.24
611.61	63.66
611.945	64.03
612.281	64.37
612.616	64.82
612.951	65.21
613.286	65.62
613.621	66.13
613.956	66.6
614.291	67.07
614.626	67.45
614.961	67.96
615.296	68.32
615.631	68.82
615.966	69.01
616.3	69.22
616.635	69.43
616.97	69.64
617.304	69.8
617.639	69.84
617.973	69.97
618.308	70.22
618.642	70.16
618.977	70.16
619.311	70.23
619.646	70.31
619.98	70.41
620.314	70.41
620.648	70.41
620.983	70.32
621.317	70.08
621.651	69.98
621.985	69.77
622.319	69.5
622.653	69.15
622.987	68.79
623.321	68.47
623.655	68.18
623.988	67.88
624.322	67.47
624.656	67.2
624.99	66.89
625.323	66.64
625.657	66.43
625.99	66.22
626.324	66.02
626.657	65.83
626.991	65.6
627.324	65.46
627.658	65.38
627.991	65.45
628.324	65.49
628.657	65.59
628.991	65.65
629.324	65.79
629.657	65.97
629.99	66.26
630.323	66.53
630.656	66.68
630.989	66.88
631.322	67.16
631.655	67.34
631.987	67.42
632.32	67.51
632.653	67.76
632.986	67.84
633.318	68.01
633.651	68.09
633.984	68.32
634.316	68.49
634.649	68.66
634.981	68.73
635.313	68.93
635.646	69.04
635.978	69.17
636.31	69.26
636.643	69.4
636.975	69.45
637.307	69.6
637.639	69.96
637.971	70.23
638.303	70.38
638.635	70.73
638.967	71.08
639.299	71.31
639.631	71.48
639.963	71.87
640.295	72.1
640.626	72.42
640.958	72.59
641.29	72.77
641.621	72.92
641.953	72.95
642.285	72.96
642.616	72.89
642.948	73.01
643.279	73.04
643.61	73.12
643.942	73.13
644.273	72.99
644.604	72.82
644.936	72.84
645.267	72.8
645.598	72.62
645.929	72.54
646.26	72.35
646.591	72.29
646.922	71.99
647.253	71.81
647.584	71.55
647.915	71.39
648.245	71.15
648.576	70.95
648.907	70.8
649.238	70.6
649.568	70.61
649.899	70.44
650.229	70.22
650.56	70.21
650.89	70.16
651.221	70.04
651.551	69.96
651.882	69.79
652.212	69.77
652.542	69.75
652.872	69.59
653.203	69.44
653.533	69.18
653.863	69.08
654.193	68.82
654.523	68.49
654.853	68.25
655.183	68.08
655.513	67.83
655.843	67.48
656.172	67.25
656.502	66.91
656.832	66.57
657.162	66.3
657.491	65.88
657.821	65.59
658.15	65.45
658.48	65.29
658.809	65.1
659.139	65.06
659.468	65.01
659.798	65.16
660.127	65.38
660.456	65.52
660.785	65.68
661.115	65.9
661.444	66.21
661.773	66.53
662.102	66.91
662.431	67.2
662.76	67.59
663.089	68.05
663.418	68.44
663.747	68.84
664.076	69.28
664.404	69.71
664.733	70.11
665.062	70.33
665.39	70.46
665.719	70.67
666.048	70.61
666.376	70.5
666.705	70.4
667.033	70.27
667.362	70.18
667.69	70.11
668.018	70.03
668.347	69.93
668.675	69.69
669.003	69.53
669.331	69.53
669.659	69.34
669.987	69.27
670.315	69.22
670.643	69.25
670.971	69.35
671.299	69.27
671.627	69.12
671.955	69.08
672.283	69.29
672.61	69.41
672.938	69.39
673.266	69.38
673.593	69.43
673.921	69.5
674.249	69.38
674.576	69.3
674.904	69.12
675.231	69.05
675.558	68.79
675.886	68.48
676.213	68.21
676.54	68.06
676.867	67.57
677.195	67.27
677.522	66.92
677.849	66.43
678.176	66
678.503	65.83
678.83	65.67
679.157	65.35
679.484	65.05
679.81	64.85
680.137	64.68
680.464	64.48
680.791	64.25
681.117	64.19
681.444	64.13
681.771	64.07
682.097	63.97
682.424	63.75
682.75	63.73
683.077	63.66
683.403	63.62
683.729	63.53
684.056	63.21
684.382	63.14
684.708	63.07
685.034	63.1
685.36	62.94
685.686	62.74
686.012	62.46
686.339	62.24
686.664	62.13
686.99	62.1
687.316	61.91
687.642	61.81
687.968	61.76
688.294	61.52
688.619	61.6
688.945	61.49
689.271	61.74
689.596	61.77
689.922	61.83
690.247	61.88
690.573	62
690.898	62.43
691.224	62.67
691.549	63.15
691.874	63.4
692.2	63.65
692.525	63.9
692.85	64.34
693.175	64.58
693.5	64.6
693.825	64.54
694.15	64.59
694.475	64.11
694.8	63.7
695.125	63.59
695.45	63.2
695.775	62.83
696.099	62.3
696.424	61.91
696.749	61.52
697.073	61.13
697.398	60.93
697.723	60.54
698.047	60.18
698.372	59.91
698.696	59.76
699.02	59.79
699.345	59.58
699.669	59.51
699.993	59.67
700.318	59.84
700.642	59.98
700.966	59.94
701.29	60.47
701.614	60.88
701.938	61.32
702.262	61.78
702.586	62.41
702.91	63.07
703.234	63.47
703.557	64.03
703.881	64.69
704.205	65.14
704.529	65.71
704.852	66.12
705.176	66.32
705.499	66.3
705.823	66.25
706.146	66.38
706.47	66.17
706.793	65.9
707.117	65.75
707.44	65.79
707.763	65.74
708.086	65.29
708.409	65.09
708.733	64.66
709.056	64.29
709.379	63.92
709.702	63.82
710.025	63.83
710.348	63.65
710.671	63.6
710.993	63.43
711.316	63.22
711.639	63.05
711.962	62.85
712.284	62.91
712.607	62.76
712.93	62.81
713.252	62.59
713.575	62.53
713.897	62.2
714.22	61.81
714.542	61.65
714.864	61.66
715.187	61.44
715.509	61.54
715.831	61.4
716.153	61.33
716.475	61.13
716.798	60.97
717.12	60.86
717.442	60.63
717.764	60.61
718.085	60.42
718.407	60.51
718.729	60.54
719.051	60.62
719.373	60.8
719.695	60.72
720.016	60.87
720.338	60.91
720.659	61.15
720.981	61.47
721.302	61.67
721.624	61.71
721.945	61.98
722.267	61.76
722.588	61.83
722.909	61.95
723.231	62.03
723.552	61.7
723.873	61.69
724.194	61.6
724.515	61.63
724.836	61.69
725.157	61.31
725.478	61.17
725.799	60.87
726.12	60.74
726.441	60.56
726.762	60.3
727.083	60.04
727.403	60.06
727.724	59.47
728.045	59.28
728.365	59.12
728.686	58.86
729.006	58.59
729.327	58.71
729.647	58.4
729.967	58.06
730.288	58.3
730.608	58.06
730.928	57.9
731.249	57.81
731.569	57.73
731.889	58.02
732.209	57.94
732.529	57.91
732.849	57.73
733.169	57.62
733.489	57.92
733.809	58
734.129	58
734.448	58.42
734.768	58.82
735.088	59.03
735.408	59.28
735.727	59.55
736.047	59.41
736.366	59.75
736.686	60.08
737.005	60
737.325	60.33
737.644	60.61
737.963	60.82
738.283	61.11
738.602	61.11
738.921	61.7
739.24	62.09
739.56	62.23
739.879	62.51
740.198	62.36
740.517	62.54
740.836	62.36
741.155	62.25
741.473	62.15
741.792	62.16
742.111	61.98
742.43	62.29
742.748	62.6
743.067	62.82
743.386	62.92
743.704	63.07
744.023	63.08
744.341	63.02
744.66	62.85
744.978	63.17
745.297	63.17
745.615	63.21
745.933	63.22
746.252	63.23
746.57	63.23
746.888	63.17
747.206	63.12
747.524	63.22
747.842	63.48
748.16	63.41
748.478	63.41
748.796	63.37
749.114	63.19
749.432	62.86
749.749	62.67
750.067	62.45
750.385	62.51
750.703	62.35
751.02	62.27
751.338	62.44
751.655	61.76
751.973	61.81
752.29	61.36
752.608	61.32
752.925	61.06
753.242	61.01
753.56	61.12
753.877	60.82
754.194	60.95
754.511	60.4
754.828	60.28
755.145	60.17
755.462	60.47
755.779	60.17
756.096	59.73
756.413	58.96
756.73	58.4
757.047	57.49
757.364	57.07
757.68	56.5
757.997	55.64
758.314	55.21
758.63	54.72
758.947	53.56
759.264	52.37
759.58	51.64
759.896	50.53
760.213	49.86
760.529	49.21
760.846	48.43
761.162	48.09
761.478	47.31
761.794	47.02
762.11	46.32
762.426	45.79
762.743	45.67
763.059	45.67
763.375	45.89
763.69	46.15
764.006	46.4
764.322	46.5
764.638	46.76
764.954	47.02
765.27	47.08
765.585	47.74
765.901	48.44
766.216	48.95
766.532	49.85
766.848	50.19
767.163	50.78
767.478	51.43
767.794	51.8
768.109	52.76
768.424	53.32
768.74	54.28
769.055	55.36
769.37	56.11
769.685	56.84
770	57.2
770.315	57.94
770.63	57.95
770.945	58.66
771.26	59.23
771.575	59.53
771.89	60.24
772.205	60.67
772.52	60.73
772.834	60.99
773.149	61.14
773.464	61.56
773.778	61.32
774.093	61.54
774.407	62.17
774.722	62.3
775.036	62.29
775.351	62.03
775.665	61.88
775.979	61.94
776.293	62.04
776.608	62
776.922	61.66
777.236	61.81
777.55	61.31
777.864	61.4
778.178	61.65
778.492	61.16
778.806	60.89
779.12	60.24
779.434	60.3
779.747	59.97
780.061	59.89
780.375	60.08
780.689	59.94
781.002	59.29
781.316	58.98
781.629	58.6
781.943	58.51
782.256	58.96
782.57	58.61
782.883	58.6
783.196	58.93
783.51	58.87
783.823	58.93
784.136	59.45
784.449	59.05
784.762	58.64
785.075	58.37
785.388	58.11
785.701	58.44
786.014	58.1
786.327	57.84
786.64	57.48
786.953	57.43
787.266	57.58
787.578	57.74
787.891	57.6
788.204	57.9
788.516	58.22
788.829	57.83
789.141	58.1
789.454	58.14
789.766	57.19
790.079	57.47
790.391	57.11
790.703	56.87
791.016	57.16
791.328	57.11
791.64	57.49
791.952	58.04
792.264	57.86
792.576	57.55
792.888	57.29
793.2	57.5
793.512	57.16
793.824	56.83
794.136	56.67
794.448	56.92
794.76	56.06
795.071	55.91
795.383	55.49
795.695	55.14
796.006	54.93
796.318	55.44
796.629	54.61
796.941	54.44
797.252	53.92
797.564	53.32
797.875	53.29
798.186	52.99
798.497	52.4
798.809	52.2
799.12	52.56
799.431	52.86
799.742	52.67
800.053	53.18
800.364	52.57
800.675	52.53
800.986	52.22
801.297	52.65
801.608	52.43
801.918	52.65
802.229	53
802.54	52.45
802.851	52.15
803.161	52.02
803.472	52.8
803.782	53.39
804.093	53.19
804.403	52.82
804.714	52.57
805.024	52.95
805.334	53.76
805.645	54.03
805.955	53.74
806.265	53.86
806.575	53.16
806.885	53.97
807.195	54.76
807.505	54.88
807.815	54.7
808.125	54.33
808.435	53.8
808.745	53.46
809.055	53.57
809.365	53.93
809.674	54.2
809.984	53.96
810.294	53.55
810.603	53.95
810.913	53.85
811.222	53.95
811.532	53.43
811.841	53.42
812.151	53.43
812.46	53.74
812.769	53.28
813.079	53.13
813.388	52.01
813.697	50.47
814.006	50.79
814.315	50.43
814.624	50.48
814.933	50.89
815.242	50.66
815.551	50.28
815.86	49.55
816.169	49.35
816.478	48.55
816.786	48.32
817.095	48.01
817.404	47.94
817.712	47.4
818.021	46.73
818.33	45.79
818.638	45.12
818.947	44.12
819.255	43.74
819.563	43.32
819.872	43.14
820.18	42.87
820.488	41.95
820.796	41.59
821.105	41.18
821.413	40.75
821.721	40.53
822.029	40.34
822.337	40.35
822.645	40.18
822.953	40.11
823.26	40.27
823.568	40.21
823.876	40.22
824.184	40.18
824.491	40.28
824.799	40.14
825.107	40.03
825.414	40.06
825.722	40.05
826.029	40.05
826.337	39.99
826.644	40.1
826.951	40.08
827.259	40.15
827.566	40.3
827.873	40.51
828.18	40.72
828.488	41.22
828.795	41.36
829.102	41.34
829.409	41.24
829.716	41.11
830.023	41.03
830.329	41.24
830.636	41.32
830.943	41.39
831.25	41.61
831.557	41.41
831.863	41.46
832.17	41.39
832.476	41.52
832.783	41.45
833.089	40.73
833.396	41.43
833.702	41.79
834.009	41.83
834.315	41.99
834.621	41.96
834.928	41.46
835.234	40.92
835.54	41.26
835.846	41.51
836.152	41.65
836.458	41.87
836.764	41.45
837.07	41.89
837.376	41.09
837.682	40.67
837.988	41.03
838.293	41.09
838.599	40.97
838.905	41.16
839.211	41.41
839.516	42.4
839.822	41.4
840.127	41.2
840.433	41.61
840.738	40.87
841.044	41.46
841.349	41.96
841.654	42.85
841.959	43.33
842.265	43.76
842.57	42.95
842.875	43.24
843.18	43.13
843.485	42.14
843.79	43.29
844.095	45.01
844.4	45.44
844.705	45.51
845.01	46.91
845.315	47.06
845.619	48.8
845.924	47.64
846.229	48.85
846.533	49.39
846.838	48.03
847.142	49.29
847.447	47.62
847.751	45.51
848.056	44.92
848.36	44.05
848.664	44.62
848.969	47.15
849.273	47.31
849.577	49.5
849.881	49.53
850.185	50.53
850.489	49.93
850.794	46.82
851.097	47.22
851.401	45.58
851.705	45.78
852.009	44.51
852.313	46.44
852.617	45.5
852.92	45.25
853.224	47.68
853.528	48.36
853.831	50.14
854.135	52.31
854.438	52.85
854.742	56.23
855.045	54.51
855.349	51.9
855.652	51.98
855.955	49.49
856.259	49.58
856.562	49.48
856.865	48.47
857.168	51.31
857.471	51.5
857.774	52.06
858.077	53.82
858.38	54.06
858.683	54.23
858.986	56.06
859.289	55.65
859.592	53.32
859.894	49.97
860.197	49.33
860.5	48.83
860.802	51.61
861.105	50.77
861.407	50.86
861.71	50.49
862.012	49.72
862.315	51.95
862.617	51.68
862.919	49.86
863.222	49.45
863.524	50.37
863.826	49.08
864.128	51.37
864.43	49.34
864.732	49.57
865.034	48.55
865.336	46.64
865.638	47
865.94	46.5
866.242	50.74
866.544	49.54
866.846	48.48
867.147	46.79
867.449	47.09
867.751	47.66
868.052	48.99
868.354	51.16
868.655	50.75
868.957	51.41
869.258	49.52
869.56	50.34
869.861	49.3
870.162	53.21
870.463	49.67
870.765	47.12
871.066	45.66
871.367	46.07
871.668	46.78
871.969	46.58
872.27	48.17
872.571	48.77
872.872	49.5
873.173	49.93
873.473	49.14
873.774	48.82
874.075	48.19
874.376	46.66
874.676	46.79
874.977	47
875.277	44.56
875.578	49.6
875.878	49.5
876.179	49.94
876.479	46.34
876.78	47.65
877.08	50.75
877.38	52.1
877.68	52.58
877.981	53.78
878.281	54.18
878.581	54.44
