Data from MVZ_BU88648_Reflection_00014.txt Node
Date: Tue Nov 19 12:02:18 EST 2019
User: vgr7
Spectrometer: USB2G7710
Scans to average: 3
Trigger mode: 4
Integration Time (sec): 2.000000E-2
Electric dark correction enabled: true
Boxcar width: 10
XAxis mode: Wavelengths
Number of Pixels in Spectrum: 2048
>>>>>Begin Spectral Data<<<<<
177.721	960.29
178.105	172.29
178.488	139.28
178.871	480.77
179.254	209.62
179.636	708.11
180.019	143.63
180.402	250
180.785	26.74
181.168	-73.08
181.55	-154.46
181.933	287.5
182.316	-449.11
182.698	-377.27
183.081	-108.63
183.463	-138.75
183.846	-148.42
184.228	-125.2
184.611	-152.93
184.993	-57.98
185.376	-87.02
185.758	-80.59
186.14	-110.76
186.522	-78.49
186.904	-85.38
187.287	-150.75
187.669	-68.26
188.051	-67.59
188.433	-29.35
188.815	-14.37
189.197	-25.22
189.579	-23.84
189.961	-38.84
190.342	-20.97
190.724	-12.71
191.106	-24.42
191.488	-25.22
191.869	1.75
192.251	11.22
192.633	27.37
193.014	26.88
193.396	1.45
193.777	22.24
194.159	6.06
194.54	-14.3
194.922	-11.17
195.303	-29.61
195.684	-35.52
196.065	-64.96
196.447	-42.96
196.828	-126.24
197.209	-61.58
197.59	-37.32
197.971	-26.22
198.352	-18.78
198.733	-37.8
199.114	-47.36
199.495	-22.98
199.876	-91.35
200.257	-155.57
200.638	-68.93
201.018	-55.94
201.399	-37.94
201.78	-53.82
202.16	-55.51
202.541	-32.6
202.922	-26.66
203.302	-13.08
203.683	-30.31
204.063	-28.89
204.444	-18.54
204.824	-8.53
205.204	-3.8
205.585	-3.63
205.965	1.09
206.345	4.01
206.725	29.96
207.106	54.94
207.486	35.62
207.866	38.05
208.246	46.92
208.626	31.56
209.006	34.38
209.386	24.88
209.766	37.28
210.145	54.57
210.525	44.63
210.905	46.57
211.285	40.07
211.664	51.25
212.044	50.78
212.424	49.59
212.803	42.08
213.183	43.56
213.562	42.7
213.942	44.25
214.321	31.38
214.701	24.58
215.08	11.74
215.459	25.38
215.838	20.04
216.218	14.99
216.597	25.33
216.976	25.29
217.355	40.76
217.734	44.35
218.113	37.46
218.492	31.24
218.871	33.71
219.25	44.58
219.629	33.62
220.008	44.18
220.387	44.82
220.766	52.5
221.144	47.04
221.523	41.16
221.902	25.57
222.28	32.95
222.659	44.07
223.037	36.3
223.416	29.25
223.794	37.45
224.173	33.17
224.551	35.42
224.929	21.64
225.308	10.37
225.686	2.42
226.064	-0.13
226.442	1.24
226.821	0.51
227.199	-1.61
227.577	3.62
227.955	0.37
228.333	-2.63
228.711	-2.18
229.089	0.48
229.467	-0.71
229.845	2.56
230.222	1.58
230.6	-2.36
230.978	-0.46
231.356	-0.56
231.733	2.07
232.111	1.76
232.488	2.02
232.866	4.99
233.243	6.05
233.621	7.31
233.998	7.95
234.376	7.7
234.753	6.41
235.13	3.96
235.508	3.66
235.885	4.95
236.262	4.57
236.639	2.89
237.016	2.32
237.393	4.02
237.77	4.58
238.147	4.65
238.524	5.56
238.901	5.43
239.278	5.61
239.655	4.82
240.032	5.05
240.409	3.59
240.785	3.72
241.162	3.76
241.539	3.25
241.915	2.59
242.292	3.09
242.668	3.53
243.045	3.83
243.421	4.03
243.798	3.99
244.174	4.29
244.551	4.63
244.927	4.33
245.303	4.08
245.679	4.21
246.056	4.28
246.432	4.09
246.808	4.2
247.184	4.01
247.56	3.69
247.936	3.77
248.312	4.17
248.688	3.92
249.064	3.9
249.44	3.92
249.815	4.29
250.191	4.16
250.567	4.13
250.943	4.27
251.318	4.3
251.694	4.42
252.069	4.35
252.445	4.2
252.82	4.39
253.196	4.55
253.571	4.56
253.947	4.71
254.322	4.73
254.697	4.63
255.073	4.79
255.448	5.16
255.823	5.21
256.198	4.95
256.573	5.17
256.948	4.94
257.323	4.87
257.698	4.87
258.073	4.8
258.448	4.64
258.823	4.44
259.198	4.46
259.573	3.99
259.948	3.96
260.322	3.88
260.697	3.96
261.072	3.83
261.446	3.79
261.821	3.61
262.195	3.61
262.57	3.55
262.944	3.26
263.319	3.21
263.693	3.01
264.067	3.04
264.442	2.9
264.816	2.89
265.19	3.05
265.564	2.74
265.938	2.68
266.313	2.69
266.687	2.37
267.061	2.1
267.435	2.39
267.809	2.43
268.183	2.45
268.556	2.44
268.93	2.67
269.304	2.76
269.678	2.83
270.051	2.74
270.425	2.68
270.799	2.81
271.172	2.79
271.546	3.08
271.919	3.15
272.293	3.13
272.666	2.98
273.04	2.9
273.413	2.99
273.787	3.03
274.16	3.04
274.533	3.51
274.906	3.65
275.279	3.81
275.653	3.86
276.026	4.03
276.399	3.92
276.772	3.9
277.145	4
277.518	4.05
277.891	4.19
278.263	4.38
278.636	4.67
279.009	4.77
279.382	4.55
279.755	4.47
280.127	4.33
280.5	4.39
280.872	4.43
281.245	4.36
281.617	4.6
281.99	4.5
282.362	4.34
282.735	4.24
283.107	4.04
283.479	3.98
283.852	3.99
284.224	4.13
284.596	4.07
284.968	3.85
285.34	3.91
285.713	3.98
286.085	3.92
286.457	3.78
286.829	3.79
287.201	3.87
287.572	4.01
287.944	4.21
288.316	4.3
288.688	4.36
289.06	4.51
289.431	4.44
289.803	4.6
290.175	4.61
290.546	4.58
290.918	4.58
291.289	4.59
291.661	4.48
292.032	4.52
292.403	4.56
292.775	4.69
293.146	4.78
293.517	4.48
293.889	4.47
294.26	4.5
294.631	4.36
295.002	4.31
295.373	4.19
295.744	4.18
296.115	4.22
296.486	4.04
296.857	4.03
297.228	3.85
297.599	3.74
297.97	3.83
298.34	3.82
298.711	3.9
299.082	3.93
299.452	3.82
299.823	3.68
300.194	3.68
300.564	3.58
300.935	3.57
301.305	3.77
301.676	3.67
302.046	3.64
302.416	3.58
302.787	3.53
303.157	3.63
303.527	3.57
303.897	3.37
304.267	3.52
304.637	3.43
305.008	3.64
305.378	3.65
305.748	3.63
306.117	3.71
306.487	3.62
306.857	3.54
307.227	3.87
307.597	3.92
307.967	4.04
308.336	4.1
308.706	4.11
309.076	4.18
309.445	4.35
309.815	4.47
310.184	4.46
310.554	4.5
310.923	4.35
311.293	4.38
311.662	4.62
312.031	4.56
312.401	4.38
312.77	4.29
313.139	4.24
313.508	4.14
313.877	4.17
314.246	4.32
314.616	4.44
314.985	4.23
315.353	4.16
315.722	4.1
316.091	4.11
316.46	4.02
316.829	3.88
317.198	3.73
317.567	3.81
317.935	4.03
318.304	4.17
318.672	4.11
319.041	3.91
319.41	3.78
319.778	3.77
320.147	3.94
320.515	4.05
320.883	4.13
321.252	4.45
321.62	4.42
321.988	4.38
322.357	4.35
322.725	4.47
323.093	4.42
323.461	4.48
323.829	4.5
324.197	4.49
324.565	4.4
324.933	4.47
325.301	4.23
325.669	4.19
326.037	4.18
326.405	4.32
326.772	4.48
327.14	4.45
327.508	4.51
327.875	4.62
328.243	4.57
328.61	4.73
328.978	4.54
329.346	4.46
329.713	4.57
330.08	4.64
330.448	4.68
330.815	4.71
331.182	4.54
331.55	4.63
331.917	4.67
332.284	4.79
332.651	4.88
333.018	4.94
333.385	4.94
333.752	4.79
334.119	4.8
334.486	4.8
334.853	4.88
335.22	4.91
335.587	4.9
335.954	4.89
336.32	4.81
336.687	4.83
337.054	4.91
337.42	4.82
337.787	4.69
338.153	4.7
338.52	4.97
338.886	4.98
339.253	4.95
339.619	4.91
339.986	4.95
340.352	4.91
340.718	4.91
341.084	5
341.451	5.17
341.817	5.14
342.183	5.13
342.549	5.19
342.915	5.15
343.281	5.1
343.647	5.17
344.013	5.11
344.379	5.11
344.745	5.24
345.11	5.21
345.476	5.35
345.842	5.34
346.208	5.18
346.573	5.21
346.939	5.21
347.304	5.34
347.67	5.18
348.035	5.15
348.401	5.15
348.766	4.97
349.132	4.96
349.497	5.02
349.862	5.07
350.228	5.12
350.593	5.22
350.958	5.43
351.323	5.4
351.688	5.55
352.053	5.55
352.418	5.44
352.783	5.56
353.148	5.55
353.513	5.49
353.878	5.52
354.243	5.49
354.608	5.46
354.972	5.41
355.337	5.59
355.702	5.59
356.066	5.58
356.431	5.62
356.795	5.58
357.16	5.56
357.524	5.52
357.889	5.49
358.253	5.47
358.618	5.37
358.982	5.31
359.346	5.18
359.71	5.06
360.075	5.04
360.439	4.99
360.803	5.01
361.167	5.07
361.531	5.06
361.895	5.11
362.259	5.06
362.623	5
362.987	4.93
363.351	4.92
363.714	4.99
364.078	5.01
364.442	4.96
364.806	4.92
365.169	4.89
365.533	4.85
365.896	4.74
366.26	4.68
366.623	4.61
366.987	4.63
367.35	4.72
367.714	4.74
368.077	4.72
368.44	4.69
368.803	4.65
369.167	4.57
369.53	4.49
369.893	4.49
370.256	4.52
370.619	4.51
370.982	4.52
371.345	4.47
371.708	4.44
372.071	4.51
372.434	4.47
372.797	4.49
373.159	4.41
373.522	4.44
373.885	4.45
374.247	4.49
374.61	4.54
374.973	4.52
375.335	4.48
375.698	4.41
376.06	4.37
376.423	4.36
376.785	4.4
377.147	4.46
377.51	4.44
377.872	4.41
378.234	4.4
378.596	4.36
378.958	4.3
379.321	4.32
379.683	4.25
380.045	4.25
380.407	4.22
380.769	4.27
381.13	4.3
381.492	4.21
381.854	4.22
382.216	4.17
382.578	4.12
382.939	4.16
383.301	4.15
383.663	4.11
384.024	4.1
384.386	4.05
384.747	3.97
385.109	3.95
385.47	3.96
385.832	3.93
386.193	3.92
386.554	3.86
386.916	3.85
387.277	3.85
387.638	3.83
387.999	3.86
388.36	3.81
388.721	3.74
389.082	3.82
389.443	3.79
389.804	3.81
390.165	3.87
390.526	3.84
390.887	3.86
391.248	3.85
391.609	3.83
391.969	3.83
392.33	3.85
392.691	3.91
393.051	3.9
393.412	3.9
393.772	3.93
394.133	3.96
394.493	3.91
394.854	3.9
395.214	3.9
395.574	3.91
395.935	3.92
396.295	3.92
396.655	3.88
397.015	3.87
397.376	3.87
397.736	3.84
398.096	3.84
398.456	3.83
398.816	3.83
399.176	3.83
399.535	3.79
399.895	3.75
400.255	3.69
400.615	3.67
400.975	3.67
401.334	3.59
401.694	3.61
402.054	3.6
402.413	3.6
402.773	3.58
403.132	3.53
403.492	3.53
403.851	3.56
404.211	3.53
404.57	3.56
404.929	3.53
405.288	3.49
405.648	3.47
406.007	3.48
406.366	3.46
406.725	3.42
407.084	3.47
407.443	3.46
407.802	3.43
408.161	3.44
408.52	3.44
408.879	3.47
409.238	3.46
409.596	3.47
409.955	3.47
410.314	3.51
410.673	3.53
411.031	3.52
411.39	3.46
411.748	3.48
412.107	3.47
412.465	3.47
412.824	3.46
413.182	3.46
413.54	3.45
413.899	3.44
414.257	3.47
414.615	3.48
414.974	3.51
415.332	3.52
415.69	3.51
416.048	3.52
416.406	3.51
416.764	3.49
417.122	3.46
417.48	3.46
417.838	3.41
418.195	3.4
418.553	3.37
418.911	3.39
419.269	3.39
419.626	3.37
419.984	3.36
420.342	3.37
420.699	3.35
421.057	3.34
421.414	3.36
421.772	3.35
422.129	3.31
422.486	3.29
422.844	3.28
423.201	3.27
423.558	3.26
423.915	3.25
424.273	3.26
424.63	3.27
424.987	3.26
425.344	3.26
425.701	3.25
426.058	3.26
426.415	3.26
426.772	3.26
427.128	3.27
427.485	3.28
427.842	3.26
428.199	3.27
428.555	3.26
428.912	3.23
429.269	3.23
429.625	3.24
429.982	3.27
430.338	3.3
430.695	3.29
431.051	3.3
431.407	3.29
431.764	3.29
432.12	3.29
432.476	3.3
432.832	3.33
433.189	3.33
433.545	3.33
433.901	3.33
434.257	3.33
434.613	3.34
434.969	3.32
435.325	3.34
435.681	3.33
436.036	3.33
436.392	3.35
436.748	3.35
437.104	3.37
437.459	3.33
437.815	3.33
438.171	3.32
438.526	3.32
438.882	3.34
439.237	3.34
439.593	3.34
439.948	3.32
440.304	3.31
440.659	3.31
441.014	3.31
441.369	3.31
441.725	3.3
442.08	3.29
442.435	3.3
442.79	3.27
443.145	3.28
443.5	3.29
443.855	3.27
444.21	3.28
444.565	3.28
444.92	3.3
445.275	3.29
445.629	3.29
445.984	3.29
446.339	3.27
446.693	3.28
447.048	3.26
447.403	3.28
447.757	3.28
448.112	3.27
448.466	3.28
448.82	3.27
449.175	3.27
449.529	3.27
449.883	3.26
450.238	3.28
450.592	3.3
450.946	3.29
451.3	3.3
451.654	3.28
452.008	3.28
452.362	3.25
452.716	3.26
453.07	3.28
453.424	3.26
453.778	3.25
454.132	3.25
454.486	3.27
454.839	3.27
455.193	3.27
455.547	3.27
455.9	3.26
456.254	3.25
456.607	3.23
456.961	3.22
457.314	3.22
457.668	3.21
458.021	3.22
458.375	3.23
458.728	3.23
459.081	3.24
459.434	3.25
459.787	3.25
460.141	3.26
460.494	3.27
460.847	3.29
461.2	3.31
461.553	3.31
461.906	3.3
462.259	3.29
462.611	3.3
462.964	3.3
463.317	3.29
463.67	3.31
464.022	3.31
464.375	3.31
464.728	3.32
465.08	3.31
465.433	3.28
465.785	3.29
466.138	3.3
466.49	3.31
466.843	3.32
467.195	3.35
467.547	3.35
467.899	3.33
468.252	3.31
468.604	3.3
468.956	3.33
469.308	3.32
469.66	3.34
470.012	3.34
470.364	3.35
470.716	3.4
471.068	3.41
471.42	3.43
471.772	3.45
472.123	3.47
472.475	3.48
472.827	3.5
473.178	3.49
473.53	3.48
473.882	3.48
474.233	3.45
474.585	3.44
474.936	3.43
475.288	3.44
475.639	3.48
475.99	3.47
476.342	3.45
476.693	3.47
477.044	3.47
477.395	3.46
477.746	3.44
478.097	3.43
478.448	3.4
478.8	3.41
479.15	3.4
479.501	3.38
479.852	3.38
480.203	3.38
480.554	3.39
480.905	3.39
481.255	3.39
481.606	3.4
481.957	3.41
482.307	3.41
482.658	3.42
483.009	3.41
483.359	3.41
483.709	3.41
484.06	3.41
484.41	3.41
484.761	3.42
485.111	3.43
485.461	3.42
485.811	3.43
486.162	3.43
486.512	3.44
486.862	3.45
487.212	3.45
487.562	3.45
487.912	3.45
488.262	3.44
488.612	3.44
488.961	3.43
489.311	3.42
489.661	3.43
490.011	3.42
490.36	3.42
490.71	3.43
491.06	3.42
491.409	3.41
491.759	3.41
492.108	3.4
492.458	3.39
492.807	3.4
493.157	3.4
493.506	3.4
493.855	3.39
494.204	3.39
494.554	3.39
494.903	3.4
495.252	3.41
495.601	3.44
495.95	3.44
496.299	3.49
496.648	3.51
496.997	3.51
497.346	3.51
497.695	3.53
498.043	3.55
498.392	3.56
498.741	3.58
499.09	3.6
499.438	3.62
499.787	3.65
500.135	3.65
500.484	3.67
500.832	3.7
501.181	3.73
501.529	3.75
501.878	3.77
502.226	3.79
502.574	3.8
502.923	3.82
503.271	3.84
503.619	3.82
503.967	3.81
504.315	3.85
504.663	3.87
505.011	3.89
505.359	3.88
505.707	3.91
506.055	3.92
506.403	3.93
506.751	3.96
507.098	4
507.446	4.04
507.794	4.05
508.141	4.08
508.489	4.12
508.837	4.14
509.184	4.16
509.531	4.19
509.879	4.21
510.226	4.23
510.574	4.31
510.921	4.36
511.268	4.43
511.616	4.45
511.963	4.49
512.31	4.53
512.657	4.57
513.004	4.62
513.351	4.7
513.698	4.74
514.045	4.77
514.392	4.79
514.739	4.84
515.086	4.9
515.432	4.94
515.779	4.99
516.126	5.08
516.473	5.13
516.819	5.18
517.166	5.24
517.512	5.3
517.859	5.37
518.205	5.39
518.552	5.41
518.898	5.48
519.245	5.54
519.591	5.6
519.937	5.68
520.283	5.74
520.629	5.78
520.976	5.87
521.322	5.95
521.668	6.06
522.014	6.12
522.36	6.19
522.706	6.26
523.052	6.34
523.398	6.41
523.743	6.48
524.089	6.58
524.435	6.65
524.781	6.71
525.126	6.75
525.472	6.82
525.817	6.89
526.163	6.94
526.509	6.99
526.854	7.06
527.199	7.11
527.545	7.16
527.89	7.19
528.235	7.25
528.581	7.3
528.926	7.34
529.271	7.37
529.616	7.43
529.961	7.49
530.306	7.52
530.651	7.58
530.996	7.67
531.341	7.73
531.686	7.8
532.031	7.88
532.376	7.96
532.721	8.02
533.065	8.09
533.41	8.19
533.755	8.28
534.099	8.36
534.444	8.43
534.788	8.5
535.133	8.6
535.477	8.69
535.822	8.79
536.166	8.91
536.51	9.05
536.855	9.17
537.199	9.27
537.543	9.43
537.887	9.54
538.231	9.65
538.576	9.79
538.92	9.9
539.264	10.02
539.608	10.15
539.951	10.28
540.295	10.4
540.639	10.5
540.983	10.6
541.327	10.7
541.671	10.81
542.014	10.94
542.358	11.05
542.701	11.18
543.045	11.26
543.389	11.38
543.732	11.49
544.075	11.63
544.419	11.77
544.762	11.88
545.105	12.03
545.449	12.15
545.792	12.29
546.135	12.45
546.478	12.63
546.821	12.79
547.165	12.97
547.508	13.15
547.851	13.31
548.194	13.48
548.536	13.68
548.879	13.9
549.222	14.08
549.565	14.26
549.908	14.44
550.25	14.64
550.593	14.83
550.936	15.05
551.278	15.22
551.621	15.44
551.963	15.7
552.306	15.9
552.648	16.18
552.991	16.41
553.333	16.64
553.675	16.89
554.017	17.1
554.36	17.35
554.702	17.55
555.044	17.76
555.386	18
555.728	18.23
556.07	18.46
556.412	18.7
556.754	18.94
557.096	19.18
557.438	19.46
557.78	19.69
558.121	19.95
558.463	20.25
558.805	20.5
559.147	20.69
559.488	20.94
559.83	21.18
560.171	21.43
560.513	21.7
560.854	21.94
561.196	22.2
561.537	22.4
561.878	22.69
562.22	22.98
562.561	23.22
562.902	23.47
563.243	23.67
563.584	23.9
563.925	24.13
564.266	24.32
564.607	24.53
564.948	24.75
565.289	25
565.63	25.19
565.971	25.4
566.312	25.63
566.653	25.87
566.993	26.05
567.334	26.28
567.675	26.48
568.015	26.68
568.356	26.93
568.696	27.15
569.037	27.37
569.377	27.6
569.718	27.84
570.058	28.02
570.398	28.26
570.739	28.43
571.079	28.62
571.419	28.83
571.759	28.99
572.099	29.21
572.439	29.33
572.779	29.52
573.119	29.76
573.459	29.93
573.799	30.07
574.139	30.22
574.479	30.41
574.819	30.58
575.158	30.78
575.498	30.97
575.838	31.18
576.177	31.33
576.517	31.56
576.856	31.7
577.196	31.91
577.535	32.07
577.875	32.31
578.214	32.51
578.553	32.69
578.893	32.98
579.232	33.2
579.571	33.39
579.91	33.57
580.25	33.71
580.589	33.95
580.928	34.15
581.267	34.38
581.606	34.56
581.945	34.71
582.283	34.8
582.622	34.85
582.961	35
583.3	35.17
583.639	35.27
583.977	35.42
584.316	35.59
584.654	35.72
584.993	35.88
585.332	36.05
585.67	36.28
586.008	36.37
586.347	36.39
586.685	36.55
587.024	36.62
587.362	36.76
587.7	36.88
588.038	37
588.376	37.14
588.715	37.25
589.053	37.35
589.391	37.44
589.729	37.61
590.067	37.7
590.404	37.84
590.742	37.9
591.08	38.07
591.418	38.11
591.756	38.21
592.093	38.28
592.431	38.41
592.769	38.47
593.106	38.65
593.444	38.79
593.781	38.92
594.119	39.05
594.456	39.07
594.793	39.18
595.131	39.26
595.468	39.39
595.805	39.46
596.143	39.56
596.48	39.66
596.817	39.73
597.154	39.81
597.491	39.9
597.828	40.01
598.165	40.05
598.502	40.23
598.839	40.34
599.176	40.45
599.512	40.45
599.849	40.58
600.186	40.65
600.523	40.77
600.859	40.84
601.196	40.98
601.532	41.12
601.869	41.16
602.205	41.24
602.542	41.3
602.878	41.39
603.215	41.5
603.551	41.6
603.887	41.75
604.223	41.84
604.56	41.84
604.896	41.93
605.232	42.01
605.568	42.02
605.904	42.12
606.24	42.21
606.576	42.34
606.912	42.46
607.248	42.57
607.583	42.65
607.919	42.77
608.255	42.83
608.591	42.91
608.926	43.01
609.262	43.08
609.597	43.16
609.933	43.24
610.268	43.28
610.604	43.34
610.939	43.37
611.275	43.44
611.61	43.54
611.945	43.55
612.281	43.59
612.616	43.72
612.951	43.74
613.286	43.74
613.621	43.83
613.956	43.78
614.291	43.84
614.626	43.83
614.961	43.82
615.296	43.84
615.631	43.92
615.966	43.92
616.3	43.95
616.635	43.96
616.97	44
617.304	44.05
617.639	44.1
617.973	44.11
618.308	44.08
618.642	44.13
618.977	44.22
619.311	44.28
619.646	44.28
619.98	44.35
620.314	44.37
620.648	44.39
620.983	44.49
621.317	44.47
621.651	44.55
621.985	44.67
622.319	44.81
622.653	44.79
622.987	44.92
623.321	45.09
623.655	45.13
623.988	45.1
624.322	45.08
624.656	45.11
624.99	45.13
625.323	45.2
625.657	45.23
625.99	45.21
626.324	45.21
626.657	45.26
626.991	45.29
627.324	45.33
627.658	45.32
627.991	45.28
628.324	45.25
628.657	45.3
628.991	45.36
629.324	45.32
629.657	45.35
629.99	45.39
630.323	45.35
630.656	45.34
630.989	45.48
631.322	45.67
631.655	45.72
631.987	45.69
632.32	45.75
632.653	45.78
632.986	45.9
633.318	45.93
633.651	46
633.984	46.04
634.316	46.11
634.649	46.14
634.981	46.18
635.313	46.3
635.646	46.28
635.978	46.27
636.31	46.28
636.643	46.27
636.975	46.27
637.307	46.26
637.639	46.32
637.971	46.27
638.303	46.15
638.635	46.16
638.967	46.27
639.299	46.35
639.631	46.32
639.963	46.28
640.295	46.43
640.626	46.44
640.958	46.44
641.29	46.58
641.621	46.63
641.953	46.63
642.285	46.57
642.616	46.63
642.948	46.54
643.279	46.64
643.61	46.75
643.942	46.68
644.273	46.69
644.604	46.72
644.936	46.76
645.267	46.82
645.598	46.89
645.929	46.82
646.26	46.84
646.591	46.94
646.922	46.97
647.253	46.82
647.584	46.81
647.915	46.87
648.245	46.84
648.576	46.88
648.907	46.87
649.238	47.04
649.568	47.13
649.899	47.25
650.229	47.3
650.56	47.32
650.89	47.38
651.221	47.47
651.551	47.51
651.882	47.6
652.212	47.64
652.542	47.63
652.872	47.76
653.203	47.74
653.533	47.72
653.863	47.8
654.193	47.93
654.523	47.91
654.853	47.91
655.183	47.98
655.513	48.11
655.843	48.26
656.172	48.33
656.502	48.26
656.832	48.3
657.162	48.26
657.491	48.33
657.821	48.31
658.15	48.41
658.48	48.42
658.809	48.38
659.139	48.43
659.468	48.46
659.798	48.54
660.127	48.49
660.456	48.55
660.785	48.52
661.115	48.57
661.444	48.56
661.773	48.57
662.102	48.47
662.431	48.51
662.76	48.42
663.089	48.36
663.418	48.41
663.747	48.36
664.076	48.42
664.404	48.47
664.733	48.59
665.062	48.45
665.39	48.48
665.719	48.55
666.048	48.58
666.376	48.65
666.705	48.56
667.033	48.61
667.362	48.59
667.69	48.62
668.018	48.65
668.347	48.63
668.675	48.64
669.003	48.77
669.331	48.71
669.659	48.76
669.987	48.77
670.315	48.9
670.643	48.9
670.971	49
671.299	48.97
671.627	48.87
671.955	48.91
672.283	49
672.61	49.06
672.938	49.11
673.266	49.11
673.593	49.2
673.921	49.23
674.249	49.41
674.576	49.56
674.904	49.57
675.231	49.81
675.558	49.93
675.886	49.88
676.213	49.87
676.54	49.85
676.867	49.75
677.195	49.66
677.522	49.66
677.849	49.59
678.176	49.56
678.503	49.64
678.83	49.71
679.157	49.54
679.484	49.51
679.81	49.53
680.137	49.47
680.464	49.47
680.791	49.55
681.117	49.47
681.444	49.35
681.771	49.33
682.097	49.22
682.424	49.18
682.75	49.29
683.077	49.27
683.403	49.39
683.729	49.44
684.056	49.36
684.382	49.51
684.708	49.64
685.034	49.59
685.36	49.68
685.686	49.78
686.012	49.78
686.339	49.77
686.664	49.78
686.99	49.85
687.316	49.9
687.642	50.05
687.968	50.23
688.294	50.19
688.619	50.26
688.945	50.36
689.271	50.48
689.596	50.29
689.922	50.34
690.247	50.42
690.573	50.41
690.898	50.45
691.224	50.45
691.549	50.32
691.874	50.31
692.2	50.25
692.525	50.11
692.85	50.21
693.175	50.26
693.5	50.25
693.825	50.2
694.15	50.14
694.475	49.78
694.8	49.64
695.125	49.72
695.45	49.71
695.775	49.65
696.099	49.59
696.424	49.63
696.749	49.74
697.073	49.72
697.398	49.85
697.723	49.86
698.047	49.68
698.372	49.61
698.696	49.49
699.02	49.45
699.345	49.44
699.669	49.41
699.993	49.35
700.318	49.38
700.642	49.47
700.966	49.55
701.29	49.79
701.614	49.73
701.938	49.69
702.262	49.64
702.586	49.63
702.91	49.69
703.234	49.69
703.557	49.62
703.881	49.54
704.205	49.55
704.529	49.66
704.852	49.75
705.176	49.79
705.499	50.11
705.823	50.21
706.146	50.35
706.47	50.45
706.793	50.45
707.117	50.46
707.44	50.55
707.763	50.5
708.086	50.61
708.409	50.6
708.733	50.67
709.056	50.81
709.379	50.8
709.702	50.58
710.025	50.59
710.348	50.53
710.671	50.52
710.993	50.56
711.316	50.39
711.639	50.44
711.962	50.52
712.284	50.33
712.607	50.32
712.93	50.48
713.252	50.47
713.575	50.69
713.897	50.66
714.22	50.73
714.542	50.67
714.864	50.35
715.187	50.42
715.509	50.3
715.831	50.14
716.153	50.18
716.475	50.33
716.798	50.35
717.12	50.24
717.442	50.31
717.764	50.2
718.085	50.3
718.407	50.32
718.729	50.36
719.051	50.73
719.373	50.71
719.695	50.68
720.016	50.88
720.338	50.68
720.659	50.53
720.981	50.22
721.302	50.46
721.624	50.6
721.945	50.65
722.267	50.89
722.588	50.89
722.909	51.05
723.231	51.01
723.552	51.26
723.873	51.57
724.194	51.67
724.515	51.8
724.836	51.99
725.157	52.33
725.478	52.49
725.799	52.28
726.12	52.37
726.441	52.29
726.762	51.99
727.083	52.06
727.403	52.29
727.724	52.17
728.045	52.1
728.365	52.1
728.686	51.87
729.006	51.82
729.327	52.11
729.647	51.87
729.967	51.95
730.288	51.81
730.608	51.75
730.928	51.68
731.249	51.71
731.569	51.69
731.889	51.36
732.209	51.22
732.529	51.14
732.849	51.27
733.169	51.35
733.489	51.45
733.809	51.42
734.129	51.37
734.448	51.48
734.768	51.4
735.088	51.53
735.408	51.69
735.727	51.68
736.047	51.64
736.366	51.57
736.686	51.6
737.005	51.75
737.325	51.81
737.644	51.7
737.963	51.84
738.283	51.93
738.602	52.05
738.921	52.21
739.24	52.35
739.56	52.34
739.879	52
740.198	52.26
740.517	52.24
740.836	52.13
741.155	52.05
741.473	51.97
741.792	51.89
742.111	52.04
742.43	52.28
742.748	51.98
743.067	52.05
743.386	51.87
743.704	51.73
744.023	51.75
744.341	51.89
744.66	51.43
744.978	51.31
745.297	51.28
745.615	50.95
745.933	51.04
746.252	51.13
746.57	51.35
746.888	51.5
747.206	51.5
747.524	51.57
747.842	51.68
748.16	51.71
748.478	51.7
748.796	51.5
749.114	51.26
749.432	51.62
749.749	51.77
750.067	52.13
750.385	52.17
750.703	52.05
751.02	51.85
751.338	51.93
751.655	51.73
751.973	51.65
752.29	51.56
752.608	51.55
752.925	51.24
753.242	51.43
753.56	51
753.877	50.95
754.194	51.22
754.511	51.27
754.828	51.35
755.145	51.46
755.462	51.48
755.779	51.46
756.096	51.47
756.413	51.35
756.73	51.32
757.047	51.34
757.364	51.53
757.68	51.97
757.997	52.67
758.314	53.22
758.63	52.87
758.947	53.14
759.264	53.37
759.58	53.39
759.896	53.28
760.213	53.61
760.529	53.74
760.846	53.57
761.162	53.38
761.478	53.37
761.794	53.5
762.11	53.62
762.426	53.57
762.743	53.24
763.059	53.33
763.375	53.33
763.69	53.44
764.006	53.21
764.322	53.3
764.638	53.06
764.954	52.69
765.27	53.08
765.585	52.97
765.901	52.8
766.216	52.56
766.532	52.31
766.848	52
767.163	51.73
767.478	51.52
767.794	51.73
768.109	51.48
768.424	51.51
768.74	51.12
769.055	51.36
769.37	51.61
769.685	51.69
770	51.47
770.315	51.05
770.63	51
770.945	50.57
771.26	50.37
771.575	50.28
771.89	50.2
772.205	50.32
772.52	49.98
772.834	50.06
773.149	50.16
773.464	50.09
773.778	50.44
774.093	50.95
774.407	50.95
774.722	51.13
775.036	50.45
775.351	50.71
775.665	50.7
775.979	50.72
776.293	50.75
776.608	50.62
776.922	51.07
777.236	51.52
777.55	51.63
777.864	51.26
778.178	51.63
778.492	51.91
778.806	52.24
779.12	52.07
779.434	52.84
779.747	53.33
780.061	53.74
780.375	53.67
780.689	53.35
781.002	53.34
781.316	53.71
781.629	54.42
781.943	54.99
782.256	54.52
782.57	54.32
782.883	54.32
783.196	54.38
783.51	54.26
783.823	53.59
784.136	53.39
784.449	53.77
784.762	54.02
785.075	53.63
785.388	53.25
785.701	53.8
786.014	53.51
786.327	53.37
786.64	53.5
786.953	53.54
787.266	53.55
787.578	53.66
787.891	53.03
788.204	52.55
788.516	52.49
788.829	53.11
789.141	53.14
789.454	53.09
789.766	53.5
790.079	53.1
790.391	53.65
790.703	54.16
791.016	54.05
791.328	53.61
791.64	53.84
791.952	54.13
792.264	54.15
792.576	54.41
792.888	54.54
793.2	54.51
793.512	54.66
793.824	54.91
794.136	54.75
794.448	54.94
794.76	55.44
795.071	55.07
795.383	54.72
795.695	54.3
796.006	54.53
796.318	54.34
796.629	54.89
796.941	54.85
797.252	55.29
797.564	54.8
797.875	54.83
798.186	54.61
798.497	54.12
798.809	54.38
799.12	54.26
799.431	53.82
799.742	53.85
800.053	53.8
800.364	53.49
800.675	53.53
800.986	54.15
801.297	53.35
801.608	53.61
801.918	53.52
802.229	54.09
802.54	53.82
802.851	53.25
803.161	53.46
803.472	53.61
803.782	53.1
804.093	53.41
804.403	53.05
804.714	53.7
805.024	54.25
805.334	53.98
805.645	53.65
805.955	54.15
806.265	53.42
806.575	53.59
806.885	53.38
807.195	54.37
807.505	53.54
807.815	54.01
808.125	53.84
808.435	53.65
808.745	53.35
809.055	53.3
809.365	53.72
809.674	53.14
809.984	52.37
810.294	51.77
810.603	51.97
810.913	52.37
811.222	52.14
811.532	52.4
811.841	51.91
812.151	52.49
812.46	52.09
812.769	52.86
813.079	52.44
813.388	52.45
813.697	51.46
814.006	52.59
814.315	52.57
814.624	52.68
814.933	52.95
815.242	52.69
815.551	52.39
815.86	52.71
816.169	52.57
816.478	53.08
816.786	52.67
817.095	52.98
817.404	52.99
817.712	53.09
818.021	52.49
818.33	52.7
818.638	51.7
818.947	52.66
819.255	52.23
819.563	52.81
819.872	52.88
820.18	52.9
820.488	52.8
820.796	53.33
821.105	53.42
821.413	53.8
821.721	53.84
822.029	54.07
822.337	54.36
822.645	54.66
822.953	54.61
823.26	54.71
823.568	54.56
823.876	54.7
824.184	54.57
824.491	54.53
824.799	54.56
825.107	54.96
825.414	54.59
825.722	54.67
826.029	54.72
826.337	54.79
826.644	55.06
826.951	55.08
827.259	54.86
827.566	54.89
827.873	54.74
828.18	54.85
828.488	55.02
828.795	54.78
829.102	54.58
829.409	54.61
829.716	54.78
830.023	54.92
830.329	55.06
830.636	54.86
830.943	55.02
831.25	55.64
831.557	55.19
831.863	55.71
832.17	56.2
832.476	55.73
832.783	55.83
833.089	55.92
833.396	56.02
833.702	56.15
834.009	56.07
834.315	55.99
834.621	56.6
834.928	56.83
835.234	56.36
835.54	55.65
835.846	55.62
836.152	55.76
836.458	55.66
836.764	54.96
837.07	55.29
837.376	55.55
837.682	54.41
837.988	54.45
838.293	53.94
838.599	53.58
838.905	53.4
839.211	53.33
839.516	52.47
839.822	52.67
840.127	51.95
840.433	51.95
840.738	51.39
841.044	50.25
841.349	48.39
841.654	48.69
841.959	49.31
842.265	48.46
842.57	47.17
842.875	47.58
843.18	46.13
843.485	46.03
843.79	45.44
844.095	45.63
844.4	45.44
844.705	45.26
845.01	44.69
845.315	46.9
845.619	47.2
845.924	45.72
846.229	45.2
846.533	45.84
846.838	45.43
847.142	46.19
847.447	47.12
847.751	49.05
848.056	49.95
848.36	50.54
848.664	55.01
848.969	56.38
849.273	56.03
849.577	58.63
849.881	57.81
850.185	58.78
850.489	62.53
850.794	62.25
851.097	62.69
851.401	63.63
851.705	59.73
852.009	60.36
852.313	62.29
852.617	61.92
852.92	62.91
853.224	61.79
853.528	61.32
853.831	61.75
854.135	61.13
854.438	59.54
854.742	59.86
855.045	57.06
855.349	56.83
855.652	56.23
855.955	57.38
856.259	58.67
856.562	57.77
856.865	57.22
857.168	58.41
857.471	60.05
857.774	60.46
858.077	60.63
858.38	61.14
858.683	62.5
858.986	62.22
859.289	61.21
859.592	62.33
859.894	61.56
860.197	61.24
860.5	59.97
860.802	60.78
861.105	60.23
861.407	59.78
861.71	59.48
862.012	60.43
862.315	57.55
862.617	56.16
862.919	56.48
863.222	55.03
863.524	51.96
863.826	50.03
864.128	48.93
864.43	50.9
864.732	49.89
865.034	50.89
865.336	52.13
865.638	50.12
865.94	50.92
866.242	49.73
866.544	50.4
866.846	50.81
867.147	49.93
867.449	51.06
867.751	51.64
868.052	52.43
868.354	50.38
868.655	55
868.957	56.39
869.258	56.01
869.56	57.52
869.861	60.13
870.162	58.55
870.463	59.06
870.765	58.44
871.066	57.11
871.367	53.3
871.668	51.06
871.969	52.59
872.27	53.04
872.571	57.17
872.872	55
873.173	57.85
873.473	57.58
873.774	57.03
874.075	56.47
874.376	56.48
874.676	58.9
874.977	58.93
875.277	59.49
875.578	61.45
875.878	59.48
876.179	60.54
876.479	63.47
876.78	64.48
877.08	63.54
877.38	65.7
877.68	68.92
877.981	71.68
878.281	73.33
878.581	71.71
