Data from MVZ_BU165823_Reflection_00001.txt Node
Date: Tue Nov 19 12:10:15 EST 2019
User: vgr7
Spectrometer: USB2G7710
Scans to average: 3
Trigger mode: 4
Integration Time (sec): 2.000000E-2
Electric dark correction enabled: true
Boxcar width: 10
XAxis mode: Wavelengths
Number of Pixels in Spectrum: 2048
>>>>>Begin Spectral Data<<<<<
177.721	61.94
178.105	93.09
178.488	75.35
178.871	55.37
179.254	55.32
179.636	88.92
180.019	3.98
180.402	62.5
180.785	-3.28
181.168	-50.42
181.55	-22.32
181.933	-37.88
182.316	-116.76
182.698	-4127.27
183.081	-611.68
183.463	950.52
183.846	1967.35
184.228	223.06
184.611	80.52
184.993	77.16
185.376	80.98
185.758	57.5
186.14	45.73
186.522	32.58
186.904	16.19
187.287	0.21
187.669	8.82
188.051	1.63
188.433	8.75
188.815	11.07
189.197	5.58
189.579	9.71
189.961	10.95
190.342	11.85
190.724	9.35
191.106	-8.12
191.488	-12.57
191.869	17.42
192.251	10.71
192.633	16.16
193.014	13.58
193.396	-1.79
193.777	1.75
194.159	12.32
194.54	28.47
194.922	61.7
195.303	101.94
195.684	143.02
196.065	108.7
196.447	58.03
196.828	45.56
197.209	62.35
197.59	51.34
197.971	25.27
198.352	13.54
198.733	13.72
199.114	16.37
199.495	32.08
199.876	-0.62
200.257	6.8
200.638	8.75
201.018	30.82
201.399	66.57
201.78	47.84
202.16	60.12
202.541	61.02
202.922	39.66
203.302	21.71
203.683	23.69
204.063	27.46
204.444	37.76
204.824	27.59
205.204	24.42
205.585	18.49
205.965	20.64
206.345	34.48
206.725	35.87
207.106	38.89
207.486	30.89
207.866	23.7
208.246	14.53
208.626	5.28
209.006	-8.89
209.386	5.46
209.766	12.9
210.145	18.47
210.525	2.03
210.905	2.26
211.285	9.74
211.664	7.47
212.044	3.09
212.424	-6.85
212.803	-1.6
213.183	1.61
213.562	17.41
213.942	9.59
214.321	-7.86
214.701	-16.77
215.08	-4.73
215.459	10.7
215.838	10.93
216.218	10.7
216.597	30.8
216.976	47.75
217.355	29.42
217.734	28.87
218.113	21.6
218.492	27.09
218.871	57.7
219.25	55.26
219.629	58.36
220.008	81.6
220.387	92.83
220.766	84.88
221.144	71.61
221.523	65.45
221.902	71.79
222.28	102.51
222.659	73.66
223.037	73.34
223.416	55.41
223.794	51.9
224.173	49.54
224.551	47.99
224.929	44.41
225.308	33.03
225.686	27.64
226.064	24.76
226.442	26.42
226.821	19.76
227.199	17.35
227.577	15.04
227.955	12.54
228.333	11.74
228.711	10.77
229.089	12.04
229.467	11.06
229.845	7.52
230.222	4.76
230.6	5.44
230.978	5.32
231.356	4.34
231.733	5.35
232.111	7.12
232.488	6.06
232.866	8.28
233.243	8.89
233.621	10.51
233.998	9.53
234.376	8.86
234.753	8.47
235.13	8.37
235.508	8.18
235.885	8.5
236.262	8.42
236.639	9.19
237.016	9.27
237.393	10.63
237.77	10.75
238.147	9.94
238.524	8.91
238.901	7.26
239.278	7.62
239.655	7.47
240.032	7.15
240.409	7.69
240.785	6.77
241.162	6.48
241.539	5.51
241.915	5.85
242.292	5.67
242.668	5.84
243.045	5.64
243.421	5.55
243.798	5.22
244.174	4.9
244.551	4.55
244.927	4.29
245.303	3.8
245.679	3.76
246.056	3.86
246.432	3.73
246.808	4.02
247.184	3.97
247.56	3.98
247.936	3.71
248.312	3.43
248.688	3.53
249.064	3.69
249.44	3.65
249.815	3.56
250.191	3.74
250.567	3.62
250.943	3.46
251.318	3.6
251.694	3.32
252.069	3.38
252.445	3.41
252.82	3.55
253.196	3.66
253.571	3.39
253.947	3.29
254.322	3.46
254.697	3.12
255.073	2.98
255.448	2.93
255.823	3.32
256.198	3.17
256.573	3.1
256.948	3.09
257.323	3.28
257.698	3.34
258.073	3.16
258.448	3.16
258.823	3.06
259.198	3.01
259.573	3.07
259.948	3.17
260.322	3.12
260.697	3.07
261.072	3.01
261.446	3.07
261.821	3.03
262.195	2.95
262.57	3.08
262.944	3.27
263.319	3.12
263.693	2.97
264.067	3.16
264.442	3.14
264.816	3.23
265.19	3.24
265.564	3.34
265.938	3.4
266.313	3.27
266.687	3.43
267.061	3.52
267.435	3.55
267.809	3.39
268.183	3.46
268.556	3.39
268.93	3.6
269.304	3.67
269.678	3.76
270.051	3.9
270.425	3.88
270.799	3.66
271.172	3.79
271.546	3.64
271.919	3.41
272.293	3.49
272.666	3.39
273.04	3.25
273.413	3.02
273.787	3.05
274.16	3.11
274.533	3.27
274.906	3.14
275.279	3.28
275.653	3.38
276.026	3.23
276.399	3.34
276.772	3.24
277.145	3.2
277.518	2.9
277.891	2.93
278.263	2.86
278.636	2.91
279.009	2.85
279.382	2.99
279.755	3.05
280.127	3.09
280.5	3.04
280.872	3.24
281.245	3.29
281.617	3.24
281.99	3.36
282.362	3.2
282.735	3.11
283.107	2.98
283.479	2.97
283.852	3.03
284.224	2.95
284.596	2.91
284.968	2.86
285.34	3.07
285.713	3.08
286.085	3.09
286.457	3.08
286.829	3.09
287.201	3.12
287.572	3.11
287.944	2.99
288.316	3.01
288.688	2.99
289.06	3.04
289.431	3.14
289.803	3.03
290.175	3.09
290.546	3.06
290.918	3.13
291.289	3
291.661	3.1
292.032	3.02
292.403	3.06
292.775	3.26
293.146	3.33
293.517	3.2
293.889	3.14
294.26	3.15
294.631	3.17
295.002	3.19
295.373	3.22
295.744	3.22
296.115	3.25
296.486	3.14
296.857	3.11
297.228	2.91
297.599	2.94
297.97	3
298.34	3.04
298.711	3.13
299.082	3.32
299.452	3.31
299.823	3.47
300.194	3.5
300.564	3.29
300.935	3.2
301.305	3.33
301.676	3.38
302.046	3.43
302.416	3.46
302.787	3.49
303.157	3.48
303.527	3.62
303.897	3.49
304.267	3.38
304.637	3.34
305.008	3.51
305.378	3.33
305.748	3.34
306.117	3.39
306.487	3.31
306.857	3.27
307.227	3.4
307.597	3.3
307.967	3.12
308.336	3.13
308.706	3.08
309.076	3.13
309.445	3.21
309.815	3.1
310.184	2.92
310.554	2.89
310.923	2.87
311.293	2.85
311.662	3.02
312.031	3.3
312.401	3.34
312.77	3.09
313.139	3.3
313.508	3.17
313.877	3.22
314.246	3.19
314.616	3.22
314.985	2.96
315.353	3.09
315.722	3.22
316.091	3.2
316.46	3.11
316.829	3.07
317.198	2.98
317.567	3.11
317.935	3.21
318.304	3.28
318.672	3.36
319.041	3.27
319.41	3.02
319.778	2.98
320.147	2.9
320.515	3.16
320.883	3.1
321.252	3.17
321.62	3.17
321.988	3.15
322.357	3.06
322.725	3.1
323.093	3.06
323.461	3.05
323.829	3.07
324.197	3.14
324.565	3.08
324.933	3.06
325.301	2.9
325.669	2.86
326.037	2.9
326.405	2.88
326.772	2.94
327.14	2.97
327.508	2.95
327.875	3.04
328.243	3.02
328.61	2.94
328.978	2.89
329.346	2.78
329.713	2.84
330.08	2.89
330.448	2.95
330.815	2.96
331.182	2.9
331.55	3
331.917	3
332.284	2.98
332.651	2.94
333.018	3.03
333.385	3.05
333.752	2.97
334.119	2.9
334.486	2.96
334.853	3
335.22	2.89
335.587	2.82
335.954	2.79
336.32	2.67
336.687	2.77
337.054	2.93
337.42	2.85
337.787	2.84
338.153	2.87
338.52	2.75
338.886	2.8
339.253	2.64
339.619	2.67
339.986	2.71
340.352	2.77
340.718	2.63
341.084	2.74
341.451	2.81
341.817	2.95
342.183	2.9
342.549	3
342.915	3.13
343.281	3.06
343.647	3.1
344.013	3.22
344.379	3.18
344.745	3.16
345.11	3.13
345.476	3.24
345.842	3.26
346.208	3.25
346.573	3.21
346.939	3.34
347.304	3.37
347.67	3.33
348.035	3.32
348.401	3.48
348.766	3.37
349.132	3.38
349.497	3.33
349.862	3.26
350.228	3.27
350.593	3.22
350.958	3.38
351.323	3.35
351.688	3.41
352.053	3.33
352.418	3.21
352.783	3.21
353.148	3.13
353.513	3.1
353.878	3.06
354.243	3.08
354.608	2.98
354.972	2.97
355.337	2.95
355.702	2.91
356.066	2.96
356.431	3.04
356.795	2.99
357.16	3.02
357.524	2.99
357.889	2.92
358.253	2.87
358.618	2.74
358.982	2.69
359.346	2.63
359.71	2.62
360.075	2.67
360.439	2.66
360.803	2.68
361.167	2.68
361.531	2.67
361.895	2.64
362.259	2.76
362.623	2.75
362.987	2.73
363.351	2.72
363.714	2.71
364.078	2.64
364.442	2.59
364.806	2.54
365.169	2.56
365.533	2.56
365.896	2.6
366.26	2.66
366.623	2.71
366.987	2.75
367.35	2.73
367.714	2.78
368.077	2.83
368.44	2.79
368.803	2.73
369.167	2.73
369.53	2.81
369.893	2.79
370.256	2.69
370.619	2.78
370.982	2.77
371.345	2.79
371.708	2.82
372.071	2.81
372.434	2.74
372.797	2.76
373.159	2.8
373.522	2.77
373.885	2.78
374.247	2.74
374.61	2.74
374.973	2.81
375.335	2.76
375.698	2.73
376.06	2.72
376.423	2.7
376.785	2.8
377.147	2.74
377.51	2.7
377.872	2.76
378.234	2.75
378.596	2.72
378.958	2.7
379.321	2.69
379.683	2.74
380.045	2.75
380.407	2.72
380.769	2.65
381.13	2.58
381.492	2.57
381.854	2.59
382.216	2.64
382.578	2.62
382.939	2.65
383.301	2.64
383.663	2.63
384.024	2.62
384.386	2.62
384.747	2.61
385.109	2.62
385.47	2.61
385.832	2.54
386.193	2.58
386.554	2.54
386.916	2.57
387.277	2.51
387.638	2.57
387.999	2.64
388.36	2.66
388.721	2.72
389.082	2.73
389.443	2.75
389.804	2.72
390.165	2.72
390.526	2.67
390.887	2.65
391.248	2.67
391.609	2.69
391.969	2.67
392.33	2.68
392.691	2.7
393.051	2.67
393.412	2.7
393.772	2.67
394.133	2.66
394.493	2.62
394.854	2.7
395.214	2.68
395.574	2.65
395.935	2.67
396.295	2.64
396.655	2.63
397.015	2.61
397.376	2.6
397.736	2.58
398.096	2.59
398.456	2.62
398.816	2.64
399.176	2.64
399.535	2.61
399.895	2.62
400.255	2.65
400.615	2.68
400.975	2.67
401.334	2.72
401.694	2.74
402.054	2.74
402.413	2.71
402.773	2.69
403.132	2.71
403.492	2.67
403.851	2.67
404.211	2.65
404.57	2.69
404.929	2.68
405.288	2.7
405.648	2.74
406.007	2.74
406.366	2.72
406.725	2.71
407.084	2.71
407.443	2.72
407.802	2.67
408.161	2.69
408.52	2.69
408.879	2.73
409.238	2.72
409.596	2.75
409.955	2.75
410.314	2.76
410.673	2.74
411.031	2.75
411.39	2.76
411.748	2.76
412.107	2.73
412.465	2.71
412.824	2.69
413.182	2.65
413.54	2.64
413.899	2.64
414.257	2.65
414.615	2.66
414.974	2.68
415.332	2.68
415.69	2.64
416.048	2.63
416.406	2.58
416.764	2.57
417.122	2.57
417.48	2.59
417.838	2.59
418.195	2.58
418.553	2.6
418.911	2.6
419.269	2.62
419.626	2.64
419.984	2.64
420.342	2.64
420.699	2.64
421.057	2.64
421.414	2.64
421.772	2.66
422.129	2.63
422.486	2.62
422.844	2.63
423.201	2.66
423.558	2.65
423.915	2.67
424.273	2.68
424.63	2.69
424.987	2.69
425.344	2.7
425.701	2.7
426.058	2.7
426.415	2.71
426.772	2.7
427.128	2.69
427.485	2.7
427.842	2.72
428.199	2.7
428.555	2.71
428.912	2.72
429.269	2.71
429.625	2.74
429.982	2.72
430.338	2.72
430.695	2.68
431.051	2.71
431.407	2.7
431.764	2.69
432.12	2.69
432.476	2.69
432.832	2.68
433.189	2.68
433.545	2.68
433.901	2.67
434.257	2.65
434.613	2.64
434.969	2.63
435.325	2.62
435.681	2.64
436.036	2.66
436.392	2.65
436.748	2.65
437.104	2.64
437.459	2.65
437.815	2.66
438.171	2.69
438.526	2.67
438.882	2.67
439.237	2.64
439.593	2.64
439.948	2.63
440.304	2.64
440.659	2.66
441.014	2.65
441.369	2.65
441.725	2.67
442.08	2.69
442.435	2.7
442.79	2.68
443.145	2.69
443.5	2.66
443.855	2.67
444.21	2.67
444.565	2.68
444.92	2.67
445.275	2.64
445.629	2.63
445.984	2.63
446.339	2.64
446.693	2.67
447.048	2.66
447.403	2.68
447.757	2.65
448.112	2.65
448.466	2.66
448.82	2.68
449.175	2.69
449.529	2.69
449.883	2.68
450.238	2.7
450.592	2.71
450.946	2.72
451.3	2.72
451.654	2.7
452.008	2.72
452.362	2.72
452.716	2.74
453.07	2.75
453.424	2.78
453.778	2.76
454.132	2.75
454.486	2.77
454.839	2.76
455.193	2.79
455.547	2.79
455.9	2.8
456.254	2.79
456.607	2.76
456.961	2.75
457.314	2.78
457.668	2.79
458.021	2.77
458.375	2.77
458.728	2.77
459.081	2.81
459.434	2.79
459.787	2.82
460.141	2.81
460.494	2.83
460.847	2.82
461.2	2.84
461.553	2.86
461.906	2.85
462.259	2.85
462.611	2.84
462.964	2.85
463.317	2.84
463.67	2.84
464.022	2.85
464.375	2.85
464.728	2.81
465.08	2.8
465.433	2.83
465.785	2.84
466.138	2.82
466.49	2.8
466.843	2.81
467.195	2.79
467.547	2.78
467.899	2.79
468.252	2.79
468.604	2.78
468.956	2.77
469.308	2.77
469.66	2.77
470.012	2.77
470.364	2.77
470.716	2.78
471.068	2.78
471.42	2.78
471.772	2.77
472.123	2.81
472.475	2.82
472.827	2.81
473.178	2.84
473.53	2.86
473.882	2.83
474.233	2.84
474.585	2.82
474.936	2.83
475.288	2.8
475.639	2.8
475.99	2.82
476.342	2.82
476.693	2.83
477.044	2.84
477.395	2.84
477.746	2.82
478.097	2.8
478.448	2.8
478.8	2.8
479.15	2.81
479.501	2.78
479.852	2.77
480.203	2.78
480.554	2.76
480.905	2.75
481.255	2.76
481.606	2.77
481.957	2.79
482.307	2.79
482.658	2.81
483.009	2.8
483.359	2.8
483.709	2.81
484.06	2.82
484.41	2.82
484.761	2.83
485.111	2.84
485.461	2.84
485.811	2.84
486.162	2.85
486.512	2.85
486.862	2.86
487.212	2.86
487.562	2.86
487.912	2.87
488.262	2.87
488.612	2.87
488.961	2.86
489.311	2.86
489.661	2.86
490.011	2.85
490.36	2.84
490.71	2.84
491.06	2.84
491.409	2.82
491.759	2.81
492.108	2.79
492.458	2.79
492.807	2.78
493.157	2.77
493.506	2.78
493.855	2.78
494.204	2.77
494.554	2.78
494.903	2.78
495.252	2.78
495.601	2.79
495.95	2.8
496.299	2.83
496.648	2.84
496.997	2.84
497.346	2.85
497.695	2.87
498.043	2.88
498.392	2.87
498.741	2.89
499.09	2.9
499.438	2.92
499.787	2.93
500.135	2.93
500.484	2.97
500.832	2.96
501.181	2.98
501.529	3
501.878	3
502.226	2.98
502.574	2.98
502.923	2.99
503.271	2.97
503.619	2.96
503.967	2.96
504.315	2.94
504.663	2.95
505.011	2.96
505.359	2.94
505.707	2.95
506.055	2.97
506.403	2.95
506.751	2.97
507.098	2.95
507.446	2.96
507.794	2.94
508.141	2.95
508.489	2.95
508.837	2.94
509.184	2.95
509.531	2.96
509.879	2.97
510.226	2.99
510.574	3.01
510.921	3.01
511.268	3.03
511.616	3.07
511.963	3.09
512.31	3.05
512.657	3.07
513.004	3.07
513.351	3.05
513.698	3.08
514.045	3.08
514.392	3.1
514.739	3.09
515.086	3.11
515.432	3.1
515.779	3.09
516.126	3.11
516.473	3.11
516.819	3.11
517.166	3.11
517.512	3.08
517.859	3.09
518.205	3.08
518.552	3.07
518.898	3.06
519.245	3.07
519.591	3.11
519.937	3.1
520.283	3.09
520.629	3.1
520.976	3.08
521.322	3.09
521.668	3.07
522.014	3.06
522.36	3.06
522.706	3.09
523.052	3.09
523.398	3.07
523.743	3.05
524.089	3.04
524.435	3.02
524.781	3.04
525.126	3.04
525.472	3.03
525.817	3.04
526.163	3.03
526.509	3
526.854	3
527.199	3
527.545	3
527.89	2.99
528.235	2.99
528.581	2.98
528.926	2.99
529.271	2.99
529.616	3
529.961	2.99
530.306	3
530.651	3
530.996	3
531.341	3.01
531.686	3.01
532.031	3.01
532.376	3
532.721	3
533.065	2.99
533.41	3
533.755	3.01
534.099	3
534.444	3.01
534.788	3.02
535.133	3.03
535.477	3.05
535.822	3.05
536.166	3.04
536.51	3.04
536.855	3.02
537.199	3.02
537.543	3.02
537.887	3.01
538.231	3.02
538.576	3.05
538.92	3.06
539.264	3.06
539.608	3.07
539.951	3.07
540.295	3.08
540.639	3.09
540.983	3.09
541.327	3.12
541.671	3.13
542.014	3.15
542.358	3.14
542.701	3.15
543.045	3.16
543.389	3.18
543.732	3.18
544.075	3.2
544.419	3.2
544.762	3.18
545.105	3.21
545.449	3.21
545.792	3.2
546.135	3.18
546.478	3.2
546.821	3.22
547.165	3.23
547.508	3.23
547.851	3.2
548.194	3.2
548.536	3.19
548.879	3.19
549.222	3.16
549.565	3.17
549.908	3.14
550.25	3.15
550.593	3.14
550.936	3.16
551.278	3.16
551.621	3.17
551.963	3.21
552.306	3.19
552.648	3.2
552.991	3.22
553.333	3.27
553.675	3.28
554.017	3.25
554.36	3.25
554.702	3.23
555.044	3.25
555.386	3.28
555.728	3.27
556.07	3.27
556.412	3.29
556.754	3.28
557.096	3.28
557.438	3.27
557.78	3.27
558.121	3.29
558.463	3.27
558.805	3.29
559.147	3.27
559.488	3.28
559.83	3.3
560.171	3.26
560.513	3.21
560.854	3.19
561.196	3.2
561.537	3.25
561.878	3.31
562.22	3.32
562.561	3.33
562.902	3.32
563.243	3.32
563.584	3.32
563.925	3.35
564.266	3.36
564.607	3.35
564.948	3.33
565.289	3.31
565.63	3.33
565.971	3.31
566.312	3.3
566.653	3.3
566.993	3.28
567.334	3.28
567.675	3.3
568.015	3.31
568.356	3.3
568.696	3.25
569.037	3.22
569.377	3.19
569.718	3.16
570.058	3.18
570.398	3.19
570.739	3.12
571.079	3.09
571.419	3.07
571.759	3.05
572.099	3.06
572.439	3.08
572.779	3.09
573.119	3.11
573.459	3.13
573.799	3.11
574.139	3.1
574.479	3.11
574.819	3.11
575.158	3.11
575.498	3.13
575.838	3.12
576.177	3.11
576.517	3.16
576.856	3.16
577.196	3.16
577.535	3.13
577.875	3.19
578.214	3.2
578.553	3.24
578.893	3.28
579.232	3.28
579.571	3.29
579.91	3.27
580.25	3.25
580.589	3.23
580.928	3.24
581.267	3.26
581.606	3.23
581.945	3.23
582.283	3.24
582.622	3.2
582.961	3.24
583.3	3.24
583.639	3.23
583.977	3.21
584.316	3.21
584.654	3.28
584.993	3.26
585.332	3.26
585.67	3.26
586.008	3.25
586.347	3.24
586.685	3.2
587.024	3.2
587.362	3.23
587.7	3.3
588.038	3.29
588.376	3.28
588.715	3.31
589.053	3.32
589.391	3.29
589.729	3.31
590.067	3.3
590.404	3.31
590.742	3.34
591.08	3.36
591.418	3.36
591.756	3.32
592.093	3.31
592.431	3.34
592.769	3.34
593.106	3.35
593.444	3.38
593.781	3.44
594.119	3.43
594.456	3.4
594.793	3.33
595.131	3.32
595.468	3.33
595.805	3.33
596.143	3.36
596.48	3.37
596.817	3.37
597.154	3.39
597.491	3.34
597.828	3.34
598.165	3.31
598.502	3.28
598.839	3.28
599.176	3.29
599.512	3.25
599.849	3.24
600.186	3.21
600.523	3.21
600.859	3.16
601.196	3.19
601.532	3.23
601.869	3.26
602.205	3.26
602.542	3.27
602.878	3.3
603.215	3.27
603.551	3.29
603.887	3.29
604.223	3.23
604.56	3.27
604.896	3.28
605.232	3.29
605.568	3.33
605.904	3.33
606.24	3.37
606.576	3.4
606.912	3.41
607.248	3.44
607.583	3.43
607.919	3.43
608.255	3.42
608.591	3.39
608.926	3.35
609.262	3.38
609.597	3.37
609.933	3.33
610.268	3.35
610.604	3.27
610.939	3.28
611.275	3.34
611.61	3.34
611.945	3.32
612.281	3.35
612.616	3.31
612.951	3.35
613.286	3.29
613.621	3.29
613.956	3.28
614.291	3.24
614.626	3.23
614.961	3.26
615.296	3.28
615.631	3.3
615.966	3.34
616.3	3.36
616.635	3.36
616.97	3.37
617.304	3.33
617.639	3.47
617.973	3.51
618.308	3.5
618.642	3.5
618.977	3.47
619.311	3.48
619.646	3.48
619.98	3.49
620.314	3.52
620.648	3.51
620.983	3.51
621.317	3.55
621.651	3.54
621.985	3.51
622.319	3.47
622.653	3.48
622.987	3.53
623.321	3.5
623.655	3.53
623.988	3.58
624.322	3.62
624.656	3.52
624.99	3.52
625.323	3.45
625.657	3.45
625.99	3.52
626.324	3.52
626.657	3.5
626.991	3.48
627.324	3.48
627.658	3.45
627.991	3.47
628.324	3.47
628.657	3.5
628.991	3.54
629.324	3.6
629.657	3.54
629.99	3.56
630.323	3.54
630.656	3.55
630.989	3.5
631.322	3.46
631.655	3.49
631.987	3.46
632.32	3.53
632.653	3.5
632.986	3.43
633.318	3.43
633.651	3.46
633.984	3.45
634.316	3.47
634.649	3.51
634.981	3.47
635.313	3.5
635.646	3.5
635.978	3.52
636.31	3.48
636.643	3.53
636.975	3.47
637.307	3.51
637.639	3.48
637.971	3.5
638.303	3.42
638.635	3.45
638.967	3.43
639.299	3.4
639.631	3.45
639.963	3.49
640.295	3.49
640.626	3.49
640.958	3.49
641.29	3.49
641.621	3.45
641.953	3.44
642.285	3.42
642.616	3.44
642.948	3.49
643.279	3.48
643.61	3.5
643.942	3.55
644.273	3.53
644.604	3.51
644.936	3.55
645.267	3.64
645.598	3.6
645.929	3.63
646.26	3.62
646.591	3.63
646.922	3.6
647.253	3.58
647.584	3.57
647.915	3.58
648.245	3.55
648.576	3.64
648.907	3.69
649.238	3.63
649.568	3.65
649.899	3.53
650.229	3.54
650.56	3.54
650.89	3.47
651.221	3.47
651.551	3.5
651.882	3.47
652.212	3.45
652.542	3.5
652.872	3.5
653.203	3.63
653.533	3.66
653.863	3.68
654.193	3.68
654.523	3.68
654.853	3.68
655.183	3.72
655.513	3.66
655.843	3.68
656.172	3.71
656.502	3.67
656.832	3.74
657.162	3.73
657.491	3.73
657.821	3.74
658.15	3.72
658.48	3.72
658.809	3.71
659.139	3.79
659.468	3.79
659.798	3.9
660.127	3.82
660.456	3.83
660.785	3.8
661.115	3.78
661.444	3.84
661.773	3.85
662.102	3.81
662.431	3.81
662.76	3.77
663.089	3.78
663.418	3.79
663.747	3.81
664.076	3.8
664.404	3.85
664.733	3.85
665.062	4
665.39	4.02
665.719	4.08
666.048	4.03
666.376	4.12
666.705	4.05
667.033	4.07
667.362	4.09
667.69	4.17
668.018	4.2
668.347	4.11
668.675	4.04
669.003	4.04
669.331	4.09
669.659	4.07
669.987	4.08
670.315	4.11
670.643	4.09
670.971	4.07
671.299	3.99
671.627	4.01
671.955	3.87
672.283	3.77
672.61	3.78
672.938	3.74
673.266	3.67
673.593	3.61
673.921	3.6
674.249	3.56
674.576	3.52
674.904	3.52
675.231	3.62
675.558	3.68
675.886	3.76
676.213	3.78
676.54	3.88
676.867	3.84
677.195	3.85
677.522	3.87
677.849	3.91
678.176	3.91
678.503	3.9
678.83	3.89
679.157	3.93
679.484	3.88
679.81	3.89
680.137	3.97
680.464	4.03
680.791	4.01
681.117	4.04
681.444	4.01
681.771	4.01
682.097	3.99
682.424	4.01
682.75	3.96
683.077	3.95
683.403	3.89
683.729	3.88
684.056	3.82
684.382	3.78
684.708	3.76
685.034	3.72
685.36	3.72
685.686	3.73
686.012	3.78
686.339	3.75
686.664	3.74
686.99	3.55
687.316	3.52
687.642	3.48
687.968	3.39
688.294	3.38
688.619	3.44
688.945	3.45
689.271	3.45
689.596	3.49
689.922	3.52
690.247	3.62
690.573	3.68
690.898	3.76
691.224	3.78
691.549	3.73
691.874	3.77
692.2	3.83
692.525	3.96
692.85	3.93
693.175	3.94
693.5	3.99
693.825	4.12
694.15	4.1
694.475	4.1
694.8	4.19
695.125	4.31
695.45	4.23
695.775	4.2
696.099	4.27
696.424	4.28
696.749	4.29
697.073	4.18
697.398	4.2
697.723	4.21
698.047	4.19
698.372	4.34
698.696	4.43
699.02	4.4
699.345	4.35
699.669	4.4
699.993	4.42
700.318	4.5
700.642	4.54
700.966	4.55
701.29	4.61
701.614	4.61
701.938	4.57
702.262	4.61
702.586	4.62
702.91	4.55
703.234	4.5
703.557	4.48
703.881	4.53
704.205	4.52
704.529	4.5
704.852	4.5
705.176	4.48
705.499	4.45
705.823	4.48
706.146	4.48
706.47	4.47
706.793	4.6
707.117	4.5
707.44	4.44
707.763	4.37
708.086	4.36
708.409	4.36
708.733	4.26
709.056	4.21
709.379	4.42
709.702	4.5
710.025	4.7
710.348	4.68
710.671	4.74
710.993	4.67
711.316	4.78
711.639	4.83
711.962	4.85
712.284	4.78
712.607	4.87
712.93	4.87
713.252	4.93
713.575	4.82
713.897	4.82
714.22	4.76
714.542	4.9
714.864	4.78
715.187	4.75
715.509	4.88
715.831	4.88
716.153	4.77
716.475	4.84
716.798	4.67
717.12	4.65
717.442	4.65
717.764	4.69
718.085	4.74
718.407	4.78
718.729	4.8
719.051	4.8
719.373	4.86
719.695	4.92
720.016	4.88
720.338	4.98
720.659	4.92
720.981	4.98
721.302	5.16
721.624	5.37
721.945	5.37
722.267	5.31
722.588	5.41
722.909	5.14
723.231	5.06
723.552	5.04
723.873	5.02
724.194	4.91
724.515	4.98
724.836	4.72
725.157	4.68
725.478	4.7
725.799	4.87
726.12	4.63
726.441	4.74
726.762	4.76
727.083	4.71
727.403	4.89
727.724	5.18
728.045	4.89
728.365	4.81
728.686	4.89
729.006	4.99
729.327	5.13
729.647	5.31
729.967	5.21
730.288	5.29
730.608	5.41
730.928	5.5
731.249	5.61
731.569	5.64
731.889	5.64
732.209	5.41
732.529	5.46
732.849	5.5
733.169	5.33
733.489	5.25
733.809	5.36
734.129	5.27
734.448	4.99
734.768	5
735.088	5.18
735.408	5.27
735.727	5.14
736.047	5.12
736.366	5.05
736.686	5.06
737.005	5.15
737.325	5.03
737.644	4.96
737.963	4.79
738.283	4.87
738.602	5.08
738.921	5.33
739.24	5.31
739.56	5.41
739.879	5.38
740.198	5.67
740.517	5.79
740.836	5.68
741.155	5.68
741.473	5.94
741.792	5.9
742.111	6.18
742.43	6.47
742.748	6.47
743.067	6.56
743.386	6.5
743.704	6.45
744.023	6.61
744.341	6.7
744.66	6.69
744.978	6.72
745.297	6.48
745.615	6.21
745.933	6.01
746.252	6.06
746.57	6.09
746.888	6.02
747.206	5.58
747.524	5.81
747.842	5.93
748.16	5.8
748.478	5.68
748.796	5.5
749.114	5.51
749.432	5.35
749.749	5.37
750.067	5.43
750.385	5.52
750.703	5.49
751.02	5.52
751.338	5.49
751.655	5.61
751.973	5.52
752.29	5.6
752.608	5.69
752.925	5.9
753.242	6.12
753.56	5.66
753.877	5.84
754.194	5.94
754.511	5.96
754.828	6
755.145	6.01
755.462	5.68
755.779	5.38
756.096	5.44
756.413	5.55
756.73	5.89
757.047	5.53
757.364	5.37
757.68	5.25
757.997	5.21
758.314	5.16
758.63	5.67
758.947	5.89
759.264	5.52
759.58	5.27
759.896	4.95
760.213	5.03
760.529	5.15
760.846	5.26
761.162	5.18
761.478	5.22
761.794	5.44
762.11	5.62
762.426	5.75
762.743	5.91
763.059	5.86
763.375	5.75
763.69	6
764.006	5.83
764.322	5.86
764.638	5.97
764.954	6.1
765.27	5.94
765.585	5.94
765.901	6.25
766.216	6.3
766.532	6.55
766.848	6.69
767.163	6.57
767.478	6.34
767.794	6.53
768.109	6.48
768.424	6.45
768.74	6.33
769.055	6.37
769.37	5.96
769.685	6.16
770	6.33
770.315	6.44
770.63	7.03
770.945	6.97
771.26	7.1
771.575	6.9
771.89	6.72
772.205	6.38
772.52	6.37
772.834	6.36
773.149	6.32
773.464	6.43
773.778	6.36
774.093	6.61
774.407	6.38
774.722	6.44
775.036	6.38
775.351	6.61
775.665	6.58
775.979	7.29
776.293	7.23
776.608	7.02
776.922	6.5
777.236	6.32
777.55	6.63
777.864	6.75
778.178	6.66
778.492	6.77
778.806	7.32
779.12	7.39
779.434	7.28
779.747	7.45
780.061	7.58
780.375	7.93
780.689	7.56
781.002	7.49
781.316	7.66
781.629	7.89
781.943	7.93
782.256	7.7
782.57	7.33
782.883	7.06
783.196	7.02
783.51	7.84
783.823	7.93
784.136	7.59
784.449	7.52
784.762	7.66
785.075	7.53
785.388	7.32
785.701	7.2
786.014	7.3
786.327	7.18
786.64	7.17
786.953	7.33
787.266	7.66
787.578	8.12
787.891	7.96
788.204	7.58
788.516	7.68
788.829	8.07
789.141	8.28
789.454	8.74
789.766	9.25
790.079	9.14
790.391	8.83
790.703	9.39
791.016	9.53
791.328	9.78
791.64	9.83
791.952	9.75
792.264	9.87
792.576	10.15
792.888	9.7
793.2	9.5
793.512	8.91
793.824	8.87
794.136	8.74
794.448	8.99
794.76	9.32
795.071	9.28
795.383	9.45
795.695	9.46
796.006	9.43
796.318	9.1
796.629	8.77
796.941	8.78
797.252	8.4
797.564	8.27
797.875	7.54
798.186	8.3
798.497	8.71
798.809	8.71
799.12	8.4
799.431	8.45
799.742	8.67
800.053	8.5
800.364	8.8
800.675	8.76
800.986	8.87
801.297	8.77
801.608	8.44
801.918	8.36
802.229	8.33
802.54	7.9
802.851	8
803.161	8.41
803.472	8.68
803.782	9.07
804.093	8.74
804.403	8.7
804.714	8.65
805.024	8.25
805.334	7.95
805.645	8.9
805.955	9.55
806.265	10.24
806.575	10.58
806.885	10.01
807.195	10.12
807.505	9.72
807.815	9.76
808.125	9.85
808.435	9.76
808.745	9.64
809.055	10.5
809.365	10.3
809.674	9.6
809.984	9.77
810.294	8.87
810.603	9.25
810.913	9.71
811.222	8.69
811.532	9.07
811.841	9.98
812.151	9.55
812.46	9.33
812.769	8.21
813.079	8.86
813.388	9.22
813.697	9.07
814.006	9.55
814.315	9.36
814.624	9.72
814.933	10.49
815.242	10.55
815.551	9.1
815.86	9.32
816.169	9.13
816.478	8.98
816.786	9.4
817.095	9.24
817.404	9.11
817.712	9.57
818.021	9.88
818.33	9.04
818.638	8.72
818.947	8.25
819.255	8.07
819.563	7.57
819.872	7.47
820.18	7.27
820.488	7.44
820.796	7.46
821.105	7.81
821.413	7.51
821.721	7.45
822.029	7.76
822.337	7.89
822.645	8.04
822.953	8.11
823.26	8.15
823.568	8
823.876	8.11
824.184	8.13
824.491	8
824.799	8.04
825.107	8.02
825.414	8.1
825.722	8.19
826.029	8.33
826.337	8.43
826.644	8.71
826.951	8.64
827.259	8.69
827.566	8.49
827.873	8.53
828.18	8.72
828.488	8.53
828.795	8.3
829.102	8.08
829.409	8.07
829.716	8.35
830.023	8.77
830.329	8.77
830.636	8.33
830.943	8.26
831.25	8.38
831.557	8.26
831.863	8.11
832.17	8.46
832.476	8.46
832.783	8.45
833.089	8.16
833.396	8.2
833.702	8.68
834.009	8.82
834.315	8.62
834.621	8.13
834.928	8.52
835.234	8.99
835.54	9.22
835.846	9.24
836.152	9.03
836.458	8.76
836.764	8.81
837.07	9.22
837.376	9.43
837.682	8.88
837.988	9.5
838.293	9.95
838.599	9.1
838.905	9.29
839.211	9.88
839.516	9.67
839.822	9.99
840.127	9.08
840.433	9.05
840.738	9.78
841.044	10.85
841.349	10.65
841.654	9.27
841.959	10.33
842.265	10.12
842.57	11.02
842.875	11.92
843.18	11.29
843.485	11.72
843.79	11.98
844.095	13.22
844.4	12.69
844.705	12.78
845.01	14.31
845.315	14.56
845.619	14.92
845.924	15.3
846.229	15.29
846.533	16.67
846.838	16.39
847.142	14.68
847.447	14.75
847.751	14.23
848.056	14.48
848.36	13.36
848.664	13.77
848.969	12.78
849.273	11.37
849.577	14.46
849.881	14.34
850.185	14.61
850.489	14.95
850.794	14.68
851.097	15.25
851.401	13.36
851.705	13.16
852.009	12.5
852.313	12.05
852.617	11.52
852.92	12.01
853.224	13.76
853.528	15.66
853.831	15.01
854.135	15.85
854.438	17.18
854.742	17.94
855.045	17.66
855.349	16.95
855.652	17.13
855.955	15.6
856.259	15.59
856.562	15.62
856.865	16.36
857.168	19.58
857.471	21.36
857.774	23.61
858.077	24.44
858.38	23.47
858.683	24.17
858.986	26.09
859.289	24.78
859.592	21.45
859.894	21.05
860.197	21.21
860.5	22.96
860.802	21.65
861.105	22.61
861.407	23.73
861.71	21.92
862.012	23
862.315	23.21
862.617	25.11
862.919	26.34
863.222	27
863.524	24.59
863.826	23.37
864.128	23.49
864.43	23.2
864.732	23.52
865.034	24.4
865.336	22.75
865.638	23.56
865.94	26.36
866.242	26.97
866.544	28.08
866.846	26.88
867.147	29.93
867.449	27.73
867.751	27.51
868.052	29.7
868.354	29.75
868.655	28.93
868.957	27.39
869.258	26.33
869.56	27.25
869.861	26.72
870.162	25.5
870.463	23.11
870.765	25.05
871.066	25.01
871.367	22.7
871.668	21.65
871.969	21.17
872.27	21.35
872.571	21.04
872.872	21.17
873.173	23.04
873.473	21.32
873.774	22.58
874.075	23.06
874.376	20.36
874.676	21.69
874.977	21.27
875.277	19.78
875.578	17.64
875.878	15.19
876.179	14.87
876.479	15.52
876.78	17.5
877.08	14.66
877.38	14.41
877.68	17.16
877.981	18.04
878.281	18.88
878.581	16.64
