Data from MVZ_BU8943_Reflection_00010.txt Node
Date: Tue Nov 19 12:09:19 EST 2019
User: vgr7
Spectrometer: USB2G7710
Scans to average: 3
Trigger mode: 4
Integration Time (sec): 2.000000E-2
Electric dark correction enabled: true
Boxcar width: 10
XAxis mode: Wavelengths
Number of Pixels in Spectrum: 2048
>>>>>Begin Spectral Data<<<<<
177.721	82.17
178.105	-38.3
178.488	-22.08
178.871	8.22
179.254	88.24
179.636	-65.68
180.019	-14.6
180.402	170
180.785	-112.99
181.168	74.62
181.55	78.4
181.933	160.69
182.316	119.85
182.698	32100
183.081	-827.71
183.463	566.17
183.846	689.4
184.228	1682.28
184.611	-468.09
184.993	-164.9
185.376	-167.88
185.758	-87.86
186.14	-125.17
186.522	-125.33
186.904	-94.82
187.287	-89.83
187.669	-71.88
188.051	-83.84
188.433	-88.39
188.815	-90.27
189.197	-80.13
189.579	-66.74
189.961	-64.93
190.342	-61.67
190.724	-81.39
191.106	-58.48
191.488	-62.2
191.869	-47.62
192.251	-36.95
192.633	-22.43
193.014	-19.29
193.396	-65.7
193.777	-122.91
194.159	-106.37
194.54	-93.73
194.922	-129.78
195.303	-131.65
195.684	-714.16
196.065	-790.51
196.447	86100
196.828	1012.09
197.209	-2841.18
197.59	55.68
197.971	48.23
198.352	5.54
198.733	-25.63
199.114	182.71
199.495	-241.04
199.876	-343.11
200.257	-106.38
200.638	-221.87
201.018	-298.18
201.399	-151.41
201.78	-104.59
202.16	-148.1
202.541	-310.04
202.922	-622.69
203.302	-724.82
203.683	-640.54
204.063	-189.32
204.444	-156.45
204.824	-76.55
205.204	-162.12
205.585	-96.04
205.965	-155.01
206.345	-229.01
206.725	-235.16
207.106	-202.84
207.486	-181.53
207.866	-176.18
208.246	-143.51
208.626	-214.79
209.006	-280.51
209.386	-323.94
209.766	-300
210.145	-263.98
210.525	-380.6
210.905	-565.24
211.285	-545.32
211.664	-166.02
212.044	-870.3
212.424	-477.18
212.803	372.08
213.183	920.69
213.562	817.24
213.942	1565.75
214.321	-574.88
214.701	2797.67
215.08	4132.26
215.459	-1167.33
215.838	1202.36
216.218	230.3
216.597	224.17
216.976	354.69
217.355	2001.64
217.734	-1967.8
218.113	573.37
218.492	-7445.45
218.871	-348.65
219.25	-290.86
219.629	-622.69
220.008	-113.04
220.387	-128.03
220.766	-81.13
221.144	-61.8
221.523	-100.45
221.902	-48.01
222.28	-29.49
222.659	3.51
223.037	10.9
223.416	11.17
223.794	19.37
224.173	9.03
224.551	2.87
224.929	2.19
225.308	1.76
225.686	-0.07
226.064	-4.24
226.442	-7.49
226.821	-5.98
227.199	-7.71
227.577	-3.93
227.955	-5.34
228.333	-5.43
228.711	-2.72
229.089	1.51
229.467	-2.27
229.845	-4.81
230.222	-4.4
230.6	-10.06
230.978	-8.13
231.356	-10.46
231.733	-11.53
232.111	-10.56
232.488	-9.79
232.866	-7.75
233.243	-7.83
233.621	-6.87
233.998	-4.87
234.376	-0.94
234.753	-1.99
235.13	-3.01
235.508	-3.18
235.885	-0.4
236.262	0.57
236.639	-0.06
237.016	-0.7
237.393	2.26
237.77	3.67
238.147	3.19
238.524	4.57
238.901	3.16
239.278	4.33
239.655	4.48
240.032	4.42
240.409	4.95
240.785	4.95
241.162	5.8
241.539	5.73
241.915	5.54
242.292	5.18
242.668	4.97
243.045	5.8
243.421	6.25
243.798	6.39
244.174	6.4
244.551	6.83
244.927	6.61
245.303	6.11
245.679	6.25
246.056	6.15
246.432	6.04
246.808	6.39
247.184	6.56
247.56	6.38
247.936	6.45
248.312	6.48
248.688	6.41
249.064	6
249.44	5.88
249.815	5.75
250.191	5.54
250.567	5.46
250.943	5.55
251.318	5.27
251.694	4.85
252.069	4.61
252.445	4.27
252.82	4.53
253.196	4.54
253.571	4.74
253.947	4.68
254.322	4.88
254.697	4.62
255.073	4.27
255.448	4.75
255.823	5.01
256.198	4.82
256.573	5
256.948	5.32
257.323	5.72
257.698	6.02
258.073	5.91
258.448	6.19
258.823	5.82
259.198	5.89
259.573	6.06
259.948	6.31
260.322	6.2
260.697	6.17
261.072	6.3
261.446	6.1
261.821	6.22
262.195	6.18
262.57	6.31
262.944	6.45
263.319	6.3
263.693	6.08
264.067	6.14
264.442	5.87
264.816	5.62
265.19	5.4
265.564	5.15
265.938	5.35
266.313	5.08
266.687	5.1
267.061	4.96
267.435	4.84
267.809	4.47
268.183	4.58
268.556	4.44
268.93	4.56
269.304	4.42
269.678	4.38
270.051	4.52
270.425	4.52
270.799	4.27
271.172	4.36
271.546	4.51
271.919	4.47
272.293	4.67
272.666	4.7
273.04	4.76
273.413	4.95
273.787	5.02
274.16	5.05
274.533	5.2
274.906	5.34
275.279	5.29
275.653	5.44
276.026	5.45
276.399	5.57
276.772	5.62
277.145	5.76
277.518	5.91
277.891	5.64
278.263	5.66
278.636	5.98
279.009	6.12
279.382	6.01
279.755	5.97
280.127	5.93
280.5	6.05
280.872	6.01
281.245	5.77
281.617	5.41
281.99	5.49
282.362	5.43
282.735	5.28
283.107	5.3
283.479	5.43
283.852	5.5
284.224	5.49
284.596	5.41
284.968	5.56
285.34	5.55
285.713	5.64
286.085	5.68
286.457	5.5
286.829	5.4
287.201	5.37
287.572	5.37
287.944	5.49
288.316	5.53
288.688	5.65
289.06	5.77
289.431	5.97
289.803	5.96
290.175	5.97
290.546	6.21
290.918	6.24
291.289	6.05
291.661	6.28
292.032	6.16
292.403	6.21
292.775	6.22
293.146	6.27
293.517	6.32
293.889	6.25
294.26	6.41
294.631	6.53
295.002	6.77
295.373	7
295.744	6.93
296.115	7.04
296.486	7.16
296.857	7.32
297.228	7.53
297.599	7.61
297.97	7.78
298.34	7.76
298.711	7.94
299.082	8.21
299.452	8.08
299.823	8.33
300.194	8.31
300.564	8.32
300.935	8.41
301.305	8.43
301.676	8.58
302.046	8.67
302.416	8.7
302.787	8.71
303.157	8.69
303.527	9.04
303.897	9.12
304.267	9.06
304.637	9.1
305.008	9.18
305.378	9.23
305.748	9.16
306.117	9.23
306.487	9.36
306.857	9.48
307.227	9.69
307.597	9.82
307.967	10.05
308.336	10.03
308.706	10.21
309.076	10.4
309.445	10.67
309.815	10.73
310.184	10.79
310.554	10.92
310.923	11.02
311.293	10.88
311.662	11
312.031	11.04
312.401	11.06
312.77	11.04
313.139	11.22
313.508	11.5
313.877	11.58
314.246	11.63
314.616	11.58
314.985	11.61
315.353	11.65
315.722	11.77
316.091	12.02
316.46	11.92
316.829	12.12
317.198	12.02
317.567	12.1
317.935	12.07
318.304	12.16
318.672	12.23
319.041	12.46
319.41	12.3
319.778	12.56
320.147	12.74
320.515	13.03
320.883	13.05
321.252	12.96
321.62	13.11
321.988	13.22
322.357	13.33
322.725	13.38
323.093	13.41
323.461	13.58
323.829	13.57
324.197	13.74
324.565	13.65
324.933	13.74
325.301	13.83
325.669	13.93
326.037	13.94
326.405	14.02
326.772	14.09
327.14	14.34
327.508	14.24
327.875	14.18
328.243	14.02
328.61	14.01
328.978	14.13
329.346	14.06
329.713	14.19
330.08	14.42
330.448	14.51
330.815	14.58
331.182	14.56
331.55	14.55
331.917	14.58
332.284	14.75
332.651	14.85
333.018	15.08
333.385	15.28
333.752	15.37
334.119	15.45
334.486	15.55
334.853	15.54
335.22	15.54
335.587	15.67
335.954	15.71
336.32	15.78
336.687	15.82
337.054	16.02
337.42	15.93
337.787	15.93
338.153	15.95
338.52	16.14
338.886	16.08
339.253	16.23
339.619	16.36
339.986	16.42
340.352	16.53
340.718	16.53
341.084	16.62
341.451	16.6
341.817	16.57
342.183	16.53
342.549	16.71
342.915	17.01
343.281	17.02
343.647	17.17
344.013	17.28
344.379	17.27
344.745	17.29
345.11	17.41
345.476	17.56
345.842	17.63
346.208	17.73
346.573	17.85
346.939	17.85
347.304	17.96
347.67	18.01
348.035	17.95
348.401	17.95
348.766	18.07
349.132	18.3
349.497	18.53
349.862	18.57
350.228	18.47
350.593	18.36
350.958	18.55
351.323	18.54
351.688	18.61
352.053	18.83
352.418	18.81
352.783	18.96
353.148	18.97
353.513	18.95
353.878	18.85
354.243	18.87
354.608	19.03
354.972	18.99
355.337	19.04
355.702	19.11
356.066	19.15
356.431	19.08
356.795	19.04
357.16	19.02
357.524	19.12
357.889	19.2
358.253	19.28
358.618	19.31
358.982	19.37
359.346	19.45
359.71	19.47
360.075	19.53
360.439	19.53
360.803	19.5
361.167	19.57
361.531	19.68
361.895	19.7
362.259	19.72
362.623	19.74
362.987	19.74
363.351	19.75
363.714	19.81
364.078	19.91
364.442	19.94
364.806	20.02
365.169	20.01
365.533	20.1
365.896	20.17
366.26	20.15
366.623	20.17
366.987	20.15
367.35	20.11
367.714	20.2
368.077	20.17
368.44	20.23
368.803	20.36
369.167	20.25
369.53	20.3
369.893	20.27
370.256	20.28
370.619	20.32
370.982	20.34
371.345	20.38
371.708	20.36
372.071	20.41
372.434	20.39
372.797	20.35
373.159	20.28
373.522	20.2
373.885	20.22
374.247	20.23
374.61	20.25
374.973	20.31
375.335	20.28
375.698	20.27
376.06	20.24
376.423	20.13
376.785	20.24
377.147	20.26
377.51	20.21
377.872	20.14
378.234	20.14
378.596	20.07
378.958	20.06
379.321	20.08
379.683	20.01
380.045	19.94
380.407	20.03
380.769	20.04
381.13	20.02
381.492	19.96
381.854	19.99
382.216	19.96
382.578	19.99
382.939	19.94
383.301	19.89
383.663	19.86
384.024	19.86
384.386	19.79
384.747	19.73
385.109	19.8
385.47	19.82
385.832	19.75
386.193	19.75
386.554	19.66
386.916	19.65
387.277	19.61
387.638	19.63
387.999	19.59
388.36	19.57
388.721	19.63
389.082	19.68
389.443	19.62
389.804	19.54
390.165	19.42
390.526	19.4
390.887	19.39
391.248	19.35
391.609	19.38
391.969	19.43
392.33	19.44
392.691	19.41
393.051	19.32
393.412	19.3
393.772	19.3
394.133	19.31
394.493	19.26
394.854	19.27
395.214	19.22
395.574	19.14
395.935	19.11
396.295	18.99
396.655	18.93
397.015	18.88
397.376	18.88
397.736	18.89
398.096	18.82
398.456	18.77
398.816	18.76
399.176	18.62
399.535	18.49
399.895	18.4
400.255	18.3
400.615	18.31
400.975	18.26
401.334	18.21
401.694	18.13
402.054	18.08
402.413	18
402.773	17.94
403.132	17.9
403.492	17.8
403.851	17.76
404.211	17.68
404.57	17.64
404.929	17.6
405.288	17.55
405.648	17.51
406.007	17.48
406.366	17.43
406.725	17.4
407.084	17.43
407.443	17.41
407.802	17.4
408.161	17.38
408.52	17.36
408.879	17.31
409.238	17.3
409.596	17.27
409.955	17.27
410.314	17.27
410.673	17.24
411.031	17.29
411.39	17.26
411.748	17.24
412.107	17.19
412.465	17.12
412.824	17.09
413.182	17.1
413.54	17.13
413.899	17.14
414.257	17.13
414.615	17.05
414.974	17.02
415.332	16.99
415.69	16.93
416.048	16.91
416.406	16.84
416.764	16.81
417.122	16.73
417.48	16.7
417.838	16.67
418.195	16.62
418.553	16.58
418.911	16.52
419.269	16.48
419.626	16.44
419.984	16.41
420.342	16.37
420.699	16.29
421.057	16.19
421.414	16.13
421.772	16.08
422.129	16.02
422.486	15.96
422.844	15.92
423.201	15.89
423.558	15.83
423.915	15.79
424.273	15.72
424.63	15.67
424.987	15.59
425.344	15.52
425.701	15.47
426.058	15.4
426.415	15.35
426.772	15.29
427.128	15.25
427.485	15.21
427.842	15.16
428.199	15.14
428.555	15.09
428.912	15.05
429.269	15
429.625	14.97
429.982	14.92
430.338	14.87
430.695	14.81
431.051	14.81
431.407	14.79
431.764	14.79
432.12	14.79
432.476	14.8
432.832	14.78
433.189	14.79
433.545	14.8
433.901	14.8
434.257	14.79
434.613	14.77
434.969	14.76
435.325	14.76
435.681	14.77
436.036	14.8
436.392	14.83
436.748	14.88
437.104	14.89
437.459	14.92
437.815	14.98
438.171	15.01
438.526	15.01
438.882	15.05
439.237	15.07
439.593	15.11
439.948	15.12
440.304	15.16
440.659	15.16
441.014	15.17
441.369	15.18
441.725	15.2
442.08	15.21
442.435	15.2
442.79	15.2
443.145	15.16
443.5	15.16
443.855	15.12
444.21	15.08
444.565	15.07
444.92	15.05
445.275	15.02
445.629	14.97
445.984	14.96
446.339	14.91
446.693	14.85
447.048	14.81
447.403	14.79
447.757	14.73
448.112	14.7
448.466	14.67
448.82	14.64
449.175	14.63
449.529	14.58
449.883	14.56
450.238	14.53
450.592	14.5
450.946	14.46
451.3	14.44
451.654	14.4
452.008	14.37
452.362	14.34
452.716	14.27
453.07	14.26
453.424	14.21
453.778	14.19
454.132	14.19
454.486	14.17
454.839	14.14
455.193	14.11
455.547	14.1
455.9	14.1
456.254	14.08
456.607	14.02
456.961	14.04
457.314	14
457.668	13.98
458.021	13.96
458.375	13.94
458.728	13.95
459.081	13.96
459.434	13.99
459.787	13.99
460.141	14
460.494	14.01
460.847	14.05
461.2	14.06
461.553	14.09
461.906	14.12
462.259	14.15
462.611	14.23
462.964	14.26
463.317	14.29
463.67	14.33
464.022	14.41
464.375	14.47
464.728	14.57
465.08	14.67
465.433	14.81
465.785	14.89
466.138	14.95
466.49	15.06
466.843	15.12
467.195	15.21
467.547	15.28
467.899	15.36
468.252	15.44
468.604	15.54
468.956	15.61
469.308	15.7
469.66	15.78
470.012	15.85
470.364	15.96
470.716	16.11
471.068	16.21
471.42	16.31
471.772	16.39
472.123	16.43
472.475	16.49
472.827	16.55
473.178	16.65
473.53	16.73
473.882	16.78
474.233	16.84
474.585	16.9
474.936	16.99
475.288	17.04
475.639	17.09
475.99	17.13
476.342	17.17
476.693	17.16
477.044	17.2
477.395	17.21
477.746	17.22
478.097	17.18
478.448	17.15
478.8	17.13
479.15	17.09
479.501	17.08
479.852	17.06
480.203	17.03
480.554	16.97
480.905	16.94
481.255	16.89
481.606	16.87
481.957	16.84
482.307	16.8
482.658	16.76
483.009	16.7
483.359	16.67
483.709	16.63
484.06	16.6
484.41	16.56
484.761	16.53
485.111	16.48
485.461	16.45
485.811	16.41
486.162	16.4
486.512	16.38
486.862	16.36
487.212	16.32
487.562	16.29
487.912	16.28
488.262	16.26
488.612	16.25
488.961	16.22
489.311	16.18
489.661	16.16
490.011	16.16
490.36	16.18
490.71	16.2
491.06	16.2
491.409	16.23
491.759	16.27
492.108	16.31
492.458	16.39
492.807	16.44
493.157	16.53
493.506	16.57
493.855	16.63
494.204	16.71
494.554	16.83
494.903	16.95
495.252	17.07
495.601	17.2
495.95	17.35
496.299	17.5
496.648	17.68
496.997	17.84
497.346	18.04
497.695	18.24
498.043	18.4
498.392	18.59
498.741	18.78
499.09	18.93
499.438	19.11
499.787	19.27
500.135	19.47
500.484	19.7
500.832	19.96
501.181	20.19
501.529	20.42
501.878	20.65
502.226	20.88
502.574	21.09
502.923	21.31
503.271	21.58
503.619	21.85
503.967	22.09
504.315	22.38
504.663	22.63
505.011	22.89
505.359	23.15
505.707	23.45
506.055	23.74
506.403	24
506.751	24.27
507.098	24.58
507.446	24.81
507.794	25.04
508.141	25.26
508.489	25.52
508.837	25.75
509.184	26.02
509.531	26.26
509.879	26.5
510.226	26.76
510.574	27.02
510.921	27.25
511.268	27.47
511.616	27.71
511.963	27.95
512.31	28.17
512.657	28.44
513.004	28.68
513.351	28.91
513.698	29.22
514.045	29.47
514.392	29.72
514.739	30.02
515.086	30.32
515.432	30.57
515.779	30.85
516.126	31.11
516.473	31.36
516.819	31.63
517.166	31.87
517.512	32.08
517.859	32.24
518.205	32.43
518.552	32.66
518.898	32.86
519.245	33.04
519.591	33.25
519.937	33.44
520.283	33.63
520.629	33.81
520.976	33.99
521.322	34.18
521.668	34.39
522.014	34.58
522.36	34.73
522.706	34.95
523.052	35.2
523.398	35.4
523.743	35.63
524.089	35.88
524.435	36.15
524.781	36.36
525.126	36.54
525.472	36.77
525.817	36.93
526.163	37.07
526.509	37.23
526.854	37.37
527.199	37.47
527.545	37.6
527.89	37.73
528.235	37.84
528.581	37.97
528.926	38.08
529.271	38.22
529.616	38.36
529.961	38.49
530.306	38.59
530.651	38.76
530.996	38.91
531.341	39.03
531.686	39.14
532.031	39.27
532.376	39.45
532.721	39.56
533.065	39.72
533.41	39.89
533.755	40.03
534.099	40.15
534.444	40.31
534.788	40.46
535.133	40.6
535.477	40.78
535.822	40.96
536.166	41.15
536.51	41.32
536.855	41.51
537.199	41.7
537.543	41.9
537.887	42.1
538.231	42.29
538.576	42.5
538.92	42.7
539.264	42.92
539.608	43.1
539.951	43.3
540.295	43.46
540.639	43.63
540.983	43.8
541.327	44
541.671	44.17
542.014	44.32
542.358	44.46
542.701	44.63
543.045	44.77
543.389	44.89
543.732	45.02
544.075	45.18
544.419	45.38
544.762	45.53
545.105	45.68
545.449	45.83
545.792	46
546.135	46.15
546.478	46.31
546.821	46.5
547.165	46.66
547.508	46.85
547.851	47.05
548.194	47.19
548.536	47.33
548.879	47.53
549.222	47.73
549.565	47.93
549.908	48.06
550.25	48.23
550.593	48.44
550.936	48.66
551.278	48.81
551.621	48.93
551.963	49.06
552.306	49.16
552.648	49.31
552.991	49.41
553.333	49.65
553.675	49.84
554.017	50.01
554.36	50.09
554.702	50.17
555.044	50.25
555.386	50.37
555.728	50.48
556.07	50.55
556.412	50.63
556.754	50.73
557.096	50.87
557.438	50.99
557.78	51.16
558.121	51.28
558.463	51.37
558.805	51.57
559.147	51.77
559.488	51.87
559.83	52
560.171	52.13
560.513	52.17
560.854	52.29
561.196	52.28
561.537	52.43
561.878	52.59
562.22	52.67
562.561	52.73
562.902	52.88
563.243	53.06
563.584	53.19
563.925	53.28
564.266	53.38
564.607	53.36
564.948	53.32
565.289	53.33
565.63	53.35
565.971	53.38
566.312	53.31
566.653	53.48
566.993	53.52
567.334	53.63
567.675	53.69
568.015	53.72
568.356	53.9
568.696	53.97
569.037	54.03
569.377	54.17
569.718	54.31
570.058	54.39
570.398	54.42
570.739	54.45
571.079	54.52
571.419	54.54
571.759	54.68
572.099	54.78
572.439	54.88
572.779	55.02
573.119	55.04
573.459	55.21
573.799	55.23
574.139	55.27
574.479	55.3
574.819	55.39
575.158	55.39
575.498	55.35
575.838	55.43
576.177	55.46
576.517	55.49
576.856	55.45
577.196	55.52
577.535	55.56
577.875	55.65
578.214	55.74
578.553	55.84
578.893	55.92
579.232	56.02
579.571	56.1
579.91	56.13
580.25	56.16
580.589	56.21
580.928	56.29
581.267	56.4
581.606	56.41
581.945	56.54
582.283	56.61
582.622	56.68
582.961	56.69
583.3	56.73
583.639	56.73
583.977	56.79
584.316	56.78
584.654	56.83
584.993	56.83
585.332	56.84
585.67	56.76
586.008	56.73
586.347	56.76
586.685	56.76
587.024	56.72
587.362	56.75
587.7	56.8
588.038	56.84
588.376	56.84
588.715	56.86
589.053	56.81
589.391	56.86
589.729	56.93
590.067	57
590.404	57.03
590.742	57.1
591.08	57.24
591.418	57.26
591.756	57.33
592.093	57.26
592.431	57.28
592.769	57.31
593.106	57.39
593.444	57.41
593.781	57.43
594.119	57.54
594.456	57.61
594.793	57.52
595.131	57.5
595.468	57.52
595.805	57.59
596.143	57.61
596.48	57.64
596.817	57.63
597.154	57.63
597.491	57.64
597.828	57.7
598.165	57.63
598.502	57.71
598.839	57.64
599.176	57.66
599.512	57.65
599.849	57.68
600.186	57.7
600.523	57.78
600.859	57.86
601.196	57.87
601.532	57.88
601.869	58.05
602.205	58.12
602.542	58.14
602.878	58.23
603.215	58.19
603.551	58.18
603.887	58.15
604.223	58.17
604.56	58.21
604.896	58.16
605.232	58.19
605.568	58.17
605.904	58.24
606.24	58.39
606.576	58.42
606.912	58.47
607.248	58.46
607.583	58.37
607.919	58.31
608.255	58.39
608.591	58.4
608.926	58.29
609.262	58.35
609.597	58.36
609.933	58.33
610.268	58.39
610.604	58.47
610.939	58.53
611.275	58.54
611.61	58.63
611.945	58.65
612.281	58.66
612.616	58.64
612.951	58.63
613.286	58.55
613.621	58.58
613.956	58.59
614.291	58.64
614.626	58.63
614.961	58.65
615.296	58.51
615.631	58.61
615.966	58.68
616.3	58.59
616.635	58.59
616.97	58.53
617.304	58.62
617.639	58.68
617.973	58.69
618.308	58.7
618.642	58.63
618.977	58.71
619.311	58.76
619.646	58.81
619.98	58.84
620.314	58.87
620.648	58.93
620.983	58.95
621.317	59.03
621.651	59.19
621.985	59.29
622.319	59.39
622.653	59.42
622.987	59.57
623.321	59.52
623.655	59.62
623.988	59.68
624.322	59.66
624.656	59.63
624.99	59.62
625.323	59.6
625.657	59.65
625.99	59.68
626.324	59.74
626.657	59.74
626.991	59.71
627.324	59.72
627.658	59.75
627.991	59.82
628.324	59.75
628.657	59.79
628.991	59.77
629.324	59.71
629.657	59.75
629.99	59.64
630.323	59.72
630.656	59.65
630.989	59.66
631.322	59.64
631.655	59.62
631.987	59.74
632.32	59.87
632.653	59.91
632.986	59.91
633.318	59.87
633.651	59.9
633.984	60
634.316	59.99
634.649	59.94
634.981	60.06
635.313	60.16
635.646	60.04
635.978	60.06
636.31	60.09
636.643	60.07
636.975	59.99
637.307	59.95
637.639	59.98
637.971	59.96
638.303	59.94
638.635	59.95
638.967	60.02
639.299	59.94
639.631	59.94
639.963	59.88
640.295	59.82
640.626	59.81
640.958	59.75
641.29	59.7
641.621	59.69
641.953	59.5
642.285	59.52
642.616	59.59
642.948	59.6
643.279	59.61
643.61	59.51
643.942	59.73
644.273	59.75
644.604	59.69
644.936	59.79
645.267	59.74
645.598	59.67
645.929	59.54
646.26	59.44
646.591	59.38
646.922	59.41
647.253	59.61
647.584	59.63
647.915	59.6
648.245	59.68
648.576	59.72
648.907	59.72
649.238	59.62
649.568	59.64
649.899	59.6
650.229	59.65
650.56	59.73
650.89	59.76
651.221	59.72
651.551	59.88
651.882	59.8
652.212	59.87
652.542	59.91
652.872	59.94
653.203	60.07
653.533	60.11
653.863	60.15
654.193	59.88
654.523	59.73
654.853	59.77
655.183	59.84
655.513	59.8
655.843	59.88
656.172	59.94
656.502	59.98
656.832	60.13
657.162	59.99
657.491	59.9
657.821	59.8
658.15	59.88
658.48	59.87
658.809	59.86
659.139	59.88
659.468	59.99
659.798	60.08
660.127	59.97
660.456	60.03
660.785	60.06
661.115	60.18
661.444	60.3
661.773	60.22
662.102	60.17
662.431	60.22
662.76	60.22
663.089	60.28
663.418	60.3
663.747	60.24
664.076	60.42
664.404	60.58
664.733	60.62
665.062	60.54
665.39	60.59
665.719	60.77
666.048	60.86
666.376	60.77
666.705	60.72
667.033	60.88
667.362	60.85
667.69	60.84
668.018	60.94
668.347	60.9
668.675	61.01
669.003	61.08
669.331	61.18
669.659	61.1
669.987	61.05
670.315	61.05
670.643	61.06
670.971	61.07
671.299	61.01
671.627	61.05
671.955	61.21
672.283	61.18
672.61	61.08
672.938	61.07
673.266	61.09
673.593	61.04
673.921	60.88
674.249	60.74
674.576	60.72
674.904	60.79
675.231	60.94
675.558	61.01
675.886	60.94
676.213	60.89
676.54	61
676.867	61.01
677.195	61.03
677.522	61.05
677.849	61.11
678.176	61.07
678.503	61.05
678.83	60.89
679.157	60.94
679.484	60.99
679.81	60.92
680.137	60.88
680.464	60.84
680.791	61.01
681.117	61.16
681.444	61.13
681.771	61.14
682.097	60.94
682.424	61.05
682.75	61.06
683.077	61.25
683.403	61.28
683.729	61.24
684.056	61.08
684.382	60.98
684.708	60.98
685.034	61.03
685.36	61.03
685.686	61.11
686.012	61.06
686.339	61.07
686.664	61.19
686.99	61.27
687.316	61.24
687.642	61.23
687.968	61.13
688.294	61.22
688.619	61
688.945	61.17
689.271	61.08
689.596	61.1
689.922	60.92
690.247	60.89
690.573	60.88
690.898	61.08
691.224	61.02
691.549	60.99
691.874	61.17
692.2	61.15
692.525	61.2
692.85	61.07
693.175	60.93
693.5	60.75
693.825	60.68
694.15	60.74
694.475	60.69
694.8	60.83
695.125	60.71
695.45	60.92
695.775	60.91
696.099	60.92
696.424	61.12
696.749	61.23
697.073	61.2
697.398	61.22
697.723	61.1
698.047	61.15
698.372	61.19
698.696	61.04
699.02	61.11
699.345	61
699.669	61.21
699.993	61.27
700.318	61.41
700.642	61.56
700.966	61.68
701.29	61.79
701.614	61.59
701.938	61.71
702.262	61.73
702.586	61.73
702.91	61.63
703.234	61.46
703.557	61.4
703.881	61.51
704.205	61.55
704.529	61.58
704.852	61.6
705.176	61.55
705.499	61.5
705.823	61.41
706.146	61.55
706.47	61.3
706.793	61.25
707.117	61.28
707.44	61.23
707.763	61.16
708.086	61.11
708.409	61.42
708.733	61.28
709.056	61.35
709.379	61.56
709.702	61.75
710.025	61.72
710.348	61.74
710.671	61.6
710.993	61.48
711.316	61.6
711.639	61.74
711.962	61.69
712.284	61.68
712.607	61.83
712.93	61.91
713.252	61.89
713.575	61.82
713.897	61.92
714.22	61.92
714.542	61.98
714.864	61.72
715.187	61.6
715.509	61.72
715.831	61.53
716.153	61.35
716.475	61.38
716.798	61.59
717.12	61.53
717.442	61.56
717.764	61.81
718.085	61.8
718.407	61.89
718.729	61.95
719.051	62.14
719.373	61.84
719.695	61.68
720.016	61.75
720.338	61.94
720.659	61.65
720.981	61.59
721.302	61.52
721.624	61.71
721.945	61.96
722.267	62.01
722.588	61.93
722.909	61.97
723.231	62.06
723.552	61.9
723.873	61.98
724.194	62.12
724.515	61.91
724.836	61.64
725.157	61.45
725.478	61.69
725.799	61.6
726.12	61.98
726.441	62.07
726.762	62.35
727.083	62.34
727.403	62.6
727.724	62.78
728.045	62.91
728.365	63.05
728.686	62.83
729.006	62.67
729.327	62.87
729.647	62.97
729.967	62.9
730.288	62.71
730.608	62.65
730.928	62.7
731.249	62.8
731.569	63
731.889	63.15
732.209	63.06
732.529	62.99
732.849	62.79
733.169	62.79
733.489	62.71
733.809	62.92
734.129	62.95
734.448	62.83
734.768	62.76
735.088	62.79
735.408	62.8
735.727	63.08
736.047	63.07
736.366	63.14
736.686	62.95
737.005	63.21
737.325	63.2
737.644	63.31
737.963	63.35
738.283	62.92
738.602	62.84
738.921	62.57
739.24	62.75
739.56	62.64
739.879	62.46
740.198	62.05
740.517	61.85
740.836	61.53
741.155	61.74
741.473	61.6
741.792	61.54
742.111	61.86
742.43	61.61
742.748	61.58
743.067	61.29
743.386	61.37
743.704	61.15
744.023	61.31
744.341	60.86
744.66	60.39
744.978	60.91
745.297	60.64
745.615	60.88
745.933	60.65
746.252	60.86
746.57	61.04
746.888	61.69
747.206	61.62
747.524	61.78
747.842	61.35
748.16	61.66
748.478	61.67
748.796	61.16
749.114	61.02
749.432	61.08
749.749	60.92
750.067	61.1
750.385	61.53
750.703	61.32
751.02	61.51
751.338	62
751.655	61.85
751.973	62.46
752.29	62.46
752.608	62.45
752.925	62.55
753.242	62.65
753.56	62.24
753.877	62.3
754.194	62.29
754.511	62.52
754.828	62.11
755.145	61.65
755.462	61.94
755.779	62.09
756.096	62.21
756.413	62.61
756.73	62.49
757.047	62.29
757.364	62.41
757.68	62.61
757.997	62.61
758.314	62.95
758.63	62.66
758.947	63.12
759.264	63.18
759.58	63.47
759.896	63.55
760.213	64.09
760.529	64.38
760.846	64.59
761.162	64.63
761.478	64.78
761.794	64.96
762.11	64.93
762.426	65.07
762.743	64.94
763.059	65.24
763.375	65.3
763.69	65.44
764.006	65.29
764.322	65.2
764.638	65.3
764.954	65.02
765.27	65.1
765.585	64.7
765.901	64.79
766.216	64.59
766.532	64.32
766.848	63.72
767.163	63.58
767.478	63.33
767.794	63.28
768.109	62.91
768.424	62.99
768.74	62.8
769.055	63.03
769.37	62.98
769.685	62.47
770	62.5
770.315	62.25
770.63	62.65
770.945	62.79
771.26	62.45
771.575	62.79
771.89	62.25
772.205	62.67
772.52	62.51
772.834	62.61
773.149	62.75
773.464	62.75
773.778	63.04
774.093	62.99
774.407	62.75
774.722	63.41
775.036	63.29
775.351	64.23
775.665	64.09
775.979	64.19
776.293	64.48
776.608	64.41
776.922	64.34
777.236	63.75
777.55	63.66
777.864	63.65
778.178	63.47
778.492	64.43
778.806	64.11
779.12	64.48
779.434	64.04
779.747	64.1
780.061	64.72
780.375	64.32
780.689	64.37
781.002	65.05
781.316	64.85
781.629	64.6
781.943	63.99
782.256	63.59
782.57	63.84
782.883	63.89
783.196	63.3
783.51	63.41
783.823	63.77
784.136	63.5
784.449	63.88
784.762	63.4
785.075	62.59
785.388	62.11
785.701	62.38
786.014	63.1
786.327	63.23
786.64	63.08
786.953	62.97
787.266	62.89
787.578	61.8
787.891	62.17
788.204	62.38
788.516	61.74
788.829	61.64
789.141	61.21
789.454	60.87
789.766	61.08
790.079	61.27
790.391	61.07
790.703	61.05
791.016	60.79
791.328	61.29
791.64	60.98
791.952	61.71
792.264	61.58
792.576	60.97
792.888	61.39
793.2	61.32
793.512	60.94
793.824	61.33
794.136	61.96
794.448	61.55
794.76	61.5
795.071	61.87
795.383	62.66
795.695	63.06
796.006	62.89
796.318	62.82
796.629	62.68
796.941	63.3
797.252	63.74
797.564	64
797.875	63.72
798.186	64.23
798.497	63.82
798.809	64.1
799.12	64.19
799.431	63.04
799.742	63.05
800.053	63.76
800.364	63.62
800.675	63.7
800.986	63.91
801.297	64.33
801.608	64.68
801.918	64.37
802.229	64.32
802.54	64.8
802.851	65.33
803.161	65.7
803.472	64.85
803.782	64.88
804.093	64.25
804.403	64.21
804.714	63.8
805.024	63.52
805.334	62.55
805.645	62.81
805.955	62.91
806.265	63.42
806.575	63.06
806.885	62.77
807.195	62.55
807.505	61.59
807.815	61.72
808.125	61.3
808.435	61.31
808.745	60.87
809.055	60.56
809.365	59.79
809.674	59.42
809.984	59.24
810.294	58.97
810.603	59.55
810.913	59.48
811.222	59.88
811.532	60.96
811.841	61.87
812.151	61.18
812.46	62.15
812.769	60.91
813.079	60.62
813.388	60.2
813.697	60.31
814.006	62.15
814.315	62.1
814.624	62.07
814.933	61.02
815.242	61.73
815.551	62.05
815.86	62.38
816.169	62.11
816.478	62.69
816.786	62.77
817.095	62.36
817.404	62.84
817.712	63.26
818.021	62.76
818.33	63.19
818.638	63.57
818.947	63.91
819.255	64.64
819.563	65.12
819.872	65.41
820.18	65.48
820.488	65.07
820.796	65.21
821.105	65.52
821.413	66.2
821.721	66.14
822.029	65.91
822.337	65.95
822.645	65.82
822.953	65.9
823.26	65.77
823.568	65.96
823.876	65.88
824.184	65.69
824.491	65.75
824.799	65.8
825.107	65.79
825.414	65.84
825.722	65.84
826.029	66.04
826.337	66.14
826.644	65.8
826.951	65.91
827.259	65.65
827.566	65.57
827.873	65.37
828.18	65.27
828.488	65.53
828.795	65.47
829.102	65.62
829.409	65.41
829.716	65.45
830.023	65.04
830.329	65.14
830.636	65.59
830.943	65.53
831.25	65.09
831.557	65.66
831.863	65.14
832.17	64.87
832.476	64.55
832.783	64.16
833.089	64.42
833.396	64.63
833.702	65.21
834.009	65.51
834.315	65.2
834.621	65.89
834.928	65.4
835.234	65.83
835.54	66.22
835.846	66.22
836.152	66.59
836.458	67.32
836.764	67.38
837.07	67.45
837.376	67.79
837.682	67.42
837.988	67.18
838.293	67.35
838.599	68.23
838.905	67.76
839.211	67.91
839.516	69.48
839.822	68.75
840.127	68.65
840.433	67.37
840.738	67.05
841.044	65.75
841.349	66.55
841.654	65.48
841.959	65.37
842.265	65.65
842.57	65.21
842.875	65.01
843.18	64.37
843.485	63.01
843.79	61.12
844.095	60.96
844.4	59.45
844.705	59.87
845.01	58.59
845.315	58.99
845.619	60.38
845.924	59.44
846.229	60.7
846.533	61.72
846.838	64.17
847.142	65.82
847.447	64.99
847.751	64.91
848.056	65.05
848.36	62.68
848.664	64
848.969	64.87
849.273	63.72
849.577	61.92
849.881	63.14
850.185	63.59
850.489	64.56
850.794	65.52
851.097	63.38
851.401	62.18
851.705	60.67
852.009	57.68
852.313	56.63
852.617	56.08
852.92	53.31
853.224	49.97
853.528	48.76
853.831	52.11
854.135	49.06
854.438	49.02
854.742	51.71
855.045	50.94
855.349	48.82
855.652	48.44
855.955	52.08
856.259	50.33
856.562	50.65
856.865	50.11
857.168	50.26
857.471	53.68
857.774	53.6
858.077	55.5
858.38	57.12
858.683	57.3
858.986	57.01
859.289	59.68
859.592	64.25
859.894	64.34
860.197	62.66
860.5	64.08
860.802	64.34
861.105	60.81
861.407	58.19
861.71	60.19
862.012	60.17
862.315	59.2
862.617	59.67
862.919	59.9
863.222	61.39
863.524	63.03
863.826	61.25
864.128	65.04
864.43	65.89
864.732	66.95
865.034	65.26
865.336	64.36
865.638	62.37
865.94	60.39
866.242	61.07
866.544	59.24
866.846	61.28
867.147	63.64
867.449	66.14
867.751	66.47
868.052	66.27
868.354	68.5
868.655	69.37
868.957	70.68
869.258	69.98
869.56	66.52
869.861	63.63
870.162	64.58
870.463	62.57
870.765	61.27
871.066	59.23
871.367	60.69
871.668	62.17
871.969	63.2
872.27	61.45
872.571	61.76
872.872	59.86
873.173	58.89
873.473	56.84
873.774	55.18
874.075	57.15
874.376	55.31
874.676	54.87
874.977	54.64
875.277	54.45
875.578	56.2
875.878	57.51
876.179	58.85
876.479	57.69
876.78	57.51
877.08	56.75
877.38	58.39
877.68	58.8
877.981	56.54
878.281	55.12
878.581	56.61
