Data from MVZ_BU136690_Reflection_00008.txt Node
Date: Tue Nov 19 12:08:03 EST 2019
User: vgr7
Spectrometer: USB2G7710
Scans to average: 3
Trigger mode: 4
Integration Time (sec): 2.000000E-2
Electric dark correction enabled: true
Boxcar width: 10
XAxis mode: Wavelengths
Number of Pixels in Spectrum: 2048
>>>>>Begin Spectral Data<<<<<
177.721	33.57
178.105	19.71
178.488	218.64
178.871	85.71
179.254	81.82
179.636	48.62
180.019	63.3
180.402	100
180.785	-814.29
181.168	-199.07
181.55	-67.32
181.933	-32.7
182.316	-123.59
182.698	-101.44
183.081	-272.09
183.463	-217.16
183.846	-156.88
184.228	-410.87
184.611	1154.35
184.993	473.08
185.376	-1704.88
185.758	1193.41
186.14	608.57
186.522	2448.84
186.904	2775
187.287	1295.12
187.669	541.46
188.051	1258.54
188.433	1185.37
188.815	1582.76
189.197	502.6
189.579	175.47
189.961	115.35
190.342	98.57
190.724	104.83
191.106	109.45
191.488	105.63
191.869	77.76
192.251	82.76
192.633	96.6
193.014	77.66
193.396	87.8
193.777	70.59
194.159	107.32
194.54	79.97
194.922	72.74
195.303	96.27
195.684	78.16
196.065	71.89
196.447	78.26
196.828	85.1
197.209	89.41
197.59	119.57
197.971	103.4
198.352	107.53
198.733	95.92
199.114	78.54
199.495	132.98
199.876	236.72
200.257	231.15
200.638	176.18
201.018	195.37
201.399	161.83
201.78	150.27
202.16	163.04
202.541	199.48
202.922	264.26
203.302	229.15
203.683	517.24
204.063	455.17
204.444	355.62
204.824	508.7
205.204	242.66
205.585	373.71
205.965	387.45
206.345	422.27
206.725	342.54
207.106	293.95
207.486	201.82
207.866	214.12
208.246	301.63
208.626	345.17
209.006	711.49
209.386	426.92
209.766	623.08
210.145	244.74
210.525	319.15
210.905	208.52
211.285	200.24
211.664	154.92
212.044	166.1
212.424	170.22
212.803	181.62
213.183	162.6
213.562	131.14
213.942	153.52
214.321	153.19
214.701	170.19
215.08	154.33
215.459	146.51
215.838	111.67
216.218	130.5
216.597	134.29
216.976	120.64
217.355	139.08
217.734	132.95
218.113	136.62
218.492	117.78
218.871	116.78
219.25	89.12
219.629	81.74
220.008	107.17
220.387	109.29
220.766	88.32
221.144	116.49
221.523	113.25
221.902	100.84
222.28	83.19
222.659	95.17
223.037	83.74
223.416	70.33
223.794	87.74
224.173	63.53
224.551	54.94
224.929	51.34
225.308	44.37
225.686	33.09
226.064	37.39
226.442	36.12
226.821	33.83
227.199	34.28
227.577	30.41
227.955	22.85
228.333	17.09
228.711	15.03
229.089	14.09
229.467	14.2
229.845	16.56
230.222	13.89
230.6	6.44
230.978	8.24
231.356	12.99
231.733	10.71
232.111	11.69
232.488	12.25
232.866	12.02
233.243	11.65
233.621	14.66
233.998	13.19
234.376	15.67
234.753	14.26
235.13	14.36
235.508	13.8
235.885	13.71
236.262	14.82
236.639	14.57
237.016	13.45
237.393	12.41
237.77	11.97
238.147	13.39
238.524	14.61
238.901	12.79
239.278	10.35
239.655	9.6
240.032	9.3
240.409	8.94
240.785	9.32
241.162	8.89
241.539	9.26
241.915	8.81
242.292	8.37
242.668	8.1
243.045	8.04
243.421	7.97
243.798	7.93
244.174	7.62
244.551	7.55
244.927	7.21
245.303	7.09
245.679	6.87
246.056	6.76
246.432	6.55
246.808	6.78
247.184	7.2
247.56	7.05
247.936	7.19
248.312	6.95
248.688	6.83
249.064	6.57
249.44	6.24
249.815	6.36
250.191	6.21
250.567	6.45
250.943	6.54
251.318	6.55
251.694	6.5
252.069	6.5
252.445	6.44
252.82	6.91
253.196	6.95
253.571	6.91
253.947	6.53
254.322	6.29
254.697	5.92
255.073	5.73
255.448	5.63
255.823	5.36
256.198	5.34
256.573	5.32
256.948	5.36
257.323	5.52
257.698	5.53
258.073	5.44
258.448	5.17
258.823	5.05
259.198	5.07
259.573	5.06
259.948	5.17
260.322	5.24
260.697	5.22
261.072	5.17
261.446	5.2
261.821	5.17
262.195	5.01
262.57	5.06
262.944	4.89
263.319	4.89
263.693	4.94
264.067	5.05
264.442	4.92
264.816	5.11
265.19	4.96
265.564	4.8
265.938	4.91
266.313	4.77
266.687	4.74
267.061	4.55
267.435	4.64
267.809	4.47
268.183	4.3
268.556	4.08
268.93	4.14
269.304	4.11
269.678	4.4
270.051	4.64
270.425	4.51
270.799	4.55
271.172	4.68
271.546	4.72
271.919	4.63
272.293	4.57
272.666	4.5
273.04	4.61
273.413	4.68
273.787	4.51
274.16	4.65
274.533	4.75
274.906	4.86
275.279	4.83
275.653	4.85
276.026	5.06
276.399	5.07
276.772	5.21
277.145	5.21
277.518	5.04
277.891	5.01
278.263	5.29
278.636	5.39
279.009	5.39
279.382	5.32
279.755	5.4
280.127	5.44
280.5	5.4
280.872	5.54
281.245	5.47
281.617	5.45
281.99	5.45
282.362	5.38
282.735	5.43
283.107	5.34
283.479	5.41
283.852	5.33
284.224	5.43
284.596	5.35
284.968	5.14
285.34	5.11
285.713	5.17
286.085	4.99
286.457	4.98
286.829	4.96
287.201	5.09
287.572	5.15
287.944	5.27
288.316	5.24
288.688	5.1
289.06	5.07
289.431	5.12
289.803	5.16
290.175	5.09
290.546	5.01
290.918	5.02
291.289	4.87
291.661	4.85
292.032	4.92
292.403	4.96
292.775	5.15
293.146	5.26
293.517	5.31
293.889	5.45
294.26	5.49
294.631	5.56
295.002	5.45
295.373	5.51
295.744	5.44
296.115	5.68
296.486	5.76
296.857	5.88
297.228	6.01
297.599	6.1
297.97	6.22
298.34	6.54
298.711	6.66
299.082	6.75
299.452	6.68
299.823	6.67
300.194	6.77
300.564	6.91
300.935	7.01
301.305	7.11
301.676	7
302.046	7.04
302.416	7.2
302.787	7.43
303.157	7.48
303.527	7.66
303.897	7.52
304.267	7.54
304.637	7.65
305.008	7.57
305.378	7.56
305.748	7.57
306.117	7.36
306.487	7.42
306.857	7.54
307.227	7.82
307.597	7.92
307.967	7.83
308.336	7.71
308.706	7.79
309.076	7.83
309.445	7.98
309.815	8.1
310.184	8.14
310.554	8.2
310.923	8.17
311.293	8.21
311.662	8.41
312.031	8.42
312.401	8.34
312.77	8.58
313.139	8.61
313.508	8.78
313.877	8.81
314.246	8.87
314.616	9.04
314.985	9.1
315.353	9.08
315.722	9.35
316.091	9.45
316.46	9.5
316.829	9.62
317.198	9.8
317.567	9.86
317.935	9.73
318.304	9.87
318.672	10.05
319.041	10.3
319.41	10.37
319.778	10.66
320.147	10.88
320.515	10.82
320.883	10.96
321.252	11.02
321.62	11.26
321.988	11.26
322.357	11.32
322.725	11.55
323.093	11.71
323.461	11.69
323.829	11.81
324.197	11.75
324.565	11.69
324.933	11.59
325.301	11.64
325.669	11.91
326.037	11.84
326.405	11.68
326.772	11.5
327.14	11.52
327.508	11.38
327.875	11.48
328.243	11.49
328.61	11.54
328.978	11.6
329.346	11.6
329.713	11.68
330.08	11.71
330.448	11.56
330.815	11.54
331.182	11.49
331.55	11.57
331.917	11.74
332.284	11.85
332.651	11.92
333.018	11.77
333.385	11.89
333.752	11.97
334.119	12.14
334.486	12.11
334.853	11.99
335.22	12.13
335.587	12.11
335.954	12.19
336.32	12.13
336.687	12.12
337.054	12.02
337.42	11.99
337.787	12.04
338.153	12.04
338.52	12.11
338.886	12.1
339.253	12.19
339.619	12.16
339.986	12.11
340.352	12.26
340.718	12.38
341.084	12.3
341.451	12.19
341.817	12.13
342.183	12.29
342.549	12.48
342.915	12.57
343.281	12.61
343.647	12.65
344.013	12.59
344.379	12.53
344.745	12.59
345.11	12.63
345.476	12.64
345.842	12.74
346.208	12.7
346.573	12.78
346.939	12.69
347.304	12.75
347.67	12.75
348.035	12.71
348.401	12.69
348.766	12.62
349.132	12.7
349.497	12.81
349.862	12.77
350.228	12.62
350.593	12.58
350.958	12.51
351.323	12.47
351.688	12.62
352.053	12.66
352.418	12.72
352.783	12.77
353.148	12.76
353.513	12.6
353.878	12.64
354.243	12.57
354.608	12.6
354.972	12.52
355.337	12.57
355.702	12.47
356.066	12.51
356.431	12.5
356.795	12.49
357.16	12.43
357.524	12.4
357.889	12.45
358.253	12.4
358.618	12.34
358.982	12.24
359.346	12.08
359.71	12.05
360.075	12.03
360.439	11.95
360.803	11.97
361.167	12.01
361.531	11.97
361.895	11.97
362.259	11.9
362.623	11.9
362.987	11.81
363.351	11.75
363.714	11.75
364.078	11.77
364.442	11.63
364.806	11.64
365.169	11.61
365.533	11.61
365.896	11.58
366.26	11.51
366.623	11.51
366.987	11.57
367.35	11.56
367.714	11.42
368.077	11.4
368.44	11.25
368.803	11.13
369.167	11.01
369.53	10.92
369.893	10.9
370.256	10.79
370.619	10.76
370.982	10.73
371.345	10.58
371.708	10.46
372.071	10.45
372.434	10.32
372.797	10.22
373.159	10.08
373.522	9.95
373.885	9.89
374.247	9.84
374.61	9.7
374.973	9.59
375.335	9.53
375.698	9.29
376.06	9.17
376.423	9.12
376.785	9.01
377.147	8.93
377.51	8.81
377.872	8.76
378.234	8.68
378.596	8.59
378.958	8.61
379.321	8.54
379.683	8.48
380.045	8.41
380.407	8.37
380.769	8.27
381.13	8.22
381.492	8.15
381.854	7.96
382.216	7.9
382.578	7.88
382.939	7.77
383.301	7.82
383.663	7.73
384.024	7.68
384.386	7.64
384.747	7.61
385.109	7.56
385.47	7.47
385.832	7.38
386.193	7.33
386.554	7.16
386.916	7.11
387.277	7.03
387.638	6.98
387.999	6.93
388.36	6.87
388.721	6.82
389.082	6.83
389.443	6.86
389.804	6.85
390.165	6.78
390.526	6.77
390.887	6.7
391.248	6.69
391.609	6.69
391.969	6.67
392.33	6.65
392.691	6.63
393.051	6.59
393.412	6.56
393.772	6.54
394.133	6.57
394.493	6.52
394.854	6.52
395.214	6.47
395.574	6.36
395.935	6.33
396.295	6.29
396.655	6.21
397.015	6.18
397.376	6.1
397.736	6.05
398.096	5.99
398.456	5.93
398.816	5.88
399.176	5.79
399.535	5.74
399.895	5.63
400.255	5.57
400.615	5.55
400.975	5.52
401.334	5.46
401.694	5.39
402.054	5.33
402.413	5.26
402.773	5.23
403.132	5.26
403.492	5.23
403.851	5.22
404.211	5.21
404.57	5.2
404.929	5.17
405.288	5.16
405.648	5.14
406.007	5.15
406.366	5.09
406.725	5.05
407.084	5.05
407.443	5.08
407.802	5.03
408.161	5.02
408.52	4.98
408.879	4.97
409.238	4.98
409.596	4.98
409.955	4.97
410.314	4.94
410.673	4.92
411.031	4.88
411.39	4.85
411.748	4.79
412.107	4.75
412.465	4.75
412.824	4.72
413.182	4.7
413.54	4.69
413.899	4.72
414.257	4.7
414.615	4.69
414.974	4.65
415.332	4.68
415.69	4.63
416.048	4.63
416.406	4.6
416.764	4.53
417.122	4.49
417.48	4.49
417.838	4.46
418.195	4.43
418.553	4.43
418.911	4.41
419.269	4.38
419.626	4.37
419.984	4.34
420.342	4.32
420.699	4.28
421.057	4.24
421.414	4.23
421.772	4.2
422.129	4.16
422.486	4.14
422.844	4.09
423.201	4.09
423.558	4.07
423.915	4.05
424.273	4.05
424.63	4.04
424.987	4.03
425.344	4.01
425.701	4
426.058	3.98
426.415	3.97
426.772	3.97
427.128	3.96
427.485	3.97
427.842	3.97
428.199	4
428.555	4.01
428.912	4.01
429.269	4.03
429.625	4.03
429.982	4.05
430.338	4.06
430.695	4.03
431.051	4.02
431.407	4.03
431.764	4.03
432.12	4.04
432.476	4.04
432.832	4.06
433.189	4.07
433.545	4.06
433.901	4.06
434.257	4.06
434.613	4.05
434.969	4.03
435.325	4.03
435.681	4
436.036	4
436.392	4
436.748	3.97
437.104	3.97
437.459	3.95
437.815	3.94
438.171	3.94
438.526	3.93
438.882	3.94
439.237	3.95
439.593	3.96
439.948	3.96
440.304	3.96
440.659	3.96
441.014	3.98
441.369	3.97
441.725	3.97
442.08	3.98
442.435	3.98
442.79	3.96
443.145	3.96
443.5	3.95
443.855	3.92
444.21	3.94
444.565	3.94
444.92	3.93
445.275	3.92
445.629	3.91
445.984	3.9
446.339	3.89
446.693	3.87
447.048	3.84
447.403	3.81
447.757	3.8
448.112	3.78
448.466	3.75
448.82	3.74
449.175	3.72
449.529	3.7
449.883	3.68
450.238	3.68
450.592	3.67
450.946	3.66
451.3	3.68
451.654	3.66
452.008	3.66
452.362	3.66
452.716	3.65
453.07	3.65
453.424	3.64
453.778	3.62
454.132	3.61
454.486	3.62
454.839	3.64
455.193	3.64
455.547	3.65
455.9	3.65
456.254	3.65
456.607	3.64
456.961	3.66
457.314	3.65
457.668	3.64
458.021	3.63
458.375	3.62
458.728	3.61
459.081	3.6
459.434	3.58
459.787	3.6
460.141	3.61
460.494	3.64
460.847	3.64
461.2	3.66
461.553	3.66
461.906	3.67
462.259	3.66
462.611	3.67
462.964	3.68
463.317	3.7
463.67	3.73
464.022	3.77
464.375	3.76
464.728	3.78
465.08	3.81
465.433	3.85
465.785	3.9
466.138	3.92
466.49	3.96
466.843	3.99
467.195	4
467.547	4.02
467.899	4.03
468.252	4.06
468.604	4.09
468.956	4.1
469.308	4.09
469.66	4.1
470.012	4.09
470.364	4.1
470.716	4.1
471.068	4.1
471.42	4.12
471.772	4.15
472.123	4.18
472.475	4.18
472.827	4.17
473.178	4.16
473.53	4.16
473.882	4.17
474.233	4.17
474.585	4.17
474.936	4.18
475.288	4.17
475.639	4.19
475.99	4.19
476.342	4.22
476.693	4.24
477.044	4.25
477.395	4.24
477.746	4.23
478.097	4.25
478.448	4.24
478.8	4.19
479.15	4.17
479.501	4.15
479.852	4.12
480.203	4.12
480.554	4.1
480.905	4.09
481.255	4.07
481.606	4.07
481.957	4.06
482.307	4.04
482.658	4.04
483.009	4.02
483.359	4
483.709	4
484.06	4
484.41	4
484.761	4
485.111	4
485.461	3.99
485.811	3.99
486.162	3.99
486.512	3.99
486.862	3.98
487.212	3.99
487.562	3.98
487.912	3.99
488.262	3.99
488.612	4
488.961	4
489.311	4.01
489.661	4.01
490.011	4.01
490.36	4.01
490.71	4.03
491.06	4.04
491.409	4.03
491.759	4.03
492.108	4.04
492.458	4.05
492.807	4.07
493.157	4.08
493.506	4.09
493.855	4.13
494.204	4.15
494.554	4.18
494.903	4.22
495.252	4.26
495.601	4.3
495.95	4.32
496.299	4.36
496.648	4.41
496.997	4.46
497.346	4.52
497.695	4.59
498.043	4.65
498.392	4.69
498.741	4.76
499.09	4.83
499.438	4.89
499.787	4.94
500.135	5
500.484	5.07
500.832	5.16
501.181	5.22
501.529	5.33
501.878	5.41
502.226	5.51
502.574	5.58
502.923	5.66
503.271	5.77
503.619	5.86
503.967	5.95
504.315	6.06
504.663	6.17
505.011	6.29
505.359	6.41
505.707	6.54
506.055	6.68
506.403	6.81
506.751	6.95
507.098	7.09
507.446	7.23
507.794	7.36
508.141	7.5
508.489	7.64
508.837	7.76
509.184	7.91
509.531	8.05
509.879	8.19
510.226	8.34
510.574	8.49
510.921	8.67
511.268	8.86
511.616	9.02
511.963	9.17
512.31	9.34
512.657	9.51
513.004	9.65
513.351	9.83
513.698	10.03
514.045	10.24
514.392	10.49
514.739	10.68
515.086	10.9
515.432	11.08
515.779	11.29
516.126	11.51
516.473	11.69
516.819	11.89
517.166	12.1
517.512	12.26
517.859	12.44
518.205	12.57
518.552	12.71
518.898	12.87
519.245	13.04
519.591	13.21
519.937	13.4
520.283	13.61
520.629	13.78
520.976	13.99
521.322	14.17
521.668	14.34
522.014	14.56
522.36	14.77
522.706	15
523.052	15.23
523.398	15.46
523.743	15.72
524.089	15.99
524.435	16.2
524.781	16.43
525.126	16.68
525.472	16.91
525.817	17.11
526.163	17.31
526.509	17.48
526.854	17.62
527.199	17.77
527.545	17.9
527.89	18.05
528.235	18.19
528.581	18.37
528.926	18.54
529.271	18.7
529.616	18.85
529.961	19.04
530.306	19.22
530.651	19.43
530.996	19.63
531.341	19.82
531.686	20.05
532.031	20.28
532.376	20.47
532.721	20.72
533.065	20.94
533.41	21.18
533.755	21.45
534.099	21.73
534.444	21.99
534.788	22.24
535.133	22.5
535.477	22.8
535.822	23.05
536.166	23.34
536.51	23.69
536.855	24.04
537.199	24.37
537.543	24.74
537.887	25.09
538.231	25.43
538.576	25.76
538.92	26.15
539.264	26.52
539.608	26.85
539.951	27.13
540.295	27.43
540.639	27.71
540.983	27.97
541.327	28.23
541.671	28.5
542.014	28.8
542.358	29.08
542.701	29.33
543.045	29.62
543.389	29.89
543.732	30.13
544.075	30.38
544.419	30.65
544.762	30.89
545.105	31.18
545.449	31.46
545.792	31.82
546.135	32.11
546.478	32.41
546.821	32.78
547.165	33.13
547.508	33.45
547.851	33.85
548.194	34.19
548.536	34.55
548.879	34.88
549.222	35.25
549.565	35.66
549.908	36.05
550.25	36.43
550.593	36.79
550.936	37.18
551.278	37.58
551.621	37.98
551.963	38.42
552.306	38.79
552.648	39.2
552.991	39.51
553.333	39.83
553.675	40.23
554.017	40.54
554.36	40.89
554.702	41.26
555.044	41.5
555.386	41.86
555.728	42.2
556.07	42.53
556.412	42.83
556.754	43.01
557.096	43.33
557.438	43.57
557.78	43.92
558.121	44.26
558.463	44.54
558.805	44.79
559.147	45
559.488	45.24
559.83	45.53
560.171	45.78
560.513	46.07
560.854	46.28
561.196	46.54
561.537	46.8
561.878	47.04
562.22	47.34
562.561	47.54
562.902	47.76
563.243	48.02
563.584	48.25
563.925	48.54
564.266	48.7
564.607	48.91
564.948	49.07
565.289	49.19
565.63	49.43
565.971	49.58
566.312	49.77
566.653	49.99
566.993	50.14
567.334	50.45
567.675	50.59
568.015	50.71
568.356	50.94
568.696	51.15
569.037	51.34
569.377	51.49
569.718	51.7
570.058	51.86
570.398	51.99
570.739	52.08
571.079	52.26
571.419	52.45
571.759	52.62
572.099	52.82
572.439	52.98
572.779	53.09
573.119	53.24
573.459	53.39
573.799	53.52
574.139	53.66
574.479	53.69
574.819	53.84
575.158	53.97
575.498	54.08
575.838	54.23
576.177	54.31
576.517	54.45
576.856	54.54
577.196	54.73
577.535	54.94
577.875	55.09
578.214	55.21
578.553	55.33
578.893	55.49
579.232	55.6
579.571	55.72
579.91	55.89
580.25	56.04
580.589	56.23
580.928	56.35
581.267	56.45
581.606	56.55
581.945	56.6
582.283	56.75
582.622	56.78
582.961	56.76
583.3	56.85
583.639	57
583.977	57.1
584.316	57.22
584.654	57.3
584.993	57.47
585.332	57.54
585.67	57.63
586.008	57.72
586.347	57.79
586.685	57.99
587.024	58
587.362	58.08
587.7	58.13
588.038	58.13
588.376	58.25
588.715	58.37
589.053	58.55
589.391	58.65
589.729	58.75
590.067	58.77
590.404	58.9
590.742	59.03
591.08	59.06
591.418	59.13
591.756	59.17
592.093	59.2
592.431	59.4
592.769	59.45
593.106	59.52
593.444	59.55
593.781	59.48
594.119	59.57
594.456	59.6
594.793	59.63
595.131	59.7
595.468	59.79
595.805	59.85
596.143	59.82
596.48	59.88
596.817	59.97
597.154	60.13
597.491	60.17
597.828	60.16
598.165	60.25
598.502	60.29
598.839	60.35
599.176	60.44
599.512	60.32
599.849	60.38
600.186	60.3
600.523	60.37
600.859	60.49
601.196	60.58
601.532	60.68
601.869	60.71
602.205	60.82
602.542	60.79
602.878	60.81
603.215	60.9
603.551	60.98
603.887	60.95
604.223	60.97
604.56	61.02
604.896	60.98
605.232	61.07
605.568	61.05
605.904	61.06
606.24	61.09
606.576	61.16
606.912	61.18
607.248	61.33
607.583	61.34
607.919	61.36
608.255	61.38
608.591	61.34
608.926	61.41
609.262	61.38
609.597	61.48
609.933	61.51
610.268	61.52
610.604	61.45
610.939	61.58
611.275	61.64
611.61	61.63
611.945	61.7
612.281	61.61
612.616	61.72
612.951	61.81
613.286	61.91
613.621	61.97
613.956	61.99
614.291	61.94
614.626	61.97
614.961	61.98
615.296	61.99
615.631	62.1
615.966	62.17
616.3	62.34
616.635	62.29
616.97	62.37
617.304	62.34
617.639	62.4
617.973	62.37
618.308	62.36
618.642	62.39
618.977	62.42
619.311	62.48
619.646	62.39
619.98	62.34
620.314	62.26
620.648	62.28
620.983	62.29
621.317	62.43
621.651	62.56
621.985	62.65
622.319	62.65
622.653	62.61
622.987	62.55
623.321	62.48
623.655	62.46
623.988	62.39
624.322	62.47
624.656	62.56
624.99	62.55
625.323	62.6
625.657	62.7
625.99	62.68
626.324	62.82
626.657	62.91
626.991	62.91
627.324	62.92
627.658	62.89
627.991	62.88
628.324	62.9
628.657	62.96
628.991	62.93
629.324	63
629.657	62.96
629.99	62.94
630.323	62.9
630.656	62.94
630.989	63.06
631.322	62.99
631.655	62.96
631.987	62.94
632.32	62.97
632.653	63.02
632.986	63.05
633.318	62.98
633.651	62.89
633.984	62.99
634.316	63.08
634.649	63.12
634.981	63.23
635.313	63.27
635.646	63.17
635.978	63.26
636.31	63.1
636.643	63.29
636.975	63.43
637.307	63.6
637.639	63.58
637.971	63.64
638.303	63.73
638.635	63.78
638.967	63.88
639.299	63.85
639.631	63.72
639.963	63.83
640.295	63.86
640.626	63.85
640.958	63.85
641.29	63.76
641.621	63.73
641.953	63.77
642.285	63.71
642.616	63.8
642.948	63.72
643.279	63.91
643.61	64
643.942	63.92
644.273	63.86
644.604	64.03
644.936	63.98
645.267	63.99
645.598	63.99
645.929	63.9
646.26	63.87
646.591	63.95
646.922	64
647.253	64.05
647.584	64.12
647.915	64.17
648.245	64.19
648.576	64.32
648.907	64.31
649.238	64.2
649.568	64.12
649.899	64.09
650.229	64.09
650.56	64
650.89	64.18
651.221	64.16
651.551	63.96
651.882	63.97
652.212	63.92
652.542	63.88
652.872	63.97
653.203	64.11
653.533	64.22
653.863	64.2
654.193	64.21
654.523	64.24
654.853	64.09
655.183	64.13
655.513	64.16
655.843	64.15
656.172	64.35
656.502	64.4
656.832	64.52
657.162	64.57
657.491	64.49
657.821	64.38
658.15	64.34
658.48	64.57
658.809	64.51
659.139	64.69
659.468	64.8
659.798	64.74
660.127	64.65
660.456	64.52
660.785	64.53
661.115	64.4
661.444	64.45
661.773	64.54
662.102	64.62
662.431	64.51
662.76	64.47
663.089	64.4
663.418	64.44
663.747	64.53
664.076	64.33
664.404	64.4
664.733	64.48
665.062	64.57
665.39	64.32
665.719	64.37
666.048	64.29
666.376	64.35
666.705	64.39
667.033	64.46
667.362	64.57
667.69	64.53
668.018	64.69
668.347	64.58
668.675	64.53
669.003	64.37
669.331	64.31
669.659	64.41
669.987	64.57
670.315	64.54
670.643	64.37
670.971	64.59
671.299	64.66
671.627	64.57
671.955	64.65
672.283	64.75
672.61	64.78
672.938	64.74
673.266	64.56
673.593	64.73
673.921	64.72
674.249	64.58
674.576	64.57
674.904	64.46
675.231	64.49
675.558	64.77
675.886	64.89
676.213	64.84
676.54	64.92
676.867	64.91
677.195	65.02
677.522	64.98
677.849	64.9
678.176	64.8
678.503	64.93
678.83	65.03
679.157	65.13
679.484	65.13
679.81	65.15
680.137	65.22
680.464	65.18
680.791	65.21
681.117	65.4
681.444	65.48
681.771	65.4
682.097	65.5
682.424	65.18
682.75	65.15
683.077	65.37
683.403	65.15
683.729	64.96
684.056	64.89
684.382	65.02
684.708	65.09
685.034	65.15
685.36	65.09
685.686	64.83
686.012	64.71
686.339	64.63
686.664	64.77
686.99	64.97
687.316	65.04
687.642	65.11
687.968	64.93
688.294	65.04
688.619	65.25
688.945	65.23
689.271	65.39
689.596	65.46
689.922	65.55
690.247	65.82
690.573	65.77
690.898	65.66
691.224	65.69
691.549	65.75
691.874	65.76
692.2	65.71
692.525	66.01
692.85	66.25
693.175	66.35
693.5	66.35
693.825	66.13
694.15	65.85
694.475	65.71
694.8	65.89
695.125	65.9
695.45	65.84
695.775	65.92
696.099	66.02
696.424	66.03
696.749	65.95
697.073	65.85
697.398	65.94
697.723	66.11
698.047	66.12
698.372	66.11
698.696	66.02
699.02	66.08
699.345	65.95
699.669	65.94
699.993	66.13
700.318	66.01
700.642	65.94
700.966	66.14
701.29	66.15
701.614	66.15
701.938	66.08
702.262	66.14
702.586	66.14
702.91	66.14
703.234	66.07
703.557	66.04
703.881	65.8
704.205	65.97
704.529	66.09
704.852	65.97
705.176	65.93
705.499	66.03
705.823	65.87
706.146	65.91
706.47	65.91
706.793	65.89
707.117	65.94
707.44	66.16
707.763	66.13
708.086	66.11
708.409	65.96
708.733	65.93
709.056	65.95
709.379	65.73
709.702	65.75
710.025	65.71
710.348	65.67
710.671	66.15
710.993	66
711.316	65.8
711.639	65.94
711.962	65.93
712.284	65.68
712.607	65.9
712.93	65.88
713.252	65.88
713.575	65.86
713.897	65.78
714.22	65.8
714.542	65.82
714.864	65.92
715.187	66.07
715.509	66.05
715.831	66.03
716.153	66.18
716.475	66.05
716.798	66.26
717.12	66.32
717.442	66.12
717.764	66.26
718.085	66.32
718.407	66.26
718.729	66.3
719.051	66.59
719.373	66.65
719.695	66.55
720.016	66.45
720.338	66.43
720.659	66.65
720.981	66.83
721.302	66.81
721.624	67.1
721.945	66.87
722.267	66.94
722.588	66.96
722.909	67.18
723.231	67.13
723.552	67.14
723.873	67.25
724.194	67.12
724.515	67.09
724.836	67.12
725.157	67.33
725.478	67.26
725.799	67.44
726.12	67.16
726.441	67.28
726.762	67.11
727.083	66.89
727.403	66.66
727.724	66.4
728.045	66.09
728.365	65.96
728.686	66.2
729.006	66.1
729.327	66.27
729.647	66.18
729.967	66.22
730.288	65.97
730.608	65.83
730.928	66.25
731.249	66.14
731.569	65.94
731.889	65.58
732.209	65.47
732.529	65.33
732.849	65.55
733.169	65.57
733.489	65.73
733.809	66.03
734.129	66.13
734.448	66.2
734.768	66.42
735.088	66.54
735.408	66.58
735.727	66.64
736.047	66.51
736.366	66.55
736.686	66.86
737.005	67.16
737.325	67.12
737.644	66.74
737.963	66.69
738.283	66.78
738.602	66.91
738.921	67.07
739.24	67.33
739.56	67.1
739.879	66.83
740.198	66.78
740.517	66.37
740.836	66.55
741.155	66.51
741.473	66.65
741.792	66.35
742.111	66.3
742.43	66.22
742.748	65.81
743.067	66.05
743.386	65.9
743.704	66.05
744.023	66.51
744.341	66.7
744.66	66.78
744.978	66.86
745.297	66.53
745.615	66.69
745.933	66.52
746.252	66.66
746.57	66.94
746.888	67.03
747.206	67.25
747.524	67.41
747.842	67.7
748.16	67.29
748.478	67.38
748.796	67.34
749.114	67.51
749.432	67.92
749.749	67.39
750.067	67.36
750.385	67.12
750.703	66.76
751.02	66.89
751.338	66.89
751.655	66.97
751.973	67.44
752.29	67.49
752.608	67.11
752.925	67.41
753.242	67.31
753.56	67.38
753.877	67.19
754.194	66.91
754.511	66.88
754.828	66.91
755.145	67.22
755.462	67.04
755.779	67.47
756.096	67.72
756.413	68.1
756.73	68.28
757.047	68.34
757.364	68.21
757.68	68.11
757.997	67.91
758.314	68.13
758.63	68.43
758.947	68.28
759.264	68.99
759.58	68.83
759.896	68.92
760.213	68.75
760.529	68.86
760.846	68.65
761.162	67.77
761.478	67.98
761.794	67.54
762.11	67.48
762.426	66.9
762.743	66.81
763.059	66.76
763.375	66.72
763.69	66.75
764.006	67.04
764.322	66.83
764.638	66.93
764.954	66.79
765.27	66.67
765.585	66.34
765.901	66.16
766.216	65.88
766.532	65.78
766.848	65.6
767.163	65.45
767.478	65.4
767.794	66
768.109	65.85
768.424	66.09
768.74	66.15
769.055	66.56
769.37	66.64
769.685	66.2
770	66.18
770.315	66.09
770.63	65.75
770.945	66.22
771.26	66.67
771.575	66.51
771.89	67.02
772.205	67.63
772.52	67.36
772.834	67.68
773.149	67.9
773.464	68.6
773.778	69.02
774.093	69.17
774.407	69.33
774.722	69.74
775.036	69.7
775.351	70.05
775.665	69.92
775.979	69.58
776.293	69.86
776.608	70.18
776.922	70.26
777.236	70.49
777.55	70.2
777.864	70.03
778.178	70.01
778.492	69.1
778.806	69.53
779.12	69.53
779.434	69.5
779.747	68.96
780.061	68.8
780.375	69.01
780.689	69.44
781.002	68.91
781.316	68.87
781.629	69.05
781.943	68.74
782.256	68.25
782.57	69.3
782.883	69.51
783.196	69.1
783.51	68.68
783.823	68.74
784.136	68.56
784.449	69.13
784.762	69.71
785.075	70.17
785.388	69.65
785.701	69.9
786.014	70.1
786.327	71.08
786.64	71.23
786.953	70.88
787.266	70.8
787.578	71.11
787.891	70.9
788.204	70.83
788.516	71.13
788.829	71.39
789.141	70.89
789.454	70.53
789.766	70.02
790.079	70.46
790.391	70.78
790.703	70.79
791.016	70.24
791.328	70.26
791.64	70.25
791.952	70.9
792.264	71.3
792.576	71.49
792.888	71.33
793.2	70.98
793.512	71.28
793.824	71.54
794.136	71.57
794.448	71.85
794.76	71.97
795.071	72.37
795.383	72.39
795.695	72.22
796.006	72.59
796.318	73.69
796.629	73.36
796.941	72.69
797.252	73.03
797.564	73.19
797.875	72.92
798.186	72.91
798.497	72.39
798.809	71.79
799.12	72.34
799.431	72.21
799.742	72.5
800.053	71.89
800.364	71.34
800.675	71.5
800.986	71.31
801.297	70.78
801.608	70.46
801.918	69.42
802.229	69.43
802.54	69.52
802.851	68.95
803.161	70.15
803.472	70.68
803.782	70.28
804.093	70.26
804.403	69.61
804.714	69.78
805.024	69.34
805.334	69.94
805.645	69.18
805.955	69.54
806.265	69
806.575	69.24
806.885	69.78
807.195	69.08
807.505	69.01
807.815	69.69
808.125	69.42
808.435	71.52
808.745	70.76
809.055	70.6
809.365	70.61
809.674	70.54
809.984	70.28
810.294	71
810.603	70.98
810.913	70.99
811.222	69.95
811.532	70.36
811.841	70.65
812.151	70.96
812.46	70.66
812.769	70.79
813.079	70.73
813.388	70.17
813.697	70.8
814.006	70.31
814.315	69.95
814.624	70.11
814.933	69.41
815.242	69.63
815.551	69.23
815.86	69.05
816.169	67.57
816.478	67.77
816.786	67.26
817.095	67.31
817.404	68.11
817.712	68.89
818.021	68.92
818.33	68.34
818.638	67.92
818.947	67.64
819.255	67.2
819.563	67.15
819.872	66.66
820.18	66.66
820.488	66.6
820.796	66.55
821.105	66.87
821.413	66.84
821.721	66.99
822.029	67.15
822.337	67.26
822.645	67.13
822.953	66.94
823.26	66.86
823.568	66.77
823.876	66.57
824.184	66.52
824.491	66.34
824.799	66.43
825.107	66.37
825.414	66.36
825.722	66.42
826.029	66.45
826.337	66.73
826.644	66.66
826.951	66.93
827.259	67.04
827.566	66.61
827.873	66.59
828.18	66.57
828.488	66.5
828.795	66.52
829.102	66.83
829.409	67.03
829.716	67.47
830.023	68.09
830.329	68.4
830.636	68.62
830.943	69.31
831.25	69.6
831.557	69.71
831.863	70.08
832.17	70.56
832.476	70.68
832.783	70.9
833.089	71.15
833.396	71.15
833.702	71.53
834.009	71.19
834.315	71.22
834.621	71.35
834.928	72.04
835.234	71.86
835.54	71.77
835.846	71.78
836.152	71.84
836.458	71.29
836.764	71.52
837.07	70.92
837.376	70.84
837.682	70.71
837.988	71.13
838.293	71.53
838.599	71.36
838.905	72.06
839.211	71.82
839.516	71.81
839.822	72.34
840.127	72.67
840.433	74.31
840.738	75.07
841.044	74.35
841.349	73.23
841.654	73.62
841.959	72.78
842.265	72.91
842.57	71.57
842.875	72.26
843.18	72.72
843.485	74.14
843.79	72.92
844.095	73.23
844.4	73.29
844.705	73.73
845.01	75.55
845.315	74.58
845.619	74.7
845.924	76.08
846.229	76.36
846.533	74.8
846.838	75.21
847.142	75.03
847.447	74.77
847.751	74.81
848.056	75.81
848.36	75.7
848.664	75.98
848.969	77.32
849.273	76.28
849.577	75.02
849.881	75.9
850.185	79.66
850.489	76.71
850.794	77.7
851.097	76.72
851.401	74.51
851.705	74.23
852.009	74.1
852.313	72.37
852.617	70.54
852.92	69.73
853.224	67.6
853.528	68.04
853.831	70.55
854.135	72.49
854.438	70.63
854.742	74.73
855.045	74.31
855.349	74.76
855.652	74.23
855.955	74.8
856.259	74.31
856.562	70.78
856.865	73.12
857.168	71.9
857.471	73.14
857.774	73.79
858.077	74.33
858.38	76.83
858.683	79.14
858.986	81.34
859.289	85.47
859.592	86.52
859.894	85.86
860.197	85.46
860.5	83.27
860.802	86.93
861.105	85.94
861.407	86.48
861.71	84.06
862.012	83.4
862.315	83.44
862.617	81.19
862.919	82.81
863.222	81.36
863.524	81.15
863.826	79.69
864.128	84.32
864.43	86.03
864.732	85.8
865.034	86.76
865.336	86.99
865.638	84.14
865.94	86.12
866.242	84.99
866.544	89.96
866.846	91.95
867.147	88.32
867.449	89.29
867.751	87.02
868.052	86.63
868.354	88.02
868.655	88.14
868.957	89.12
869.258	89.02
869.56	89.8
869.861	93.63
870.162	93.6
870.463	88.84
870.765	87.53
871.066	86.13
871.367	81.54
871.668	80.16
871.969	77.3
872.27	75.05
872.571	77.01
872.872	72.84
873.173	73.73
873.473	74.1
873.774	74.84
874.075	76.09
874.376	78.22
874.676	77.36
874.977	77.46
875.277	78.01
875.578	78.52
875.878	78.28
876.179	75.23
876.479	73.28
876.78	72.73
877.08	71.89
877.38	70.92
877.68	74.08
877.981	73.91
878.281	78.62
878.581	83.11
