Data from MVZ_BU147393_Reflection_00010.txt Node
Date: Tue Nov 19 12:07:07 EST 2019
User: vgr7
Spectrometer: USB2G7710
Scans to average: 3
Trigger mode: 4
Integration Time (sec): 2.000000E-2
Electric dark correction enabled: true
Boxcar width: 10
XAxis mode: Wavelengths
Number of Pixels in Spectrum: 2048
>>>>>Begin Spectral Data<<<<<
177.721	77.22
178.105	-900
178.488	18.31
178.871	46.88
179.254	-259.09
179.636	-123.11
180.019	-247.12
180.402	-100
180.785	-98.86
181.168	-18.93
181.55	315.52
181.933	77.46
182.316	34.15
182.698	9.29
183.081	-21.89
183.463	-59.6
183.846	-229.65
184.228	-266.77
184.611	-389.5
184.993	-796.15
185.376	14662.5
185.758	62850
186.14	1590
186.522	364.83
186.904	1650
187.287	2850
187.669	109.62
188.051	70.98
188.433	81.87
188.815	166.14
189.197	122.2
189.579	137.97
189.961	93.68
190.342	96.62
190.724	76.66
191.106	51.37
191.488	35.59
191.869	38.65
192.251	34.08
192.633	45.65
193.014	46.63
193.396	47.65
193.777	52.18
194.159	71.99
194.54	90.1
194.922	81.32
195.303	74.33
195.684	73.21
196.065	63.11
196.447	71.59
196.828	82.68
197.209	84.37
197.59	78.69
197.971	64.4
198.352	40.83
198.733	27.29
199.114	16.48
199.495	26.37
199.876	13.84
200.257	4.02
200.638	-0.16
201.018	2.11
201.399	-1.36
201.78	-5.91
202.16	-11.7
202.541	-22.14
202.922	-25.09
203.302	-17.12
203.683	-19.09
204.063	-7.92
204.444	-9.04
204.824	-16.72
205.204	-6.98
205.585	-13.42
205.965	-2.17
206.345	-1.83
206.725	15.68
207.106	23.26
207.486	25.92
207.866	27.91
208.246	34.22
208.626	34.68
209.006	29.39
209.386	34.96
209.766	36.27
210.145	30.99
210.525	36.89
210.905	51.07
211.285	51.76
211.664	77.76
212.044	77.95
212.424	78.93
212.803	76.43
213.183	53.07
213.562	68.18
213.942	70.37
214.321	66.56
214.701	46.07
215.08	29.48
215.459	31.24
215.838	29.59
216.218	7.43
216.597	-8.58
216.976	-5.77
217.355	-34.62
217.734	-7.24
218.113	71.18
218.492	45.57
218.871	7.43
219.25	13.97
219.629	-56.53
220.008	-36.31
220.387	-38.51
220.766	-5.99
221.144	52.23
221.523	33.38
221.902	36.45
222.28	63.56
222.659	80.77
223.037	68.84
223.416	58.4
223.794	52.89
224.173	36.04
224.551	33.51
224.929	20.09
225.308	10.32
225.686	6.63
226.064	-12.82
226.442	-5.15
226.821	-2.13
227.199	-1.29
227.577	-0.05
227.955	0.24
228.333	-4.11
228.711	-1.22
229.089	-3.39
229.467	-2.51
229.845	-5.75
230.222	-2.63
230.6	-4.83
230.978	-0.89
231.356	-1.57
231.733	-2.14
232.111	3.08
232.488	3.56
232.866	5.61
233.243	6.71
233.621	6.92
233.998	10.28
234.376	8.44
234.753	9.01
235.13	8.34
235.508	9.22
235.885	9.16
236.262	10.85
236.639	8.86
237.016	8.33
237.393	10
237.77	9.81
238.147	9.58
238.524	9.27
238.901	6.6
239.278	6.07
239.655	6.26
240.032	5.74
240.409	5.85
240.785	5.7
241.162	6
241.539	6.17
241.915	5.68
242.292	6.6
242.668	6.34
243.045	6.65
243.421	7.05
243.798	7.19
244.174	7.18
244.551	7.28
244.927	7.24
245.303	6.46
245.679	6.39
246.056	6.08
246.432	6.03
246.808	6.4
247.184	6.52
247.56	6.45
247.936	6.37
248.312	6.34
248.688	6.26
249.064	6.13
249.44	5.96
249.815	6.17
250.191	5.96
250.567	6.03
250.943	5.96
251.318	5.48
251.694	5.42
252.069	5.3
252.445	5.29
252.82	5.34
253.196	5.62
253.571	5.58
253.947	5.78
254.322	5.63
254.697	5.72
255.073	5.61
255.448	5.64
255.823	5.29
256.198	5.11
256.573	5.37
256.948	5.35
257.323	5.43
257.698	5.38
258.073	5.47
258.448	5.58
258.823	5.51
259.198	5.66
259.573	5.25
259.948	5.11
260.322	4.84
260.697	4.87
261.072	4.78
261.446	4.83
261.821	4.61
262.195	4.55
262.57	4.73
262.944	4.81
263.319	4.64
263.693	4.55
264.067	4.63
264.442	4.62
264.816	4.51
265.19	4.38
265.564	4.2
265.938	4.1
266.313	4.01
266.687	3.9
267.061	3.87
267.435	4.26
267.809	4.22
268.183	4.24
268.556	4.15
268.93	4.24
269.304	4.22
269.678	4.43
270.051	4.45
270.425	4.14
270.799	3.83
271.172	3.83
271.546	4.17
271.919	4.12
272.293	4.02
272.666	4
273.04	4.04
273.413	4.08
273.787	3.95
274.16	3.84
274.533	3.92
274.906	3.89
275.279	3.81
275.653	4.03
276.026	4.12
276.399	4.11
276.772	4.08
277.145	3.96
277.518	3.69
277.891	3.82
278.263	3.96
278.636	4.24
279.009	4.34
279.382	4
279.755	3.96
280.127	3.98
280.5	4.1
280.872	4.14
281.245	4.12
281.617	4.12
281.99	4.19
282.362	4.05
282.735	4.12
283.107	4.09
283.479	4.14
283.852	4.24
284.224	4.37
284.596	4.4
284.968	4.35
285.34	4.63
285.713	4.6
286.085	4.38
286.457	4.44
286.829	4.45
287.201	4.57
287.572	4.55
287.944	4.61
288.316	4.62
288.688	4.67
289.06	4.7
289.431	4.76
289.803	4.73
290.175	4.71
290.546	4.6
290.918	4.78
291.289	4.46
291.661	4.48
292.032	4.45
292.403	4.46
292.775	4.66
293.146	4.57
293.517	4.51
293.889	4.76
294.26	4.69
294.631	4.71
295.002	4.71
295.373	4.86
295.744	4.84
296.115	4.97
296.486	4.97
296.857	5.05
297.228	5.05
297.599	5
297.97	5.07
298.34	5.14
298.711	5.04
299.082	5.26
299.452	5.12
299.823	5.09
300.194	5.08
300.564	5.09
300.935	5.07
301.305	5.15
301.676	5.16
302.046	5.13
302.416	5.12
302.787	4.98
303.157	5
303.527	5.1
303.897	4.91
304.267	4.84
304.637	4.86
305.008	5
305.378	5.27
305.748	5.32
306.117	5.48
306.487	5.65
306.857	5.7
307.227	5.95
307.597	5.87
307.967	5.95
308.336	6.02
308.706	5.97
309.076	6.02
309.445	5.97
309.815	6.06
310.184	6.13
310.554	6.23
310.923	6.23
311.293	6.21
311.662	6.36
312.031	6.35
312.401	6.37
312.77	6.23
313.139	6.09
313.508	6.08
313.877	6.13
314.246	5.96
314.616	5.93
314.985	5.8
315.353	5.83
315.722	5.94
316.091	5.92
316.46	6.07
316.829	6.16
317.198	6.21
317.567	6.39
317.935	6.41
318.304	6.59
318.672	6.61
319.041	6.71
319.41	6.63
319.778	6.96
320.147	6.93
320.515	7.06
320.883	7.05
321.252	7.27
321.62	7.21
321.988	7.4
322.357	7.44
322.725	7.58
323.093	7.61
323.461	7.64
323.829	7.6
324.197	7.62
324.565	7.58
324.933	7.66
325.301	7.56
325.669	7.54
326.037	7.59
326.405	7.45
326.772	7.44
327.14	7.5
327.508	7.3
327.875	7.25
328.243	7.2
328.61	7.27
328.978	7.18
329.346	7.13
329.713	7.05
330.08	7.08
330.448	7
330.815	7.17
331.182	7.14
331.55	7.21
331.917	7.2
332.284	7.34
332.651	7.39
333.018	7.33
333.385	7.31
333.752	7.37
334.119	7.43
334.486	7.35
334.853	7.28
335.22	7.54
335.587	7.65
335.954	7.67
336.32	7.76
336.687	7.83
337.054	7.96
337.42	7.88
337.787	7.93
338.153	8.01
338.52	8.01
338.886	7.99
339.253	7.9
339.619	8.05
339.986	8.11
340.352	8.06
340.718	8.22
341.084	8.33
341.451	8.24
341.817	8.32
342.183	8.39
342.549	8.55
342.915	8.58
343.281	8.58
343.647	8.64
344.013	8.62
344.379	8.54
344.745	8.49
345.11	8.64
345.476	8.62
345.842	8.62
346.208	8.65
346.573	8.64
346.939	8.83
347.304	8.85
347.67	8.78
348.035	8.83
348.401	8.79
348.766	8.71
349.132	8.81
349.497	8.92
349.862	8.98
350.228	8.98
350.593	8.8
350.958	8.86
351.323	8.91
351.688	9
352.053	9.09
352.418	9.06
352.783	9.04
353.148	9.13
353.513	9.06
353.878	9.09
354.243	9.1
354.608	9.01
354.972	8.97
355.337	9
355.702	9
356.066	9.1
356.431	9.14
356.795	9.14
357.16	9.05
357.524	8.99
357.889	9
358.253	9.04
358.618	8.96
358.982	8.91
359.346	8.9
359.71	8.91
360.075	8.9
360.439	8.93
360.803	8.92
361.167	8.9
361.531	8.84
361.895	8.85
362.259	8.86
362.623	8.86
362.987	8.79
363.351	8.7
363.714	8.64
364.078	8.62
364.442	8.52
364.806	8.52
365.169	8.5
365.533	8.47
365.896	8.52
366.26	8.58
366.623	8.6
366.987	8.59
367.35	8.59
367.714	8.59
368.077	8.57
368.44	8.56
368.803	8.59
369.167	8.57
369.53	8.5
369.893	8.47
370.256	8.37
370.619	8.33
370.982	8.28
371.345	8.2
371.708	8.2
372.071	8.19
372.434	8.13
372.797	8.1
373.159	7.99
373.522	7.88
373.885	7.78
374.247	7.75
374.61	7.67
374.973	7.67
375.335	7.71
375.698	7.58
376.06	7.48
376.423	7.45
376.785	7.44
377.147	7.42
377.51	7.34
377.872	7.32
378.234	7.28
378.596	7.24
378.958	7.23
379.321	7.16
379.683	7.16
380.045	7.18
380.407	7.13
380.769	7.13
381.13	7.11
381.492	7.08
381.854	7.01
382.216	6.97
382.578	6.86
382.939	6.78
383.301	6.77
383.663	6.71
384.024	6.69
384.386	6.65
384.747	6.6
385.109	6.61
385.47	6.61
385.832	6.62
386.193	6.66
386.554	6.57
386.916	6.57
387.277	6.51
387.638	6.47
387.999	6.45
388.36	6.43
388.721	6.35
389.082	6.32
389.443	6.31
389.804	6.33
390.165	6.29
390.526	6.24
390.887	6.22
391.248	6.21
391.609	6.2
391.969	6.16
392.33	6.13
392.691	6.07
393.051	6.04
393.412	5.97
393.772	5.95
394.133	5.93
394.493	5.89
394.854	5.85
395.214	5.78
395.574	5.77
395.935	5.76
396.295	5.77
396.655	5.73
397.015	5.67
397.376	5.61
397.736	5.59
398.096	5.56
398.456	5.5
398.816	5.46
399.176	5.41
399.535	5.37
399.895	5.37
400.255	5.36
400.615	5.3
400.975	5.32
401.334	5.24
401.694	5.25
402.054	5.21
402.413	5.22
402.773	5.21
403.132	5.15
403.492	5.09
403.851	5.07
404.211	5.08
404.57	5.06
404.929	5.03
405.288	5.01
405.648	4.99
406.007	5.03
406.366	4.99
406.725	4.95
407.084	4.95
407.443	4.93
407.802	4.92
408.161	4.95
408.52	4.96
408.879	4.99
409.238	4.98
409.596	5.01
409.955	4.97
410.314	4.94
410.673	4.96
411.031	4.96
411.39	4.97
411.748	4.97
412.107	4.95
412.465	4.92
412.824	4.9
413.182	4.85
413.54	4.83
413.899	4.82
414.257	4.84
414.615	4.83
414.974	4.82
415.332	4.83
415.69	4.77
416.048	4.77
416.406	4.75
416.764	4.73
417.122	4.69
417.48	4.67
417.838	4.65
418.195	4.65
418.553	4.65
418.911	4.61
419.269	4.58
419.626	4.59
419.984	4.59
420.342	4.57
420.699	4.57
421.057	4.56
421.414	4.56
421.772	4.52
422.129	4.49
422.486	4.47
422.844	4.45
423.201	4.44
423.558	4.41
423.915	4.39
424.273	4.37
424.63	4.36
424.987	4.36
425.344	4.35
425.701	4.33
426.058	4.32
426.415	4.31
426.772	4.29
427.128	4.27
427.485	4.26
427.842	4.27
428.199	4.26
428.555	4.24
428.912	4.22
429.269	4.22
429.625	4.24
429.982	4.23
430.338	4.21
430.695	4.21
431.051	4.22
431.407	4.2
431.764	4.19
432.12	4.21
432.476	4.21
432.832	4.21
433.189	4.2
433.545	4.17
433.901	4.17
434.257	4.17
434.613	4.16
434.969	4.15
435.325	4.16
435.681	4.17
436.036	4.17
436.392	4.18
436.748	4.18
437.104	4.18
437.459	4.17
437.815	4.17
438.171	4.18
438.526	4.18
438.882	4.19
439.237	4.19
439.593	4.2
439.948	4.2
440.304	4.19
440.659	4.19
441.014	4.2
441.369	4.22
441.725	4.23
442.08	4.22
442.435	4.23
442.79	4.22
443.145	4.21
443.5	4.22
443.855	4.23
444.21	4.22
444.565	4.22
444.92	4.23
445.275	4.21
445.629	4.21
445.984	4.19
446.339	4.2
446.693	4.2
447.048	4.16
447.403	4.17
447.757	4.18
448.112	4.17
448.466	4.17
448.82	4.18
449.175	4.17
449.529	4.17
449.883	4.17
450.238	4.17
450.592	4.16
450.946	4.14
451.3	4.12
451.654	4.12
452.008	4.11
452.362	4.09
452.716	4.09
453.07	4.07
453.424	4.1
453.778	4.06
454.132	4.06
454.486	4.08
454.839	4.06
455.193	4.07
455.547	4.07
455.9	4.07
456.254	4.05
456.607	4.05
456.961	4.03
457.314	4.01
457.668	3.98
458.021	3.98
458.375	3.98
458.728	3.97
459.081	3.99
459.434	3.99
459.787	4.01
460.141	4.03
460.494	4.06
460.847	4.05
461.2	4.06
461.553	4.06
461.906	4.09
462.259	4.1
462.611	4.09
462.964	4.1
463.317	4.09
463.67	4.09
464.022	4.12
464.375	4.15
464.728	4.15
465.08	4.18
465.433	4.22
465.785	4.24
466.138	4.28
466.49	4.28
466.843	4.31
467.195	4.32
467.547	4.33
467.899	4.34
468.252	4.39
468.604	4.42
468.956	4.48
469.308	4.45
469.66	4.49
470.012	4.48
470.364	4.51
470.716	4.54
471.068	4.57
471.42	4.53
471.772	4.54
472.123	4.56
472.475	4.57
472.827	4.58
473.178	4.6
473.53	4.59
473.882	4.64
474.233	4.62
474.585	4.62
474.936	4.61
475.288	4.6
475.639	4.57
475.99	4.56
476.342	4.55
476.693	4.53
477.044	4.51
477.395	4.51
477.746	4.51
478.097	4.51
478.448	4.48
478.8	4.48
479.15	4.46
479.501	4.45
479.852	4.47
480.203	4.45
480.554	4.44
480.905	4.42
481.255	4.4
481.606	4.41
481.957	4.4
482.307	4.38
482.658	4.38
483.009	4.37
483.359	4.36
483.709	4.35
484.06	4.36
484.41	4.36
484.761	4.35
485.111	4.35
485.461	4.35
485.811	4.35
486.162	4.34
486.512	4.34
486.862	4.34
487.212	4.33
487.562	4.32
487.912	4.32
488.262	4.34
488.612	4.34
488.961	4.34
489.311	4.34
489.661	4.35
490.011	4.35
490.36	4.36
490.71	4.36
491.06	4.35
491.409	4.35
491.759	4.36
492.108	4.37
492.458	4.37
492.807	4.38
493.157	4.4
493.506	4.43
493.855	4.45
494.204	4.46
494.554	4.49
494.903	4.52
495.252	4.54
495.601	4.56
495.95	4.59
496.299	4.62
496.648	4.65
496.997	4.7
497.346	4.75
497.695	4.79
498.043	4.86
498.392	4.91
498.741	4.96
499.09	5.01
499.438	5.08
499.787	5.14
500.135	5.19
500.484	5.26
500.832	5.35
501.181	5.42
501.529	5.52
501.878	5.6
502.226	5.69
502.574	5.76
502.923	5.84
503.271	5.93
503.619	6.04
503.967	6.19
504.315	6.3
504.663	6.44
505.011	6.56
505.359	6.64
505.707	6.79
506.055	6.93
506.403	7.09
506.751	7.22
507.098	7.37
507.446	7.5
507.794	7.64
508.141	7.77
508.489	7.93
508.837	8.09
509.184	8.24
509.531	8.39
509.879	8.57
510.226	8.75
510.574	8.94
510.921	9.09
511.268	9.2
511.616	9.38
511.963	9.52
512.31	9.7
512.657	9.9
513.004	10.08
513.351	10.29
513.698	10.48
514.045	10.68
514.392	10.87
514.739	11.09
515.086	11.33
515.432	11.56
515.779	11.78
516.126	11.98
516.473	12.18
516.819	12.36
517.166	12.54
517.512	12.7
517.859	12.86
518.205	13.03
518.552	13.22
518.898	13.37
519.245	13.54
519.591	13.74
519.937	13.92
520.283	14.09
520.629	14.26
520.976	14.46
521.322	14.67
521.668	14.89
522.014	15.12
522.36	15.3
522.706	15.54
523.052	15.78
523.398	16
523.743	16.24
524.089	16.5
524.435	16.74
524.781	17
525.126	17.22
525.472	17.41
525.817	17.61
526.163	17.8
526.509	17.97
526.854	18.12
527.199	18.28
527.545	18.42
527.89	18.57
528.235	18.74
528.581	18.89
528.926	19.02
529.271	19.17
529.616	19.33
529.961	19.48
530.306	19.63
530.651	19.81
530.996	19.98
531.341	20.18
531.686	20.35
532.031	20.52
532.376	20.71
532.721	20.94
533.065	21.12
533.41	21.31
533.755	21.52
534.099	21.75
534.444	21.96
534.788	22.17
535.133	22.37
535.477	22.57
535.822	22.76
536.166	23.05
536.51	23.32
536.855	23.59
537.199	23.83
537.543	24.13
537.887	24.4
538.231	24.7
538.576	24.97
538.92	25.26
539.264	25.5
539.608	25.72
539.951	25.92
540.295	26.17
540.639	26.39
540.983	26.59
541.327	26.77
541.671	26.97
542.014	27.16
542.358	27.35
542.701	27.55
543.045	27.77
543.389	27.94
543.732	28.12
544.075	28.31
544.419	28.48
544.762	28.66
545.105	28.88
545.449	29.09
545.792	29.29
546.135	29.51
546.478	29.76
546.821	30.01
547.165	30.26
547.508	30.48
547.851	30.73
548.194	31
548.536	31.26
548.879	31.48
549.222	31.7
549.565	31.94
549.908	32.18
550.25	32.35
550.593	32.54
550.936	32.73
551.278	32.92
551.621	33.24
551.963	33.46
552.306	33.67
552.648	33.87
552.991	34.11
553.333	34.32
553.675	34.53
554.017	34.73
554.36	34.98
554.702	35.19
555.044	35.38
555.386	35.53
555.728	35.73
556.07	35.92
556.412	36.12
556.754	36.28
557.096	36.43
557.438	36.7
557.78	36.87
558.121	37.06
558.463	37.21
558.805	37.31
559.147	37.44
559.488	37.55
559.83	37.73
560.171	37.84
560.513	38.01
560.854	38.14
561.196	38.29
561.537	38.4
561.878	38.55
562.22	38.69
562.561	38.91
562.902	39.03
563.243	39.14
563.584	39.26
563.925	39.43
564.266	39.54
564.607	39.63
564.948	39.74
565.289	39.85
565.63	40
565.971	40.13
566.312	40.27
566.653	40.38
566.993	40.45
567.334	40.59
567.675	40.73
568.015	40.84
568.356	40.97
568.696	41.07
569.037	41.13
569.377	41.22
569.718	41.29
570.058	41.4
570.398	41.56
570.739	41.63
571.079	41.7
571.419	41.76
571.759	41.82
572.099	41.92
572.439	42
572.779	42.1
573.119	42.16
573.459	42.25
573.799	42.33
574.139	42.46
574.479	42.52
574.819	42.56
575.158	42.58
575.498	42.62
575.838	42.71
576.177	42.81
576.517	42.89
576.856	42.91
577.196	42.97
577.535	43.04
577.875	43.16
578.214	43.23
578.553	43.34
578.893	43.46
579.232	43.49
579.571	43.57
579.91	43.7
580.25	43.81
580.589	43.87
580.928	43.96
581.267	44
581.606	44.05
581.945	44.05
582.283	44.2
582.622	44.31
582.961	44.37
583.3	44.41
583.639	44.54
583.977	44.62
584.316	44.74
584.654	44.75
584.993	44.81
585.332	44.85
585.67	44.95
586.008	44.93
586.347	45.07
586.685	45.17
587.024	45.14
587.362	45.2
587.7	45.28
588.038	45.37
588.376	45.45
588.715	45.51
589.053	45.6
589.391	45.68
589.729	45.79
590.067	45.86
590.404	45.88
590.742	45.79
591.08	45.82
591.418	45.83
591.756	45.89
592.093	45.96
592.431	46.01
592.769	46.02
593.106	46.11
593.444	46.14
593.781	46.23
594.119	46.35
594.456	46.36
594.793	46.38
595.131	46.45
595.468	46.48
595.805	46.52
596.143	46.6
596.48	46.59
596.817	46.56
597.154	46.59
597.491	46.71
597.828	46.84
598.165	46.87
598.502	46.89
598.839	46.94
599.176	46.97
599.512	47.08
599.849	47.25
600.186	47.35
600.523	47.41
600.859	47.42
601.196	47.38
601.532	47.44
601.869	47.43
602.205	47.4
602.542	47.41
602.878	47.55
603.215	47.59
603.551	47.62
603.887	47.69
604.223	47.72
604.56	47.73
604.896	47.71
605.232	47.75
605.568	47.81
605.904	47.86
606.24	47.89
606.576	47.84
606.912	47.77
607.248	47.8
607.583	47.88
607.919	47.9
608.255	48
608.591	48.06
608.926	48.18
609.262	48.27
609.597	48.32
609.933	48.22
610.268	48.21
610.604	48.27
610.939	48.27
611.275	48.29
611.61	48.35
611.945	48.45
612.281	48.57
612.616	48.59
612.951	48.61
613.286	48.65
613.621	48.75
613.956	48.82
614.291	48.84
614.626	48.8
614.961	48.83
615.296	48.85
615.631	48.92
615.966	48.91
616.3	48.87
616.635	48.9
616.97	48.98
617.304	49
617.639	49.02
617.973	49.04
618.308	49.12
618.642	49.03
618.977	49.04
619.311	49.1
619.646	49.12
619.98	49.09
620.314	49.17
620.648	49.13
620.983	49.14
621.317	49.17
621.651	49.15
621.985	49.13
622.319	49.09
622.653	49.07
622.987	49.06
623.321	49.14
623.655	49.18
623.988	49.27
624.322	49.26
624.656	49.37
624.99	49.43
625.323	49.41
625.657	49.54
625.99	49.57
626.324	49.55
626.657	49.55
626.991	49.6
627.324	49.61
627.658	49.68
627.991	49.74
628.324	49.7
628.657	49.81
628.991	49.83
629.324	50
629.657	50.03
629.99	50.19
630.323	50.23
630.656	50.18
630.989	50.18
631.322	50.23
631.655	50.16
631.987	50.12
632.32	50.16
632.653	50.11
632.986	50.01
633.318	49.94
633.651	49.99
633.984	50.01
634.316	49.91
634.649	49.85
634.981	49.87
635.313	49.84
635.646	49.78
635.978	49.84
636.31	49.73
636.643	49.67
636.975	49.58
637.307	49.53
637.639	49.62
637.971	49.66
638.303	49.74
638.635	49.71
638.967	49.78
639.299	49.78
639.631	49.67
639.963	49.77
640.295	49.86
640.626	49.87
640.958	49.86
641.29	49.93
641.621	49.94
641.953	49.87
642.285	50.05
642.616	50.07
642.948	50.16
643.279	50.18
643.61	50.29
643.942	50.32
644.273	50.31
644.604	50.24
644.936	50.18
645.267	50.17
645.598	50.36
645.929	50.34
646.26	50.4
646.591	50.68
646.922	50.64
647.253	50.7
647.584	50.76
647.915	50.86
648.245	50.88
648.576	50.97
648.907	50.97
649.238	50.95
649.568	50.98
649.899	50.92
650.229	50.89
650.56	50.88
650.89	50.8
651.221	50.8
651.551	50.85
651.882	50.83
652.212	50.85
652.542	50.77
652.872	50.73
653.203	50.65
653.533	50.61
653.863	50.69
654.193	50.66
654.523	50.65
654.853	50.7
655.183	50.83
655.513	50.92
655.843	51
656.172	51.05
656.502	51.16
656.832	51.21
657.162	51.25
657.491	51.18
657.821	51.2
658.15	51.31
658.48	51.31
658.809	51.36
659.139	51.38
659.468	51.38
659.798	51.43
660.127	51.49
660.456	51.41
660.785	51.43
661.115	51.41
661.444	51.38
661.773	51.33
662.102	51.28
662.431	51.25
662.76	51.28
663.089	51.33
663.418	51.23
663.747	51.16
664.076	51.11
664.404	51.21
664.733	51.34
665.062	51.23
665.39	51.32
665.719	51.37
666.048	51.2
666.376	51.26
666.705	51.26
667.033	51.25
667.362	51.28
667.69	51.37
668.018	51.3
668.347	51.31
668.675	51.33
669.003	51.33
669.331	51.43
669.659	51.37
669.987	51.28
670.315	51.28
670.643	51.32
670.971	51.42
671.299	51.53
671.627	51.43
671.955	51.44
672.283	51.34
672.61	51.42
672.938	51.58
673.266	51.51
673.593	51.68
673.921	51.79
674.249	51.79
674.576	51.72
674.904	51.82
675.231	51.86
675.558	51.85
675.886	51.87
676.213	51.83
676.54	51.95
676.867	51.91
677.195	52.11
677.522	52.27
677.849	52.32
678.176	52.21
678.503	52.2
678.83	52.3
679.157	52.38
679.484	52.19
679.81	52.15
680.137	52.11
680.464	51.96
680.791	51.93
681.117	52.08
681.444	52.03
681.771	52.02
682.097	52.03
682.424	51.99
682.75	52.15
683.077	52.18
683.403	52.18
683.729	52.2
684.056	52.07
684.382	52.03
684.708	52
685.034	52.07
685.36	52.17
685.686	52.17
686.012	52.28
686.339	52.38
686.664	52.49
686.99	52.43
687.316	52.52
687.642	52.55
687.968	52.43
688.294	52.36
688.619	52.56
688.945	52.63
689.271	52.76
689.596	52.74
689.922	52.66
690.247	52.53
690.573	52.37
690.898	52.31
691.224	52.32
691.549	52.31
691.874	52.21
692.2	52.2
692.525	52.11
692.85	52.1
693.175	52.16
693.5	52.15
693.825	52.5
694.15	52.48
694.475	52.53
694.8	52.65
695.125	52.77
695.45	52.56
695.775	52.39
696.099	52.36
696.424	52.13
696.749	52.22
697.073	52.43
697.398	52.77
697.723	52.91
698.047	52.91
698.372	53.01
698.696	53.09
699.02	53.06
699.345	53.06
699.669	53.04
699.993	53.16
700.318	53.11
700.642	53.09
700.966	52.99
701.29	52.98
701.614	52.85
701.938	52.82
702.262	52.91
702.586	53.16
702.91	53.19
703.234	53.39
703.557	53.26
703.881	53.12
704.205	52.97
704.529	52.89
704.852	52.62
705.176	52.65
705.499	52.47
705.823	52.43
706.146	52.65
706.47	52.68
706.793	52.65
707.117	52.63
707.44	52.49
707.763	52.62
708.086	52.44
708.409	52.43
708.733	52.38
709.056	52.41
709.379	52.29
709.702	52.46
710.025	52.44
710.348	52.6
710.671	52.8
710.993	52.95
711.316	53.12
711.639	53.26
711.962	53.51
712.284	53.59
712.607	53.75
712.93	53.75
713.252	53.61
713.575	53.79
713.897	53.77
714.22	53.74
714.542	53.64
714.864	53.75
715.187	54.19
715.509	54.28
715.831	54.43
716.153	54.33
716.475	54.17
716.798	54.25
717.12	54.25
717.442	54.23
717.764	54.02
718.085	53.89
718.407	54.07
718.729	53.46
719.051	53.45
719.373	53.44
719.695	53.35
720.016	53.5
720.338	53.45
720.659	53.47
720.981	53.58
721.302	53.83
721.624	53.83
721.945	53.47
722.267	53.61
722.588	53.37
722.909	53.5
723.231	53.44
723.552	53.28
723.873	53.2
724.194	53.17
724.515	53.23
724.836	53.14
725.157	53.09
725.478	53.65
725.799	53.94
726.12	53.93
726.441	53.91
726.762	53.97
727.083	53.84
727.403	54.24
727.724	54.37
728.045	54.2
728.365	54.23
728.686	54.22
729.006	54.13
729.327	54.24
729.647	53.83
729.967	53.8
730.288	53.92
730.608	53.93
730.928	53.86
731.249	53.79
731.569	53.76
731.889	53.85
732.209	53.55
732.529	53.47
732.849	53.42
733.169	53.43
733.489	53.28
733.809	53.17
734.129	52.75
734.448	52.57
734.768	52.7
735.088	52.9
735.408	53.01
735.727	53.06
736.047	52.93
736.366	53.47
736.686	53.64
737.005	53.63
737.325	53.67
737.644	53.57
737.963	53.62
738.283	53.51
738.602	53.29
738.921	53.78
739.24	53.85
739.56	53.97
739.879	53.88
740.198	53.89
740.517	54.11
740.836	54.37
741.155	54.24
741.473	54.34
741.792	54.2
742.111	54.03
742.43	54.14
742.748	54.23
743.067	54.21
743.386	54.01
743.704	53.98
744.023	53.92
744.341	54.21
744.66	54.2
744.978	54.56
745.297	54.65
745.615	54.34
745.933	54.07
746.252	54.11
746.57	54.41
746.888	54.25
747.206	54.03
747.524	53.85
747.842	54.09
748.16	53.84
748.478	53.7
748.796	53.62
749.114	53.45
749.432	53.49
749.749	53.38
750.067	53.45
750.385	53.24
750.703	53.05
751.02	52.7
751.338	52.92
751.655	52.93
751.973	53.36
752.29	53.17
752.608	53.32
752.925	53
753.242	52.91
753.56	52.88
753.877	52.79
754.194	53.02
754.511	53
754.828	53.13
755.145	53.39
755.462	53.43
755.779	53.36
756.096	53.47
756.413	53.37
756.73	53.61
757.047	53.74
757.364	54.04
757.68	54.45
757.997	54.36
758.314	54.35
758.63	54.22
758.947	54.2
759.264	54.39
759.58	54.63
759.896	54.79
760.213	55.12
760.529	55.31
760.846	55.31
761.162	55.17
761.478	55.1
761.794	54.99
762.11	55
762.426	55.08
762.743	55.01
763.059	54.98
763.375	54.65
763.69	55.02
764.006	55.18
764.322	55.18
764.638	55.09
764.954	55.15
765.27	54.87
765.585	54.99
765.901	54.66
766.216	54.78
766.532	54.4
766.848	54.25
767.163	54.14
767.478	54.07
767.794	53.8
768.109	54.02
768.424	54.24
768.74	54.29
769.055	54.28
769.37	54.76
769.685	55.07
770	55.22
770.315	54.9
770.63	54.69
770.945	54.27
771.26	54.19
771.575	54.07
771.89	54.06
772.205	54
772.52	54.56
772.834	54.64
773.149	54.54
773.464	54.83
773.778	54.86
774.093	54.93
774.407	55.26
774.722	55.38
775.036	55.29
775.351	55.25
775.665	55.17
775.979	54.32
776.293	54.52
776.608	54.77
776.922	55.02
777.236	55.22
777.55	55.32
777.864	55.62
778.178	55.63
778.492	55.78
778.806	55.61
779.12	54.83
779.434	55.17
779.747	55.29
780.061	55.37
780.375	55.62
780.689	55.91
781.002	55.85
781.316	55.48
781.629	54.91
781.943	55
782.256	55.44
782.57	56.04
782.883	55.87
783.196	56.09
783.51	55.9
783.823	55.77
784.136	55.83
784.449	55.6
784.762	56.11
785.075	55.84
785.388	55.53
785.701	55.89
786.014	54.94
786.327	55.3
786.64	55.08
786.953	54.65
787.266	54.5
787.578	54.9
787.891	54.73
788.204	54.83
788.516	55.19
788.829	54.86
789.141	54.54
789.454	54.9
789.766	54.87
790.079	54.52
790.391	54.54
790.703	54.8
791.016	55.57
791.328	55.17
791.64	55.18
791.952	56.36
792.264	56.39
792.576	56.73
792.888	57.27
793.2	57.57
793.512	58
793.824	58.26
794.136	58.11
794.448	58.51
794.76	58.48
795.071	57.98
795.383	58.02
795.695	58.46
796.006	58.02
796.318	57.65
796.629	57.42
796.941	57.25
797.252	56.92
797.564	56.58
797.875	56.83
798.186	56.67
798.497	56.23
798.809	56.24
799.12	56.28
799.431	56.08
799.742	56.07
800.053	55.77
800.364	55.74
800.675	55.87
800.986	55.68
801.297	56.02
801.608	56.64
801.918	56.76
802.229	56.22
802.54	56.37
802.851	56.73
803.161	57.07
803.472	57.54
803.782	59.06
804.093	58.23
804.403	58.09
804.714	58.58
805.024	58.13
805.334	58.5
805.645	58.6
805.955	58.54
806.265	58.73
806.575	59.34
806.885	58.86
807.195	59.24
807.505	58.79
807.815	58.66
808.125	58.31
808.435	59.01
808.745	58.78
809.055	59.16
809.365	59.1
809.674	59.46
809.984	59.24
810.294	58.11
810.603	58.99
810.913	58.88
811.222	58.79
811.532	58.97
811.841	59.29
812.151	59.82
812.46	60.3
812.769	59.57
813.079	59.19
813.388	58.59
813.697	58.02
814.006	59.36
814.315	58.74
814.624	59.13
814.933	58.32
815.242	58.67
815.551	58.1
815.86	58.17
816.169	57.47
816.478	57.75
816.786	57.26
817.095	56.8
817.404	56.28
817.712	56.35
818.021	56.2
818.33	55.81
818.638	55.65
818.947	55.9
819.255	56.72
819.563	57.3
819.872	57.61
820.18	58
820.488	57.9
820.796	58.26
821.105	58.13
821.413	57.94
821.721	57.84
822.029	57.94
822.337	57.71
822.645	58.08
822.953	57.78
823.26	57.91
823.568	57.88
823.876	57.99
824.184	57.96
824.491	58.03
824.799	57.9
825.107	57.69
825.414	57.64
825.722	57.78
826.029	57.53
826.337	57.43
826.644	57.25
826.951	56.97
827.259	56.81
827.566	56.82
827.873	56.85
828.18	56.76
828.488	56.52
828.795	56.86
829.102	56.35
829.409	56.74
829.716	56.66
830.023	56.78
830.329	56.97
830.636	56.99
830.943	57.31
831.25	57.45
831.557	57.7
831.863	57.66
832.17	57.08
832.476	57.3
832.783	56.96
833.089	57.01
833.396	57.24
833.702	57.52
834.009	57.4
834.315	56.83
834.621	57.39
834.928	57.45
835.234	56.88
835.54	56.95
835.846	57.26
836.152	56.66
836.458	56.89
836.764	56.41
837.07	56.86
837.376	55.91
837.682	55.73
837.988	55.51
838.293	54.58
838.599	54.33
838.905	53.45
839.211	54.54
839.516	54.61
839.822	54.46
840.127	54.75
840.433	54.44
840.738	55.39
841.044	55.29
841.349	55.54
841.654	56.28
841.959	56.56
842.265	55.71
842.57	57.44
842.875	57.02
843.18	58
843.485	57.42
843.79	58.18
844.095	59.25
844.4	60.18
844.705	61.08
845.01	61.5
845.315	61.68
845.619	61.1
845.924	61.3
846.229	61.31
846.533	59.56
846.838	59.46
847.142	59.28
847.447	57.97
847.751	57.17
848.056	56.26
848.36	57.41
848.664	57.79
848.969	58.65
849.273	57.46
849.577	57.23
849.881	56.31
850.185	56.13
850.489	57.19
850.794	56.93
851.097	57.15
851.401	54.79
851.705	55.51
852.009	54.71
852.313	53.91
852.617	56.15
852.92	57.7
853.224	58.17
853.528	61.24
853.831	61.37
854.135	61.17
854.438	60.41
854.742	60.9
855.045	60.78
855.349	58.31
855.652	60.45
855.955	59.15
856.259	58.39
856.562	59.97
856.865	59.28
857.168	60.35
857.471	59.02
857.774	60.8
858.077	62.11
858.38	63.28
858.683	64.27
858.986	62.13
859.289	60.1
859.592	58.13
859.894	55.3
860.197	57.54
860.5	59.52
860.802	59.37
861.105	56.9
861.407	56.79
861.71	56.85
862.012	54.21
862.315	54.61
862.617	54.59
862.919	54.48
863.222	54.97
863.524	52.78
863.826	53.24
864.128	55.85
864.43	54.5
864.732	53.28
865.034	54.26
865.336	53.67
865.638	57.37
865.94	58.84
866.242	59.95
866.544	58.93
866.846	57.61
867.147	58.24
867.449	59.68
867.751	57.92
868.052	56.93
868.354	59.31
868.655	58.6
868.957	59.68
869.258	56.73
869.56	55.29
869.861	57.18
870.162	59.39
870.463	57.14
870.765	56.53
871.066	56.19
871.367	52.95
871.668	53.44
871.969	50.75
872.27	50.73
872.571	50.12
872.872	48.76
873.173	48.94
873.473	49.02
873.774	49.62
874.075	51.95
874.376	53.48
874.676	55.09
874.977	58.84
875.277	59.69
875.578	63.51
875.878	63.65
876.179	62.71
876.479	61.71
876.78	61.42
877.08	63.51
877.38	66.43
877.68	69.42
877.981	69.63
878.281	71.86
878.581	74.31
