Data from MVZ_BU163024_Reflection_00004.txt Node
Date: Tue Nov 19 12:11:27 EST 2019
User: vgr7
Spectrometer: USB2G7710
Scans to average: 3
Trigger mode: 4
Integration Time (sec): 2.000000E-2
Electric dark correction enabled: true
Boxcar width: 10
XAxis mode: Wavelengths
Number of Pixels in Spectrum: 2048
>>>>>Begin Spectral Data<<<<<
177.721	-295.6
178.105	-18.42
178.488	-21.72
178.871	-74.19
179.254	-245.45
179.636	475
180.019	649.3
180.402	38.46
180.785	14.29
181.168	23.73
181.55	29.46
181.933	56.52
182.316	96.44
182.698	68.99
183.081	35.41
183.463	26.25
183.846	1.53
184.228	0.73
184.611	-1.91
184.993	-43.53
185.376	-56.74
185.758	-44.8
186.14	12.28
186.522	52.79
186.904	38.78
187.287	2.21
187.669	-13.21
188.051	-46.79
188.433	4.39
188.815	-9.22
189.197	-9.14
189.579	-24.4
189.961	-30.11
190.342	-15.94
190.724	15.66
191.106	37.82
191.488	12.44
191.869	39.39
192.251	88.95
192.633	54.95
193.014	91.6
193.396	54.34
193.777	18.92
194.159	-23.32
194.54	-76.29
194.922	-78.67
195.303	-160.61
195.684	-727.59
196.065	223.6
196.447	221.95
196.828	187.38
197.209	115.08
197.59	103.8
197.971	75.09
198.352	93.57
198.733	91.35
199.114	103.34
199.495	93.57
199.876	94.27
200.257	284.4
200.638	246.79
201.018	197.35
201.399	89.53
201.78	145.75
202.16	61.7
202.541	62.44
202.922	53.37
203.302	15.97
203.683	-340
204.063	-45.45
204.444	69.7
204.824	-128.57
205.204	-37.93
205.585	242.86
205.965	53.49
206.345	-138.1
206.725	-9.49
207.106	-2.04
207.486	-16.88
207.866	-3.45
208.246	8.12
208.626	15.14
209.006	15.72
209.386	29.45
209.766	29.03
210.145	45.21
210.525	26.21
210.905	31.92
211.285	44.37
211.664	35.91
212.044	31.36
212.424	25.23
212.803	27.82
213.183	35.83
213.562	34.36
213.942	40.34
214.321	36.06
214.701	52.32
215.08	61.27
215.459	73.5
215.838	59.48
216.218	56.97
216.597	30.62
216.976	33.76
217.355	29.72
217.734	24.08
218.113	31.79
218.492	38.52
218.871	34.97
219.25	35.2
219.629	33.65
220.008	47.03
220.387	62.79
220.766	63.58
221.144	47.81
221.523	55.48
221.902	61.39
222.28	66.46
222.659	64.25
223.037	53.83
223.416	43.92
223.794	49.74
224.173	51.43
224.551	59.31
224.929	58.89
225.308	54.03
225.686	47.46
226.064	34.94
226.442	38.7
226.821	38.83
227.199	32.56
227.577	26.36
227.955	23.76
228.333	18.68
228.711	14.27
229.089	16.04
229.467	13.24
229.845	9.21
230.222	11.66
230.6	6.78
230.978	7.64
231.356	11.4
231.733	10.63
232.111	12.82
232.488	14.51
232.866	12.51
233.243	14.46
233.621	14.34
233.998	15.67
234.376	14.91
234.753	13.95
235.13	13.71
235.508	14.91
235.885	14.04
236.262	12.99
236.639	11.76
237.016	11.72
237.393	11.09
237.77	11.19
238.147	8.87
238.524	8.55
238.901	7.75
239.278	6.49
239.655	6.12
240.032	4.74
240.409	4.63
240.785	4.76
241.162	4.66
241.539	5.28
241.915	4.88
242.292	3.93
242.668	3.75
243.045	4.15
243.421	4.29
243.798	4.52
244.174	4.72
244.551	4.67
244.927	4.6
245.303	4.4
245.679	4.3
246.056	4.52
246.432	4.54
246.808	4.56
247.184	4.91
247.56	4.8
247.936	4.96
248.312	5.01
248.688	5.13
249.064	4.89
249.44	4.52
249.815	4.52
250.191	5.07
250.567	5.13
250.943	5.05
251.318	4.99
251.694	4.58
252.069	4.69
252.445	4.98
252.82	5.01
253.196	5.09
253.571	5.15
253.947	5.27
254.322	5.33
254.697	5.41
255.073	5.02
255.448	5.22
255.823	5.29
256.198	5.28
256.573	5.07
256.948	5.06
257.323	5.26
257.698	5.11
258.073	4.62
258.448	4.47
258.823	4.12
259.198	4.12
259.573	4.16
259.948	4.18
260.322	4.11
260.697	4.17
261.072	4.24
261.446	4.19
261.821	3.92
262.195	3.88
262.57	3.93
262.944	4.03
263.319	4.02
263.693	3.9
264.067	3.67
264.442	3.58
264.816	3.6
265.19	3.5
265.564	3.41
265.938	3.54
266.313	3.37
266.687	3.49
267.061	3.38
267.435	3.68
267.809	3.39
268.183	3.3
268.556	3.25
268.93	3.17
269.304	3.04
269.678	3.15
270.051	3.27
270.425	3.39
270.799	3.24
271.172	3.21
271.546	3.48
271.919	3.8
272.293	3.92
272.666	3.89
273.04	3.89
273.413	4.07
273.787	3.98
274.16	4.22
274.533	4.32
274.906	4.45
275.279	4.15
275.653	4.42
276.026	4.52
276.399	4.53
276.772	4.73
277.145	5
277.518	4.99
277.891	5.01
278.263	4.94
278.636	5.03
279.009	5.09
279.382	4.89
279.755	4.64
280.127	4.57
280.5	4.59
280.872	4.48
281.245	4.36
281.617	4.4
281.99	4.21
282.362	4.26
282.735	3.9
283.107	4.07
283.479	3.88
283.852	3.77
284.224	3.73
284.596	3.72
284.968	3.68
285.34	3.72
285.713	3.62
286.085	3.5
286.457	3.52
286.829	3.49
287.201	3.45
287.572	3.54
287.944	3.55
288.316	3.65
288.688	3.8
289.06	3.73
289.431	3.87
289.803	3.93
290.175	3.95
290.546	4.09
290.918	4.19
291.289	4.06
291.661	4.16
292.032	4.14
292.403	4.05
292.775	4.05
293.146	4.14
293.517	4.18
293.889	4.18
294.26	4.15
294.631	4.18
295.002	4.27
295.373	4.26
295.744	4.34
296.115	4.25
296.486	4.23
296.857	4.31
297.228	4.14
297.599	4.26
297.97	4.21
298.34	4.21
298.711	4.27
299.082	4.43
299.452	4.35
299.823	4.44
300.194	4.59
300.564	4.52
300.935	4.49
301.305	4.45
301.676	4.53
302.046	4.39
302.416	4.27
302.787	4.24
303.157	4.23
303.527	4.16
303.897	4.29
304.267	4.29
304.637	4.21
305.008	4.3
305.378	4.18
305.748	4.29
306.117	4.34
306.487	4.28
306.857	4.34
307.227	4.45
307.597	4.25
307.967	4.16
308.336	4.18
308.706	4.2
309.076	4.24
309.445	4.33
309.815	4.47
310.184	4.5
310.554	4.55
310.923	4.44
311.293	4.37
311.662	4.4
312.031	4.3
312.401	4.3
312.77	4.34
313.139	4.32
313.508	4.15
313.877	4.08
314.246	3.93
314.616	3.92
314.985	3.73
315.353	3.86
315.722	3.85
316.091	3.81
316.46	3.71
316.829	3.79
317.198	3.59
317.567	3.59
317.935	3.72
318.304	3.77
318.672	3.76
319.041	3.94
319.41	3.7
319.778	3.76
320.147	3.77
320.515	3.68
320.883	3.82
321.252	4.06
321.62	4.16
321.988	4.24
322.357	4.16
322.725	4.25
323.093	4.03
323.461	3.99
323.829	4.03
324.197	4.11
324.565	3.97
324.933	4.05
325.301	3.96
325.669	3.85
326.037	3.64
326.405	3.72
326.772	3.67
327.14	3.74
327.508	3.76
327.875	3.88
328.243	3.83
328.61	3.73
328.978	3.68
329.346	3.66
329.713	3.59
330.08	3.68
330.448	3.86
330.815	3.96
331.182	3.84
331.55	3.82
331.917	3.74
332.284	3.82
332.651	3.86
333.018	3.99
333.385	4.17
333.752	4.17
334.119	4.09
334.486	4.11
334.853	4.08
335.22	3.97
335.587	3.93
335.954	4.02
336.32	3.98
336.687	3.9
337.054	3.88
337.42	3.99
337.787	3.9
338.153	3.94
338.52	3.99
338.886	4.19
339.253	4.17
339.619	4.31
339.986	4.28
340.352	4.26
340.718	4.15
341.084	3.98
341.451	4.06
341.817	4.08
342.183	3.88
342.549	3.96
342.915	4.07
343.281	4.01
343.647	3.95
344.013	3.99
344.379	3.92
344.745	4.05
345.11	4.01
345.476	4
345.842	3.95
346.208	3.96
346.573	3.89
346.939	3.89
347.304	3.84
347.67	3.77
348.035	3.77
348.401	3.87
348.766	3.88
349.132	3.89
349.497	3.99
349.862	4.03
350.228	4.02
350.593	4.06
350.958	4.21
351.323	4.29
351.688	4.27
352.053	4.38
352.418	4.28
352.783	4.39
353.148	4.4
353.513	4.37
353.878	4.39
354.243	4.25
354.608	4.32
354.972	4.27
355.337	4.28
355.702	4.26
356.066	4.15
356.431	4.14
356.795	4.12
357.16	4.14
357.524	4.17
357.889	4.13
358.253	4.01
358.618	3.98
358.982	3.95
359.346	4
359.71	3.98
360.075	3.92
360.439	3.85
360.803	3.88
361.167	3.86
361.531	3.77
361.895	3.79
362.259	3.81
362.623	3.87
362.987	3.94
363.351	3.9
363.714	3.96
364.078	3.89
364.442	3.86
364.806	3.78
365.169	3.83
365.533	3.9
365.896	4.01
366.26	3.91
366.623	3.95
366.987	3.92
367.35	3.95
367.714	4.06
368.077	4.08
368.44	4.14
368.803	4.12
369.167	4.17
369.53	4.24
369.893	4.25
370.256	4.21
370.619	4.15
370.982	4.11
371.345	4.06
371.708	4.21
372.071	4.17
372.434	4.21
372.797	4.17
373.159	4.09
373.522	4.02
373.885	4
374.247	3.96
374.61	3.97
374.973	3.87
375.335	3.84
375.698	3.79
376.06	3.69
376.423	3.69
376.785	3.75
377.147	3.69
377.51	3.63
377.872	3.63
378.234	3.62
378.596	3.62
378.958	3.68
379.321	3.6
379.683	3.67
380.045	3.66
380.407	3.65
380.769	3.56
381.13	3.63
381.492	3.68
381.854	3.68
382.216	3.68
382.578	3.72
382.939	3.74
383.301	3.69
383.663	3.69
384.024	3.68
384.386	3.59
384.747	3.59
385.109	3.6
385.47	3.62
385.832	3.63
386.193	3.68
386.554	3.6
386.916	3.59
387.277	3.55
387.638	3.6
387.999	3.62
388.36	3.77
388.721	3.76
389.082	3.77
389.443	3.76
389.804	3.78
390.165	3.86
390.526	3.84
390.887	3.89
391.248	3.88
391.609	3.94
391.969	3.97
392.33	3.97
392.691	3.96
393.051	3.92
393.412	3.93
393.772	3.91
394.133	3.91
394.493	3.89
394.854	3.95
395.214	3.91
395.574	3.86
395.935	3.79
396.295	3.77
396.655	3.73
397.015	3.71
397.376	3.67
397.736	3.61
398.096	3.6
398.456	3.61
398.816	3.63
399.176	3.57
399.535	3.56
399.895	3.57
400.255	3.57
400.615	3.56
400.975	3.53
401.334	3.52
401.694	3.56
402.054	3.58
402.413	3.55
402.773	3.56
403.132	3.59
403.492	3.55
403.851	3.55
404.211	3.56
404.57	3.59
404.929	3.57
405.288	3.59
405.648	3.62
406.007	3.6
406.366	3.64
406.725	3.64
407.084	3.65
407.443	3.67
407.802	3.65
408.161	3.68
408.52	3.72
408.879	3.74
409.238	3.72
409.596	3.75
409.955	3.73
410.314	3.75
410.673	3.75
411.031	3.79
411.39	3.8
411.748	3.82
412.107	3.82
412.465	3.84
412.824	3.79
413.182	3.77
413.54	3.75
413.899	3.7
414.257	3.7
414.615	3.71
414.974	3.73
415.332	3.75
415.69	3.74
416.048	3.72
416.406	3.7
416.764	3.68
417.122	3.64
417.48	3.65
417.838	3.62
418.195	3.61
418.553	3.58
418.911	3.58
419.269	3.55
419.626	3.53
419.984	3.52
420.342	3.51
420.699	3.51
421.057	3.51
421.414	3.5
421.772	3.52
422.129	3.49
422.486	3.48
422.844	3.48
423.201	3.47
423.558	3.47
423.915	3.48
424.273	3.47
424.63	3.47
424.987	3.47
425.344	3.47
425.701	3.46
426.058	3.47
426.415	3.44
426.772	3.45
427.128	3.45
427.485	3.45
427.842	3.46
428.199	3.44
428.555	3.45
428.912	3.43
429.269	3.37
429.625	3.4
429.982	3.38
430.338	3.38
430.695	3.37
431.051	3.37
431.407	3.35
431.764	3.38
432.12	3.38
432.476	3.39
432.832	3.39
433.189	3.38
433.545	3.4
433.901	3.41
434.257	3.41
434.613	3.42
434.969	3.42
435.325	3.43
435.681	3.46
436.036	3.44
436.392	3.46
436.748	3.49
437.104	3.5
437.459	3.5
437.815	3.49
438.171	3.51
438.526	3.5
438.882	3.51
439.237	3.5
439.593	3.48
439.948	3.47
440.304	3.47
440.659	3.47
441.014	3.46
441.369	3.46
441.725	3.45
442.08	3.45
442.435	3.47
442.79	3.46
443.145	3.45
443.5	3.46
443.855	3.47
444.21	3.47
444.565	3.47
444.92	3.47
445.275	3.47
445.629	3.46
445.984	3.47
446.339	3.48
446.693	3.48
447.048	3.49
447.403	3.49
447.757	3.49
448.112	3.5
448.466	3.51
448.82	3.51
449.175	3.51
449.529	3.52
449.883	3.5
450.238	3.5
450.592	3.49
450.946	3.48
451.3	3.47
451.654	3.46
452.008	3.44
452.362	3.42
452.716	3.42
453.07	3.39
453.424	3.37
453.778	3.35
454.132	3.36
454.486	3.37
454.839	3.37
455.193	3.37
455.547	3.34
455.9	3.35
456.254	3.35
456.607	3.36
456.961	3.36
457.314	3.35
457.668	3.36
458.021	3.37
458.375	3.37
458.728	3.38
459.081	3.37
459.434	3.37
459.787	3.4
460.141	3.41
460.494	3.42
460.847	3.42
461.2	3.43
461.553	3.42
461.906	3.43
462.259	3.43
462.611	3.43
462.964	3.44
463.317	3.43
463.67	3.44
464.022	3.45
464.375	3.45
464.728	3.45
465.08	3.42
465.433	3.43
465.785	3.45
466.138	3.48
466.49	3.51
466.843	3.55
467.195	3.54
467.547	3.52
467.899	3.57
468.252	3.58
468.604	3.56
468.956	3.58
469.308	3.56
469.66	3.59
470.012	3.6
470.364	3.6
470.716	3.58
471.068	3.59
471.42	3.59
471.772	3.59
472.123	3.61
472.475	3.63
472.827	3.64
473.178	3.64
473.53	3.62
473.882	3.6
474.233	3.58
474.585	3.57
474.936	3.6
475.288	3.55
475.639	3.56
475.99	3.57
476.342	3.58
476.693	3.58
477.044	3.55
477.395	3.53
477.746	3.52
478.097	3.53
478.448	3.53
478.8	3.57
479.15	3.56
479.501	3.55
479.852	3.56
480.203	3.56
480.554	3.56
480.905	3.56
481.255	3.57
481.606	3.56
481.957	3.57
482.307	3.57
482.658	3.58
483.009	3.58
483.359	3.58
483.709	3.58
484.06	3.6
484.41	3.6
484.761	3.62
485.111	3.63
485.461	3.64
485.811	3.63
486.162	3.62
486.512	3.63
486.862	3.63
487.212	3.62
487.562	3.61
487.912	3.61
488.262	3.61
488.612	3.62
488.961	3.63
489.311	3.64
489.661	3.64
490.011	3.65
490.36	3.66
490.71	3.66
491.06	3.66
491.409	3.66
491.759	3.65
492.108	3.64
492.458	3.63
492.807	3.63
493.157	3.64
493.506	3.64
493.855	3.65
494.204	3.67
494.554	3.67
494.903	3.68
495.252	3.69
495.601	3.69
495.95	3.69
496.299	3.68
496.648	3.67
496.997	3.68
497.346	3.68
497.695	3.69
498.043	3.71
498.392	3.73
498.741	3.73
499.09	3.74
499.438	3.76
499.787	3.78
500.135	3.8
500.484	3.79
500.832	3.79
501.181	3.8
501.529	3.83
501.878	3.86
502.226	3.87
502.574	3.9
502.923	3.92
503.271	3.93
503.619	3.97
503.967	3.98
504.315	3.98
504.663	3.98
505.011	3.97
505.359	3.95
505.707	3.94
506.055	3.96
506.403	3.97
506.751	3.97
507.098	3.99
507.446	4
507.794	4.02
508.141	4.04
508.489	4.05
508.837	4.04
509.184	4.03
509.531	4.03
509.879	4.02
510.226	4.01
510.574	4.02
510.921	4
511.268	4
511.616	4.02
511.963	4.04
512.31	4.05
512.657	4.07
513.004	4.07
513.351	4.08
513.698	4.09
514.045	4.09
514.392	4.08
514.739	4.09
515.086	4.12
515.432	4.15
515.779	4.15
516.126	4.19
516.473	4.19
516.819	4.2
517.166	4.23
517.512	4.24
517.859	4.25
518.205	4.25
518.552	4.26
518.898	4.28
519.245	4.28
519.591	4.3
519.937	4.28
520.283	4.3
520.629	4.28
520.976	4.29
521.322	4.29
521.668	4.31
522.014	4.31
522.36	4.28
522.706	4.27
523.052	4.3
523.398	4.29
523.743	4.31
524.089	4.32
524.435	4.31
524.781	4.3
525.126	4.32
525.472	4.33
525.817	4.34
526.163	4.33
526.509	4.32
526.854	4.32
527.199	4.35
527.545	4.36
527.89	4.38
528.235	4.39
528.581	4.38
528.926	4.38
529.271	4.39
529.616	4.41
529.961	4.42
530.306	4.42
530.651	4.42
530.996	4.43
531.341	4.44
531.686	4.46
532.031	4.48
532.376	4.47
532.721	4.47
533.065	4.49
533.41	4.5
533.755	4.51
534.099	4.53
534.444	4.53
534.788	4.52
535.133	4.51
535.477	4.53
535.822	4.54
536.166	4.56
536.51	4.55
536.855	4.53
537.199	4.52
537.543	4.53
537.887	4.53
538.231	4.53
538.576	4.52
538.92	4.54
539.264	4.54
539.608	4.56
539.951	4.57
540.295	4.58
540.639	4.59
540.983	4.6
541.327	4.61
541.671	4.62
542.014	4.65
542.358	4.67
542.701	4.67
543.045	4.69
543.389	4.68
543.732	4.67
544.075	4.7
544.419	4.71
544.762	4.71
545.105	4.72
545.449	4.73
545.792	4.75
546.135	4.73
546.478	4.73
546.821	4.73
547.165	4.74
547.508	4.74
547.851	4.74
548.194	4.73
548.536	4.71
548.879	4.69
549.222	4.68
549.565	4.66
549.908	4.67
550.25	4.62
550.593	4.63
550.936	4.65
551.278	4.66
551.621	4.67
551.963	4.68
552.306	4.69
552.648	4.69
552.991	4.71
553.333	4.7
553.675	4.72
554.017	4.71
554.36	4.73
554.702	4.72
555.044	4.72
555.386	4.72
555.728	4.74
556.07	4.73
556.412	4.72
556.754	4.71
557.096	4.7
557.438	4.76
557.78	4.77
558.121	4.78
558.463	4.78
558.805	4.78
559.147	4.77
559.488	4.73
559.83	4.73
560.171	4.68
560.513	4.7
560.854	4.7
561.196	4.73
561.537	4.69
561.878	4.71
562.22	4.73
562.561	4.77
562.902	4.78
563.243	4.8
563.584	4.78
563.925	4.8
564.266	4.8
564.607	4.78
564.948	4.79
565.289	4.79
565.63	4.78
565.971	4.76
566.312	4.77
566.653	4.8
566.993	4.79
567.334	4.83
567.675	4.82
568.015	4.79
568.356	4.78
568.696	4.83
569.037	4.79
569.377	4.76
569.718	4.75
570.058	4.74
570.398	4.73
570.739	4.75
571.079	4.77
571.419	4.77
571.759	4.74
572.099	4.71
572.439	4.69
572.779	4.71
573.119	4.72
573.459	4.73
573.799	4.7
574.139	4.72
574.479	4.72
574.819	4.72
575.158	4.73
575.498	4.74
575.838	4.68
576.177	4.73
576.517	4.76
576.856	4.74
577.196	4.76
577.535	4.75
577.875	4.77
578.214	4.75
578.553	4.77
578.893	4.83
579.232	4.88
579.571	4.9
579.91	4.89
580.25	4.89
580.589	4.86
580.928	4.88
581.267	4.84
581.606	4.82
581.945	4.81
582.283	4.84
582.622	4.82
582.961	4.88
583.3	4.84
583.639	4.82
583.977	4.86
584.316	4.83
584.654	4.85
584.993	4.84
585.332	4.84
585.67	4.84
586.008	4.89
586.347	4.9
586.685	4.89
587.024	4.85
587.362	4.84
587.7	4.91
588.038	4.94
588.376	4.97
588.715	5
589.053	5.02
589.391	5.01
589.729	5.05
590.067	5.08
590.404	5.1
590.742	5.1
591.08	5.07
591.418	5.09
591.756	5.09
592.093	5.11
592.431	5.12
592.769	5.11
593.106	5.1
593.444	5.12
593.781	5.18
594.119	5.21
594.456	5.26
594.793	5.22
595.131	5.17
595.468	5.15
595.805	5.15
596.143	5.16
596.48	5.19
596.817	5.18
597.154	5.15
597.491	5.15
597.828	5.16
598.165	5.19
598.502	5.19
598.839	5.19
599.176	5.16
599.512	5.2
599.849	5.23
600.186	5.18
600.523	5.13
600.859	5.09
601.196	5.1
601.532	5.05
601.869	5.07
602.205	5.08
602.542	5.12
602.878	5.13
603.215	5.15
603.551	5.15
603.887	5.13
604.223	5.13
604.56	5.13
604.896	5.13
605.232	5.16
605.568	5.15
605.904	5.17
606.24	5.19
606.576	5.16
606.912	5.14
607.248	5.17
607.583	5.17
607.919	5.18
608.255	5.17
608.591	5.2
608.926	5.21
609.262	5.23
609.597	5.21
609.933	5.18
610.268	5.19
610.604	5.16
610.939	5.18
611.275	5.23
611.61	5.24
611.945	5.23
612.281	5.21
612.616	5.2
612.951	5.24
613.286	5.25
613.621	5.22
613.956	5.25
614.291	5.25
614.626	5.27
614.961	5.32
615.296	5.37
615.631	5.37
615.966	5.4
616.3	5.43
616.635	5.46
616.97	5.52
617.304	5.51
617.639	5.52
617.973	5.47
618.308	5.45
618.642	5.45
618.977	5.44
619.311	5.42
619.646	5.45
619.98	5.42
620.314	5.4
620.648	5.46
620.983	5.43
621.317	5.44
621.651	5.4
621.985	5.39
622.319	5.36
622.653	5.38
622.987	5.37
623.321	5.39
623.655	5.37
623.988	5.39
624.322	5.44
624.656	5.43
624.99	5.45
625.323	5.42
625.657	5.45
625.99	5.48
626.324	5.47
626.657	5.44
626.991	5.46
627.324	5.47
627.658	5.42
627.991	5.48
628.324	5.51
628.657	5.55
628.991	5.56
629.324	5.57
629.657	5.55
629.99	5.52
630.323	5.48
630.656	5.49
630.989	5.45
631.322	5.4
631.655	5.41
631.987	5.45
632.32	5.49
632.653	5.47
632.986	5.49
633.318	5.5
633.651	5.52
633.984	5.47
634.316	5.48
634.649	5.49
634.981	5.45
635.313	5.41
635.646	5.45
635.978	5.46
636.31	5.45
636.643	5.42
636.975	5.42
637.307	5.49
637.639	5.51
637.971	5.52
638.303	5.53
638.635	5.5
638.967	5.48
639.299	5.48
639.631	5.47
639.963	5.46
640.295	5.52
640.626	5.52
640.958	5.6
641.29	5.58
641.621	5.54
641.953	5.54
642.285	5.61
642.616	5.6
642.948	5.58
643.279	5.6
643.61	5.66
643.942	5.76
644.273	5.66
644.604	5.66
644.936	5.66
645.267	5.64
645.598	5.77
645.929	5.79
646.26	5.82
646.591	5.85
646.922	5.88
647.253	5.83
647.584	5.85
647.915	5.82
648.245	5.86
648.576	5.91
648.907	5.94
649.238	5.89
649.568	5.88
649.899	5.86
650.229	5.91
650.56	5.89
650.89	5.87
651.221	5.95
651.551	5.95
651.882	5.99
652.212	5.97
652.542	5.95
652.872	5.92
653.203	5.93
653.533	5.96
653.863	5.99
654.193	5.94
654.523	5.93
654.853	6.01
655.183	6.03
655.513	6.07
655.843	6.09
656.172	6.1
656.502	6.06
656.832	6.05
657.162	6
657.491	6.08
657.821	6.07
658.15	6.01
658.48	6.02
658.809	6.04
659.139	6.09
659.468	6.05
659.798	6.09
660.127	6.05
660.456	6.03
660.785	5.99
661.115	5.96
661.444	6.02
661.773	6.04
662.102	6.05
662.431	6.06
662.76	6.07
663.089	6.1
663.418	6.14
663.747	6.16
664.076	6.21
664.404	6.19
664.733	6.2
665.062	6.23
665.39	6.3
665.719	6.27
666.048	6.2
666.376	6.22
666.705	6.18
667.033	6.2
667.362	6.14
667.69	6.17
668.018	6.29
668.347	6.26
668.675	6.1
669.003	6.11
669.331	6.12
669.659	6.09
669.987	6.14
670.315	6.1
670.643	6.11
670.971	6.09
671.299	6.05
671.627	6.05
671.955	6.04
672.283	6.02
672.61	6
672.938	6.12
673.266	6.13
673.593	6.24
673.921	6.31
674.249	6.39
674.576	6.43
674.904	6.54
675.231	6.57
675.558	6.63
675.886	6.62
676.213	6.64
676.54	6.65
676.867	6.7
677.195	6.77
677.522	6.82
677.849	6.81
678.176	6.93
678.503	6.9
678.83	6.95
679.157	6.92
679.484	6.88
679.81	6.91
680.137	6.93
680.464	6.94
680.791	6.9
681.117	6.97
681.444	6.98
681.771	6.91
682.097	6.88
682.424	6.88
682.75	6.89
683.077	6.92
683.403	6.94
683.729	6.88
684.056	6.83
684.382	6.89
684.708	6.9
685.034	6.81
685.36	6.93
685.686	6.87
686.012	6.83
686.339	6.94
686.664	6.8
686.99	6.86
687.316	6.79
687.642	6.79
687.968	6.74
688.294	6.78
688.619	6.81
688.945	6.8
689.271	6.82
689.596	6.81
689.922	6.7
690.247	6.7
690.573	6.72
690.898	6.83
691.224	6.8
691.549	6.93
691.874	6.92
692.2	6.98
692.525	7.07
692.85	7.13
693.175	7.14
693.5	7.16
693.825	7.09
694.15	7.09
694.475	7.15
694.8	7.11
695.125	7.04
695.45	7.06
695.775	7.07
696.099	7.12
696.424	7.11
696.749	7.19
697.073	7.27
697.398	7.36
697.723	7.35
698.047	7.27
698.372	7.3
698.696	7.28
699.02	7.16
699.345	7.18
699.669	7.2
699.993	7.13
700.318	7.21
700.642	7.23
700.966	7.36
701.29	7.38
701.614	7.35
701.938	7.44
702.262	7.35
702.586	7.39
702.91	7.35
703.234	7.27
703.557	7.28
703.881	7.2
704.205	7.21
704.529	7.17
704.852	7.24
705.176	7.16
705.499	7.11
705.823	7.15
706.146	7.27
706.47	7.34
706.793	7.43
707.117	7.46
707.44	7.36
707.763	7.18
708.086	7.26
708.409	7.39
708.733	7.38
709.056	7.44
709.379	7.5
709.702	7.56
710.025	7.88
710.348	7.79
710.671	7.76
710.993	7.67
711.316	7.74
711.639	7.74
711.962	7.75
712.284	7.95
712.607	7.87
712.93	7.82
713.252	7.7
713.575	7.67
713.897	7.49
714.22	7.74
714.542	7.87
714.864	7.86
715.187	7.73
715.509	7.78
715.831	7.86
716.153	7.85
716.475	7.97
716.798	7.8
717.12	7.89
717.442	7.83
717.764	7.8
718.085	7.84
718.407	7.96
718.729	7.93
719.051	7.74
719.373	7.92
719.695	7.83
720.016	7.69
720.338	7.87
720.659	8.18
720.981	8.02
721.302	8.13
721.624	7.89
721.945	8.13
722.267	8.1
722.588	8.09
722.909	8.1
723.231	7.95
723.552	7.91
723.873	7.8
724.194	8.03
724.515	8.18
724.836	8.01
725.157	8.01
725.478	7.97
725.799	8.14
726.12	8.03
726.441	8.26
726.762	8.56
727.083	8.65
727.403	8.51
727.724	8.55
728.045	8.53
728.365	8.81
728.686	8.95
729.006	8.97
729.327	9.07
729.647	9.01
729.967	8.93
730.288	9.01
730.608	9.14
730.928	9.21
731.249	9.25
731.569	9.34
731.889	9.29
732.209	9.49
732.529	9.53
732.849	9.63
733.169	9.42
733.489	9.34
733.809	9.23
734.129	9.28
734.448	9.26
734.768	9.11
735.088	8.88
735.408	8.66
735.727	8.63
736.047	8.52
736.366	8.45
736.686	8.51
737.005	8.54
737.325	8.6
737.644	8.41
737.963	8.29
738.283	8.28
738.602	8.12
738.921	8.17
739.24	8.13
739.56	8.14
739.879	8.3
740.198	8.18
740.517	8.18
740.836	8.24
741.155	8.41
741.473	8.33
741.792	8.51
742.111	8.73
742.43	8.88
742.748	8.97
743.067	9.21
743.386	9.23
743.704	9.48
744.023	9.21
744.341	9.42
744.66	9.46
744.978	9.54
745.297	9.73
745.615	9.35
745.933	9.34
746.252	9.41
746.57	9.27
746.888	9.82
747.206	9.72
747.524	9.85
747.842	9.6
748.16	10.02
748.478	10.1
748.796	9.8
749.114	9.74
749.432	9.92
749.749	9.47
750.067	9.38
750.385	9.37
750.703	9.58
751.02	9.71
751.338	9.59
751.655	9.52
751.973	9.42
752.29	9.58
752.608	9.25
752.925	8.98
753.242	9.07
753.56	8.71
753.877	8.79
754.194	8.71
754.511	8.54
754.828	8.3
755.145	8.11
755.462	7.95
755.779	7.82
756.096	7.57
756.413	8.18
756.73	8.57
757.047	8.25
757.364	8.4
757.68	8.16
757.997	8.27
758.314	8.35
758.63	8.48
758.947	8.63
759.264	8.93
759.58	9.15
759.896	9.12
760.213	9.37
760.529	9.35
760.846	9.31
761.162	9.41
761.478	9.59
761.794	9.64
762.11	9.87
762.426	9.93
762.743	9.76
763.059	9.67
763.375	9.36
763.69	9.63
764.006	9.51
764.322	9.53
764.638	9.58
764.954	9.73
765.27	9.88
765.585	9.93
765.901	9.88
766.216	9.92
766.532	10
766.848	9.92
767.163	9.93
767.478	10.01
767.794	10.17
768.109	9.98
768.424	10.1
768.74	9.99
769.055	10.16
769.37	10.52
769.685	10.48
770	10.65
770.315	10.32
770.63	10.42
770.945	10.58
771.26	10.37
771.575	10.17
771.89	9.97
772.205	9.88
772.52	10.11
772.834	9.87
773.149	9.83
773.464	9.77
773.778	9.68
774.093	9.91
774.407	10.21
774.722	10.27
775.036	10.24
775.351	10.65
775.665	10.48
775.979	10.89
776.293	10.7
776.608	10.58
776.922	10.89
777.236	10.94
777.55	10.87
777.864	10.82
778.178	11.1
778.492	11.05
778.806	11.14
779.12	11.47
779.434	11.48
779.747	11.6
780.061	11.73
780.375	11.94
780.689	11.81
781.002	11.79
781.316	11.86
781.629	11.84
781.943	11.44
782.256	11.11
782.57	10.42
782.883	11.34
783.196	11.43
783.51	11.61
783.823	11.37
784.136	11.18
784.449	11.71
784.762	11.06
785.075	10.91
785.388	10.93
785.701	10.35
786.014	10.77
786.327	11.01
786.64	11.07
786.953	11.39
787.266	11.4
787.578	11.6
787.891	11.78
788.204	12.15
788.516	12.78
788.829	13.24
789.141	13.59
789.454	12.95
789.766	13.09
790.079	12.88
790.391	13.06
790.703	13.28
791.016	12.97
791.328	13.2
791.64	13.5
791.952	13.72
792.264	14.19
792.576	14.21
792.888	13.84
793.2	13.26
793.512	13.19
793.824	13.18
794.136	12.72
794.448	12.7
794.76	12.4
795.071	11.86
795.383	12.07
795.695	11.99
796.006	11.91
796.318	12.08
796.629	12.07
796.941	12.41
797.252	11.95
797.564	12.38
797.875	12.76
798.186	12.63
798.497	12.47
798.809	12.24
799.12	11.97
799.431	12.33
799.742	12.7
800.053	12.24
800.364	12.26
800.675	12.72
800.986	12.39
801.297	12.27
801.608	11.97
801.918	11.31
802.229	11.12
802.54	11.9
802.851	11.9
803.161	11.45
803.472	11.17
803.782	12.05
804.093	11.7
804.403	12.2
804.714	12.06
805.024	11.78
805.334	11.28
805.645	11.78
805.955	11.52
806.265	12.49
806.575	13.3
806.885	13.01
807.195	13.2
807.505	13.65
807.815	14.1
808.125	14.48
808.435	14.89
808.745	14.58
809.055	14.27
809.365	13.81
809.674	14.41
809.984	14.51
810.294	14.84
810.603	15.43
810.913	15
811.222	15.2
811.532	15.59
811.841	16.52
812.151	16.1
812.46	16.46
812.769	15.67
813.079	15.29
813.388	15.13
813.697	14.1
814.006	14.09
814.315	13.53
814.624	13.63
814.933	13.87
815.242	14.24
815.551	13.77
815.86	14.46
816.169	14.31
816.478	14.36
816.786	13.3
817.095	12.93
817.404	12.56
817.712	13.2
818.021	13.52
818.33	13.04
818.638	13.31
818.947	12.79
819.255	12.82
819.563	12.91
819.872	13.04
820.18	13.32
820.488	13.46
820.796	13.66
821.105	13.78
821.413	13.72
821.721	13.81
822.029	13.8
822.337	13.81
822.645	13.82
822.953	13.98
823.26	13.96
823.568	14
823.876	13.9
824.184	13.83
824.491	13.8
824.799	13.86
825.107	13.86
825.414	14.02
825.722	13.96
826.029	13.75
826.337	13.7
826.644	13.71
826.951	13.63
827.259	13.63
827.566	13.4
827.873	13.18
828.18	13.37
828.488	13.51
828.795	13.4
829.102	13.4
829.409	12.93
829.716	13.15
830.023	13.31
830.329	13.53
830.636	13.71
830.943	13.23
831.25	13.49
831.557	13.41
831.863	13.75
832.17	13.92
832.476	14.58
832.783	14.76
833.089	14.75
833.396	15.15
833.702	15.03
834.009	15.67
834.315	15.9
834.621	15.51
834.928	15.22
835.234	15.28
835.54	15.26
835.846	15.72
836.152	15.68
836.458	14.98
836.764	14.97
837.07	14.73
837.376	15.69
837.682	15.02
837.988	15.26
838.293	15.07
838.599	14.26
838.905	14.47
839.211	14.4
839.516	14.77
839.822	14.9
840.127	14.81
840.433	15.07
840.738	16.37
841.044	16.01
841.349	15.98
841.654	16.63
841.959	17.6
842.265	17.37
842.57	17.73
842.875	18.38
843.18	19.97
843.485	20.27
843.79	18.86
844.095	20.12
844.4	20.02
844.705	18.02
845.01	20.15
845.315	19.34
845.619	21.73
845.924	22.25
846.229	23.11
846.533	23.1
846.838	19.74
847.142	18.95
847.447	20.25
847.751	21.43
848.056	22.59
848.36	22.8
848.664	22.28
848.969	21.32
849.273	23.11
849.577	20.64
849.881	20.01
850.185	20.18
850.489	20.66
850.794	19.17
851.097	23.46
851.401	22.48
851.705	24.9
852.009	22.81
852.313	19.88
852.617	17.07
852.92	17.52
853.224	20.47
853.528	20.52
853.831	19.8
854.135	19.49
854.438	18.41
854.742	17.17
855.045	18.27
855.349	17.68
855.652	17.48
855.955	17.37
856.259	16.31
856.562	16.55
856.865	14.69
857.168	14.46
857.471	12.68
857.774	15.24
858.077	12.84
858.38	14.47
858.683	16.17
858.986	15.83
859.289	16.54
859.592	16.79
859.894	16.44
860.197	13.89
860.5	14.72
860.802	13.29
861.105	12.02
861.407	12.26
861.71	14.61
862.012	14.06
862.315	15.43
862.617	17.66
862.919	17.97
863.222	19.47
863.524	19.1
863.826	18.55
864.128	16.81
864.43	18.93
864.732	15.24
865.034	16.05
865.336	16.65
865.638	15.29
865.94	14.51
866.242	14.44
866.544	19.88
866.846	21.53
867.147	22.18
867.449	26.15
867.751	25.25
868.052	27.65
868.354	25.56
868.655	25.13
868.957	26.66
869.258	25.06
869.56	25.22
869.861	26.86
870.162	28.07
870.463	28.7
870.765	26.54
871.066	27.63
871.367	26.6
871.668	26.16
871.969	29.58
872.27	29.88
872.571	29.88
872.872	28.31
873.173	27.27
873.473	28.85
873.774	26.79
874.075	27.05
874.376	24.02
874.676	24.94
874.977	27.61
875.277	24.97
875.578	26.13
875.878	26.06
876.179	27.85
876.479	27.15
876.78	27.01
877.08	27.71
877.38	29.77
877.68	31.49
877.981	34.25
878.281	30.3
878.581	32.37
