Data from MVZ_BU62167_Reflection_00001.txt Node
Date: Tue Nov 19 12:14:16 EST 2019
User: vgr7
Spectrometer: USB2G7710
Scans to average: 3
Trigger mode: 4
Integration Time (sec): 2.000000E-2
Electric dark correction enabled: true
Boxcar width: 10
XAxis mode: Wavelengths
Number of Pixels in Spectrum: 2048
>>>>>Begin Spectral Data<<<<<
177.721	19.72
178.105	219.05
178.488	421.6
178.871	129.82
179.254	31.37
179.636	153.26
180.019	117.91
180.402	106.25
180.785	-773.33
181.168	161.4
181.55	-158.45
181.933	-208.43
182.316	-190.26
182.698	-361.24
183.081	2192.59
183.463	312.42
183.846	908.64
184.228	-1419.61
184.611	-112.03
184.993	-62.15
185.376	-41.12
185.758	-9.25
186.14	-84.44
186.522	-47.51
186.904	-50.98
187.287	-253.88
187.669	-187.88
188.051	-198.74
188.433	-4511.11
188.815	-125.49
189.197	-132.51
189.579	178.23
189.961	12.43
190.342	27.67
190.724	-415.87
191.106	-39.07
191.488	-51.46
191.869	-35.95
192.251	-80.82
192.633	-126.63
193.014	-142.95
193.396	-154.32
193.777	-134.28
194.159	-92.81
194.54	-74.78
194.922	-92.93
195.303	-68.83
195.684	-73.09
196.065	-77.61
196.447	-108.09
196.828	-129.69
197.209	-156.02
197.59	-114.37
197.971	-104.11
198.352	-111.62
198.733	-102.25
199.114	-106.73
199.495	-106.36
199.876	-103.7
200.257	-91.93
200.638	-90.2
201.018	-81.98
201.399	-79.51
201.78	-94.56
202.16	-99.75
202.541	-115.06
202.922	-105.64
203.302	-100.06
203.683	-96.93
204.063	-110.12
204.444	-91.09
204.824	-81.48
205.204	-66.67
205.585	-63.93
205.965	-68.37
206.345	-71.8
206.725	-55.12
207.106	-53.75
207.486	-63.97
207.866	-62.19
208.246	-59.28
208.626	-75.54
209.006	-90.58
209.386	-79.68
209.766	-67.56
210.145	-63.21
210.525	-60.53
210.905	-52.21
211.285	-61.41
211.664	-48.07
212.044	-44.96
212.424	-41.25
212.803	-42.83
213.183	-46.09
213.562	-39.45
213.942	-31.14
214.321	-30.94
214.701	-34.31
215.08	-38.24
215.459	-30.68
215.838	-40.1
216.218	-38.38
216.597	-37.82
216.976	-40.83
217.355	-41.11
217.734	-53.03
218.113	-44.71
218.492	-41.58
218.871	-37.65
219.25	-29.75
219.629	-41.11
220.008	-38.42
220.387	-39.35
220.766	-39.78
221.144	-46.78
221.523	-56.3
221.902	-68.06
222.28	-64.01
222.659	-52.87
223.037	-52.64
223.416	-52.74
223.794	-44.96
224.173	-46.26
224.551	-34.11
224.929	-21.35
225.308	-25.31
225.686	-21.06
226.064	-27.17
226.442	-24.09
226.821	-26.98
227.199	-23.71
227.577	-19.74
227.955	-16.82
228.333	-17.78
228.711	-17.85
229.089	-12.62
229.467	-9.31
229.845	-10.94
230.222	-8.89
230.6	-9.08
230.978	-7.02
231.356	-4.51
231.733	-6.32
232.111	-7.49
232.488	-7.24
232.866	-8.09
233.243	-6.13
233.621	-2.98
233.998	-1.65
234.376	-1.51
234.753	-0.93
235.13	-2.2
235.508	-1.3
235.885	-2.41
236.262	-2.13
236.639	-2.38
237.016	-2.34
237.393	-1.6
237.77	-0.48
238.147	-1.26
238.524	-0.06
238.901	-0.34
239.278	-0.29
239.655	0.99
240.032	0.99
240.409	0.58
240.785	0
241.162	0.05
241.539	-0.3
241.915	-0.59
242.292	-0.34
242.668	0.19
243.045	0.47
243.421	0.97
243.798	1.36
244.174	2.14
244.551	2.35
244.927	2.59
245.303	2.48
245.679	2.51
246.056	2.69
246.432	2.64
246.808	2.76
247.184	2.82
247.56	2.38
247.936	2.81
248.312	3.23
248.688	3.58
249.064	3.37
249.44	3.53
249.815	3.85
250.191	3.74
250.567	3.62
250.943	3.46
251.318	3.06
251.694	2.56
252.069	2.41
252.445	2.48
252.82	2.3
253.196	2.22
253.571	2.34
253.947	2.39
254.322	2.28
254.697	2.32
255.073	1.97
255.448	2.16
255.823	1.89
256.198	1.72
256.573	1.75
256.948	1.98
257.323	1.84
257.698	1.95
258.073	1.96
258.448	2.06
258.823	2.03
259.198	2.09
259.573	2.45
259.948	2.27
260.322	2.14
260.697	2.12
261.072	2.17
261.446	2.14
261.821	2.02
262.195	1.88
262.57	1.75
262.944	1.89
263.319	1.86
263.693	1.89
264.067	1.95
264.442	1.91
264.816	1.87
265.19	1.75
265.564	1.53
265.938	1.57
266.313	1.62
266.687	1.62
267.061	1.54
267.435	1.51
267.809	1.56
268.183	1.5
268.556	1.55
268.93	1.56
269.304	1.48
269.678	1.63
270.051	1.62
270.425	1.61
270.799	1.48
271.172	1.64
271.546	1.73
271.919	1.58
272.293	1.61
272.666	1.61
273.04	1.91
273.413	2.17
273.787	2.24
274.16	2.14
274.533	2.27
274.906	2.4
275.279	2.43
275.653	2.5
276.026	2.61
276.399	2.75
276.772	2.84
277.145	2.7
277.518	2.55
277.891	2.74
278.263	2.9
278.636	3.04
279.009	3
279.382	2.8
279.755	2.86
280.127	2.8
280.5	2.78
280.872	2.55
281.245	2.44
281.617	2.24
281.99	2.21
282.362	2.13
282.735	2.02
283.107	1.86
283.479	1.8
283.852	1.88
284.224	1.71
284.596	1.7
284.968	1.93
285.34	2.02
285.713	1.95
286.085	1.87
286.457	1.77
286.829	1.61
287.201	1.71
287.572	1.9
287.944	2
288.316	2.11
288.688	2.22
289.06	2.19
289.431	2.36
289.803	2.37
290.175	2.49
290.546	2.59
290.918	2.73
291.289	2.76
291.661	2.75
292.032	2.94
292.403	2.79
292.775	2.91
293.146	2.88
293.517	3.06
293.889	3
294.26	3.05
294.631	3.15
295.002	3.19
295.373	3.03
295.744	2.91
296.115	2.98
296.486	2.9
296.857	2.98
297.228	2.85
297.599	2.79
297.97	2.72
298.34	2.83
298.711	2.85
299.082	2.86
299.452	2.87
299.823	2.7
300.194	2.83
300.564	2.61
300.935	2.7
301.305	2.64
301.676	2.68
302.046	2.55
302.416	2.58
302.787	2.53
303.157	2.49
303.527	2.6
303.897	2.4
304.267	2.63
304.637	2.44
305.008	2.53
305.378	2.72
305.748	2.88
306.117	2.73
306.487	2.73
306.857	2.8
307.227	2.85
307.597	2.86
307.967	2.8
308.336	2.92
308.706	2.84
309.076	2.81
309.445	3.01
309.815	3.22
310.184	3.13
310.554	3.11
310.923	3.14
311.293	2.96
311.662	2.9
312.031	2.84
312.401	2.79
312.77	2.71
313.139	2.63
313.508	2.58
313.877	2.63
314.246	2.64
314.616	2.71
314.985	2.75
315.353	2.87
315.722	2.84
316.091	2.8
316.46	2.85
316.829	2.76
317.198	2.63
317.567	2.7
317.935	2.66
318.304	2.91
318.672	2.9
319.041	3.04
319.41	3.06
319.778	2.81
320.147	3.02
320.515	3.1
320.883	2.97
321.252	2.87
321.62	2.86
321.988	2.86
322.357	2.54
322.725	2.45
323.093	2.24
323.461	2.26
323.829	2.24
324.197	2.3
324.565	2.3
324.933	2.15
325.301	2.01
325.669	2.13
326.037	1.94
326.405	2.09
326.772	2.05
327.14	2.04
327.508	2.16
327.875	2.04
328.243	2.03
328.61	2.16
328.978	2.17
329.346	2.05
329.713	1.99
330.08	2.23
330.448	2.25
330.815	2.32
331.182	2.42
331.55	2.46
331.917	2.34
332.284	2.35
332.651	2.49
333.018	2.52
333.385	2.52
333.752	2.58
334.119	2.51
334.486	2.46
334.853	2.61
335.22	2.67
335.587	2.76
335.954	2.77
336.32	2.64
336.687	2.78
337.054	2.81
337.42	2.71
337.787	2.64
338.153	2.7
338.52	2.86
338.886	2.79
339.253	2.7
339.619	2.8
339.986	2.78
340.352	2.71
340.718	2.71
341.084	2.69
341.451	2.69
341.817	2.69
342.183	2.69
342.549	2.68
342.915	2.57
343.281	2.47
343.647	2.4
344.013	2.58
344.379	2.6
344.745	2.64
345.11	2.66
345.476	2.75
345.842	2.7
346.208	2.65
346.573	2.61
346.939	2.71
347.304	2.75
347.67	2.73
348.035	2.71
348.401	2.76
348.766	2.7
349.132	2.79
349.497	2.87
349.862	2.91
350.228	2.83
350.593	2.84
350.958	2.95
351.323	3.02
351.688	2.92
352.053	2.82
352.418	2.76
352.783	2.86
353.148	2.85
353.513	2.83
353.878	2.83
354.243	2.83
354.608	2.77
354.972	2.69
355.337	2.72
355.702	2.79
356.066	2.75
356.431	2.8
356.795	2.7
357.16	2.6
357.524	2.65
357.889	2.72
358.253	2.71
358.618	2.64
358.982	2.62
359.346	2.63
359.71	2.61
360.075	2.65
360.439	2.7
360.803	2.69
361.167	2.74
361.531	2.7
361.895	2.66
362.259	2.7
362.623	2.74
362.987	2.74
363.351	2.65
363.714	2.66
364.078	2.63
364.442	2.6
364.806	2.56
365.169	2.54
365.533	2.52
365.896	2.65
366.26	2.72
366.623	2.73
366.987	2.71
367.35	2.82
367.714	2.76
368.077	2.72
368.44	2.71
368.803	2.68
369.167	2.69
369.53	2.78
369.893	2.75
370.256	2.7
370.619	2.63
370.982	2.67
371.345	2.68
371.708	2.69
372.071	2.79
372.434	2.82
372.797	2.88
373.159	2.83
373.522	2.69
373.885	2.67
374.247	2.71
374.61	2.78
374.973	2.67
375.335	2.74
375.698	2.68
376.06	2.64
376.423	2.61
376.785	2.62
377.147	2.66
377.51	2.68
377.872	2.66
378.234	2.75
378.596	2.77
378.958	2.76
379.321	2.76
379.683	2.73
380.045	2.79
380.407	2.74
380.769	2.81
381.13	2.83
381.492	2.79
381.854	2.8
382.216	2.79
382.578	2.84
382.939	2.81
383.301	2.91
383.663	2.95
384.024	2.96
384.386	3
384.747	2.92
385.109	2.88
385.47	2.93
385.832	2.89
386.193	2.88
386.554	2.79
386.916	2.81
387.277	2.79
387.638	2.78
387.999	2.78
388.36	2.73
388.721	2.71
389.082	2.78
389.443	2.74
389.804	2.71
390.165	2.7
390.526	2.76
390.887	2.67
391.248	2.63
391.609	2.65
391.969	2.62
392.33	2.67
392.691	2.66
393.051	2.63
393.412	2.62
393.772	2.65
394.133	2.72
394.493	2.72
394.854	2.77
395.214	2.76
395.574	2.76
395.935	2.78
396.295	2.81
396.655	2.79
397.015	2.78
397.376	2.81
397.736	2.77
398.096	2.73
398.456	2.74
398.816	2.74
399.176	2.69
399.535	2.71
399.895	2.65
400.255	2.69
400.615	2.69
400.975	2.69
401.334	2.68
401.694	2.66
402.054	2.68
402.413	2.64
402.773	2.61
403.132	2.61
403.492	2.61
403.851	2.6
404.211	2.61
404.57	2.63
404.929	2.61
405.288	2.62
405.648	2.65
406.007	2.67
406.366	2.71
406.725	2.73
407.084	2.74
407.443	2.78
407.802	2.78
408.161	2.79
408.52	2.82
408.879	2.84
409.238	2.88
409.596	2.9
409.955	2.92
410.314	2.94
410.673	2.95
411.031	2.97
411.39	2.98
411.748	2.95
412.107	2.94
412.465	2.93
412.824	2.95
413.182	2.93
413.54	2.93
413.899	2.92
414.257	2.94
414.615	2.93
414.974	2.91
415.332	2.93
415.69	2.91
416.048	2.92
416.406	2.92
416.764	2.9
417.122	2.87
417.48	2.87
417.838	2.88
418.195	2.88
418.553	2.87
418.911	2.87
419.269	2.89
419.626	2.9
419.984	2.92
420.342	2.92
420.699	2.91
421.057	2.91
421.414	2.92
421.772	2.92
422.129	2.92
422.486	2.93
422.844	2.93
423.201	2.94
423.558	2.94
423.915	2.95
424.273	2.95
424.63	2.98
424.987	2.98
425.344	2.97
425.701	2.95
426.058	2.95
426.415	2.95
426.772	2.94
427.128	2.93
427.485	2.93
427.842	2.92
428.199	2.93
428.555	2.93
428.912	2.92
429.269	2.91
429.625	2.9
429.982	2.9
430.338	2.91
430.695	2.91
431.051	2.91
431.407	2.93
431.764	2.91
432.12	2.88
432.476	2.89
432.832	2.93
433.189	2.95
433.545	2.95
433.901	2.95
434.257	2.96
434.613	2.98
434.969	2.99
435.325	3
435.681	3.01
436.036	3.01
436.392	3.02
436.748	3.02
437.104	3.03
437.459	3.01
437.815	3.01
438.171	3
438.526	3
438.882	2.98
439.237	2.99
439.593	3
439.948	2.97
440.304	2.96
440.659	2.96
441.014	2.94
441.369	2.93
441.725	2.93
442.08	2.91
442.435	2.9
442.79	2.9
443.145	2.89
443.5	2.88
443.855	2.86
444.21	2.87
444.565	2.87
444.92	2.89
445.275	2.89
445.629	2.91
445.984	2.9
446.339	2.89
446.693	2.9
447.048	2.9
447.403	2.9
447.757	2.9
448.112	2.91
448.466	2.92
448.82	2.92
449.175	2.93
449.529	2.94
449.883	2.94
450.238	2.95
450.592	2.95
450.946	2.96
451.3	2.99
451.654	2.96
452.008	2.95
452.362	2.94
452.716	2.93
453.07	2.9
453.424	2.92
453.778	2.93
454.132	2.9
454.486	2.9
454.839	2.91
455.193	2.92
455.547	2.91
455.9	2.95
456.254	2.97
456.607	2.98
456.961	2.97
457.314	2.97
457.668	2.97
458.021	2.98
458.375	2.97
458.728	2.95
459.081	2.97
459.434	2.99
459.787	3
460.141	3.01
460.494	3.01
460.847	3
461.2	2.98
461.553	3
461.906	3.01
462.259	2.99
462.611	2.98
462.964	2.96
463.317	2.92
463.67	2.93
464.022	2.91
464.375	2.91
464.728	2.91
465.08	2.91
465.433	2.92
465.785	2.94
466.138	2.97
466.49	2.96
466.843	2.94
467.195	2.95
467.547	2.92
467.899	2.95
468.252	2.98
468.604	2.99
468.956	2.99
469.308	3
469.66	3.03
470.012	3.04
470.364	3.06
470.716	3.07
471.068	3.08
471.42	3.09
471.772	3.08
472.123	3.08
472.475	3.09
472.827	3.07
473.178	3.06
473.53	3.07
473.882	3.06
474.233	3.06
474.585	3.04
474.936	3.04
475.288	3.02
475.639	3.01
475.99	3.01
476.342	3.01
476.693	3.01
477.044	2.99
477.395	2.98
477.746	3
478.097	3
478.448	2.98
478.8	3.01
479.15	3.02
479.501	3.03
479.852	3.02
480.203	3.03
480.554	3.04
480.905	3.04
481.255	3.04
481.606	3.06
481.957	3.05
482.307	3.05
482.658	3.06
483.009	3.05
483.359	3.06
483.709	3.07
484.06	3.07
484.41	3.08
484.761	3.09
485.111	3.1
485.461	3.1
485.811	3.11
486.162	3.1
486.512	3.1
486.862	3.11
487.212	3.11
487.562	3.11
487.912	3.12
488.262	3.12
488.612	3.13
488.961	3.13
489.311	3.14
489.661	3.15
490.011	3.14
490.36	3.14
490.71	3.15
491.06	3.15
491.409	3.14
491.759	3.14
492.108	3.14
492.458	3.14
492.807	3.13
493.157	3.12
493.506	3.12
493.855	3.12
494.204	3.11
494.554	3.1
494.903	3.09
495.252	3.09
495.601	3.09
495.95	3.09
496.299	3.08
496.648	3.09
496.997	3.08
497.346	3.1
497.695	3.12
498.043	3.12
498.392	3.12
498.741	3.14
499.09	3.16
499.438	3.14
499.787	3.15
500.135	3.17
500.484	3.17
500.832	3.19
501.181	3.2
501.529	3.22
501.878	3.24
502.226	3.25
502.574	3.25
502.923	3.24
503.271	3.25
503.619	3.28
503.967	3.25
504.315	3.25
504.663	3.26
505.011	3.24
505.359	3.22
505.707	3.22
506.055	3.22
506.403	3.19
506.751	3.18
507.098	3.19
507.446	3.19
507.794	3.21
508.141	3.21
508.489	3.23
508.837	3.23
509.184	3.23
509.531	3.24
509.879	3.24
510.226	3.23
510.574	3.24
510.921	3.22
511.268	3.25
511.616	3.26
511.963	3.26
512.31	3.25
512.657	3.27
513.004	3.27
513.351	3.26
513.698	3.28
514.045	3.28
514.392	3.28
514.739	3.28
515.086	3.28
515.432	3.3
515.779	3.27
516.126	3.29
516.473	3.29
516.819	3.28
517.166	3.3
517.512	3.31
517.859	3.3
518.205	3.3
518.552	3.3
518.898	3.28
519.245	3.29
519.591	3.31
519.937	3.32
520.283	3.32
520.629	3.32
520.976	3.3
521.322	3.31
521.668	3.32
522.014	3.32
522.36	3.3
522.706	3.3
523.052	3.31
523.398	3.31
523.743	3.32
524.089	3.35
524.435	3.33
524.781	3.33
525.126	3.34
525.472	3.35
525.817	3.34
526.163	3.36
526.509	3.36
526.854	3.37
527.199	3.37
527.545	3.38
527.89	3.37
528.235	3.39
528.581	3.39
528.926	3.39
529.271	3.39
529.616	3.39
529.961	3.39
530.306	3.4
530.651	3.39
530.996	3.4
531.341	3.41
531.686	3.4
532.031	3.41
532.376	3.4
532.721	3.4
533.065	3.4
533.41	3.4
533.755	3.39
534.099	3.39
534.444	3.4
534.788	3.39
535.133	3.39
535.477	3.39
535.822	3.4
536.166	3.4
536.51	3.4
536.855	3.4
537.199	3.38
537.543	3.4
537.887	3.4
538.231	3.4
538.576	3.37
538.92	3.4
539.264	3.41
539.608	3.41
539.951	3.4
540.295	3.4
540.639	3.39
540.983	3.4
541.327	3.41
541.671	3.41
542.014	3.43
542.358	3.43
542.701	3.43
543.045	3.43
543.389	3.45
543.732	3.45
544.075	3.46
544.419	3.48
544.762	3.46
545.105	3.46
545.449	3.45
545.792	3.48
546.135	3.47
546.478	3.47
546.821	3.5
547.165	3.52
547.508	3.54
547.851	3.55
548.194	3.55
548.536	3.54
548.879	3.52
549.222	3.5
549.565	3.48
549.908	3.49
550.25	3.46
550.593	3.45
550.936	3.42
551.278	3.42
551.621	3.39
551.963	3.4
552.306	3.41
552.648	3.44
552.991	3.42
553.333	3.38
553.675	3.38
554.017	3.36
554.36	3.37
554.702	3.38
555.044	3.38
555.386	3.39
555.728	3.38
556.07	3.41
556.412	3.43
556.754	3.43
557.096	3.43
557.438	3.47
557.78	3.45
558.121	3.47
558.463	3.46
558.805	3.5
559.147	3.47
559.488	3.47
559.83	3.46
560.171	3.45
560.513	3.48
560.854	3.48
561.196	3.47
561.537	3.47
561.878	3.47
562.22	3.49
562.561	3.46
562.902	3.48
563.243	3.47
563.584	3.45
563.925	3.47
564.266	3.44
564.607	3.43
564.948	3.45
565.289	3.46
565.63	3.46
565.971	3.42
566.312	3.43
566.653	3.46
566.993	3.43
567.334	3.45
567.675	3.47
568.015	3.47
568.356	3.48
568.696	3.46
569.037	3.44
569.377	3.43
569.718	3.42
570.058	3.42
570.398	3.43
570.739	3.42
571.079	3.42
571.419	3.44
571.759	3.42
572.099	3.43
572.439	3.41
572.779	3.41
573.119	3.42
573.459	3.43
573.799	3.38
574.139	3.4
574.479	3.43
574.819	3.42
575.158	3.42
575.498	3.41
575.838	3.42
576.177	3.44
576.517	3.46
576.856	3.5
577.196	3.5
577.535	3.47
577.875	3.46
578.214	3.48
578.553	3.48
578.893	3.53
579.232	3.54
579.571	3.55
579.91	3.56
580.25	3.55
580.589	3.55
580.928	3.58
581.267	3.51
581.606	3.45
581.945	3.44
582.283	3.42
582.622	3.39
582.961	3.41
583.3	3.42
583.639	3.41
583.977	3.36
584.316	3.36
584.654	3.4
584.993	3.43
585.332	3.41
585.67	3.42
586.008	3.36
586.347	3.35
586.685	3.28
587.024	3.28
587.362	3.28
587.7	3.34
588.038	3.39
588.376	3.43
588.715	3.44
589.053	3.43
589.391	3.45
589.729	3.48
590.067	3.48
590.404	3.48
590.742	3.48
591.08	3.51
591.418	3.53
591.756	3.53
592.093	3.5
592.431	3.53
592.769	3.53
593.106	3.55
593.444	3.57
593.781	3.65
594.119	3.65
594.456	3.66
594.793	3.6
595.131	3.59
595.468	3.62
595.805	3.63
596.143	3.64
596.48	3.63
596.817	3.62
597.154	3.6
597.491	3.58
597.828	3.59
598.165	3.59
598.502	3.55
598.839	3.52
599.176	3.52
599.512	3.5
599.849	3.51
600.186	3.5
600.523	3.5
600.859	3.52
601.196	3.54
601.532	3.55
601.869	3.53
602.205	3.48
602.542	3.48
602.878	3.49
603.215	3.48
603.551	3.52
603.887	3.51
604.223	3.5
604.56	3.48
604.896	3.51
605.232	3.47
605.568	3.48
605.904	3.5
606.24	3.53
606.576	3.57
606.912	3.56
607.248	3.59
607.583	3.6
607.919	3.56
608.255	3.56
608.591	3.56
608.926	3.6
609.262	3.64
609.597	3.65
609.933	3.61
610.268	3.62
610.604	3.63
610.939	3.66
611.275	3.65
611.61	3.67
611.945	3.58
612.281	3.61
612.616	3.65
612.951	3.68
613.286	3.65
613.621	3.62
613.956	3.63
614.291	3.6
614.626	3.54
614.961	3.57
615.296	3.6
615.631	3.6
615.966	3.54
616.3	3.54
616.635	3.5
616.97	3.54
617.304	3.56
617.639	3.55
617.973	3.54
618.308	3.56
618.642	3.59
618.977	3.63
619.311	3.65
619.646	3.62
619.98	3.57
620.314	3.54
620.648	3.54
620.983	3.5
621.317	3.52
621.651	3.56
621.985	3.59
622.319	3.53
622.653	3.54
622.987	3.59
623.321	3.58
623.655	3.61
623.988	3.57
624.322	3.56
624.656	3.54
624.99	3.53
625.323	3.56
625.657	3.57
625.99	3.59
626.324	3.52
626.657	3.52
626.991	3.54
627.324	3.56
627.658	3.58
627.991	3.67
628.324	3.65
628.657	3.7
628.991	3.71
629.324	3.7
629.657	3.69
629.99	3.7
630.323	3.74
630.656	3.74
630.989	3.74
631.322	3.75
631.655	3.68
631.987	3.74
632.32	3.69
632.653	3.66
632.986	3.68
633.318	3.73
633.651	3.74
633.984	3.75
634.316	3.71
634.649	3.72
634.981	3.71
635.313	3.82
635.646	3.77
635.978	3.76
636.31	3.77
636.643	3.82
636.975	3.82
637.307	3.81
637.639	3.82
637.971	3.84
638.303	3.85
638.635	3.95
638.967	3.92
639.299	3.94
639.631	3.92
639.963	3.89
640.295	3.97
640.626	3.96
640.958	3.94
641.29	4.01
641.621	3.95
641.953	3.86
642.285	3.75
642.616	3.77
642.948	3.73
643.279	3.7
643.61	3.71
643.942	3.69
644.273	3.71
644.604	3.75
644.936	3.81
645.267	3.81
645.598	3.79
645.929	3.75
646.26	3.75
646.591	3.83
646.922	3.88
647.253	3.81
647.584	3.81
647.915	3.9
648.245	3.95
648.576	3.99
648.907	4.01
649.238	4.04
649.568	4.08
649.899	4.09
650.229	4.14
650.56	4.13
650.89	4.11
651.221	4.07
651.551	4.01
651.882	3.97
652.212	3.92
652.542	3.91
652.872	3.89
653.203	3.9
653.533	3.94
653.863	3.93
654.193	3.91
654.523	3.85
654.853	3.81
655.183	3.8
655.513	3.87
655.843	3.83
656.172	3.85
656.502	3.75
656.832	3.68
657.162	3.68
657.491	3.66
657.821	3.68
658.15	3.72
658.48	3.81
658.809	3.79
659.139	3.84
659.468	3.97
659.798	4.07
660.127	4.04
660.456	3.95
660.785	3.95
661.115	4.04
661.444	4.15
661.773	4.13
662.102	4.13
662.431	4.05
662.76	4.08
663.089	4.08
663.418	4.11
663.747	4.23
664.076	4.2
664.404	4.29
664.733	4.34
665.062	4.33
665.39	4.25
665.719	4.3
666.048	4.23
666.376	4.13
666.705	4.08
667.033	4.02
667.362	3.91
667.69	3.94
668.018	3.82
668.347	3.72
668.675	3.72
669.003	3.73
669.331	3.73
669.659	3.75
669.987	3.67
670.315	3.71
670.643	3.68
670.971	3.71
671.299	3.65
671.627	3.57
671.955	3.55
672.283	3.51
672.61	3.48
672.938	3.56
673.266	3.51
673.593	3.48
673.921	3.53
674.249	3.67
674.576	3.66
674.904	3.65
675.231	3.71
675.558	3.81
675.886	3.76
676.213	3.76
676.54	3.79
676.867	3.91
677.195	4.01
677.522	3.94
677.849	3.97
678.176	4.01
678.503	4.02
678.83	3.97
679.157	4.03
679.484	4.04
679.81	4.08
680.137	4.1
680.464	4.08
680.791	4.1
681.117	4.14
681.444	4.05
681.771	4.13
682.097	4.11
682.424	3.97
682.75	3.99
683.077	4.07
683.403	4
683.729	3.9
684.056	3.81
684.382	3.87
684.708	3.86
685.034	3.81
685.36	3.8
685.686	3.83
686.012	3.77
686.339	3.77
686.664	3.7
686.99	3.69
687.316	3.73
687.642	3.63
687.968	3.73
688.294	3.85
688.619	3.85
688.945	3.85
689.271	3.97
689.596	3.95
689.922	3.88
690.247	3.91
690.573	3.92
690.898	3.96
691.224	3.91
691.549	3.9
691.874	3.96
692.2	3.96
692.525	4
692.85	4.14
693.175	4.23
693.5	4.2
693.825	4.26
694.15	4.16
694.475	4.4
694.8	4.23
695.125	4.18
695.45	4.03
695.775	3.95
696.099	3.97
696.424	4.08
696.749	4.11
697.073	4.12
697.398	4.18
697.723	4.13
698.047	4.1
698.372	4.22
698.696	4.17
699.02	4.21
699.345	4.29
699.669	4.15
699.993	4.05
700.318	3.99
700.642	4
700.966	4.04
701.29	3.99
701.614	4.07
701.938	4.04
702.262	4.06
702.586	4.16
702.91	4.09
703.234	3.9
703.557	3.83
703.881	3.87
704.205	3.78
704.529	3.85
704.852	3.78
705.176	3.59
705.499	3.6
705.823	3.57
706.146	3.47
706.47	3.64
706.793	3.64
707.117	3.76
707.44	3.71
707.763	3.75
708.086	3.67
708.409	3.72
708.733	3.75
709.056	3.85
709.379	3.95
709.702	4.03
710.025	4.17
710.348	4.22
710.671	4.4
710.993	4.62
711.316	4.54
711.639	4.71
711.962	4.86
712.284	4.84
712.607	4.81
712.93	4.76
713.252	4.7
713.575	4.7
713.897	4.69
714.22	4.76
714.542	4.99
714.864	4.93
715.187	4.8
715.509	4.8
715.831	4.83
716.153	4.71
716.475	4.85
716.798	4.79
717.12	4.65
717.442	4.47
717.764	4.26
718.085	4.32
718.407	4.2
718.729	4.15
719.051	4.17
719.373	4.17
719.695	4.29
720.016	4.3
720.338	4.37
720.659	4.47
720.981	4.35
721.302	4.29
721.624	4.29
721.945	4.46
722.267	4.37
722.588	4.35
722.909	4.39
723.231	4.03
723.552	3.99
723.873	4.13
724.194	4.04
724.515	4.07
724.836	3.97
725.157	4.01
725.478	3.98
725.799	3.9
726.12	3.93
726.441	3.77
726.762	3.7
727.083	3.61
727.403	3.51
727.724	3.6
728.045	3.4
728.365	3.57
728.686	3.38
729.006	3.54
729.327	3.68
729.647	3.66
729.967	3.76
730.288	3.82
730.608	3.92
730.928	4
731.249	4.16
731.569	4.27
731.889	4.15
732.209	4.06
732.529	4.21
732.849	4.25
733.169	4.29
733.489	4.12
733.809	4.27
734.129	4.16
734.448	4.1
734.768	4.19
735.088	4.19
735.408	4.14
735.727	4.1
736.047	4.01
736.366	3.95
736.686	3.89
737.005	4.02
737.325	3.77
737.644	3.67
737.963	3.54
738.283	3.41
738.602	3.66
738.921	3.87
739.24	3.69
739.56	3.83
739.879	3.87
740.198	4.2
740.517	3.97
740.836	4.15
741.155	4.32
741.473	4.15
741.792	4.31
742.111	4.59
742.43	4.77
742.748	4.57
743.067	4.96
743.386	4.78
743.704	4.71
744.023	4.91
744.341	5.12
744.66	5.04
744.978	5.2
745.297	5.2
745.615	5.03
745.933	5
746.252	5.02
746.57	4.94
746.888	5.02
747.206	5.08
747.524	4.98
747.842	4.78
748.16	4.94
748.478	4.73
748.796	4.81
749.114	4.75
749.432	4.89
749.749	4.58
750.067	4.82
750.385	4.54
750.703	4.74
751.02	4.77
751.338	4.68
751.655	4.4
751.973	4.61
752.29	4.38
752.608	4.64
752.925	4.66
753.242	4.61
753.56	4.44
753.877	4.36
754.194	4.47
754.511	4.58
754.828	4.48
755.145	4.45
755.462	4.26
755.779	4.2
756.096	4.38
756.413	4.23
756.73	4.34
757.047	4.61
757.364	4.56
757.68	4.48
757.997	4.93
758.314	5.27
758.63	4.99
758.947	5.26
759.264	5.16
759.58	4.95
759.896	4.96
760.213	5.02
760.529	5.35
760.846	5.47
761.162	5.33
761.478	5.51
761.794	5.7
762.11	5.7
762.426	5.58
762.743	5.55
763.059	5.82
763.375	5.77
763.69	5.79
764.006	5.74
764.322	5.68
764.638	5.52
764.954	5.31
765.27	5.26
765.585	5.35
765.901	5.3
766.216	5.2
766.532	5.31
766.848	5.37
767.163	5.28
767.478	5.13
767.794	5.26
768.109	5.2
768.424	4.84
768.74	4.87
769.055	5
769.37	4.9
769.685	4.91
770	4.81
770.315	4.91
770.63	4.71
770.945	4.78
771.26	4.84
771.575	4.65
771.89	4.76
772.205	4.6
772.52	4.64
772.834	4.75
773.149	4.62
773.464	4.64
773.778	4.65
774.093	4.55
774.407	4.77
774.722	4.49
775.036	4.77
775.351	5.01
775.665	5.06
775.979	5.16
776.293	5.06
776.608	4.95
776.922	4.97
777.236	5.13
777.55	4.97
777.864	4.82
778.178	5.36
778.492	5.53
778.806	5.65
779.12	5.84
779.434	5.78
779.747	5.86
780.061	5.6
780.375	5.59
780.689	5.79
781.002	5.6
781.316	5.88
781.629	5.96
781.943	5.49
782.256	5.37
782.57	5.1
782.883	5.39
783.196	5.88
783.51	5.66
783.823	5.62
784.136	5.74
784.449	6.18
784.762	6.08
785.075	5.98
785.388	6.14
785.701	5.89
786.014	5.39
786.327	5.73
786.64	5.82
786.953	5.85
787.266	5.7
787.578	5.39
787.891	5.24
788.204	5.5
788.516	6.07
788.829	6.21
789.141	6.65
789.454	6.36
789.766	6.46
790.079	6.19
790.391	6.34
790.703	5.99
791.016	5.49
791.328	5.22
791.64	5.47
791.952	5.5
792.264	5.52
792.576	5.73
792.888	5.4
793.2	5.32
793.512	4.94
793.824	5.12
794.136	4.92
794.448	5.48
794.76	4.79
795.071	4.61
795.383	4.17
795.695	3.82
796.006	3.71
796.318	3.45
796.629	3.77
796.941	3.76
797.252	3.8
797.564	4.12
797.875	4.35
798.186	4.23
798.497	4.13
798.809	3.87
799.12	3.75
799.431	3.67
799.742	4.05
800.053	3.85
800.364	3.51
800.675	4.03
800.986	3.33
801.297	3.59
801.608	3.53
801.918	4.17
802.229	4.85
802.54	5.38
802.851	5.32
803.161	5.21
803.472	5.68
803.782	6.45
804.093	6.65
804.403	6.54
804.714	6.7
805.024	5.98
805.334	6.1
805.645	6.96
805.955	7.58
806.265	7.11
806.575	7.51
806.885	8.08
807.195	7.94
807.505	7.56
807.815	7.44
808.125	7.15
808.435	6.59
808.745	5.42
809.055	4.77
809.365	5.09
809.674	4.94
809.984	4.03
810.294	3.33
810.603	2.73
810.913	2.36
811.222	1.51
811.532	2.37
811.841	3.38
812.151	3.27
812.46	2.5
812.769	2.53
813.079	2.99
813.388	2.82
813.697	2.94
814.006	4.04
814.315	4
814.624	4.21
814.933	4.4
815.242	4.46
815.551	4.58
815.86	4.34
816.169	4.57
816.478	5.1
816.786	5.22
817.095	5.1
817.404	5.55
817.712	5.59
818.021	5.33
818.33	4.91
818.638	5.01
818.947	5.25
819.255	5.21
819.563	5.41
819.872	5.66
820.18	6.04
820.488	6.44
820.796	6.68
821.105	6.79
821.413	6.84
821.721	6.98
822.029	7.05
822.337	7.1
822.645	7.19
822.953	7.18
823.26	7.2
823.568	7.23
823.876	7.21
824.184	7.18
824.491	7.45
824.799	7.4
825.107	7.37
825.414	7.5
825.722	7.64
826.029	7.74
826.337	7.7
826.644	7.54
826.951	7.32
827.259	7.4
827.566	7.13
827.873	7.35
828.18	7.5
828.488	7.53
828.795	7.55
829.102	7.41
829.409	7.47
829.716	7.73
830.023	8
830.329	8.11
830.636	8.34
830.943	7.85
831.25	8.07
831.557	8.34
831.863	8.29
832.17	8.36
832.476	8.01
832.783	8.25
833.089	8.41
833.396	8.26
833.702	8.15
834.009	8.56
834.315	7.81
834.621	8.08
834.928	7.93
835.234	7.92
835.54	8.25
835.846	8.4
836.152	8.44
836.458	8.09
836.764	8.47
837.07	8.57
837.376	8.61
837.682	8.31
837.988	7.74
838.293	7.29
838.599	7.38
838.905	7.53
839.211	7.53
839.516	7.71
839.822	8.29
840.127	7.75
840.433	8.44
840.738	9.57
841.044	9.3
841.349	8.99
841.654	8.52
841.959	8.06
842.265	8.44
842.57	8.66
842.875	10.11
843.18	9.3
843.485	8.81
843.79	8.77
844.095	9.31
844.4	10.79
844.705	11.28
845.01	11.32
845.315	10.34
845.619	9.73
845.924	8.25
846.229	6.6
846.533	7.54
846.838	6.31
847.142	5.04
847.447	4.71
847.751	4.17
848.056	4.07
848.36	5.39
848.664	2.93
848.969	1.45
849.273	-0.56
849.577	-0.33
849.881	0.25
850.185	-2.16
850.489	-2.06
850.794	-2.91
851.097	-3.35
851.401	-5.85
851.705	-5.03
852.009	-5.95
852.313	-5.84
852.617	-4.67
852.92	-3.69
853.224	-4.66
853.528	-5.63
853.831	-4.82
854.135	-3.12
854.438	-3.3
854.742	-3.52
855.045	-3.08
855.349	-2.62
855.652	-2.95
855.955	-2.87
856.259	-2.99
856.562	0.01
856.865	0.17
857.168	1.68
857.471	2.92
857.774	3.49
858.077	1.8
858.38	2.76
858.683	4.22
858.986	5.26
859.289	4.08
859.592	4.43
859.894	5.73
860.197	4.9
860.5	5.21
860.802	4.95
861.105	2.76
861.407	3.73
861.71	1.61
862.012	1.56
862.315	0.76
862.617	1.89
862.919	3.01
863.222	3.69
863.524	2.12
863.826	1.9
864.128	4.51
864.43	6.58
864.732	5.24
865.034	5.82
865.336	4.65
865.638	4.61
865.94	7.17
866.242	8.5
866.544	9.51
866.846	10.18
867.147	11.39
867.449	12.73
867.751	11.84
868.052	14.1
868.354	14.48
868.655	16.58
868.957	17.49
869.258	15.2
869.56	12.57
869.861	11.84
870.162	10.14
870.463	9.72
870.765	9.29
871.066	8.79
871.367	5.72
871.668	6.99
871.969	5.13
872.27	4.18
872.571	2.62
872.872	-1
873.173	-1.74
873.473	-1.78
873.774	-1.55
874.075	0.39
874.376	1.71
874.676	3.98
874.977	3.51
875.277	-1.13
875.578	0.02
875.878	1.25
876.179	2.31
876.479	4.06
876.78	3.31
877.08	3.67
877.38	5.85
877.68	9.86
877.981	8.07
878.281	11.48
878.581	10.54
