Data from MVZ_BU147395_Reflection_00003.txt Node
Date: Tue Nov 19 12:04:55 EST 2019
User: vgr7
Spectrometer: USB2G7710
Scans to average: 3
Trigger mode: 4
Integration Time (sec): 2.000000E-2
Electric dark correction enabled: true
Boxcar width: 10
XAxis mode: Wavelengths
Number of Pixels in Spectrum: 2048
>>>>>Begin Spectral Data<<<<<
177.721	-5.86
178.105	8.91
178.488	76.06
178.871	68.87
179.254	88.12
179.636	186.71
180.019	5176.92
180.402	127.27
180.785	14.29
181.168	-125.43
181.55	-705.97
181.933	123.14
182.316	256.07
182.698	-1952.63
183.081	1121.28
183.463	569.88
183.846	-887.34
184.228	-526.37
184.611	-202.93
184.993	-131.68
185.376	-151.94
185.758	-71.89
186.14	-58.16
186.522	-23
186.904	-30.88
187.287	-16.09
187.669	-10.48
188.051	-20.43
188.433	-34.9
188.815	-40.72
189.197	-26.9
189.579	-16.37
189.961	-19.84
190.342	-16.56
190.724	-15
191.106	0.04
191.488	-1.69
191.869	6.28
192.251	-9.33
192.633	-13.65
193.014	-15
193.396	-24.11
193.777	-27.17
194.159	-27.54
194.54	-17.89
194.922	-18.66
195.303	-29.56
195.684	-40.28
196.065	-30.89
196.447	-29.34
196.828	-25.27
197.209	-9.8
197.59	-4.34
197.971	-8.75
198.352	-5.47
198.733	-22.03
199.114	-40.38
199.495	-54.76
199.876	-67.63
200.257	-64.61
200.638	-60.96
201.018	-86.84
201.399	-56.56
201.78	-39.31
202.16	-38.22
202.541	-123.27
202.922	-121.53
203.302	-107.22
203.683	-97.2
204.063	-108.38
204.444	-126.63
204.824	-109.03
205.204	-104.76
205.585	-138.3
205.965	-167.79
206.345	-166.82
206.725	-125.5
207.106	-77.74
207.486	-55.63
207.866	-28.37
208.246	-11.05
208.626	-7.68
209.006	-13.38
209.386	-38.29
209.766	-47.15
210.145	-58.41
210.525	-61.69
210.905	-50.46
211.285	-41.15
211.664	-24.69
212.044	-28.21
212.424	-15.98
212.803	-24.64
213.183	-35.63
213.562	-6.9
213.942	1.71
214.321	1.78
214.701	1.66
215.08	-1.91
215.459	15.75
215.838	-9.88
216.218	-11.74
216.597	-19.39
216.976	-20.23
217.355	1.2
217.734	3.23
218.113	20.04
218.492	21.95
218.871	16.49
219.25	12.11
219.629	-14.08
220.008	-10.38
220.387	-16.7
220.766	-13.77
221.144	-13.18
221.523	-25.18
221.902	-14.72
222.28	-12.05
222.659	5.18
223.037	0.43
223.416	-6.4
223.794	-2.57
224.173	-5.5
224.551	-1.27
224.929	0.11
225.308	0.29
225.686	-2.08
226.064	-8.81
226.442	-6.9
226.821	-6.56
227.199	-8.09
227.577	-4.62
227.955	-7.3
228.333	-9.04
228.711	-9.53
229.089	-8.91
229.467	-7.48
229.845	-9.21
230.222	-7.58
230.6	-12.71
230.978	-12.47
231.356	-12.31
231.733	-11.82
232.111	-9.67
232.488	-10.22
232.866	-8.28
233.243	-8.22
233.621	-5.24
233.998	-4.5
234.376	-5.11
234.753	-5.6
235.13	-5.64
235.508	-4.88
235.885	-3
236.262	-3.22
236.639	-2.81
237.016	-3.28
237.393	-2.29
237.77	-1.19
238.147	-1.95
238.524	-1.09
238.901	-0.44
239.278	0.74
239.655	1.33
240.032	1.84
240.409	2.01
240.785	1.33
241.162	1.17
241.539	1.35
241.915	1.62
242.292	2.63
242.668	2.95
243.045	3.54
243.421	3.88
243.798	3.91
244.174	4.29
244.551	4.45
244.927	4.67
245.303	4.41
245.679	4.27
246.056	4.31
246.432	4.32
246.808	4.73
247.184	4.59
247.56	4.44
247.936	4.32
248.312	4.39
248.688	4.58
249.064	4.81
249.44	4.69
249.815	4.86
250.191	4.64
250.567	4.85
250.943	4.67
251.318	4.41
251.694	4.32
252.069	4.18
252.445	3.9
252.82	4.02
253.196	4
253.571	4.06
253.947	4.03
254.322	4.06
254.697	3.63
255.073	3.63
255.448	3.48
255.823	3.64
256.198	3.48
256.573	3.47
256.948	3.41
257.323	3.46
257.698	3.22
258.073	3.05
258.448	2.98
258.823	2.95
259.198	3.02
259.573	2.92
259.948	2.88
260.322	2.85
260.697	2.82
261.072	2.77
261.446	2.7
261.821	2.78
262.195	2.68
262.57	2.76
262.944	2.68
263.319	2.88
263.693	2.68
264.067	2.66
264.442	2.55
264.816	2.58
265.19	2.47
265.564	2.52
265.938	2.64
266.313	2.4
266.687	2.32
267.061	2.27
267.435	2.43
267.809	2.31
268.183	2.56
268.556	2.51
268.93	2.7
269.304	2.89
269.678	2.99
270.051	3.09
270.425	3.06
270.799	2.87
271.172	2.72
271.546	2.96
271.919	2.98
272.293	2.93
272.666	2.96
273.04	3.01
273.413	3
273.787	2.93
274.16	2.99
274.533	3.2
274.906	3.24
275.279	3.26
275.653	3.4
276.026	3.25
276.399	3.25
276.772	3.14
277.145	2.91
277.518	2.87
277.891	2.91
278.263	3.04
278.636	3.31
279.009	3.39
279.382	3.29
279.755	3.31
280.127	3.46
280.5	3.34
280.872	3.32
281.245	3.34
281.617	3.35
281.99	3.38
282.362	3.32
282.735	3.19
283.107	3.18
283.479	3.22
283.852	3.17
284.224	3.22
284.596	3.22
284.968	3.33
285.34	3.25
285.713	3.17
286.085	2.91
286.457	2.92
286.829	2.83
287.201	2.78
287.572	2.71
287.944	2.78
288.316	2.73
288.688	2.76
289.06	2.87
289.431	2.94
289.803	3.01
290.175	2.92
290.546	3.03
290.918	2.99
291.289	2.99
291.661	3.04
292.032	3
292.403	3.06
292.775	3.03
293.146	3.13
293.517	3.11
293.889	3.3
294.26	3.3
294.631	3.48
295.002	3.61
295.373	3.68
295.744	3.55
296.115	3.72
296.486	3.66
296.857	3.65
297.228	3.55
297.599	3.44
297.97	3.49
298.34	3.49
298.711	3.57
299.082	3.49
299.452	3.53
299.823	3.54
300.194	3.47
300.564	3.46
300.935	3.45
301.305	3.54
301.676	3.47
302.046	3.46
302.416	3.37
302.787	3.18
303.157	3.07
303.527	3.13
303.897	2.94
304.267	2.89
304.637	2.88
305.008	2.93
305.378	3.03
305.748	2.96
306.117	2.92
306.487	2.75
306.857	2.93
307.227	2.98
307.597	2.9
307.967	2.93
308.336	2.89
308.706	2.82
309.076	2.87
309.445	2.91
309.815	2.87
310.184	2.73
310.554	2.84
310.923	2.91
311.293	2.96
311.662	2.97
312.031	3.06
312.401	2.99
312.77	2.93
313.139	2.88
313.508	2.74
313.877	2.8
314.246	2.84
314.616	2.72
314.985	2.63
315.353	2.7
315.722	2.76
316.091	2.92
316.46	3.03
316.829	2.87
317.198	2.81
317.567	2.85
317.935	2.94
318.304	2.97
318.672	3.03
319.041	2.96
319.41	2.87
319.778	2.84
320.147	2.87
320.515	2.93
320.883	2.88
321.252	3.02
321.62	3.02
321.988	3.03
322.357	3.04
322.725	3.09
323.093	3.14
323.461	3.18
323.829	3.12
324.197	3.13
324.565	3.27
324.933	3.27
325.301	3.18
325.669	3.12
326.037	3.09
326.405	3.15
326.772	3.17
327.14	3.23
327.508	3.24
327.875	3.21
328.243	3.33
328.61	3.3
328.978	3.39
329.346	3.19
329.713	3.2
330.08	3.25
330.448	3.15
330.815	3.1
331.182	2.92
331.55	2.86
331.917	2.71
332.284	2.65
332.651	2.69
333.018	2.66
333.385	2.86
333.752	2.94
334.119	2.85
334.486	2.81
334.853	2.83
335.22	2.84
335.587	2.83
335.954	2.76
336.32	2.77
336.687	2.73
337.054	2.91
337.42	3
337.787	2.94
338.153	3.08
338.52	3.08
338.886	3.19
339.253	3.27
339.619	3.27
339.986	3.24
340.352	3.19
340.718	3.24
341.084	3.16
341.451	3.09
341.817	3.1
342.183	3.14
342.549	3.15
342.915	3.07
343.281	3.06
343.647	3
344.013	3.03
344.379	3.06
344.745	3.03
345.11	2.99
345.476	3.04
345.842	2.96
346.208	2.98
346.573	2.96
346.939	2.9
347.304	2.94
347.67	2.96
348.035	3.08
348.401	3.18
348.766	3.15
349.132	3.19
349.497	3.24
349.862	3.23
350.228	3.28
350.593	3.25
350.958	3.27
351.323	3.32
351.688	3.33
352.053	3.26
352.418	3.33
352.783	3.29
353.148	3.23
353.513	3.27
353.878	3.28
354.243	3.23
354.608	3.23
354.972	3.27
355.337	3.29
355.702	3.21
356.066	3.15
356.431	3.15
356.795	3.17
357.16	3.12
357.524	3.13
357.889	3.07
358.253	3.09
358.618	3.12
358.982	3.07
359.346	3.09
359.71	3.12
360.075	3.11
360.439	3.14
360.803	3.21
361.167	3.2
361.531	3.19
361.895	3.25
362.259	3.26
362.623	3.24
362.987	3.24
363.351	3.27
363.714	3.3
364.078	3.32
364.442	3.31
364.806	3.37
365.169	3.4
365.533	3.43
365.896	3.52
366.26	3.51
366.623	3.49
366.987	3.46
367.35	3.5
367.714	3.48
368.077	3.5
368.44	3.45
368.803	3.44
369.167	3.39
369.53	3.44
369.893	3.5
370.256	3.49
370.619	3.42
370.982	3.3
371.345	3.3
371.708	3.32
372.071	3.29
372.434	3.23
372.797	3.18
373.159	3.17
373.522	3.13
373.885	3.15
374.247	3.21
374.61	3.23
374.973	3.24
375.335	3.25
375.698	3.25
376.06	3.26
376.423	3.21
376.785	3.26
377.147	3.18
377.51	3.14
377.872	3.17
378.234	3.26
378.596	3.3
378.958	3.34
379.321	3.3
379.683	3.37
380.045	3.39
380.407	3.39
380.769	3.38
381.13	3.35
381.492	3.33
381.854	3.31
382.216	3.36
382.578	3.37
382.939	3.39
383.301	3.34
383.663	3.33
384.024	3.38
384.386	3.39
384.747	3.4
385.109	3.41
385.47	3.44
385.832	3.38
386.193	3.4
386.554	3.3
386.916	3.33
387.277	3.29
387.638	3.29
387.999	3.31
388.36	3.32
388.721	3.35
389.082	3.39
389.443	3.4
389.804	3.41
390.165	3.4
390.526	3.4
390.887	3.41
391.248	3.45
391.609	3.45
391.969	3.47
392.33	3.43
392.691	3.4
393.051	3.37
393.412	3.42
393.772	3.43
394.133	3.49
394.493	3.48
394.854	3.49
395.214	3.49
395.574	3.53
395.935	3.53
396.295	3.52
396.655	3.52
397.015	3.52
397.376	3.5
397.736	3.45
398.096	3.42
398.456	3.43
398.816	3.43
399.176	3.42
399.535	3.39
399.895	3.43
400.255	3.48
400.615	3.51
400.975	3.53
401.334	3.54
401.694	3.51
402.054	3.5
402.413	3.46
402.773	3.45
403.132	3.44
403.492	3.46
403.851	3.47
404.211	3.45
404.57	3.48
404.929	3.49
405.288	3.55
405.648	3.56
406.007	3.57
406.366	3.52
406.725	3.54
407.084	3.53
407.443	3.55
407.802	3.55
408.161	3.55
408.52	3.55
408.879	3.55
409.238	3.58
409.596	3.59
409.955	3.61
410.314	3.64
410.673	3.65
411.031	3.63
411.39	3.61
411.748	3.63
412.107	3.59
412.465	3.58
412.824	3.55
413.182	3.56
413.54	3.58
413.899	3.6
414.257	3.59
414.615	3.58
414.974	3.56
415.332	3.58
415.69	3.56
416.048	3.55
416.406	3.54
416.764	3.52
417.122	3.5
417.48	3.51
417.838	3.5
418.195	3.48
418.553	3.49
418.911	3.49
419.269	3.49
419.626	3.52
419.984	3.51
420.342	3.49
420.699	3.51
421.057	3.5
421.414	3.52
421.772	3.53
422.129	3.53
422.486	3.53
422.844	3.53
423.201	3.52
423.558	3.52
423.915	3.53
424.273	3.53
424.63	3.54
424.987	3.55
425.344	3.55
425.701	3.55
426.058	3.54
426.415	3.54
426.772	3.53
427.128	3.52
427.485	3.55
427.842	3.56
428.199	3.55
428.555	3.54
428.912	3.53
429.269	3.52
429.625	3.53
429.982	3.54
430.338	3.53
430.695	3.54
431.051	3.53
431.407	3.52
431.764	3.54
432.12	3.54
432.476	3.53
432.832	3.55
433.189	3.56
433.545	3.59
433.901	3.59
434.257	3.6
434.613	3.57
434.969	3.54
435.325	3.56
435.681	3.56
436.036	3.58
436.392	3.58
436.748	3.58
437.104	3.58
437.459	3.58
437.815	3.58
438.171	3.6
438.526	3.61
438.882	3.62
439.237	3.6
439.593	3.62
439.948	3.63
440.304	3.61
440.659	3.62
441.014	3.61
441.369	3.62
441.725	3.62
442.08	3.64
442.435	3.65
442.79	3.64
443.145	3.64
443.5	3.63
443.855	3.63
444.21	3.64
444.565	3.66
444.92	3.65
445.275	3.65
445.629	3.63
445.984	3.62
446.339	3.63
446.693	3.64
447.048	3.63
447.403	3.64
447.757	3.62
448.112	3.63
448.466	3.63
448.82	3.62
449.175	3.63
449.529	3.63
449.883	3.62
450.238	3.63
450.592	3.63
450.946	3.63
451.3	3.61
451.654	3.59
452.008	3.57
452.362	3.58
452.716	3.56
453.07	3.59
453.424	3.58
453.778	3.58
454.132	3.58
454.486	3.61
454.839	3.61
455.193	3.64
455.547	3.63
455.9	3.64
456.254	3.65
456.607	3.65
456.961	3.64
457.314	3.63
457.668	3.65
458.021	3.65
458.375	3.65
458.728	3.67
459.081	3.7
459.434	3.72
459.787	3.71
460.141	3.72
460.494	3.73
460.847	3.74
461.2	3.75
461.553	3.76
461.906	3.75
462.259	3.75
462.611	3.75
462.964	3.75
463.317	3.73
463.67	3.73
464.022	3.74
464.375	3.76
464.728	3.77
465.08	3.77
465.433	3.76
465.785	3.76
466.138	3.77
466.49	3.74
466.843	3.76
467.195	3.77
467.547	3.75
467.899	3.75
468.252	3.75
468.604	3.75
468.956	3.73
469.308	3.72
469.66	3.73
470.012	3.72
470.364	3.73
470.716	3.74
471.068	3.75
471.42	3.76
471.772	3.74
472.123	3.75
472.475	3.76
472.827	3.76
473.178	3.78
473.53	3.78
473.882	3.78
474.233	3.75
474.585	3.74
474.936	3.77
475.288	3.77
475.639	3.76
475.99	3.76
476.342	3.76
476.693	3.76
477.044	3.76
477.395	3.78
477.746	3.77
478.097	3.76
478.448	3.75
478.8	3.73
479.15	3.74
479.501	3.74
479.852	3.74
480.203	3.75
480.554	3.76
480.905	3.78
481.255	3.78
481.606	3.79
481.957	3.79
482.307	3.8
482.658	3.79
483.009	3.79
483.359	3.79
483.709	3.8
484.06	3.81
484.41	3.81
484.761	3.81
485.111	3.82
485.461	3.82
485.811	3.83
486.162	3.84
486.512	3.84
486.862	3.85
487.212	3.85
487.562	3.86
487.912	3.85
488.262	3.84
488.612	3.85
488.961	3.85
489.311	3.85
489.661	3.84
490.011	3.85
490.36	3.85
490.71	3.85
491.06	3.85
491.409	3.84
491.759	3.84
492.108	3.83
492.458	3.83
492.807	3.82
493.157	3.82
493.506	3.82
493.855	3.81
494.204	3.81
494.554	3.81
494.903	3.81
495.252	3.81
495.601	3.82
495.95	3.83
496.299	3.82
496.648	3.84
496.997	3.85
497.346	3.86
497.695	3.87
498.043	3.88
498.392	3.88
498.741	3.89
499.09	3.91
499.438	3.93
499.787	3.92
500.135	3.92
500.484	3.91
500.832	3.91
501.181	3.92
501.529	3.92
501.878	3.91
502.226	3.91
502.574	3.89
502.923	3.9
503.271	3.89
503.619	3.89
503.967	3.88
504.315	3.87
504.663	3.88
505.011	3.88
505.359	3.87
505.707	3.89
506.055	3.88
506.403	3.88
506.751	3.87
507.098	3.89
507.446	3.91
507.794	3.92
508.141	3.94
508.489	3.92
508.837	3.93
509.184	3.95
509.531	3.95
509.879	3.94
510.226	3.92
510.574	3.92
510.921	3.91
511.268	3.91
511.616	3.92
511.963	3.9
512.31	3.9
512.657	3.89
513.004	3.84
513.351	3.84
513.698	3.85
514.045	3.85
514.392	3.83
514.739	3.84
515.086	3.86
515.432	3.85
515.779	3.87
516.126	3.89
516.473	3.88
516.819	3.9
517.166	3.9
517.512	3.92
517.859	3.93
518.205	3.95
518.552	3.95
518.898	3.95
519.245	3.96
519.591	3.96
519.937	3.98
520.283	4.01
520.629	4.01
520.976	3.99
521.322	4.01
521.668	4
522.014	4.01
522.36	4
522.706	3.99
523.052	3.98
523.398	3.95
523.743	3.97
524.089	3.99
524.435	4
524.781	4.02
525.126	4.03
525.472	4.03
525.817	4.02
526.163	4.01
526.509	4.01
526.854	4.02
527.199	4.03
527.545	4.03
527.89	4.03
528.235	4.03
528.581	4.04
528.926	4.04
529.271	4.04
529.616	4.04
529.961	4.04
530.306	4.06
530.651	4.06
530.996	4.08
531.341	4.08
531.686	4.08
532.031	4.07
532.376	4.08
532.721	4.08
533.065	4.08
533.41	4.09
533.755	4.1
534.099	4.09
534.444	4.09
534.788	4.09
535.133	4.11
535.477	4.11
535.822	4.11
536.166	4.12
536.51	4.12
536.855	4.12
537.199	4.12
537.543	4.12
537.887	4.13
538.231	4.13
538.576	4.11
538.92	4.12
539.264	4.11
539.608	4.12
539.951	4.11
540.295	4.12
540.639	4.13
540.983	4.13
541.327	4.15
541.671	4.15
542.014	4.17
542.358	4.16
542.701	4.16
543.045	4.16
543.389	4.18
543.732	4.19
544.075	4.19
544.419	4.21
544.762	4.2
545.105	4.21
545.449	4.2
545.792	4.22
546.135	4.22
546.478	4.21
546.821	4.21
547.165	4.22
547.508	4.21
547.851	4.22
548.194	4.21
548.536	4.2
548.879	4.19
549.222	4.19
549.565	4.17
549.908	4.19
550.25	4.16
550.593	4.15
550.936	4.16
551.278	4.18
551.621	4.14
551.963	4.17
552.306	4.15
552.648	4.13
552.991	4.09
553.333	4.11
553.675	4.14
554.017	4.12
554.36	4.14
554.702	4.14
555.044	4.12
555.386	4.14
555.728	4.14
556.07	4.13
556.412	4.12
556.754	4.13
557.096	4.12
557.438	4.13
557.78	4.12
558.121	4.09
558.463	4.03
558.805	4.06
559.147	4.04
559.488	4.03
559.83	4.04
560.171	4.08
560.513	4.07
560.854	4.06
561.196	4.12
561.537	4.13
561.878	4.17
562.22	4.16
562.561	4.18
562.902	4.19
563.243	4.23
563.584	4.21
563.925	4.22
564.266	4.22
564.607	4.21
564.948	4.22
565.289	4.24
565.63	4.28
565.971	4.29
566.312	4.29
566.653	4.31
566.993	4.33
567.334	4.32
567.675	4.32
568.015	4.31
568.356	4.26
568.696	4.24
569.037	4.24
569.377	4.23
569.718	4.21
570.058	4.19
570.398	4.16
570.739	4.19
571.079	4.19
571.419	4.19
571.759	4.21
572.099	4.21
572.439	4.24
572.779	4.23
573.119	4.23
573.459	4.22
573.799	4.2
574.139	4.2
574.479	4.22
574.819	4.22
575.158	4.24
575.498	4.26
575.838	4.28
576.177	4.25
576.517	4.27
576.856	4.28
577.196	4.3
577.535	4.32
577.875	4.31
578.214	4.34
578.553	4.33
578.893	4.33
579.232	4.32
579.571	4.29
579.91	4.29
580.25	4.26
580.589	4.25
580.928	4.24
581.267	4.22
581.606	4.2
581.945	4.2
582.283	4.19
582.622	4.15
582.961	4.15
583.3	4.14
583.639	4.13
583.977	4.15
584.316	4.14
584.654	4.15
584.993	4.13
585.332	4.11
585.67	4.11
586.008	4.12
586.347	4.12
586.685	4.09
587.024	4.12
587.362	4.19
587.7	4.24
588.038	4.29
588.376	4.33
588.715	4.33
589.053	4.31
589.391	4.32
589.729	4.34
590.067	4.31
590.404	4.32
590.742	4.32
591.08	4.28
591.418	4.29
591.756	4.25
592.093	4.29
592.431	4.28
592.769	4.31
593.106	4.29
593.444	4.34
593.781	4.36
594.119	4.36
594.456	4.32
594.793	4.29
595.131	4.26
595.468	4.25
595.805	4.29
596.143	4.31
596.48	4.34
596.817	4.35
597.154	4.39
597.491	4.39
597.828	4.38
598.165	4.38
598.502	4.36
598.839	4.35
599.176	4.35
599.512	4.35
599.849	4.36
600.186	4.38
600.523	4.38
600.859	4.4
601.196	4.42
601.532	4.42
601.869	4.44
602.205	4.43
602.542	4.38
602.878	4.37
603.215	4.36
603.551	4.32
603.887	4.3
604.223	4.29
604.56	4.29
604.896	4.35
605.232	4.35
605.568	4.4
605.904	4.42
606.24	4.42
606.576	4.42
606.912	4.39
607.248	4.4
607.583	4.39
607.919	4.37
608.255	4.34
608.591	4.34
608.926	4.34
609.262	4.33
609.597	4.38
609.933	4.37
610.268	4.39
610.604	4.4
610.939	4.44
611.275	4.45
611.61	4.44
611.945	4.36
612.281	4.35
612.616	4.37
612.951	4.38
613.286	4.39
613.621	4.39
613.956	4.43
614.291	4.39
614.626	4.38
614.961	4.41
615.296	4.41
615.631	4.38
615.966	4.39
616.3	4.43
616.635	4.37
616.97	4.35
617.304	4.35
617.639	4.38
617.973	4.31
618.308	4.31
618.642	4.29
618.977	4.35
619.311	4.35
619.646	4.35
619.98	4.37
620.314	4.34
620.648	4.35
620.983	4.33
621.317	4.34
621.651	4.36
621.985	4.36
622.319	4.35
622.653	4.45
622.987	4.43
623.321	4.44
623.655	4.45
623.988	4.51
624.322	4.52
624.656	4.46
624.99	4.48
625.323	4.51
625.657	4.55
625.99	4.56
626.324	4.55
626.657	4.47
626.991	4.41
627.324	4.42
627.658	4.42
627.991	4.45
628.324	4.47
628.657	4.47
628.991	4.48
629.324	4.49
629.657	4.42
629.99	4.43
630.323	4.45
630.656	4.49
630.989	4.46
631.322	4.45
631.655	4.47
631.987	4.49
632.32	4.45
632.653	4.44
632.986	4.43
633.318	4.48
633.651	4.56
633.984	4.63
634.316	4.67
634.649	4.67
634.981	4.67
635.313	4.66
635.646	4.64
635.978	4.68
636.31	4.7
636.643	4.75
636.975	4.68
637.307	4.61
637.639	4.58
637.971	4.58
638.303	4.57
638.635	4.55
638.967	4.54
639.299	4.56
639.631	4.55
639.963	4.51
640.295	4.51
640.626	4.54
640.958	4.51
641.29	4.44
641.621	4.46
641.953	4.37
642.285	4.39
642.616	4.42
642.948	4.38
643.279	4.35
643.61	4.31
643.942	4.43
644.273	4.51
644.604	4.49
644.936	4.54
645.267	4.53
645.598	4.56
645.929	4.54
646.26	4.58
646.591	4.62
646.922	4.71
647.253	4.69
647.584	4.65
647.915	4.63
648.245	4.68
648.576	4.65
648.907	4.71
649.238	4.68
649.568	4.64
649.899	4.68
650.229	4.67
650.56	4.72
650.89	4.74
651.221	4.7
651.551	4.77
651.882	4.69
652.212	4.75
652.542	4.77
652.872	4.8
653.203	4.81
653.533	4.76
653.863	4.63
654.193	4.62
654.523	4.65
654.853	4.69
655.183	4.72
655.513	4.75
655.843	4.78
656.172	4.8
656.502	4.78
656.832	4.71
657.162	4.69
657.491	4.68
657.821	4.69
658.15	4.69
658.48	4.66
658.809	4.77
659.139	4.72
659.468	4.73
659.798	4.71
660.127	4.71
660.456	4.73
660.785	4.78
661.115	4.77
661.444	4.72
661.773	4.71
662.102	4.66
662.431	4.69
662.76	4.71
663.089	4.72
663.418	4.76
663.747	4.84
664.076	4.87
664.404	4.85
664.733	4.77
665.062	4.85
665.39	4.85
665.719	4.79
666.048	4.79
666.376	4.78
666.705	4.89
667.033	4.85
667.362	4.82
667.69	4.88
668.018	4.94
668.347	5.01
668.675	5.04
669.003	5.01
669.331	4.9
669.659	4.94
669.987	4.92
670.315	4.89
670.643	4.86
670.971	4.83
671.299	4.86
671.627	4.87
671.955	4.85
672.283	4.82
672.61	4.79
672.938	4.82
673.266	4.82
673.593	4.66
673.921	4.65
674.249	4.67
674.576	4.69
674.904	4.65
675.231	4.62
675.558	4.65
675.886	4.72
676.213	4.81
676.54	4.76
676.867	4.76
677.195	4.83
677.522	4.83
677.849	4.87
678.176	4.86
678.503	4.94
678.83	4.85
679.157	4.88
679.484	4.9
679.81	4.88
680.137	4.95
680.464	5.02
680.791	5.04
681.117	5.1
681.444	5.06
681.771	5.1
682.097	5.11
682.424	5.1
682.75	5.07
683.077	5.05
683.403	5.01
683.729	4.97
684.056	4.94
684.382	4.97
684.708	5.03
685.034	5.03
685.36	4.98
685.686	5.05
686.012	5.04
686.339	4.99
686.664	4.95
686.99	4.81
687.316	4.74
687.642	4.77
687.968	4.7
688.294	4.67
688.619	4.61
688.945	4.55
689.271	4.57
689.596	4.67
689.922	4.68
690.247	4.72
690.573	4.78
690.898	4.84
691.224	4.77
691.549	4.65
691.874	4.63
692.2	4.73
692.525	4.73
692.85	4.78
693.175	4.9
693.5	5.01
693.825	5.13
694.15	5.23
694.475	5.25
694.8	5.29
695.125	5.28
695.45	5.22
695.775	5.33
696.099	5.3
696.424	5.32
696.749	5.34
697.073	5.27
697.398	5.28
697.723	5.25
698.047	5.23
698.372	5.29
698.696	5.37
699.02	5.32
699.345	5.3
699.669	5.26
699.993	5.18
700.318	5.17
700.642	5.23
700.966	5.18
701.29	5.23
701.614	5.28
701.938	5.31
702.262	5.39
702.586	5.39
702.91	5.53
703.234	5.37
703.557	5.32
703.881	5.49
704.205	5.48
704.529	5.45
704.852	5.43
705.176	5.46
705.499	5.39
705.823	5.24
706.146	5.4
706.47	5.39
706.793	5.54
707.117	5.41
707.44	5.3
707.763	5.31
708.086	5.2
708.409	5.25
708.733	5.27
709.056	5.39
709.379	5.35
709.702	5.16
710.025	5.38
710.348	5.34
710.671	5.17
710.993	5.2
711.316	5.35
711.639	5.44
711.962	5.53
712.284	5.57
712.607	5.62
712.93	5.4
713.252	5.46
713.575	5.5
713.897	5.65
714.22	5.75
714.542	5.72
714.864	5.7
715.187	5.63
715.509	5.65
715.831	5.5
716.153	5.48
716.475	5.57
716.798	5.45
717.12	5.44
717.442	5.57
717.764	5.58
718.085	5.55
718.407	5.61
718.729	5.51
719.051	5.52
719.373	5.62
719.695	5.87
720.016	5.75
720.338	5.64
720.659	5.52
720.981	5.49
721.302	5.66
721.624	5.64
721.945	5.56
722.267	5.42
722.588	5.49
722.909	5.39
723.231	5.28
723.552	5.07
723.873	5.05
724.194	5.01
724.515	4.95
724.836	4.81
725.157	4.72
725.478	4.82
725.799	4.74
726.12	4.7
726.441	4.56
726.762	4.79
727.083	4.89
727.403	5.02
727.724	5.06
728.045	4.98
728.365	4.98
728.686	5.08
729.006	5.24
729.327	5.47
729.647	5.62
729.967	5.63
730.288	5.84
730.608	5.84
730.928	6.01
731.249	6.04
731.569	6.2
731.889	6.26
732.209	6.09
732.529	6.01
732.849	6.28
733.169	6.31
733.489	6.26
733.809	6.18
734.129	6.12
734.448	6.05
734.768	6.09
735.088	6.15
735.408	6.06
735.727	5.95
736.047	5.78
736.366	5.66
736.686	5.73
737.005	5.77
737.325	5.94
737.644	5.77
737.963	5.76
738.283	5.69
738.602	5.88
738.921	6.22
739.24	6.48
739.56	6.29
739.879	6.2
740.198	6.34
740.517	6.44
740.836	6.41
741.155	6.53
741.473	6.35
741.792	6.42
742.111	6.56
742.43	6.84
742.748	6.85
743.067	6.93
743.386	6.81
743.704	6.83
744.023	6.77
744.341	6.9
744.66	7.04
744.978	6.91
745.297	6.65
745.615	6.41
745.933	6.28
746.252	6.37
746.57	6.64
746.888	6.61
747.206	6.54
747.524	6.46
747.842	6.29
748.16	6.35
748.478	6.16
748.796	6.23
749.114	6.02
749.432	5.98
749.749	5.94
750.067	6.1
750.385	6.15
750.703	6.36
751.02	6.36
751.338	5.91
751.655	6.01
751.973	6.14
752.29	6.16
752.608	6.13
752.925	5.96
753.242	5.71
753.56	5.4
753.877	5.45
754.194	5.63
754.511	5.69
754.828	5.68
755.145	5.8
755.462	5.66
755.779	5.55
756.096	5.38
756.413	5.43
756.73	5.75
757.047	5.7
757.364	5.61
757.68	5.5
757.997	5.78
758.314	5.47
758.63	5.28
758.947	5.21
759.264	5.26
759.58	5.35
759.896	5.39
760.213	5.66
760.529	5.57
760.846	5.74
761.162	5.8
761.478	6.08
761.794	6.19
762.11	6.2
762.426	6.3
762.743	6.48
763.059	6.67
763.375	6.26
763.69	6.27
764.006	6.37
764.322	6.3
764.638	6.43
764.954	6.81
765.27	6.93
765.585	6.99
765.901	6.88
766.216	6.82
766.532	7.03
766.848	7.09
767.163	7.2
767.478	7.1
767.794	7.16
768.109	6.93
768.424	6.76
768.74	6.87
769.055	7.08
769.37	7.15
769.685	7.07
770	7.3
770.315	7.38
770.63	7.45
770.945	7.58
771.26	7.65
771.575	7.38
771.89	7.56
772.205	7.58
772.52	8.14
772.834	8.24
773.149	8.14
773.464	7.88
773.778	7.96
774.093	8.06
774.407	7.86
774.722	7.86
775.036	7.87
775.351	8.04
775.665	7.7
775.979	8.13
776.293	7.8
776.608	8.04
776.922	7.89
777.236	7.69
777.55	7.64
777.864	7.57
778.178	7.58
778.492	7.74
778.806	7.67
779.12	7.07
779.434	6.92
779.747	6.8
780.061	6.82
780.375	6.69
780.689	6.33
781.002	6.46
781.316	6.33
781.629	6.38
781.943	6.42
782.256	6.47
782.57	6.22
782.883	6.37
783.196	5.95
783.51	6.08
783.823	5.89
784.136	5.74
784.449	5.57
784.762	6
785.075	5.29
785.388	5.33
785.701	5.42
786.014	5.89
786.327	5.72
786.64	5.61
786.953	5.64
787.266	6.05
787.578	5.86
787.891	6.26
788.204	6.24
788.516	6.03
788.829	6.16
789.141	5.87
789.454	6.34
789.766	6.83
790.079	6.7
790.391	7
790.703	7.16
791.016	7.11
791.328	6.91
791.64	7.04
791.952	7.34
792.264	6.97
792.576	6.5
792.888	6.76
793.2	7.07
793.512	6.9
793.824	6.76
794.136	6.92
794.448	6.88
794.76	6.72
795.071	6.67
795.383	6.4
795.695	6.1
796.006	5.65
796.318	5.58
796.629	5.19
796.941	4.94
797.252	4.92
797.564	5.1
797.875	4.73
798.186	4.85
798.497	4
798.809	4.88
799.12	5.09
799.431	5.23
799.742	5.28
800.053	5.38
800.364	5.29
800.675	5.6
800.986	5.82
801.297	6.17
801.608	6.1
801.918	6.1
802.229	6.55
802.54	6.61
802.851	6.27
803.161	6.9
803.472	7.2
803.782	7.08
804.093	6.82
804.403	7.18
804.714	7.39
805.024	8.07
805.334	7.82
805.645	7.5
805.955	7.51
806.265	7.46
806.575	7.49
806.885	8.11
807.195	7.96
807.505	7.34
807.815	7.67
808.125	7.68
808.435	7.72
808.745	7.79
809.055	7.76
809.365	7.73
809.674	7.56
809.984	7.39
810.294	7.41
810.603	7.27
810.913	6.92
811.222	6.8
811.532	6.79
811.841	6.72
812.151	7.06
812.46	7.01
812.769	7.04
813.079	6.9
813.388	6.51
813.697	5.8
814.006	5.98
814.315	4.94
814.624	4.87
814.933	4.89
815.242	4.02
815.551	3.88
815.86	3.94
816.169	3.99
816.478	4.1
816.786	3.84
817.095	4.47
817.404	4.79
817.712	4.18
818.021	4.86
818.33	5.28
818.638	5.34
818.947	5.52
819.255	5.63
819.563	6.06
819.872	6.16
820.18	6.91
820.488	7.48
820.796	7.86
821.105	8.45
821.413	8.48
821.721	8.73
822.029	8.74
822.337	8.67
822.645	8.76
822.953	8.82
823.26	8.8
823.568	8.71
823.876	8.67
824.184	8.8
824.491	8.83
824.799	8.76
825.107	8.91
825.414	8.99
825.722	8.95
826.029	8.94
826.337	9.02
826.644	8.98
826.951	8.84
827.259	8.87
827.566	8.6
827.873	8.89
828.18	8.94
828.488	9.01
828.795	9.18
829.102	9.05
829.409	8.9
829.716	9.14
830.023	9.31
830.329	9.52
830.636	9.32
830.943	9
831.25	9.19
831.557	8.8
831.863	8.55
832.17	8.55
832.476	8.52
832.783	8.54
833.089	8.63
833.396	8.52
833.702	8.61
834.009	8.55
834.315	7.89
834.621	7.49
834.928	7.81
835.234	8.05
835.54	8.21
835.846	8.16
836.152	7.98
836.458	8.09
836.764	7.5
837.07	7.56
837.376	7.53
837.682	7.26
837.988	7.28
838.293	7.24
838.599	7.08
838.905	6.82
839.211	6.69
839.516	6.07
839.822	6.63
840.127	5.94
840.433	4.99
840.738	5.49
841.044	6.14
841.349	5.27
841.654	3.54
841.959	3.25
842.265	3.11
842.57	3.72
842.875	3.46
843.18	3.7
843.485	3.86
843.79	3.87
844.095	4.37
844.4	4.01
844.705	3.53
845.01	3.52
845.315	3.98
845.619	3.15
845.924	4.16
846.229	3.59
846.533	4.55
846.838	5.72
847.142	5.48
847.447	5.26
847.751	4.86
848.056	5.31
848.36	6.77
848.664	7.77
848.969	8.59
849.273	7.55
849.577	8.79
849.881	8.82
850.185	8.19
850.489	7.16
850.794	10.02
851.097	10.4
851.401	11.18
851.705	9.91
852.009	9.25
852.313	6.47
852.617	4.72
852.92	5.31
853.224	5.37
853.528	3.21
853.831	3.05
854.135	2.37
854.438	2.19
854.742	-0.03
855.045	-1.42
855.349	-3.2
855.652	-1.3
855.955	-1.22
856.259	1.47
856.562	1.28
856.865	0.9
857.168	-0.47
857.471	-0.47
857.774	-0.56
858.077	-0.03
858.38	0.7
858.683	3.21
858.986	4.45
859.289	2.41
859.592	4.21
859.894	4.94
860.197	4.09
860.5	6.32
860.802	7.79
861.105	7.21
861.407	8.62
861.71	10.16
862.012	9.72
862.315	11.32
862.617	10.9
862.919	12.74
863.222	14.16
863.524	11.75
863.826	12.37
864.128	12.25
864.43	14.66
864.732	14.5
865.034	15.34
865.336	15.55
865.638	15.48
865.94	14.06
866.242	13.76
866.544	14.66
866.846	13.87
867.147	14.29
867.449	15.38
867.751	15.08
868.052	14.22
868.354	15.56
868.655	13.8
868.957	12.03
869.258	10.93
869.56	11.01
869.861	11.73
870.162	11.99
870.463	11.99
870.765	11.37
871.066	11.71
871.367	9.96
871.668	8.34
871.969	7.55
872.27	7.83
872.571	8.1
872.872	6.63
873.173	4.88
873.473	5.84
873.774	5.33
874.075	6.1
874.376	5.45
874.676	5.69
874.977	6.33
875.277	4.68
875.578	5.2
875.878	3.87
876.179	4.65
876.479	4.85
876.78	4.88
877.08	3.13
877.38	3.61
877.68	3.62
877.981	4.66
878.281	6.62
878.581	5.01
