Data from MVZ_BU147395_Reflection_00001.txt Node
Date: Tue Nov 19 12:04:51 EST 2019
User: vgr7
Spectrometer: USB2G7710
Scans to average: 3
Trigger mode: 4
Integration Time (sec): 2.000000E-2
Electric dark correction enabled: true
Boxcar width: 10
XAxis mode: Wavelengths
Number of Pixels in Spectrum: 2048
>>>>>Begin Spectral Data<<<<<
177.721	52
178.105	17
178.488	-22.51
178.871	-14.15
179.254	0
179.636	19.08
180.019	1061.54
180.402	163.64
180.785	-74.53
181.168	-163.01
181.55	-922.39
181.933	198.97
182.316	756.07
182.698	-7136.84
183.081	2451.06
183.463	1901.2
183.846	-2020.25
184.228	-1773.63
184.611	-533.55
184.993	-314.85
185.376	-221.15
185.758	-138.59
186.14	-160.67
186.522	-143.75
186.904	-141.08
187.287	-122.04
187.669	-144.48
188.051	-156.74
188.433	-165.67
188.815	-162.75
189.197	-143.56
189.579	-111.92
189.961	-74.08
190.342	-70.23
190.724	-68.72
191.106	-60.48
191.488	-41.17
191.869	-30.35
192.251	-46.38
192.633	-48.24
193.014	-50.2
193.396	-51.88
193.777	-33.62
194.159	-28.49
194.54	-15.23
194.922	-18.43
195.303	-23.14
195.684	-25.43
196.065	-24.69
196.447	-27.88
196.828	-26.36
197.209	-31.05
197.59	-41.48
197.971	-52.53
198.352	-54.41
198.733	-56.86
199.114	-62.61
199.495	-64.46
199.876	-86.35
200.257	-51.01
200.638	-49.97
201.018	-59.2
201.399	-67.69
201.78	-84.55
202.16	-122.51
202.541	-187.55
202.922	-135.92
203.302	-97.02
203.683	-142.66
204.063	-122.16
204.444	-133.67
204.824	-147.1
205.204	-122.85
205.585	-88.79
205.965	-83.96
206.345	-87.57
206.725	-67.94
207.106	-36.51
207.486	-36.86
207.866	-22.12
208.246	-14.23
208.626	-7.4
209.006	-7.16
209.386	-16.16
209.766	-10.15
210.145	-9.09
210.525	-17.37
210.905	-16.22
211.285	-23.6
211.664	-4.26
212.044	4.56
212.424	10.52
212.803	5.48
213.183	19.16
213.562	14.7
213.942	10.24
214.321	18.15
214.701	16.7
215.08	-1.68
215.459	17.42
215.838	14.45
216.218	-8.38
216.597	-8.87
216.976	-16.16
217.355	-17.48
217.734	-31.99
218.113	-15.07
218.492	-12.05
218.871	-19.27
219.25	-29.65
219.629	-31.51
220.008	-33.73
220.387	-28.62
220.766	-16.41
221.144	-16.46
221.523	-19.75
221.902	-19.5
222.28	-23.84
222.659	-20.5
223.037	-20.6
223.416	-23.29
223.794	-22.25
224.173	-22.57
224.551	-20.47
224.929	-16.37
225.308	-11.37
225.686	-9.42
226.064	-12.67
226.442	-8.04
226.821	-4.96
227.199	-5.21
227.577	-2.55
227.955	-0.66
228.333	-0.06
228.711	0.25
229.089	-0.78
229.467	1.5
229.845	2.43
230.222	3.77
230.6	3.89
230.978	4.83
231.356	1.98
231.733	3.18
232.111	5.69
232.488	4.79
232.866	5.29
233.243	4.92
233.621	4.58
233.998	5.96
234.376	4.37
234.753	4.13
235.13	5.44
235.508	3.23
235.885	2.36
236.262	1.15
236.639	0.77
237.016	1.61
237.393	1.94
237.77	3.03
238.147	3.11
238.524	3.14
238.901	3.1
239.278	4.13
239.655	4.16
240.032	3.57
240.409	4.27
240.785	3.62
241.162	3.09
241.539	3.4
241.915	2.82
242.292	3.19
242.668	3.21
243.045	3.43
243.421	3.89
243.798	4.21
244.174	4.38
244.551	4.28
244.927	4.05
245.303	3.52
245.679	3.27
246.056	3.23
246.432	3.34
246.808	3.61
247.184	3.6
247.56	3.48
247.936	3.49
248.312	3.47
248.688	3.39
249.064	3.42
249.44	3.43
249.815	3.48
250.191	3.49
250.567	3.39
250.943	3.37
251.318	3.3
251.694	3.01
252.069	2.94
252.445	3.03
252.82	3.42
253.196	3.87
253.571	4.12
253.947	4.12
254.322	3.81
254.697	3.8
255.073	3.58
255.448	3.28
255.823	3.44
256.198	3.37
256.573	3.71
256.948	3.75
257.323	3.61
257.698	3.65
258.073	3.48
258.448	3.69
258.823	3.65
259.198	3.7
259.573	3.57
259.948	3.68
260.322	3.51
260.697	3.29
261.072	3.25
261.446	3.25
261.821	3.25
262.195	3.26
262.57	3.24
262.944	3.26
263.319	3.39
263.693	3.19
264.067	3.13
264.442	2.89
264.816	3.17
265.19	3.1
265.564	3.06
265.938	3.21
266.313	3
266.687	2.95
267.061	2.81
267.435	2.99
267.809	2.76
268.183	2.95
268.556	2.9
268.93	2.96
269.304	2.76
269.678	2.61
270.051	2.77
270.425	2.69
270.799	2.68
271.172	2.7
271.546	2.83
271.919	2.84
272.293	2.98
272.666	2.7
273.04	2.84
273.413	2.84
273.787	2.75
274.16	2.68
274.533	2.62
274.906	2.55
275.279	2.45
275.653	2.53
276.026	2.46
276.399	2.54
276.772	2.49
277.145	2.67
277.518	2.77
277.891	2.78
278.263	2.69
278.636	2.82
279.009	2.95
279.382	2.91
279.755	2.9
280.127	2.87
280.5	2.82
280.872	2.77
281.245	2.77
281.617	2.83
281.99	2.93
282.362	2.96
282.735	2.9
283.107	2.99
283.479	2.98
283.852	3.11
284.224	3.08
284.596	3.12
284.968	3.04
285.34	3.15
285.713	3.16
286.085	3.15
286.457	3.02
286.829	2.86
287.201	2.94
287.572	2.97
287.944	3.01
288.316	3.19
288.688	3.28
289.06	3.45
289.431	3.5
289.803	3.61
290.175	3.64
290.546	3.72
290.918	3.7
291.289	3.68
291.661	3.68
292.032	3.67
292.403	3.59
292.775	3.66
293.146	3.58
293.517	3.48
293.889	3.61
294.26	3.71
294.631	3.79
295.002	3.75
295.373	3.74
295.744	3.68
296.115	3.58
296.486	3.52
296.857	3.33
297.228	3.29
297.599	3.08
297.97	3.18
298.34	3.25
298.711	3.29
299.082	3.32
299.452	3.21
299.823	3.17
300.194	3.17
300.564	3.04
300.935	3.15
301.305	3.06
301.676	2.92
302.046	2.81
302.416	2.7
302.787	2.7
303.157	2.7
303.527	2.81
303.897	2.76
304.267	2.71
304.637	2.82
305.008	2.88
305.378	3.1
305.748	2.96
306.117	2.85
306.487	2.87
306.857	2.89
307.227	2.88
307.597	3
307.967	2.9
308.336	2.99
308.706	2.86
309.076	3.1
309.445	3.18
309.815	3.3
310.184	3.27
310.554	3.25
310.923	3.24
311.293	3.16
311.662	3.29
312.031	3.31
312.401	3.13
312.77	3.1
313.139	2.99
313.508	3.03
313.877	3.2
314.246	3.11
314.616	3.11
314.985	3.04
315.353	3.05
315.722	3.25
316.091	3.15
316.46	3.07
316.829	3
317.198	2.99
317.567	3
317.935	3.05
318.304	3.06
318.672	3.16
319.041	3.18
319.41	3.17
319.778	3.36
320.147	3.38
320.515	3.28
320.883	3.19
321.252	3.23
321.62	3
321.988	3.06
322.357	3.09
322.725	3.16
323.093	3.1
323.461	3.03
323.829	3.17
324.197	3.26
324.565	3.19
324.933	3.17
325.301	3.04
325.669	3.04
326.037	3.16
326.405	3
326.772	3.05
327.14	2.93
327.508	2.72
327.875	2.88
328.243	3.06
328.61	3.08
328.978	3.03
329.346	3.11
329.713	3.15
330.08	3.18
330.448	3.23
330.815	3.3
331.182	3.22
331.55	3.18
331.917	3.12
332.284	3.22
332.651	3.28
333.018	3.27
333.385	3.38
333.752	3.28
334.119	3.44
334.486	3.47
334.853	3.5
335.22	3.46
335.587	3.39
335.954	3.15
336.32	3.17
336.687	3.22
337.054	3.18
337.42	3.05
337.787	3.03
338.153	3.03
338.52	2.97
338.886	3.07
339.253	3.05
339.619	3.2
339.986	3.15
340.352	3.08
340.718	3.13
341.084	3.05
341.451	3.06
341.817	3.01
342.183	2.97
342.549	3.08
342.915	3.21
343.281	3.22
343.647	3.29
344.013	3.38
344.379	3.34
344.745	3.48
345.11	3.48
345.476	3.44
345.842	3.38
346.208	3.36
346.573	3.34
346.939	3.41
347.304	3.36
347.67	3.29
348.035	3.27
348.401	3.37
348.766	3.34
349.132	3.35
349.497	3.34
349.862	3.28
350.228	3.13
350.593	3.09
350.958	3.15
351.323	3.2
351.688	3.23
352.053	3.21
352.418	3.09
352.783	3.13
353.148	3.17
353.513	3.2
353.878	3.22
354.243	3.16
354.608	3.03
354.972	2.97
355.337	3.11
355.702	3.13
356.066	3.13
356.431	3.22
356.795	3.27
357.16	3.24
357.524	3.24
357.889	3.33
358.253	3.33
358.618	3.27
358.982	3.25
359.346	3.23
359.71	3.29
360.075	3.35
360.439	3.35
360.803	3.36
361.167	3.33
361.531	3.3
361.895	3.37
362.259	3.44
362.623	3.49
362.987	3.44
363.351	3.44
363.714	3.42
364.078	3.37
364.442	3.3
364.806	3.34
365.169	3.38
365.533	3.37
365.896	3.38
366.26	3.37
366.623	3.36
366.987	3.38
367.35	3.34
367.714	3.3
368.077	3.29
368.44	3.28
368.803	3.32
369.167	3.36
369.53	3.27
369.893	3.26
370.256	3.24
370.619	3.25
370.982	3.17
371.345	3.18
371.708	3.25
372.071	3.29
372.434	3.25
372.797	3.28
373.159	3.23
373.522	3.22
373.885	3.29
374.247	3.34
374.61	3.3
374.973	3.3
375.335	3.33
375.698	3.32
376.06	3.3
376.423	3.32
376.785	3.34
377.147	3.37
377.51	3.35
377.872	3.35
378.234	3.34
378.596	3.41
378.958	3.37
379.321	3.31
379.683	3.26
380.045	3.26
380.407	3.23
380.769	3.23
381.13	3.24
381.492	3.22
381.854	3.23
382.216	3.25
382.578	3.28
382.939	3.23
383.301	3.26
383.663	3.29
384.024	3.26
384.386	3.2
384.747	3.2
385.109	3.23
385.47	3.25
385.832	3.18
386.193	3.16
386.554	3.12
386.916	3.17
387.277	3.19
387.638	3.2
387.999	3.24
388.36	3.29
388.721	3.31
389.082	3.32
389.443	3.29
389.804	3.29
390.165	3.27
390.526	3.27
390.887	3.26
391.248	3.22
391.609	3.23
391.969	3.27
392.33	3.29
392.691	3.27
393.051	3.31
393.412	3.37
393.772	3.39
394.133	3.45
394.493	3.42
394.854	3.45
395.214	3.45
395.574	3.4
395.935	3.41
396.295	3.38
396.655	3.36
397.015	3.34
397.376	3.35
397.736	3.36
398.096	3.37
398.456	3.36
398.816	3.39
399.176	3.34
399.535	3.34
399.895	3.34
400.255	3.37
400.615	3.35
400.975	3.33
401.334	3.31
401.694	3.3
402.054	3.31
402.413	3.29
402.773	3.29
403.132	3.3
403.492	3.29
403.851	3.29
404.211	3.28
404.57	3.33
404.929	3.32
405.288	3.32
405.648	3.33
406.007	3.35
406.366	3.34
406.725	3.42
407.084	3.42
407.443	3.44
407.802	3.39
408.161	3.38
408.52	3.4
408.879	3.42
409.238	3.43
409.596	3.43
409.955	3.43
410.314	3.43
410.673	3.45
411.031	3.44
411.39	3.46
411.748	3.48
412.107	3.46
412.465	3.47
412.824	3.47
413.182	3.49
413.54	3.5
413.899	3.47
414.257	3.47
414.615	3.47
414.974	3.46
415.332	3.5
415.69	3.49
416.048	3.48
416.406	3.45
416.764	3.45
417.122	3.46
417.48	3.48
417.838	3.47
418.195	3.47
418.553	3.47
418.911	3.47
419.269	3.47
419.626	3.47
419.984	3.46
420.342	3.47
420.699	3.46
421.057	3.45
421.414	3.45
421.772	3.44
422.129	3.44
422.486	3.42
422.844	3.42
423.201	3.42
423.558	3.43
423.915	3.46
424.273	3.45
424.63	3.45
424.987	3.45
425.344	3.47
425.701	3.46
426.058	3.46
426.415	3.44
426.772	3.43
427.128	3.44
427.485	3.46
427.842	3.45
428.199	3.45
428.555	3.44
428.912	3.45
429.269	3.45
429.625	3.44
429.982	3.46
430.338	3.49
430.695	3.48
431.051	3.49
431.407	3.46
431.764	3.46
432.12	3.47
432.476	3.46
432.832	3.47
433.189	3.46
433.545	3.48
433.901	3.49
434.257	3.5
434.613	3.49
434.969	3.49
435.325	3.5
435.681	3.48
436.036	3.49
436.392	3.5
436.748	3.51
437.104	3.52
437.459	3.51
437.815	3.49
438.171	3.5
438.526	3.47
438.882	3.49
439.237	3.49
439.593	3.49
439.948	3.49
440.304	3.48
440.659	3.49
441.014	3.48
441.369	3.48
441.725	3.48
442.08	3.48
442.435	3.48
442.79	3.47
443.145	3.49
443.5	3.49
443.855	3.49
444.21	3.48
444.565	3.5
444.92	3.52
445.275	3.54
445.629	3.54
445.984	3.56
446.339	3.57
446.693	3.56
447.048	3.56
447.403	3.57
447.757	3.57
448.112	3.56
448.466	3.56
448.82	3.57
449.175	3.57
449.529	3.57
449.883	3.57
450.238	3.58
450.592	3.58
450.946	3.59
451.3	3.59
451.654	3.58
452.008	3.55
452.362	3.52
452.716	3.52
453.07	3.51
453.424	3.5
453.778	3.5
454.132	3.47
454.486	3.48
454.839	3.48
455.193	3.48
455.547	3.49
455.9	3.5
456.254	3.5
456.607	3.51
456.961	3.51
457.314	3.5
457.668	3.51
458.021	3.51
458.375	3.52
458.728	3.51
459.081	3.52
459.434	3.54
459.787	3.56
460.141	3.55
460.494	3.55
460.847	3.55
461.2	3.54
461.553	3.57
461.906	3.57
462.259	3.58
462.611	3.59
462.964	3.59
463.317	3.58
463.67	3.58
464.022	3.6
464.375	3.6
464.728	3.59
465.08	3.57
465.433	3.57
465.785	3.57
466.138	3.58
466.49	3.6
466.843	3.59
467.195	3.6
467.547	3.6
467.899	3.61
468.252	3.62
468.604	3.63
468.956	3.63
469.308	3.61
469.66	3.6
470.012	3.6
470.364	3.6
470.716	3.59
471.068	3.6
471.42	3.62
471.772	3.62
472.123	3.64
472.475	3.65
472.827	3.65
473.178	3.66
473.53	3.65
473.882	3.65
474.233	3.65
474.585	3.63
474.936	3.63
475.288	3.63
475.639	3.63
475.99	3.6
476.342	3.62
476.693	3.63
477.044	3.64
477.395	3.64
477.746	3.64
478.097	3.65
478.448	3.63
478.8	3.61
479.15	3.6
479.501	3.61
479.852	3.62
480.203	3.64
480.554	3.64
480.905	3.65
481.255	3.65
481.606	3.66
481.957	3.66
482.307	3.67
482.658	3.68
483.009	3.68
483.359	3.69
483.709	3.69
484.06	3.69
484.41	3.69
484.761	3.69
485.111	3.7
485.461	3.7
485.811	3.71
486.162	3.72
486.512	3.74
486.862	3.73
487.212	3.74
487.562	3.74
487.912	3.74
488.262	3.73
488.612	3.74
488.961	3.73
489.311	3.73
489.661	3.72
490.011	3.72
490.36	3.72
490.71	3.73
491.06	3.73
491.409	3.72
491.759	3.72
492.108	3.73
492.458	3.72
492.807	3.71
493.157	3.7
493.506	3.7
493.855	3.68
494.204	3.68
494.554	3.65
494.903	3.66
495.252	3.65
495.601	3.65
495.95	3.64
496.299	3.64
496.648	3.66
496.997	3.66
497.346	3.65
497.695	3.66
498.043	3.65
498.392	3.65
498.741	3.65
499.09	3.67
499.438	3.67
499.787	3.68
500.135	3.69
500.484	3.72
500.832	3.71
501.181	3.75
501.529	3.79
501.878	3.79
502.226	3.79
502.574	3.8
502.923	3.79
503.271	3.8
503.619	3.81
503.967	3.82
504.315	3.82
504.663	3.82
505.011	3.82
505.359	3.8
505.707	3.82
506.055	3.84
506.403	3.83
506.751	3.83
507.098	3.83
507.446	3.84
507.794	3.83
508.141	3.84
508.489	3.85
508.837	3.82
509.184	3.83
509.531	3.84
509.879	3.85
510.226	3.85
510.574	3.87
510.921	3.86
511.268	3.88
511.616	3.88
511.963	3.9
512.31	3.9
512.657	3.93
513.004	3.9
513.351	3.9
513.698	3.9
514.045	3.89
514.392	3.88
514.739	3.89
515.086	3.9
515.432	3.89
515.779	3.87
516.126	3.91
516.473	3.91
516.819	3.9
517.166	3.89
517.512	3.91
517.859	3.92
518.205	3.92
518.552	3.9
518.898	3.89
519.245	3.9
519.591	3.9
519.937	3.9
520.283	3.94
520.629	3.94
520.976	3.92
521.322	3.94
521.668	3.95
522.014	3.94
522.36	3.93
522.706	3.94
523.052	3.94
523.398	3.93
523.743	3.93
524.089	3.94
524.435	3.95
524.781	3.96
525.126	3.96
525.472	3.96
525.817	3.97
526.163	3.97
526.509	3.99
526.854	3.99
527.199	3.99
527.545	3.98
527.89	3.97
528.235	3.99
528.581	3.99
528.926	3.99
529.271	3.99
529.616	4.01
529.961	4.03
530.306	4.03
530.651	4.02
530.996	4.02
531.341	4.03
531.686	4.03
532.031	4.03
532.376	4.02
532.721	4.03
533.065	4.03
533.41	4.03
533.755	4.04
534.099	4.03
534.444	4.02
534.788	4.01
535.133	4.01
535.477	4.02
535.822	4.02
536.166	4.01
536.51	4.01
536.855	4
537.199	3.97
537.543	3.97
537.887	3.98
538.231	3.98
538.576	3.98
538.92	3.99
539.264	3.99
539.608	3.99
539.951	4
540.295	4
540.639	4
540.983	3.99
541.327	4
541.671	4
542.014	4.02
542.358	4.03
542.701	4.03
543.045	4.03
543.389	4.02
543.732	4.03
544.075	4.03
544.419	4.03
544.762	4.02
545.105	4.02
545.449	4.01
545.792	4.03
546.135	4
546.478	3.99
546.821	4
547.165	4
547.508	4.02
547.851	4.02
548.194	4.01
548.536	4.01
548.879	4.03
549.222	4.01
549.565	4.02
549.908	4
550.25	4.01
550.593	4.02
550.936	4.02
551.278	4.04
551.621	4.05
551.963	4.08
552.306	4.08
552.648	4.08
552.991	4.07
553.333	4.1
553.675	4.11
554.017	4.1
554.36	4.09
554.702	4.07
555.044	4.05
555.386	4.05
555.728	4.07
556.07	4.04
556.412	4.04
556.754	4
557.096	4.02
557.438	4.02
557.78	4.02
558.121	4.01
558.463	4
558.805	4.01
559.147	3.98
559.488	3.97
559.83	4.01
560.171	3.99
560.513	3.99
560.854	3.98
561.196	4.01
561.537	4.03
561.878	4.04
562.22	4.08
562.561	4.11
562.902	4.08
563.243	4.11
563.584	4.11
563.925	4.14
564.266	4.16
564.607	4.17
564.948	4.19
565.289	4.22
565.63	4.2
565.971	4.22
566.312	4.21
566.653	4.19
566.993	4.18
567.334	4.19
567.675	4.2
568.015	4.19
568.356	4.19
568.696	4.2
569.037	4.2
569.377	4.17
569.718	4.16
570.058	4.15
570.398	4.11
570.739	4.13
571.079	4.14
571.419	4.13
571.759	4.11
572.099	4.11
572.439	4.08
572.779	4.08
573.119	4.09
573.459	4.09
573.799	4.1
574.139	4.11
574.479	4.08
574.819	4.07
575.158	4.08
575.498	4.1
575.838	4.06
576.177	4.06
576.517	4.07
576.856	4.05
577.196	4.07
577.535	4.08
577.875	4.06
578.214	4.05
578.553	4.02
578.893	4.06
579.232	4.03
579.571	4.06
579.91	4.06
580.25	4.03
580.589	4.05
580.928	4.05
581.267	4.05
581.606	4.09
581.945	4.1
582.283	4.11
582.622	4.07
582.961	4.09
583.3	4.04
583.639	4.05
583.977	4.05
584.316	4.06
584.654	4.1
584.993	4.09
585.332	4.13
585.67	4.18
586.008	4.12
586.347	4.14
586.685	4.12
587.024	4.15
587.362	4.15
587.7	4.16
588.038	4.18
588.376	4.14
588.715	4.1
589.053	4.12
589.391	4.12
589.729	4.14
590.067	4.15
590.404	4.18
590.742	4.19
591.08	4.2
591.418	4.2
591.756	4.19
592.093	4.18
592.431	4.17
592.769	4.17
593.106	4.19
593.444	4.19
593.781	4.23
594.119	4.21
594.456	4.18
594.793	4.17
595.131	4.18
595.468	4.24
595.805	4.24
596.143	4.21
596.48	4.21
596.817	4.19
597.154	4.21
597.491	4.25
597.828	4.24
598.165	4.23
598.502	4.22
598.839	4.24
599.176	4.28
599.512	4.23
599.849	4.24
600.186	4.23
600.523	4.22
600.859	4.18
601.196	4.18
601.532	4.21
601.869	4.26
602.205	4.23
602.542	4.19
602.878	4.19
603.215	4.21
603.551	4.21
603.887	4.21
604.223	4.15
604.56	4.14
604.896	4.12
605.232	4.16
605.568	4.17
605.904	4.14
606.24	4.14
606.576	4.17
606.912	4.14
607.248	4.16
607.583	4.18
607.919	4.19
608.255	4.19
608.591	4.18
608.926	4.17
609.262	4.19
609.597	4.23
609.933	4.25
610.268	4.29
610.604	4.24
610.939	4.24
611.275	4.3
611.61	4.29
611.945	4.29
612.281	4.27
612.616	4.25
612.951	4.26
613.286	4.23
613.621	4.25
613.956	4.26
614.291	4.25
614.626	4.24
614.961	4.24
615.296	4.26
615.631	4.26
615.966	4.22
616.3	4.22
616.635	4.2
616.97	4.2
617.304	4.18
617.639	4.29
617.973	4.29
618.308	4.29
618.642	4.27
618.977	4.3
619.311	4.28
619.646	4.33
619.98	4.37
620.314	4.35
620.648	4.32
620.983	4.33
621.317	4.32
621.651	4.32
621.985	4.33
622.319	4.31
622.653	4.33
622.987	4.34
623.321	4.36
623.655	4.35
623.988	4.35
624.322	4.37
624.656	4.34
624.99	4.35
625.323	4.37
625.657	4.41
625.99	4.38
626.324	4.39
626.657	4.35
626.991	4.33
627.324	4.36
627.658	4.38
627.991	4.4
628.324	4.39
628.657	4.41
628.991	4.44
629.324	4.46
629.657	4.46
629.99	4.41
630.323	4.41
630.656	4.42
630.989	4.41
631.322	4.4
631.655	4.4
631.987	4.44
632.32	4.41
632.653	4.42
632.986	4.45
633.318	4.49
633.651	4.54
633.984	4.58
634.316	4.61
634.649	4.59
634.981	4.61
635.313	4.65
635.646	4.63
635.978	4.65
636.31	4.65
636.643	4.67
636.975	4.75
637.307	4.74
637.639	4.72
637.971	4.71
638.303	4.7
638.635	4.69
638.967	4.68
639.299	4.76
639.631	4.77
639.963	4.77
640.295	4.77
640.626	4.74
640.958	4.69
641.29	4.63
641.621	4.61
641.953	4.52
642.285	4.57
642.616	4.57
642.948	4.51
643.279	4.49
643.61	4.45
643.942	4.45
644.273	4.47
644.604	4.5
644.936	4.52
645.267	4.54
645.598	4.55
645.929	4.5
646.26	4.4
646.591	4.4
646.922	4.43
647.253	4.38
647.584	4.39
647.915	4.47
648.245	4.5
648.576	4.53
648.907	4.57
649.238	4.51
649.568	4.5
649.899	4.51
650.229	4.55
650.56	4.55
650.89	4.53
651.221	4.52
651.551	4.58
651.882	4.61
652.212	4.58
652.542	4.64
652.872	4.62
653.203	4.66
653.533	4.63
653.863	4.56
654.193	4.61
654.523	4.57
654.853	4.52
655.183	4.57
655.513	4.65
655.843	4.63
656.172	4.69
656.502	4.68
656.832	4.74
657.162	4.67
657.491	4.71
657.821	4.69
658.15	4.68
658.48	4.65
658.809	4.64
659.139	4.64
659.468	4.61
659.798	4.69
660.127	4.67
660.456	4.71
660.785	4.78
661.115	4.77
661.444	4.82
661.773	4.83
662.102	4.81
662.431	4.77
662.76	4.81
663.089	4.82
663.418	4.86
663.747	4.83
664.076	4.91
664.404	4.89
664.733	4.93
665.062	4.94
665.39	4.91
665.719	4.93
666.048	4.89
666.376	4.89
666.705	4.81
667.033	4.86
667.362	4.81
667.69	4.8
668.018	4.81
668.347	4.82
668.675	4.88
669.003	4.83
669.331	4.87
669.659	4.82
669.987	4.76
670.315	4.76
670.643	4.74
670.971	4.75
671.299	4.72
671.627	4.75
671.955	4.74
672.283	4.77
672.61	4.68
672.938	4.8
673.266	4.74
673.593	4.74
673.921	4.72
674.249	4.75
674.576	4.73
674.904	4.68
675.231	4.64
675.558	4.6
675.886	4.68
676.213	4.68
676.54	4.67
676.867	4.66
677.195	4.74
677.522	4.74
677.849	4.79
678.176	4.81
678.503	4.75
678.83	4.78
679.157	4.83
679.484	4.97
679.81	4.94
680.137	5.09
680.464	5.11
680.791	5.09
681.117	5.18
681.444	5.2
681.771	5.29
682.097	5.3
682.424	5.25
682.75	5.21
683.077	5.15
683.403	5.22
683.729	5.3
684.056	5.23
684.382	5.29
684.708	5.2
685.034	5.22
685.36	5.24
685.686	5.27
686.012	5.23
686.339	5.14
686.664	5.1
686.99	4.92
687.316	4.88
687.642	4.98
687.968	4.93
688.294	4.9
688.619	4.9
688.945	4.85
689.271	4.97
689.596	4.92
689.922	4.89
690.247	4.99
690.573	4.89
690.898	4.91
691.224	4.8
691.549	4.87
691.874	4.87
692.2	4.89
692.525	4.9
692.85	4.95
693.175	4.93
693.5	4.92
693.825	5.03
694.15	5.05
694.475	4.94
694.8	4.85
695.125	4.82
695.45	4.64
695.775	4.71
696.099	4.78
696.424	4.84
696.749	4.97
697.073	4.79
697.398	4.81
697.723	4.79
698.047	4.86
698.372	4.94
698.696	4.92
699.02	4.91
699.345	4.77
699.669	4.72
699.993	4.78
700.318	4.77
700.642	4.75
700.966	4.83
701.29	4.87
701.614	4.91
701.938	5
702.262	5.11
702.586	5.13
702.91	5.02
703.234	4.99
703.557	4.96
703.881	5.04
704.205	5.04
704.529	5.04
704.852	5.11
705.176	4.98
705.499	5.03
705.823	5.17
706.146	5.35
706.47	5.32
706.793	5.32
707.117	5.31
707.44	5.27
707.763	5.21
708.086	5.24
708.409	5.19
708.733	5.09
709.056	5.1
709.379	5.1
709.702	5.1
710.025	5.23
710.348	5.18
710.671	5.23
710.993	5.31
711.316	5.32
711.639	5.29
711.962	5.36
712.284	5.33
712.607	5.16
712.93	5.14
713.252	5.23
713.575	5.29
713.897	5.27
714.22	5.29
714.542	5.34
714.864	5.24
715.187	5.37
715.509	5.33
715.831	5.32
716.153	5.23
716.475	5.25
716.798	5.16
717.12	5.2
717.442	5.21
717.764	5.2
718.085	5.18
718.407	5.06
718.729	5.09
719.051	5.23
719.373	5.35
719.695	5.31
720.016	5.23
720.338	5.21
720.659	5.36
720.981	5.42
721.302	5.51
721.624	5.57
721.945	5.59
722.267	5.77
722.588	5.81
722.909	5.88
723.231	6.02
723.552	6.12
723.873	6.04
724.194	6.11
724.515	6.15
724.836	6.18
725.157	6.46
725.478	6.4
725.799	6.33
726.12	6.21
726.441	6.33
726.762	6.32
727.083	6.16
727.403	6.15
727.724	6.12
728.045	5.97
728.365	5.97
728.686	5.98
729.006	5.88
729.327	5.87
729.647	5.88
729.967	5.8
730.288	5.81
730.608	5.97
730.928	5.96
731.249	6.02
731.569	6.13
731.889	5.93
732.209	5.96
732.529	5.94
732.849	6.22
733.169	6.24
733.489	6.22
733.809	6.3
734.129	6.27
734.448	6.41
734.768	6.35
735.088	6.38
735.408	6.28
735.727	6.42
736.047	6.48
736.366	6.4
736.686	6.33
737.005	6.1
737.325	5.91
737.644	5.74
737.963	5.5
738.283	5.36
738.602	5.33
738.921	5.31
739.24	5.08
739.56	5.06
739.879	4.92
740.198	5.01
740.517	5.03
740.836	5.11
741.155	4.97
741.473	4.95
741.792	4.98
742.111	5.03
742.43	5.07
742.748	5.16
743.067	5.29
743.386	5.26
743.704	5.64
744.023	5.75
744.341	5.94
744.66	6.01
744.978	6.03
745.297	5.96
745.615	6.01
745.933	6.28
746.252	6.03
746.57	6.22
746.888	6.21
747.206	6.24
747.524	6.3
747.842	6.25
748.16	6.5
748.478	6.31
748.796	6.3
749.114	6.07
749.432	5.71
749.749	5.62
750.067	5.74
750.385	5.51
750.703	5.63
751.02	5.35
751.338	5.41
751.655	5.36
751.973	5.48
752.29	5.38
752.608	5.12
752.925	5.19
753.242	5
753.56	5.13
753.877	5.2
754.194	5.19
754.511	5.13
754.828	5.18
755.145	5.05
755.462	5.02
755.779	5.12
756.096	5.52
756.413	5.78
756.73	5.69
757.047	5.7
757.364	5.78
757.68	5.94
757.997	6.02
758.314	6.2
758.63	6.25
758.947	6.35
759.264	6.45
759.58	6.57
759.896	6.51
760.213	6.32
760.529	6.29
760.846	6.28
761.162	6.32
761.478	6.39
761.794	6.7
762.11	6.89
762.426	6.87
762.743	6.68
763.059	6.8
763.375	6.86
763.69	6.83
764.006	7
764.322	7.17
764.638	7.27
764.954	7.36
765.27	7.42
765.585	7.49
765.901	7.44
766.216	7.32
766.532	7.47
766.848	7.53
767.163	7.51
767.478	7.51
767.794	7.69
768.109	7.62
768.424	7.76
768.74	7.39
769.055	7.51
769.37	7.42
769.685	7.21
770	7.18
770.315	7.28
770.63	7.11
770.945	7.1
771.26	6.54
771.575	5.95
771.89	5.7
772.205	5.36
772.52	5.69
772.834	5.76
773.149	5.78
773.464	5.75
773.778	5.47
774.093	5.57
774.407	5.38
774.722	5.18
775.036	5.01
775.351	5.44
775.665	5.48
775.979	5.77
776.293	5.82
776.608	6.2
776.922	6.2
777.236	5.95
777.55	5.8
777.864	6.53
778.178	6.93
778.492	7.44
778.806	7.88
779.12	7.75
779.434	7.8
779.747	7.58
780.061	7.54
780.375	7.65
780.689	7.49
781.002	7.46
781.316	7.37
781.629	7.47
781.943	7.41
782.256	7.27
782.57	7.23
782.883	7.1
783.196	6.94
783.51	7.03
783.823	7.13
784.136	6.92
784.449	6.71
784.762	7.22
785.075	6.95
785.388	6.98
785.701	6.75
786.014	6.78
786.327	7.19
786.64	7.37
786.953	7.91
787.266	7.84
787.578	8.11
787.891	8.54
788.204	8.52
788.516	8.8
788.829	8.85
789.141	8.98
789.454	8.71
789.766	8.31
790.079	8.03
790.391	7.65
790.703	7.86
791.016	7.74
791.328	7.58
791.64	7.5
791.952	7.19
792.264	7.66
792.576	7.81
792.888	7.54
793.2	7.11
793.512	6.91
793.824	7.48
794.136	7.33
794.448	7.29
794.76	7.26
795.071	6.76
795.383	6.82
795.695	6.8
796.006	7.39
796.318	7.58
796.629	8.04
796.941	8.32
797.252	8.12
797.564	8.18
797.875	8.01
798.186	8.41
798.497	8.79
798.809	8.55
799.12	8.17
799.431	8.15
799.742	8.79
800.053	8.92
800.364	8.58
800.675	9.06
800.986	9.43
801.297	9.3
801.608	9.18
801.918	9.21
802.229	9.7
802.54	9.98
802.851	10.29
803.161	10.01
803.472	9.73
803.782	10.46
804.093	10.47
804.403	10.84
804.714	10.78
805.024	10.48
805.334	10.38
805.645	10.35
805.955	10.67
806.265	10.39
806.575	10.42
806.885	10.45
807.195	10.24
807.505	9.44
807.815	10.01
808.125	9.87
808.435	9.58
808.745	9.06
809.055	8.42
809.365	7.89
809.674	8.28
809.984	8.64
810.294	8.1
810.603	8.39
810.913	7.94
811.222	7.84
811.532	8.21
811.841	8.88
812.151	8.73
812.46	8.7
812.769	8.93
813.079	9.07
813.388	8.59
813.697	7.91
814.006	7.87
814.315	7.59
814.624	8.53
814.933	8.79
815.242	8.78
815.551	9.26
815.86	9.51
816.169	8.67
816.478	7.87
816.786	7.73
817.095	7.89
817.404	8.07
817.712	8.17
818.021	8.15
818.33	7.55
818.638	7.8
818.947	7.6
819.255	7.4
819.563	6.94
819.872	6.98
820.18	7.52
820.488	7.98
820.796	8
821.105	8
821.413	8.13
821.721	8.3
822.029	8.25
822.337	8.26
822.645	8.61
822.953	8.73
823.26	8.75
823.568	8.73
823.876	8.64
824.184	8.74
824.491	8.7
824.799	8.79
825.107	8.86
825.414	8.91
825.722	8.87
826.029	9.07
826.337	9.28
826.644	9.3
826.951	9.23
827.259	9.25
827.566	9.12
827.873	9.09
828.18	9.02
828.488	8.99
828.795	9
829.102	8.61
829.409	8.62
829.716	8.73
830.023	8.8
830.329	9.07
830.636	8.65
830.943	8.66
831.25	8.6
831.557	8.59
831.863	8.8
832.17	9.56
832.476	9.61
832.783	9.76
833.089	9.77
833.396	9.68
833.702	9.65
834.009	9.97
834.315	10.01
834.621	9.98
834.928	10.34
835.234	10.89
835.54	11.32
835.846	11.58
836.152	11.83
836.458	11.69
836.764	11.9
837.07	12.33
837.376	12.55
837.682	12.29
837.988	12.2
838.293	12.54
838.599	11.94
838.905	12.1
839.211	11.83
839.516	11.42
839.822	12.15
840.127	12.39
840.433	12.72
840.738	12.6
841.044	13.47
841.349	12.32
841.654	11.32
841.959	11.71
842.265	12.14
842.57	11.6
842.875	11.32
843.18	10.31
843.485	10.27
843.79	9.55
844.095	10.31
844.4	10.29
844.705	9.17
845.01	10.08
845.315	9.38
845.619	11.2
845.924	11.14
846.229	10.36
846.533	10.04
846.838	8.38
847.142	8.98
847.447	6.86
847.751	8.53
848.056	9.17
848.36	8.74
848.664	7.79
848.969	7.41
849.273	7.58
849.577	8.66
849.881	7.71
850.185	7.56
850.489	7.68
850.794	9.73
851.097	10.92
851.401	9.41
851.705	9.44
852.009	6.77
852.313	6.67
852.617	7
852.92	6.03
853.224	6.97
853.528	8.11
853.831	9.87
854.135	9.22
854.438	9.85
854.742	10.17
855.045	9.39
855.349	9.77
855.652	10.15
855.955	10.32
856.259	10.25
856.562	10.51
856.865	10.41
857.168	10.36
857.471	9.81
857.774	9.87
858.077	10.56
858.38	10.68
858.683	11.82
858.986	12.3
859.289	13.89
859.592	15.13
859.894	12.77
860.197	11.54
860.5	11.87
860.802	11.28
861.105	9.42
861.407	9.77
861.71	7.18
862.012	6.69
862.315	5
862.617	5.1
862.919	5.74
863.222	8.2
863.524	8.45
863.826	9.35
864.128	8.47
864.43	8.57
864.732	9
865.034	8.41
865.336	5.82
865.638	5.08
865.94	6.47
866.242	6.33
866.544	9.04
866.846	8.95
867.147	9.94
867.449	11.55
867.751	12.46
868.052	14.65
868.354	17.21
868.655	17.89
868.957	17.71
869.258	17.61
869.56	15.93
869.861	13.7
870.162	11.61
870.463	13.49
870.765	15.35
871.066	15.03
871.367	15.16
871.668	16.71
871.969	17.01
872.27	15.56
872.571	16.53
872.872	11.62
873.173	10.26
873.473	8.03
873.774	7.27
874.075	7.2
874.376	7.61
874.676	9.3
874.977	10.12
875.277	12.64
875.578	12.65
875.878	12.84
876.179	13.69
876.479	14.41
876.78	13.78
877.08	11.69
877.38	12.03
877.68	12.53
877.981	12.55
878.281	12.77
878.581	12.09
