Data from MVZ_BU5182_Reflection_00002.txt Node
Date: Tue Nov 19 12:19:06 EST 2019
User: vgr7
Spectrometer: USB2G7710
Scans to average: 3
Trigger mode: 4
Integration Time (sec): 2.000000E-2
Electric dark correction enabled: true
Boxcar width: 10
XAxis mode: Wavelengths
Number of Pixels in Spectrum: 2048
>>>>>Begin Spectral Data<<<<<
177.721	39.59
178.105	1.13
178.488	-94.93
178.871	-226.19
179.254	-297.78
179.636	-81.92
180.019	-107.74
180.402	163.64
180.785	66.67
181.168	266.67
181.55	135.95
181.933	134.59
182.316	1.71
182.698	-20.42
183.081	-2.03
183.463	-9.17
183.846	-14.4
184.228	-8.15
184.611	-3.23
184.993	-0.47
185.376	-1.22
185.758	-6.46
186.14	-32.49
186.522	-42.41
186.904	-54.34
187.287	-49.79
187.669	-26.56
188.051	-17.66
188.433	-22.93
188.815	-38.69
189.197	-28.83
189.579	-26.11
189.961	-28.76
190.342	-51.35
190.724	-75.69
191.106	-107.68
191.488	-100.52
191.869	-74.1
192.251	-68.63
192.633	-66.13
193.014	-48.75
193.396	-43.19
193.777	-38.92
194.159	-38.11
194.54	-50.9
194.922	-51.04
195.303	-59.38
195.684	-55.45
196.065	-63.15
196.447	-48.13
196.828	-44.41
197.209	-42.96
197.59	-36.17
197.971	-36.6
198.352	-28.56
198.733	-23.19
199.114	-24.31
199.495	-22.37
199.876	-30.64
200.257	-43.43
200.638	-39.5
201.018	-54.9
201.399	-53.35
201.78	-61.71
202.16	-66.11
202.541	-72.3
202.922	-80.17
203.302	-82.79
203.683	-106.78
204.063	-98.01
204.444	-106.39
204.824	-93.22
205.204	-92.79
205.585	-94.93
205.965	-106.2
206.345	-97.26
206.725	-97.87
207.106	-73.81
207.486	-65.94
207.866	-60.56
208.246	-38.57
208.626	-42.99
209.006	-35.96
209.386	-48
209.766	-44.68
210.145	-40.69
210.525	-44.77
210.905	-35.56
211.285	-26.9
211.664	-15.93
212.044	-10.48
212.424	-0.55
212.803	-5.37
213.183	-12.53
213.562	7.51
213.942	6.04
214.321	-4.66
214.701	1.5
215.08	-18.9
215.459	-8.19
215.838	-15.76
216.218	-33.86
216.597	-23.08
216.976	-29.5
217.355	-16.83
217.734	-15.8
218.113	-8.41
218.492	-6.21
218.871	-4.11
219.25	-9.21
219.629	-13.63
220.008	-13.8
220.387	-22.33
220.766	-22.38
221.144	-11.34
221.523	-17.1
221.902	-10.81
222.28	-9.23
222.659	-1.12
223.037	4.14
223.416	2.23
223.794	7.09
224.173	5.68
224.551	5.59
224.929	6.26
225.308	6.48
225.686	1.07
226.064	-3.53
226.442	-0.59
226.821	-3.07
227.199	-2.1
227.577	-1.82
227.955	-1.51
228.333	-7.02
228.711	-2.86
229.089	-0.96
229.467	-1.95
229.845	-2.98
230.222	-1.28
230.6	-4.17
230.978	-3.77
231.356	-5.37
231.733	-5.66
232.111	-6.55
232.488	-8.65
232.866	-8.32
233.243	-8.7
233.621	-7.15
233.998	-5.38
234.376	-5.25
234.753	-6.45
235.13	-7.39
235.508	-5.62
235.885	-6.99
236.262	-4.26
236.639	-4.42
237.016	-4.72
237.393	-3.69
237.77	-1.44
238.147	-2.9
238.524	-2.95
238.901	-3.09
239.278	-2.89
239.655	-2.38
240.032	-1.1
240.409	-0.75
240.785	-0.43
241.162	-1.11
241.539	-0.55
241.915	-0.8
242.292	-0.6
242.668	0.02
243.045	1.12
243.421	1.24
243.798	1.6
244.174	1.96
244.551	1.96
244.927	1.74
245.303	1.58
245.679	1.01
246.056	1.47
246.432	1.62
246.808	1.89
247.184	2.23
247.56	2.13
247.936	2.01
248.312	2.47
248.688	2.3
249.064	2.34
249.44	2.28
249.815	2.43
250.191	2.53
250.567	2.57
250.943	2.4
251.318	2.18
251.694	2.02
252.069	2.05
252.445	1.85
252.82	2.1
253.196	2.07
253.571	2.26
253.947	2.27
254.322	2.3
254.697	2.44
255.073	2.34
255.448	2.59
255.823	2.39
256.198	1.8
256.573	1.98
256.948	2.24
257.323	2.08
257.698	1.95
258.073	1.87
258.448	1.96
258.823	1.62
259.198	1.52
259.573	1.55
259.948	1.38
260.322	1.49
260.697	1.35
261.072	1.41
261.446	1.53
261.821	1.45
262.195	1.36
262.57	1.23
262.944	1.14
263.319	0.98
263.693	0.96
264.067	1.16
264.442	1.17
264.816	0.93
265.19	0.83
265.564	0.71
265.938	0.56
266.313	0.39
266.687	0.45
267.061	0.56
267.435	0.59
267.809	0.65
268.183	0.67
268.556	0.85
268.93	1.03
269.304	0.95
269.678	1.01
270.051	0.99
270.425	0.95
270.799	0.81
271.172	0.89
271.546	0.96
271.919	0.9
272.293	0.89
272.666	1.06
273.04	1.17
273.413	1.27
273.787	1.34
274.16	1.19
274.533	1.38
274.906	1.46
275.279	1.41
275.653	1.44
276.026	1.27
276.399	1.19
276.772	1.08
277.145	1.12
277.518	1.23
277.891	1.35
278.263	1.43
278.636	1.73
279.009	1.81
279.382	1.8
279.755	1.88
280.127	1.91
280.5	1.82
280.872	1.85
281.245	1.8
281.617	1.84
281.99	2.06
282.362	2.03
282.735	2.16
283.107	2.08
283.479	2.02
283.852	2.2
284.224	2.2
284.596	2.15
284.968	2.12
285.34	1.98
285.713	1.99
286.085	1.86
286.457	1.79
286.829	1.81
287.201	1.87
287.572	1.97
287.944	2.01
288.316	1.94
288.688	1.93
289.06	2.12
289.431	2.16
289.803	2.1
290.175	2.09
290.546	2
290.918	2.03
291.289	2.12
291.661	2.08
292.032	2.03
292.403	1.91
292.775	2.04
293.146	2.09
293.517	2.03
293.889	2.15
294.26	2.22
294.631	2.28
295.002	2.22
295.373	2.01
295.744	1.87
296.115	1.92
296.486	2.05
296.857	1.9
297.228	1.89
297.599	1.94
297.97	2.07
298.34	2.06
298.711	2.15
299.082	2.19
299.452	2.26
299.823	2.26
300.194	2.41
300.564	2.31
300.935	2.33
301.305	2.32
301.676	2.18
302.046	2.07
302.416	1.92
302.787	1.88
303.157	2.05
303.527	2.24
303.897	2.36
304.267	2.27
304.637	2.35
305.008	2.31
305.378	2.2
305.748	2.01
306.117	2.12
306.487	2.05
306.857	2.12
307.227	2.18
307.597	2.16
307.967	2.01
308.336	1.91
308.706	2.05
309.076	2.22
309.445	2.36
309.815	2.47
310.184	2.39
310.554	2.43
310.923	2.33
311.293	2.15
311.662	2.13
312.031	2.13
312.401	2.08
312.77	2.12
313.139	2.09
313.508	2.12
313.877	2.07
314.246	2.06
314.616	1.98
314.985	1.76
315.353	1.8
315.722	1.98
316.091	1.99
316.46	1.79
316.829	1.74
317.198	1.57
317.567	1.58
317.935	1.64
318.304	1.89
318.672	1.85
319.041	1.89
319.41	1.9
319.778	2.01
320.147	2.18
320.515	2.18
320.883	2.16
321.252	2.14
321.62	2.19
321.988	2.15
322.357	2.3
322.725	2.39
323.093	2.31
323.461	2.35
323.829	2.55
324.197	2.41
324.565	2.45
324.933	2.57
325.301	2.39
325.669	2.45
326.037	2.34
326.405	2.43
326.772	2.47
327.14	2.4
327.508	2.28
327.875	2.12
328.243	2.01
328.61	1.94
328.978	1.88
329.346	1.75
329.713	1.77
330.08	1.78
330.448	1.78
330.815	1.78
331.182	1.68
331.55	1.69
331.917	1.81
332.284	1.73
332.651	1.74
333.018	1.79
333.385	1.85
333.752	1.74
334.119	1.75
334.486	1.75
334.853	1.74
335.22	1.73
335.587	1.68
335.954	1.73
336.32	1.76
336.687	1.89
337.054	1.86
337.42	1.91
337.787	1.68
338.153	1.77
338.52	1.87
338.886	1.94
339.253	1.81
339.619	1.91
339.986	1.99
340.352	2.04
340.718	2.02
341.084	2.03
341.451	2.06
341.817	2.07
342.183	1.97
342.549	2.05
342.915	2.01
343.281	2.02
343.647	2.09
344.013	2.23
344.379	2.25
344.745	2.31
345.11	2.26
345.476	2.29
345.842	2.19
346.208	2.15
346.573	2.07
346.939	2.08
347.304	2.1
347.67	1.94
348.035	1.93
348.401	2.06
348.766	1.93
349.132	2.02
349.497	2.02
349.862	2.12
350.228	2.06
350.593	2.12
350.958	2.28
351.323	2.12
351.688	1.99
352.053	1.94
352.418	1.92
352.783	1.94
353.148	2.01
353.513	2.09
353.878	2.05
354.243	2.1
354.608	2.08
354.972	2.09
355.337	2.14
355.702	2.13
356.066	2.06
356.431	2.1
356.795	2.14
357.16	2.14
357.524	2.13
357.889	2.13
358.253	2.17
358.618	2.12
358.982	2.22
359.346	2.27
359.71	2.23
360.075	2.26
360.439	2.34
360.803	2.33
361.167	2.29
361.531	2.37
361.895	2.38
362.259	2.46
362.623	2.41
362.987	2.4
363.351	2.38
363.714	2.42
364.078	2.46
364.442	2.34
364.806	2.37
365.169	2.38
365.533	2.38
365.896	2.36
366.26	2.35
366.623	2.33
366.987	2.32
367.35	2.49
367.714	2.46
368.077	2.47
368.44	2.44
368.803	2.41
369.167	2.34
369.53	2.31
369.893	2.27
370.256	2.21
370.619	2.21
370.982	2.19
371.345	2.13
371.708	2.09
372.071	2.06
372.434	2.06
372.797	2.1
373.159	2.15
373.522	2.1
373.885	2.12
374.247	2.11
374.61	2.16
374.973	2.04
375.335	2.08
375.698	2.02
376.06	2.06
376.423	2.09
376.785	2.12
377.147	2.15
377.51	2.18
377.872	2.24
378.234	2.28
378.596	2.37
378.958	2.4
379.321	2.39
379.683	2.45
380.045	2.45
380.407	2.42
380.769	2.41
381.13	2.38
381.492	2.37
381.854	2.4
382.216	2.45
382.578	2.48
382.939	2.45
383.301	2.44
383.663	2.42
384.024	2.42
384.386	2.44
384.747	2.45
385.109	2.44
385.47	2.47
385.832	2.47
386.193	2.41
386.554	2.4
386.916	2.43
387.277	2.42
387.638	2.4
387.999	2.4
388.36	2.38
388.721	2.42
389.082	2.45
389.443	2.5
389.804	2.5
390.165	2.53
390.526	2.55
390.887	2.58
391.248	2.61
391.609	2.65
391.969	2.66
392.33	2.65
392.691	2.63
393.051	2.59
393.412	2.58
393.772	2.62
394.133	2.62
394.493	2.61
394.854	2.62
395.214	2.64
395.574	2.65
395.935	2.64
396.295	2.66
396.655	2.61
397.015	2.59
397.376	2.57
397.736	2.54
398.096	2.55
398.456	2.56
398.816	2.52
399.176	2.47
399.535	2.42
399.895	2.45
400.255	2.47
400.615	2.49
400.975	2.48
401.334	2.47
401.694	2.46
402.054	2.44
402.413	2.45
402.773	2.45
403.132	2.45
403.492	2.49
403.851	2.48
404.211	2.5
404.57	2.47
404.929	2.49
405.288	2.54
405.648	2.54
406.007	2.51
406.366	2.53
406.725	2.56
407.084	2.6
407.443	2.59
407.802	2.58
408.161	2.58
408.52	2.63
408.879	2.61
409.238	2.66
409.596	2.68
409.955	2.66
410.314	2.67
410.673	2.68
411.031	2.67
411.39	2.66
411.748	2.7
412.107	2.72
412.465	2.7
412.824	2.66
413.182	2.65
413.54	2.69
413.899	2.7
414.257	2.72
414.615	2.72
414.974	2.71
415.332	2.7
415.69	2.69
416.048	2.69
416.406	2.7
416.764	2.67
417.122	2.67
417.48	2.68
417.838	2.68
418.195	2.64
418.553	2.63
418.911	2.66
419.269	2.67
419.626	2.67
419.984	2.66
420.342	2.67
420.699	2.66
421.057	2.66
421.414	2.64
421.772	2.64
422.129	2.63
422.486	2.64
422.844	2.65
423.201	2.64
423.558	2.63
423.915	2.65
424.273	2.65
424.63	2.66
424.987	2.67
425.344	2.68
425.701	2.7
426.058	2.72
426.415	2.69
426.772	2.66
427.128	2.66
427.485	2.68
427.842	2.68
428.199	2.69
428.555	2.67
428.912	2.67
429.269	2.66
429.625	2.65
429.982	2.64
430.338	2.66
430.695	2.65
431.051	2.68
431.407	2.64
431.764	2.68
432.12	2.68
432.476	2.69
432.832	2.67
433.189	2.69
433.545	2.68
433.901	2.7
434.257	2.7
434.613	2.7
434.969	2.68
435.325	2.69
435.681	2.67
436.036	2.71
436.392	2.72
436.748	2.73
437.104	2.76
437.459	2.75
437.815	2.75
438.171	2.78
438.526	2.78
438.882	2.81
439.237	2.79
439.593	2.8
439.948	2.8
440.304	2.81
440.659	2.8
441.014	2.81
441.369	2.82
441.725	2.84
442.08	2.84
442.435	2.84
442.79	2.83
443.145	2.82
443.5	2.8
443.855	2.79
444.21	2.78
444.565	2.76
444.92	2.77
445.275	2.76
445.629	2.75
445.984	2.74
446.339	2.72
446.693	2.73
447.048	2.72
447.403	2.72
447.757	2.7
448.112	2.7
448.466	2.7
448.82	2.68
449.175	2.68
449.529	2.67
449.883	2.66
450.238	2.68
450.592	2.7
450.946	2.7
451.3	2.72
451.654	2.71
452.008	2.72
452.362	2.71
452.716	2.7
453.07	2.7
453.424	2.7
453.778	2.72
454.132	2.68
454.486	2.69
454.839	2.68
455.193	2.71
455.547	2.71
455.9	2.72
456.254	2.75
456.607	2.75
456.961	2.74
457.314	2.77
457.668	2.77
458.021	2.77
458.375	2.78
458.728	2.79
459.081	2.81
459.434	2.82
459.787	2.82
460.141	2.83
460.494	2.84
460.847	2.84
461.2	2.84
461.553	2.86
461.906	2.87
462.259	2.87
462.611	2.85
462.964	2.86
463.317	2.86
463.67	2.86
464.022	2.87
464.375	2.88
464.728	2.88
465.08	2.87
465.433	2.88
465.785	2.89
466.138	2.89
466.49	2.88
466.843	2.88
467.195	2.91
467.547	2.89
467.899	2.88
468.252	2.89
468.604	2.89
468.956	2.9
469.308	2.89
469.66	2.9
470.012	2.9
470.364	2.91
470.716	2.91
471.068	2.89
471.42	2.91
471.772	2.92
472.123	2.91
472.475	2.91
472.827	2.88
473.178	2.88
473.53	2.87
473.882	2.88
474.233	2.86
474.585	2.86
474.936	2.88
475.288	2.88
475.639	2.88
475.99	2.87
476.342	2.86
476.693	2.87
477.044	2.85
477.395	2.85
477.746	2.84
478.097	2.84
478.448	2.86
478.8	2.85
479.15	2.85
479.501	2.86
479.852	2.86
480.203	2.9
480.554	2.92
480.905	2.94
481.255	2.94
481.606	2.95
481.957	2.95
482.307	2.93
482.658	2.95
483.009	2.95
483.359	2.95
483.709	2.97
484.06	2.97
484.41	2.97
484.761	2.99
485.111	3
485.461	3
485.811	2.99
486.162	3.01
486.512	3.01
486.862	3.02
487.212	3.03
487.562	3.02
487.912	3.02
488.262	3.01
488.612	3.01
488.961	3.01
489.311	3.01
489.661	3.03
490.011	3.01
490.36	3.02
490.71	3.03
491.06	3.02
491.409	3.02
491.759	3.02
492.108	3.02
492.458	3.02
492.807	3.03
493.157	3.03
493.506	3.02
493.855	3
494.204	2.99
494.554	2.98
494.903	2.97
495.252	2.97
495.601	2.98
495.95	2.99
496.299	2.99
496.648	2.99
496.997	2.99
497.346	3.02
497.695	3.01
498.043	3.01
498.392	3.02
498.741	3.03
499.09	3.05
499.438	3.03
499.787	3.03
500.135	3.02
500.484	3.03
500.832	3.01
501.181	3.02
501.529	3.03
501.878	3.05
502.226	3.06
502.574	3.07
502.923	3.06
503.271	3.06
503.619	3.08
503.967	3.06
504.315	3.06
504.663	3.04
505.011	3.03
505.359	3.03
505.707	3.02
506.055	3.01
506.403	2.99
506.751	3.02
507.098	3.02
507.446	3.02
507.794	3.05
508.141	3.07
508.489	3.08
508.837	3.08
509.184	3.08
509.531	3.08
509.879	3.07
510.226	3.08
510.574	3.07
510.921	3.05
511.268	3.07
511.616	3.07
511.963	3.07
512.31	3.1
512.657	3.1
513.004	3.11
513.351	3.12
513.698	3.12
514.045	3.11
514.392	3.12
514.739	3.13
515.086	3.11
515.432	3.11
515.779	3.12
516.126	3.15
516.473	3.16
516.819	3.16
517.166	3.17
517.512	3.16
517.859	3.18
518.205	3.18
518.552	3.17
518.898	3.17
519.245	3.18
519.591	3.17
519.937	3.18
520.283	3.19
520.629	3.19
520.976	3.19
521.322	3.21
521.668	3.2
522.014	3.18
522.36	3.18
522.706	3.18
523.052	3.19
523.398	3.16
523.743	3.18
524.089	3.18
524.435	3.17
524.781	3.19
525.126	3.17
525.472	3.18
525.817	3.19
526.163	3.2
526.509	3.21
526.854	3.2
527.199	3.21
527.545	3.21
527.89	3.22
528.235	3.23
528.581	3.23
528.926	3.24
529.271	3.25
529.616	3.24
529.961	3.25
530.306	3.25
530.651	3.25
530.996	3.24
531.341	3.24
531.686	3.25
532.031	3.26
532.376	3.27
532.721	3.28
533.065	3.29
533.41	3.29
533.755	3.28
534.099	3.29
534.444	3.29
534.788	3.29
535.133	3.27
535.477	3.26
535.822	3.26
536.166	3.27
536.51	3.26
536.855	3.29
537.199	3.28
537.543	3.29
537.887	3.3
538.231	3.32
538.576	3.32
538.92	3.34
539.264	3.34
539.608	3.33
539.951	3.33
540.295	3.33
540.639	3.33
540.983	3.33
541.327	3.34
541.671	3.35
542.014	3.36
542.358	3.38
542.701	3.38
543.045	3.39
543.389	3.38
543.732	3.38
544.075	3.35
544.419	3.35
544.762	3.35
545.105	3.37
545.449	3.36
545.792	3.37
546.135	3.36
546.478	3.35
546.821	3.38
547.165	3.38
547.508	3.38
547.851	3.39
548.194	3.39
548.536	3.39
548.879	3.38
549.222	3.33
549.565	3.3
549.908	3.29
550.25	3.26
550.593	3.28
550.936	3.29
551.278	3.3
551.621	3.3
551.963	3.29
552.306	3.28
552.648	3.24
552.991	3.22
553.333	3.19
553.675	3.21
554.017	3.18
554.36	3.19
554.702	3.18
555.044	3.16
555.386	3.16
555.728	3.14
556.07	3.16
556.412	3.19
556.754	3.18
557.096	3.18
557.438	3.16
557.78	3.16
558.121	3.16
558.463	3.17
558.805	3.17
559.147	3.19
559.488	3.2
559.83	3.27
560.171	3.26
560.513	3.3
560.854	3.27
561.196	3.29
561.537	3.29
561.878	3.3
562.22	3.32
562.561	3.37
562.902	3.37
563.243	3.36
563.584	3.38
563.925	3.43
564.266	3.44
564.607	3.48
564.948	3.47
565.289	3.47
565.63	3.42
565.971	3.43
566.312	3.38
566.653	3.39
566.993	3.36
567.334	3.37
567.675	3.38
568.015	3.41
568.356	3.42
568.696	3.42
569.037	3.41
569.377	3.4
569.718	3.4
570.058	3.39
570.398	3.38
570.739	3.38
571.079	3.36
571.419	3.38
571.759	3.37
572.099	3.39
572.439	3.38
572.779	3.4
573.119	3.4
573.459	3.43
573.799	3.41
574.139	3.4
574.479	3.43
574.819	3.44
575.158	3.43
575.498	3.38
575.838	3.36
576.177	3.35
576.517	3.41
576.856	3.34
577.196	3.38
577.535	3.39
577.875	3.35
578.214	3.35
578.553	3.32
578.893	3.35
579.232	3.35
579.571	3.37
579.91	3.41
580.25	3.45
580.589	3.44
580.928	3.45
581.267	3.44
581.606	3.42
581.945	3.41
582.283	3.38
582.622	3.41
582.961	3.44
583.3	3.46
583.639	3.44
583.977	3.47
584.316	3.43
584.654	3.42
584.993	3.46
585.332	3.48
585.67	3.48
586.008	3.47
586.347	3.5
586.685	3.44
587.024	3.4
587.362	3.37
587.7	3.39
588.038	3.43
588.376	3.45
588.715	3.44
589.053	3.42
589.391	3.45
589.729	3.49
590.067	3.53
590.404	3.56
590.742	3.54
591.08	3.57
591.418	3.56
591.756	3.59
592.093	3.57
592.431	3.56
592.769	3.57
593.106	3.56
593.444	3.59
593.781	3.68
594.119	3.7
594.456	3.72
594.793	3.69
595.131	3.67
595.468	3.65
595.805	3.66
596.143	3.72
596.48	3.7
596.817	3.68
597.154	3.63
597.491	3.56
597.828	3.58
598.165	3.58
598.502	3.61
598.839	3.61
599.176	3.64
599.512	3.6
599.849	3.61
600.186	3.57
600.523	3.56
600.859	3.51
601.196	3.51
601.532	3.51
601.869	3.52
602.205	3.5
602.542	3.52
602.878	3.5
603.215	3.48
603.551	3.45
603.887	3.43
604.223	3.44
604.56	3.55
604.896	3.57
605.232	3.55
605.568	3.54
605.904	3.54
606.24	3.55
606.576	3.54
606.912	3.54
607.248	3.6
607.583	3.58
607.919	3.56
608.255	3.56
608.591	3.56
608.926	3.57
609.262	3.59
609.597	3.57
609.933	3.59
610.268	3.62
610.604	3.65
610.939	3.66
611.275	3.66
611.61	3.6
611.945	3.5
612.281	3.54
612.616	3.55
612.951	3.57
613.286	3.55
613.621	3.56
613.956	3.55
614.291	3.53
614.626	3.5
614.961	3.58
615.296	3.62
615.631	3.61
615.966	3.6
616.3	3.56
616.635	3.6
616.97	3.57
617.304	3.48
617.639	3.48
617.973	3.46
618.308	3.49
618.642	3.44
618.977	3.45
619.311	3.48
619.646	3.51
619.98	3.47
620.314	3.46
620.648	3.46
620.983	3.47
621.317	3.43
621.651	3.41
621.985	3.4
622.319	3.32
622.653	3.34
622.987	3.35
623.321	3.42
623.655	3.43
623.988	3.47
624.322	3.52
624.656	3.52
624.99	3.52
625.323	3.48
625.657	3.5
625.99	3.54
626.324	3.55
626.657	3.5
626.991	3.49
627.324	3.49
627.658	3.49
627.991	3.51
628.324	3.49
628.657	3.51
628.991	3.49
629.324	3.54
629.657	3.49
629.99	3.48
630.323	3.47
630.656	3.39
630.989	3.38
631.322	3.36
631.655	3.37
631.987	3.44
632.32	3.45
632.653	3.47
632.986	3.45
633.318	3.37
633.651	3.47
633.984	3.51
634.316	3.54
634.649	3.57
634.981	3.56
635.313	3.67
635.646	3.71
635.978	3.72
636.31	3.65
636.643	3.66
636.975	3.7
637.307	3.68
637.639	3.82
637.971	3.81
638.303	3.87
638.635	3.87
638.967	3.83
639.299	3.81
639.631	3.77
639.963	3.78
640.295	3.8
640.626	3.74
640.958	3.69
641.29	3.71
641.621	3.71
641.953	3.66
642.285	3.59
642.616	3.58
642.948	3.67
643.279	3.72
643.61	3.74
643.942	3.75
644.273	3.75
644.604	3.68
644.936	3.7
645.267	3.72
645.598	3.69
645.929	3.68
646.26	3.73
646.591	3.82
646.922	3.87
647.253	3.8
647.584	3.76
647.915	3.76
648.245	3.72
648.576	3.69
648.907	3.72
649.238	3.71
649.568	3.68
649.899	3.61
650.229	3.56
650.56	3.6
650.89	3.62
651.221	3.61
651.551	3.61
651.882	3.6
652.212	3.51
652.542	3.57
652.872	3.5
653.203	3.55
653.533	3.52
653.863	3.47
654.193	3.51
654.523	3.56
654.853	3.6
655.183	3.62
655.513	3.6
655.843	3.62
656.172	3.67
656.502	3.68
656.832	3.65
657.162	3.72
657.491	3.75
657.821	3.69
658.15	3.69
658.48	3.71
658.809	3.66
659.139	3.72
659.468	3.69
659.798	3.76
660.127	3.7
660.456	3.67
660.785	3.67
661.115	3.72
661.444	3.74
661.773	3.7
662.102	3.7
662.431	3.83
662.76	3.84
663.089	3.84
663.418	3.93
663.747	3.95
664.076	3.93
664.404	3.91
664.733	3.91
665.062	3.98
665.39	3.92
665.719	4.01
666.048	4
666.376	4.02
666.705	4.03
667.033	4.14
667.362	4.1
667.69	4.13
668.018	4.06
668.347	4
668.675	4.01
669.003	3.94
669.331	3.86
669.659	3.91
669.987	3.85
670.315	3.76
670.643	3.66
670.971	3.68
671.299	3.62
671.627	3.68
671.955	3.58
672.283	3.59
672.61	3.58
672.938	3.62
673.266	3.69
673.593	3.62
673.921	3.51
674.249	3.51
674.576	3.62
674.904	3.7
675.231	3.74
675.558	3.76
675.886	3.77
676.213	3.74
676.54	3.69
676.867	3.63
677.195	3.62
677.522	3.73
677.849	3.73
678.176	3.75
678.503	3.86
678.83	3.91
679.157	3.91
679.484	3.88
679.81	3.86
680.137	3.82
680.464	3.81
680.791	3.88
681.117	3.98
681.444	3.94
681.771	3.96
682.097	3.94
682.424	3.99
682.75	4.09
683.077	4.11
683.403	4.15
683.729	4.25
684.056	4.31
684.382	4.27
684.708	4.32
685.034	4.38
685.36	4.25
685.686	4.24
686.012	4.3
686.339	4.25
686.664	4.33
686.99	4.2
687.316	4.21
687.642	4.21
687.968	4.15
688.294	4.15
688.619	4.05
688.945	4.12
689.271	4.11
689.596	4
689.922	3.96
690.247	3.9
690.573	3.93
690.898	3.99
691.224	4.05
691.549	3.98
691.874	3.93
692.2	3.95
692.525	3.92
692.85	3.93
693.175	4.04
693.5	3.9
693.825	4.03
694.15	3.87
694.475	3.84
694.8	3.9
695.125	3.86
695.45	3.82
695.775	3.69
696.099	3.73
696.424	3.87
696.749	3.96
697.073	4.03
697.398	4.01
697.723	3.99
698.047	3.93
698.372	3.91
698.696	3.93
699.02	3.93
699.345	3.99
699.669	4.04
699.993	4.05
700.318	4.14
700.642	4.14
700.966	4.37
701.29	4.38
701.614	4.42
701.938	4.39
702.262	4.53
702.586	4.69
702.91	4.64
703.234	4.45
703.557	4.32
703.881	4.35
704.205	4.43
704.529	4.32
704.852	4.34
705.176	4.51
705.499	4.41
705.823	4.46
706.146	4.46
706.47	4.35
706.793	4.33
707.117	4.21
707.44	4.31
707.763	4.24
708.086	4.19
708.409	3.99
708.733	4.09
709.056	3.96
709.379	4.05
709.702	4.05
710.025	4.22
710.348	4.34
710.671	4.34
710.993	4.25
711.316	4.42
711.639	4.32
711.962	4.25
712.284	4.36
712.607	4.44
712.93	4.36
713.252	4.37
713.575	4.37
713.897	4.32
714.22	4.18
714.542	4.29
714.864	4.28
715.187	4.22
715.509	4.29
715.831	4.49
716.153	4.21
716.475	4.2
716.798	4.16
717.12	4.15
717.442	4.04
717.764	4.01
718.085	4.01
718.407	4.17
718.729	4.21
719.051	4.14
719.373	4.07
719.695	4.08
720.016	4.04
720.338	4.06
720.659	4.04
720.981	4.25
721.302	4.21
721.624	4.29
721.945	4.37
722.267	4.27
722.588	4.1
722.909	4.09
723.231	4.07
723.552	4.06
723.873	3.92
724.194	3.96
724.515	4.06
724.836	3.86
725.157	3.9
725.478	3.81
725.799	3.83
726.12	3.76
726.441	3.69
726.762	3.86
727.083	3.92
727.403	4.12
727.724	4.15
728.045	4.11
728.365	3.82
728.686	3.97
729.006	4.1
729.327	4.3
729.647	4.52
729.967	4.52
730.288	4.55
730.608	4.69
730.928	4.79
731.249	4.78
731.569	4.78
731.889	4.64
732.209	4.73
732.529	4.66
732.849	4.79
733.169	4.95
733.489	4.67
733.809	4.59
734.129	4.51
734.448	4.4
734.768	4.4
735.088	4.77
735.408	4.63
735.727	4.38
736.047	4.32
736.366	4.12
736.686	4.09
737.005	4.14
737.325	4.09
737.644	4.06
737.963	4.06
738.283	4.13
738.602	4.28
738.921	4.33
739.24	4.45
739.56	4.45
739.879	4.44
740.198	4.71
740.517	4.72
740.836	4.6
741.155	4.66
741.473	4.6
741.792	4.51
742.111	4.74
742.43	4.86
742.748	4.76
743.067	4.95
743.386	4.94
743.704	4.9
744.023	5.08
744.341	4.88
744.66	4.64
744.978	4.6
745.297	4.44
745.615	4.1
745.933	4.11
746.252	4.06
746.57	4.04
746.888	4.02
747.206	3.9
747.524	4.01
747.842	3.74
748.16	3.95
748.478	3.99
748.796	4.09
749.114	3.94
749.432	4.08
749.749	4.22
750.067	4.23
750.385	4.4
750.703	4.27
751.02	4.61
751.338	4.78
751.655	5.04
751.973	5.24
752.29	5.45
752.608	5.34
752.925	5.35
753.242	5.35
753.56	5.31
753.877	5.27
754.194	5.49
754.511	5.7
754.828	5.38
755.145	5.18
755.462	5.09
755.779	5.38
756.096	5.26
756.413	5.21
756.73	5.37
757.047	5.19
757.364	5.08
757.68	4.94
757.997	5.08
758.314	4.9
758.63	5.09
758.947	5.32
759.264	5.46
759.58	5.25
759.896	5.35
760.213	5.56
760.529	5.63
760.846	5.44
761.162	5.37
761.478	5.5
761.794	5.92
762.11	5.85
762.426	5.81
762.743	5.74
763.059	5.77
763.375	5.74
763.69	5.55
764.006	5.77
764.322	5.69
764.638	5.81
764.954	5.82
765.27	5.62
765.585	5.59
765.901	5.51
766.216	5.7
766.532	5.54
766.848	5.4
767.163	5.25
767.478	5.26
767.794	5.33
768.109	5.23
768.424	4.81
768.74	4.79
769.055	4.65
769.37	4.53
769.685	4.4
770	4.29
770.315	4.61
770.63	4.36
770.945	4.39
771.26	3.9
771.575	3.91
771.89	4.08
772.205	3.68
772.52	3.72
772.834	3.77
773.149	3.97
773.464	3.84
773.778	4.04
774.093	4.37
774.407	3.99
774.722	4.19
775.036	4.23
775.351	4.09
775.665	4.12
775.979	4.32
776.293	4.83
776.608	4.76
776.922	4.58
777.236	4.17
777.55	4.12
777.864	3.9
778.178	3.63
778.492	3.14
778.806	3.29
779.12	3.4
779.434	2.91
779.747	3.03
780.061	3.48
780.375	3.83
780.689	3.44
781.002	3.59
781.316	3.67
781.629	4
781.943	4.03
782.256	4.21
782.57	4.33
782.883	3.7
783.196	3.81
783.51	4.14
783.823	4.91
784.136	4.57
784.449	4.87
784.762	5.59
785.075	6.19
785.388	6.37
785.701	6.4
786.014	6.71
786.327	6.71
786.64	6.43
786.953	6.52
787.266	6.64
787.578	7.24
787.891	7.34
788.204	7.22
788.516	7.32
788.829	7.22
789.141	6.78
789.454	6.83
789.766	7
790.079	6.57
790.391	6.51
790.703	6.73
791.016	7
791.328	6.75
791.64	6.85
791.952	6.97
792.264	7.15
792.576	7.1
792.888	7.09
793.2	6.52
793.512	6.22
793.824	6.54
794.136	6.42
794.448	6.36
794.76	6.51
795.071	6.67
795.383	7.05
795.695	7.43
796.006	7.19
796.318	7.38
796.629	7.79
796.941	7.75
797.252	7.8
797.564	8.31
797.875	8.01
798.186	7.91
798.497	8.25
798.809	7.88
799.12	7.88
799.431	7.68
799.742	8.51
800.053	8.37
800.364	7.65
800.675	7.47
800.986	7.57
801.297	7.41
801.608	6.88
801.918	6.46
802.229	5.84
802.54	6.14
802.851	6.11
803.161	6.1
803.472	5.71
803.782	5.88
804.093	5.39
804.403	5.83
804.714	5.1
805.024	4.49
805.334	4.19
805.645	4.66
805.955	4.98
806.265	4.84
806.575	5.39
806.885	5.67
807.195	5.9
807.505	5.56
807.815	5.16
808.125	5.2
808.435	5.19
808.745	5.54
809.055	5.6
809.365	5.36
809.674	5.16
809.984	5.27
810.294	5.01
810.603	4.8
810.913	4.08
811.222	4.29
811.532	4.32
811.841	5.04
812.151	4.53
812.46	4.37
812.769	4.2
813.079	4.18
813.388	4.31
813.697	2.86
814.006	2.98
814.315	3.57
814.624	3.75
814.933	3.5
815.242	3.75
815.551	3.88
815.86	3.76
816.169	3.56
816.478	3.49
816.786	3.89
817.095	4.24
817.404	4.26
817.712	4.79
818.021	5.11
818.33	4.62
818.638	5.25
818.947	5.42
819.255	5.8
819.563	6.11
819.872	6.31
820.18	6.78
820.488	6.89
820.796	6.83
821.105	7.09
821.413	7.09
821.721	7.09
822.029	7.17
822.337	7.55
822.645	7.79
822.953	7.92
823.26	7.89
823.568	7.74
823.876	7.82
824.184	7.76
824.491	7.77
824.799	7.9
825.107	7.8
825.414	7.76
825.722	7.71
826.029	7.73
826.337	7.68
826.644	7.78
826.951	7.76
827.259	7.76
827.566	7.78
827.873	7.93
828.18	8.04
828.488	7.89
828.795	7.66
829.102	7.24
829.409	6.93
829.716	7.2
830.023	7.47
830.329	7.46
830.636	7.43
830.943	7.14
831.25	7.15
831.557	7.04
831.863	7.06
832.17	7.08
832.476	6.6
832.783	6.9
833.089	7.16
833.396	7.61
833.702	7.49
834.009	7.6
834.315	7.51
834.621	7.93
834.928	8.11
835.234	7.6
835.54	7.9
835.846	8.15
836.152	7.64
836.458	7.39
836.764	7.38
837.07	7.39
837.376	7.63
837.682	7.65
837.988	7.51
838.293	7.43
838.599	7.49
838.905	7.8
839.211	7.41
839.516	6.59
839.822	6.46
840.127	6.52
840.433	5.69
840.738	5.4
841.044	4.64
841.349	4.73
841.654	4.18
841.959	4.25
842.265	5.1
842.57	4.87
842.875	4.85
843.18	4.47
843.485	4.73
843.79	3.99
844.095	3.57
844.4	4.37
844.705	5.81
845.01	5.82
845.315	4.34
845.619	5.1
845.924	5.09
846.229	3.39
846.533	3.68
846.838	5.1
847.142	5.46
847.447	5.75
847.751	3.77
848.056	5.1
848.36	4.55
848.664	1.93
848.969	3.7
849.273	1.84
849.577	2.3
849.881	2.17
850.185	2.77
850.489	1.47
850.794	2.38
851.097	0.44
851.401	-1.26
851.705	-0.1
852.009	-0.89
852.313	-1.73
852.617	-2.52
852.92	-0.52
853.224	-2.26
853.528	-2.87
853.831	-3.2
854.135	-1.01
854.438	-0.43
854.742	0.95
855.045	1.66
855.349	-2.26
855.652	0.35
855.955	1.67
856.259	1.72
856.562	1.3
856.865	1.49
857.168	0.27
857.471	1.1
857.774	1.67
858.077	1.4
858.38	0.31
858.683	2.97
858.986	3.84
859.289	1.08
859.592	3.11
859.894	1.72
860.197	0.85
860.5	-0.16
860.802	0.1
861.105	-2.64
861.407	-3.09
861.71	-2.34
862.012	-3.9
862.315	-4.35
862.617	-5.58
862.919	-3.4
863.222	-1.46
863.524	-1.58
863.826	-4.15
864.128	-3.53
864.43	-1.96
864.732	-1.94
865.034	-2.68
865.336	-2.4
865.638	-1.25
865.94	-1.15
866.242	-0.03
866.544	2.17
866.846	5.23
867.147	4.32
867.449	5.72
867.751	7.18
868.052	7.01
868.354	8.88
868.655	8.33
868.957	7.24
869.258	5.69
869.56	4.24
869.861	4.22
870.162	3.91
870.463	2.56
870.765	4.06
871.066	6.17
871.367	6.21
871.668	6.45
871.969	3.74
872.27	3.19
872.571	4.1
872.872	1.8
873.173	-1.03
873.473	-1.69
873.774	0.95
874.075	1.98
874.376	1.77
874.676	2.11
874.977	3.41
875.277	4.03
875.578	4.84
875.878	5.58
876.179	4.95
876.479	6.49
876.78	8.75
877.08	6.18
877.38	4.56
877.68	4.55
877.981	4.24
878.281	8.59
878.581	6.64
