Data from MVZ_BU88648_Reflection_00003.txt Node
Date: Tue Nov 19 12:01:56 EST 2019
User: vgr7
Spectrometer: USB2G7710
Scans to average: 3
Trigger mode: 4
Integration Time (sec): 2.000000E-2
Electric dark correction enabled: true
Boxcar width: 10
XAxis mode: Wavelengths
Number of Pixels in Spectrum: 2048
>>>>>Begin Spectral Data<<<<<
177.721	107.35
178.105	106.02
178.488	-16.58
178.871	-215.38
179.254	9.62
179.636	127.03
180.019	-15.65
180.402	262.5
180.785	22.09
181.168	45.8
181.55	68.75
181.933	133.65
182.316	-199.11
182.698	-20.13
183.081	4.05
183.463	17.2
183.846	32.97
184.228	48.43
184.611	77.27
184.993	38.83
185.376	76.22
185.758	34.38
186.14	0.63
186.522	14.3
186.904	48.58
187.287	45.03
187.669	34.35
188.051	39.71
188.433	21.28
188.815	12.92
189.197	15.2
189.579	21.61
189.961	27.96
190.342	42.6
190.724	4.92
191.106	8.29
191.488	2.6
191.869	-0.09
192.251	-22.35
192.633	-22.04
193.014	-34.4
193.396	-30.85
193.777	-38.82
194.159	-13.82
194.54	5.53
194.922	-39.93
195.303	-11.17
195.684	-60.27
196.065	-45.89
196.447	-8.43
196.828	12.19
197.209	-16.56
197.59	-36.32
197.971	-6.75
198.352	-22.05
198.733	2.88
199.114	-34.58
199.495	-76.62
199.876	-107.48
200.257	-115.76
200.638	-60.94
201.018	-34.02
201.399	-35.22
201.78	-21.29
202.16	-12.87
202.541	-19.17
202.922	-26
203.302	-51.1
203.683	-25.94
204.063	-26.88
204.444	-30.42
204.824	-35.71
205.204	-32.22
205.585	-35.36
205.965	-55.1
206.345	-47.43
206.725	-43.49
207.106	-29.16
207.486	-17.04
207.866	-31.32
208.246	-16.85
208.626	-18.67
209.006	-22.85
209.386	-16.13
209.766	-20.47
210.145	-29.28
210.525	-36.21
210.905	-23.31
211.285	-7.25
211.664	-12.68
212.044	-9.78
212.424	-14.16
212.803	-7.24
213.183	-7.97
213.562	4.81
213.942	9.9
214.321	5.11
214.701	4.28
215.08	15.1
215.459	30.38
215.838	36.42
216.218	23.09
216.597	18.99
216.976	10.19
217.355	-3.95
217.734	-10.44
218.113	2.33
218.492	10.11
218.871	16.61
219.25	21.71
219.629	21.52
220.008	20.97
220.387	32.9
220.766	26.18
221.144	26.75
221.523	21.33
221.902	10.44
222.28	9.91
222.659	4.43
223.037	-5.78
223.416	-17.92
223.794	-13.1
224.173	-6.22
224.551	5.39
224.929	15.15
225.308	18.7
225.686	19.12
226.064	1.64
226.442	0.79
226.821	-1.12
227.199	-14.43
227.577	-8.73
227.955	-3.94
228.333	-5.38
228.711	-6.51
229.089	-5.6
229.467	-4.55
229.845	-4.56
230.222	1.36
230.6	0.95
230.978	2.56
231.356	0.39
231.733	1.08
232.111	3.13
232.488	3.34
232.866	4.36
233.243	5.43
233.621	5.35
233.998	6.51
234.376	9.04
234.753	6.28
235.13	8.83
235.508	8.14
235.885	9.13
236.262	7.34
236.639	8.71
237.016	8.79
237.393	9.12
237.77	9.49
238.147	6.93
238.524	6.75
238.901	5.89
239.278	6.23
239.655	6.03
240.032	5.08
240.409	4.09
240.785	3.82
241.162	3.71
241.539	3.6
241.915	3.97
242.292	3.16
242.668	4.3
243.045	4.59
243.421	4.73
243.798	4.13
244.174	4.58
244.551	4.24
244.927	4.04
245.303	3.73
245.679	3.85
246.056	4.09
246.432	4.22
246.808	4.33
247.184	4.3
247.56	3.95
247.936	4.05
248.312	4.13
248.688	4.04
249.064	3.99
249.44	4.11
249.815	4.14
250.191	4.28
250.567	4.06
250.943	4.11
251.318	3.74
251.694	3.7
252.069	3.75
252.445	4.09
252.82	4.34
253.196	4.5
253.571	4.44
253.947	4.55
254.322	4.88
254.697	4.64
255.073	4.57
255.448	4.79
255.823	4.7
256.198	4.41
256.573	4.31
256.948	4.31
257.323	4.15
257.698	4.14
258.073	3.95
258.448	3.91
258.823	3.82
259.198	4.15
259.573	4.25
259.948	4.21
260.322	3.91
260.697	4
261.072	3.97
261.446	3.87
261.821	3.58
262.195	3.23
262.57	3.41
262.944	3.44
263.319	3.45
263.693	3.39
264.067	3.6
264.442	3.81
264.816	3.86
265.19	3.97
265.564	3.66
265.938	3.87
266.313	3.78
266.687	3.66
267.061	3.29
267.435	3.31
267.809	3.35
268.183	3.38
268.556	3.17
268.93	3.34
269.304	3.21
269.678	3.43
270.051	3.67
270.425	3.59
270.799	3.54
271.172	3.44
271.546	3.63
271.919	3.49
272.293	3.52
272.666	3.54
273.04	3.55
273.413	3.71
273.787	3.55
274.16	3.51
274.533	3.75
274.906	3.83
275.279	3.78
275.653	3.62
276.026	3.71
276.399	3.66
276.772	3.51
277.145	3.66
277.518	3.57
277.891	3.53
278.263	3.62
278.636	3.72
279.009	3.81
279.382	3.49
279.755	3.6
280.127	3.46
280.5	3.42
280.872	3.36
281.245	3.34
281.617	3.56
281.99	3.57
282.362	3.46
282.735	3.38
283.107	3.3
283.479	3.37
283.852	3.4
284.224	3.44
284.596	3.58
284.968	3.45
285.34	3.52
285.713	3.64
286.085	3.38
286.457	3.2
286.829	3.09
287.201	3.17
287.572	3.11
287.944	3.1
288.316	3.06
288.688	3.06
289.06	3.1
289.431	2.89
289.803	2.99
290.175	2.9
290.546	2.93
290.918	3.06
291.289	2.93
291.661	2.91
292.032	2.93
292.403	2.71
292.775	2.85
293.146	2.89
293.517	2.75
293.889	2.86
294.26	2.94
294.631	3.22
295.002	3.35
295.373	3.46
295.744	3.49
296.115	3.51
296.486	3.64
296.857	3.72
297.228	3.65
297.599	3.68
297.97	3.82
298.34	3.91
298.711	3.79
299.082	3.87
299.452	3.75
299.823	3.76
300.194	3.91
300.564	3.88
300.935	3.85
301.305	3.92
301.676	3.95
302.046	3.94
302.416	3.83
302.787	3.79
303.157	3.81
303.527	3.92
303.897	3.88
304.267	3.73
304.637	3.63
305.008	3.69
305.378	3.73
305.748	3.71
306.117	3.67
306.487	3.68
306.857	3.77
307.227	3.88
307.597	3.74
307.967	3.64
308.336	3.68
308.706	3.61
309.076	3.68
309.445	3.78
309.815	3.81
310.184	3.78
310.554	3.74
310.923	3.7
311.293	3.57
311.662	3.63
312.031	3.63
312.401	3.64
312.77	3.66
313.139	3.57
313.508	3.6
313.877	3.59
314.246	3.53
314.616	3.51
314.985	3.48
315.353	3.56
315.722	3.65
316.091	3.65
316.46	3.67
316.829	3.53
317.198	3.58
317.567	3.67
317.935	3.63
318.304	3.74
318.672	3.81
319.041	3.79
319.41	3.7
319.778	3.72
320.147	3.86
320.515	3.94
320.883	3.9
321.252	3.81
321.62	3.78
321.988	3.72
322.357	3.62
322.725	3.65
323.093	3.49
323.461	3.36
323.829	3.43
324.197	3.47
324.565	3.48
324.933	3.35
325.301	3.08
325.669	3.1
326.037	3.19
326.405	3.16
326.772	3.26
327.14	3.24
327.508	3.24
327.875	3.13
328.243	3.04
328.61	3
328.978	2.86
329.346	2.91
329.713	3.09
330.08	3.22
330.448	3.23
330.815	3.35
331.182	3.35
331.55	3.31
331.917	3.4
332.284	3.29
332.651	3.39
333.018	3.51
333.385	3.63
333.752	3.31
334.119	3.3
334.486	3.32
334.853	3.24
335.22	3.29
335.587	3.21
335.954	3.15
336.32	3.29
336.687	3.41
337.054	3.34
337.42	3.33
337.787	3.3
338.153	3.32
338.52	3.41
338.886	3.5
339.253	3.43
339.619	3.42
339.986	3.46
340.352	3.35
340.718	3.31
341.084	3.27
341.451	3.31
341.817	3.3
342.183	3.13
342.549	3.26
342.915	3.2
343.281	3.19
343.647	3.31
344.013	3.19
344.379	3.19
344.745	3.23
345.11	3.13
345.476	3.13
345.842	3.02
346.208	2.96
346.573	2.88
346.939	2.91
347.304	2.9
347.67	2.9
348.035	2.9
348.401	2.95
348.766	2.85
349.132	2.95
349.497	3.03
349.862	3.09
350.228	3.14
350.593	3.17
350.958	3.28
351.323	3.24
351.688	3.29
352.053	3.29
352.418	3.3
352.783	3.37
353.148	3.43
353.513	3.49
353.878	3.4
354.243	3.39
354.608	3.44
354.972	3.37
355.337	3.32
355.702	3.31
356.066	3.41
356.431	3.39
356.795	3.34
357.16	3.34
357.524	3.42
357.889	3.41
358.253	3.37
358.618	3.32
358.982	3.32
359.346	3.33
359.71	3.33
360.075	3.39
360.439	3.33
360.803	3.3
361.167	3.33
361.531	3.42
361.895	3.48
362.259	3.46
362.623	3.44
362.987	3.48
363.351	3.49
363.714	3.36
364.078	3.43
364.442	3.43
364.806	3.37
365.169	3.35
365.533	3.27
365.896	3.34
366.26	3.43
366.623	3.41
366.987	3.4
367.35	3.39
367.714	3.37
368.077	3.43
368.44	3.41
368.803	3.36
369.167	3.36
369.53	3.34
369.893	3.35
370.256	3.39
370.619	3.42
370.982	3.37
371.345	3.45
371.708	3.52
372.071	3.51
372.434	3.5
372.797	3.51
373.159	3.5
373.522	3.47
373.885	3.45
374.247	3.45
374.61	3.47
374.973	3.45
375.335	3.4
375.698	3.41
376.06	3.45
376.423	3.43
376.785	3.4
377.147	3.46
377.51	3.45
377.872	3.47
378.234	3.51
378.596	3.59
378.958	3.63
379.321	3.57
379.683	3.66
380.045	3.72
380.407	3.7
380.769	3.74
381.13	3.73
381.492	3.67
381.854	3.72
382.216	3.74
382.578	3.74
382.939	3.79
383.301	3.77
383.663	3.76
384.024	3.8
384.386	3.78
384.747	3.73
385.109	3.72
385.47	3.75
385.832	3.73
386.193	3.69
386.554	3.64
386.916	3.67
387.277	3.61
387.638	3.57
387.999	3.54
388.36	3.53
388.721	3.56
389.082	3.63
389.443	3.61
389.804	3.57
390.165	3.6
390.526	3.57
390.887	3.6
391.248	3.56
391.609	3.57
391.969	3.63
392.33	3.62
392.691	3.66
393.051	3.62
393.412	3.67
393.772	3.7
394.133	3.68
394.493	3.64
394.854	3.69
395.214	3.74
395.574	3.75
395.935	3.76
396.295	3.74
396.655	3.72
397.015	3.73
397.376	3.74
397.736	3.75
398.096	3.75
398.456	3.76
398.816	3.8
399.176	3.8
399.535	3.77
399.895	3.78
400.255	3.76
400.615	3.74
400.975	3.72
401.334	3.71
401.694	3.75
402.054	3.73
402.413	3.72
402.773	3.66
403.132	3.67
403.492	3.66
403.851	3.67
404.211	3.65
404.57	3.68
404.929	3.68
405.288	3.67
405.648	3.64
406.007	3.64
406.366	3.62
406.725	3.62
407.084	3.6
407.443	3.6
407.802	3.6
408.161	3.62
408.52	3.63
408.879	3.64
409.238	3.65
409.596	3.69
409.955	3.68
410.314	3.7
410.673	3.71
411.031	3.72
411.39	3.69
411.748	3.72
412.107	3.71
412.465	3.7
412.824	3.7
413.182	3.72
413.54	3.7
413.899	3.72
414.257	3.75
414.615	3.76
414.974	3.77
415.332	3.78
415.69	3.8
416.048	3.78
416.406	3.77
416.764	3.77
417.122	3.74
417.48	3.73
417.838	3.72
418.195	3.69
418.553	3.72
418.911	3.72
419.269	3.72
419.626	3.71
419.984	3.74
420.342	3.72
420.699	3.71
421.057	3.72
421.414	3.73
421.772	3.72
422.129	3.7
422.486	3.69
422.844	3.68
423.201	3.68
423.558	3.68
423.915	3.68
424.273	3.67
424.63	3.69
424.987	3.71
425.344	3.73
425.701	3.73
426.058	3.73
426.415	3.72
426.772	3.7
427.128	3.71
427.485	3.7
427.842	3.72
428.199	3.73
428.555	3.73
428.912	3.7
429.269	3.71
429.625	3.73
429.982	3.77
430.338	3.79
430.695	3.76
431.051	3.77
431.407	3.78
431.764	3.77
432.12	3.77
432.476	3.77
432.832	3.76
433.189	3.77
433.545	3.77
433.901	3.78
434.257	3.79
434.613	3.79
434.969	3.79
435.325	3.78
435.681	3.8
436.036	3.8
436.392	3.81
436.748	3.81
437.104	3.81
437.459	3.8
437.815	3.79
438.171	3.81
438.526	3.8
438.882	3.79
439.237	3.81
439.593	3.81
439.948	3.81
440.304	3.81
440.659	3.8
441.014	3.79
441.369	3.79
441.725	3.79
442.08	3.79
442.435	3.8
442.79	3.79
443.145	3.79
443.5	3.77
443.855	3.76
444.21	3.76
444.565	3.76
444.92	3.77
445.275	3.77
445.629	3.76
445.984	3.76
446.339	3.76
446.693	3.76
447.048	3.74
447.403	3.73
447.757	3.74
448.112	3.75
448.466	3.76
448.82	3.77
449.175	3.76
449.529	3.77
449.883	3.77
450.238	3.78
450.592	3.78
450.946	3.78
451.3	3.8
451.654	3.8
452.008	3.79
452.362	3.78
452.716	3.79
453.07	3.79
453.424	3.79
453.778	3.81
454.132	3.81
454.486	3.82
454.839	3.82
455.193	3.82
455.547	3.83
455.9	3.84
456.254	3.85
456.607	3.88
456.961	3.89
457.314	3.88
457.668	3.86
458.021	3.87
458.375	3.87
458.728	3.87
459.081	3.89
459.434	3.9
459.787	3.92
460.141	3.93
460.494	3.94
460.847	3.94
461.2	3.94
461.553	3.95
461.906	3.95
462.259	3.94
462.611	3.94
462.964	3.94
463.317	3.95
463.67	3.96
464.022	3.96
464.375	3.95
464.728	3.97
465.08	4
465.433	4
465.785	4.02
466.138	4.05
466.49	4.05
466.843	4.06
467.195	4.05
467.547	4.05
467.899	4.06
468.252	4.07
468.604	4.08
468.956	4.07
469.308	4.09
469.66	4.12
470.012	4.14
470.364	4.15
470.716	4.13
471.068	4.13
471.42	4.13
471.772	4.13
472.123	4.13
472.475	4.14
472.827	4.13
473.178	4.11
473.53	4.09
473.882	4.05
474.233	4.04
474.585	4.03
474.936	4.03
475.288	4.01
475.639	4.02
475.99	3.99
476.342	3.99
476.693	3.97
477.044	3.96
477.395	3.95
477.746	3.95
478.097	3.96
478.448	3.95
478.8	3.96
479.15	3.96
479.501	3.96
479.852	3.97
480.203	3.99
480.554	4
480.905	4.01
481.255	4.03
481.606	4.04
481.957	4.05
482.307	4.05
482.658	4.07
483.009	4.08
483.359	4.1
483.709	4.11
484.06	4.12
484.41	4.12
484.761	4.12
485.111	4.12
485.461	4.12
485.811	4.12
486.162	4.12
486.512	4.13
486.862	4.13
487.212	4.13
487.562	4.12
487.912	4.13
488.262	4.13
488.612	4.14
488.961	4.15
489.311	4.15
489.661	4.13
490.011	4.12
490.36	4.1
490.71	4.1
491.06	4.09
491.409	4.09
491.759	4.1
492.108	4.1
492.458	4.09
492.807	4.09
493.157	4.08
493.506	4.07
493.855	4.06
494.204	4.06
494.554	4.07
494.903	4.07
495.252	4.06
495.601	4.06
495.95	4.06
496.299	4.04
496.648	4.04
496.997	4.07
497.346	4.07
497.695	4.08
498.043	4.1
498.392	4.11
498.741	4.11
499.09	4.11
499.438	4.12
499.787	4.14
500.135	4.13
500.484	4.16
500.832	4.17
501.181	4.18
501.529	4.2
501.878	4.18
502.226	4.19
502.574	4.17
502.923	4.14
503.271	4.13
503.619	4.13
503.967	4.12
504.315	4.12
504.663	4.13
505.011	4.14
505.359	4.11
505.707	4.1
506.055	4.08
506.403	4.1
506.751	4.09
507.098	4.09
507.446	4.1
507.794	4.12
508.141	4.13
508.489	4.13
508.837	4.13
509.184	4.15
509.531	4.16
509.879	4.17
510.226	4.18
510.574	4.2
510.921	4.21
511.268	4.21
511.616	4.22
511.963	4.24
512.31	4.24
512.657	4.26
513.004	4.25
513.351	4.26
513.698	4.24
514.045	4.24
514.392	4.24
514.739	4.23
515.086	4.22
515.432	4.23
515.779	4.24
516.126	4.26
516.473	4.26
516.819	4.27
517.166	4.27
517.512	4.29
517.859	4.29
518.205	4.28
518.552	4.29
518.898	4.3
519.245	4.3
519.591	4.3
519.937	4.3
520.283	4.32
520.629	4.32
520.976	4.32
521.322	4.35
521.668	4.36
522.014	4.36
522.36	4.36
522.706	4.35
523.052	4.35
523.398	4.35
523.743	4.34
524.089	4.36
524.435	4.36
524.781	4.36
525.126	4.36
525.472	4.37
525.817	4.38
526.163	4.38
526.509	4.39
526.854	4.39
527.199	4.4
527.545	4.41
527.89	4.42
528.235	4.42
528.581	4.42
528.926	4.41
529.271	4.43
529.616	4.42
529.961	4.44
530.306	4.43
530.651	4.43
530.996	4.43
531.341	4.43
531.686	4.43
532.031	4.43
532.376	4.43
532.721	4.44
533.065	4.44
533.41	4.43
533.755	4.42
534.099	4.42
534.444	4.42
534.788	4.42
535.133	4.42
535.477	4.43
535.822	4.41
536.166	4.41
536.51	4.41
536.855	4.41
537.199	4.4
537.543	4.41
537.887	4.43
538.231	4.42
538.576	4.42
538.92	4.45
539.264	4.44
539.608	4.46
539.951	4.44
540.295	4.45
540.639	4.46
540.983	4.47
541.327	4.46
541.671	4.47
542.014	4.46
542.358	4.47
542.701	4.47
543.045	4.5
543.389	4.51
543.732	4.49
544.075	4.49
544.419	4.49
544.762	4.49
545.105	4.48
545.449	4.49
545.792	4.5
546.135	4.49
546.478	4.48
546.821	4.5
547.165	4.53
547.508	4.52
547.851	4.53
548.194	4.51
548.536	4.51
548.879	4.52
549.222	4.55
549.565	4.55
549.908	4.56
550.25	4.54
550.593	4.53
550.936	4.55
551.278	4.56
551.621	4.58
551.963	4.59
552.306	4.61
552.648	4.63
552.991	4.61
553.333	4.55
553.675	4.6
554.017	4.55
554.36	4.54
554.702	4.55
555.044	4.53
555.386	4.55
555.728	4.59
556.07	4.58
556.412	4.56
556.754	4.53
557.096	4.53
557.438	4.53
557.78	4.57
558.121	4.56
558.463	4.55
558.805	4.54
559.147	4.55
559.488	4.5
559.83	4.51
560.171	4.52
560.513	4.55
560.854	4.52
561.196	4.54
561.537	4.54
561.878	4.56
562.22	4.56
562.561	4.54
562.902	4.5
563.243	4.5
563.584	4.5
563.925	4.56
564.266	4.56
564.607	4.55
564.948	4.53
565.289	4.52
565.63	4.53
565.971	4.54
566.312	4.53
566.653	4.57
566.993	4.55
567.334	4.59
567.675	4.61
568.015	4.61
568.356	4.58
568.696	4.59
569.037	4.58
569.377	4.57
569.718	4.59
570.058	4.62
570.398	4.59
570.739	4.58
571.079	4.57
571.419	4.56
571.759	4.57
572.099	4.58
572.439	4.62
572.779	4.63
573.119	4.61
573.459	4.61
573.799	4.61
574.139	4.62
574.479	4.59
574.819	4.61
575.158	4.63
575.498	4.66
575.838	4.67
576.177	4.66
576.517	4.69
576.856	4.67
577.196	4.66
577.535	4.7
577.875	4.69
578.214	4.68
578.553	4.68
578.893	4.7
579.232	4.65
579.571	4.65
579.91	4.65
580.25	4.68
580.589	4.69
580.928	4.7
581.267	4.71
581.606	4.74
581.945	4.71
582.283	4.67
582.622	4.65
582.961	4.67
583.3	4.68
583.639	4.69
583.977	4.73
584.316	4.75
584.654	4.75
584.993	4.77
585.332	4.8
585.67	4.81
586.008	4.79
586.347	4.84
586.685	4.8
587.024	4.85
587.362	4.84
587.7	4.86
588.038	4.88
588.376	4.85
588.715	4.84
589.053	4.83
589.391	4.89
589.729	4.91
590.067	4.84
590.404	4.83
590.742	4.8
591.08	4.81
591.418	4.83
591.756	4.81
592.093	4.83
592.431	4.82
592.769	4.82
593.106	4.85
593.444	4.82
593.781	4.85
594.119	4.81
594.456	4.8
594.793	4.77
595.131	4.76
595.468	4.77
595.805	4.75
596.143	4.76
596.48	4.73
596.817	4.72
597.154	4.74
597.491	4.73
597.828	4.74
598.165	4.72
598.502	4.68
598.839	4.71
599.176	4.72
599.512	4.7
599.849	4.7
600.186	4.67
600.523	4.69
600.859	4.69
601.196	4.67
601.532	4.68
601.869	4.68
602.205	4.68
602.542	4.69
602.878	4.69
603.215	4.71
603.551	4.71
603.887	4.72
604.223	4.72
604.56	4.76
604.896	4.76
605.232	4.78
605.568	4.78
605.904	4.76
606.24	4.77
606.576	4.81
606.912	4.78
607.248	4.85
607.583	4.87
607.919	4.84
608.255	4.87
608.591	4.92
608.926	4.94
609.262	4.94
609.597	4.92
609.933	4.92
610.268	4.94
610.604	4.99
610.939	5.01
611.275	5.03
611.61	4.99
611.945	4.92
612.281	4.95
612.616	4.97
612.951	4.97
613.286	4.91
613.621	4.88
613.956	4.93
614.291	4.88
614.626	4.86
614.961	4.91
615.296	4.89
615.631	4.86
615.966	4.85
616.3	4.88
616.635	4.89
616.97	4.88
617.304	4.84
617.639	4.79
617.973	4.74
618.308	4.71
618.642	4.74
618.977	4.86
619.311	4.82
619.646	4.81
619.98	4.84
620.314	4.88
620.648	4.91
620.983	4.92
621.317	4.91
621.651	4.92
621.985	4.96
622.319	4.99
622.653	5
622.987	4.99
623.321	5
623.655	4.99
623.988	4.97
624.322	5.01
624.656	5.03
624.99	5.06
625.323	5.07
625.657	5.08
625.99	5.01
626.324	4.96
626.657	4.98
626.991	4.96
627.324	4.95
627.658	4.92
627.991	4.89
628.324	4.89
628.657	4.89
628.991	4.86
629.324	4.86
629.657	4.85
629.99	4.85
630.323	4.82
630.656	4.82
630.989	4.85
631.322	4.84
631.655	4.85
631.987	4.81
632.32	4.86
632.653	4.88
632.986	4.94
633.318	5
633.651	4.97
633.984	4.99
634.316	4.93
634.649	4.96
634.981	5.04
635.313	5.06
635.646	5.08
635.978	5.07
636.31	5.09
636.643	5.09
636.975	5.15
637.307	5.18
637.639	5.18
637.971	5.16
638.303	5.09
638.635	5.07
638.967	5.11
639.299	5.07
639.631	5.08
639.963	5.09
640.295	5.16
640.626	5.19
640.958	5.17
641.29	5.26
641.621	5.2
641.953	5.1
642.285	5.08
642.616	5.06
642.948	4.97
643.279	4.92
643.61	4.94
643.942	4.89
644.273	4.89
644.604	4.88
644.936	4.93
645.267	4.98
645.598	5.04
645.929	5.03
646.26	5.03
646.591	5.05
646.922	5.04
647.253	4.92
647.584	4.87
647.915	4.89
648.245	4.93
648.576	4.87
648.907	4.93
649.238	4.91
649.568	5
649.899	5.03
650.229	5.1
650.56	5.05
650.89	5.06
651.221	5.1
651.551	5.21
651.882	5.15
652.212	5.19
652.542	5.2
652.872	5.2
653.203	5.24
653.533	5.19
653.863	5.19
654.193	5.19
654.523	5.17
654.853	5.19
655.183	5.12
655.513	5.24
655.843	5.24
656.172	5.32
656.502	5.22
656.832	5.28
657.162	5.26
657.491	5.3
657.821	5.29
658.15	5.22
658.48	5.22
658.809	5.22
659.139	5.15
659.468	5.1
659.798	5.11
660.127	5.08
660.456	5.07
660.785	5.1
661.115	5.17
661.444	5.25
661.773	5.29
662.102	5.36
662.431	5.37
662.76	5.41
663.089	5.39
663.418	5.37
663.747	5.37
664.076	5.4
664.404	5.4
664.733	5.36
665.062	5.39
665.39	5.31
665.719	5.34
666.048	5.4
666.376	5.37
666.705	5.36
667.033	5.35
667.362	5.38
667.69	5.34
668.018	5.42
668.347	5.38
668.675	5.31
669.003	5.3
669.331	5.35
669.659	5.26
669.987	5.27
670.315	5.38
670.643	5.35
670.971	5.31
671.299	5.34
671.627	5.42
671.955	5.43
672.283	5.43
672.61	5.51
672.938	5.48
673.266	5.53
673.593	5.51
673.921	5.59
674.249	5.65
674.576	5.66
674.904	5.52
675.231	5.63
675.558	5.7
675.886	5.61
676.213	5.62
676.54	5.66
676.867	5.61
677.195	5.61
677.522	5.6
677.849	5.75
678.176	5.77
678.503	5.73
678.83	5.72
679.157	5.73
679.484	5.68
679.81	5.66
680.137	5.72
680.464	5.77
680.791	5.71
681.117	5.74
681.444	5.74
681.771	5.81
682.097	5.85
682.424	5.78
682.75	5.85
683.077	5.8
683.403	5.82
683.729	5.76
684.056	5.7
684.382	5.8
684.708	5.66
685.034	5.62
685.36	5.56
685.686	5.63
686.012	5.68
686.339	5.72
686.664	5.81
686.99	5.74
687.316	5.74
687.642	5.75
687.968	5.66
688.294	5.63
688.619	5.62
688.945	5.52
689.271	5.65
689.596	5.63
689.922	5.68
690.247	5.81
690.573	5.92
690.898	6
691.224	6.03
691.549	6.16
691.874	6.17
692.2	6.18
692.525	6.14
692.85	6.04
693.175	6
693.5	6.02
693.825	6.05
694.15	6.02
694.475	6.04
694.8	6.07
695.125	6.07
695.45	6.01
695.775	6.03
696.099	5.97
696.424	6.02
696.749	5.96
697.073	5.88
697.398	5.82
697.723	5.83
698.047	5.8
698.372	5.85
698.696	5.87
699.02	5.94
699.345	5.98
699.669	6.13
699.993	6.11
700.318	6.13
700.642	6.14
700.966	6.13
701.29	6.14
701.614	6.18
701.938	6.25
702.262	6.33
702.586	6.38
702.91	6.38
703.234	6.25
703.557	6.28
703.881	6.31
704.205	6.41
704.529	6.4
704.852	6.28
705.176	6.14
705.499	6.13
705.823	6.19
706.146	6.15
706.47	6.17
706.793	6.33
707.117	6.31
707.44	6.39
707.763	6.42
708.086	6.42
708.409	6.32
708.733	6.17
709.056	6.16
709.379	6.19
709.702	6.13
710.025	6.38
710.348	6.45
710.671	6.4
710.993	6.38
711.316	6.41
711.639	6.51
711.962	6.53
712.284	6.58
712.607	6.56
712.93	6.61
713.252	6.44
713.575	6.32
713.897	6.35
714.22	6.24
714.542	6.31
714.864	6.38
715.187	6.37
715.509	6.48
715.831	6.35
716.153	6.18
716.475	6.27
716.798	6.15
717.12	6.19
717.442	6.23
717.764	6.23
718.085	6.26
718.407	6.3
718.729	6.15
719.051	6.04
719.373	6.01
719.695	5.91
720.016	5.9
720.338	5.84
720.659	5.83
720.981	5.92
721.302	5.87
721.624	5.73
721.945	5.81
722.267	5.88
722.588	5.94
722.909	5.95
723.231	5.82
723.552	5.77
723.873	5.59
724.194	5.59
724.515	5.62
724.836	5.47
725.157	5.45
725.478	5.62
725.799	5.63
726.12	5.68
726.441	5.76
726.762	5.88
727.083	6
727.403	5.99
727.724	6.03
728.045	5.92
728.365	5.83
728.686	5.79
729.006	5.73
729.327	5.83
729.647	5.77
729.967	5.82
730.288	5.93
730.608	6.01
730.928	5.96
731.249	5.97
731.569	6.06
731.889	6.21
732.209	6.17
732.529	6.31
732.849	6.22
733.169	6.3
733.489	6.29
733.809	6.27
734.129	6.27
734.448	6.26
734.768	6.27
735.088	6.44
735.408	6.37
735.727	6.4
736.047	6.3
736.366	6.43
736.686	6.37
737.005	6.67
737.325	6.78
737.644	6.64
737.963	6.79
738.283	6.64
738.602	6.33
738.921	6.44
739.24	6.48
739.56	6.56
739.879	6.43
740.198	6.34
740.517	6.45
740.836	6.19
741.155	6.43
741.473	6.66
741.792	6.54
742.111	6.72
742.43	6.99
742.748	7.24
743.067	7.19
743.386	7.07
743.704	6.61
744.023	6.31
744.341	6.67
744.66	6.4
744.978	6.49
745.297	6.67
745.615	6.5
745.933	6.59
746.252	6.88
746.57	6.96
746.888	6.97
747.206	6.81
747.524	7.03
747.842	6.39
748.16	6.44
748.478	6.48
748.796	6.47
749.114	6.2
749.432	6.03
749.749	5.93
750.067	6.16
750.385	6.33
750.703	6.48
751.02	6.4
751.338	6.56
751.655	6.43
751.973	6.29
752.29	6.38
752.608	6.12
752.925	5.96
753.242	5.89
753.56	6
753.877	5.97
754.194	5.91
754.511	6.29
754.828	6.11
755.145	6.17
755.462	6.28
755.779	6.27
756.096	6.3
756.413	6.55
756.73	6.55
757.047	6.19
757.364	6.48
757.68	6.19
757.997	6.28
758.314	6.52
758.63	6.95
758.947	7
759.264	7.06
759.58	6.82
759.896	6.87
760.213	7.03
760.529	7.01
760.846	7.37
761.162	7.37
761.478	7.45
761.794	7.46
762.11	7.31
762.426	7.11
762.743	7.31
763.059	7.25
763.375	7.3
763.69	7.47
764.006	7.29
764.322	7.58
764.638	7.58
764.954	7.58
765.27	7.35
765.585	7.47
765.901	7.45
766.216	7.46
766.532	7.48
766.848	7.4
767.163	7.46
767.478	7.14
767.794	7
768.109	7.1
768.424	7.24
768.74	7.36
769.055	7.51
769.37	7.21
769.685	7.15
770	7.26
770.315	7.56
770.63	7.65
770.945	7.37
771.26	7
771.575	7.21
771.89	7.12
772.205	7.01
772.52	7.13
772.834	7.49
773.149	7.27
773.464	7.47
773.778	7.58
774.093	7.67
774.407	7.93
774.722	7.35
775.036	7.02
775.351	6.91
775.665	7.05
775.979	7.22
776.293	7.04
776.608	6.77
776.922	6.83
777.236	6.63
777.55	6.46
777.864	6.85
778.178	6.36
778.492	6.52
778.806	6.32
779.12	6.2
779.434	6.34
779.747	6.62
780.061	6.23
780.375	5.96
780.689	6.04
781.002	6.02
781.316	6.48
781.629	7.12
781.943	7.11
782.256	6.91
782.57	6.83
782.883	7.5
783.196	7.7
783.51	7.41
783.823	7.59
784.136	7.96
784.449	8.11
784.762	8.62
785.075	8.97
785.388	9.16
785.701	9.22
786.014	9.04
786.327	9.37
786.64	9.67
786.953	10.24
787.266	10.49
787.578	10.36
787.891	10.53
788.204	10.47
788.516	10.68
788.829	10.98
789.141	11.27
789.454	11.21
789.766	11.26
790.079	11.38
790.391	10.96
790.703	10.96
791.016	10.58
791.328	9.99
791.64	9.92
791.952	9.55
792.264	9.34
792.576	9.08
792.888	8.59
793.2	8.66
793.512	8.44
793.824	8.18
794.136	8.16
794.448	8.09
794.76	7.36
795.071	7.29
795.383	7.18
795.695	6.78
796.006	6.32
796.318	6.17
796.629	5.36
796.941	5.57
797.252	5.28
797.564	5.76
797.875	6.19
798.186	5.97
798.497	6.19
798.809	6.38
799.12	6.83
799.431	6.91
799.742	7.07
800.053	6.73
800.364	6.58
800.675	7.05
800.986	6.66
801.297	7.4
801.608	7.02
801.918	7.13
802.229	7.41
802.54	7.47
802.851	7.75
803.161	8.67
803.472	8.88
803.782	9.58
804.093	9.08
804.403	8.87
804.714	8.82
805.024	8.76
805.334	8.9
805.645	8.96
805.955	9.18
806.265	8.95
806.575	9.73
806.885	10.22
807.195	10.03
807.505	10.56
807.815	10.17
808.125	10.74
808.435	10.83
808.745	10.64
809.055	11.26
809.365	11.83
809.674	11.66
809.984	11.62
810.294	11.15
810.603	11.12
810.913	11.57
811.222	11.36
811.532	12.23
811.841	13
812.151	12.49
812.46	11.82
812.769	11.64
813.079	11.73
813.388	11.34
813.697	11.39
814.006	10.92
814.315	10.62
814.624	10.38
814.933	10.59
815.242	10.52
815.551	10.78
815.86	10.31
816.169	10.56
816.478	11.52
816.786	11.21
817.095	11.63
817.404	11.47
817.712	11.57
818.021	10.98
818.33	10.16
818.638	10.37
818.947	10.67
819.255	10.47
819.563	10.53
819.872	10.36
820.18	10.13
820.488	10.24
820.796	10.65
821.105	10.54
821.413	10.51
821.721	10.45
822.029	10.24
822.337	10.19
822.645	10.13
822.953	9.89
823.26	9.93
823.568	9.88
823.876	9.87
824.184	9.78
824.491	9.95
824.799	9.97
825.107	9.88
825.414	9.84
825.722	9.96
826.029	9.78
826.337	9.85
826.644	9.91
826.951	9.9
827.259	9.84
827.566	9.86
827.873	9.73
828.18	9.67
828.488	9.63
828.795	9.38
829.102	9.33
829.409	9.3
829.716	9.75
830.023	9.57
830.329	9.59
830.636	9.75
830.943	9.71
831.25	9.86
831.557	10.16
831.863	10.17
832.17	9.96
832.476	9.83
832.783	9.65
833.089	9.56
833.396	9.72
833.702	9.26
834.009	9.52
834.315	9.69
834.621	9.75
834.928	9.87
835.234	10.09
835.54	9.92
835.846	9.76
836.152	9.59
836.458	9.88
836.764	9.78
837.07	9.93
837.376	9.59
837.682	9.29
837.988	9.24
838.293	9.01
838.599	8.65
838.905	8.97
839.211	9.52
839.516	9.28
839.822	9.66
840.127	9.6
840.433	9.64
840.738	9.11
841.044	8.65
841.349	8.21
841.654	7.92
841.959	8.19
842.265	8.87
842.57	8.17
842.875	7.95
843.18	8.1
843.485	8.28
843.79	8.16
844.095	8.89
844.4	8.09
844.705	8.48
845.01	9.61
845.315	8.65
845.619	8.41
845.924	7.26
846.229	5.27
846.533	4.98
846.838	4.28
847.142	4.4
847.447	5.62
847.751	5.83
848.056	5.89
848.36	6.17
848.664	4.44
848.969	2.82
849.273	2.99
849.577	2.42
849.881	1.84
850.185	0.24
850.489	-0.72
850.794	1.3
851.097	0.91
851.401	-0.27
851.705	-0.01
852.009	-0.82
852.313	1.25
852.617	3.24
852.92	4.85
853.224	3.82
853.528	3.12
853.831	6.21
854.135	6.92
854.438	6.95
854.742	6.33
855.045	7.46
855.349	8.76
855.652	7.47
855.955	7.89
856.259	7.67
856.562	8.83
856.865	7.79
857.168	5.38
857.471	6.35
857.774	6.89
858.077	8.51
858.38	9.27
858.683	10.58
858.986	8.35
859.289	8.41
859.592	8.61
859.894	11.01
860.197	8.9
860.5	10.03
860.802	12.05
861.105	11.21
861.407	11.53
861.71	10.85
862.012	13.45
862.315	13.5
862.617	14.06
862.919	15.12
863.222	14.87
863.524	15.12
863.826	12.65
864.128	14.14
864.43	14.88
864.732	14.48
865.034	12.95
865.336	12.96
865.638	11.96
865.94	12.81
866.242	10.89
866.544	10.74
866.846	10.02
867.147	11.99
867.449	13.83
867.751	13.41
868.052	13.92
868.354	13.98
868.655	14
868.957	13.88
869.258	10.85
869.56	12.05
869.861	14.24
870.162	18.42
870.463	16.06
870.765	15.25
871.066	13.3
871.367	14.99
871.668	17.17
871.969	18.69
872.27	19.49
872.571	21.46
872.872	18.76
873.173	15.66
873.473	12.31
873.774	11.63
874.075	12.43
874.376	11.07
874.676	12.57
874.977	14.3
875.277	13.58
875.578	17.47
875.878	17.4
876.179	15.8
876.479	14.12
876.78	14.72
877.08	14.24
877.38	16.41
877.68	16.11
877.981	15.46
878.281	14.7
878.581	13.13
