Data from MVZ_BU57658_Reflection_00009.txt Node
Date: Tue Nov 19 12:13:34 EST 2019
User: vgr7
Spectrometer: USB2G7710
Scans to average: 3
Trigger mode: 4
Integration Time (sec): 2.000000E-2
Electric dark correction enabled: true
Boxcar width: 10
XAxis mode: Wavelengths
Number of Pixels in Spectrum: 2048
>>>>>Begin Spectral Data<<<<<
177.721	80.23
178.105	64.91
178.488	54.75
178.871	81.67
179.254	173.33
179.636	707.84
180.019	-202.72
180.402	125
180.785	-16.26
181.168	-79.2
181.55	-7.19
181.933	-24.77
182.316	12.05
182.698	9.06
183.081	36.95
183.463	44.44
183.846	62.61
184.228	79.6
184.611	97.4
184.993	158.52
185.376	162.42
185.758	117.29
186.14	100.78
186.522	255.83
186.904	1146.67
187.287	266.67
187.669	221.33
188.051	220.76
188.433	1212.61
188.815	-545.59
189.197	-638.1
189.579	-192.91
189.961	-214.81
190.342	-101.17
190.724	-111.79
191.106	-94.92
191.488	-82.98
191.869	-78.55
192.251	-63.11
192.633	-49.76
193.014	-53.54
193.396	-51.27
193.777	-52.4
194.159	-65.8
194.54	-54.3
194.922	-69.03
195.303	-106.96
195.684	-123.67
196.065	-124.08
196.447	-161.76
196.828	-186.81
197.209	-152.97
197.59	-159.19
197.971	-271.09
198.352	5562.96
198.733	-1116.31
199.114	722.07
199.495	-5006.06
199.876	-2908.77
200.257	-54066.67
200.638	2822.22
201.018	1374.77
201.399	573.78
201.78	673.59
202.16	2106.67
202.541	3580.39
202.922	-4912.82
203.302	-297.82
203.683	-137.78
204.063	-115.09
204.444	-73.49
204.824	-81.62
205.204	-95.29
205.585	-135.14
205.965	-137.4
206.345	-118.05
206.725	-116.28
207.106	-109.71
207.486	-117.68
207.866	-110.07
208.246	-119.02
208.626	-160.75
209.006	-220.37
209.386	-367.85
209.766	-560.49
210.145	-579.06
210.525	-955.56
210.905	-454.37
211.285	-397.93
211.664	-713.73
212.044	-842.79
212.424	8266.67
212.803	774.86
213.183	1161.9
213.562	-197.53
213.942	-181.77
214.321	-261.86
214.701	-116.92
215.08	-19.36
215.459	-16.13
215.838	-65.01
216.218	-70.82
216.597	-46.65
216.976	-54.23
217.355	-47.55
217.734	-66.67
218.113	-61.96
218.492	-49.43
218.871	-53.63
219.25	-70.21
219.629	-89.67
220.008	-93
220.387	-111.85
220.766	-103.34
221.144	-102.14
221.523	-123.11
221.902	-104.98
222.28	-78.23
222.659	-75.57
223.037	-108.72
223.416	-87.78
223.794	-71.16
224.173	-88.01
224.551	-71.21
224.929	-61.95
225.308	-57.99
225.686	-44.59
226.064	-52.25
226.442	-40.04
226.821	-36.54
227.199	-32.55
227.577	-26.58
227.955	-22.79
228.333	-22.82
228.711	-21.86
229.089	-22.25
229.467	-21.41
229.845	-21.96
230.222	-22.53
230.6	-23.87
230.978	-20.27
231.356	-21.88
231.733	-17.78
232.111	-12.91
232.488	-13.77
232.866	-12.12
233.243	-9.69
233.621	-8.55
233.998	-7.25
234.376	-8.17
234.753	-6.37
235.13	-3.95
235.508	-4.13
235.885	-2.86
236.262	-2.93
236.639	-2.67
237.016	-1.98
237.393	-2.22
237.77	-1.93
238.147	-2.59
238.524	-0.92
238.901	-0.37
239.278	-0.81
239.655	-0.22
240.032	0.2
240.409	0.78
240.785	0.2
241.162	1.21
241.539	1.45
241.915	2.06
242.292	2.25
242.668	1.88
243.045	2.33
243.421	2.58
243.798	2.09
244.174	2.46
244.551	2.57
244.927	2.64
245.303	2.74
245.679	2.99
246.056	3.13
246.432	3.14
246.808	3.03
247.184	3.16
247.56	2.7
247.936	2.7
248.312	2.76
248.688	3.11
249.064	3.13
249.44	3.12
249.815	3.11
250.191	3.21
250.567	3.24
250.943	3.2
251.318	2.94
251.694	2.94
252.069	3.01
252.445	3.29
252.82	3.5
253.196	3.71
253.571	3.6
253.947	3.6
254.322	3.69
254.697	3.68
255.073	3.81
255.448	3.78
255.823	3.85
256.198	3.7
256.573	3.44
256.948	2.97
257.323	3.11
257.698	2.88
258.073	2.7
258.448	2.8
258.823	2.46
259.198	2.56
259.573	2.43
259.948	2.7
260.322	2.37
260.697	2.46
261.072	2.34
261.446	2.44
261.821	2.49
262.195	2.29
262.57	2.37
262.944	2.4
263.319	2.63
263.693	2.64
264.067	2.77
264.442	2.84
264.816	2.76
265.19	2.85
265.564	3.23
265.938	3.29
266.313	3.28
266.687	3.48
267.061	3.51
267.435	3.87
267.809	3.59
268.183	3.79
268.556	3.53
268.93	3.79
269.304	3.66
269.678	3.46
270.051	3.45
270.425	3.34
270.799	3.12
271.172	2.97
271.546	3.09
271.919	2.9
272.293	2.78
272.666	2.94
273.04	2.75
273.413	2.65
273.787	2.77
274.16	2.63
274.533	2.46
274.906	2.31
275.279	2.18
275.653	2.1
276.026	2
276.399	1.98
276.772	1.95
277.145	1.92
277.518	2.06
277.891	2.11
278.263	2.14
278.636	2.32
279.009	2.39
279.382	2.26
279.755	2.2
280.127	2.48
280.5	2.28
280.872	2.18
281.245	2.13
281.617	1.98
281.99	1.96
282.362	2.18
282.735	2.35
283.107	2.35
283.479	2.48
283.852	2.46
284.224	2.64
284.596	2.46
284.968	2.43
285.34	2.39
285.713	2.49
286.085	2.42
286.457	2.45
286.829	2.4
287.201	2.42
287.572	2.58
287.944	2.5
288.316	2.52
288.688	2.71
289.06	2.73
289.431	2.82
289.803	2.92
290.175	2.85
290.546	2.74
290.918	2.83
291.289	2.69
291.661	2.83
292.032	2.83
292.403	2.93
292.775	2.97
293.146	3.13
293.517	3.04
293.889	3.16
294.26	3.19
294.631	3.36
295.002	3.3
295.373	3.15
295.744	3.18
296.115	3.38
296.486	3.29
296.857	3.28
297.228	3.22
297.599	3.12
297.97	3.21
298.34	3.31
298.711	3.4
299.082	3.41
299.452	3.35
299.823	3.36
300.194	3.35
300.564	3.31
300.935	3.18
301.305	3.35
301.676	3.37
302.046	3.44
302.416	3.25
302.787	3.4
303.157	3.45
303.527	3.71
303.897	3.54
304.267	3.69
304.637	3.63
305.008	3.74
305.378	4
305.748	4.06
306.117	4.2
306.487	4.38
306.857	4.69
307.227	4.92
307.597	5.03
307.967	5.11
308.336	5.34
308.706	5.41
309.076	5.49
309.445	5.56
309.815	5.5
310.184	5.66
310.554	5.56
310.923	5.63
311.293	5.68
311.662	5.86
312.031	5.83
312.401	5.84
312.77	5.71
313.139	5.77
313.508	5.85
313.877	5.84
314.246	5.79
314.616	5.78
314.985	5.69
315.353	5.72
315.722	5.72
316.091	5.73
316.46	5.81
316.829	5.72
317.198	5.59
317.567	5.79
317.935	5.9
318.304	6.12
318.672	6.28
319.041	6.01
319.41	6.01
319.778	6.02
320.147	6.27
320.515	6.33
320.883	6.31
321.252	6.31
321.62	6.27
321.988	6.32
322.357	6.3
322.725	6.41
323.093	6.55
323.461	6.82
323.829	6.76
324.197	6.9
324.565	6.97
324.933	7.01
325.301	6.94
325.669	6.83
326.037	6.89
326.405	6.91
326.772	6.97
327.14	6.96
327.508	7.28
327.875	7.28
328.243	7.61
328.61	7.62
328.978	7.73
329.346	7.89
329.713	7.89
330.08	8.04
330.448	7.88
330.815	7.83
331.182	7.69
331.55	7.77
331.917	7.72
332.284	7.76
332.651	8.01
333.018	8.2
333.385	8.41
333.752	8.29
334.119	8.41
334.486	8.51
334.853	8.46
335.22	8.19
335.587	8.18
335.954	8.11
336.32	8.08
336.687	8.09
337.054	8.07
337.42	8.02
337.787	7.93
338.153	8.12
338.52	8.07
338.886	8.15
339.253	8.11
339.619	8.2
339.986	8.08
340.352	8.04
340.718	7.91
341.084	7.87
341.451	8
341.817	7.86
342.183	7.78
342.549	7.94
342.915	8.1
343.281	8.08
343.647	7.99
344.013	8.08
344.379	8.05
344.745	8.12
345.11	8.14
345.476	8.17
345.842	8.16
346.208	8.15
346.573	8.17
346.939	8.14
347.304	8.09
347.67	8.21
348.035	8.25
348.401	8.26
348.766	8.21
349.132	8.12
349.497	8.33
349.862	8.35
350.228	8.32
350.593	8.29
350.958	8.45
351.323	8.6
351.688	8.57
352.053	8.66
352.418	8.62
352.783	8.61
353.148	8.63
353.513	8.64
353.878	8.62
354.243	8.58
354.608	8.68
354.972	8.62
355.337	8.59
355.702	8.56
356.066	8.65
356.431	8.74
356.795	8.75
357.16	8.68
357.524	8.66
357.889	8.67
358.253	8.57
358.618	8.46
358.982	8.41
359.346	8.35
359.71	8.29
360.075	8.3
360.439	8.34
360.803	8.3
361.167	8.24
361.531	8.26
361.895	8.19
362.259	8.2
362.623	8.16
362.987	8.23
363.351	8.21
363.714	8.15
364.078	8.1
364.442	8.08
364.806	8.11
365.169	8.12
365.533	8.11
365.896	8.19
366.26	8.14
366.623	8.08
366.987	8.18
367.35	8.15
367.714	8.14
368.077	8.07
368.44	8.08
368.803	8.08
369.167	8
369.53	8.1
369.893	8.01
370.256	7.98
370.619	7.85
370.982	7.7
371.345	7.68
371.708	7.65
372.071	7.64
372.434	7.51
372.797	7.46
373.159	7.39
373.522	7.25
373.885	7.26
374.247	7.24
374.61	7.17
374.973	7.13
375.335	7.08
375.698	7.03
376.06	6.93
376.423	6.89
376.785	6.92
377.147	6.76
377.51	6.71
377.872	6.7
378.234	6.68
378.596	6.7
378.958	6.64
379.321	6.55
379.683	6.49
380.045	6.41
380.407	6.42
380.769	6.33
381.13	6.34
381.492	6.29
381.854	6.25
382.216	6.2
382.578	6.17
382.939	6.11
383.301	6.07
383.663	6.01
384.024	5.98
384.386	5.93
384.747	5.93
385.109	5.92
385.47	5.88
385.832	5.81
386.193	5.76
386.554	5.7
386.916	5.71
387.277	5.65
387.638	5.65
387.999	5.59
388.36	5.62
388.721	5.6
389.082	5.56
389.443	5.57
389.804	5.54
390.165	5.49
390.526	5.48
390.887	5.48
391.248	5.47
391.609	5.45
391.969	5.42
392.33	5.35
392.691	5.37
393.051	5.35
393.412	5.35
393.772	5.37
394.133	5.33
394.493	5.27
394.854	5.26
395.214	5.2
395.574	5.14
395.935	5.09
396.295	5.08
396.655	5.05
397.015	5.01
397.376	4.92
397.736	4.87
398.096	4.84
398.456	4.77
398.816	4.74
399.176	4.63
399.535	4.59
399.895	4.6
400.255	4.5
400.615	4.46
400.975	4.42
401.334	4.34
401.694	4.32
402.054	4.32
402.413	4.31
402.773	4.29
403.132	4.3
403.492	4.29
403.851	4.26
404.211	4.23
404.57	4.23
404.929	4.26
405.288	4.24
405.648	4.24
406.007	4.25
406.366	4.23
406.725	4.27
407.084	4.32
407.443	4.3
407.802	4.29
408.161	4.28
408.52	4.29
408.879	4.28
409.238	4.32
409.596	4.31
409.955	4.29
410.314	4.29
410.673	4.26
411.031	4.24
411.39	4.22
411.748	4.25
412.107	4.2
412.465	4.18
412.824	4.19
413.182	4.15
413.54	4.15
413.899	4.16
414.257	4.17
414.615	4.12
414.974	4.11
415.332	4.13
415.69	4.12
416.048	4.12
416.406	4.08
416.764	4.05
417.122	4.01
417.48	4
417.838	4
418.195	4
418.553	3.99
418.911	3.97
419.269	3.94
419.626	3.95
419.984	3.93
420.342	3.9
420.699	3.9
421.057	3.88
421.414	3.87
421.772	3.84
422.129	3.83
422.486	3.83
422.844	3.81
423.201	3.8
423.558	3.78
423.915	3.81
424.273	3.81
424.63	3.82
424.987	3.81
425.344	3.79
425.701	3.79
426.058	3.78
426.415	3.78
426.772	3.78
427.128	3.77
427.485	3.75
427.842	3.75
428.199	3.74
428.555	3.75
428.912	3.73
429.269	3.74
429.625	3.72
429.982	3.71
430.338	3.72
430.695	3.69
431.051	3.7
431.407	3.67
431.764	3.65
432.12	3.66
432.476	3.67
432.832	3.68
433.189	3.65
433.545	3.66
433.901	3.67
434.257	3.67
434.613	3.66
434.969	3.66
435.325	3.66
435.681	3.66
436.036	3.65
436.392	3.67
436.748	3.67
437.104	3.66
437.459	3.66
437.815	3.65
438.171	3.68
438.526	3.69
438.882	3.69
439.237	3.69
439.593	3.7
439.948	3.67
440.304	3.66
440.659	3.67
441.014	3.67
441.369	3.66
441.725	3.66
442.08	3.66
442.435	3.67
442.79	3.67
443.145	3.67
443.5	3.66
443.855	3.65
444.21	3.65
444.565	3.66
444.92	3.65
445.275	3.64
445.629	3.62
445.984	3.62
446.339	3.64
446.693	3.64
447.048	3.61
447.403	3.61
447.757	3.6
448.112	3.59
448.466	3.59
448.82	3.58
449.175	3.59
449.529	3.59
449.883	3.58
450.238	3.57
450.592	3.57
450.946	3.57
451.3	3.55
451.654	3.53
452.008	3.52
452.362	3.5
452.716	3.5
453.07	3.51
453.424	3.5
453.778	3.48
454.132	3.5
454.486	3.51
454.839	3.55
455.193	3.56
455.547	3.59
455.9	3.58
456.254	3.58
456.607	3.55
456.961	3.55
457.314	3.56
457.668	3.57
458.021	3.57
458.375	3.57
458.728	3.59
459.081	3.6
459.434	3.6
459.787	3.61
460.141	3.61
460.494	3.6
460.847	3.61
461.2	3.61
461.553	3.62
461.906	3.62
462.259	3.6
462.611	3.59
462.964	3.58
463.317	3.59
463.67	3.59
464.022	3.6
464.375	3.61
464.728	3.63
465.08	3.64
465.433	3.69
465.785	3.7
466.138	3.7
466.49	3.72
466.843	3.72
467.195	3.76
467.547	3.78
467.899	3.79
468.252	3.8
468.604	3.79
468.956	3.81
469.308	3.83
469.66	3.85
470.012	3.88
470.364	3.91
470.716	3.94
471.068	3.97
471.42	3.99
471.772	4.01
472.123	4.02
472.475	4.03
472.827	4
473.178	4.02
473.53	4.04
473.882	4.05
474.233	4.08
474.585	4.07
474.936	4.06
475.288	4.06
475.639	4.06
475.99	4.07
476.342	4.03
476.693	4.02
477.044	4.01
477.395	4
477.746	4
478.097	3.99
478.448	3.97
478.8	3.96
479.15	3.93
479.501	3.92
479.852	3.91
480.203	3.9
480.554	3.89
480.905	3.88
481.255	3.88
481.606	3.87
481.957	3.87
482.307	3.88
482.658	3.89
483.009	3.88
483.359	3.88
483.709	3.89
484.06	3.88
484.41	3.88
484.761	3.88
485.111	3.87
485.461	3.86
485.811	3.86
486.162	3.85
486.512	3.86
486.862	3.86
487.212	3.86
487.562	3.85
487.912	3.86
488.262	3.86
488.612	3.86
488.961	3.86
489.311	3.86
489.661	3.83
490.011	3.81
490.36	3.81
490.71	3.81
491.06	3.81
491.409	3.82
491.759	3.83
492.108	3.84
492.458	3.83
492.807	3.85
493.157	3.87
493.506	3.88
493.855	3.89
494.204	3.91
494.554	3.91
494.903	3.94
495.252	3.94
495.601	3.97
495.95	3.99
496.299	4.03
496.648	4.06
496.997	4.12
497.346	4.16
497.695	4.22
498.043	4.27
498.392	4.32
498.741	4.37
499.09	4.4
499.438	4.45
499.787	4.51
500.135	4.55
500.484	4.59
500.832	4.64
501.181	4.71
501.529	4.78
501.878	4.86
502.226	4.94
502.574	5.03
502.923	5.13
503.271	5.23
503.619	5.31
503.967	5.39
504.315	5.48
504.663	5.58
505.011	5.67
505.359	5.77
505.707	5.86
506.055	5.98
506.403	6.11
506.751	6.22
507.098	6.36
507.446	6.48
507.794	6.63
508.141	6.8
508.489	6.94
508.837	7.08
509.184	7.25
509.531	7.38
509.879	7.53
510.226	7.67
510.574	7.82
510.921	7.99
511.268	8.17
511.616	8.35
511.963	8.55
512.31	8.73
512.657	8.91
513.004	9.13
513.351	9.34
513.698	9.58
514.045	9.83
514.392	10.06
514.739	10.32
515.086	10.54
515.432	10.78
515.779	11.02
516.126	11.27
516.473	11.48
516.819	11.72
517.166	11.94
517.512	12.13
517.859	12.36
518.205	12.53
518.552	12.73
518.898	12.97
519.245	13.17
519.591	13.39
519.937	13.61
520.283	13.82
520.629	14.04
520.976	14.27
521.322	14.52
521.668	14.76
522.014	14.96
522.36	15.21
522.706	15.46
523.052	15.74
523.398	15.98
523.743	16.3
524.089	16.59
524.435	16.88
524.781	17.18
525.126	17.44
525.472	17.72
525.817	17.95
526.163	18.12
526.509	18.29
526.854	18.46
527.199	18.61
527.545	18.77
527.89	18.94
528.235	19.11
528.581	19.28
528.926	19.45
529.271	19.65
529.616	19.85
529.961	20.04
530.306	20.21
530.651	20.41
530.996	20.61
531.341	20.83
531.686	21.02
532.031	21.22
532.376	21.43
532.721	21.65
533.065	21.88
533.41	22.14
533.755	22.4
534.099	22.68
534.444	22.95
534.788	23.2
535.133	23.44
535.477	23.69
535.822	23.95
536.166	24.24
536.51	24.51
536.855	24.78
537.199	25.08
537.543	25.39
537.887	25.73
538.231	26.01
538.576	26.32
538.92	26.62
539.264	26.94
539.608	27.24
539.951	27.48
540.295	27.73
540.639	28.01
540.983	28.27
541.327	28.49
541.671	28.72
542.014	28.98
542.358	29.2
542.701	29.4
543.045	29.64
543.389	29.83
543.732	30.07
544.075	30.33
544.419	30.54
544.762	30.79
545.105	31.04
545.449	31.31
545.792	31.62
546.135	31.93
546.478	32.18
546.821	32.46
547.165	32.77
547.508	33.07
547.851	33.34
548.194	33.62
548.536	33.94
548.879	34.22
549.222	34.49
549.565	34.78
549.908	35.09
550.25	35.32
550.593	35.59
550.936	35.85
551.278	36.1
551.621	36.41
551.963	36.7
552.306	36.93
552.648	37.18
552.991	37.37
553.333	37.6
553.675	37.94
554.017	38.18
554.36	38.39
554.702	38.59
555.044	38.75
555.386	38.94
555.728	39.14
556.07	39.41
556.412	39.65
556.754	39.89
557.096	40.12
557.438	40.4
557.78	40.69
558.121	40.95
558.463	41.22
558.805	41.47
559.147	41.65
559.488	41.88
559.83	42.09
560.171	42.3
560.513	42.47
560.854	42.63
561.196	42.86
561.537	43.07
561.878	43.28
562.22	43.43
562.561	43.61
562.902	43.77
563.243	43.87
563.584	43.99
563.925	44.14
564.266	44.25
564.607	44.35
564.948	44.47
565.289	44.61
565.63	44.7
565.971	44.81
566.312	44.97
566.653	45.12
566.993	45.29
567.334	45.47
567.675	45.62
568.015	45.7
568.356	45.88
568.696	46
569.037	46.13
569.377	46.32
569.718	46.47
570.058	46.56
570.398	46.76
570.739	46.89
571.079	47.08
571.419	47.35
571.759	47.47
572.099	47.59
572.439	47.71
572.779	47.83
573.119	48.05
573.459	48.18
573.799	48.24
574.139	48.36
574.479	48.39
574.819	48.49
575.158	48.65
575.498	48.74
575.838	48.86
576.177	48.98
576.517	49.09
576.856	49.16
577.196	49.41
577.535	49.49
577.875	49.65
578.214	49.63
578.553	49.62
578.893	49.79
579.232	49.94
579.571	50.06
579.91	50.23
580.25	50.14
580.589	50.16
580.928	50.28
581.267	50.35
581.606	50.52
581.945	50.59
582.283	50.62
582.622	50.6
582.961	50.65
583.3	50.71
583.639	50.79
583.977	50.93
584.316	50.92
584.654	51.09
584.993	51.2
585.332	51.35
585.67	51.47
586.008	51.56
586.347	51.6
586.685	51.65
587.024	51.62
587.362	51.72
587.7	51.89
588.038	52.01
588.376	52.1
588.715	52.13
589.053	52.28
589.391	52.39
589.729	52.34
590.067	52.38
590.404	52.44
590.742	52.52
591.08	52.57
591.418	52.66
591.756	52.6
592.093	52.6
592.431	52.63
592.769	52.63
593.106	52.73
593.444	52.85
593.781	52.93
594.119	52.97
594.456	53.11
594.793	53.08
595.131	53.22
595.468	53.26
595.805	53.36
596.143	53.39
596.48	53.37
596.817	53.54
597.154	53.61
597.491	53.62
597.828	53.68
598.165	53.78
598.502	53.81
598.839	53.94
599.176	54.04
599.512	54.17
599.849	54.29
600.186	54.31
600.523	54.35
600.859	54.43
601.196	54.51
601.532	54.52
601.869	54.71
602.205	54.68
602.542	54.68
602.878	54.68
603.215	54.7
603.551	54.78
603.887	54.79
604.223	54.85
604.56	54.89
604.896	54.85
605.232	54.92
605.568	54.95
605.904	54.98
606.24	54.99
606.576	54.93
606.912	54.96
607.248	55.04
607.583	55.02
607.919	54.98
608.255	55.02
608.591	55.03
608.926	55
609.262	55.04
609.597	55.14
609.933	55.25
610.268	55.25
610.604	55.28
610.939	55.41
611.275	55.35
611.61	55.4
611.945	55.44
612.281	55.46
612.616	55.55
612.951	55.58
613.286	55.57
613.621	55.68
613.956	55.73
614.291	55.63
614.626	55.71
614.961	55.82
615.296	55.8
615.631	55.85
615.966	55.79
616.3	55.77
616.635	55.82
616.97	55.81
617.304	55.87
617.639	55.98
617.973	55.91
618.308	56.03
618.642	56.1
618.977	56.22
619.311	56.14
619.646	56.08
619.98	56.07
620.314	56.08
620.648	56.05
620.983	56.01
621.317	56.1
621.651	56.09
621.985	56.16
622.319	56.25
622.653	56.24
622.987	56.25
623.321	56.35
623.655	56.4
623.988	56.42
624.322	56.44
624.656	56.43
624.99	56.5
625.323	56.51
625.657	56.56
625.99	56.48
626.324	56.53
626.657	56.64
626.991	56.62
627.324	56.65
627.658	56.72
627.991	56.75
628.324	56.77
628.657	56.78
628.991	56.78
629.324	56.88
629.657	56.9
629.99	57.01
630.323	56.95
630.656	56.88
630.989	56.94
631.322	57
631.655	57.1
631.987	57.11
632.32	57.12
632.653	57.08
632.986	57.15
633.318	57.15
633.651	57.04
633.984	57.07
634.316	57.16
634.649	57.13
634.981	57.18
635.313	57.1
635.646	57.13
635.978	57.02
636.31	56.97
636.643	57.07
636.975	57.1
637.307	57.09
637.639	57.1
637.971	57.02
638.303	57.1
638.635	56.97
638.967	56.9
639.299	57.01
639.631	56.98
639.963	57.11
640.295	57.19
640.626	57.25
640.958	57.31
641.29	57.2
641.621	57.28
641.953	57.33
642.285	57.42
642.616	57.44
642.948	57.44
643.279	57.57
643.61	57.56
643.942	57.47
644.273	57.6
644.604	57.64
644.936	57.64
645.267	57.43
645.598	57.36
645.929	57.48
646.26	57.35
646.591	57.39
646.922	57.3
647.253	57.11
647.584	57.19
647.915	57.28
648.245	57.4
648.576	57.42
648.907	57.43
649.238	57.38
649.568	57.5
649.899	57.64
650.229	57.53
650.56	57.51
650.89	57.61
651.221	57.64
651.551	57.6
651.882	57.59
652.212	57.68
652.542	57.87
652.872	57.8
653.203	57.93
653.533	57.98
653.863	57.95
654.193	58.2
654.523	58.2
654.853	58.21
655.183	58.22
655.513	58.24
655.843	58.15
656.172	58.3
656.502	58.26
656.832	58.17
657.162	58.33
657.491	58.42
657.821	58.41
658.15	58.42
658.48	58.49
658.809	58.5
659.139	58.56
659.468	58.52
659.798	58.53
660.127	58.53
660.456	58.45
660.785	58.52
661.115	58.55
661.444	58.62
661.773	58.67
662.102	58.69
662.431	58.64
662.76	58.68
663.089	58.77
663.418	58.68
663.747	58.75
664.076	58.66
664.404	58.76
664.733	58.74
665.062	58.71
665.39	58.7
665.719	58.76
666.048	58.61
666.376	58.61
666.705	58.65
667.033	58.68
667.362	58.72
667.69	58.81
668.018	58.7
668.347	58.51
668.675	58.49
669.003	58.55
669.331	58.64
669.659	58.57
669.987	58.58
670.315	58.84
670.643	58.95
670.971	58.9
671.299	58.75
671.627	58.82
671.955	58.85
672.283	58.75
672.61	58.89
672.938	59.13
673.266	59.29
673.593	59.3
673.921	59.25
674.249	59.29
674.576	59.2
674.904	59.14
675.231	59.34
675.558	59.27
675.886	59.23
676.213	59.35
676.54	59.52
676.867	59.35
677.195	59.09
677.522	59.12
677.849	59.18
678.176	59.16
678.503	59.24
678.83	59.21
679.157	59.41
679.484	59.4
679.81	59.41
680.137	59.44
680.464	59.57
680.791	59.75
681.117	59.86
681.444	59.88
681.771	59.94
682.097	59.81
682.424	59.79
682.75	59.85
683.077	59.83
683.403	59.75
683.729	59.95
684.056	60.06
684.382	60.11
684.708	60.12
685.034	60.19
685.36	60.17
685.686	60.16
686.012	60.08
686.339	60.07
686.664	59.96
686.99	59.85
687.316	59.72
687.642	59.61
687.968	59.58
688.294	59.58
688.619	59.65
688.945	59.8
689.271	59.85
689.596	59.8
689.922	59.55
690.247	59.66
690.573	59.45
690.898	59.56
691.224	59.61
691.549	59.77
691.874	59.75
692.2	59.62
692.525	59.71
692.85	59.82
693.175	59.71
693.5	59.7
693.825	59.7
694.15	59.85
694.475	59.8
694.8	59.82
695.125	59.95
695.45	60.01
695.775	59.99
696.099	60.21
696.424	60.11
696.749	60.29
697.073	60.34
697.398	60.32
697.723	60.32
698.047	60.11
698.372	60
698.696	59.73
699.02	59.7
699.345	59.71
699.669	59.56
699.993	59.57
700.318	59.7
700.642	59.64
700.966	59.57
701.29	59.61
701.614	59.58
701.938	59.55
702.262	59.4
702.586	59.41
702.91	59.12
703.234	59.13
703.557	59.02
703.881	59.01
704.205	59.13
704.529	58.97
704.852	58.78
705.176	58.56
705.499	58.96
705.823	59.1
706.146	59.11
706.47	59.18
706.793	59.24
707.117	59.16
707.44	59.47
707.763	59.38
708.086	59.25
708.409	59.28
708.733	59.19
709.056	59.28
709.379	59.22
709.702	59.4
710.025	59.51
710.348	59.59
710.671	59.37
710.993	59.29
711.316	59.29
711.639	59.57
711.962	59.8
712.284	59.82
712.607	59.83
712.93	59.79
713.252	59.87
713.575	59.81
713.897	59.87
714.22	59.63
714.542	59.53
714.864	59.68
715.187	59.68
715.509	59.81
715.831	59.8
716.153	59.75
716.475	59.75
716.798	59.59
717.12	59.46
717.442	59.65
717.764	59.55
718.085	59.68
718.407	59.81
718.729	59.81
719.051	59.81
719.373	59.64
719.695	59.63
720.016	59.72
720.338	60.01
720.659	59.86
720.981	60.09
721.302	60.3
721.624	60.37
721.945	60.19
722.267	59.94
722.588	59.93
722.909	60.1
723.231	60.05
723.552	60.32
723.873	60.55
724.194	60.38
724.515	60.77
724.836	60.74
725.157	60.6
725.478	60.5
725.799	60.41
726.12	60.85
726.441	61.26
726.762	61.31
727.083	61.38
727.403	61.38
727.724	61.27
728.045	61.1
728.365	61.08
728.686	61.34
729.006	61.52
729.327	61.54
729.647	61.36
729.967	61.58
730.288	61.46
730.608	61.39
730.928	61.44
731.249	61.47
731.569	61.31
731.889	61.2
732.209	61.48
732.529	61.59
732.849	61.17
733.169	60.64
733.489	60.56
733.809	60.21
734.129	60.27
734.448	60.26
734.768	60.4
735.088	60.27
735.408	60.18
735.727	60.3
736.047	60.27
736.366	60.33
736.686	59.73
737.005	59.71
737.325	59.74
737.644	59.57
737.963	59.33
738.283	59.55
738.602	59.72
738.921	59.34
739.24	59.42
739.56	59.53
739.879	59.71
740.198	59.49
740.517	59.79
740.836	59.56
741.155	59.75
741.473	59.9
741.792	59.88
742.111	59.93
742.43	59.82
742.748	59.95
743.067	60.11
743.386	60.44
743.704	60.59
744.023	60.57
744.341	60.88
744.66	60.75
744.978	60.85
745.297	60.94
745.615	61.32
745.933	61.44
746.252	61.73
746.57	61.99
746.888	62.18
747.206	62.02
747.524	61.95
747.842	61.38
748.16	61.28
748.478	61.51
748.796	61.69
749.114	61.8
749.432	62.05
749.749	62.16
750.067	62.36
750.385	62.17
750.703	62.39
751.02	62.86
751.338	63.04
751.655	63.01
751.973	63.25
752.29	63.45
752.608	63.39
752.925	63.45
753.242	63.15
753.56	62.77
753.877	62.78
754.194	63.26
754.511	63.33
754.828	63.29
755.145	63.22
755.462	63.09
755.779	62.94
756.096	62.85
756.413	62.66
756.73	62.5
757.047	62.48
757.364	62.42
757.68	61.92
757.997	62.24
758.314	62.16
758.63	61.74
758.947	61.12
759.264	60.74
759.58	60.68
759.896	60.94
760.213	61.22
760.529	61.56
760.846	61.67
761.162	62.1
761.478	62.32
761.794	62.23
762.11	62.21
762.426	62.36
762.743	62.11
763.059	62.2
763.375	62.4
763.69	62.3
764.006	62.3
764.322	62.23
764.638	62.14
764.954	62.31
765.27	62.32
765.585	62.4
765.901	62.29
766.216	62.25
766.532	62.01
766.848	62.28
767.163	62.08
767.478	61.93
767.794	61.74
768.109	61.26
768.424	61.07
768.74	60.58
769.055	60.68
769.37	60.62
769.685	60.55
770	60.27
770.315	60.5
770.63	60.57
770.945	60.61
771.26	60.16
771.575	59.75
771.89	59.87
772.205	60.32
772.52	61.1
772.834	61.13
773.149	61.07
773.464	60.92
773.778	60.68
774.093	60.5
774.407	60.64
774.722	60.87
775.036	60.93
775.351	61.66
775.665	60.85
775.979	61.39
776.293	61.42
776.608	61.39
776.922	61.29
777.236	61.01
777.55	60.88
777.864	61.37
778.178	61.57
778.492	61.56
778.806	61.08
779.12	60.64
779.434	60.44
779.747	61.28
780.061	61.4
780.375	61.67
780.689	62.14
781.002	61.66
781.316	61.97
781.629	62.12
781.943	61.9
782.256	61.61
782.57	61.39
782.883	61.54
783.196	61.74
783.51	61.49
783.823	61.64
784.136	61.41
784.449	61.19
784.762	61.25
785.075	61.2
785.388	61.3
785.701	61.82
786.014	62.45
786.327	61.92
786.64	61.54
786.953	61.32
787.266	60.99
787.578	61.78
787.891	61.59
788.204	61.76
788.516	61.53
788.829	61.69
789.141	61.18
789.454	60.35
789.766	60.7
790.079	60.89
790.391	60.86
790.703	61.44
791.016	60.82
791.328	61.18
791.64	61.28
791.952	61.24
792.264	60.62
792.576	59.7
792.888	59.88
793.2	59.93
793.512	60
793.824	59.98
794.136	59.31
794.448	59.52
794.76	59.93
795.071	60.07
795.383	60.61
795.695	61.16
796.006	62.14
796.318	61.92
796.629	61.65
796.941	61.76
797.252	62.05
797.564	62.73
797.875	62.45
798.186	62.67
798.497	62.88
798.809	62.59
799.12	62.62
799.431	62.51
799.742	63.42
800.053	63.72
800.364	64.4
800.675	64
800.986	63.72
801.297	62.97
801.608	63.25
801.918	63.7
802.229	63.37
802.54	63.5
802.851	63.2
803.161	63.99
803.472	63.77
803.782	64.09
804.093	63.84
804.403	63.63
804.714	63.67
805.024	63.5
805.334	64.17
805.645	64.28
805.955	64.25
806.265	63.03
806.575	62.77
806.885	62.42
807.195	63.14
807.505	63.19
807.815	63.94
808.125	64.1
808.435	63.64
808.745	63.04
809.055	62.64
809.365	63.08
809.674	62.87
809.984	62.28
810.294	61.67
810.603	62.05
810.913	62.03
811.222	61.57
811.532	62.12
811.841	62.09
812.151	62.77
812.46	62.51
812.769	63.49
813.079	64.44
813.388	64.6
813.697	63.8
814.006	64.18
814.315	63.35
814.624	62.95
814.933	63.03
815.242	64.31
815.551	63.78
815.86	62.28
816.169	61.42
816.478	62.92
816.786	61.95
817.095	61.98
817.404	62.15
817.712	62.05
818.021	61.73
818.33	61.57
818.638	61.18
818.947	61.1
819.255	61.14
819.563	61.06
819.872	61.11
820.18	61.89
820.488	61.86
820.796	62.06
821.105	62.55
821.413	62.58
821.721	62.69
822.029	62.73
822.337	63.16
822.645	63.5
822.953	63.5
823.26	63.85
823.568	63.92
823.876	63.98
824.184	64.02
824.491	64.02
824.799	64.1
825.107	64.28
825.414	64.23
825.722	64.28
826.029	64.29
826.337	64.23
826.644	64.22
826.951	64.33
827.259	64.5
827.566	64.55
827.873	64.6
828.18	64.53
828.488	64.68
828.795	64.32
829.102	64.55
829.409	64.17
829.716	63.73
830.023	63.55
830.329	63.53
830.636	63.28
830.943	63.05
831.25	62.61
831.557	63.03
831.863	63.16
832.17	62.81
832.476	62.68
832.783	63.11
833.089	62.5
833.396	62.64
833.702	62.22
834.009	62.15
834.315	62.2
834.621	62.59
834.928	63.19
835.234	63.57
835.54	63.2
835.846	63.41
836.152	63.82
836.458	63.69
836.764	63.39
837.07	63.91
837.376	63.84
837.682	63.86
837.988	63.26
838.293	63.4
838.599	63.88
838.905	64.07
839.211	62.75
839.516	63.49
839.822	63.2
840.127	63.43
840.433	63.43
840.738	63.27
841.044	62.21
841.349	61.33
841.654	62
841.959	60.92
842.265	60.55
842.57	60.16
842.875	60.31
843.18	59.85
843.485	58.65
843.79	59.23
844.095	59.35
844.4	59.07
844.705	60.28
845.01	59.91
845.315	57.84
845.619	60.62
845.924	59.15
846.229	59.03
846.533	59.31
846.838	58.22
847.142	57.54
847.447	57.01
847.751	57.16
848.056	54.89
848.36	55
848.664	55.21
848.969	56.13
849.273	55.21
849.577	57.42
849.881	56.74
850.185	56.16
850.489	59.57
850.794	61.13
851.097	58.49
851.401	56.65
851.705	58.66
852.009	57.68
852.313	59.05
852.617	58.45
852.92	56.99
853.224	56.64
853.528	59.02
853.831	60.62
854.135	61.2
854.438	64.4
854.742	65.01
855.045	65.11
855.349	63.16
855.652	64.03
855.955	64.89
856.259	67.31
856.562	66.62
856.865	63.26
857.168	61.93
857.471	63.21
857.774	62.3
858.077	62.39
858.38	61.11
858.683	64.49
858.986	64.69
859.289	64.96
859.592	65.23
859.894	62.81
860.197	62.05
860.5	59.89
860.802	59.82
861.105	58.68
861.407	58.55
861.71	57.71
862.012	58.5
862.315	57.09
862.617	55.13
862.919	55.65
863.222	56.92
863.524	57.26
863.826	56.04
864.128	55.4
864.43	56.92
864.732	57.42
865.034	53.45
865.336	53.48
865.638	53.56
865.94	52.87
866.242	53.49
866.544	55.41
866.846	56.98
867.147	56.34
867.449	55.91
867.751	55.66
868.052	55.85
868.354	58.73
868.655	57.89
868.957	60.46
869.258	59.74
869.56	60.8
869.861	58.47
870.162	61.13
870.463	62.7
870.765	59.99
871.066	57.87
871.367	57.2
871.668	56.89
871.969	58.47
872.27	58.22
872.571	60.58
872.872	59.2
873.173	57.58
873.473	55.96
873.774	55.81
874.075	56.3
874.376	57.88
874.676	54.92
874.977	55.91
875.277	55.62
875.578	56.59
875.878	54.42
876.179	55.01
876.479	53.58
876.78	54.8
877.08	55.97
877.38	58.43
877.68	61.23
877.981	61.46
878.281	60.39
878.581	61.34
