Data from MVZ_BU28167_Reflection_00012.txt Node
Date: Tue Nov 19 12:17:41 EST 2019
User: vgr7
Spectrometer: USB2G7710
Scans to average: 3
Trigger mode: 4
Integration Time (sec): 2.000000E-2
Electric dark correction enabled: true
Boxcar width: 10
XAxis mode: Wavelengths
Number of Pixels in Spectrum: 2048
>>>>>Begin Spectral Data<<<<<
177.721	606.76
178.105	-733.33
178.488	42.31
178.871	15.63
179.254	-50
179.636	2.6
180.019	7.53
180.402	160
180.785	-155
181.168	-70.45
181.55	-23.49
181.933	-10.89
182.316	-5.49
182.698	-15.29
183.081	-14.06
183.463	-30.83
183.846	-28.79
184.228	4.53
184.611	-25.54
184.993	-31.63
185.376	-57.17
185.758	-63.76
186.14	-48.36
186.522	-54.53
186.904	-64.13
187.287	-30.06
187.669	-25.41
188.051	-17.6
188.433	-9.58
188.815	-10.58
189.197	-1.4
189.579	-6.37
189.961	-16.07
190.342	-20.65
190.724	-51.87
191.106	-38.51
191.488	-37.32
191.869	-78.57
192.251	173.53
192.633	-618.75
193.014	1475
193.396	60.94
193.777	2975
194.159	1787.5
194.54	-210.61
194.922	-305.17
195.303	-208.33
195.684	-806.25
196.065	-295.83
196.447	-167.86
196.828	-310.71
197.209	-25
197.59	-42.05
197.971	-80.56
198.352	16.67
198.733	-19.75
199.114	18.98
199.495	-0.49
199.876	-27.84
200.257	28.92
200.638	53.13
201.018	38.52
201.399	778.57
201.78	225
202.16	-107.14
202.541	-368.75
202.922	2891.67
203.302	-207.93
203.683	-173.81
204.063	-138
204.444	-91.99
204.824	-98.33
205.204	-58.43
205.585	-106.38
205.965	-141.32
206.345	-104.8
206.725	-153.11
207.106	-91.09
207.486	-55.71
207.866	-55.33
208.246	-13.01
208.626	-32.25
209.006	-4.3
209.386	81.06
209.766	183.33
210.145	199.32
210.525	311.54
210.905	260.71
211.285	301.92
211.664	396.43
212.044	331.48
212.424	436.96
212.803	276.34
213.183	365.38
213.562	480.77
213.942	436.81
214.321	584.38
214.701	447.01
215.08	426.27
215.459	364.08
215.838	425.47
216.218	632.89
216.597	181.93
216.976	134.84
217.355	83.25
217.734	57.88
218.113	66.4
218.492	77.41
218.871	110.94
219.25	118.9
219.629	111.01
220.008	134.17
220.387	108.62
220.766	114.8
221.144	103.59
221.523	76.6
221.902	76.24
222.28	74.04
222.659	67.77
223.037	71.88
223.416	56.15
223.794	42.21
224.173	38.58
224.551	39.42
224.929	39.33
225.308	25.8
225.686	19.01
226.064	11.68
226.442	12.87
226.821	11.29
227.199	10.56
227.577	13.96
227.955	10.32
228.333	12.29
228.711	9.96
229.089	7.02
229.467	13.97
229.845	10.56
230.222	10.26
230.6	10.19
230.978	12.82
231.356	11.15
231.733	13.42
232.111	11.34
232.488	11.07
232.866	14.28
233.243	15.05
233.621	18.31
233.998	16.76
234.376	14.01
234.753	12.81
235.13	12.27
235.508	11.53
235.885	13.02
236.262	11.1
236.639	8.18
237.016	8.83
237.393	7.91
237.77	8.75
238.147	9.43
238.524	8.13
238.901	6.13
239.278	5.65
239.655	5.88
240.032	5.58
240.409	5.6
240.785	4.97
241.162	4.56
241.539	3.16
241.915	2.99
242.292	3.26
242.668	3.26
243.045	3.51
243.421	3.9
243.798	3.66
244.174	3.46
244.551	3.58
244.927	3.43
245.303	3.05
245.679	2.9
246.056	2.64
246.432	3.13
246.808	3.38
247.184	3.65
247.56	3.43
247.936	3.96
248.312	3.85
248.688	4.01
249.064	4.07
249.44	3.99
249.815	4.28
250.191	4.29
250.567	4.2
250.943	4.15
251.318	4
251.694	3.85
252.069	4
252.445	4.24
252.82	4.14
253.196	4.1
253.571	4.55
253.947	4.74
254.322	4.01
254.697	3.95
255.073	3.66
255.448	3.62
255.823	3.15
256.198	3.17
256.573	3.17
256.948	3.25
257.323	3.51
257.698	3.31
258.073	3.08
258.448	3.21
258.823	3.14
259.198	2.99
259.573	3.02
259.948	3
260.322	2.95
260.697	3.05
261.072	3.08
261.446	3.09
261.821	3.04
262.195	3.21
262.57	3.14
262.944	3.13
263.319	3.4
263.693	3.58
264.067	3.65
264.442	3.6
264.816	3.59
265.19	3.34
265.564	3.25
265.938	3.39
266.313	3.39
266.687	3.49
267.061	3.72
267.435	3.87
267.809	3.72
268.183	3.58
268.556	3.51
268.93	3.67
269.304	3.47
269.678	3.58
270.051	3.35
270.425	3.39
270.799	3.29
271.172	3.17
271.546	2.97
271.919	2.89
272.293	2.89
272.666	2.85
273.04	3.13
273.413	3.12
273.787	3.19
274.16	3.06
274.533	3.11
274.906	2.99
275.279	2.84
275.653	3
276.026	3.05
276.399	3.06
276.772	3.07
277.145	3.03
277.518	2.87
277.891	3.15
278.263	3.17
278.636	3.31
279.009	3.26
279.382	3.31
279.755	3.3
280.127	3.32
280.5	3.19
280.872	3.27
281.245	3.3
281.617	3.27
281.99	3.33
282.362	3.2
282.735	3.17
283.107	3.16
283.479	2.99
283.852	2.9
284.224	2.99
284.596	3.09
284.968	3.09
285.34	3.11
285.713	3.25
286.085	3.19
286.457	3.28
286.829	3.29
287.201	3.38
287.572	3.44
287.944	3.47
288.316	3.48
288.688	3.43
289.06	3.55
289.431	3.6
289.803	3.69
290.175	3.79
290.546	3.82
290.918	4.01
291.289	4.06
291.661	4.21
292.032	4.32
292.403	4.32
292.775	4.39
293.146	4.41
293.517	4.16
293.889	4.23
294.26	4.08
294.631	4.13
295.002	4.15
295.373	4.1
295.744	3.91
296.115	4
296.486	3.98
296.857	4.09
297.228	3.99
297.599	4.07
297.97	3.96
298.34	3.97
298.711	4.06
299.082	4.22
299.452	4.1
299.823	3.99
300.194	3.96
300.564	3.89
300.935	3.88
301.305	3.96
301.676	3.84
302.046	3.94
302.416	3.85
302.787	3.75
303.157	3.79
303.527	4.03
303.897	4.05
304.267	4.04
304.637	3.84
305.008	4.08
305.378	4.02
305.748	4.12
306.117	4.16
306.487	3.98
306.857	4.06
307.227	4.37
307.597	4.39
307.967	4.5
308.336	4.64
308.706	4.75
309.076	4.94
309.445	5.07
309.815	5.08
310.184	5.1
310.554	5.09
310.923	5.13
311.293	5.17
311.662	5.3
312.031	5.35
312.401	5.33
312.77	5.17
313.139	5.31
313.508	5.38
313.877	5.47
314.246	5.67
314.616	5.64
314.985	5.62
315.353	5.78
315.722	5.82
316.091	5.81
316.46	5.9
316.829	5.9
317.198	5.97
317.567	6.25
317.935	6.3
318.304	6.52
318.672	6.6
319.041	6.65
319.41	6.52
319.778	6.78
320.147	6.94
320.515	7.04
320.883	6.94
321.252	6.97
321.62	6.95
321.988	6.82
322.357	6.79
322.725	6.92
323.093	6.88
323.461	6.82
323.829	7.09
324.197	7.05
324.565	6.99
324.933	6.89
325.301	6.75
325.669	6.85
326.037	6.96
326.405	7.04
326.772	7.17
327.14	7.11
327.508	6.85
327.875	6.88
328.243	6.86
328.61	6.83
328.978	6.72
329.346	6.68
329.713	6.77
330.08	6.95
330.448	6.86
330.815	6.86
331.182	6.82
331.55	6.64
331.917	6.7
332.284	6.69
332.651	6.87
333.018	6.86
333.385	6.9
333.752	6.86
334.119	6.87
334.486	6.86
334.853	7.2
335.22	7.3
335.587	7.35
335.954	7.47
336.32	7.5
336.687	7.58
337.054	7.7
337.42	7.7
337.787	7.61
338.153	7.67
338.52	7.77
338.886	7.83
339.253	7.81
339.619	7.79
339.986	7.83
340.352	7.8
340.718	7.96
341.084	7.83
341.451	7.88
341.817	7.8
342.183	7.71
342.549	7.62
342.915	7.76
343.281	7.78
343.647	7.78
344.013	7.93
344.379	7.98
344.745	8.05
345.11	8.03
345.476	8.22
345.842	8.14
346.208	8.17
346.573	8.19
346.939	8.16
347.304	8.26
347.67	8.16
348.035	8.32
348.401	8.21
348.766	8.21
349.132	8.16
349.497	8.2
349.862	8.34
350.228	8.34
350.593	8.35
350.958	8.33
351.323	8.34
351.688	8.21
352.053	8.22
352.418	8.19
352.783	8.22
353.148	7.98
353.513	8
353.878	7.88
354.243	7.77
354.608	7.85
354.972	7.73
355.337	7.77
355.702	7.65
356.066	7.68
356.431	7.8
356.795	7.8
357.16	7.8
357.524	7.72
357.889	7.67
358.253	7.54
358.618	7.49
358.982	7.45
359.346	7.48
359.71	7.42
360.075	7.42
360.439	7.46
360.803	7.54
361.167	7.57
361.531	7.65
361.895	7.65
362.259	7.64
362.623	7.69
362.987	7.69
363.351	7.65
363.714	7.67
364.078	7.6
364.442	7.55
364.806	7.55
365.169	7.54
365.533	7.58
365.896	7.69
366.26	7.65
366.623	7.64
366.987	7.62
367.35	7.71
367.714	7.67
368.077	7.62
368.44	7.58
368.803	7.51
369.167	7.38
369.53	7.4
369.893	7.38
370.256	7.29
370.619	7.17
370.982	7.05
371.345	7.02
371.708	6.97
372.071	6.9
372.434	6.87
372.797	6.75
373.159	6.69
373.522	6.49
373.885	6.45
374.247	6.41
374.61	6.32
374.973	6.23
375.335	6.17
375.698	6.11
376.06	6.06
376.423	6.01
376.785	6
377.147	5.9
377.51	5.87
377.872	5.84
378.234	5.9
378.596	5.93
378.958	5.91
379.321	5.84
379.683	5.86
380.045	5.72
380.407	5.73
380.769	5.65
381.13	5.67
381.492	5.64
381.854	5.62
382.216	5.67
382.578	5.56
382.939	5.53
383.301	5.5
383.663	5.45
384.024	5.45
384.386	5.43
384.747	5.45
385.109	5.36
385.47	5.34
385.832	5.27
386.193	5.24
386.554	5.16
386.916	5.17
387.277	5.15
387.638	5.21
387.999	5.14
388.36	5.14
388.721	5.14
389.082	5.13
389.443	5.14
389.804	5.1
390.165	5.11
390.526	5.13
390.887	5.1
391.248	5.05
391.609	5.02
391.969	5
392.33	4.94
392.691	4.93
393.051	4.88
393.412	4.86
393.772	4.85
394.133	4.83
394.493	4.79
394.854	4.77
395.214	4.73
395.574	4.75
395.935	4.72
396.295	4.66
396.655	4.64
397.015	4.59
397.376	4.58
397.736	4.55
398.096	4.47
398.456	4.44
398.816	4.45
399.176	4.37
399.535	4.34
399.895	4.34
400.255	4.33
400.615	4.31
400.975	4.3
401.334	4.24
401.694	4.24
402.054	4.22
402.413	4.18
402.773	4.13
403.132	4.13
403.492	4.11
403.851	4.11
404.211	4.07
404.57	4.05
404.929	4.02
405.288	4.02
405.648	3.99
406.007	3.99
406.366	3.96
406.725	3.98
407.084	3.97
407.443	3.95
407.802	3.97
408.161	3.95
408.52	3.95
408.879	3.96
409.238	3.91
409.596	3.89
409.955	3.9
410.314	3.92
410.673	3.9
411.031	3.87
411.39	3.87
411.748	3.9
412.107	3.89
412.465	3.88
412.824	3.82
413.182	3.83
413.54	3.82
413.899	3.84
414.257	3.83
414.615	3.79
414.974	3.75
415.332	3.73
415.69	3.72
416.048	3.71
416.406	3.67
416.764	3.68
417.122	3.64
417.48	3.62
417.838	3.58
418.195	3.54
418.553	3.53
418.911	3.49
419.269	3.46
419.626	3.44
419.984	3.42
420.342	3.42
420.699	3.4
421.057	3.38
421.414	3.35
421.772	3.34
422.129	3.33
422.486	3.33
422.844	3.31
423.201	3.31
423.558	3.28
423.915	3.29
424.273	3.27
424.63	3.28
424.987	3.29
425.344	3.3
425.701	3.3
426.058	3.3
426.415	3.3
426.772	3.28
427.128	3.28
427.485	3.27
427.842	3.27
428.199	3.29
428.555	3.28
428.912	3.28
429.269	3.28
429.625	3.27
429.982	3.27
430.338	3.26
430.695	3.23
431.051	3.25
431.407	3.24
431.764	3.25
432.12	3.26
432.476	3.24
432.832	3.24
433.189	3.23
433.545	3.21
433.901	3.23
434.257	3.24
434.613	3.25
434.969	3.21
435.325	3.2
435.681	3.16
436.036	3.16
436.392	3.16
436.748	3.15
437.104	3.17
437.459	3.16
437.815	3.16
438.171	3.17
438.526	3.16
438.882	3.17
439.237	3.16
439.593	3.15
439.948	3.15
440.304	3.14
440.659	3.14
441.014	3.16
441.369	3.15
441.725	3.15
442.08	3.14
442.435	3.17
442.79	3.16
443.145	3.19
443.5	3.19
443.855	3.17
444.21	3.18
444.565	3.18
444.92	3.19
445.275	3.18
445.629	3.19
445.984	3.18
446.339	3.17
446.693	3.18
447.048	3.17
447.403	3.16
447.757	3.15
448.112	3.16
448.466	3.14
448.82	3.16
449.175	3.16
449.529	3.17
449.883	3.18
450.238	3.2
450.592	3.18
450.946	3.17
451.3	3.17
451.654	3.16
452.008	3.13
452.362	3.15
452.716	3.17
453.07	3.17
453.424	3.16
453.778	3.16
454.132	3.13
454.486	3.14
454.839	3.13
455.193	3.13
455.547	3.12
455.9	3.13
456.254	3.09
456.607	3.09
456.961	3.08
457.314	3.09
457.668	3.08
458.021	3.09
458.375	3.09
458.728	3.1
459.081	3.1
459.434	3.09
459.787	3.09
460.141	3.08
460.494	3.07
460.847	3.07
461.2	3.09
461.553	3.11
461.906	3.11
462.259	3.1
462.611	3.09
462.964	3.11
463.317	3.12
463.67	3.14
464.022	3.16
464.375	3.18
464.728	3.17
465.08	3.17
465.433	3.17
465.785	3.18
466.138	3.19
466.49	3.21
466.843	3.27
467.195	3.28
467.547	3.28
467.899	3.29
468.252	3.33
468.604	3.3
468.956	3.29
469.308	3.29
469.66	3.32
470.012	3.36
470.364	3.36
470.716	3.36
471.068	3.36
471.42	3.36
471.772	3.36
472.123	3.37
472.475	3.4
472.827	3.42
473.178	3.45
473.53	3.47
473.882	3.47
474.233	3.46
474.585	3.44
474.936	3.45
475.288	3.47
475.639	3.48
475.99	3.48
476.342	3.52
476.693	3.53
477.044	3.52
477.395	3.51
477.746	3.49
478.097	3.48
478.448	3.47
478.8	3.45
479.15	3.43
479.501	3.41
479.852	3.39
480.203	3.37
480.554	3.36
480.905	3.35
481.255	3.33
481.606	3.33
481.957	3.32
482.307	3.32
482.658	3.32
483.009	3.3
483.359	3.31
483.709	3.3
484.06	3.3
484.41	3.3
484.761	3.31
485.111	3.32
485.461	3.32
485.811	3.32
486.162	3.32
486.512	3.33
486.862	3.34
487.212	3.34
487.562	3.34
487.912	3.34
488.262	3.34
488.612	3.36
488.961	3.36
489.311	3.36
489.661	3.36
490.011	3.36
490.36	3.37
490.71	3.38
491.06	3.38
491.409	3.38
491.759	3.38
492.108	3.39
492.458	3.39
492.807	3.4
493.157	3.41
493.506	3.43
493.855	3.44
494.204	3.45
494.554	3.47
494.903	3.5
495.252	3.53
495.601	3.55
495.95	3.57
496.299	3.61
496.648	3.65
496.997	3.69
497.346	3.74
497.695	3.78
498.043	3.81
498.392	3.88
498.741	3.94
499.09	3.99
499.438	4.03
499.787	4.08
500.135	4.14
500.484	4.22
500.832	4.27
501.181	4.35
501.529	4.41
501.878	4.5
502.226	4.59
502.574	4.67
502.923	4.77
503.271	4.86
503.619	4.94
503.967	5.04
504.315	5.15
504.663	5.26
505.011	5.38
505.359	5.48
505.707	5.61
506.055	5.75
506.403	5.86
506.751	6.01
507.098	6.16
507.446	6.29
507.794	6.44
508.141	6.6
508.489	6.75
508.837	6.91
509.184	7.06
509.531	7.22
509.879	7.39
510.226	7.55
510.574	7.71
510.921	7.89
511.268	8.08
511.616	8.27
511.963	8.44
512.31	8.64
512.657	8.89
513.004	9.09
513.351	9.34
513.698	9.6
514.045	9.83
514.392	10.1
514.739	10.34
515.086	10.61
515.432	10.86
515.779	11.13
516.126	11.4
516.473	11.63
516.819	11.85
517.166	12.08
517.512	12.32
517.859	12.53
518.205	12.75
518.552	12.97
518.898	13.19
519.245	13.43
519.591	13.62
519.937	13.8
520.283	14.06
520.629	14.23
520.976	14.47
521.322	14.73
521.668	15
522.014	15.28
522.36	15.54
522.706	15.8
523.052	16.11
523.398	16.4
523.743	16.7
524.089	17.04
524.435	17.36
524.781	17.6
525.126	17.89
525.472	18.14
525.817	18.38
526.163	18.55
526.509	18.75
526.854	18.93
527.199	19.1
527.545	19.27
527.89	19.47
528.235	19.65
528.581	19.79
528.926	19.94
529.271	20.12
529.616	20.29
529.961	20.47
530.306	20.62
530.651	20.82
530.996	21.03
531.341	21.23
531.686	21.44
532.031	21.67
532.376	21.9
532.721	22.13
533.065	22.35
533.41	22.62
533.755	22.88
534.099	23.14
534.444	23.4
534.788	23.61
535.133	23.83
535.477	24.07
535.822	24.35
536.166	24.62
536.51	24.88
536.855	25.2
537.199	25.52
537.543	25.85
537.887	26.14
538.231	26.44
538.576	26.74
538.92	27.05
539.264	27.33
539.608	27.56
539.951	27.82
540.295	28.04
540.639	28.31
540.983	28.52
541.327	28.74
541.671	29.01
542.014	29.26
542.358	29.5
542.701	29.73
543.045	29.95
543.389	30.17
543.732	30.38
544.075	30.57
544.419	30.76
544.762	30.98
545.105	31.22
545.449	31.49
545.792	31.73
546.135	31.98
546.478	32.26
546.821	32.59
547.165	32.82
547.508	33.12
547.851	33.34
548.194	33.61
548.536	33.8
548.879	34.06
549.222	34.29
549.565	34.54
549.908	34.77
550.25	34.98
550.593	35.23
550.936	35.54
551.278	35.83
551.621	36.08
551.963	36.31
552.306	36.49
552.648	36.76
552.991	36.97
553.333	37.11
553.675	37.34
554.017	37.49
554.36	37.72
554.702	37.92
555.044	38.14
555.386	38.35
555.728	38.68
556.07	38.81
556.412	39.01
556.754	39.22
557.096	39.45
557.438	39.69
557.78	39.88
558.121	40.09
558.463	40.2
558.805	40.47
559.147	40.7
559.488	40.92
559.83	41.02
560.171	41.21
560.513	41.43
560.854	41.57
561.196	41.79
561.537	42.01
561.878	42.17
562.22	42.31
562.561	42.45
562.902	42.57
563.243	42.73
563.584	42.86
563.925	43.05
564.266	43.15
564.607	43.28
564.948	43.39
565.289	43.5
565.63	43.67
565.971	43.8
566.312	43.91
566.653	44.03
566.993	44.18
567.334	44.3
567.675	44.46
568.015	44.58
568.356	44.66
568.696	44.72
569.037	44.87
569.377	44.98
569.718	45.12
570.058	45.21
570.398	45.35
570.739	45.45
571.079	45.43
571.419	45.54
571.759	45.67
572.099	45.79
572.439	45.86
572.779	45.99
573.119	46.08
573.459	46.17
573.799	46.26
574.139	46.4
574.479	46.54
574.819	46.6
575.158	46.67
575.498	46.73
575.838	46.83
576.177	46.95
576.517	47.1
576.856	47.14
577.196	47.25
577.535	47.33
577.875	47.43
578.214	47.61
578.553	47.73
578.893	47.85
579.232	47.93
579.571	48.09
579.91	48.11
580.25	48.24
580.589	48.29
580.928	48.39
581.267	48.43
581.606	48.41
581.945	48.56
582.283	48.7
582.622	48.87
582.961	49.03
583.3	49.09
583.639	49.11
583.977	49.24
584.316	49.31
584.654	49.43
584.993	49.57
585.332	49.76
585.67	49.86
586.008	49.83
586.347	49.94
586.685	49.93
587.024	50.05
587.362	50.08
587.7	50.23
588.038	50.38
588.376	50.44
588.715	50.54
589.053	50.68
589.391	50.68
589.729	50.74
590.067	50.76
590.404	50.76
590.742	50.81
591.08	50.84
591.418	50.97
591.756	50.97
592.093	51.03
592.431	50.96
592.769	50.94
593.106	51.03
593.444	51.01
593.781	51.11
594.119	51.06
594.456	51.09
594.793	51.09
595.131	51.01
595.468	51.04
595.805	51.08
596.143	51.04
596.48	51.11
596.817	51.13
597.154	51.17
597.491	51.23
597.828	51.29
598.165	51.37
598.502	51.44
598.839	51.5
599.176	51.5
599.512	51.59
599.849	51.71
600.186	51.8
600.523	51.96
600.859	51.95
601.196	52.09
601.532	52.12
601.869	52.14
602.205	52.28
602.542	52.34
602.878	52.43
603.215	52.5
603.551	52.52
603.887	52.57
604.223	52.66
604.56	52.76
604.896	52.78
605.232	52.71
605.568	52.7
605.904	52.73
606.24	52.72
606.576	52.72
606.912	52.74
607.248	52.75
607.583	52.77
607.919	52.89
608.255	52.97
608.591	53.06
608.926	53.07
609.262	53.04
609.597	53.09
609.933	53.07
610.268	53.09
610.604	53.18
610.939	53.23
611.275	53.16
611.61	53.19
611.945	53.19
612.281	53.3
612.616	53.33
612.951	53.43
613.286	53.56
613.621	53.72
613.956	53.76
614.291	53.82
614.626	53.87
614.961	53.97
615.296	54.02
615.631	54.03
615.966	54.21
616.3	54.24
616.635	54.25
616.97	54.21
617.304	54.23
617.639	54.14
617.973	54.14
618.308	54.21
618.642	54.34
618.977	54.39
619.311	54.43
619.646	54.44
619.98	54.45
620.314	54.42
620.648	54.41
620.983	54.39
621.317	54.39
621.651	54.37
621.985	54.32
622.319	54.34
622.653	54.22
622.987	54.14
623.321	54.22
623.655	54.22
623.988	54.36
624.322	54.32
624.656	54.46
624.99	54.44
625.323	54.42
625.657	54.18
625.99	54.25
626.324	54.23
626.657	54.32
626.991	54.28
627.324	54.25
627.658	54.25
627.991	54.34
628.324	54.4
628.657	54.39
628.991	54.42
629.324	54.39
629.657	54.57
629.99	54.59
630.323	54.63
630.656	54.76
630.989	54.82
631.322	54.87
631.655	54.82
631.987	54.86
632.32	54.97
632.653	55.14
632.986	55.19
633.318	55.24
633.651	55.23
633.984	55.33
634.316	55.42
634.649	55.37
634.981	55.31
635.313	55.28
635.646	55.36
635.978	55.31
636.31	55.37
636.643	55.3
636.975	55.37
637.307	55.34
637.639	55.34
637.971	55.31
638.303	55.34
638.635	55.3
638.967	55.45
639.299	55.32
639.631	55.34
639.963	55.25
640.295	55.26
640.626	55.36
640.958	55.24
641.29	55.19
641.621	55.27
641.953	55.3
642.285	55.37
642.616	55.41
642.948	55.41
643.279	55.29
643.61	55.4
643.942	55.49
644.273	55.51
644.604	55.57
644.936	55.63
645.267	55.57
645.598	55.59
645.929	55.42
646.26	55.51
646.591	55.62
646.922	55.76
647.253	55.6
647.584	55.58
647.915	55.74
648.245	55.92
648.576	55.94
648.907	55.87
649.238	55.81
649.568	55.86
649.899	56.06
650.229	56.22
650.56	56.25
650.89	56.04
651.221	56.05
651.551	55.95
651.882	55.95
652.212	56.05
652.542	56.23
652.872	56.33
653.203	56.29
653.533	56.22
653.863	56.21
654.193	56.45
654.523	56.29
654.853	56.16
655.183	56.12
655.513	56.1
655.843	56.24
656.172	56.32
656.502	56.29
656.832	56.09
657.162	56.03
657.491	56.01
657.821	56.08
658.15	56.15
658.48	56.18
658.809	56.13
659.139	56.04
659.468	56
659.798	56
660.127	56.04
660.456	56
660.785	55.98
661.115	56.11
661.444	56.2
661.773	56.24
662.102	56.15
662.431	56.19
662.76	56.18
663.089	56.19
663.418	56.18
663.747	56.31
664.076	56.31
664.404	56.38
664.733	56.5
665.062	56.52
665.39	56.6
665.719	56.62
666.048	56.76
666.376	56.68
666.705	56.78
667.033	56.87
667.362	56.94
667.69	56.83
668.018	56.73
668.347	56.59
668.675	56.69
669.003	56.83
669.331	56.91
669.659	56.85
669.987	56.87
670.315	56.77
670.643	56.7
670.971	56.71
671.299	56.64
671.627	56.64
671.955	56.55
672.283	56.56
672.61	56.64
672.938	56.73
673.266	56.84
673.593	56.81
673.921	56.68
674.249	56.69
674.576	56.81
674.904	56.61
675.231	56.84
675.558	56.8
675.886	56.73
676.213	56.68
676.54	56.75
676.867	56.73
677.195	56.77
677.522	56.91
677.849	56.91
678.176	56.94
678.503	56.87
678.83	56.92
679.157	56.81
679.484	56.79
679.81	56.79
680.137	56.86
680.464	56.99
680.791	57.03
681.117	57.14
681.444	57.29
681.771	57.49
682.097	57.46
682.424	57.44
682.75	57.46
683.077	57.66
683.403	57.63
683.729	57.55
684.056	57.72
684.382	57.7
684.708	57.7
685.034	57.74
685.36	57.94
685.686	57.93
686.012	58.04
686.339	58.06
686.664	58.03
686.99	57.9
687.316	57.79
687.642	57.99
687.968	57.93
688.294	57.82
688.619	57.89
688.945	57.95
689.271	58.06
689.596	58.04
689.922	57.77
690.247	57.81
690.573	57.8
690.898	57.7
691.224	57.76
691.549	57.73
691.874	57.84
692.2	57.81
692.525	58.03
692.85	57.8
693.175	57.58
693.5	57.5
693.825	57.61
694.15	57.33
694.475	57.23
694.8	57.15
695.125	57.11
695.45	56.96
695.775	56.98
696.099	57.02
696.424	57.1
696.749	57.19
697.073	57.27
697.398	57.38
697.723	57.4
698.047	57.37
698.372	57.5
698.696	57.53
699.02	57.44
699.345	57.27
699.669	57.51
699.993	57.68
700.318	57.83
700.642	57.84
700.966	58.03
701.29	58.07
701.614	58.09
701.938	58.07
702.262	58.11
702.586	58.16
702.91	58.02
703.234	58.05
703.557	58.07
703.881	58.09
704.205	57.99
704.529	57.89
704.852	57.73
705.176	57.69
705.499	57.42
705.823	57.42
706.146	57.43
706.47	57.33
706.793	57.29
707.117	57.1
707.44	56.95
707.763	56.92
708.086	56.86
708.409	56.97
708.733	56.92
709.056	56.95
709.379	56.89
709.702	57.2
710.025	57.22
710.348	57.31
710.671	57.31
710.993	57.51
711.316	57.69
711.639	57.82
711.962	57.89
712.284	57.99
712.607	58.07
712.93	58.15
713.252	58.2
713.575	58.15
713.897	58.22
714.22	58.37
714.542	58.59
714.864	58.73
715.187	58.64
715.509	58.68
715.831	58.61
716.153	58.67
716.475	58.64
716.798	58.5
717.12	58.06
717.442	57.91
717.764	57.83
718.085	57.73
718.407	57.9
718.729	57.84
719.051	57.76
719.373	57.87
719.695	57.81
720.016	57.77
720.338	58.01
720.659	57.87
720.981	57.84
721.302	57.66
721.624	57.52
721.945	57.38
722.267	57.48
722.588	57.43
722.909	57.57
723.231	57.4
723.552	57.61
723.873	57.98
724.194	58.28
724.515	58.5
724.836	58.36
725.157	58.14
725.478	57.91
725.799	58.12
726.12	57.82
726.441	58.05
726.762	58.04
727.083	58.1
727.403	58.29
727.724	58.47
728.045	58.53
728.365	58.72
728.686	58.65
729.006	58.76
729.327	58.81
729.647	58.49
729.967	58.45
730.288	58.49
730.608	58.68
730.928	58.73
731.249	58.79
731.569	59.07
731.889	58.83
732.209	59.05
732.529	58.9
732.849	59.09
733.169	59.04
733.489	58.94
733.809	58.66
734.129	58.73
734.448	58.66
734.768	58.65
735.088	58.58
735.408	58.75
735.727	58.88
736.047	59.15
736.366	59.55
736.686	59.62
737.005	59.67
737.325	59.59
737.644	59.33
737.963	59.2
738.283	59.06
738.602	59.46
738.921	59.66
739.24	59.54
739.56	59.38
739.879	59.47
740.198	59.57
740.517	59.79
740.836	59.77
741.155	59.68
741.473	59.61
741.792	59.38
742.111	59.8
742.43	59.67
742.748	59.62
743.067	59.39
743.386	59.48
743.704	59.5
744.023	59.48
744.341	59.7
744.66	59.46
744.978	59.15
745.297	59.07
745.615	58.76
745.933	59.01
746.252	59
746.57	58.87
746.888	58.71
747.206	58.57
747.524	58.73
747.842	59.05
748.16	58.98
748.478	58.93
748.796	58.61
749.114	58.48
749.432	58.46
749.749	58.3
750.067	58.21
750.385	57.98
750.703	57.53
751.02	57.7
751.338	57.67
751.655	58.2
751.973	58.23
752.29	58.51
752.608	58.67
752.925	58.72
753.242	58.92
753.56	59.19
753.877	59.25
754.194	58.76
754.511	58.53
754.828	58.85
755.145	58.98
755.462	59.21
755.779	59.3
756.096	59.03
756.413	59.26
756.73	59.18
757.047	59.67
757.364	60.16
757.68	59.94
757.997	59.85
758.314	59.22
758.63	59.01
758.947	59.2
759.264	58.82
759.58	59.35
759.896	58.86
760.213	58.92
760.529	58.44
760.846	58.67
761.162	58.76
761.478	58.31
761.794	58.64
762.11	58.46
762.426	58.55
762.743	58.61
763.059	58.65
763.375	58.84
763.69	58.7
764.006	58.5
764.322	58.53
764.638	58.65
764.954	58.91
765.27	59.09
765.585	58.87
765.901	59.04
766.216	58.93
766.532	59.08
766.848	58.9
767.163	59.38
767.478	59.22
767.794	59.2
768.109	59.21
768.424	59.16
768.74	59.04
769.055	58.99
769.37	59.4
769.685	59.15
770	58.95
770.315	59.17
770.63	59.56
770.945	59.98
771.26	60.05
771.575	60.57
771.89	60.99
772.205	61.08
772.52	61.01
772.834	60.16
773.149	60.37
773.464	61.02
773.778	61.15
774.093	60.75
774.407	60.72
774.722	61.33
775.036	61.09
775.351	61.22
775.665	61.37
775.979	60.93
776.293	61.09
776.608	61.06
776.922	60.66
777.236	60.35
777.55	59.5
777.864	59.75
778.178	59.44
778.492	59.15
778.806	58.79
779.12	58.93
779.434	59.16
779.747	59.62
780.061	59.35
780.375	59.38
780.689	60.21
781.002	60.35
781.316	60.2
781.629	60.42
781.943	60.94
782.256	60.58
782.57	60.7
782.883	60.93
783.196	61.4
783.51	61.49
783.823	61.69
784.136	62.24
784.449	62.17
784.762	62.16
785.075	62.06
785.388	62.62
785.701	62.23
786.014	62.96
786.327	62.28
786.64	61.43
786.953	61.56
787.266	60.94
787.578	60.8
787.891	60.41
788.204	60.49
788.516	60.81
788.829	61.21
789.141	60.98
789.454	61.02
789.766	60.81
790.079	60.52
790.391	60.3
790.703	60.03
791.016	60.01
791.328	59.71
791.64	59.59
791.952	59.11
792.264	59.47
792.576	59.1
792.888	59.39
793.2	60.3
793.512	59.63
793.824	59.86
794.136	59.91
794.448	60.09
794.76	59.89
795.071	59.38
795.383	59.43
795.695	59.74
796.006	59.35
796.318	59.11
796.629	59.02
796.941	59.21
797.252	58.7
797.564	58.6
797.875	59.12
798.186	59.8
798.497	59.62
798.809	60.2
799.12	60.13
799.431	60.13
799.742	59.93
800.053	60.81
800.364	61.05
800.675	60.55
800.986	61.28
801.297	61.14
801.608	60.82
801.918	60.68
802.229	60.98
802.54	61.27
802.851	61.23
803.161	61.42
803.472	61
803.782	61.95
804.093	61.88
804.403	61.62
804.714	61.3
805.024	61.62
805.334	60.54
805.645	60.65
805.955	60.92
806.265	61.12
806.575	60.1
806.885	60.39
807.195	60.53
807.505	59.92
807.815	59.27
808.125	59.19
808.435	58.77
808.745	58.44
809.055	58.5
809.365	58.32
809.674	58.17
809.984	58.66
810.294	57.88
810.603	58
810.913	57.43
811.222	56.83
811.532	56.9
811.841	57.57
812.151	58.1
812.46	57.63
812.769	57.47
813.079	58.17
813.388	58.16
813.697	58.4
814.006	58.16
814.315	58.84
814.624	58.53
814.933	59.52
815.242	58.87
815.551	58.2
815.86	58.29
816.169	59.06
816.478	59.52
816.786	59.56
817.095	59.99
817.404	60.3
817.712	61.33
818.021	61.75
818.33	62.11
818.638	61.41
818.947	61.49
819.255	60.77
819.563	61.24
819.872	61.1
820.18	61.63
820.488	61.57
820.796	61.56
821.105	61.52
821.413	61.21
821.721	61.31
822.029	61.24
822.337	61.54
822.645	61.25
822.953	61.06
823.26	61.24
823.568	61.23
823.876	61.17
824.184	60.85
824.491	60.85
824.799	60.57
825.107	60.67
825.414	60.61
825.722	60.77
826.029	60.81
826.337	60.68
826.644	60.43
826.951	60.66
827.259	60.61
827.566	60.89
827.873	61.08
828.18	61.13
828.488	61.25
828.795	60.93
829.102	61.15
829.409	61.05
829.716	60.58
830.023	60.71
830.329	60.99
830.636	61.34
830.943	61.04
831.25	61.35
831.557	60.93
831.863	61.14
832.17	61.45
832.476	61.2
832.783	61.98
833.089	61.96
833.396	61.98
833.702	62.25
834.009	61.92
834.315	62.47
834.621	62.1
834.928	62.61
835.234	62.67
835.54	62.08
835.846	62.75
836.152	63.37
836.458	63.05
836.764	62.73
837.07	62.88
837.376	63.14
837.682	63.52
837.988	64.69
838.293	64.72
838.599	64.29
838.905	64.6
839.211	64.32
839.516	64.82
839.822	65.58
840.127	65.64
840.433	66.35
840.738	65.2
841.044	66.51
841.349	65.88
841.654	65.82
841.959	67.32
842.265	67.92
842.57	67.84
842.875	68.67
843.18	68.81
843.485	70.41
843.79	70.82
844.095	71.56
844.4	71.39
844.705	70.73
845.01	72.48
845.315	70.22
845.619	71.18
845.924	71.65
846.229	69.13
846.533	67.96
846.838	67.65
847.142	66.15
847.447	65.13
847.751	65.31
848.056	66.87
848.36	66.68
848.664	64.43
848.969	63.17
849.273	63.32
849.577	64.95
849.881	65.18
850.185	65.95
850.489	63.29
850.794	62.5
851.097	63.84
851.401	63.96
851.705	66.75
852.009	66.27
852.313	64.55
852.617	64.61
852.92	67.36
853.224	68.61
853.528	69.52
853.831	71.64
854.135	72.8
854.438	71.52
854.742	74.04
855.045	78.83
855.349	79.11
855.652	77.19
855.955	77.73
856.259	77.97
856.562	77.68
856.865	80.98
857.168	77.12
857.471	75.47
857.774	76.36
858.077	77.01
858.38	75.3
858.683	76.24
858.986	78.3
859.289	78.94
859.592	75.61
859.894	79.34
860.197	78.91
860.5	80.52
860.802	80.79
861.105	77.66
861.407	74.4
861.71	78.27
862.012	77.03
862.315	75.39
862.617	71.57
862.919	71.7
863.222	71.51
863.524	75.15
863.826	76.2
864.128	72.09
864.43	71.12
864.732	69.33
865.034	70.61
865.336	67.8
865.638	65.3
865.94	68.22
866.242	64.04
866.544	61.64
866.846	63.46
867.147	66.46
867.449	69.59
867.751	71.07
868.052	70.63
868.354	73.36
868.655	74.06
868.957	75.44
869.258	75.51
869.56	74.02
869.861	71.65
870.162	70.7
870.463	72.32
870.765	71.96
871.066	75.21
871.367	71.44
871.668	72.66
871.969	73.25
872.27	71.24
872.571	71.51
872.872	74.31
873.173	69.63
873.473	64.7
873.774	66.66
874.075	65.2
874.376	65.83
874.676	64.79
874.977	64.59
875.277	66.62
875.578	66.49
875.878	66.66
876.179	69.37
876.479	70.4
876.78	70.57
877.08	70.09
877.38	67.94
877.68	71.34
877.981	73.24
878.281	74.2
878.581	76.54
