Data from MVZ_BU26842_Reflection_00012.txt Node
Date: Tue Nov 19 12:18:34 EST 2019
User: vgr7
Spectrometer: USB2G7710
Scans to average: 3
Trigger mode: 4
Integration Time (sec): 2.000000E-2
Electric dark correction enabled: true
Boxcar width: 10
XAxis mode: Wavelengths
Number of Pixels in Spectrum: 2048
>>>>>Begin Spectral Data<<<<<
177.721	-15.2
178.105	-566.67
178.488	1120.83
178.871	92.59
179.254	350
179.636	-3566.67
180.019	197.22
180.402	36.36
180.785	305.56
181.168	-2.56
181.55	32.29
181.933	9.42
182.316	-3.38
182.698	44.77
183.081	15.76
183.463	40.79
183.846	125.86
184.228	16.67
184.611	30.8
184.993	40.28
185.376	21.22
185.758	55.31
186.14	44.64
186.522	32.12
186.904	47.92
187.287	30.71
187.669	63.75
188.051	64.61
188.433	67.78
188.815	52.81
189.197	56.65
189.579	106.01
189.961	87.15
190.342	88.56
190.724	94.75
191.106	94.81
191.488	116.77
191.869	198.1
192.251	324.03
192.633	260.33
193.014	476.98
193.396	756.98
193.777	578.45
194.159	278.31
194.54	294.06
194.922	395.87
195.303	534.38
195.684	1243.94
196.065	582.64
196.447	354.2
196.828	292.16
197.209	284.31
197.59	150.22
197.971	139.31
198.352	104.58
198.733	112.46
199.114	124.32
199.495	117.62
199.876	103.27
200.257	97.96
200.638	92.8
201.018	77.21
201.399	84.1
201.78	82.42
202.16	89.29
202.541	89.1
202.922	72.46
203.302	72.3
203.683	55.63
204.063	42.75
204.444	48.21
204.824	52.6
205.204	74.8
205.585	74.19
205.965	67.36
206.345	106.21
206.725	99.13
207.106	76.91
207.486	90.44
207.866	81.97
208.246	66.36
208.626	56.8
209.006	64.95
209.386	49.34
209.766	45.83
210.145	50.46
210.525	54.03
210.905	73.64
211.285	75.59
211.664	94.78
212.044	100.7
212.424	104.18
212.803	116.87
213.183	97.27
213.562	106.73
213.942	127.89
214.321	80.45
214.701	69.41
215.08	58.71
215.459	58.19
215.838	45.65
216.218	60.38
216.597	93.87
216.976	104.12
217.355	114.95
217.734	107.86
218.113	51.86
218.492	30.4
218.871	3.26
219.25	4.28
219.629	-1.9
220.008	7.05
220.387	8.33
220.766	17.87
221.144	11.09
221.523	18.72
221.902	21.99
222.28	45.97
222.659	72.91
223.037	84.38
223.416	53.57
223.794	62.5
224.173	59.78
224.551	59.19
224.929	55.88
225.308	51.52
225.686	48.76
226.064	49.35
226.442	54.24
226.821	57.34
227.199	56.01
227.577	48.07
227.955	46.86
228.333	44.05
228.711	43.78
229.089	42.53
229.467	37.55
229.845	34.58
230.222	34.63
230.6	30.27
230.978	29.42
231.356	31.72
231.733	29.26
232.111	25.56
232.488	22.84
232.866	21.05
233.243	21.55
233.621	23.14
233.998	22.45
234.376	19.43
234.753	16.31
235.13	13.74
235.508	12.87
235.885	12.69
236.262	12.77
236.639	12.65
237.016	11.41
237.393	12.23
237.77	11.28
238.147	10.17
238.524	9.19
238.901	8.69
239.278	7.35
239.655	7.74
240.032	7.4
240.409	7.08
240.785	6.2
241.162	6.15
241.539	4.9
241.915	4.75
242.292	5.01
242.668	5.06
243.045	5.42
243.421	5.72
243.798	5.41
244.174	5.52
244.551	5.26
244.927	5.39
245.303	5.01
245.679	4.89
246.056	4.79
246.432	4.61
246.808	4.77
247.184	4.93
247.56	4.92
247.936	5.16
248.312	5.1
248.688	5.54
249.064	5.46
249.44	5.57
249.815	5.66
250.191	5.56
250.567	5.58
250.943	5.53
251.318	5.37
251.694	5.43
252.069	5.48
252.445	5.68
252.82	5.54
253.196	6.02
253.571	6.28
253.947	6.5
254.322	6.28
254.697	6.1
255.073	5.78
255.448	5.54
255.823	5.35
256.198	5.26
256.573	4.95
256.948	4.91
257.323	5.01
257.698	4.71
258.073	4.59
258.448	4.46
258.823	4.43
259.198	4.58
259.573	4.43
259.948	4.39
260.322	4.34
260.697	4.34
261.072	4.26
261.446	4.33
261.821	4.21
262.195	4.39
262.57	4.46
262.944	4.63
263.319	4.81
263.693	4.83
264.067	4.83
264.442	4.85
264.816	4.82
265.19	4.8
265.564	4.98
265.938	5.06
266.313	5.21
266.687	5.1
267.061	5.19
267.435	5.42
267.809	5.32
268.183	5.1
268.556	5.21
268.93	5.02
269.304	4.79
269.678	4.73
270.051	4.81
270.425	4.89
270.799	4.58
271.172	4.41
271.546	4.45
271.919	4.66
272.293	4.64
272.666	4.69
273.04	4.76
273.413	4.76
273.787	4.8
274.16	4.72
274.533	4.88
274.906	4.77
275.279	4.69
275.653	4.87
276.026	4.89
276.399	4.8
276.772	5.02
277.145	5.11
277.518	5.11
277.891	4.93
278.263	4.8
278.636	5.02
279.009	4.96
279.382	4.89
279.755	4.48
280.127	4.54
280.5	4.35
280.872	4.4
281.245	4.35
281.617	4.28
281.99	4.36
282.362	4.27
282.735	4.34
283.107	4.27
283.479	4.19
283.852	4.39
284.224	4.37
284.596	4.21
284.968	4.2
285.34	4.21
285.713	4.31
286.085	4.19
286.457	4.26
286.829	4.29
287.201	4.29
287.572	4.49
287.944	4.62
288.316	4.76
288.688	4.74
289.06	4.88
289.431	4.87
289.803	4.88
290.175	4.9
290.546	4.84
290.918	4.81
291.289	4.52
291.661	4.37
292.032	4.36
292.403	4.37
292.775	4.28
293.146	4.34
293.517	4.26
293.889	4.3
294.26	4.28
294.631	4.3
295.002	4.3
295.373	4.25
295.744	4.12
296.115	4.08
296.486	3.89
296.857	3.84
297.228	3.78
297.599	3.66
297.97	3.74
298.34	3.78
298.711	3.97
299.082	4.3
299.452	4.37
299.823	4.41
300.194	4.45
300.564	4.38
300.935	4.43
301.305	4.38
301.676	4.27
302.046	4.21
302.416	4.22
302.787	4.25
303.157	4.34
303.527	4.37
303.897	4.35
304.267	4.5
304.637	4.47
305.008	4.65
305.378	5.01
305.748	4.88
306.117	4.89
306.487	4.8
306.857	4.7
307.227	4.79
307.597	4.84
307.967	4.9
308.336	5.13
308.706	4.98
309.076	5.15
309.445	5.47
309.815	5.58
310.184	5.45
310.554	5.4
310.923	5.2
311.293	5.11
311.662	5.24
312.031	5.38
312.401	5.51
312.77	5.63
313.139	5.46
313.508	5.53
313.877	5.53
314.246	5.6
314.616	5.69
314.985	5.64
315.353	5.59
315.722	5.69
316.091	5.66
316.46	5.89
316.829	5.89
317.198	6
317.567	6.05
317.935	6.23
318.304	6.46
318.672	6.7
319.041	6.98
319.41	6.81
319.778	6.8
320.147	6.86
320.515	6.86
320.883	6.79
321.252	6.84
321.62	6.89
321.988	6.82
322.357	6.79
322.725	6.91
323.093	6.88
323.461	6.91
323.829	7.02
324.197	6.91
324.565	7.11
324.933	6.97
325.301	6.92
325.669	6.85
326.037	6.82
326.405	6.86
326.772	6.72
327.14	6.77
327.508	6.65
327.875	6.57
328.243	6.52
328.61	6.62
328.978	6.59
329.346	6.58
329.713	6.82
330.08	6.84
330.448	6.82
330.815	6.86
331.182	6.74
331.55	6.76
331.917	6.84
332.284	6.66
332.651	6.7
333.018	6.69
333.385	6.82
333.752	6.82
334.119	6.88
334.486	7.07
334.853	7.2
335.22	7.23
335.587	7.2
335.954	7.1
336.32	7.15
336.687	7.23
337.054	7.13
337.42	6.85
337.787	6.77
338.153	6.76
338.52	6.87
338.886	6.95
339.253	6.85
339.619	6.82
339.986	6.83
340.352	6.83
340.718	6.95
341.084	6.8
341.451	6.91
341.817	6.91
342.183	6.79
342.549	6.8
342.915	6.91
343.281	6.98
343.647	7.17
344.013	7.21
344.379	7.21
344.745	7.36
345.11	7.52
345.476	7.6
345.842	7.61
346.208	7.69
346.573	7.64
346.939	7.53
347.304	7.61
347.67	7.72
348.035	7.61
348.401	7.59
348.766	7.75
349.132	7.75
349.497	7.72
349.862	7.84
350.228	7.8
350.593	7.77
350.958	7.8
351.323	7.71
351.688	7.57
352.053	7.62
352.418	7.69
352.783	7.61
353.148	7.64
353.513	7.57
353.878	7.5
354.243	7.54
354.608	7.67
354.972	7.62
355.337	7.62
355.702	7.72
356.066	7.66
356.431	7.62
356.795	7.51
357.16	7.52
357.524	7.42
357.889	7.47
358.253	7.41
358.618	7.37
358.982	7.37
359.346	7.48
359.71	7.36
360.075	7.25
360.439	7.32
360.803	7.25
361.167	7.25
361.531	7.2
361.895	7.2
362.259	7.15
362.623	7.15
362.987	7.06
363.351	7.06
363.714	7.05
364.078	7.02
364.442	7.06
364.806	7.06
365.169	7.03
365.533	6.99
365.896	6.95
366.26	6.93
366.623	6.88
366.987	6.84
367.35	6.92
367.714	6.93
368.077	6.88
368.44	6.92
368.803	6.89
369.167	6.84
369.53	6.83
369.893	6.87
370.256	6.79
370.619	6.82
370.982	6.66
371.345	6.64
371.708	6.61
372.071	6.45
372.434	6.37
372.797	6.4
373.159	6.35
373.522	6.34
373.885	6.33
374.247	6.36
374.61	6.34
374.973	6.23
375.335	6.21
375.698	6.17
376.06	6.05
376.423	6.08
376.785	6.09
377.147	5.97
377.51	5.87
377.872	5.8
378.234	5.71
378.596	5.74
378.958	5.66
379.321	5.65
379.683	5.66
380.045	5.68
380.407	5.62
380.769	5.58
381.13	5.55
381.492	5.53
381.854	5.47
382.216	5.47
382.578	5.44
382.939	5.4
383.301	5.3
383.663	5.32
384.024	5.24
384.386	5.17
384.747	5.14
385.109	5.17
385.47	5.18
385.832	5.2
386.193	5.21
386.554	5.22
386.916	5.18
387.277	5.2
387.638	5.19
387.999	5.16
388.36	5.11
388.721	5.06
389.082	5.04
389.443	5.03
389.804	4.92
390.165	4.9
390.526	4.84
390.887	4.9
391.248	4.88
391.609	4.85
391.969	4.86
392.33	4.81
392.691	4.74
393.051	4.71
393.412	4.69
393.772	4.66
394.133	4.62
394.493	4.55
394.854	4.52
395.214	4.46
395.574	4.42
395.935	4.43
396.295	4.42
396.655	4.38
397.015	4.34
397.376	4.37
397.736	4.32
398.096	4.3
398.456	4.25
398.816	4.23
399.176	4.21
399.535	4.18
399.895	4.16
400.255	4.19
400.615	4.14
400.975	4.12
401.334	4.1
401.694	4.1
402.054	4.1
402.413	4.06
402.773	4.07
403.132	4.06
403.492	4.04
403.851	4
404.211	3.97
404.57	3.94
404.929	3.9
405.288	3.92
405.648	3.94
406.007	3.92
406.366	3.9
406.725	3.89
407.084	3.91
407.443	3.96
407.802	3.93
408.161	3.98
408.52	3.94
408.879	3.91
409.238	3.88
409.596	3.87
409.955	3.87
410.314	3.83
410.673	3.85
411.031	3.83
411.39	3.84
411.748	3.87
412.107	3.88
412.465	3.88
412.824	3.84
413.182	3.86
413.54	3.84
413.899	3.82
414.257	3.82
414.615	3.77
414.974	3.77
415.332	3.76
415.69	3.73
416.048	3.73
416.406	3.7
416.764	3.68
417.122	3.69
417.48	3.69
417.838	3.67
418.195	3.63
418.553	3.62
418.911	3.6
419.269	3.58
419.626	3.56
419.984	3.55
420.342	3.55
420.699	3.51
421.057	3.52
421.414	3.52
421.772	3.52
422.129	3.5
422.486	3.48
422.844	3.47
423.201	3.46
423.558	3.45
423.915	3.46
424.273	3.47
424.63	3.45
424.987	3.45
425.344	3.46
425.701	3.46
426.058	3.46
426.415	3.46
426.772	3.46
427.128	3.47
427.485	3.46
427.842	3.46
428.199	3.47
428.555	3.43
428.912	3.42
429.269	3.4
429.625	3.4
429.982	3.4
430.338	3.4
430.695	3.38
431.051	3.39
431.407	3.4
431.764	3.4
432.12	3.41
432.476	3.42
432.832	3.41
433.189	3.4
433.545	3.41
433.901	3.42
434.257	3.41
434.613	3.39
434.969	3.39
435.325	3.43
435.681	3.43
436.036	3.46
436.392	3.46
436.748	3.47
437.104	3.5
437.459	3.51
437.815	3.51
438.171	3.51
438.526	3.51
438.882	3.49
439.237	3.48
439.593	3.51
439.948	3.48
440.304	3.47
440.659	3.46
441.014	3.46
441.369	3.47
441.725	3.48
442.08	3.47
442.435	3.48
442.79	3.45
443.145	3.43
443.5	3.42
443.855	3.39
444.21	3.41
444.565	3.4
444.92	3.38
445.275	3.36
445.629	3.35
445.984	3.35
446.339	3.35
446.693	3.33
447.048	3.3
447.403	3.3
447.757	3.3
448.112	3.29
448.466	3.29
448.82	3.27
449.175	3.27
449.529	3.29
449.883	3.29
450.238	3.29
450.592	3.29
450.946	3.31
451.3	3.32
451.654	3.29
452.008	3.29
452.362	3.3
452.716	3.33
453.07	3.35
453.424	3.34
453.778	3.35
454.132	3.35
454.486	3.36
454.839	3.35
455.193	3.35
455.547	3.37
455.9	3.36
456.254	3.34
456.607	3.32
456.961	3.31
457.314	3.31
457.668	3.29
458.021	3.3
458.375	3.3
458.728	3.29
459.081	3.3
459.434	3.28
459.787	3.29
460.141	3.28
460.494	3.3
460.847	3.29
461.2	3.3
461.553	3.33
461.906	3.32
462.259	3.32
462.611	3.34
462.964	3.35
463.317	3.35
463.67	3.4
464.022	3.42
464.375	3.43
464.728	3.42
465.08	3.45
465.433	3.46
465.785	3.46
466.138	3.5
466.49	3.51
466.843	3.53
467.195	3.52
467.547	3.53
467.899	3.51
468.252	3.55
468.604	3.59
468.956	3.58
469.308	3.61
469.66	3.63
470.012	3.63
470.364	3.63
470.716	3.65
471.068	3.67
471.42	3.66
471.772	3.66
472.123	3.68
472.475	3.68
472.827	3.69
473.178	3.7
473.53	3.67
473.882	3.67
474.233	3.66
474.585	3.66
474.936	3.67
475.288	3.67
475.639	3.64
475.99	3.62
476.342	3.62
476.693	3.63
477.044	3.64
477.395	3.63
477.746	3.61
478.097	3.62
478.448	3.57
478.8	3.56
479.15	3.55
479.501	3.54
479.852	3.53
480.203	3.51
480.554	3.51
480.905	3.5
481.255	3.5
481.606	3.51
481.957	3.5
482.307	3.49
482.658	3.49
483.009	3.49
483.359	3.48
483.709	3.49
484.06	3.49
484.41	3.49
484.761	3.49
485.111	3.5
485.461	3.49
485.811	3.5
486.162	3.5
486.512	3.5
486.862	3.5
487.212	3.5
487.562	3.49
487.912	3.51
488.262	3.51
488.612	3.5
488.961	3.5
489.311	3.5
489.661	3.51
490.011	3.51
490.36	3.51
490.71	3.52
491.06	3.51
491.409	3.5
491.759	3.49
492.108	3.5
492.458	3.51
492.807	3.5
493.157	3.51
493.506	3.54
493.855	3.54
494.204	3.53
494.554	3.54
494.903	3.56
495.252	3.56
495.601	3.6
495.95	3.61
496.299	3.63
496.648	3.68
496.997	3.69
497.346	3.74
497.695	3.79
498.043	3.81
498.392	3.83
498.741	3.89
499.09	3.96
499.438	3.99
499.787	4.02
500.135	4.04
500.484	4.07
500.832	4.09
501.181	4.15
501.529	4.24
501.878	4.32
502.226	4.37
502.574	4.41
502.923	4.47
503.271	4.52
503.619	4.57
503.967	4.63
504.315	4.7
504.663	4.75
505.011	4.78
505.359	4.86
505.707	4.95
506.055	5.01
506.403	5.05
506.751	5.14
507.098	5.26
507.446	5.37
507.794	5.48
508.141	5.57
508.489	5.67
508.837	5.74
509.184	5.82
509.531	5.9
509.879	6.03
510.226	6.11
510.574	6.25
510.921	6.37
511.268	6.47
511.616	6.58
511.963	6.7
512.31	6.83
512.657	6.95
513.004	7.04
513.351	7.19
513.698	7.34
514.045	7.47
514.392	7.58
514.739	7.7
515.086	7.84
515.432	8
515.779	8.11
516.126	8.29
516.473	8.4
516.819	8.55
517.166	8.68
517.512	8.81
517.859	8.91
518.205	9.04
518.552	9.15
518.898	9.28
519.245	9.4
519.591	9.5
519.937	9.63
520.283	9.78
520.629	9.9
520.976	10.04
521.322	10.19
521.668	10.37
522.014	10.54
522.36	10.69
522.706	10.85
523.052	11.06
523.398	11.26
523.743	11.5
524.089	11.72
524.435	11.89
524.781	12.09
525.126	12.28
525.472	12.45
525.817	12.62
526.163	12.79
526.509	12.92
526.854	13.06
527.199	13.19
527.545	13.31
527.89	13.44
528.235	13.58
528.581	13.71
528.926	13.84
529.271	13.97
529.616	14.11
529.961	14.25
530.306	14.38
530.651	14.52
530.996	14.68
531.341	14.83
531.686	15
532.031	15.18
532.376	15.36
532.721	15.54
533.065	15.74
533.41	15.94
533.755	16.16
534.099	16.38
534.444	16.6
534.788	16.82
535.133	17.03
535.477	17.25
535.822	17.45
536.166	17.71
536.51	17.95
536.855	18.24
537.199	18.53
537.543	18.85
537.887	19.14
538.231	19.43
538.576	19.76
538.92	20.07
539.264	20.34
539.608	20.64
539.951	20.88
540.295	21.12
540.639	21.35
540.983	21.54
541.327	21.78
541.671	21.99
542.014	22.24
542.358	22.45
542.701	22.65
543.045	22.87
543.389	23.06
543.732	23.3
544.075	23.54
544.419	23.78
544.762	23.99
545.105	24.23
545.449	24.46
545.792	24.7
546.135	24.98
546.478	25.25
546.821	25.52
547.165	25.82
547.508	26.07
547.851	26.34
548.194	26.65
548.536	26.93
548.879	27.22
549.222	27.47
549.565	27.77
549.908	28.09
550.25	28.37
550.593	28.7
550.936	28.95
551.278	29.21
551.621	29.48
551.963	29.78
552.306	30.02
552.648	30.32
552.991	30.5
553.333	30.66
553.675	30.91
554.017	31.13
554.36	31.36
554.702	31.58
555.044	31.76
555.386	32
555.728	32.19
556.07	32.41
556.412	32.61
556.754	32.8
557.096	33.03
557.438	33.18
557.78	33.39
558.121	33.66
558.463	33.87
558.805	34.06
559.147	34.27
559.488	34.53
559.83	34.77
560.171	35.04
560.513	35.21
560.854	35.41
561.196	35.64
561.537	35.84
561.878	36.1
562.22	36.32
562.561	36.5
562.902	36.66
563.243	36.89
563.584	37.1
563.925	37.24
564.266	37.38
564.607	37.6
564.948	37.74
565.289	37.88
565.63	37.98
565.971	38.12
566.312	38.24
566.653	38.36
566.993	38.5
567.334	38.64
567.675	38.87
568.015	39.02
568.356	39.12
568.696	39.24
569.037	39.33
569.377	39.44
569.718	39.51
570.058	39.71
570.398	39.83
570.739	39.92
571.079	40.15
571.419	40.29
571.759	40.45
572.099	40.6
572.439	40.71
572.779	40.9
573.119	41.08
573.459	41.2
573.799	41.32
574.139	41.38
574.479	41.48
574.819	41.58
575.158	41.67
575.498	41.78
575.838	41.93
576.177	42.07
576.517	42.18
576.856	42.35
577.196	42.45
577.535	42.53
577.875	42.66
578.214	42.72
578.553	42.79
578.893	42.86
579.232	42.95
579.571	42.98
579.91	43.07
580.25	43.09
580.589	43.15
580.928	43.23
581.267	43.26
581.606	43.35
581.945	43.43
582.283	43.51
582.622	43.6
582.961	43.75
583.3	43.86
583.639	43.95
583.977	44.01
584.316	44.08
584.654	44.23
584.993	44.27
585.332	44.3
585.67	44.39
586.008	44.58
586.347	44.7
586.685	44.78
587.024	44.85
587.362	44.96
587.7	45.1
588.038	45.18
588.376	45.47
588.715	45.53
589.053	45.65
589.391	45.76
589.729	45.91
590.067	45.92
590.404	45.89
590.742	46.03
591.08	46.03
591.418	46.12
591.756	46.13
592.093	46.27
592.431	46.42
592.769	46.45
593.106	46.51
593.444	46.5
593.781	46.7
594.119	46.75
594.456	46.78
594.793	46.83
595.131	46.87
595.468	46.83
595.805	46.91
596.143	46.93
596.48	47
596.817	46.97
597.154	47
597.491	47.12
597.828	47.1
598.165	47.23
598.502	47.2
598.839	47.28
599.176	47.35
599.512	47.36
599.849	47.45
600.186	47.48
600.523	47.54
600.859	47.55
601.196	47.7
601.532	47.83
601.869	47.87
602.205	47.96
602.542	47.96
602.878	47.98
603.215	47.95
603.551	47.94
603.887	47.95
604.223	47.98
604.56	48.03
604.896	48.12
605.232	48.17
605.568	48.28
605.904	48.24
606.24	48.23
606.576	48.31
606.912	48.32
607.248	48.3
607.583	48.37
607.919	48.41
608.255	48.36
608.591	48.3
608.926	48.3
609.262	48.35
609.597	48.47
609.933	48.56
610.268	48.64
610.604	48.65
610.939	48.71
611.275	48.76
611.61	48.72
611.945	48.76
612.281	48.82
612.616	48.88
612.951	49
613.286	49.08
613.621	49.11
613.956	49.23
614.291	49.33
614.626	49.38
614.961	49.36
615.296	49.39
615.631	49.52
615.966	49.58
616.3	49.55
616.635	49.63
616.97	49.63
617.304	49.66
617.639	49.81
617.973	49.89
618.308	49.9
618.642	49.92
618.977	49.92
619.311	49.93
619.646	49.9
619.98	49.87
620.314	49.93
620.648	49.93
620.983	49.94
621.317	50.01
621.651	50.04
621.985	50.14
622.319	50.22
622.653	50.17
622.987	50.27
623.321	50.38
623.655	50.25
623.988	50.31
624.322	50.39
624.656	50.39
624.99	50.43
625.323	50.38
625.657	50.49
625.99	50.54
626.324	50.52
626.657	50.57
626.991	50.7
627.324	50.61
627.658	50.63
627.991	50.65
628.324	50.6
628.657	50.68
628.991	50.63
629.324	50.64
629.657	50.67
629.99	50.7
630.323	50.69
630.656	50.76
630.989	50.73
631.322	50.66
631.655	50.66
631.987	50.64
632.32	50.67
632.653	50.57
632.986	50.59
633.318	50.63
633.651	50.62
633.984	50.6
634.316	50.68
634.649	50.65
634.981	50.6
635.313	50.73
635.646	50.67
635.978	50.78
636.31	50.87
636.643	50.95
636.975	51.01
637.307	51.05
637.639	51.09
637.971	51.14
638.303	51.13
638.635	51.18
638.967	51.19
639.299	51.3
639.631	51.41
639.963	51.34
640.295	51.4
640.626	51.47
640.958	51.47
641.29	51.56
641.621	51.61
641.953	51.62
642.285	51.62
642.616	51.65
642.948	51.69
643.279	51.53
643.61	51.54
643.942	51.51
644.273	51.5
644.604	51.54
644.936	51.68
645.267	51.77
645.598	51.81
645.929	51.9
646.26	51.96
646.591	51.95
646.922	52.09
647.253	52.09
647.584	52.05
647.915	52.06
648.245	52.13
648.576	52.15
648.907	52.21
649.238	52.16
649.568	52.24
649.899	52.15
650.229	52.23
650.56	52.25
650.89	52.22
651.221	52.17
651.551	52.16
651.882	52.08
652.212	52.14
652.542	52.26
652.872	52.21
653.203	52.19
653.533	52.34
653.863	52.31
654.193	52.37
654.523	52.52
654.853	52.61
655.183	52.54
655.513	52.65
655.843	52.72
656.172	52.8
656.502	52.85
656.832	53.06
657.162	53.04
657.491	53.05
657.821	53.09
658.15	53.18
658.48	53.17
658.809	53.21
659.139	53.28
659.468	53.22
659.798	53.31
660.127	53.37
660.456	53.18
660.785	53.27
661.115	53.29
661.444	52.99
661.773	53.01
662.102	53.03
662.431	53.01
662.76	53.04
663.089	53.15
663.418	53.19
663.747	53.15
664.076	53.25
664.404	53.31
664.733	53.3
665.062	53.27
665.39	53.21
665.719	53.12
666.048	53.08
666.376	53.05
666.705	52.89
667.033	52.94
667.362	53.17
667.69	53.1
668.018	53.14
668.347	53.39
668.675	53.39
669.003	53.33
669.331	53.27
669.659	53.25
669.987	53.24
670.315	53.11
670.643	52.94
670.971	52.99
671.299	52.97
671.627	53.08
671.955	53.1
672.283	53.22
672.61	53.26
672.938	53.31
673.266	53.21
673.593	53.39
673.921	53.3
674.249	53.27
674.576	53.22
674.904	53.23
675.231	53.28
675.558	53.36
675.886	53.44
676.213	53.47
676.54	53.62
676.867	53.59
677.195	53.79
677.522	53.91
677.849	53.88
678.176	53.77
678.503	53.63
678.83	53.7
679.157	53.77
679.484	53.8
679.81	53.75
680.137	53.78
680.464	53.89
680.791	54.07
681.117	54.08
681.444	54.14
681.771	54.18
682.097	54.22
682.424	54.06
682.75	54.06
683.077	54.02
683.403	53.96
683.729	53.94
684.056	53.76
684.382	53.67
684.708	53.64
685.034	53.74
685.36	53.79
685.686	53.69
686.012	53.63
686.339	53.56
686.664	53.52
686.99	53.73
687.316	53.58
687.642	53.58
687.968	53.47
688.294	53.63
688.619	53.65
688.945	53.7
689.271	53.86
689.596	53.96
689.922	54.04
690.247	53.86
690.573	53.92
690.898	54.04
691.224	54.14
691.549	54.13
691.874	54.3
692.2	54.33
692.525	54.3
692.85	54.45
693.175	54.67
693.5	54.91
693.825	54.86
694.15	54.9
694.475	54.68
694.8	54.89
695.125	54.63
695.45	54.43
695.775	54.4
696.099	54.4
696.424	54.32
696.749	54.45
697.073	54.49
697.398	54.47
697.723	54.42
698.047	54.35
698.372	54.46
698.696	54.37
699.02	54.43
699.345	54.62
699.669	54.49
699.993	54.36
700.318	54.37
700.642	54.24
700.966	54.19
701.29	54.37
701.614	54.35
701.938	54.56
702.262	54.62
702.586	54.63
702.91	54.74
703.234	54.8
703.557	54.69
703.881	54.88
704.205	54.71
704.529	54.71
704.852	54.66
705.176	54.74
705.499	54.83
705.823	54.93
706.146	54.87
706.47	55.01
706.793	55.37
707.117	55.31
707.44	55.41
707.763	55.53
708.086	55.38
708.409	55.48
708.733	55.33
709.056	55.42
709.379	55.49
709.702	55.51
710.025	55.47
710.348	55.53
710.671	55.54
710.993	55.6
711.316	55.66
711.639	55.87
711.962	55.65
712.284	55.76
712.607	55.77
712.93	55.89
713.252	55.88
713.575	55.47
713.897	55.28
714.22	55.41
714.542	55.48
714.864	55.35
715.187	55.19
715.509	55.29
715.831	55.55
716.153	55.51
716.475	55.55
716.798	55.69
717.12	55.72
717.442	55.73
717.764	55.87
718.085	56.09
718.407	56.18
718.729	56.14
719.051	56
719.373	55.99
719.695	55.84
720.016	55.96
720.338	56.37
720.659	56.45
720.981	56.4
721.302	56.39
721.624	56.6
721.945	56.6
722.267	56.55
722.588	56.5
722.909	56.55
723.231	56.42
723.552	56.51
723.873	56.49
724.194	56.5
724.515	56.62
724.836	56.48
725.157	56.4
725.478	56.57
725.799	56.35
726.12	56.34
726.441	56.17
726.762	56.05
727.083	55.78
727.403	55.92
727.724	55.97
728.045	56.11
728.365	56.17
728.686	56.21
729.006	56.33
729.327	56.21
729.647	56.23
729.967	56.28
730.288	56.05
730.608	56.11
730.928	56.26
731.249	56.19
731.569	55.96
731.889	56
732.209	55.94
732.529	56.01
732.849	56.11
733.169	56.44
733.489	56.35
733.809	56.66
734.129	56.82
734.448	56.58
734.768	56.52
735.088	56.46
735.408	56.42
735.727	56.23
736.047	56.12
736.366	55.92
736.686	55.86
737.005	56.18
737.325	56.11
737.644	55.9
737.963	55.89
738.283	56.08
738.602	56.03
738.921	55.97
739.24	55.87
739.56	56.03
739.879	55.78
740.198	55.79
740.517	55.75
740.836	55.26
741.155	55.34
741.473	55.23
741.792	55.16
742.111	55.57
742.43	55.89
742.748	55.87
743.067	56.16
743.386	56.14
743.704	55.77
744.023	55.82
744.341	55.89
744.66	56.05
744.978	55.72
745.297	55.88
745.615	55.88
745.933	56.09
746.252	55.76
746.57	56
746.888	56.12
747.206	55.9
747.524	56.58
747.842	56.8
748.16	56.68
748.478	56.98
748.796	56.59
749.114	56.32
749.432	56.68
749.749	57.05
750.067	56.92
750.385	57.22
750.703	57.25
751.02	56.87
751.338	56.64
751.655	57.13
751.973	56.98
752.29	57.13
752.608	57.43
752.925	57.48
753.242	57.27
753.56	57.35
753.877	57.43
754.194	57.31
754.511	57.4
754.828	57.57
755.145	58
755.462	57.88
755.779	58.02
756.096	57.83
756.413	57.31
756.73	57.84
757.047	57.78
757.364	57.87
757.68	58.2
757.997	58.06
758.314	58.09
758.63	58.12
758.947	58.25
759.264	58.27
759.58	58.45
759.896	58.6
760.213	58.57
760.529	58.7
760.846	58.44
761.162	58.54
761.478	58.78
761.794	58.41
762.11	58.26
762.426	58.23
762.743	58.16
763.059	57.95
763.375	57.6
763.69	57.48
764.006	57.33
764.322	57.27
764.638	57.53
764.954	57.81
765.27	57.94
765.585	57.81
765.901	57.57
766.216	57.35
766.532	57.42
766.848	57.6
767.163	57.77
767.478	57.81
767.794	57.74
768.109	57.4
768.424	57.53
768.74	57.87
769.055	57.92
769.37	57.93
769.685	58.24
770	58.63
770.315	59.12
770.63	59.1
770.945	59.2
771.26	59.2
771.575	58.66
771.89	58.41
772.205	58.94
772.52	59.21
772.834	59.5
773.149	59.34
773.464	59.12
773.778	58.86
774.093	59.46
774.407	59.73
774.722	60.36
775.036	59.69
775.351	59.86
775.665	60.33
775.979	60.6
776.293	60.76
776.608	60.82
776.922	60.1
777.236	60.42
777.55	60.71
777.864	60.63
778.178	60.59
778.492	60.64
778.806	60.44
779.12	60.25
779.434	60.22
779.747	60.7
780.061	60.97
780.375	61.29
780.689	61.09
781.002	60.32
781.316	59.38
781.629	60.28
781.943	60.07
782.256	59.5
782.57	59.11
782.883	59.12
783.196	58.71
783.51	59.1
783.823	58.53
784.136	58.05
784.449	58.06
784.762	58.63
785.075	58.76
785.388	58.54
785.701	58.89
786.014	59.32
786.327	58.47
786.64	58.74
786.953	58.79
787.266	58.56
787.578	59.11
787.891	59.33
788.204	59.3
788.516	59.64
788.829	59.53
789.141	59.46
789.454	59.46
789.766	59.54
790.079	59.62
790.391	60.28
790.703	60.86
791.016	60.75
791.328	60.97
791.64	60.76
791.952	60.93
792.264	60.99
792.576	60.6
792.888	60.97
793.2	60.33
793.512	59.76
793.824	60.01
794.136	60.29
794.448	60.69
794.76	60.62
795.071	60.53
795.383	61.33
795.695	61.73
796.006	61.75
796.318	61.87
796.629	62.63
796.941	62.85
797.252	62.38
797.564	62.59
797.875	62.01
798.186	62.85
798.497	62.92
798.809	63.14
799.12	62.79
799.431	62.23
799.742	62.87
800.053	63.39
800.364	63.17
800.675	63.08
800.986	62.49
801.297	62.33
801.608	62.05
801.918	61.05
802.229	61.5
802.54	60.78
802.851	60.47
803.161	59.67
803.472	58.83
803.782	58.97
804.093	58.26
804.403	57.56
804.714	56.99
805.024	56.27
805.334	56.31
805.645	56.58
805.955	57.52
806.265	57.36
806.575	56.99
806.885	56.56
807.195	57.03
807.505	57.48
807.815	57.86
808.125	58.16
808.435	58.61
808.745	58.17
809.055	58.97
809.365	59.23
809.674	59.96
809.984	61.29
810.294	60.68
810.603	61.7
810.913	62.7
811.222	62.25
811.532	63.06
811.841	63.27
812.151	63.15
812.46	63.13
812.769	62.26
813.079	63.1
813.388	62.5
813.697	61.3
814.006	61.52
814.315	60.87
814.624	60.82
814.933	61.3
815.242	61.57
815.551	61.11
815.86	61.2
816.169	60.33
816.478	59.34
816.786	59.82
817.095	59.25
817.404	59.31
817.712	60.68
818.021	61.01
818.33	60.46
818.638	60.98
818.947	60.32
819.255	60.22
819.563	59.39
819.872	59.92
820.18	59.82
820.488	59.59
820.796	59.3
821.105	59.2
821.413	59.09
821.721	59.3
822.029	59.39
822.337	59.49
822.645	59.65
822.953	59.62
823.26	59.42
823.568	59.52
823.876	59.64
824.184	59.29
824.491	59.35
824.799	59.39
825.107	59.21
825.414	59.25
825.722	59.28
826.029	59.51
826.337	59.33
826.644	59.4
826.951	59.34
827.259	59.67
827.566	59.87
827.873	59.74
828.18	59.57
828.488	59.88
828.795	59.7
829.102	59.55
829.409	59.24
829.716	59.57
830.023	59.62
830.329	59.37
830.636	59.5
830.943	59.33
831.25	58.94
831.557	59.1
831.863	59.11
832.17	59.2
832.476	59.05
832.783	59.21
833.089	58.96
833.396	59.06
833.702	59.25
834.009	59.28
834.315	59.82
834.621	59.65
834.928	59.61
835.234	59.75
835.54	59.71
835.846	60.38
836.152	60.4
836.458	60.5
836.764	60.45
837.07	60.26
837.376	60.17
837.682	60.61
837.988	61.01
838.293	61.6
838.599	62.06
838.905	62.71
839.211	62.97
839.516	63.8
839.822	64.86
840.127	64.06
840.433	63.45
840.738	63.68
841.044	64.95
841.349	64.67
841.654	65.34
841.959	65.43
842.265	65.03
842.57	65.96
842.875	64.65
843.18	65.61
843.485	67.12
843.79	67.57
844.095	68.33
844.4	68.78
844.705	68.9
845.01	68.68
845.315	68.28
845.619	68.57
845.924	68.64
846.229	68.76
846.533	70.4
846.838	70.44
847.142	69.65
847.447	67.74
847.751	66.43
848.056	67.32
848.36	66.21
848.664	67.97
848.969	67.02
849.273	71.44
849.577	72.58
849.881	71.4
850.185	71.01
850.489	69.93
850.794	69.72
851.097	70.47
851.401	70.31
851.705	68.91
852.009	70.41
852.313	70.37
852.617	68.71
852.92	70.24
853.224	72
853.528	72.78
853.831	72.31
854.135	74.13
854.438	71.99
854.742	76.4
855.045	76.49
855.349	77.62
855.652	75.39
855.955	71.53
856.259	74.16
856.562	72.22
856.865	71.85
857.168	71.54
857.471	70.04
857.774	70.68
858.077	72
858.38	72.09
858.683	73.41
858.986	77.38
859.289	75.66
859.592	77.05
859.894	77.95
860.197	77.65
860.5	78.41
860.802	81.09
861.105	77.83
861.407	79.24
861.71	80.66
862.012	81.83
862.315	80.66
862.617	76.28
862.919	75.57
863.222	78.17
863.524	74.7
863.826	72.98
864.128	73.19
864.43	73.18
864.732	73.97
865.034	75.49
865.336	70.09
865.638	69.44
865.94	68.66
866.242	66.34
866.544	68.29
866.846	69.32
867.147	67.44
867.449	68.92
867.751	65.84
868.052	65.05
868.354	63.36
868.655	64.44
868.957	66.25
869.258	68.82
869.56	69.02
869.861	74.02
870.162	76.05
870.463	77.73
870.765	76.83
871.066	76.45
871.367	72.85
871.668	76.87
871.969	76.69
872.27	78.13
872.571	81.82
872.872	78.66
873.173	78.55
873.473	79.31
873.774	79.53
874.075	84.46
874.376	84.88
874.676	88.91
874.977	89.6
875.277	87.91
875.578	86.35
875.878	84.75
876.179	81.71
876.479	81.5
876.78	79.18
877.08	80.55
877.38	80.19
877.68	82.53
877.981	81.46
878.281	83.71
878.581	81.78
