Data from MVZ_BU147395_Reflection_00013.txt Node
Date: Tue Nov 19 12:05:15 EST 2019
User: vgr7
Spectrometer: USB2G7710
Scans to average: 3
Trigger mode: 4
Integration Time (sec): 2.000000E-2
Electric dark correction enabled: true
Boxcar width: 10
XAxis mode: Wavelengths
Number of Pixels in Spectrum: 2048
>>>>>Begin Spectral Data<<<<<
177.721	153.45
178.105	140.49
178.488	127.93
178.871	151.89
179.254	48.51
179.636	172.25
180.019	5484.62
180.402	154.55
180.785	8.07
181.168	-74.86
181.55	-332.84
181.933	166.84
182.316	319.65
182.698	-1900
183.081	525.53
183.463	160.24
183.846	264.56
184.228	242.86
184.611	64.17
184.993	131.68
185.376	162.21
185.758	103.58
186.14	83.26
186.522	58.36
186.904	64.87
187.287	35.35
187.669	46.18
188.051	52.07
188.433	30.34
188.815	47.65
189.197	59.02
189.579	56.08
189.961	66.41
190.342	53.86
190.724	22.39
191.106	19.44
191.488	14.84
191.869	14.47
192.251	11.49
192.633	13.41
193.014	11.91
193.396	0.86
193.777	-1.36
194.159	-4.17
194.54	14.45
194.922	12.52
195.303	23.39
195.684	36.19
196.065	36.54
196.447	30.1
196.828	26.05
197.209	34.79
197.59	37.31
197.971	26.34
198.352	40.47
198.733	60.19
199.114	65.37
199.495	84.86
199.876	100.53
200.257	97.53
200.638	106.64
201.018	123.79
201.399	162.93
201.78	196.88
202.16	261.26
202.541	275.91
202.922	281.48
203.302	360.6
203.683	306.99
204.063	230.54
204.444	312.55
204.824	318.06
205.204	240.64
205.585	221.87
205.965	256.82
206.345	220.87
206.725	189.44
207.106	160.85
207.486	129.35
207.866	126.33
208.246	119.66
208.626	100.56
209.006	91.55
209.386	81.29
209.766	77.59
210.145	67.25
210.525	77.73
210.905	57.26
211.285	41.38
211.664	35.35
212.044	42.77
212.424	35.83
212.803	36.85
213.183	34.15
213.562	55.01
213.942	56.16
214.321	58.14
214.701	61.38
215.08	50.21
215.459	40.5
215.838	38.79
216.218	35.33
216.597	51.11
216.976	53.66
217.355	43.64
217.734	41.41
218.113	63.61
218.492	60.75
218.871	56.75
219.25	59.77
219.629	67.86
220.008	55.77
220.387	67.34
220.766	59.28
221.144	60.85
221.523	49.16
221.902	46.19
222.28	47.81
222.659	52.13
223.037	54.54
223.416	54.88
223.794	55.1
224.173	51.75
224.551	44.45
224.929	38.28
225.308	32.02
225.686	31.22
226.064	24.54
226.442	20.16
226.821	22.22
227.199	22.31
227.577	20.31
227.955	21.78
228.333	14.98
228.711	12.23
229.089	8.55
229.467	10.19
229.845	7.86
230.222	9.73
230.6	7.35
230.978	7.84
231.356	7.82
231.733	8.51
232.111	8.14
232.488	9.11
232.866	10.11
233.243	10.59
233.621	10.28
233.998	9.34
234.376	9.6
234.753	9.73
235.13	10.03
235.508	11
235.885	8.68
236.262	8.47
236.639	8.96
237.016	8.59
237.393	8.48
237.77	9.35
238.147	8.18
238.524	7.55
238.901	6.47
239.278	6
239.655	5.57
240.032	5.99
240.409	5.43
240.785	5.43
241.162	5.8
241.539	5.46
241.915	5.7
242.292	5.68
242.668	5.51
243.045	5.55
243.421	5.08
243.798	5.21
244.174	4.94
244.551	4.72
244.927	4.78
245.303	4.6
245.679	4.45
246.056	4.2
246.432	4.21
246.808	4.58
247.184	4.67
247.56	4.76
247.936	4.52
248.312	4.61
248.688	4.63
249.064	4.48
249.44	4.42
249.815	4.4
250.191	4.21
250.567	4.2
250.943	4.02
251.318	3.96
251.694	4.14
252.069	4.44
252.445	4.41
252.82	4.55
253.196	4.53
253.571	4.64
253.947	4.74
254.322	4.77
254.697	4.65
255.073	4.46
255.448	4.27
255.823	4.24
256.198	3.98
256.573	3.81
256.948	3.73
257.323	3.83
257.698	3.79
258.073	3.63
258.448	3.63
258.823	3.46
259.198	3.52
259.573	3.39
259.948	3.44
260.322	3.46
260.697	3.5
261.072	3.5
261.446	3.5
261.821	3.58
262.195	3.59
262.57	3.63
262.944	3.49
263.319	3.46
263.693	3.54
264.067	3.57
264.442	3.82
264.816	3.86
265.19	3.82
265.564	3.65
265.938	3.9
266.313	3.73
266.687	3.89
267.061	3.83
267.435	3.97
267.809	3.84
268.183	3.83
268.556	3.69
268.93	3.84
269.304	3.74
269.678	3.71
270.051	3.61
270.425	3.49
270.799	3.57
271.172	3.7
271.546	3.68
271.919	3.8
272.293	3.58
272.666	3.58
273.04	3.41
273.413	3.5
273.787	3.39
274.16	3.38
274.533	3.41
274.906	3.5
275.279	3.46
275.653	3.32
276.026	3.51
276.399	3.5
276.772	3.47
277.145	3.45
277.518	3.39
277.891	3.4
278.263	3.48
278.636	3.54
279.009	3.41
279.382	3.46
279.755	3.39
280.127	3.48
280.5	3.39
280.872	3.64
281.245	3.74
281.617	3.88
281.99	3.84
282.362	3.75
282.735	3.7
283.107	3.61
283.479	3.73
283.852	3.61
284.224	3.66
284.596	3.63
284.968	3.62
285.34	3.67
285.713	3.71
286.085	3.61
286.457	3.56
286.829	3.61
287.201	3.5
287.572	3.54
287.944	3.53
288.316	3.63
288.688	3.59
289.06	3.59
289.431	3.64
289.803	3.82
290.175	3.97
290.546	3.94
290.918	3.93
291.289	3.83
291.661	3.89
292.032	3.92
292.403	3.83
292.775	3.94
293.146	3.9
293.517	3.96
293.889	4.08
294.26	4.21
294.631	4.18
295.002	4.29
295.373	4.23
295.744	4.28
296.115	4.3
296.486	4.32
296.857	4.31
297.228	4.32
297.599	4.26
297.97	4.32
298.34	4.31
298.711	4.49
299.082	4.53
299.452	4.52
299.823	4.5
300.194	4.57
300.564	4.44
300.935	4.45
301.305	4.36
301.676	4.29
302.046	4.28
302.416	4.16
302.787	4.13
303.157	4.28
303.527	4.27
303.897	4.23
304.267	4.14
304.637	4.14
305.008	4
305.378	4.1
305.748	4.07
306.117	4.02
306.487	3.98
306.857	4.11
307.227	4.11
307.597	4.15
307.967	4.15
308.336	4.3
308.706	4.33
309.076	4.43
309.445	4.53
309.815	4.51
310.184	4.69
310.554	4.69
310.923	4.61
311.293	4.68
311.662	4.76
312.031	4.94
312.401	4.99
312.77	5.05
313.139	5.05
313.508	5
313.877	5.25
314.246	5.17
314.616	5.32
314.985	5.31
315.353	5.41
315.722	5.63
316.091	5.65
316.46	5.81
316.829	5.82
317.198	5.97
317.567	5.99
317.935	5.95
318.304	6.03
318.672	6.11
319.041	6.04
319.41	6.04
319.778	5.97
320.147	5.91
320.515	5.94
320.883	5.83
321.252	5.82
321.62	5.79
321.988	5.91
322.357	5.64
322.725	5.66
323.093	5.61
323.461	5.48
323.829	5.46
324.197	5.4
324.565	5.48
324.933	5.31
325.301	5.29
325.669	5.34
326.037	5.48
326.405	5.5
326.772	5.57
327.14	5.55
327.508	5.56
327.875	5.58
328.243	5.69
328.61	5.72
328.978	5.74
329.346	5.76
329.713	5.83
330.08	6.12
330.448	6.3
330.815	6.42
331.182	6.45
331.55	6.54
331.917	6.58
332.284	6.48
332.651	6.56
333.018	6.62
333.385	6.67
333.752	6.64
334.119	6.66
334.486	6.61
334.853	6.67
335.22	6.68
335.587	6.77
335.954	6.74
336.32	6.8
336.687	6.88
337.054	6.87
337.42	6.82
337.787	6.57
338.153	6.43
338.52	6.37
338.886	6.47
339.253	6.45
339.619	6.49
339.986	6.6
340.352	6.6
340.718	6.79
341.084	6.74
341.451	6.74
341.817	6.76
342.183	6.74
342.549	6.71
342.915	6.69
343.281	6.74
343.647	6.71
344.013	6.72
344.379	6.73
344.745	6.74
345.11	6.78
345.476	6.94
345.842	6.95
346.208	6.99
346.573	6.99
346.939	7.07
347.304	7.06
347.67	7.07
348.035	7.08
348.401	7
348.766	7.1
349.132	7.09
349.497	7.08
349.862	7.14
350.228	7.21
350.593	7.26
350.958	7.31
351.323	7.34
351.688	7.49
352.053	7.43
352.418	7.45
352.783	7.44
353.148	7.44
353.513	7.5
353.878	7.49
354.243	7.44
354.608	7.38
354.972	7.35
355.337	7.34
355.702	7.37
356.066	7.39
356.431	7.36
356.795	7.35
357.16	7.33
357.524	7.35
357.889	7.35
358.253	7.35
358.618	7.26
358.982	7.24
359.346	7.11
359.71	7.08
360.075	7.11
360.439	7.14
360.803	7.15
361.167	7.09
361.531	7.08
361.895	7.04
362.259	7.06
362.623	7.08
362.987	7.03
363.351	6.95
363.714	6.88
364.078	6.89
364.442	6.9
364.806	6.93
365.169	6.89
365.533	6.88
365.896	6.86
366.26	6.8
366.623	6.77
366.987	6.83
367.35	6.95
367.714	6.99
368.077	6.96
368.44	6.94
368.803	6.94
369.167	6.97
369.53	7.01
369.893	6.99
370.256	6.9
370.619	6.9
370.982	6.89
371.345	6.95
371.708	6.97
372.071	6.87
372.434	6.79
372.797	6.75
373.159	6.71
373.522	6.64
373.885	6.62
374.247	6.58
374.61	6.58
374.973	6.45
375.335	6.37
375.698	6.25
376.06	6.17
376.423	6.16
376.785	6.09
377.147	6.01
377.51	5.92
377.872	5.9
378.234	5.84
378.596	5.83
378.958	5.76
379.321	5.65
379.683	5.66
380.045	5.67
380.407	5.67
380.769	5.63
381.13	5.6
381.492	5.57
381.854	5.52
382.216	5.45
382.578	5.43
382.939	5.31
383.301	5.3
383.663	5.29
384.024	5.22
384.386	5.19
384.747	5.14
385.109	5.14
385.47	5.17
385.832	5.14
386.193	5.12
386.554	5.03
386.916	5.03
387.277	4.98
387.638	4.94
387.999	4.89
388.36	4.86
388.721	4.87
389.082	4.88
389.443	4.9
389.804	4.85
390.165	4.85
390.526	4.88
390.887	4.86
391.248	4.84
391.609	4.89
391.969	4.9
392.33	4.9
392.691	4.89
393.051	4.84
393.412	4.86
393.772	4.83
394.133	4.84
394.493	4.81
394.854	4.78
395.214	4.73
395.574	4.71
395.935	4.65
396.295	4.63
396.655	4.59
397.015	4.55
397.376	4.54
397.736	4.47
398.096	4.4
398.456	4.42
398.816	4.4
399.176	4.3
399.535	4.24
399.895	4.2
400.255	4.16
400.615	4.16
400.975	4.09
401.334	4.09
401.694	4.08
402.054	4.06
402.413	4.07
402.773	4.08
403.132	4.07
403.492	4.09
403.851	4.09
404.211	4.08
404.57	4.07
404.929	4.04
405.288	4.06
405.648	4.08
406.007	4.03
406.366	4.01
406.725	4
407.084	4.03
407.443	4.05
407.802	4.04
408.161	4.03
408.52	4.03
408.879	4.01
409.238	4
409.596	3.98
409.955	3.97
410.314	3.97
410.673	3.98
411.031	3.93
411.39	3.89
411.748	3.91
412.107	3.88
412.465	3.9
412.824	3.87
413.182	3.87
413.54	3.9
413.899	3.86
414.257	3.88
414.615	3.83
414.974	3.8
415.332	3.81
415.69	3.77
416.048	3.77
416.406	3.73
416.764	3.73
417.122	3.71
417.48	3.7
417.838	3.67
418.195	3.65
418.553	3.65
418.911	3.64
419.269	3.62
419.626	3.61
419.984	3.57
420.342	3.55
420.699	3.54
421.057	3.51
421.414	3.51
421.772	3.5
422.129	3.49
422.486	3.48
422.844	3.47
423.201	3.48
423.558	3.48
423.915	3.48
424.273	3.46
424.63	3.47
424.987	3.48
425.344	3.49
425.701	3.49
426.058	3.49
426.415	3.48
426.772	3.47
427.128	3.47
427.485	3.49
427.842	3.5
428.199	3.5
428.555	3.49
428.912	3.49
429.269	3.49
429.625	3.49
429.982	3.51
430.338	3.5
430.695	3.47
431.051	3.46
431.407	3.46
431.764	3.46
432.12	3.45
432.476	3.45
432.832	3.42
433.189	3.41
433.545	3.4
433.901	3.4
434.257	3.41
434.613	3.4
434.969	3.39
435.325	3.38
435.681	3.38
436.036	3.4
436.392	3.4
436.748	3.39
437.104	3.39
437.459	3.37
437.815	3.38
438.171	3.4
438.526	3.39
438.882	3.38
439.237	3.39
439.593	3.39
439.948	3.4
440.304	3.39
440.659	3.41
441.014	3.42
441.369	3.42
441.725	3.4
442.08	3.41
442.435	3.41
442.79	3.42
443.145	3.42
443.5	3.4
443.855	3.39
444.21	3.39
444.565	3.38
444.92	3.39
445.275	3.38
445.629	3.38
445.984	3.38
446.339	3.38
446.693	3.37
447.048	3.35
447.403	3.33
447.757	3.34
448.112	3.33
448.466	3.32
448.82	3.31
449.175	3.31
449.529	3.3
449.883	3.29
450.238	3.28
450.592	3.27
450.946	3.26
451.3	3.28
451.654	3.27
452.008	3.25
452.362	3.24
452.716	3.25
453.07	3.24
453.424	3.24
453.778	3.23
454.132	3.23
454.486	3.24
454.839	3.24
455.193	3.25
455.547	3.24
455.9	3.24
456.254	3.25
456.607	3.25
456.961	3.26
457.314	3.26
457.668	3.27
458.021	3.27
458.375	3.26
458.728	3.24
459.081	3.24
459.434	3.24
459.787	3.26
460.141	3.27
460.494	3.27
460.847	3.28
461.2	3.29
461.553	3.29
461.906	3.29
462.259	3.29
462.611	3.29
462.964	3.32
463.317	3.31
463.67	3.31
464.022	3.33
464.375	3.34
464.728	3.35
465.08	3.35
465.433	3.35
465.785	3.39
466.138	3.4
466.49	3.42
466.843	3.45
467.195	3.45
467.547	3.44
467.899	3.46
468.252	3.46
468.604	3.48
468.956	3.51
469.308	3.54
469.66	3.56
470.012	3.58
470.364	3.58
470.716	3.59
471.068	3.6
471.42	3.62
471.772	3.62
472.123	3.62
472.475	3.64
472.827	3.67
473.178	3.67
473.53	3.7
473.882	3.71
474.233	3.7
474.585	3.69
474.936	3.7
475.288	3.68
475.639	3.69
475.99	3.69
476.342	3.67
476.693	3.68
477.044	3.66
477.395	3.65
477.746	3.63
478.097	3.64
478.448	3.62
478.8	3.61
479.15	3.6
479.501	3.59
479.852	3.59
480.203	3.58
480.554	3.57
480.905	3.56
481.255	3.55
481.606	3.55
481.957	3.56
482.307	3.56
482.658	3.56
483.009	3.54
483.359	3.54
483.709	3.53
484.06	3.52
484.41	3.53
484.761	3.53
485.111	3.52
485.461	3.51
485.811	3.51
486.162	3.51
486.512	3.51
486.862	3.51
487.212	3.5
487.562	3.5
487.912	3.5
488.262	3.5
488.612	3.49
488.961	3.49
489.311	3.48
489.661	3.48
490.011	3.48
490.36	3.47
490.71	3.47
491.06	3.49
491.409	3.48
491.759	3.49
492.108	3.48
492.458	3.5
492.807	3.49
493.157	3.51
493.506	3.51
493.855	3.52
494.204	3.53
494.554	3.56
494.903	3.58
495.252	3.6
495.601	3.63
495.95	3.65
496.299	3.66
496.648	3.7
496.997	3.73
497.346	3.78
497.695	3.82
498.043	3.86
498.392	3.9
498.741	3.95
499.09	3.97
499.438	4.03
499.787	4.04
500.135	4.09
500.484	4.14
500.832	4.2
501.181	4.27
501.529	4.32
501.878	4.36
502.226	4.41
502.574	4.47
502.923	4.51
503.271	4.58
503.619	4.67
503.967	4.73
504.315	4.81
504.663	4.86
505.011	4.95
505.359	5.02
505.707	5.09
506.055	5.15
506.403	5.23
506.751	5.32
507.098	5.42
507.446	5.51
507.794	5.59
508.141	5.71
508.489	5.8
508.837	5.89
509.184	6
509.531	6.08
509.879	6.18
510.226	6.28
510.574	6.41
510.921	6.51
511.268	6.63
511.616	6.74
511.963	6.86
512.31	6.98
512.657	7.12
513.004	7.24
513.351	7.39
513.698	7.52
514.045	7.7
514.392	7.85
514.739	8.01
515.086	8.19
515.432	8.34
515.779	8.51
516.126	8.68
516.473	8.83
516.819	9.01
517.166	9.17
517.512	9.32
517.859	9.47
518.205	9.6
518.552	9.73
518.898	9.87
519.245	10.03
519.591	10.17
519.937	10.3
520.283	10.47
520.629	10.62
520.976	10.78
521.322	10.92
521.668	11.1
522.014	11.29
522.36	11.49
522.706	11.67
523.052	11.88
523.398	12.1
523.743	12.34
524.089	12.57
524.435	12.79
524.781	13
525.126	13.19
525.472	13.39
525.817	13.56
526.163	13.73
526.509	13.89
526.854	14.02
527.199	14.17
527.545	14.3
527.89	14.44
528.235	14.57
528.581	14.73
528.926	14.85
529.271	15.02
529.616	15.14
529.961	15.3
530.306	15.45
530.651	15.61
530.996	15.77
531.341	15.96
531.686	16.14
532.031	16.31
532.376	16.51
532.721	16.71
533.065	16.91
533.41	17.12
533.755	17.32
534.099	17.53
534.444	17.76
534.788	17.99
535.133	18.22
535.477	18.47
535.822	18.69
536.166	18.97
536.51	19.22
536.855	19.51
537.199	19.77
537.543	20.05
537.887	20.32
538.231	20.63
538.576	20.93
538.92	21.22
539.264	21.51
539.608	21.78
539.951	22.04
540.295	22.29
540.639	22.53
540.983	22.74
541.327	23
541.671	23.22
542.014	23.45
542.358	23.68
542.701	23.88
543.045	24.1
543.389	24.32
543.732	24.53
544.075	24.74
544.419	25
544.762	25.24
545.105	25.5
545.449	25.74
545.792	26
546.135	26.27
546.478	26.57
546.821	26.83
547.165	27.12
547.508	27.38
547.851	27.66
548.194	28
548.536	28.23
548.879	28.54
549.222	28.8
549.565	29.14
549.908	29.41
550.25	29.72
550.593	30.02
550.936	30.32
551.278	30.65
551.621	30.91
551.963	31.2
552.306	31.49
552.648	31.77
552.991	32.01
553.333	32.27
553.675	32.52
554.017	32.76
554.36	33.01
554.702	33.27
555.044	33.48
555.386	33.7
555.728	33.98
556.07	34.22
556.412	34.49
556.754	34.63
557.096	34.91
557.438	35.15
557.78	35.45
558.121	35.7
558.463	35.9
558.805	36.16
559.147	36.42
559.488	36.66
559.83	36.89
560.171	37.16
560.513	37.37
560.854	37.54
561.196	37.83
561.537	38
561.878	38.27
562.22	38.56
562.561	38.75
562.902	38.98
563.243	39.12
563.584	39.23
563.925	39.47
564.266	39.62
564.607	39.75
564.948	39.9
565.289	40.11
565.63	40.3
565.971	40.51
566.312	40.6
566.653	40.74
566.993	40.95
567.334	41.15
567.675	41.36
568.015	41.57
568.356	41.71
568.696	41.86
569.037	41.98
569.377	42.07
569.718	42.22
570.058	42.38
570.398	42.56
570.739	42.77
571.079	42.92
571.419	43.1
571.759	43.28
572.099	43.34
572.439	43.43
572.779	43.56
573.119	43.69
573.459	43.89
573.799	44
574.139	44.07
574.479	44.17
574.819	44.27
575.158	44.33
575.498	44.45
575.838	44.6
576.177	44.7
576.517	44.8
576.856	44.91
577.196	45.01
577.535	45.15
577.875	45.31
578.214	45.43
578.553	45.5
578.893	45.66
579.232	45.86
579.571	45.99
579.91	46.12
580.25	46.19
580.589	46.28
580.928	46.4
581.267	46.49
581.606	46.53
581.945	46.63
582.283	46.67
582.622	46.79
582.961	46.92
583.3	47.03
583.639	47.23
583.977	47.35
584.316	47.42
584.654	47.52
584.993	47.56
585.332	47.73
585.67	47.87
586.008	47.92
586.347	48.05
586.685	48.14
587.024	48.24
587.362	48.27
587.7	48.42
588.038	48.48
588.376	48.59
588.715	48.73
589.053	48.86
589.391	48.98
589.729	49.03
590.067	49.05
590.404	49.1
590.742	49.19
591.08	49.25
591.418	49.4
591.756	49.46
592.093	49.49
592.431	49.51
592.769	49.63
593.106	49.65
593.444	49.68
593.781	49.76
594.119	49.84
594.456	49.89
594.793	49.85
595.131	49.93
595.468	50
595.805	50.02
596.143	50.03
596.48	50.17
596.817	50.16
597.154	50.26
597.491	50.34
597.828	50.32
598.165	50.43
598.502	50.38
598.839	50.42
599.176	50.54
599.512	50.62
599.849	50.61
600.186	50.72
600.523	50.75
600.859	50.75
601.196	50.8
601.532	50.93
601.869	51.06
602.205	51.14
602.542	51.16
602.878	51.23
603.215	51.29
603.551	51.28
603.887	51.38
604.223	51.37
604.56	51.37
604.896	51.47
605.232	51.51
605.568	51.57
605.904	51.66
606.24	51.71
606.576	51.74
606.912	51.81
607.248	51.9
607.583	51.92
607.919	52.07
608.255	52.08
608.591	52.1
608.926	52.16
609.262	52.16
609.597	52.23
609.933	52.24
610.268	52.28
610.604	52.36
610.939	52.43
611.275	52.53
611.61	52.57
611.945	52.51
612.281	52.59
612.616	52.66
612.951	52.72
613.286	52.78
613.621	52.8
613.956	52.84
614.291	52.8
614.626	52.9
614.961	52.96
615.296	53.05
615.631	53.14
615.966	53.1
616.3	53.23
616.635	53.33
616.97	53.38
617.304	53.44
617.639	53.49
617.973	53.48
618.308	53.5
618.642	53.51
618.977	53.65
619.311	53.59
619.646	53.72
619.98	53.66
620.314	53.56
620.648	53.52
620.983	53.52
621.317	53.49
621.651	53.57
621.985	53.52
622.319	53.62
622.653	53.62
622.987	53.73
623.321	53.81
623.655	53.7
623.988	53.81
624.322	53.82
624.656	53.9
624.99	53.95
625.323	53.92
625.657	54.04
625.99	54.04
626.324	54.19
626.657	54.07
626.991	54.1
627.324	54.18
627.658	54.26
627.991	54.28
628.324	54.34
628.657	54.36
628.991	54.36
629.324	54.34
629.657	54.41
629.99	54.35
630.323	54.32
630.656	54.4
630.989	54.39
631.322	54.47
631.655	54.55
631.987	54.51
632.32	54.59
632.653	54.52
632.986	54.53
633.318	54.49
633.651	54.53
633.984	54.57
634.316	54.6
634.649	54.64
634.981	54.72
635.313	54.78
635.646	54.68
635.978	54.72
636.31	54.64
636.643	54.62
636.975	54.79
637.307	54.72
637.639	54.7
637.971	54.67
638.303	54.59
638.635	54.48
638.967	54.58
639.299	54.64
639.631	54.67
639.963	54.68
640.295	54.62
640.626	54.78
640.958	54.79
641.29	54.85
641.621	54.9
641.953	54.8
642.285	54.77
642.616	55
642.948	55.06
643.279	55.22
643.61	55.23
643.942	55.02
644.273	55.04
644.604	55.08
644.936	55.11
645.267	55.11
645.598	55.12
645.929	55.06
646.26	55.08
646.591	55.21
646.922	55.28
647.253	55.33
647.584	55.34
647.915	55.34
648.245	55.34
648.576	55.32
648.907	55.34
649.238	55.35
649.568	55.25
649.899	55.21
650.229	55.15
650.56	55.17
650.89	55.38
651.221	55.46
651.551	55.45
651.882	55.45
652.212	55.61
652.542	55.67
652.872	55.65
653.203	55.61
653.533	55.57
653.863	55.52
654.193	55.66
654.523	55.64
654.853	55.65
655.183	55.64
655.513	55.61
655.843	55.58
656.172	55.72
656.502	55.74
656.832	55.76
657.162	55.86
657.491	55.98
657.821	55.97
658.15	56.03
658.48	56.17
658.809	56.14
659.139	56.04
659.468	56.04
659.798	56.09
660.127	56.2
660.456	56.29
660.785	56.31
661.115	56.13
661.444	56.06
661.773	56.14
662.102	56.17
662.431	56.21
662.76	56.29
663.089	56.29
663.418	56.32
663.747	56.48
664.076	56.43
664.404	56.28
664.733	56.22
665.062	56.24
665.39	56.24
665.719	56.32
666.048	56.39
666.376	56.32
666.705	56.25
667.033	56.25
667.362	56.05
667.69	56.09
668.018	56.14
668.347	56.32
668.675	56.3
669.003	56.39
669.331	56.42
669.659	56.45
669.987	56.38
670.315	56.32
670.643	56.15
670.971	56.12
671.299	56.2
671.627	56.33
671.955	56.22
672.283	56.17
672.61	56.12
672.938	56.14
673.266	56.2
673.593	56.18
673.921	56.13
674.249	56.2
674.576	56.16
674.904	56.28
675.231	56.17
675.558	56.19
675.886	56.17
676.213	56.27
676.54	56.18
676.867	56.13
677.195	56.22
677.522	56.41
677.849	56.47
678.176	56.62
678.503	56.62
678.83	56.66
679.157	56.71
679.484	56.8
679.81	56.82
680.137	56.97
680.464	57.02
680.791	57.04
681.117	57.1
681.444	57.08
681.771	57.19
682.097	57.19
682.424	57.23
682.75	57.22
683.077	57.18
683.403	57.3
683.729	57.39
684.056	57.44
684.382	57.37
684.708	57.37
685.034	57.24
685.36	57.16
685.686	57.22
686.012	57.19
686.339	57.16
686.664	57.09
686.99	56.88
687.316	57.03
687.642	57.08
687.968	57.15
688.294	57.19
688.619	57.09
688.945	57.12
689.271	57.1
689.596	57.1
689.922	57.06
690.247	57.04
690.573	57.08
690.898	57.12
691.224	57.05
691.549	57.09
691.874	56.99
692.2	57
692.525	56.94
692.85	56.79
693.175	56.87
693.5	56.9
693.825	56.92
694.15	56.68
694.475	56.66
694.8	56.63
695.125	56.66
695.45	56.6
695.775	56.8
696.099	56.87
696.424	56.87
696.749	57.04
697.073	57.11
697.398	57.1
697.723	57.02
698.047	57.14
698.372	57.22
698.696	57.19
699.02	57.11
699.345	57.12
699.669	57.3
699.993	57.3
700.318	57.3
700.642	57.44
700.966	57.64
701.29	57.69
701.614	57.75
701.938	57.91
702.262	57.94
702.586	57.87
702.91	57.78
703.234	57.97
703.557	57.92
703.881	58.09
704.205	58.11
704.529	58.08
704.852	58.05
705.176	58.01
705.499	58.12
705.823	58.26
706.146	58.52
706.47	58.59
706.793	58.64
707.117	58.71
707.44	58.71
707.763	58.7
708.086	58.58
708.409	58.73
708.733	58.47
709.056	58.54
709.379	58.4
709.702	58.52
710.025	58.31
710.348	58.17
710.671	57.97
710.993	58.15
711.316	58.13
711.639	58.15
711.962	58.06
712.284	58.17
712.607	58.1
712.93	57.97
713.252	57.81
713.575	57.81
713.897	57.68
714.22	57.6
714.542	57.66
714.864	57.8
715.187	57.65
715.509	57.66
715.831	57.66
716.153	57.73
716.475	57.73
716.798	57.78
717.12	57.93
717.442	57.93
717.764	57.71
718.085	57.86
718.407	57.82
718.729	57.86
719.051	57.75
719.373	57.92
719.695	57.78
720.016	58
720.338	57.99
720.659	57.97
720.981	58.13
721.302	58.05
721.624	57.92
721.945	58.19
722.267	58.24
722.588	58.29
722.909	58.18
723.231	58.46
723.552	58.37
723.873	58.21
724.194	58.23
724.515	58.46
724.836	58.29
725.157	58.43
725.478	58.86
725.799	58.95
726.12	59.03
726.441	59.14
726.762	59.11
727.083	59.16
727.403	59.3
727.724	59.31
728.045	59.32
728.365	59.46
728.686	59.14
729.006	59.21
729.327	59.25
729.647	59.29
729.967	58.96
730.288	59.01
730.608	58.88
730.928	59.16
731.249	59.12
731.569	59.27
731.889	59.12
732.209	59
732.529	59.01
732.849	59.06
733.169	59.12
733.489	58.99
733.809	59.03
734.129	59.15
734.448	59.15
734.768	59.28
735.088	59.24
735.408	59.16
735.727	59.27
736.047	59.29
736.366	59.38
736.686	59.52
737.005	59.48
737.325	59.65
737.644	59.54
737.963	59.47
738.283	59.37
738.602	59.52
738.921	59.2
739.24	59.16
739.56	59.18
739.879	58.89
740.198	58.97
740.517	58.88
740.836	58.72
741.155	58.63
741.473	58.33
741.792	58.33
742.111	58.62
742.43	58.94
742.748	59.05
743.067	58.94
743.386	58.73
743.704	58.75
744.023	58.6
744.341	58.35
744.66	58.58
744.978	58.92
745.297	58.92
745.615	59.04
745.933	58.91
746.252	58.6
746.57	58.9
746.888	59.01
747.206	59.31
747.524	59.56
747.842	59.59
748.16	60.06
748.478	60.37
748.796	60.33
749.114	59.89
749.432	59.78
749.749	59.72
750.067	59.96
750.385	60.27
750.703	60.86
751.02	61.02
751.338	60.66
751.655	60.43
751.973	60.33
752.29	60.39
752.608	60.54
752.925	60.6
753.242	60.67
753.56	60.62
753.877	60.09
754.194	60.12
754.511	60.3
754.828	60.38
755.145	60.09
755.462	60.14
755.779	59.95
756.096	60.02
756.413	60.34
756.73	60.66
757.047	60.24
757.364	60.18
757.68	60.59
757.997	60.83
758.314	60.92
758.63	60.9
758.947	60.72
759.264	60.61
759.58	60.74
759.896	60.64
760.213	60.61
760.529	60.67
760.846	60.59
761.162	60.45
761.478	60.2
761.794	59.93
762.11	59.84
762.426	60.2
762.743	60.32
763.059	60.43
763.375	60.27
763.69	60.35
764.006	60.3
764.322	60.06
764.638	60.17
764.954	60.2
765.27	60.19
765.585	60.23
765.901	60.33
766.216	60.08
766.532	60.37
766.848	60.37
767.163	60.52
767.478	60.53
767.794	60.56
768.109	60.8
768.424	60.99
768.74	60.87
769.055	60.82
769.37	60.55
769.685	60.39
770	60.42
770.315	60.61
770.63	60.63
770.945	60.85
771.26	60.7
771.575	60.63
771.89	60.73
772.205	61.28
772.52	61.25
772.834	61.79
773.149	61.21
773.464	61.03
773.778	60.99
774.093	61.01
774.407	60.82
774.722	60.74
775.036	60.87
775.351	61.19
775.665	60.95
775.979	61.11
776.293	61.41
776.608	61.4
776.922	61.42
777.236	61.66
777.55	61.01
777.864	60.9
778.178	60.65
778.492	60.97
778.806	61.05
779.12	61.41
779.434	61.15
779.747	61.63
780.061	61.7
780.375	61.67
780.689	61.57
781.002	61.72
781.316	61.34
781.629	61.28
781.943	61.49
782.256	61.56
782.57	61.4
782.883	61.05
783.196	60.8
783.51	60.72
783.823	60.59
784.136	60.84
784.449	60.63
784.762	61.46
785.075	61.29
785.388	60.8
785.701	60.43
786.014	60.2
786.327	59.93
786.64	59.73
786.953	59.82
787.266	59.64
787.578	59.45
787.891	59.53
788.204	59.72
788.516	59.82
788.829	59.51
789.141	59.77
789.454	60.01
789.766	59.85
790.079	59.7
790.391	59.24
790.703	59.38
791.016	59.65
791.328	59.21
791.64	59.14
791.952	59
792.264	59.31
792.576	59.82
792.888	59.97
793.2	60.8
793.512	61.03
793.824	61.16
794.136	61.83
794.448	61.96
794.76	62.23
795.071	62.17
795.383	62.5
795.695	62.13
796.006	61.79
796.318	62.1
796.629	62.35
796.941	62.54
797.252	62.35
797.564	62.24
797.875	61.74
798.186	61.44
798.497	61.51
798.809	60.92
799.12	60.75
799.431	61.12
799.742	60.56
800.053	60.47
800.364	61.13
800.675	60.79
800.986	61.12
801.297	61.04
801.608	61.1
801.918	61.34
802.229	61.78
802.54	61.99
802.851	62.18
803.161	61.55
803.472	61.55
803.782	61.61
804.093	61.86
804.403	62.85
804.714	63.21
805.024	63.41
805.334	63.55
805.645	63.7
805.955	63.12
806.265	63.17
806.575	63.21
806.885	62.04
807.195	62.06
807.505	61.51
807.815	61.18
808.125	60.59
808.435	60.26
808.745	60.01
809.055	60.11
809.365	59.82
809.674	60.55
809.984	60.18
810.294	60.05
810.603	60.03
810.913	59.33
811.222	59.64
811.532	59.73
811.841	61.2
812.151	61.41
812.46	61.11
812.769	62.09
813.079	61.71
813.388	62.65
813.697	63.21
814.006	63.73
814.315	63.48
814.624	63.79
814.933	63.61
815.242	64.19
815.551	63.94
815.86	63.76
816.169	64.16
816.478	64.54
816.786	64.9
817.095	64.27
817.404	63.91
817.712	63.76
818.021	63.96
818.33	61.77
818.638	61.79
818.947	61.73
819.255	61.89
819.563	61.93
819.872	61.4
820.18	61.55
820.488	61.29
820.796	61.48
821.105	61.85
821.413	62.16
821.721	61.76
822.029	61.81
822.337	61.8
822.645	61.82
822.953	61.73
823.26	61.61
823.568	61.51
823.876	61.77
824.184	61.92
824.491	61.79
824.799	62.24
825.107	62.19
825.414	62.33
825.722	62.08
826.029	61.99
826.337	62.19
826.644	62.09
826.951	62.12
827.259	62.14
827.566	61.86
827.873	61.8
828.18	62.13
828.488	62.22
828.795	62.32
829.102	62.24
829.409	62.55
829.716	62.86
830.023	63.44
830.329	63.4
830.636	62.86
830.943	62.88
831.25	62.74
831.557	62.63
831.863	62.52
832.17	62.84
832.476	62.98
832.783	62.81
833.089	62.54
833.396	62.66
833.702	62.78
834.009	62.8
834.315	62.77
834.621	62.54
834.928	62.37
835.234	62.2
835.54	61.76
835.846	61.46
836.152	61.5
836.458	61.07
836.764	60.94
837.07	61.19
837.376	61.55
837.682	61.34
837.988	61.2
838.293	61.11
838.599	60.41
838.905	61.1
839.211	61.12
839.516	61.61
839.822	62.07
840.127	62
840.433	62.35
840.738	62.71
841.044	64.21
841.349	64.54
841.654	65.95
841.959	67.27
842.265	66.94
842.57	67.11
842.875	68.16
843.18	68.72
843.485	68.67
843.79	68.92
844.095	70.45
844.4	71.36
844.705	72.66
845.01	74.35
845.315	72.25
845.619	75.16
845.924	75.73
846.229	75.73
846.533	76.33
846.838	75.12
847.142	73.68
847.447	72.32
847.751	71.98
848.056	70.76
848.36	70.96
848.664	71.23
848.969	72.49
849.273	72.38
849.577	73.31
849.881	72.94
850.185	72.07
850.489	70.53
850.794	70.39
851.097	71.12
851.401	68.76
851.705	70.47
852.009	69.69
852.313	68.77
852.617	70.78
852.92	71.81
853.224	74.3
853.528	76.99
853.831	77.52
854.135	80.32
854.438	83.15
854.742	82.68
855.045	84.35
855.349	82.01
855.652	80.49
855.955	78.13
856.259	78.46
856.562	79.18
856.865	80.2
857.168	81.03
857.471	78.65
857.774	83.43
858.077	84.51
858.38	83.03
858.683	84.4
858.986	81.68
859.289	81.16
859.592	84.19
859.894	82.64
860.197	82.25
860.5	80.22
860.802	77.78
861.105	75.68
861.407	76.47
861.71	76.94
862.012	80.17
862.315	80.25
862.617	80.42
862.919	81.13
863.222	79.96
863.524	78.74
863.826	80.75
864.128	79.18
864.43	78.93
864.732	79.33
865.034	75.57
865.336	75.65
865.638	75.31
865.94	70.75
866.242	68.04
866.544	67.72
866.846	67.2
867.147	67.85
867.449	72
867.751	70.33
868.052	68.58
868.354	66.74
868.655	68.83
868.957	68.79
869.258	69.13
869.56	71.4
869.861	72.15
870.162	70.32
870.463	69.06
870.765	66.36
871.066	64.34
871.367	65.99
871.668	65.49
871.969	65.43
872.27	63.87
872.571	67.36
872.872	65.87
873.173	65.87
873.473	65.3
873.774	61.19
874.075	63.45
874.376	63.74
874.676	66.6
874.977	66.35
875.277	67.94
875.578	64.21
875.878	61.57
876.179	61.16
876.479	61.52
876.78	61.2
877.08	63.59
877.38	63.98
877.68	64.36
877.981	65.78
878.281	64.69
878.581	68.47
