Data from MVZ_BU65311_Reflection_00011.txt Node
Date: Tue Nov 19 12:20:20 EST 2019
User: vgr7
Spectrometer: USB2G7710
Scans to average: 3
Trigger mode: 4
Integration Time (sec): 2.000000E-2
Electric dark correction enabled: true
Boxcar width: 10
XAxis mode: Wavelengths
Number of Pixels in Spectrum: 2048
>>>>>Begin Spectral Data<<<<<
177.721	-187.04
178.105	72.22
178.488	19.69
178.871	-31.11
179.254	-75.93
179.636	73.18
180.019	326.85
180.402	200
180.785	-36.42
181.168	-153.09
181.55	456.48
181.933	1579.17
182.316	527.08
182.698	103.47
183.081	13.69
183.463	-56.43
183.846	-88.82
184.228	-193.15
184.611	-136.25
184.993	-134.17
185.376	-112.78
185.758	-41.71
186.14	-53.42
186.522	-37.6
186.904	-27.44
187.287	-28.72
187.669	-3.78
188.051	-6.31
188.433	-24.46
188.815	-15.68
189.197	-19.19
189.579	-7.65
189.961	-14.29
190.342	-6.84
190.724	-7.19
191.106	-7.19
191.488	-2.04
191.869	-3.1
192.251	-6.99
192.633	3.2
193.014	5.9
193.396	5.03
193.777	6.78
194.159	8.48
194.54	14.98
194.922	11.96
195.303	-0.64
195.684	-0.2
196.065	4.29
196.447	18.35
196.828	13.04
197.209	14.23
197.59	21.56
197.971	27.77
198.352	16.18
198.733	15.86
199.114	12
199.495	10.32
199.876	14.54
200.257	10.61
200.638	-9.48
201.018	-12.27
201.399	-8.25
201.78	-7.11
202.16	-36.38
202.541	-28.07
202.922	-44.46
203.302	-44.1
203.683	-67.56
204.063	-59.11
204.444	-46.98
204.824	-40.05
205.204	-17.66
205.585	-12.58
205.965	-25.47
206.345	-11.98
206.725	-14.78
207.106	-0.05
207.486	5.95
207.866	6.22
208.246	24.38
208.626	31.44
209.006	28.6
209.386	20.87
209.766	17.23
210.145	29.08
210.525	15.92
210.905	19.4
211.285	21.5
211.664	27.18
212.044	21.91
212.424	7.19
212.803	-5.06
213.183	-18.58
213.562	-29.94
213.942	-21.14
214.321	-30.98
214.701	-42.69
215.08	-30.4
215.459	-30.73
215.838	-34.93
216.218	-40.56
216.597	-30.28
216.976	-30.2
217.355	-28.66
217.734	-25.35
218.113	-16.41
218.492	-16
218.871	-10.15
219.25	-7.62
219.629	-14.95
220.008	-15.93
220.387	-6.48
220.766	0.58
221.144	-0.03
221.523	3.02
221.902	1.35
222.28	7.23
222.659	18.77
223.037	12.79
223.416	8.92
223.794	14.67
224.173	14.99
224.551	-0.7
224.929	-1.63
225.308	-0.65
225.686	-3.3
226.064	-7.17
226.442	-2.78
226.821	-1.75
227.199	-3.64
227.577	-0.96
227.955	1.93
228.333	0.36
228.711	-0.01
229.089	0.19
229.467	-2.17
229.845	-3.2
230.222	-3.56
230.6	-5.63
230.978	-6.04
231.356	-5.5
231.733	-4.86
232.111	-2.96
232.488	-1.37
232.866	-0.34
233.243	0.59
233.621	-1.83
233.998	-2.71
234.376	-2.35
234.753	-2.41
235.13	-1.56
235.508	-2.78
235.885	-3.07
236.262	-4.2
236.639	-4.12
237.016	-3.03
237.393	-0.25
237.77	0.87
238.147	1.4
238.524	1.54
238.901	1.02
239.278	1.25
239.655	0.31
240.032	-0.24
240.409	0.85
240.785	1.4
241.162	1.07
241.539	1.74
241.915	2.02
242.292	2
242.668	1.98
243.045	2.38
243.421	2.63
243.798	2.77
244.174	3.52
244.551	4.06
244.927	4
245.303	3.62
245.679	3.43
246.056	3.57
246.432	3.72
246.808	4.07
247.184	4.09
247.56	4.16
247.936	4.03
248.312	4.12
248.688	3.88
249.064	3.94
249.44	4.06
249.815	4.16
250.191	4.14
250.567	4.05
250.943	4.03
251.318	4.06
251.694	3.91
252.069	3.62
252.445	3.58
252.82	3.66
253.196	3.71
253.571	4.11
253.947	4.08
254.322	3.96
254.697	3.51
255.073	3.8
255.448	4.05
255.823	4.17
256.198	3.79
256.573	3.95
256.948	4.12
257.323	3.92
257.698	3.8
258.073	3.93
258.448	3.99
258.823	3.7
259.198	3.98
259.573	3.91
259.948	4.01
260.322	3.65
260.697	3.7
261.072	3.74
261.446	3.64
261.821	3.58
262.195	3.53
262.57	3.7
262.944	3.7
263.319	3.54
263.693	3.66
264.067	3.77
264.442	3.77
264.816	3.42
265.19	3.25
265.564	3.44
265.938	3.35
266.313	3.31
266.687	3.46
267.061	3.34
267.435	3.65
267.809	3.39
268.183	3.56
268.556	3.44
268.93	3.61
269.304	3.54
269.678	3.49
270.051	3.62
270.425	3.55
270.799	3.4
271.172	3.5
271.546	3.54
271.919	3.55
272.293	3.69
272.666	3.94
273.04	4.08
273.413	3.96
273.787	3.87
274.16	3.75
274.533	3.81
274.906	3.73
275.279	3.72
275.653	3.96
276.026	4.07
276.399	4.11
276.772	4.11
277.145	4.12
277.518	4.25
277.891	4.18
278.263	4.18
278.636	4.31
279.009	4.42
279.382	4.17
279.755	4.06
280.127	3.89
280.5	3.68
280.872	3.79
281.245	3.92
281.617	4.03
281.99	4.26
282.362	4.32
282.735	4.22
283.107	4.15
283.479	4.15
283.852	4.14
284.224	4.17
284.596	4.23
284.968	4.2
285.34	4.09
285.713	4.14
286.085	4.14
286.457	4.01
286.829	3.9
287.201	4.06
287.572	4
287.944	4.08
288.316	4.25
288.688	4.33
289.06	4.21
289.431	4.25
289.803	4.29
290.175	4.08
290.546	4.14
290.918	4.18
291.289	3.98
291.661	3.98
292.032	3.85
292.403	3.71
292.775	3.76
293.146	3.77
293.517	3.83
293.889	3.86
294.26	3.98
294.631	3.9
295.002	3.9
295.373	3.92
295.744	3.83
296.115	3.77
296.486	3.62
296.857	3.77
297.228	3.64
297.599	3.62
297.97	3.96
298.34	3.97
298.711	3.85
299.082	3.93
299.452	4.01
299.823	4.13
300.194	4.13
300.564	4.18
300.935	4.28
301.305	4.26
301.676	4.08
302.046	4.01
302.416	4.18
302.787	4.01
303.157	4.08
303.527	4.27
303.897	4.21
304.267	4.46
304.637	4.37
305.008	4.53
305.378	4.42
305.748	4.14
306.117	4.12
306.487	4.28
306.857	4.34
307.227	4.18
307.597	4.18
307.967	4.21
308.336	4.15
308.706	4.21
309.076	4.29
309.445	4.44
309.815	4.41
310.184	4.52
310.554	4.66
310.923	4.8
311.293	4.71
311.662	4.77
312.031	4.58
312.401	4.53
312.77	4.47
313.139	4.41
313.508	4.42
313.877	4.48
314.246	4.36
314.616	4.38
314.985	4.43
315.353	4.48
315.722	4.58
316.091	4.76
316.46	4.76
316.829	4.65
317.198	4.68
317.567	4.83
317.935	4.65
318.304	4.71
318.672	4.77
319.041	4.85
319.41	4.93
319.778	4.98
320.147	4.99
320.515	5.04
320.883	4.96
321.252	4.97
321.62	5.02
321.988	5.14
322.357	5.12
322.725	5.23
323.093	5.02
323.461	4.9
323.829	4.72
324.197	4.53
324.565	4.63
324.933	4.71
325.301	4.59
325.669	4.74
326.037	4.68
326.405	4.57
326.772	4.53
327.14	4.46
327.508	4.6
327.875	4.62
328.243	4.69
328.61	4.86
328.978	4.97
329.346	4.92
329.713	5
330.08	5.06
330.448	5.03
330.815	5.15
331.182	5.18
331.55	5.25
331.917	5.42
332.284	5.42
332.651	5.28
333.018	5.34
333.385	5.31
333.752	5.37
334.119	5.47
334.486	5.5
334.853	5.58
335.22	5.5
335.587	5.51
335.954	5.41
336.32	5.42
336.687	5.51
337.054	5.48
337.42	5.32
337.787	5.29
338.153	5.3
338.52	5.49
338.886	5.58
339.253	5.61
339.619	5.69
339.986	5.68
340.352	5.72
340.718	5.83
341.084	5.9
341.451	5.94
341.817	5.96
342.183	5.93
342.549	5.87
342.915	5.88
343.281	5.81
343.647	5.76
344.013	5.76
344.379	5.65
344.745	5.67
345.11	5.83
345.476	5.85
345.842	5.82
346.208	5.75
346.573	5.73
346.939	5.75
347.304	5.71
347.67	5.7
348.035	5.61
348.401	5.55
348.766	5.43
349.132	5.51
349.497	5.42
349.862	5.46
350.228	5.53
350.593	5.61
350.958	5.81
351.323	5.86
351.688	5.95
352.053	6.01
352.418	6.02
352.783	5.98
353.148	6.04
353.513	6.05
353.878	5.98
354.243	5.87
354.608	5.94
354.972	5.88
355.337	5.98
355.702	6.15
356.066	6.18
356.431	6.19
356.795	6.16
357.16	6.22
357.524	6.18
357.889	6.15
358.253	6.09
358.618	5.96
358.982	5.96
359.346	5.87
359.71	5.88
360.075	5.95
360.439	6.07
360.803	6
361.167	6.03
361.531	6.06
361.895	6.14
362.259	6.18
362.623	6.2
362.987	6.15
363.351	6.08
363.714	6.05
364.078	6.08
364.442	5.99
364.806	5.97
365.169	5.97
365.533	6.01
365.896	6.04
366.26	6.13
366.623	6.13
366.987	6.19
367.35	6.23
367.714	6.24
368.077	6.19
368.44	6.26
368.803	6.17
369.167	6.07
369.53	6.14
369.893	6.09
370.256	6.02
370.619	5.99
370.982	5.93
371.345	5.97
371.708	5.95
372.071	5.97
372.434	5.93
372.797	5.93
373.159	5.84
373.522	5.79
373.885	5.71
374.247	5.74
374.61	5.65
374.973	5.58
375.335	5.52
375.698	5.44
376.06	5.41
376.423	5.42
376.785	5.43
377.147	5.33
377.51	5.22
377.872	5.2
378.234	5.26
378.596	5.3
378.958	5.29
379.321	5.24
379.683	5.29
380.045	5.23
380.407	5.17
380.769	5.18
381.13	5.16
381.492	5.17
381.854	5.19
382.216	5.24
382.578	5.26
382.939	5.24
383.301	5.14
383.663	5.13
384.024	5.21
384.386	5.22
384.747	5.2
385.109	5.27
385.47	5.3
385.832	5.23
386.193	5.22
386.554	5.14
386.916	5.18
387.277	5.11
387.638	5.14
387.999	5.15
388.36	5.14
388.721	5.2
389.082	5.19
389.443	5.14
389.804	5.08
390.165	5.1
390.526	5.06
390.887	5.07
391.248	5
391.609	4.94
391.969	4.98
392.33	4.96
392.691	4.92
393.051	4.9
393.412	4.89
393.772	4.88
394.133	4.89
394.493	4.84
394.854	4.87
395.214	4.86
395.574	4.91
395.935	4.93
396.295	4.91
396.655	4.89
397.015	4.84
397.376	4.85
397.736	4.79
398.096	4.8
398.456	4.83
398.816	4.9
399.176	4.87
399.535	4.81
399.895	4.8
400.255	4.82
400.615	4.84
400.975	4.83
401.334	4.85
401.694	4.83
402.054	4.89
402.413	4.87
402.773	4.85
403.132	4.8
403.492	4.79
403.851	4.73
404.211	4.69
404.57	4.72
404.929	4.72
405.288	4.74
405.648	4.71
406.007	4.69
406.366	4.68
406.725	4.69
407.084	4.7
407.443	4.69
407.802	4.66
408.161	4.63
408.52	4.66
408.879	4.66
409.238	4.65
409.596	4.63
409.955	4.61
410.314	4.61
410.673	4.64
411.031	4.59
411.39	4.64
411.748	4.68
412.107	4.68
412.465	4.66
412.824	4.65
413.182	4.66
413.54	4.66
413.899	4.61
414.257	4.61
414.615	4.62
414.974	4.63
415.332	4.63
415.69	4.62
416.048	4.61
416.406	4.58
416.764	4.6
417.122	4.59
417.48	4.55
417.838	4.56
418.195	4.54
418.553	4.56
418.911	4.54
419.269	4.52
419.626	4.52
419.984	4.52
420.342	4.52
420.699	4.52
421.057	4.53
421.414	4.54
421.772	4.54
422.129	4.51
422.486	4.52
422.844	4.52
423.201	4.52
423.558	4.52
423.915	4.53
424.273	4.52
424.63	4.52
424.987	4.55
425.344	4.56
425.701	4.58
426.058	4.58
426.415	4.56
426.772	4.58
427.128	4.57
427.485	4.59
427.842	4.56
428.199	4.56
428.555	4.56
428.912	4.57
429.269	4.54
429.625	4.55
429.982	4.55
430.338	4.55
430.695	4.56
431.051	4.55
431.407	4.53
431.764	4.53
432.12	4.53
432.476	4.53
432.832	4.53
433.189	4.49
433.545	4.48
433.901	4.49
434.257	4.49
434.613	4.47
434.969	4.46
435.325	4.47
435.681	4.46
436.036	4.47
436.392	4.48
436.748	4.51
437.104	4.51
437.459	4.51
437.815	4.51
438.171	4.5
438.526	4.51
438.882	4.52
439.237	4.52
439.593	4.52
439.948	4.51
440.304	4.5
440.659	4.5
441.014	4.5
441.369	4.5
441.725	4.49
442.08	4.51
442.435	4.52
442.79	4.53
443.145	4.54
443.5	4.51
443.855	4.47
444.21	4.44
444.565	4.43
444.92	4.45
445.275	4.46
445.629	4.46
445.984	4.44
446.339	4.44
446.693	4.45
447.048	4.43
447.403	4.43
447.757	4.43
448.112	4.43
448.466	4.42
448.82	4.41
449.175	4.43
449.529	4.42
449.883	4.41
450.238	4.42
450.592	4.41
450.946	4.43
451.3	4.47
451.654	4.46
452.008	4.49
452.362	4.45
452.716	4.44
453.07	4.47
453.424	4.47
453.778	4.47
454.132	4.44
454.486	4.43
454.839	4.45
455.193	4.44
455.547	4.45
455.9	4.46
456.254	4.47
456.607	4.47
456.961	4.48
457.314	4.5
457.668	4.48
458.021	4.5
458.375	4.5
458.728	4.48
459.081	4.5
459.434	4.49
459.787	4.5
460.141	4.5
460.494	4.5
460.847	4.48
461.2	4.49
461.553	4.5
461.906	4.51
462.259	4.5
462.611	4.5
462.964	4.5
463.317	4.51
463.67	4.51
464.022	4.52
464.375	4.5
464.728	4.47
465.08	4.48
465.433	4.49
465.785	4.5
466.138	4.51
466.49	4.51
466.843	4.52
467.195	4.55
467.547	4.52
467.899	4.52
468.252	4.54
468.604	4.55
468.956	4.55
469.308	4.56
469.66	4.6
470.012	4.61
470.364	4.61
470.716	4.63
471.068	4.64
471.42	4.64
471.772	4.66
472.123	4.69
472.475	4.68
472.827	4.66
473.178	4.67
473.53	4.72
473.882	4.73
474.233	4.73
474.585	4.71
474.936	4.74
475.288	4.75
475.639	4.77
475.99	4.76
476.342	4.77
476.693	4.77
477.044	4.73
477.395	4.72
477.746	4.72
478.097	4.69
478.448	4.69
478.8	4.69
479.15	4.67
479.501	4.67
479.852	4.66
480.203	4.68
480.554	4.67
480.905	4.66
481.255	4.64
481.606	4.63
481.957	4.64
482.307	4.64
482.658	4.63
483.009	4.63
483.359	4.65
483.709	4.65
484.06	4.65
484.41	4.65
484.761	4.67
485.111	4.67
485.461	4.68
485.811	4.68
486.162	4.69
486.512	4.69
486.862	4.69
487.212	4.69
487.562	4.68
487.912	4.69
488.262	4.68
488.612	4.69
488.961	4.68
489.311	4.68
489.661	4.69
490.011	4.7
490.36	4.7
490.71	4.69
491.06	4.69
491.409	4.7
491.759	4.71
492.108	4.7
492.458	4.7
492.807	4.69
493.157	4.7
493.506	4.7
493.855	4.71
494.204	4.72
494.554	4.73
494.903	4.75
495.252	4.74
495.601	4.76
495.95	4.79
496.299	4.84
496.648	4.87
496.997	4.88
497.346	4.9
497.695	4.91
498.043	4.93
498.392	4.92
498.741	4.96
499.09	4.98
499.438	5
499.787	5.02
500.135	5.06
500.484	5.09
500.832	5.12
501.181	5.18
501.529	5.23
501.878	5.29
502.226	5.34
502.574	5.4
502.923	5.46
503.271	5.49
503.619	5.53
503.967	5.56
504.315	5.59
504.663	5.61
505.011	5.67
505.359	5.74
505.707	5.85
506.055	5.9
506.403	5.93
506.751	6.02
507.098	6.07
507.446	6.15
507.794	6.22
508.141	6.28
508.489	6.35
508.837	6.37
509.184	6.44
509.531	6.5
509.879	6.54
510.226	6.61
510.574	6.7
510.921	6.8
511.268	6.9
511.616	7
511.963	7.11
512.31	7.22
512.657	7.31
513.004	7.4
513.351	7.51
513.698	7.66
514.045	7.78
514.392	7.93
514.739	8.07
515.086	8.2
515.432	8.37
515.779	8.51
516.126	8.69
516.473	8.84
516.819	8.97
517.166	9.14
517.512	9.29
517.859	9.41
518.205	9.51
518.552	9.63
518.898	9.78
519.245	9.94
519.591	10.08
519.937	10.22
520.283	10.37
520.629	10.53
520.976	10.72
521.322	10.91
521.668	11.11
522.014	11.29
522.36	11.5
522.706	11.69
523.052	11.93
523.398	12.18
523.743	12.43
524.089	12.69
524.435	12.94
524.781	13.17
525.126	13.36
525.472	13.58
525.817	13.77
526.163	13.94
526.509	14.09
526.854	14.26
527.199	14.41
527.545	14.54
527.89	14.68
528.235	14.81
528.581	14.95
528.926	15.08
529.271	15.24
529.616	15.37
529.961	15.52
530.306	15.65
530.651	15.79
530.996	15.96
531.341	16.14
531.686	16.3
532.031	16.49
532.376	16.68
532.721	16.87
533.065	17.07
533.41	17.26
533.755	17.46
534.099	17.66
534.444	17.86
534.788	18.07
535.133	18.27
535.477	18.49
535.822	18.69
536.166	18.94
536.51	19.19
536.855	19.46
537.199	19.74
537.543	20.02
537.887	20.3
538.231	20.54
538.576	20.8
538.92	21.06
539.264	21.28
539.608	21.53
539.951	21.78
540.295	21.98
540.639	22.21
540.983	22.44
541.327	22.64
541.671	22.85
542.014	23.07
542.358	23.26
542.701	23.44
543.045	23.64
543.389	23.81
543.732	23.99
544.075	24.2
544.419	24.38
544.762	24.58
545.105	24.81
545.449	25.06
545.792	25.29
546.135	25.54
546.478	25.8
546.821	26.06
547.165	26.33
547.508	26.63
547.851	26.9
548.194	27.14
548.536	27.39
548.879	27.66
549.222	27.9
549.565	28.16
549.908	28.45
550.25	28.7
550.593	28.97
550.936	29.26
551.278	29.51
551.621	29.77
551.963	30.09
552.306	30.34
552.648	30.58
552.991	30.84
553.333	31.12
553.675	31.33
554.017	31.57
554.36	31.75
554.702	31.95
555.044	32.11
555.386	32.35
555.728	32.56
556.07	32.77
556.412	33.02
556.754	33.26
557.096	33.48
557.438	33.73
557.78	33.96
558.121	34.15
558.463	34.36
558.805	34.66
559.147	34.89
559.488	35.11
559.83	35.31
560.171	35.6
560.513	35.76
560.854	35.99
561.196	36.21
561.537	36.44
561.878	36.63
562.22	36.88
562.561	37.08
562.902	37.33
563.243	37.54
563.584	37.7
563.925	37.97
564.266	38.14
564.607	38.34
564.948	38.53
565.289	38.71
565.63	38.91
565.971	39.04
566.312	39.14
566.653	39.31
566.993	39.5
567.334	39.67
567.675	39.85
568.015	40.04
568.356	40.21
568.696	40.35
569.037	40.5
569.377	40.73
569.718	40.89
570.058	41.03
570.398	41.18
570.739	41.36
571.079	41.5
571.419	41.67
571.759	41.8
572.099	41.97
572.439	42.15
572.779	42.3
573.119	42.41
573.459	42.58
573.799	42.73
574.139	42.79
574.479	42.88
574.819	43.01
575.158	43.14
575.498	43.26
575.838	43.43
576.177	43.62
576.517	43.72
576.856	43.83
577.196	44.05
577.535	44.22
577.875	44.34
578.214	44.42
578.553	44.61
578.893	44.76
579.232	44.86
579.571	45.01
579.91	45.17
580.25	45.39
580.589	45.49
580.928	45.6
581.267	45.83
581.606	45.95
581.945	46.07
582.283	46.15
582.622	46.19
582.961	46.3
583.3	46.41
583.639	46.46
583.977	46.65
584.316	46.68
584.654	46.83
584.993	47.01
585.332	47.15
585.67	47.14
586.008	47.24
586.347	47.4
586.685	47.46
587.024	47.49
587.362	47.54
587.7	47.74
588.038	47.85
588.376	47.9
588.715	48.07
589.053	48.09
589.391	48.16
589.729	48.29
590.067	48.43
590.404	48.51
590.742	48.58
591.08	48.73
591.418	48.82
591.756	48.86
592.093	48.9
592.431	48.99
592.769	49.13
593.106	49.28
593.444	49.32
593.781	49.41
594.119	49.46
594.456	49.5
594.793	49.52
595.131	49.58
595.468	49.61
595.805	49.6
596.143	49.73
596.48	49.84
596.817	49.9
597.154	49.89
597.491	49.95
597.828	49.99
598.165	49.95
598.502	50.01
598.839	50.03
599.176	50.14
599.512	50.28
599.849	50.35
600.186	50.4
600.523	50.45
600.859	50.53
601.196	50.69
601.532	50.77
601.869	50.79
602.205	50.8
602.542	50.94
602.878	51.01
603.215	51.11
603.551	51.22
603.887	51.31
604.223	51.34
604.56	51.36
604.896	51.53
605.232	51.59
605.568	51.66
605.904	51.75
606.24	51.85
606.576	51.84
606.912	51.9
607.248	52.01
607.583	52.09
607.919	52.18
608.255	52.26
608.591	52.4
608.926	52.41
609.262	52.5
609.597	52.51
609.933	52.52
610.268	52.48
610.604	52.49
610.939	52.58
611.275	52.71
611.61	52.83
611.945	52.8
612.281	52.8
612.616	52.83
612.951	52.96
613.286	52.94
613.621	53.03
613.956	53.01
614.291	52.95
614.626	53.04
614.961	53.04
615.296	53.01
615.631	52.92
615.966	53.04
616.3	53.21
616.635	53.2
616.97	53.36
617.304	53.39
617.639	53.48
617.973	53.51
618.308	53.47
618.642	53.49
618.977	53.52
619.311	53.67
619.646	53.65
619.98	53.54
620.314	53.57
620.648	53.57
620.983	53.67
621.317	53.76
621.651	53.81
621.985	53.95
622.319	54.08
622.653	54.18
622.987	54.21
623.321	54.18
623.655	54.25
623.988	54.33
624.322	54.47
624.656	54.38
624.99	54.45
625.323	54.51
625.657	54.55
625.99	54.6
626.324	54.58
626.657	54.69
626.991	54.87
627.324	54.88
627.658	54.93
627.991	54.98
628.324	54.96
628.657	54.85
628.991	54.91
629.324	54.9
629.657	54.93
629.99	54.94
630.323	54.97
630.656	54.98
630.989	54.91
631.322	54.92
631.655	54.96
631.987	54.99
632.32	55.01
632.653	55.03
632.986	55.1
633.318	55.14
633.651	55.2
633.984	55.22
634.316	55.25
634.649	55.27
634.981	55.26
635.313	55.27
635.646	55.42
635.978	55.37
636.31	55.36
636.643	55.48
636.975	55.55
637.307	55.61
637.639	55.74
637.971	55.8
638.303	55.82
638.635	55.96
638.967	55.87
639.299	55.97
639.631	55.96
639.963	56
640.295	56.03
640.626	56.02
640.958	55.94
641.29	55.96
641.621	55.95
641.953	55.97
642.285	56.12
642.616	56.16
642.948	56.19
643.279	56.3
643.61	56.29
643.942	56.4
644.273	56.33
644.604	56.37
644.936	56.32
645.267	56.37
645.598	56.41
645.929	56.44
646.26	56.42
646.591	56.54
646.922	56.63
647.253	56.6
647.584	56.59
647.915	56.66
648.245	56.61
648.576	56.68
648.907	56.66
649.238	56.71
649.568	56.72
649.899	56.65
650.229	56.6
650.56	56.56
650.89	56.55
651.221	56.55
651.551	56.58
651.882	56.64
652.212	56.61
652.542	56.47
652.872	56.59
653.203	56.54
653.533	56.54
653.863	56.44
654.193	56.48
654.523	56.52
654.853	56.56
655.183	56.65
655.513	56.61
655.843	56.66
656.172	56.54
656.502	56.59
656.832	56.66
657.162	56.76
657.491	56.9
657.821	56.9
658.15	57
658.48	56.95
658.809	57.08
659.139	57.12
659.468	57.23
659.798	57.18
660.127	57.24
660.456	57.2
660.785	57.15
661.115	57.25
661.444	57.26
661.773	57.31
662.102	57.3
662.431	57.35
662.76	57.49
663.089	57.59
663.418	57.58
663.747	57.67
664.076	57.69
664.404	57.62
664.733	57.7
665.062	57.78
665.39	57.77
665.719	57.6
666.048	57.61
666.376	57.56
666.705	57.51
667.033	57.59
667.362	57.68
667.69	57.69
668.018	57.64
668.347	57.67
668.675	57.74
669.003	57.83
669.331	57.77
669.659	57.67
669.987	57.66
670.315	57.67
670.643	57.67
670.971	57.55
671.299	57.57
671.627	57.52
671.955	57.4
672.283	57.56
672.61	57.61
672.938	57.65
673.266	57.65
673.593	57.69
673.921	57.77
674.249	57.76
674.576	57.77
674.904	57.94
675.231	58
675.558	57.86
675.886	57.87
676.213	58.03
676.54	58.04
676.867	58.09
677.195	58.11
677.522	58.1
677.849	58.3
678.176	58.19
678.503	58.02
678.83	58.08
679.157	57.97
679.484	58.19
679.81	58.19
680.137	58.32
680.464	58.39
680.791	58.34
681.117	58.39
681.444	58.36
681.771	58.19
682.097	58.13
682.424	58.2
682.75	58.25
683.077	58.13
683.403	58.08
683.729	58.09
684.056	58.04
684.382	57.95
684.708	57.83
685.034	57.89
685.36	58.13
685.686	58.03
686.012	58.14
686.339	57.95
686.664	57.99
686.99	57.86
687.316	57.81
687.642	57.77
687.968	57.74
688.294	57.9
688.619	57.96
688.945	57.94
689.271	57.95
689.596	57.82
689.922	58.04
690.247	58.04
690.573	58.12
690.898	58.16
691.224	58.22
691.549	58.27
691.874	58.34
692.2	58.24
692.525	58.37
692.85	58.18
693.175	58.15
693.5	58.16
693.825	58.29
694.15	58.47
694.475	58.55
694.8	58.55
695.125	58.7
695.45	58.68
695.775	58.77
696.099	58.72
696.424	58.81
696.749	58.64
697.073	58.65
697.398	58.54
697.723	58.74
698.047	58.75
698.372	58.75
698.696	58.71
699.02	58.84
699.345	58.7
699.669	58.76
699.993	58.71
700.318	58.6
700.642	58.54
700.966	58.42
701.29	58.34
701.614	58.32
701.938	58.08
702.262	58.13
702.586	58.08
702.91	58.04
703.234	58.13
703.557	58.34
703.881	58.6
704.205	58.64
704.529	58.53
704.852	58.42
705.176	58.37
705.499	58.47
705.823	58.57
706.146	58.75
706.47	58.97
706.793	59.19
707.117	59.22
707.44	59.17
707.763	59.21
708.086	59.28
708.409	59.2
708.733	59.35
709.056	59.5
709.379	59.49
709.702	59.52
710.025	59.3
710.348	59.29
710.671	59.2
710.993	59.33
711.316	59.46
711.639	59.6
711.962	59.65
712.284	59.63
712.607	59.32
712.93	59.35
713.252	59.29
713.575	59.34
713.897	59.39
714.22	59.33
714.542	59.32
714.864	59.16
715.187	59.4
715.509	59.46
715.831	59.28
716.153	59.46
716.475	59.7
716.798	59.86
717.12	59.66
717.442	59.57
717.764	59.5
718.085	59.19
718.407	59.13
718.729	59.27
719.051	59.05
719.373	59.16
719.695	59.22
720.016	59.28
720.338	59.13
720.659	59.49
720.981	59.77
721.302	59.73
721.624	60.05
721.945	60.24
722.267	60.37
722.588	60.5
722.909	60.22
723.231	59.97
723.552	59.84
723.873	59.75
724.194	59.68
724.515	59.96
724.836	60.08
725.157	60.19
725.478	60.33
725.799	60.48
726.12	60.5
726.441	60.49
726.762	60.22
727.083	60.18
727.403	60.18
727.724	60.37
728.045	60.56
728.365	60.47
728.686	60.13
729.006	60.01
729.327	59.68
729.647	59.9
729.967	60.1
730.288	60.38
730.608	60.58
730.928	60.66
731.249	60.37
731.569	60.56
731.889	60.56
732.209	59.98
732.529	60.26
732.849	60.46
733.169	60.35
733.489	60.45
733.809	60.46
734.129	60.11
734.448	59.72
734.768	59.62
735.088	59.65
735.408	59.57
735.727	59.55
736.047	60.01
736.366	59.78
736.686	59.49
737.005	59.25
737.325	58.89
737.644	58.99
737.963	58.85
738.283	58.76
738.602	58.9
738.921	59.28
739.24	58.97
739.56	58.84
739.879	58.87
740.198	58.95
740.517	59.07
740.836	59.27
741.155	59.61
741.473	59.43
741.792	59.26
742.111	59.3
742.43	59.21
742.748	58.88
743.067	59.11
743.386	59.48
743.704	59.19
744.023	59.56
744.341	59.54
744.66	59.89
744.978	60.08
745.297	59.95
745.615	59.9
745.933	60.03
746.252	60.1
746.57	60
746.888	59.92
747.206	60.09
747.524	59.8
747.842	59.53
748.16	59.88
748.478	60.3
748.796	60.43
749.114	60.4
749.432	60.62
749.749	60.87
750.067	60.66
750.385	60.87
750.703	60.95
751.02	61.09
751.338	61.06
751.655	60.71
751.973	60.61
752.29	60.62
752.608	60.71
752.925	60.77
753.242	61
753.56	60.81
753.877	60.52
754.194	60.53
754.511	60.42
754.828	60.24
755.145	60.1
755.462	60.13
755.779	60.27
756.096	60.47
756.413	60.57
756.73	60.77
757.047	61.26
757.364	61.09
757.68	61.2
757.997	61.41
758.314	61.65
758.63	61.48
758.947	61.73
759.264	61.49
759.58	61.45
759.896	61.32
760.213	61.65
760.529	61.55
760.846	62.06
761.162	62.19
761.478	62.24
761.794	62.26
762.11	62.12
762.426	62.38
762.743	62.33
763.059	62.24
763.375	61.95
763.69	61.72
764.006	62.01
764.322	61.87
764.638	61.9
764.954	61.49
765.27	61.77
765.585	61.83
765.901	61.9
766.216	61.73
766.532	61.72
766.848	61.81
767.163	62.31
767.478	62.08
767.794	62.3
768.109	62.13
768.424	62.07
768.74	62.4
769.055	61.88
769.37	61.89
769.685	61.83
770	62.09
770.315	62.01
770.63	61.69
770.945	61.52
771.26	60.89
771.575	61.2
771.89	61
772.205	60.74
772.52	60.94
772.834	61.21
773.149	61.21
773.464	60.93
773.778	60.78
774.093	61.06
774.407	61.15
774.722	61.73
775.036	61.63
775.351	61.36
775.665	61.46
775.979	61.34
776.293	60.93
776.608	60.32
776.922	61.02
777.236	60.96
777.55	60.51
777.864	60.6
778.178	60.35
778.492	60.65
778.806	60.86
779.12	60.55
779.434	60.34
779.747	60.69
780.061	60.71
780.375	60.22
780.689	59.52
781.002	59.09
781.316	58.47
781.629	58.47
781.943	58.62
782.256	58.38
782.57	57.79
782.883	57.82
783.196	58.48
783.51	58.33
783.823	58.75
784.136	58.96
784.449	59.35
784.762	59.88
785.075	59.37
785.388	58.78
785.701	59.32
786.014	59.3
786.327	59.17
786.64	59.61
786.953	59.71
787.266	59.88
787.578	59.86
787.891	60.31
788.204	60.3
788.516	60.27
788.829	60.45
789.141	60.5
789.454	60.71
789.766	60.73
790.079	60.46
790.391	60.21
790.703	59.75
791.016	59.65
791.328	59.42
791.64	60.26
791.952	60.35
792.264	59.55
792.576	60.05
792.888	59.66
793.2	59.46
793.512	59.75
793.824	60.12
794.136	60.02
794.448	59.53
794.76	59.27
795.071	58.99
795.383	59.22
795.695	59.93
796.006	60.25
796.318	60.55
796.629	60.11
796.941	60.55
797.252	61.69
797.564	61.15
797.875	61.34
798.186	60.61
798.497	60.3
798.809	60.49
799.12	60.29
799.431	60.27
799.742	59.76
800.053	59.45
800.364	59.31
800.675	58.95
800.986	59.06
801.297	60.19
801.608	60.58
801.918	60.31
802.229	60.27
802.54	59.91
802.851	59.6
803.161	60.04
803.472	58.8
803.782	58.7
804.093	58.58
804.403	58.31
804.714	58.32
805.024	59.04
805.334	59.49
805.645	59.77
805.955	59.64
806.265	60.18
806.575	60.23
806.885	60.57
807.195	61.25
807.505	61.87
807.815	60.9
808.125	60.41
808.435	61.48
808.745	60.84
809.055	60.34
809.365	60.18
809.674	60.52
809.984	61.27
810.294	61.55
810.603	62.35
810.913	62.17
811.222	61.84
811.532	61.24
811.841	61.65
812.151	60.73
812.46	61.21
812.769	61.53
813.079	61.98
813.388	61.31
813.697	61.19
814.006	60.76
814.315	61.05
814.624	62.01
814.933	61
815.242	61.08
815.551	61.71
815.86	61.38
816.169	60.4
816.478	60.17
816.786	59.92
817.095	58.87
817.404	59.18
817.712	58.92
818.021	59.34
818.33	58.16
818.638	58.24
818.947	58.5
819.255	58.89
819.563	59.35
819.872	59.52
820.18	60.06
820.488	60.3
820.796	60.58
821.105	60.49
821.413	61.02
821.721	61.44
822.029	61.08
822.337	61.41
822.645	61.78
822.953	61.94
823.26	61.9
823.568	62.18
823.876	62.21
824.184	62.52
824.491	62.63
824.799	62.82
825.107	63.13
825.414	63.22
825.722	63.28
826.029	63.16
826.337	63.39
826.644	63.26
826.951	63.25
827.259	62.96
827.566	63
827.873	62.76
828.18	62.52
828.488	63.06
828.795	63.05
829.102	62.6
829.409	62.52
829.716	62.49
830.023	62.45
830.329	62.34
830.636	62.39
830.943	61.74
831.25	61.86
831.557	61.55
831.863	61.23
832.17	60.47
832.476	60.2
832.783	60.6
833.089	60.52
833.396	60.61
833.702	60.92
834.009	60.86
834.315	60.76
834.621	61.02
834.928	60.2
835.234	60.13
835.54	60.57
835.846	61.02
836.152	61.3
836.458	60.97
836.764	61.04
837.07	60.52
837.376	61.29
837.682	61.55
837.988	61.02
838.293	61.18
838.599	61.62
838.905	62.37
839.211	61.83
839.516	61.79
839.822	62.55
840.127	61.72
840.433	61.37
840.738	60.98
841.044	60.47
841.349	61.97
841.654	61.72
841.959	61.54
842.265	59.86
842.57	59.29
842.875	59.37
843.18	58.31
843.485	58.79
843.79	58.95
844.095	59.09
844.4	60.37
844.705	60.06
845.01	59.66
845.315	58.55
845.619	55.83
845.924	55.34
846.229	53.95
846.533	54.54
846.838	54.57
847.142	54.62
847.447	55.63
847.751	53.01
848.056	51.3
848.36	53.25
848.664	54.4
848.969	53.75
849.273	55.71
849.577	56.19
849.881	55.68
850.185	54.95
850.489	53.35
850.794	52.75
851.097	54.27
851.401	52.59
851.705	53.81
852.009	55.88
852.313	57.66
852.617	56.02
852.92	56.87
853.224	55.8
853.528	55.05
853.831	56.26
854.135	58.85
854.438	58.97
854.742	56.61
855.045	57.13
855.349	58.32
855.652	57.6
855.955	58.36
856.259	59.52
856.562	60.18
856.865	61.98
857.168	63.73
857.471	62.8
857.774	65.76
858.077	63.95
858.38	65.21
858.683	64.71
858.986	66.13
859.289	66.1
859.592	69.23
859.894	70.4
860.197	68.25
860.5	68.2
860.802	70.82
861.105	70.46
861.407	69.08
861.71	69.03
862.012	68.86
862.315	69.41
862.617	66.91
862.919	64.67
863.222	64.55
863.524	62.32
863.826	63.06
864.128	61.65
864.43	64.41
864.732	64.57
865.034	64.72
865.336	64.71
865.638	62.16
865.94	60.26
866.242	60.09
866.544	58.78
866.846	59.93
867.147	57.6
867.449	56.02
867.751	54.65
868.052	55.05
868.354	54.63
868.655	55.76
868.957	56.18
869.258	57.07
869.56	54.88
869.861	55.57
870.162	56.01
870.463	56.11
870.765	51.59
871.066	51.26
871.367	47.63
871.668	46.82
871.969	50.24
872.27	49.91
872.571	50.53
872.872	50.03
873.173	47.52
873.473	48.4
873.774	48.93
874.075	52.22
874.376	48.63
874.676	48.54
874.977	47.79
875.277	46.16
875.578	47.87
875.878	48.12
876.179	47.49
876.479	45.28
876.78	45.12
877.08	48.52
877.38	47.42
877.68	51.19
877.981	52.81
878.281	49.99
878.581	50.74
