Data from MVZ_BU34099_Reflection_00009.txt Node
Date: Tue Nov 19 12:15:37 EST 2019
User: vgr7
Spectrometer: USB2G7710
Scans to average: 3
Trigger mode: 4
Integration Time (sec): 2.000000E-2
Electric dark correction enabled: true
Boxcar width: 10
XAxis mode: Wavelengths
Number of Pixels in Spectrum: 2048
>>>>>Begin Spectral Data<<<<<
177.721	-129.57
178.105	263.79
178.488	1034.58
178.871	-220.75
179.254	354.55
179.636	-53.47
180.019	-7.65
180.402	-100
180.785	135.97
181.168	230.89
181.55	-1823.08
181.933	-410.2
182.316	425.58
182.698	177.35
183.081	219.4
183.463	484.62
183.846	-244.37
184.228	-1022.45
184.611	-2976.92
184.993	1157.14
185.376	113.65
185.758	130.36
186.14	114.55
186.522	164.97
186.904	88.97
187.287	125.44
187.669	108.59
188.051	122.24
188.433	169.43
188.815	131.61
189.197	117.33
189.579	92.75
189.961	82.48
190.342	67.26
190.724	62.26
191.106	59.2
191.488	49.05
191.869	44.27
192.251	38.12
192.633	37.88
193.014	42.75
193.396	44.73
193.777	39.15
194.159	52.04
194.54	28.1
194.922	41.13
195.303	35.9
195.684	40.48
196.065	27.29
196.447	25.86
196.828	13.23
197.209	7.88
197.59	14.15
197.971	9.02
198.352	6.24
198.733	-2.73
199.114	-10.18
199.495	-8.34
199.876	-24.27
200.257	-11.02
200.638	-19.68
201.018	-24.59
201.399	-7.13
201.78	-0.84
202.16	-9.32
202.541	3.11
202.922	-11.33
203.302	-13.88
203.683	-39.41
204.063	-45.71
204.444	-32.09
204.824	-15.53
205.204	-4.16
205.585	-1
205.965	-3.97
206.345	-1.32
206.725	5.71
207.106	7.59
207.486	12.86
207.866	19.34
208.246	20.94
208.626	20.73
209.006	24.59
209.386	22.55
209.766	18.3
210.145	27.85
210.525	13.04
210.905	24.4
211.285	30.71
211.664	40.7
212.044	45.75
212.424	49.4
212.803	54.05
213.183	49.92
213.562	48.09
213.942	48.42
214.321	50.2
214.701	39.47
215.08	46.58
215.459	59.39
215.838	56.31
216.218	45.36
216.597	61.56
216.976	57.96
217.355	47.16
217.734	41.34
218.113	36.19
218.492	27.56
218.871	23.37
219.25	25.01
219.629	20.94
220.008	38.63
220.387	24.1
220.766	29.37
221.144	25.39
221.523	21.83
221.902	14.79
222.28	25.6
222.659	40.79
223.037	32.4
223.416	25.62
223.794	30.2
224.173	31.74
224.551	19.1
224.929	15.77
225.308	15.72
225.686	17.7
226.064	22.57
226.442	24.31
226.821	21.16
227.199	21.88
227.577	20.73
227.955	19.45
228.333	16.24
228.711	14.21
229.089	17.62
229.467	13.39
229.845	15.09
230.222	16.41
230.6	13.29
230.978	11.64
231.356	11.16
231.733	10.49
232.111	11.33
232.488	11.42
232.866	13.25
233.243	12.44
233.621	13.09
233.998	11.86
234.376	11.25
234.753	10.96
235.13	11.04
235.508	12.38
235.885	11.19
236.262	11.53
236.639	10.48
237.016	8.48
237.393	9.04
237.77	8.41
238.147	6.28
238.524	6.82
238.901	6.84
239.278	6.6
239.655	5.83
240.032	5.39
240.409	5.27
240.785	5.17
241.162	5.35
241.539	4.53
241.915	4.24
242.292	4.47
242.668	4.76
243.045	4.65
243.421	4.72
243.798	4.57
244.174	4.55
244.551	4.79
244.927	5
245.303	4.68
245.679	4.69
246.056	4.77
246.432	4.68
246.808	4.9
247.184	5.05
247.56	5.22
247.936	5.29
248.312	5.34
248.688	5.14
249.064	5.14
249.44	5.22
249.815	5.38
250.191	5.29
250.567	5.04
250.943	4.73
251.318	4.37
251.694	4.17
252.069	4.42
252.445	4.24
252.82	4.36
253.196	4.67
253.571	4.74
253.947	4.75
254.322	4.68
254.697	4.35
255.073	3.93
255.448	3.9
255.823	3.95
256.198	3.71
256.573	3.84
256.948	3.77
257.323	3.85
257.698	3.83
258.073	3.77
258.448	3.87
258.823	3.88
259.198	3.97
259.573	3.98
259.948	3.83
260.322	3.73
260.697	3.74
261.072	3.91
261.446	3.67
261.821	3.71
262.195	3.7
262.57	3.79
262.944	3.8
263.319	3.79
263.693	3.75
264.067	3.93
264.442	3.79
264.816	3.86
265.19	3.85
265.564	3.79
265.938	3.94
266.313	3.87
266.687	4.04
267.061	3.97
267.435	4.15
267.809	3.86
268.183	4.06
268.556	3.79
268.93	3.61
269.304	3.79
269.678	3.79
270.051	3.76
270.425	3.72
270.799	3.74
271.172	3.83
271.546	3.79
271.919	3.75
272.293	3.93
272.666	3.92
273.04	3.93
273.413	3.88
273.787	3.88
274.16	3.96
274.533	4
274.906	4.06
275.279	4
275.653	4.31
276.026	4.32
276.399	4.37
276.772	4.4
277.145	4.5
277.518	4.47
277.891	4.73
278.263	4.8
278.636	4.87
279.009	4.86
279.382	4.97
279.755	4.86
280.127	4.77
280.5	4.48
280.872	4.34
281.245	4.29
281.617	4.29
281.99	4.23
282.362	4.19
282.735	4.11
283.107	4.06
283.479	4.03
283.852	3.95
284.224	4
284.596	3.99
284.968	3.77
285.34	3.78
285.713	3.72
286.085	3.72
286.457	3.64
286.829	3.59
287.201	3.54
287.572	3.58
287.944	3.48
288.316	3.57
288.688	3.6
289.06	3.59
289.431	3.59
289.803	3.6
290.175	3.6
290.546	3.73
290.918	3.7
291.289	3.41
291.661	3.44
292.032	3.45
292.403	3.48
292.775	3.66
293.146	3.75
293.517	3.77
293.889	3.77
294.26	3.85
294.631	3.73
295.002	3.64
295.373	3.71
295.744	3.79
296.115	3.95
296.486	4.01
296.857	4.02
297.228	3.94
297.599	3.94
297.97	3.99
298.34	4.05
298.711	4.25
299.082	4.49
299.452	4.59
299.823	4.54
300.194	4.62
300.564	4.52
300.935	4.56
301.305	4.58
301.676	4.56
302.046	4.68
302.416	4.79
302.787	4.84
303.157	4.91
303.527	5.04
303.897	4.81
304.267	4.81
304.637	4.93
305.008	4.97
305.378	5.11
305.748	5.11
306.117	5.12
306.487	5
306.857	5.19
307.227	5.06
307.597	5.07
307.967	5.05
308.336	5.13
308.706	5.1
309.076	5.18
309.445	5.32
309.815	5.26
310.184	5.29
310.554	5.34
310.923	5.29
311.293	5.18
311.662	5.29
312.031	5.27
312.401	5.18
312.77	5.3
313.139	5.28
313.508	5.26
313.877	5.25
314.246	5.27
314.616	5.19
314.985	5.24
315.353	5.39
315.722	5.51
316.091	5.54
316.46	5.6
316.829	5.59
317.198	5.51
317.567	5.71
317.935	5.78
318.304	6
318.672	6.17
319.041	6.39
319.41	6.38
319.778	6.56
320.147	6.72
320.515	6.79
320.883	6.8
321.252	6.77
321.62	6.67
321.988	6.87
322.357	6.84
322.725	6.83
323.093	6.75
323.461	6.65
323.829	6.64
324.197	6.74
324.565	6.76
324.933	6.89
325.301	6.72
325.669	6.85
326.037	6.8
326.405	6.73
326.772	6.63
327.14	6.87
327.508	6.93
327.875	7.01
328.243	6.98
328.61	7.09
328.978	7.17
329.346	7.33
329.713	7.33
330.08	7.52
330.448	7.61
330.815	7.74
331.182	7.79
331.55	7.98
331.917	7.94
332.284	7.93
332.651	7.95
333.018	8.09
333.385	8.07
333.752	8.08
334.119	8.05
334.486	8.05
334.853	7.87
335.22	7.86
335.587	7.81
335.954	7.81
336.32	7.65
336.687	7.69
337.054	7.86
337.42	7.79
337.787	7.69
338.153	7.66
338.52	7.69
338.886	7.79
339.253	7.72
339.619	7.71
339.986	7.68
340.352	7.68
340.718	7.57
341.084	7.61
341.451	7.7
341.817	7.77
342.183	7.83
342.549	7.87
342.915	7.87
343.281	7.79
343.647	7.83
344.013	7.86
344.379	7.87
344.745	7.8
345.11	7.83
345.476	7.79
345.842	7.8
346.208	7.79
346.573	7.77
346.939	7.76
347.304	7.8
347.67	7.72
348.035	7.69
348.401	7.75
348.766	7.67
349.132	7.58
349.497	7.61
349.862	7.6
350.228	7.68
350.593	7.67
350.958	7.74
351.323	7.66
351.688	7.72
352.053	7.79
352.418	7.75
352.783	7.78
353.148	7.96
353.513	8
353.878	7.87
354.243	7.8
354.608	7.9
354.972	7.9
355.337	8.04
355.702	8.09
356.066	8.1
356.431	8.14
356.795	8.18
357.16	8.24
357.524	8.22
357.889	8.17
358.253	8.14
358.618	8.18
358.982	8.2
359.346	8.27
359.71	8.19
360.075	8.19
360.439	8.19
360.803	8.1
361.167	8.04
361.531	8.05
361.895	8.04
362.259	7.96
362.623	7.96
362.987	7.86
363.351	7.81
363.714	7.81
364.078	7.82
364.442	7.78
364.806	7.64
365.169	7.63
365.533	7.6
365.896	7.59
366.26	7.52
366.623	7.52
366.987	7.4
367.35	7.39
367.714	7.31
368.077	7.28
368.44	7.25
368.803	7.29
369.167	7.31
369.53	7.35
369.893	7.38
370.256	7.29
370.619	7.3
370.982	7.29
371.345	7.24
371.708	7.23
372.071	7.16
372.434	7.19
372.797	7.19
373.159	7.19
373.522	7.15
373.885	7.17
374.247	7.12
374.61	7.11
374.973	7.09
375.335	7.09
375.698	6.95
376.06	6.85
376.423	6.83
376.785	6.79
377.147	6.73
377.51	6.66
377.872	6.63
378.234	6.59
378.596	6.55
378.958	6.53
379.321	6.44
379.683	6.44
380.045	6.36
380.407	6.27
380.769	6.23
381.13	6.18
381.492	6.09
381.854	6.07
382.216	6.04
382.578	6.05
382.939	6
383.301	5.97
383.663	5.98
384.024	5.92
384.386	5.89
384.747	5.85
385.109	5.79
385.47	5.77
385.832	5.75
386.193	5.7
386.554	5.58
386.916	5.58
387.277	5.54
387.638	5.54
387.999	5.55
388.36	5.51
388.721	5.49
389.082	5.47
389.443	5.44
389.804	5.42
390.165	5.34
390.526	5.29
390.887	5.3
391.248	5.28
391.609	5.25
391.969	5.2
392.33	5.21
392.691	5.21
393.051	5.2
393.412	5.15
393.772	5.15
394.133	5.16
394.493	5.09
394.854	5.06
395.214	5.03
395.574	5.01
395.935	5.02
396.295	4.99
396.655	4.94
397.015	4.93
397.376	4.87
397.736	4.84
398.096	4.8
398.456	4.75
398.816	4.72
399.176	4.65
399.535	4.62
399.895	4.54
400.255	4.43
400.615	4.43
400.975	4.41
401.334	4.36
401.694	4.35
402.054	4.34
402.413	4.31
402.773	4.27
403.132	4.2
403.492	4.16
403.851	4.15
404.211	4.14
404.57	4.12
404.929	4.1
405.288	4.08
405.648	4.07
406.007	4.05
406.366	4.05
406.725	4.06
407.084	4.03
407.443	4.05
407.802	4.09
408.161	4.05
408.52	4.04
408.879	4.03
409.238	3.99
409.596	3.97
409.955	3.94
410.314	3.92
410.673	3.94
411.031	3.94
411.39	3.91
411.748	3.91
412.107	3.86
412.465	3.84
412.824	3.83
413.182	3.81
413.54	3.82
413.899	3.79
414.257	3.78
414.615	3.79
414.974	3.76
415.332	3.76
415.69	3.73
416.048	3.72
416.406	3.69
416.764	3.68
417.122	3.69
417.48	3.72
417.838	3.71
418.195	3.67
418.553	3.65
418.911	3.65
419.269	3.63
419.626	3.64
419.984	3.62
420.342	3.61
420.699	3.6
421.057	3.59
421.414	3.59
421.772	3.58
422.129	3.58
422.486	3.57
422.844	3.54
423.201	3.56
423.558	3.55
423.915	3.56
424.273	3.57
424.63	3.56
424.987	3.54
425.344	3.53
425.701	3.53
426.058	3.53
426.415	3.51
426.772	3.51
427.128	3.5
427.485	3.5
427.842	3.51
428.199	3.51
428.555	3.5
428.912	3.48
429.269	3.47
429.625	3.45
429.982	3.46
430.338	3.47
430.695	3.43
431.051	3.43
431.407	3.4
431.764	3.38
432.12	3.39
432.476	3.39
432.832	3.4
433.189	3.41
433.545	3.4
433.901	3.39
434.257	3.39
434.613	3.37
434.969	3.37
435.325	3.37
435.681	3.36
436.036	3.37
436.392	3.37
436.748	3.38
437.104	3.39
437.459	3.37
437.815	3.35
438.171	3.37
438.526	3.37
438.882	3.38
439.237	3.38
439.593	3.38
439.948	3.38
440.304	3.36
440.659	3.33
441.014	3.33
441.369	3.35
441.725	3.35
442.08	3.34
442.435	3.35
442.79	3.33
443.145	3.32
443.5	3.33
443.855	3.31
444.21	3.31
444.565	3.31
444.92	3.3
445.275	3.3
445.629	3.3
445.984	3.29
446.339	3.28
446.693	3.26
447.048	3.24
447.403	3.22
447.757	3.25
448.112	3.25
448.466	3.25
448.82	3.23
449.175	3.23
449.529	3.23
449.883	3.21
450.238	3.22
450.592	3.22
450.946	3.21
451.3	3.23
451.654	3.21
452.008	3.19
452.362	3.2
452.716	3.2
453.07	3.2
453.424	3.2
453.778	3.23
454.132	3.22
454.486	3.23
454.839	3.24
455.193	3.24
455.547	3.24
455.9	3.24
456.254	3.23
456.607	3.24
456.961	3.25
457.314	3.26
457.668	3.27
458.021	3.26
458.375	3.26
458.728	3.23
459.081	3.22
459.434	3.22
459.787	3.22
460.141	3.24
460.494	3.26
460.847	3.25
461.2	3.24
461.553	3.27
461.906	3.27
462.259	3.25
462.611	3.26
462.964	3.28
463.317	3.28
463.67	3.32
464.022	3.3
464.375	3.3
464.728	3.31
465.08	3.28
465.433	3.3
465.785	3.32
466.138	3.35
466.49	3.4
466.843	3.42
467.195	3.42
467.547	3.4
467.899	3.39
468.252	3.39
468.604	3.38
468.956	3.38
469.308	3.4
469.66	3.42
470.012	3.4
470.364	3.4
470.716	3.39
471.068	3.38
471.42	3.39
471.772	3.42
472.123	3.4
472.475	3.43
472.827	3.43
473.178	3.45
473.53	3.46
473.882	3.43
474.233	3.41
474.585	3.43
474.936	3.44
475.288	3.45
475.639	3.46
475.99	3.47
476.342	3.47
476.693	3.48
477.044	3.47
477.395	3.49
477.746	3.48
478.097	3.49
478.448	3.49
478.8	3.5
479.15	3.48
479.501	3.46
479.852	3.45
480.203	3.46
480.554	3.45
480.905	3.43
481.255	3.43
481.606	3.44
481.957	3.45
482.307	3.45
482.658	3.44
483.009	3.43
483.359	3.43
483.709	3.43
484.06	3.43
484.41	3.43
484.761	3.43
485.111	3.43
485.461	3.42
485.811	3.42
486.162	3.42
486.512	3.42
486.862	3.42
487.212	3.42
487.562	3.41
487.912	3.41
488.262	3.42
488.612	3.43
488.961	3.43
489.311	3.42
489.661	3.41
490.011	3.41
490.36	3.42
490.71	3.43
491.06	3.43
491.409	3.42
491.759	3.42
492.108	3.42
492.458	3.43
492.807	3.45
493.157	3.46
493.506	3.47
493.855	3.48
494.204	3.5
494.554	3.52
494.903	3.54
495.252	3.54
495.601	3.56
495.95	3.56
496.299	3.57
496.648	3.6
496.997	3.65
497.346	3.69
497.695	3.7
498.043	3.74
498.392	3.79
498.741	3.82
499.09	3.86
499.438	3.89
499.787	3.91
500.135	3.93
500.484	3.97
500.832	3.99
501.181	4.02
501.529	4.06
501.878	4.08
502.226	4.13
502.574	4.2
502.923	4.24
503.271	4.28
503.619	4.34
503.967	4.38
504.315	4.41
504.663	4.43
505.011	4.49
505.359	4.5
505.707	4.53
506.055	4.59
506.403	4.63
506.751	4.66
507.098	4.72
507.446	4.77
507.794	4.81
508.141	4.87
508.489	4.93
508.837	4.96
509.184	5.03
509.531	5.06
509.879	5.1
510.226	5.13
510.574	5.18
510.921	5.21
511.268	5.25
511.616	5.31
511.963	5.38
512.31	5.43
512.657	5.48
513.004	5.52
513.351	5.57
513.698	5.62
514.045	5.69
514.392	5.74
514.739	5.81
515.086	5.88
515.432	5.94
515.779	5.99
516.126	6.07
516.473	6.12
516.819	6.2
517.166	6.26
517.512	6.32
517.859	6.38
518.205	6.4
518.552	6.45
518.898	6.49
519.245	6.54
519.591	6.58
519.937	6.64
520.283	6.73
520.629	6.79
520.976	6.86
521.322	6.93
521.668	7.02
522.014	7.07
522.36	7.14
522.706	7.22
523.052	7.29
523.398	7.38
523.743	7.46
524.089	7.55
524.435	7.63
524.781	7.73
525.126	7.8
525.472	7.89
525.817	7.95
526.163	8.03
526.509	8.08
526.854	8.16
527.199	8.23
527.545	8.29
527.89	8.36
528.235	8.43
528.581	8.51
528.926	8.58
529.271	8.66
529.616	8.73
529.961	8.81
530.306	8.86
530.651	8.94
530.996	9.03
531.341	9.13
531.686	9.23
532.031	9.34
532.376	9.44
532.721	9.55
533.065	9.68
533.41	9.79
533.755	9.93
534.099	10.04
534.444	10.16
534.788	10.27
535.133	10.4
535.477	10.53
535.822	10.66
536.166	10.81
536.51	10.98
536.855	11.17
537.199	11.36
537.543	11.6
537.887	11.79
538.231	11.97
538.576	12.15
538.92	12.31
539.264	12.51
539.608	12.7
539.951	12.87
540.295	13.05
540.639	13.24
540.983	13.39
541.327	13.56
541.671	13.73
542.014	13.92
542.358	14.08
542.701	14.25
543.045	14.41
543.389	14.57
543.732	14.73
544.075	14.88
544.419	15.05
544.762	15.22
545.105	15.45
545.449	15.68
545.792	15.93
546.135	16.19
546.478	16.4
546.821	16.67
547.165	16.96
547.508	17.23
547.851	17.48
548.194	17.78
548.536	18.08
548.879	18.38
549.222	18.66
549.565	18.94
549.908	19.23
550.25	19.56
550.593	19.87
550.936	20.17
551.278	20.5
551.621	20.84
551.963	21.13
552.306	21.36
552.648	21.64
552.991	21.91
553.333	22.19
553.675	22.48
554.017	22.76
554.36	23.06
554.702	23.36
555.044	23.61
555.386	23.91
555.728	24.2
556.07	24.49
556.412	24.78
556.754	25.07
557.096	25.36
557.438	25.65
557.78	25.94
558.121	26.24
558.463	26.57
558.805	26.83
559.147	27.18
559.488	27.51
559.83	27.76
560.171	28.06
560.513	28.34
560.854	28.66
561.196	28.9
561.537	29.18
561.878	29.45
562.22	29.77
562.561	30.02
562.902	30.25
563.243	30.52
563.584	30.81
563.925	31.11
564.266	31.36
564.607	31.58
564.948	31.81
565.289	32.04
565.63	32.31
565.971	32.52
566.312	32.73
566.653	32.93
566.993	33.18
567.334	33.45
567.675	33.69
568.015	33.87
568.356	34.12
568.696	34.32
569.037	34.59
569.377	34.8
569.718	35.01
570.058	35.2
570.398	35.38
570.739	35.54
571.079	35.69
571.419	35.9
571.759	36.14
572.099	36.31
572.439	36.54
572.779	36.72
573.119	36.96
573.459	37.13
573.799	37.33
574.139	37.55
574.479	37.65
574.819	37.83
575.158	38.01
575.498	38.12
575.838	38.29
576.177	38.37
576.517	38.53
576.856	38.71
577.196	38.88
577.535	39.03
577.875	39.18
578.214	39.35
578.553	39.47
578.893	39.56
579.232	39.78
579.571	39.93
579.91	40.03
580.25	40.12
580.589	40.27
580.928	40.41
581.267	40.5
581.606	40.67
581.945	40.76
582.283	40.91
582.622	41.11
582.961	41.29
583.3	41.46
583.639	41.54
583.977	41.69
584.316	41.84
584.654	41.93
584.993	42.04
585.332	42.17
585.67	42.33
586.008	42.5
586.347	42.64
586.685	42.74
587.024	42.86
587.362	42.96
587.7	43.04
588.038	43.12
588.376	43.24
588.715	43.39
589.053	43.48
589.391	43.58
589.729	43.67
590.067	43.72
590.404	43.79
590.742	43.98
591.08	44.09
591.418	44.16
591.756	44.33
592.093	44.42
592.431	44.6
592.769	44.66
593.106	44.79
593.444	44.86
593.781	44.95
594.119	45.06
594.456	45.16
594.793	45.26
595.131	45.34
595.468	45.33
595.805	45.38
596.143	45.48
596.48	45.58
596.817	45.62
597.154	45.72
597.491	45.79
597.828	45.75
598.165	45.77
598.502	45.86
598.839	45.88
599.176	45.96
599.512	45.96
599.849	46.02
600.186	45.99
600.523	46.09
600.859	46.1
601.196	46.14
601.532	46.14
601.869	46.21
602.205	46.28
602.542	46.33
602.878	46.41
603.215	46.51
603.551	46.55
603.887	46.62
604.223	46.61
604.56	46.62
604.896	46.72
605.232	46.79
605.568	46.83
605.904	46.87
606.24	47
606.576	47.04
606.912	47.19
607.248	47.22
607.583	47.25
607.919	47.33
608.255	47.37
608.591	47.46
608.926	47.58
609.262	47.66
609.597	47.76
609.933	47.84
610.268	47.87
610.604	47.83
610.939	47.91
611.275	47.93
611.61	48.01
611.945	48.05
612.281	48.05
612.616	48.13
612.951	48.19
613.286	48.17
613.621	48.2
613.956	48.19
614.291	48.34
614.626	48.31
614.961	48.36
615.296	48.46
615.631	48.56
615.966	48.51
616.3	48.53
616.635	48.55
616.97	48.49
617.304	48.54
617.639	48.71
617.973	48.65
618.308	48.74
618.642	48.75
618.977	48.73
619.311	48.82
619.646	48.85
619.98	48.84
620.314	48.83
620.648	48.9
620.983	48.92
621.317	48.92
621.651	48.99
621.985	49.03
622.319	49
622.653	48.99
622.987	49.05
623.321	49.16
623.655	49.19
623.988	49.26
624.322	49.24
624.656	49.22
624.99	49.26
625.323	49.27
625.657	49.33
625.99	49.37
626.324	49.36
626.657	49.33
626.991	49.47
627.324	49.49
627.658	49.52
627.991	49.58
628.324	49.59
628.657	49.6
628.991	49.66
629.324	49.68
629.657	49.81
629.99	49.83
630.323	49.79
630.656	49.84
630.989	49.88
631.322	49.91
631.655	49.88
631.987	49.87
632.32	49.96
632.653	49.95
632.986	50.05
633.318	50.04
633.651	50.1
633.984	50.07
634.316	50.1
634.649	50.12
634.981	50.13
635.313	50.16
635.646	50.23
635.978	50.21
636.31	50.29
636.643	50.13
636.975	50.08
637.307	50.12
637.639	50.15
637.971	50.19
638.303	50.21
638.635	50.31
638.967	50.35
639.299	50.34
639.631	50.44
639.963	50.4
640.295	50.46
640.626	50.49
640.958	50.54
641.29	50.63
641.621	50.59
641.953	50.59
642.285	50.65
642.616	50.63
642.948	50.72
643.279	50.78
643.61	50.89
643.942	50.81
644.273	50.86
644.604	50.92
644.936	50.85
645.267	50.86
645.598	50.75
645.929	50.8
646.26	50.8
646.591	50.75
646.922	50.78
647.253	50.84
647.584	50.82
647.915	50.82
648.245	50.75
648.576	50.8
648.907	50.8
649.238	50.7
649.568	50.69
649.899	50.67
650.229	50.54
650.56	50.43
650.89	50.55
651.221	50.57
651.551	50.51
651.882	50.55
652.212	50.6
652.542	50.69
652.872	50.7
653.203	50.62
653.533	50.71
653.863	50.8
654.193	50.79
654.523	50.75
654.853	50.75
655.183	50.86
655.513	50.92
655.843	51.03
656.172	51.19
656.502	51.28
656.832	51.27
657.162	51.43
657.491	51.57
657.821	51.68
658.15	51.72
658.48	51.7
658.809	51.8
659.139	51.86
659.468	51.97
659.798	52
660.127	52.11
660.456	52.1
660.785	52.05
661.115	52.07
661.444	52.13
661.773	52.1
662.102	52.08
662.431	52.2
662.76	51.95
663.089	51.94
663.418	51.96
663.747	51.88
664.076	51.8
664.404	51.73
664.733	51.63
665.062	51.55
665.39	51.63
665.719	51.6
666.048	51.46
666.376	51.32
666.705	51.38
667.033	51.32
667.362	51.31
667.69	51.34
668.018	51.21
668.347	51.21
668.675	51.26
669.003	51.26
669.331	51.23
669.659	51.53
669.987	51.5
670.315	51.37
670.643	51.44
670.971	51.49
671.299	51.55
671.627	51.61
671.955	51.65
672.283	51.59
672.61	51.52
672.938	51.48
673.266	51.56
673.593	51.53
673.921	51.56
674.249	51.57
674.576	51.57
674.904	51.71
675.231	51.78
675.558	51.89
675.886	51.9
676.213	51.87
676.54	51.74
676.867	51.72
677.195	51.88
677.522	51.89
677.849	51.88
678.176	51.95
678.503	51.95
678.83	51.87
679.157	51.96
679.484	51.89
679.81	52.06
680.137	52.16
680.464	52.21
680.791	52.16
681.117	52.16
681.444	52.23
681.771	52.25
682.097	52.3
682.424	52.33
682.75	52.36
683.077	52.34
683.403	52.43
683.729	52.44
684.056	52.42
684.382	52.47
684.708	52.43
685.034	52.44
685.36	52.49
685.686	52.63
686.012	52.73
686.339	52.81
686.664	52.68
686.99	52.57
687.316	52.54
687.642	52.71
687.968	52.69
688.294	52.53
688.619	52.48
688.945	52.4
689.271	52.3
689.596	52.25
689.922	52.3
690.247	52.23
690.573	52.35
690.898	52.42
691.224	52.48
691.549	52.68
691.874	52.61
692.2	52.59
692.525	52.53
692.85	52.39
693.175	52.46
693.5	52.53
693.825	52.73
694.15	52.67
694.475	52.51
694.8	52.62
695.125	52.9
695.45	52.99
695.775	53.01
696.099	53.08
696.424	53.21
696.749	53.2
697.073	53.39
697.398	53.36
697.723	53.28
698.047	53.23
698.372	53.23
698.696	53.18
699.02	53.17
699.345	53.3
699.669	53.26
699.993	53.33
700.318	53.36
700.642	53.18
700.966	53.15
701.29	53.15
701.614	53.11
701.938	52.83
702.262	52.68
702.586	52.8
702.91	52.74
703.234	52.6
703.557	52.68
703.881	52.48
704.205	52.69
704.529	52.69
704.852	52.67
705.176	52.69
705.499	52.88
705.823	52.87
706.146	52.76
706.47	52.87
706.793	52.78
707.117	52.62
707.44	52.75
707.763	52.92
708.086	53.06
708.409	53.18
708.733	53.43
709.056	53.53
709.379	53.55
709.702	53.58
710.025	53.86
710.348	53.77
710.671	53.83
710.993	53.58
711.316	53.53
711.639	53.67
711.962	53.55
712.284	53.68
712.607	53.83
712.93	53.75
713.252	53.68
713.575	53.68
713.897	53.72
714.22	53.73
714.542	53.67
714.864	53.73
715.187	53.68
715.509	53.67
715.831	53.61
716.153	53.45
716.475	53.48
716.798	53.26
717.12	53.4
717.442	53.29
717.764	53.3
718.085	53.26
718.407	53.23
718.729	53.2
719.051	53.11
719.373	53.15
719.695	53.22
720.016	53.44
720.338	53.53
720.659	53.78
720.981	53.79
721.302	53.84
721.624	53.64
721.945	53.43
722.267	53.5
722.588	53.51
722.909	53.63
723.231	53.66
723.552	53.57
723.873	53.34
724.194	53.46
724.515	53.49
724.836	53.6
725.157	53.67
725.478	53.87
725.799	53.54
726.12	53.42
726.441	53.39
726.762	53.33
727.083	53.36
727.403	53.19
727.724	53.3
728.045	53.3
728.365	53.49
728.686	53.45
729.006	53.34
729.327	53.34
729.647	53.66
729.967	53.56
730.288	53.64
730.608	53.78
730.928	53.88
731.249	54.07
731.569	54.03
731.889	53.88
732.209	53.77
732.529	54.18
732.849	54.13
733.169	54.27
733.489	54.36
733.809	54.19
734.129	54.4
734.448	54.07
734.768	54.16
735.088	54.22
735.408	54.45
735.727	54.46
736.047	54.66
736.366	54.45
736.686	54.6
737.005	54.51
737.325	54.27
737.644	54.14
737.963	53.98
738.283	54.03
738.602	54.18
738.921	54
739.24	53.65
739.56	53.65
739.879	53.55
740.198	53.19
740.517	53.36
740.836	53.33
741.155	53.76
741.473	53.57
741.792	53.45
742.111	53.43
742.43	53.52
742.748	53.67
743.067	53.51
743.386	53.47
743.704	53.62
744.023	54.03
744.341	54.28
744.66	54.18
744.978	54.2
745.297	54.05
745.615	54.3
745.933	54.47
746.252	54.71
746.57	54.83
746.888	55.42
747.206	55.58
747.524	55.58
747.842	55.43
748.16	55.6
748.478	55.68
748.796	56.25
749.114	56.36
749.432	56.6
749.749	56.69
750.067	56.74
750.385	56.47
750.703	56.23
751.02	56.1
751.338	56.09
751.655	56.01
751.973	56.1
752.29	55.82
752.608	55.57
752.925	55.59
753.242	55.6
753.56	55.1
753.877	54.76
754.194	54.55
754.511	54.47
754.828	54.09
755.145	54.12
755.462	53.71
755.779	53.83
756.096	53.24
756.413	53.04
756.73	53
757.047	53.29
757.364	53.39
757.68	53.41
757.997	53.84
758.314	54.01
758.63	54.1
758.947	54.53
759.264	54.96
759.58	54.79
759.896	54.48
760.213	54.64
760.529	54.85
760.846	55.15
761.162	55.17
761.478	55.52
761.794	55.81
762.11	55.73
762.426	55.69
762.743	56
763.059	56.12
763.375	56.37
763.69	56.58
764.006	56.6
764.322	56.33
764.638	56.25
764.954	56.3
765.27	56.23
765.585	56.39
765.901	56.26
766.216	56.37
766.532	56.48
766.848	56.43
767.163	56.4
767.478	56.32
767.794	56.38
768.109	56.49
768.424	56.23
768.74	56.09
769.055	55.9
769.37	55.79
769.685	55.9
770	55.8
770.315	56.01
770.63	56.15
770.945	56.38
771.26	56.32
771.575	56.58
771.89	56.92
772.205	56.51
772.52	56.53
772.834	56.47
773.149	56.52
773.464	56.62
773.778	56.63
774.093	56.76
774.407	56.88
774.722	56.72
775.036	56.52
775.351	56.81
775.665	56.93
775.979	57.06
776.293	56.94
776.608	56.35
776.922	55.94
777.236	55.33
777.55	55.42
777.864	55.3
778.178	55.06
778.492	54.69
778.806	54.84
779.12	54.74
779.434	54.74
779.747	54.77
780.061	54.79
780.375	54.93
780.689	54.3
781.002	54.39
781.316	54.59
781.629	54.98
781.943	55.17
782.256	55.43
782.57	54.84
782.883	55.28
783.196	55.95
783.51	55.74
783.823	55.96
784.136	56.19
784.449	55.95
784.762	55.65
785.075	56.07
785.388	55.94
785.701	55.73
786.014	55.71
786.327	55.89
786.64	55.95
786.953	56.26
787.266	57.14
787.578	56.86
787.891	57
788.204	56.54
788.516	56.14
788.829	56.13
789.141	56.8
789.454	56.38
789.766	56.24
790.079	56.06
790.391	55.98
790.703	55.85
791.016	56.12
791.328	56.59
791.64	56.36
791.952	56.62
792.264	56.69
792.576	56.81
792.888	56.56
793.2	56.84
793.512	56.24
793.824	55.71
794.136	55.54
794.448	55.53
794.76	56.1
795.071	56.25
795.383	56.05
795.695	55.22
796.006	55.46
796.318	55.49
796.629	56
796.941	55.95
797.252	55.79
797.564	55.44
797.875	55.18
798.186	55.23
798.497	55.27
798.809	55.52
799.12	55.52
799.431	55.83
799.742	55.79
800.053	55.81
800.364	56.26
800.675	56.44
800.986	56.54
801.297	56.42
801.608	56.66
801.918	56.51
802.229	56.97
802.54	56.51
802.851	56.28
803.161	56.11
803.472	56.96
803.782	57.72
804.093	58.18
804.403	57.98
804.714	57.86
805.024	58.3
805.334	58.25
805.645	57.96
805.955	58.39
806.265	58.26
806.575	58.48
806.885	58.43
807.195	58.67
807.505	58.06
807.815	58.43
808.125	58.29
808.435	58.63
808.745	58.66
809.055	59.02
809.365	59.49
809.674	59.75
809.984	59.31
810.294	58.59
810.603	58.07
810.913	58.06
811.222	58.39
811.532	58.01
811.841	58
812.151	58.45
812.46	57.61
812.769	57.34
813.079	58.19
813.388	57.34
813.697	57.25
814.006	58.03
814.315	57.57
814.624	57.7
814.933	57.94
815.242	57.57
815.551	57.8
815.86	57.72
816.169	57.72
816.478	58.08
816.786	57.76
817.095	58.13
817.404	58.72
817.712	58.38
818.021	58.44
818.33	58.39
818.638	57.95
818.947	57.87
819.255	58.01
819.563	57.44
819.872	57.66
820.18	57.73
820.488	57.96
820.796	58.01
821.105	58.17
821.413	58.09
821.721	58.17
822.029	58.01
822.337	57.98
822.645	57.95
822.953	57.64
823.26	57.76
823.568	57.52
823.876	57.31
824.184	57.11
824.491	56.95
824.799	57.09
825.107	57.24
825.414	57.31
825.722	57.11
826.029	57.24
826.337	57.31
826.644	57.49
826.951	57.19
827.259	57
827.566	56.83
827.873	56.71
828.18	56.58
828.488	56.87
828.795	56.88
829.102	56.8
829.409	57.12
829.716	57.23
830.023	57.66
830.329	58.01
830.636	58.31
830.943	58.36
831.25	57.89
831.557	57.61
831.863	57.35
832.17	57.58
832.476	57.37
832.783	57.35
833.089	56.52
833.396	56.94
833.702	57.06
834.009	57.14
834.315	57.31
834.621	57.23
834.928	56.64
835.234	56.48
835.54	56.29
835.846	56.32
836.152	56.38
836.458	56.65
836.764	56.71
837.07	57.16
837.376	57.23
837.682	57.43
837.988	57.2
838.293	57.77
838.599	57.45
838.905	57.7
839.211	56.98
839.516	57.3
839.822	56.7
840.127	57.02
840.433	56.61
840.738	56.65
841.044	57.76
841.349	57.75
841.654	56.84
841.959	57.45
842.265	56.96
842.57	56.52
842.875	55.36
843.18	54.53
843.485	54
843.79	53.77
844.095	53.6
844.4	54.92
844.705	54.95
845.01	56.87
845.315	56.29
845.619	58.14
845.924	56.75
846.229	56.48
846.533	56.32
846.838	56.69
847.142	56.31
847.447	56.09
847.751	56.05
848.056	56.14
848.36	55.23
848.664	53.83
848.969	54.58
849.273	54.97
849.577	55.53
849.881	54.92
850.185	54.7
850.489	56.88
850.794	55.89
851.097	56.68
851.401	56.12
851.705	57
852.009	55.37
852.313	58.47
852.617	59.9
852.92	59.88
853.224	60.7
853.528	58.7
853.831	58.59
854.135	59.12
854.438	62.11
854.742	61.76
855.045	62.82
855.349	60.28
855.652	61.66
855.955	60.72
856.259	60.83
856.562	61.79
856.865	59.7
857.168	59.15
857.471	59.38
857.774	58.7
858.077	56.48
858.38	57.42
858.683	56.49
858.986	56.63
859.289	55.72
859.592	54.89
859.894	57.29
860.197	55.97
860.5	58.27
860.802	56.63
861.105	56.69
861.407	57.13
861.71	58.39
862.012	56.69
862.315	57.89
862.617	57.28
862.919	55.86
863.222	55.78
863.524	55.33
863.826	54.31
864.128	55.36
864.43	56.13
864.732	55.74
865.034	56.72
865.336	55.08
865.638	55.12
865.94	55.32
866.242	54.59
866.544	56.82
866.846	55.36
867.147	55.18
867.449	55.9
867.751	56.71
868.052	56.33
868.354	60.25
868.655	61.27
868.957	63.74
869.258	65.7
869.56	65.84
869.861	66.66
870.162	65.26
870.463	64.98
870.765	64.38
871.066	64.44
871.367	61.74
871.668	62.9
871.969	65.37
872.27	61.88
872.571	63.45
872.872	63.24
873.173	63.75
873.473	64.18
873.774	63.72
874.075	64.6
874.376	64.25
874.676	60.06
874.977	59.23
875.277	54.15
875.578	53.08
875.878	53.45
876.179	53.92
876.479	54.21
876.78	52.86
877.08	53.9
877.38	54.05
877.68	56.1
877.981	55.49
878.281	52.17
878.581	57.14
