Data from MVZ_BU8942_Reflection_00001.txt Node
Date: Tue Nov 19 12:03:49 EST 2019
User: vgr7
Spectrometer: USB2G7710
Scans to average: 3
Trigger mode: 4
Integration Time (sec): 2.000000E-2
Electric dark correction enabled: true
Boxcar width: 10
XAxis mode: Wavelengths
Number of Pixels in Spectrum: 2048
>>>>>Begin Spectral Data<<<<<
177.721	89.68
178.105	100
178.488	251.69
178.871	485.71
179.254	-380
179.636	-129.93
180.019	-256.44
180.402	40.91
180.785	118
181.168	623.26
181.55	-1507.14
181.933	188.98
182.316	149.72
182.698	195.07
183.081	207.91
183.463	385.12
183.846	156.51
184.228	227.8
184.611	268.05
184.993	344.74
185.376	292.04
185.758	330.77
186.14	361.7
186.522	735.59
186.904	475
187.287	335.02
187.669	565.79
188.051	409.72
188.433	359.93
188.815	346.27
189.197	228.36
189.579	184.91
189.961	233.2
190.342	161.31
190.724	138.38
191.106	143.06
191.488	89.6
191.869	83.99
192.251	59.63
192.633	40.46
193.014	44.32
193.396	29.13
193.777	22.83
194.159	36.23
194.54	41.54
194.922	26.97
195.303	27.32
195.684	16.18
196.065	22.9
196.447	13.46
196.828	25.67
197.209	8.64
197.59	29.85
197.971	48.51
198.352	52.17
198.733	58.18
199.114	60.81
199.495	53.67
199.876	83.39
200.257	114.8
200.638	142.72
201.018	185.88
201.399	130.46
201.78	135.13
202.16	72.45
202.541	61.36
202.922	137.91
203.302	85.22
203.683	73.75
204.063	96.1
204.444	92.56
204.824	91.89
205.204	73.39
205.585	34.26
205.965	-7.88
206.345	8.59
206.725	32.35
207.106	43.33
207.486	37.13
207.866	39.74
208.246	43.49
208.626	21.41
209.006	2.49
209.386	17.68
209.766	-82.93
210.145	12.93
210.525	31.08
210.905	38.02
211.285	78.31
211.664	74.14
212.044	58.97
212.424	58.73
212.803	57.2
213.183	56.33
213.562	76.77
213.942	107.83
214.321	97.97
214.701	93.76
215.08	100
215.459	106.28
215.838	64.65
216.218	53.61
216.597	64.02
216.976	87.52
217.355	72.82
217.734	81.6
218.113	81.01
218.492	43.72
218.871	39.06
219.25	10.97
219.629	-14.02
220.008	-31.87
220.387	-12.94
220.766	-3.11
221.144	2.35
221.523	6.96
221.902	-6.57
222.28	-4.52
222.659	20.24
223.037	14.4
223.416	14.42
223.794	21.19
224.173	18.4
224.551	28.61
224.929	14.23
225.308	17
225.686	9.64
226.064	9.78
226.442	12.73
226.821	12.95
227.199	16.18
227.577	22.2
227.955	21.44
228.333	18.8
228.711	16.62
229.089	17.67
229.467	16.69
229.845	15.99
230.222	15.64
230.6	11.97
230.978	15.4
231.356	10.7
231.733	10.75
232.111	8.94
232.488	5.74
232.866	11.56
233.243	9.68
233.621	11.74
233.998	11.38
234.376	11.3
234.753	9.75
235.13	8.5
235.508	7.3
235.885	8.44
236.262	7.96
236.639	6.53
237.016	4.64
237.393	4.91
237.77	4.67
238.147	4.89
238.524	4.66
238.901	2.88
239.278	3.82
239.655	2.58
240.032	2.69
240.409	2.62
240.785	1.36
241.162	2
241.539	2
241.915	1.96
242.292	2.07
242.668	2.35
243.045	2.88
243.421	2.85
243.798	2.94
244.174	2.93
244.551	3.13
244.927	3.31
245.303	3
245.679	3.04
246.056	2.99
246.432	3.06
246.808	3.18
247.184	3.58
247.56	3.88
247.936	4.06
248.312	4.24
248.688	4.16
249.064	3.86
249.44	3.49
249.815	3.63
250.191	3.49
250.567	3.45
250.943	3.25
251.318	3.14
251.694	2.79
252.069	2.96
252.445	3.01
252.82	3.02
253.196	2.94
253.571	2.76
253.947	2.73
254.322	2.6
254.697	2.6
255.073	2.13
255.448	2.03
255.823	1.81
256.198	1.86
256.573	1.99
256.948	2.29
257.323	2.71
257.698	2.75
258.073	2.82
258.448	2.92
258.823	2.81
259.198	3.01
259.573	2.94
259.948	2.81
260.322	2.71
260.697	2.9
261.072	3.14
261.446	3.27
261.821	3.3
262.195	3.37
262.57	3.41
262.944	3.61
263.319	3.66
263.693	3.82
264.067	3.84
264.442	3.87
264.816	3.65
265.19	3.5
265.564	3.61
265.938	3.6
266.313	3.45
266.687	3.42
267.061	3.21
267.435	3.63
267.809	3.68
268.183	3.68
268.556	3.37
268.93	3.34
269.304	3.17
269.678	3.13
270.051	3.08
270.425	3.17
270.799	3.01
271.172	2.93
271.546	2.89
271.919	2.83
272.293	2.92
272.666	3.07
273.04	3.26
273.413	3.09
273.787	3.22
274.16	3.19
274.533	3.16
274.906	3.15
275.279	2.96
275.653	3.17
276.026	3.17
276.399	3.25
276.772	3.04
277.145	3.14
277.518	3.07
277.891	3.01
278.263	3.02
278.636	3.06
279.009	3.23
279.382	3.18
279.755	3.24
280.127	3.15
280.5	3.23
280.872	3.03
281.245	3.08
281.617	2.92
281.99	2.99
282.362	3.12
282.735	3.2
283.107	3.21
283.479	2.93
283.852	3.07
284.224	3.03
284.596	3.14
284.968	3.08
285.34	3.14
285.713	3.28
286.085	3.07
286.457	3.09
286.829	3.09
287.201	3.2
287.572	3.18
287.944	3.29
288.316	3.23
288.688	3.31
289.06	3.35
289.431	3.4
289.803	3.48
290.175	3.34
290.546	3.23
290.918	3.25
291.289	3.22
291.661	3.01
292.032	2.95
292.403	2.9
292.775	3.02
293.146	3.12
293.517	2.9
293.889	3.03
294.26	2.93
294.631	2.84
295.002	2.77
295.373	2.8
295.744	2.77
296.115	2.78
296.486	2.82
296.857	2.76
297.228	2.81
297.599	2.65
297.97	2.74
298.34	2.79
298.711	2.77
299.082	2.89
299.452	2.95
299.823	3.12
300.194	3.15
300.564	3.05
300.935	3.01
301.305	3.17
301.676	3
302.046	3.12
302.416	3.1
302.787	3.09
303.157	3.05
303.527	3.09
303.897	3.06
304.267	3.16
304.637	3.18
305.008	3.14
305.378	3.3
305.748	3.2
306.117	3.23
306.487	3.35
306.857	3.29
307.227	3.39
307.597	3.17
307.967	3.33
308.336	3.36
308.706	3.32
309.076	3.29
309.445	3.51
309.815	3.44
310.184	3.37
310.554	3.26
310.923	3.15
311.293	3.07
311.662	3.1
312.031	2.96
312.401	2.9
312.77	2.89
313.139	2.89
313.508	2.93
313.877	2.92
314.246	2.87
314.616	2.88
314.985	2.79
315.353	3.01
315.722	2.88
316.091	2.9
316.46	2.96
316.829	3
317.198	2.9
317.567	2.94
317.935	3.13
318.304	3.26
318.672	3.5
319.041	3.53
319.41	3.53
319.778	3.61
320.147	3.58
320.515	3.53
320.883	3.42
321.252	3.56
321.62	3.62
321.988	3.6
322.357	3.45
322.725	3.53
323.093	3.27
323.461	3.28
323.829	3.22
324.197	3.29
324.565	3.17
324.933	3.2
325.301	3.05
325.669	2.93
326.037	3.03
326.405	2.98
326.772	2.95
327.14	2.8
327.508	2.8
327.875	2.82
328.243	2.87
328.61	2.84
328.978	2.66
329.346	2.64
329.713	2.69
330.08	2.9
330.448	2.82
330.815	2.96
331.182	2.95
331.55	2.89
331.917	2.82
332.284	2.93
332.651	2.81
333.018	2.95
333.385	3.06
333.752	2.93
334.119	2.88
334.486	2.99
334.853	3.08
335.22	3.01
335.587	3.03
335.954	2.98
336.32	3.03
336.687	3.05
337.054	3.04
337.42	3.02
337.787	2.91
338.153	2.89
338.52	2.87
338.886	2.85
339.253	2.91
339.619	2.83
339.986	2.8
340.352	3
340.718	2.85
341.084	2.88
341.451	2.96
341.817	2.95
342.183	2.83
342.549	3
342.915	3.04
343.281	3.08
343.647	3.12
344.013	3.12
344.379	3.24
344.745	3.22
345.11	3.26
345.476	3.31
345.842	3.34
346.208	3.42
346.573	3.34
346.939	3.33
347.304	3.41
347.67	3.46
348.035	3.36
348.401	3.5
348.766	3.4
349.132	3.42
349.497	3.45
349.862	3.55
350.228	3.48
350.593	3.41
350.958	3.37
351.323	3.35
351.688	3.55
352.053	3.55
352.418	3.56
352.783	3.54
353.148	3.6
353.513	3.56
353.878	3.45
354.243	3.4
354.608	3.48
354.972	3.36
355.337	3.31
355.702	3.3
356.066	3.24
356.431	3.21
356.795	3.16
357.16	3.16
357.524	3.17
357.889	3.13
358.253	3.13
358.618	3.06
358.982	3.05
359.346	2.96
359.71	2.83
360.075	2.84
360.439	2.88
360.803	2.86
361.167	2.81
361.531	2.78
361.895	2.85
362.259	2.85
362.623	2.94
362.987	3.01
363.351	2.98
363.714	3.04
364.078	3.07
364.442	3.04
364.806	3.01
365.169	2.94
365.533	2.98
365.896	3.08
366.26	3.13
366.623	3.12
366.987	3.1
367.35	3.19
367.714	3.19
368.077	3.09
368.44	3.04
368.803	3.07
369.167	3.1
369.53	3.13
369.893	3.1
370.256	3.01
370.619	3.04
370.982	3.09
371.345	3.09
371.708	3.12
372.071	3.14
372.434	3.13
372.797	3.16
373.159	3.12
373.522	3.07
373.885	3.09
374.247	3.08
374.61	3.1
374.973	3.15
375.335	3.15
375.698	3.14
376.06	3.15
376.423	3.23
376.785	3.3
377.147	3.28
377.51	3.27
377.872	3.3
378.234	3.27
378.596	3.22
378.958	3.18
379.321	3.12
379.683	3.05
380.045	3.04
380.407	3.03
380.769	3.05
381.13	3.04
381.492	2.99
381.854	3.03
382.216	3.01
382.578	2.97
382.939	3.02
383.301	3
383.663	3.05
384.024	3
384.386	2.96
384.747	2.99
385.109	2.99
385.47	3.03
385.832	3.01
386.193	3.01
386.554	3.05
386.916	3.11
387.277	3.15
387.638	3.17
387.999	3.17
388.36	3.15
388.721	3.16
389.082	3.24
389.443	3.23
389.804	3.25
390.165	3.24
390.526	3.22
390.887	3.28
391.248	3.27
391.609	3.27
391.969	3.3
392.33	3.25
392.691	3.26
393.051	3.27
393.412	3.25
393.772	3.27
394.133	3.23
394.493	3.2
394.854	3.22
395.214	3.26
395.574	3.25
395.935	3.25
396.295	3.25
396.655	3.22
397.015	3.24
397.376	3.26
397.736	3.27
398.096	3.23
398.456	3.17
398.816	3.15
399.176	3.14
399.535	3.09
399.895	3.09
400.255	3.06
400.615	3.05
400.975	3.09
401.334	3.09
401.694	3.13
402.054	3.15
402.413	3.16
402.773	3.12
403.132	3.13
403.492	3.16
403.851	3.15
404.211	3.16
404.57	3.18
404.929	3.12
405.288	3.16
405.648	3.18
406.007	3.18
406.366	3.2
406.725	3.21
407.084	3.22
407.443	3.25
407.802	3.27
408.161	3.26
408.52	3.23
408.879	3.23
409.238	3.21
409.596	3.22
409.955	3.21
410.314	3.22
410.673	3.21
411.031	3.19
411.39	3.18
411.748	3.16
412.107	3.13
412.465	3.16
412.824	3.13
413.182	3.1
413.54	3.14
413.899	3.14
414.257	3.15
414.615	3.12
414.974	3.12
415.332	3.11
415.69	3.11
416.048	3.13
416.406	3.13
416.764	3.13
417.122	3.13
417.48	3.14
417.838	3.15
418.195	3.15
418.553	3.16
418.911	3.16
419.269	3.18
419.626	3.18
419.984	3.19
420.342	3.18
420.699	3.18
421.057	3.17
421.414	3.18
421.772	3.19
422.129	3.21
422.486	3.22
422.844	3.23
423.201	3.24
423.558	3.23
423.915	3.24
424.273	3.24
424.63	3.24
424.987	3.26
425.344	3.26
425.701	3.27
426.058	3.28
426.415	3.29
426.772	3.27
427.128	3.26
427.485	3.26
427.842	3.26
428.199	3.27
428.555	3.29
428.912	3.28
429.269	3.26
429.625	3.26
429.982	3.26
430.338	3.26
430.695	3.24
431.051	3.24
431.407	3.25
431.764	3.25
432.12	3.23
432.476	3.22
432.832	3.22
433.189	3.2
433.545	3.19
433.901	3.21
434.257	3.22
434.613	3.25
434.969	3.25
435.325	3.27
435.681	3.26
436.036	3.24
436.392	3.23
436.748	3.24
437.104	3.24
437.459	3.21
437.815	3.22
438.171	3.23
438.526	3.22
438.882	3.22
439.237	3.2
439.593	3.21
439.948	3.23
440.304	3.23
440.659	3.23
441.014	3.24
441.369	3.21
441.725	3.22
442.08	3.19
442.435	3.18
442.79	3.2
443.145	3.22
443.5	3.23
443.855	3.25
444.21	3.25
444.565	3.26
444.92	3.27
445.275	3.27
445.629	3.27
445.984	3.28
446.339	3.3
446.693	3.33
447.048	3.33
447.403	3.31
447.757	3.29
448.112	3.29
448.466	3.3
448.82	3.31
449.175	3.31
449.529	3.34
449.883	3.33
450.238	3.34
450.592	3.32
450.946	3.31
451.3	3.31
451.654	3.31
452.008	3.32
452.362	3.32
452.716	3.32
453.07	3.32
453.424	3.31
453.778	3.3
454.132	3.3
454.486	3.3
454.839	3.31
455.193	3.31
455.547	3.32
455.9	3.32
456.254	3.33
456.607	3.32
456.961	3.31
457.314	3.32
457.668	3.3
458.021	3.32
458.375	3.33
458.728	3.32
459.081	3.32
459.434	3.3
459.787	3.32
460.141	3.33
460.494	3.32
460.847	3.33
461.2	3.33
461.553	3.35
461.906	3.33
462.259	3.32
462.611	3.33
462.964	3.34
463.317	3.33
463.67	3.33
464.022	3.33
464.375	3.33
464.728	3.33
465.08	3.33
465.433	3.32
465.785	3.33
466.138	3.33
466.49	3.35
466.843	3.37
467.195	3.37
467.547	3.37
467.899	3.39
468.252	3.4
468.604	3.41
468.956	3.39
469.308	3.4
469.66	3.43
470.012	3.43
470.364	3.45
470.716	3.45
471.068	3.48
471.42	3.5
471.772	3.51
472.123	3.52
472.475	3.54
472.827	3.55
473.178	3.54
473.53	3.55
473.882	3.54
474.233	3.53
474.585	3.53
474.936	3.53
475.288	3.5
475.639	3.48
475.99	3.47
476.342	3.5
476.693	3.51
477.044	3.5
477.395	3.49
477.746	3.47
478.097	3.47
478.448	3.46
478.8	3.44
479.15	3.44
479.501	3.42
479.852	3.42
480.203	3.42
480.554	3.43
480.905	3.43
481.255	3.44
481.606	3.44
481.957	3.45
482.307	3.45
482.658	3.46
483.009	3.48
483.359	3.49
483.709	3.49
484.06	3.51
484.41	3.51
484.761	3.52
485.111	3.53
485.461	3.54
485.811	3.54
486.162	3.55
486.512	3.56
486.862	3.57
487.212	3.57
487.562	3.57
487.912	3.58
488.262	3.58
488.612	3.59
488.961	3.59
489.311	3.58
489.661	3.58
490.011	3.58
490.36	3.57
490.71	3.56
491.06	3.56
491.409	3.54
491.759	3.54
492.108	3.53
492.458	3.54
492.807	3.52
493.157	3.52
493.506	3.52
493.855	3.5
494.204	3.49
494.554	3.5
494.903	3.5
495.252	3.51
495.601	3.52
495.95	3.52
496.299	3.53
496.648	3.54
496.997	3.55
497.346	3.57
497.695	3.58
498.043	3.6
498.392	3.59
498.741	3.6
499.09	3.62
499.438	3.62
499.787	3.6
500.135	3.62
500.484	3.63
500.832	3.65
501.181	3.67
501.529	3.68
501.878	3.7
502.226	3.72
502.574	3.69
502.923	3.68
503.271	3.7
503.619	3.7
503.967	3.7
504.315	3.69
504.663	3.69
505.011	3.68
505.359	3.69
505.707	3.69
506.055	3.71
506.403	3.72
506.751	3.72
507.098	3.75
507.446	3.75
507.794	3.73
508.141	3.72
508.489	3.72
508.837	3.72
509.184	3.72
509.531	3.7
509.879	3.73
510.226	3.74
510.574	3.72
510.921	3.73
511.268	3.75
511.616	3.78
511.963	3.77
512.31	3.8
512.657	3.8
513.004	3.79
513.351	3.78
513.698	3.77
514.045	3.77
514.392	3.76
514.739	3.75
515.086	3.77
515.432	3.78
515.779	3.79
516.126	3.83
516.473	3.82
516.819	3.83
517.166	3.83
517.512	3.81
517.859	3.83
518.205	3.82
518.552	3.81
518.898	3.79
519.245	3.81
519.591	3.81
519.937	3.79
520.283	3.81
520.629	3.8
520.976	3.8
521.322	3.79
521.668	3.78
522.014	3.77
522.36	3.76
522.706	3.76
523.052	3.78
523.398	3.76
523.743	3.76
524.089	3.76
524.435	3.76
524.781	3.78
525.126	3.76
525.472	3.78
525.817	3.78
526.163	3.8
526.509	3.8
526.854	3.8
527.199	3.8
527.545	3.81
527.89	3.83
528.235	3.84
528.581	3.85
528.926	3.86
529.271	3.86
529.616	3.87
529.961	3.88
530.306	3.87
530.651	3.87
530.996	3.88
531.341	3.89
531.686	3.91
532.031	3.91
532.376	3.92
532.721	3.91
533.065	3.92
533.41	3.92
533.755	3.92
534.099	3.91
534.444	3.93
534.788	3.93
535.133	3.92
535.477	3.92
535.822	3.92
536.166	3.95
536.51	3.97
536.855	3.94
537.199	3.92
537.543	3.92
537.887	3.93
538.231	3.93
538.576	3.92
538.92	3.91
539.264	3.93
539.608	3.92
539.951	3.93
540.295	3.93
540.639	3.94
540.983	3.94
541.327	3.95
541.671	3.96
542.014	3.96
542.358	3.97
542.701	3.98
543.045	3.98
543.389	3.97
543.732	3.95
544.075	3.97
544.419	3.99
544.762	3.99
545.105	4
545.449	4
545.792	4
546.135	4.02
546.478	4
546.821	4.02
547.165	4.03
547.508	4.03
547.851	4.04
548.194	4.04
548.536	4.04
548.879	4.03
549.222	4.01
549.565	4
549.908	3.98
550.25	3.99
550.593	3.98
550.936	4.03
551.278	4.03
551.621	4.02
551.963	4.05
552.306	4.04
552.648	4.04
552.991	4.05
553.333	4.04
553.675	4.06
554.017	4.02
554.36	4.02
554.702	4.03
555.044	4.02
555.386	4.01
555.728	4.03
556.07	4.01
556.412	4
556.754	3.97
557.096	3.98
557.438	4
557.78	4.03
558.121	3.97
558.463	3.96
558.805	3.98
559.147	3.97
559.488	4
559.83	4.03
560.171	4.03
560.513	4.01
560.854	4.01
561.196	4.06
561.537	4.06
561.878	4.05
562.22	4.08
562.561	4.07
562.902	4.05
563.243	4.05
563.584	4.12
563.925	4.16
564.266	4.15
564.607	4.15
564.948	4.12
565.289	4.18
565.63	4.2
565.971	4.22
566.312	4.21
566.653	4.18
566.993	4.13
567.334	4.15
567.675	4.15
568.015	4.15
568.356	4.14
568.696	4.13
569.037	4.12
569.377	4.09
569.718	4.1
570.058	4.11
570.398	4.1
570.739	4.05
571.079	4.05
571.419	4.04
571.759	4.03
572.099	4.06
572.439	4.03
572.779	4.02
573.119	4.03
573.459	4.07
573.799	4.07
574.139	4.1
574.479	4.08
574.819	4.07
575.158	4.06
575.498	4.06
575.838	4.07
576.177	4.09
576.517	4.1
576.856	4.11
577.196	4.11
577.535	4.16
577.875	4.17
578.214	4.19
578.553	4.21
578.893	4.22
579.232	4.23
579.571	4.25
579.91	4.25
580.25	4.23
580.589	4.19
580.928	4.17
581.267	4.19
581.606	4.2
581.945	4.21
582.283	4.21
582.622	4.21
582.961	4.2
583.3	4.23
583.639	4.22
583.977	4.2
584.316	4.18
584.654	4.15
584.993	4.11
585.332	4.11
585.67	4.13
586.008	4.14
586.347	4.12
586.685	4.11
587.024	4.12
587.362	4.11
587.7	4.13
588.038	4.17
588.376	4.14
588.715	4.1
589.053	4.1
589.391	4.12
589.729	4.14
590.067	4.16
590.404	4.14
590.742	4.15
591.08	4.2
591.418	4.23
591.756	4.24
592.093	4.27
592.431	4.26
592.769	4.23
593.106	4.19
593.444	4.2
593.781	4.21
594.119	4.21
594.456	4.24
594.793	4.21
595.131	4.21
595.468	4.26
595.805	4.28
596.143	4.34
596.48	4.34
596.817	4.31
597.154	4.3
597.491	4.28
597.828	4.3
598.165	4.28
598.502	4.21
598.839	4.21
599.176	4.21
599.512	4.21
599.849	4.24
600.186	4.28
600.523	4.28
600.859	4.3
601.196	4.3
601.532	4.3
601.869	4.32
602.205	4.26
602.542	4.25
602.878	4.29
603.215	4.22
603.551	4.21
603.887	4.21
604.223	4.2
604.56	4.23
604.896	4.24
605.232	4.25
605.568	4.3
605.904	4.3
606.24	4.32
606.576	4.33
606.912	4.33
607.248	4.31
607.583	4.33
607.919	4.31
608.255	4.31
608.591	4.3
608.926	4.28
609.262	4.37
609.597	4.36
609.933	4.32
610.268	4.39
610.604	4.37
610.939	4.4
611.275	4.41
611.61	4.37
611.945	4.34
612.281	4.36
612.616	4.37
612.951	4.38
613.286	4.37
613.621	4.35
613.956	4.36
614.291	4.39
614.626	4.35
614.961	4.37
615.296	4.4
615.631	4.43
615.966	4.46
616.3	4.42
616.635	4.45
616.97	4.47
617.304	4.49
617.639	4.56
617.973	4.56
618.308	4.62
618.642	4.66
618.977	4.65
619.311	4.63
619.646	4.69
619.98	4.73
620.314	4.75
620.648	4.75
620.983	4.72
621.317	4.68
621.651	4.7
621.985	4.72
622.319	4.76
622.653	4.74
622.987	4.7
623.321	4.72
623.655	4.67
623.988	4.7
624.322	4.65
624.656	4.6
624.99	4.61
625.323	4.55
625.657	4.54
625.99	4.61
626.324	4.58
626.657	4.54
626.991	4.51
627.324	4.48
627.658	4.49
627.991	4.54
628.324	4.55
628.657	4.57
628.991	4.57
629.324	4.49
629.657	4.42
629.99	4.39
630.323	4.34
630.656	4.36
630.989	4.35
631.322	4.36
631.655	4.38
631.987	4.38
632.32	4.39
632.653	4.37
632.986	4.25
633.318	4.32
633.651	4.35
633.984	4.37
634.316	4.42
634.649	4.46
634.981	4.42
635.313	4.44
635.646	4.48
635.978	4.44
636.31	4.51
636.643	4.66
636.975	4.75
637.307	4.82
637.639	4.76
637.971	4.76
638.303	4.76
638.635	4.8
638.967	4.81
639.299	4.84
639.631	4.83
639.963	4.89
640.295	4.9
640.626	4.91
640.958	4.94
641.29	4.99
641.621	5
641.953	5.02
642.285	5.06
642.616	5.07
642.948	5.08
643.279	5.06
643.61	5.06
643.942	5.01
644.273	4.99
644.604	5.02
644.936	5.01
645.267	4.99
645.598	4.97
645.929	4.93
646.26	4.9
646.591	4.94
646.922	4.94
647.253	4.93
647.584	4.91
647.915	4.85
648.245	4.81
648.576	4.74
648.907	4.72
649.238	4.63
649.568	4.61
649.899	4.6
650.229	4.59
650.56	4.48
650.89	4.56
651.221	4.62
651.551	4.63
651.882	4.66
652.212	4.67
652.542	4.74
652.872	4.73
653.203	4.79
653.533	4.82
653.863	4.83
654.193	4.79
654.523	4.76
654.853	4.81
655.183	4.76
655.513	4.79
655.843	4.83
656.172	4.91
656.502	4.88
656.832	4.9
657.162	4.89
657.491	4.96
657.821	4.92
658.15	4.84
658.48	4.95
658.809	4.93
659.139	4.97
659.468	4.93
659.798	5
660.127	5.04
660.456	5.03
660.785	5.03
661.115	5.03
661.444	5.04
661.773	5.06
662.102	5.04
662.431	5.02
662.76	4.89
663.089	4.91
663.418	4.88
663.747	4.93
664.076	4.99
664.404	5.01
664.733	5.02
665.062	5.11
665.39	5
665.719	5.03
666.048	5
666.376	4.99
666.705	4.97
667.033	4.89
667.362	4.81
667.69	4.84
668.018	4.92
668.347	5.01
668.675	4.96
669.003	5.07
669.331	5.06
669.659	5.19
669.987	5.15
670.315	5.21
670.643	5.15
670.971	5.22
671.299	5.14
671.627	5.06
671.955	4.97
672.283	4.99
672.61	5.04
672.938	5.13
673.266	5.19
673.593	5.06
673.921	5.1
674.249	5.17
674.576	5.18
674.904	5.14
675.231	5.05
675.558	5.07
675.886	5.05
676.213	5.13
676.54	5.16
676.867	5.11
677.195	5.18
677.522	5.29
677.849	5.25
678.176	5.31
678.503	5.38
678.83	5.46
679.157	5.48
679.484	5.41
679.81	5.32
680.137	5.28
680.464	5.41
680.791	5.42
681.117	5.4
681.444	5.33
681.771	5.35
682.097	5.44
682.424	5.46
682.75	5.45
683.077	5.41
683.403	5.39
683.729	5.38
684.056	5.3
684.382	5.27
684.708	5.15
685.034	5.11
685.36	5.19
685.686	5.22
686.012	5.21
686.339	5.24
686.664	5.33
686.99	5.33
687.316	5.3
687.642	5.32
687.968	5.39
688.294	5.53
688.619	5.54
688.945	5.43
689.271	5.37
689.596	5.5
689.922	5.58
690.247	5.59
690.573	5.68
690.898	5.77
691.224	5.74
691.549	5.88
691.874	6.04
692.2	5.94
692.525	5.87
692.85	5.89
693.175	5.94
693.5	5.94
693.825	5.91
694.15	5.8
694.475	5.77
694.8	5.65
695.125	5.6
695.45	5.53
695.775	5.62
696.099	5.84
696.424	5.74
696.749	5.68
697.073	5.68
697.398	5.66
697.723	5.74
698.047	5.72
698.372	5.71
698.696	5.59
699.02	5.61
699.345	5.6
699.669	5.56
699.993	5.46
700.318	5.48
700.642	5.53
700.966	5.65
701.29	5.66
701.614	5.74
701.938	5.72
702.262	5.81
702.586	5.78
702.91	5.66
703.234	5.67
703.557	5.71
703.881	5.78
704.205	5.85
704.529	5.65
704.852	5.59
705.176	5.55
705.499	5.65
705.823	5.59
706.146	5.57
706.47	5.64
706.793	5.72
707.117	5.67
707.44	5.64
707.763	5.65
708.086	5.6
708.409	5.81
708.733	5.74
709.056	5.78
709.379	5.89
709.702	5.82
710.025	5.76
710.348	5.77
710.671	5.6
710.993	5.7
711.316	5.84
711.639	5.89
711.962	5.84
712.284	5.87
712.607	5.88
712.93	5.99
713.252	5.97
713.575	5.98
713.897	5.96
714.22	5.97
714.542	5.94
714.864	5.91
715.187	5.76
715.509	5.81
715.831	5.81
716.153	5.82
716.475	5.81
716.798	5.84
717.12	5.89
717.442	6.05
717.764	5.8
718.085	5.72
718.407	5.72
718.729	5.71
719.051	5.66
719.373	5.83
719.695	5.78
720.016	5.78
720.338	5.81
720.659	5.76
720.981	5.71
721.302	5.85
721.624	5.97
721.945	6.07
722.267	6.2
722.588	6.29
722.909	6.05
723.231	6.04
723.552	5.84
723.873	5.72
724.194	5.71
724.515	5.83
724.836	5.79
725.157	5.87
725.478	6.1
725.799	6.11
726.12	6.02
726.441	6.06
726.762	6.15
727.083	6.3
727.403	6.16
727.724	6.4
728.045	6.32
728.365	6.32
728.686	6.06
729.006	5.93
729.327	5.76
729.647	5.96
729.967	5.97
730.288	6.15
730.608	6.28
730.928	6.25
731.249	6.3
731.569	6.47
731.889	6.35
732.209	6.2
732.529	6.11
732.849	6.14
733.169	6.16
733.489	6.01
733.809	5.76
734.129	6.1
734.448	5.97
734.768	5.88
735.088	5.86
735.408	6
735.727	6.31
736.047	6.42
736.366	6.4
736.686	6.52
737.005	6.58
737.325	6.51
737.644	6.54
737.963	6.63
738.283	6.48
738.602	6.7
738.921	6.9
739.24	7.03
739.56	7.07
739.879	6.95
740.198	7.11
740.517	7.17
740.836	6.94
741.155	6.84
741.473	6.95
741.792	7.2
742.111	7.16
742.43	7.08
742.748	7.06
743.067	7.01
743.386	6.71
743.704	6.54
744.023	6.92
744.341	6.7
744.66	6.31
744.978	6.4
745.297	6.04
745.615	5.74
745.933	5.94
746.252	5.93
746.57	6.07
746.888	6.14
747.206	6.11
747.524	6.32
747.842	6.47
748.16	6.72
748.478	6.53
748.796	6.77
749.114	6.55
749.432	6.54
749.749	6.43
750.067	6.58
750.385	6.9
750.703	6.51
751.02	6.7
751.338	6.96
751.655	7.02
751.973	7.29
752.29	7.41
752.608	7.13
752.925	7.18
753.242	6.97
753.56	6.84
753.877	6.92
754.194	7.03
754.511	7.14
754.828	6.69
755.145	6.48
755.462	6.12
755.779	6.36
756.096	6.36
756.413	6.79
756.73	6.98
757.047	6.68
757.364	6.67
757.68	6.67
757.997	6.72
758.314	6.83
758.63	6.88
758.947	6.93
759.264	7.21
759.58	7.16
759.896	7.43
760.213	7.31
760.529	7.41
760.846	7.06
761.162	6.74
761.478	6.87
761.794	7.02
762.11	7.19
762.426	7.18
762.743	7.15
763.059	7.05
763.375	6.95
763.69	7.1
764.006	7.11
764.322	7.18
764.638	7.27
764.954	7.05
765.27	7.22
765.585	7.25
765.901	7.09
766.216	7.05
766.532	7.06
766.848	6.99
767.163	6.86
767.478	6.91
767.794	7.06
768.109	7.18
768.424	7.34
768.74	7.43
769.055	7.36
769.37	7.45
769.685	7.26
770	7.39
770.315	7.23
770.63	7.49
770.945	7.31
771.26	7.36
771.575	7.44
771.89	6.86
772.205	6.78
772.52	6.82
772.834	7.11
773.149	7.02
773.464	7.38
773.778	7.55
774.093	7.8
774.407	7.85
774.722	7.9
775.036	7.64
775.351	7.74
775.665	7.89
775.979	7.8
776.293	7.73
776.608	7.72
776.922	7.76
777.236	7.16
777.55	7.42
777.864	7.36
778.178	7.24
778.492	7.5
778.806	7.63
779.12	7.75
779.434	7.45
779.747	7.56
780.061	7.48
780.375	7.54
780.689	7.56
781.002	7.82
781.316	7.74
781.629	7.86
781.943	7.48
782.256	7.32
782.57	7.59
782.883	8.08
783.196	8
783.51	8.06
783.823	8.69
784.136	8.26
784.449	8.29
784.762	8.95
785.075	8.96
785.388	9.31
785.701	8.94
786.014	8.94
786.327	8.79
786.64	9.05
786.953	8.84
787.266	8.75
787.578	8.7
787.891	8.71
788.204	8.53
788.516	8.78
788.829	8.6
789.141	8.78
789.454	8.23
789.766	8.44
790.079	8.23
790.391	7.9
790.703	8.01
791.016	7.65
791.328	7.35
791.64	7.82
791.952	7.87
792.264	7.89
792.576	8.33
792.888	8.5
793.2	8.36
793.512	8.35
793.824	8.63
794.136	8.55
794.448	8.86
794.76	9.58
795.071	9.71
795.383	10.01
795.695	9.77
796.006	9.99
796.318	10.18
796.629	10.5
796.941	10.73
797.252	11.09
797.564	11.61
797.875	11.72
798.186	11.46
798.497	10.46
798.809	11.25
799.12	10.51
799.431	10.07
799.742	10.01
800.053	10.11
800.364	10.05
800.675	9.98
800.986	10.04
801.297	9.14
801.608	8.41
801.918	8.62
802.229	8.4
802.54	8.15
802.851	7.97
803.161	7.91
803.472	7.67
803.782	7.87
804.093	8.2
804.403	8.29
804.714	8.67
805.024	9.52
805.334	8.51
805.645	8.91
805.955	8.96
806.265	9.14
806.575	9.52
806.885	9.64
807.195	9.73
807.505	9.32
807.815	10.13
808.125	11.06
808.435	10.74
808.745	10.23
809.055	11.09
809.365	11.09
809.674	11.05
809.984	11.12
810.294	11.32
810.603	10.17
810.913	10.16
811.222	9.02
811.532	8.65
811.841	9.22
812.151	9.32
812.46	9.75
812.769	9.52
813.079	8.89
813.388	8.53
813.697	8.42
814.006	9.4
814.315	8.61
814.624	8.42
814.933	8.34
815.242	9.07
815.551	9
815.86	9.06
816.169	8.85
816.478	9.81
816.786	9.33
817.095	9.78
817.404	9.47
817.712	10.37
818.021	11.07
818.33	11.16
818.638	10.99
818.947	10.84
819.255	10.67
819.563	10.73
819.872	10.78
820.18	10.73
820.488	10.32
820.796	10.41
821.105	10.4
821.413	10.27
821.721	10.03
822.029	9.97
822.337	10
822.645	10.07
822.953	9.76
823.26	9.74
823.568	9.73
823.876	9.67
824.184	9.56
824.491	9.43
824.799	9.38
825.107	9.6
825.414	9.54
825.722	9.63
826.029	9.61
826.337	9.52
826.644	9.53
826.951	9.43
827.259	9.53
827.566	9.43
827.873	9.36
828.18	9.59
828.488	9.41
828.795	9.58
829.102	9.31
829.409	9.3
829.716	9.74
830.023	9.81
830.329	9.97
830.636	10.27
830.943	9.96
831.25	10.28
831.557	9.92
831.863	9.61
832.17	9.62
832.476	9.49
832.783	9.56
833.089	9.83
833.396	10.24
833.702	10.24
834.009	10.35
834.315	10.43
834.621	10.45
834.928	10.81
835.234	10.56
835.54	10.85
835.846	11.17
836.152	10.78
836.458	10.71
836.764	11.05
837.07	11.01
837.376	11.62
837.682	11.33
837.988	11.15
838.293	12.16
838.599	12.41
838.905	13.38
839.211	13.44
839.516	13.14
839.822	13.27
840.127	13.25
840.433	13.44
840.738	13.75
841.044	13.64
841.349	13.49
841.654	12.58
841.959	14
842.265	14.62
842.57	14.07
842.875	14.22
843.18	13.22
843.485	12.4
843.79	12.05
844.095	10.8
844.4	11.37
844.705	11.49
845.01	11.13
845.315	10.51
845.619	11.94
845.924	12.3
846.229	13.03
846.533	13.16
846.838	11.64
847.142	13.35
847.447	14.38
847.751	15.27
848.056	15.94
848.36	17.55
848.664	18.53
848.969	19.05
849.273	17.87
849.577	18.81
849.881	20.21
850.185	21.36
850.489	22.37
850.794	22.59
851.097	22.19
851.401	22.69
851.705	23.63
852.009	21.75
852.313	20.02
852.617	18.17
852.92	19.17
853.224	23.21
853.528	21.14
853.831	20.02
854.135	20.6
854.438	21.62
854.742	18.89
855.045	14.96
855.349	15.15
855.652	16.19
855.955	16.08
856.259	14.93
856.562	15.6
856.865	16.78
857.168	16.64
857.471	17.56
857.774	17.64
858.077	15.16
858.38	14.87
858.683	15.87
858.986	16.31
859.289	15.07
859.592	13.62
859.894	16.47
860.197	16.51
860.5	16.4
860.802	15.61
861.105	15.75
861.407	17.59
861.71	18.08
862.012	19.81
862.315	20.71
862.617	19.43
862.919	19.71
863.222	20.51
863.524	19.43
863.826	18.02
864.128	20.5
864.43	22.5
864.732	21.36
865.034	23.18
865.336	23.74
865.638	24.57
865.94	27.4
866.242	25.49
866.544	28.62
866.846	28.97
867.147	29.9
867.449	27.38
867.751	27.91
868.052	27.76
868.354	27.01
868.655	25.74
868.957	29.6
869.258	30.05
869.56	26.61
869.861	27.54
870.162	28.52
870.463	25.01
870.765	24.56
871.066	26.11
871.367	23.47
871.668	23.73
871.969	24.43
872.27	20.87
872.571	20.97
872.872	18.35
873.173	14.25
873.473	12.35
873.774	13.49
874.075	14.14
874.376	13.38
874.676	15.19
874.977	16.56
875.277	13.63
875.578	11.81
875.878	14.44
876.179	14.14
876.479	13.34
876.78	13.48
877.08	13.07
877.38	13.33
877.68	15.59
877.981	14.16
878.281	11.62
878.581	12.09
