Data from MVZ_BU163026_Reflection_00013.txt Node
Date: Tue Nov 19 12:06:13 EST 2019
User: vgr7
Spectrometer: USB2G7710
Scans to average: 3
Trigger mode: 4
Integration Time (sec): 2.000000E-2
Electric dark correction enabled: true
Boxcar width: 10
XAxis mode: Wavelengths
Number of Pixels in Spectrum: 2048
>>>>>Begin Spectral Data<<<<<
177.721	14.76
178.105	-264.86
178.488	-84.3
178.871	-47.76
179.254	-1.54
179.636	-16.45
180.019	-17.46
180.402	-116.67
180.785	100
181.168	-0.45
181.55	100
181.933	403.37
182.316	23.89
182.698	-29.66
183.081	-31.74
183.463	-1.07
183.846	24.15
184.228	39.94
184.611	20.65
184.993	-20
185.376	12.06
185.758	31.57
186.14	46.38
186.522	44.69
186.904	40.71
187.287	34.64
187.669	47.6
188.051	57.89
188.433	41.04
188.815	59.98
189.197	71.76
189.579	63.49
189.961	49.56
190.342	75.91
190.724	160.19
191.106	190.72
191.488	128.32
191.869	237.98
192.251	275.84
192.633	361.5
193.014	489.05
193.396	319.76
193.777	234.65
194.159	523.79
194.54	1541.56
194.922	-7005.26
195.303	964
195.684	678.68
196.065	513.79
196.447	-352.26
196.828	3645.45
197.209	392.04
197.59	758.54
197.971	610.64
198.352	88.33
198.733	69.9
199.114	114.78
199.495	36.34
199.876	-1.69
200.257	56.24
200.638	74.63
201.018	114.96
201.399	255.84
201.78	987.32
202.16	105.83
202.541	86.59
202.922	32.94
203.302	20.94
203.683	-27.15
204.063	-15.51
204.444	45.37
204.824	36.47
205.204	156.6
205.585	758.54
205.965	480.28
206.345	-94.33
206.725	26.83
207.106	100
207.486	54.59
207.866	104.62
208.246	89.08
208.626	44.21
209.006	75.89
209.386	62.55
209.766	187.64
210.145	148.94
210.525	179.52
210.905	100
211.285	40.73
211.664	20.9
212.044	3.91
212.424	15.24
212.803	11.08
213.183	23.35
213.562	43.35
213.942	37.8
214.321	33.93
214.701	17.2
215.08	1.94
215.459	20.99
215.838	20.29
216.218	23.8
216.597	49.38
216.976	58.73
217.355	66.25
217.734	27.52
218.113	9.32
218.492	13.89
218.871	17.24
219.25	23.53
219.629	28.95
220.008	45.09
220.387	47.41
220.766	47.07
221.144	55.91
221.523	39.7
221.902	12.89
222.28	7.49
222.659	21.87
223.037	23.74
223.416	19.45
223.794	16.95
224.173	6.8
224.551	7.57
224.929	-1.65
225.308	1.35
225.686	4.61
226.064	4.29
226.442	6.91
226.821	7.14
227.199	4.68
227.577	2.1
227.955	4.25
228.333	2.06
228.711	-1.8
229.089	-3.01
229.467	-5.08
229.845	0.83
230.222	8.23
230.6	9.8
230.978	9.64
231.356	8.27
231.733	7.36
232.111	8.89
232.488	10.41
232.866	10.84
233.243	10.4
233.621	10.88
233.998	8.56
234.376	5.63
234.753	2.58
235.13	1.87
235.508	0.62
235.885	-0.11
236.262	1.36
236.639	2.7
237.016	2.93
237.393	5.7
237.77	5.03
238.147	1.89
238.524	0.9
238.901	-0.32
239.278	-0.18
239.655	0.73
240.032	0.41
240.409	0.19
240.785	0.88
241.162	0.74
241.539	0.49
241.915	1.43
242.292	2.55
242.668	3.03
243.045	3.43
243.421	4.05
243.798	3.71
244.174	3.52
244.551	3.38
244.927	3.08
245.303	2.95
245.679	2.76
246.056	2.91
246.432	3.17
246.808	3.76
247.184	3.81
247.56	3.33
247.936	3.49
248.312	3.71
248.688	3.61
249.064	3.49
249.44	3.38
249.815	3.47
250.191	3.29
250.567	3.25
250.943	3.25
251.318	3.11
251.694	3.07
252.069	3.3
252.445	3.32
252.82	3.52
253.196	3.54
253.571	3.62
253.947	3.66
254.322	3.54
254.697	2.92
255.073	2.79
255.448	2.76
255.823	2.81
256.198	2.49
256.573	2.43
256.948	2.73
257.323	2.93
257.698	2.86
258.073	2.98
258.448	3.21
258.823	2.81
259.198	2.79
259.573	2.78
259.948	2.67
260.322	2.5
260.697	2.57
261.072	2.65
261.446	2.77
261.821	2.67
262.195	2.64
262.57	2.76
262.944	2.8
263.319	3.04
263.693	2.86
264.067	2.98
264.442	3
264.816	2.93
265.19	2.88
265.564	2.79
265.938	2.62
266.313	2.3
266.687	2.54
267.061	2.66
267.435	2.74
267.809	2.65
268.183	2.64
268.556	2.47
268.93	2.53
269.304	2.48
269.678	2.75
270.051	2.8
270.425	2.73
270.799	2.65
271.172	2.78
271.546	2.85
271.919	2.69
272.293	2.76
272.666	2.87
273.04	2.82
273.413	2.83
273.787	2.86
274.16	2.94
274.533	2.79
274.906	2.75
275.279	2.65
275.653	2.75
276.026	2.8
276.399	2.84
276.772	2.8
277.145	2.68
277.518	2.53
277.891	2.44
278.263	2.53
278.636	2.67
279.009	2.41
279.382	2.51
279.755	2.44
280.127	2.3
280.5	2.1
280.872	2.22
281.245	2.16
281.617	1.94
281.99	1.93
282.362	2.13
282.735	1.99
283.107	2.05
283.479	2.04
283.852	2.11
284.224	2.18
284.596	2.02
284.968	2.1
285.34	2.11
285.713	2.27
286.085	2.29
286.457	2.44
286.829	2.46
287.201	2.36
287.572	2.53
287.944	2.66
288.316	2.74
288.688	2.74
289.06	2.85
289.431	3.18
289.803	3.24
290.175	3.26
290.546	3.31
290.918	3.41
291.289	3.37
291.661	3.53
292.032	3.46
292.403	3.55
292.775	3.68
293.146	3.6
293.517	3.43
293.889	3.46
294.26	3.37
294.631	3.46
295.002	3.52
295.373	3.54
295.744	3.55
296.115	3.65
296.486	3.72
296.857	3.72
297.228	3.52
297.599	3.51
297.97	3.52
298.34	3.65
298.711	3.66
299.082	3.79
299.452	3.8
299.823	3.87
300.194	3.9
300.564	3.71
300.935	3.83
301.305	4.03
301.676	3.99
302.046	3.93
302.416	3.9
302.787	3.85
303.157	3.86
303.527	4.02
303.897	3.89
304.267	3.91
304.637	3.9
305.008	4.05
305.378	4.25
305.748	4.31
306.117	4.32
306.487	4.32
306.857	4.38
307.227	4.39
307.597	4.53
307.967	4.51
308.336	4.59
308.706	4.66
309.076	4.64
309.445	4.71
309.815	4.76
310.184	4.88
310.554	5.12
310.923	5.09
311.293	5.02
311.662	5.07
312.031	5.06
312.401	5.05
312.77	5.03
313.139	4.95
313.508	4.9
313.877	4.81
314.246	4.79
314.616	4.83
314.985	4.89
315.353	4.88
315.722	5.14
316.091	5.22
316.46	5.15
316.829	5.11
317.198	5.17
317.567	5.38
317.935	5.43
318.304	5.45
318.672	5.66
319.041	5.66
319.41	5.78
319.778	5.84
320.147	6.03
320.515	6.05
320.883	6.08
321.252	6.38
321.62	6.56
321.988	6.68
322.357	6.83
322.725	6.78
323.093	6.86
323.461	6.74
323.829	6.89
324.197	7.05
324.565	7.18
324.933	7.19
325.301	6.98
325.669	6.97
326.037	7.02
326.405	7.12
326.772	7.17
327.14	7.2
327.508	7.25
327.875	7.37
328.243	7.46
328.61	7.45
328.978	7.33
329.346	7.4
329.713	7.55
330.08	7.57
330.448	7.55
330.815	7.45
331.182	7.53
331.55	7.38
331.917	7.34
332.284	7.29
332.651	7.33
333.018	7.33
333.385	7.39
333.752	7.32
334.119	7.29
334.486	7.26
334.853	7.25
335.22	7.22
335.587	7.13
335.954	7.09
336.32	7.18
336.687	7.43
337.054	7.48
337.42	7.45
337.787	7.38
338.153	7.57
338.52	7.68
338.886	7.75
339.253	7.87
339.619	7.95
339.986	7.95
340.352	8
340.718	8.14
341.084	8.19
341.451	8.35
341.817	8.33
342.183	8.4
342.549	8.53
342.915	8.54
343.281	8.65
343.647	8.67
344.013	8.64
344.379	8.4
344.745	8.41
345.11	8.36
345.476	8.46
345.842	8.42
346.208	8.4
346.573	8.25
346.939	8.24
347.304	8.18
347.67	8.2
348.035	8.17
348.401	8.23
348.766	8.16
349.132	8.14
349.497	8.21
349.862	8.17
350.228	8.05
350.593	8.12
350.958	8.19
351.323	8.19
351.688	8.21
352.053	8.33
352.418	8.3
352.783	8.37
353.148	8.3
353.513	8.17
353.878	8.15
354.243	8.22
354.608	8.3
354.972	8.23
355.337	8.27
355.702	8.23
356.066	8.2
356.431	8.15
356.795	8.18
357.16	8
357.524	7.96
357.889	8.01
358.253	7.9
358.618	7.8
358.982	7.73
359.346	7.78
359.71	7.67
360.075	7.67
360.439	7.68
360.803	7.66
361.167	7.66
361.531	7.63
361.895	7.6
362.259	7.62
362.623	7.69
362.987	7.67
363.351	7.66
363.714	7.72
364.078	7.72
364.442	7.6
364.806	7.67
365.169	7.69
365.533	7.66
365.896	7.72
366.26	7.64
366.623	7.66
366.987	7.58
367.35	7.62
367.714	7.57
368.077	7.5
368.44	7.46
368.803	7.44
369.167	7.43
369.53	7.37
369.893	7.24
370.256	7.12
370.619	7.03
370.982	6.99
371.345	6.84
371.708	6.86
372.071	6.81
372.434	6.76
372.797	6.74
373.159	6.66
373.522	6.54
373.885	6.49
374.247	6.42
374.61	6.35
374.973	6.29
375.335	6.24
375.698	6.1
376.06	6.02
376.423	6.02
376.785	6
377.147	5.93
377.51	5.88
377.872	5.85
378.234	5.84
378.596	5.75
378.958	5.77
379.321	5.71
379.683	5.73
380.045	5.63
380.407	5.58
380.769	5.51
381.13	5.5
381.492	5.48
381.854	5.5
382.216	5.47
382.578	5.46
382.939	5.39
383.301	5.41
383.663	5.43
384.024	5.38
384.386	5.31
384.747	5.32
385.109	5.26
385.47	5.26
385.832	5.2
386.193	5.19
386.554	5.04
386.916	5.04
387.277	4.97
387.638	4.97
387.999	4.91
388.36	4.91
388.721	4.94
389.082	4.98
389.443	4.93
389.804	4.94
390.165	4.89
390.526	4.88
390.887	4.84
391.248	4.77
391.609	4.73
391.969	4.7
392.33	4.66
392.691	4.63
393.051	4.59
393.412	4.57
393.772	4.6
394.133	4.62
394.493	4.55
394.854	4.52
395.214	4.48
395.574	4.44
395.935	4.39
396.295	4.34
396.655	4.25
397.015	4.23
397.376	4.17
397.736	4.1
398.096	4.05
398.456	4.01
398.816	4.01
399.176	3.98
399.535	3.95
399.895	3.91
400.255	3.89
400.615	3.86
400.975	3.79
401.334	3.74
401.694	3.74
402.054	3.73
402.413	3.68
402.773	3.67
403.132	3.66
403.492	3.67
403.851	3.66
404.211	3.65
404.57	3.63
404.929	3.6
405.288	3.67
405.648	3.69
406.007	3.71
406.366	3.67
406.725	3.64
407.084	3.65
407.443	3.66
407.802	3.65
408.161	3.64
408.52	3.67
408.879	3.67
409.238	3.67
409.596	3.65
409.955	3.65
410.314	3.65
410.673	3.66
411.031	3.66
411.39	3.65
411.748	3.65
412.107	3.61
412.465	3.59
412.824	3.5
413.182	3.47
413.54	3.45
413.899	3.43
414.257	3.42
414.615	3.38
414.974	3.34
415.332	3.35
415.69	3.32
416.048	3.3
416.406	3.27
416.764	3.25
417.122	3.23
417.48	3.26
417.838	3.25
418.195	3.23
418.553	3.19
418.911	3.15
419.269	3.14
419.626	3.15
419.984	3.16
420.342	3.17
420.699	3.14
421.057	3.14
421.414	3.15
421.772	3.17
422.129	3.17
422.486	3.16
422.844	3.15
423.201	3.15
423.558	3.15
423.915	3.16
424.273	3.16
424.63	3.16
424.987	3.14
425.344	3.13
425.701	3.13
426.058	3.14
426.415	3.14
426.772	3.12
427.128	3.1
427.485	3.08
427.842	3.06
428.199	3.08
428.555	3.07
428.912	3.03
429.269	3.02
429.625	3.04
429.982	3.06
430.338	3.06
430.695	3.03
431.051	3.03
431.407	3
431.764	2.96
432.12	2.96
432.476	2.96
432.832	2.95
433.189	2.93
433.545	2.94
433.901	2.94
434.257	2.93
434.613	2.96
434.969	2.95
435.325	2.96
435.681	2.97
436.036	2.97
436.392	3
436.748	2.99
437.104	2.99
437.459	2.97
437.815	2.98
438.171	3.01
438.526	3
438.882	3.03
439.237	3.04
439.593	3.02
439.948	3.02
440.304	3.01
440.659	3.05
441.014	3.05
441.369	3.04
441.725	3.05
442.08	3.04
442.435	3.04
442.79	3.04
443.145	3.05
443.5	3.04
443.855	3.02
444.21	3.01
444.565	3.01
444.92	3.02
445.275	3
445.629	2.98
445.984	2.98
446.339	2.98
446.693	2.97
447.048	2.98
447.403	2.97
447.757	2.97
448.112	2.95
448.466	2.92
448.82	2.93
449.175	2.93
449.529	2.93
449.883	2.93
450.238	2.93
450.592	2.92
450.946	2.9
451.3	2.89
451.654	2.88
452.008	2.86
452.362	2.85
452.716	2.85
453.07	2.84
453.424	2.82
453.778	2.8
454.132	2.79
454.486	2.81
454.839	2.79
455.193	2.8
455.547	2.81
455.9	2.83
456.254	2.81
456.607	2.81
456.961	2.8
457.314	2.8
457.668	2.79
458.021	2.78
458.375	2.79
458.728	2.81
459.081	2.8
459.434	2.79
459.787	2.78
460.141	2.79
460.494	2.81
460.847	2.82
461.2	2.82
461.553	2.84
461.906	2.83
462.259	2.84
462.611	2.83
462.964	2.82
463.317	2.84
463.67	2.86
464.022	2.85
464.375	2.85
464.728	2.87
465.08	2.88
465.433	2.89
465.785	2.9
466.138	2.91
466.49	2.92
466.843	2.96
467.195	2.99
467.547	3
467.899	3.02
468.252	3.03
468.604	3.03
468.956	3.04
469.308	3.05
469.66	3.05
470.012	3.08
470.364	3.09
470.716	3.1
471.068	3.11
471.42	3.12
471.772	3.14
472.123	3.17
472.475	3.18
472.827	3.2
473.178	3.22
473.53	3.22
473.882	3.22
474.233	3.21
474.585	3.2
474.936	3.19
475.288	3.18
475.639	3.19
475.99	3.17
476.342	3.18
476.693	3.18
477.044	3.17
477.395	3.15
477.746	3.16
478.097	3.14
478.448	3.13
478.8	3.14
479.15	3.11
479.501	3.09
479.852	3.08
480.203	3.06
480.554	3.05
480.905	3.06
481.255	3.07
481.606	3.07
481.957	3.07
482.307	3.07
482.658	3.06
483.009	3.06
483.359	3.07
483.709	3.08
484.06	3.07
484.41	3.08
484.761	3.1
485.111	3.09
485.461	3.09
485.811	3.09
486.162	3.09
486.512	3.09
486.862	3.08
487.212	3.08
487.562	3.09
487.912	3.1
488.262	3.1
488.612	3.1
488.961	3.1
489.311	3.11
489.661	3.11
490.011	3.11
490.36	3.11
490.71	3.1
491.06	3.1
491.409	3.1
491.759	3.11
492.108	3.1
492.458	3.11
492.807	3.12
493.157	3.14
493.506	3.15
493.855	3.17
494.204	3.19
494.554	3.21
494.903	3.23
495.252	3.21
495.601	3.22
495.95	3.22
496.299	3.24
496.648	3.27
496.997	3.28
497.346	3.32
497.695	3.36
498.043	3.4
498.392	3.43
498.741	3.47
499.09	3.5
499.438	3.54
499.787	3.57
500.135	3.61
500.484	3.62
500.832	3.65
501.181	3.71
501.529	3.79
501.878	3.84
502.226	3.88
502.574	3.97
502.923	3.99
503.271	4.07
503.619	4.14
503.967	4.19
504.315	4.27
504.663	4.36
505.011	4.42
505.359	4.47
505.707	4.54
506.055	4.61
506.403	4.69
506.751	4.76
507.098	4.85
507.446	4.94
507.794	5.04
508.141	5.13
508.489	5.23
508.837	5.29
509.184	5.38
509.531	5.45
509.879	5.54
510.226	5.66
510.574	5.74
510.921	5.81
511.268	5.92
511.616	6.01
511.963	6.07
512.31	6.19
512.657	6.3
513.004	6.41
513.351	6.54
513.698	6.66
514.045	6.78
514.392	6.9
514.739	7.04
515.086	7.14
515.432	7.26
515.779	7.37
516.126	7.5
516.473	7.59
516.819	7.72
517.166	7.83
517.512	7.92
517.859	8.03
518.205	8.11
518.552	8.21
518.898	8.31
519.245	8.41
519.591	8.5
519.937	8.57
520.283	8.67
520.629	8.76
520.976	8.87
521.322	8.99
521.668	9.08
522.014	9.18
522.36	9.32
522.706	9.46
523.052	9.62
523.398	9.75
523.743	9.9
524.089	10.06
524.435	10.18
524.781	10.33
525.126	10.42
525.472	10.56
525.817	10.68
526.163	10.8
526.509	10.89
526.854	10.99
527.199	11.11
527.545	11.2
527.89	11.31
528.235	11.4
528.581	11.5
528.926	11.61
529.271	11.71
529.616	11.81
529.961	11.91
530.306	12.01
530.651	12.14
530.996	12.26
531.341	12.37
531.686	12.54
532.031	12.66
532.376	12.82
532.721	12.99
533.065	13.13
533.41	13.28
533.755	13.45
534.099	13.6
534.444	13.79
534.788	13.95
535.133	14.11
535.477	14.28
535.822	14.47
536.166	14.68
536.51	14.91
536.855	15.14
537.199	15.37
537.543	15.62
537.887	15.88
538.231	16.15
538.576	16.42
538.92	16.62
539.264	16.87
539.608	17.11
539.951	17.29
540.295	17.53
540.639	17.73
540.983	17.96
541.327	18.18
541.671	18.39
542.014	18.62
542.358	18.83
542.701	19.06
543.045	19.27
543.389	19.49
543.732	19.71
544.075	19.94
544.419	20.17
544.762	20.37
545.105	20.59
545.449	20.83
545.792	21.11
546.135	21.42
546.478	21.75
546.821	22.07
547.165	22.41
547.508	22.71
547.851	23.05
548.194	23.35
548.536	23.69
548.879	24.02
549.222	24.33
549.565	24.67
549.908	25
550.25	25.34
550.593	25.68
550.936	26.03
551.278	26.39
551.621	26.72
551.963	27.14
552.306	27.5
552.648	27.84
552.991	28.19
553.333	28.5
553.675	28.82
554.017	29.13
554.36	29.45
554.702	29.77
555.044	30.09
555.386	30.4
555.728	30.69
556.07	30.98
556.412	31.3
556.754	31.65
557.096	31.95
557.438	32.32
557.78	32.6
558.121	32.93
558.463	33.26
558.805	33.62
559.147	33.9
559.488	34.24
559.83	34.57
560.171	34.83
560.513	35.16
560.854	35.45
561.196	35.76
561.537	36.11
561.878	36.44
562.22	36.72
562.561	37.07
562.902	37.4
563.243	37.71
563.584	38.01
563.925	38.31
564.266	38.53
564.607	38.78
564.948	39.06
565.289	39.28
565.63	39.48
565.971	39.77
566.312	40.01
566.653	40.31
566.993	40.56
567.334	40.87
567.675	41.06
568.015	41.34
568.356	41.58
568.696	41.8
569.037	42.01
569.377	42.28
569.718	42.5
570.058	42.68
570.398	42.89
570.739	43.12
571.079	43.29
571.419	43.54
571.759	43.7
572.099	43.91
572.439	44.14
572.779	44.41
573.119	44.52
573.459	44.68
573.799	44.78
574.139	44.88
574.479	45
574.819	45.25
575.158	45.41
575.498	45.61
575.838	45.79
576.177	45.94
576.517	46.12
576.856	46.3
577.196	46.54
577.535	46.67
577.875	46.78
578.214	47.01
578.553	47.19
578.893	47.49
579.232	47.71
579.571	47.83
579.91	47.97
580.25	48.21
580.589	48.33
580.928	48.55
581.267	48.82
581.606	48.95
581.945	49.03
582.283	49.17
582.622	49.3
582.961	49.39
583.3	49.53
583.639	49.65
583.977	49.81
584.316	49.9
584.654	50.15
584.993	50.28
585.332	50.43
585.67	50.58
586.008	50.61
586.347	50.68
586.685	50.78
587.024	50.98
587.362	51.11
587.7	51.25
588.038	51.34
588.376	51.46
588.715	51.7
589.053	51.84
589.391	51.92
589.729	51.95
590.067	52.14
590.404	52.23
590.742	52.31
591.08	52.45
591.418	52.56
591.756	52.57
592.093	52.74
592.431	52.82
592.769	52.91
593.106	53.03
593.444	53.14
593.781	53.26
594.119	53.25
594.456	53.26
594.793	53.41
595.131	53.54
595.468	53.54
595.805	53.57
596.143	53.66
596.48	53.72
596.817	53.82
597.154	53.8
597.491	53.94
597.828	54.09
598.165	54.12
598.502	54.21
598.839	54.31
599.176	54.39
599.512	54.52
599.849	54.57
600.186	54.59
600.523	54.7
600.859	54.82
601.196	54.86
601.532	54.97
601.869	55.02
602.205	55.14
602.542	55.2
602.878	55.27
603.215	55.31
603.551	55.41
603.887	55.55
604.223	55.63
604.56	55.68
604.896	55.74
605.232	55.78
605.568	55.76
605.904	55.81
606.24	55.91
606.576	55.91
606.912	55.91
607.248	56.05
607.583	56.1
607.919	56.15
608.255	56.27
608.591	56.36
608.926	56.49
609.262	56.44
609.597	56.55
609.933	56.58
610.268	56.63
610.604	56.64
610.939	56.63
611.275	56.7
611.61	56.81
611.945	56.81
612.281	56.86
612.616	56.94
612.951	56.97
613.286	57
613.621	56.97
613.956	57.1
614.291	57.18
614.626	57.17
614.961	57.23
615.296	57.21
615.631	57.19
615.966	57.21
616.3	57.31
616.635	57.24
616.97	57.24
617.304	57.25
617.639	57.36
617.973	57.35
618.308	57.35
618.642	57.26
618.977	57.26
619.311	57.2
619.646	57.33
619.98	57.4
620.314	57.26
620.648	57.47
620.983	57.48
621.317	57.42
621.651	57.46
621.985	57.52
622.319	57.61
622.653	57.71
622.987	57.74
623.321	57.76
623.655	57.86
623.988	57.93
624.322	58
624.656	58.03
624.99	58.11
625.323	58.2
625.657	58.18
625.99	58.22
626.324	58.28
626.657	58.22
626.991	58.32
627.324	58.39
627.658	58.31
627.991	58.33
628.324	58.31
628.657	58.31
628.991	58.29
629.324	58.2
629.657	58.21
629.99	58.22
630.323	58.27
630.656	58.32
630.989	58.33
631.322	58.38
631.655	58.51
631.987	58.5
632.32	58.52
632.653	58.59
632.986	58.6
633.318	58.71
633.651	58.82
633.984	58.76
634.316	58.77
634.649	58.77
634.981	58.85
635.313	58.98
635.646	59
635.978	58.97
636.31	59.09
636.643	59.09
636.975	59.07
637.307	59.03
637.639	59.12
637.971	59.18
638.303	59.04
638.635	58.87
638.967	58.93
639.299	58.89
639.631	58.93
639.963	58.94
640.295	58.87
640.626	58.86
640.958	58.98
641.29	59.21
641.621	59.31
641.953	59.25
642.285	59.28
642.616	59.34
642.948	59.44
643.279	59.63
643.61	59.75
643.942	59.65
644.273	59.65
644.604	59.6
644.936	59.56
645.267	59.77
645.598	59.8
645.929	59.8
646.26	59.79
646.591	59.76
646.922	59.81
647.253	59.85
647.584	59.77
647.915	59.72
648.245	59.64
648.576	59.47
648.907	59.54
649.238	59.53
649.568	59.6
649.899	59.66
650.229	59.65
650.56	59.48
650.89	59.56
651.221	59.64
651.551	59.63
651.882	59.71
652.212	59.71
652.542	59.72
652.872	59.73
653.203	59.75
653.533	59.8
653.863	59.95
654.193	60.06
654.523	60.17
654.853	60.28
655.183	60.27
655.513	60.44
655.843	60.53
656.172	60.5
656.502	60.43
656.832	60.42
657.162	60.28
657.491	60.5
657.821	60.61
658.15	60.59
658.48	60.64
658.809	60.61
659.139	60.62
659.468	60.62
659.798	60.66
660.127	60.61
660.456	60.54
660.785	60.47
661.115	60.4
661.444	60.46
661.773	60.42
662.102	60.43
662.431	60.45
662.76	60.39
663.089	60.42
663.418	60.42
663.747	60.35
664.076	60.47
664.404	60.32
664.733	60.28
665.062	60.33
665.39	60.34
665.719	60.34
666.048	60.35
666.376	60.39
666.705	60.26
667.033	60.31
667.362	60.44
667.69	60.38
668.018	60.34
668.347	60.28
668.675	60.27
669.003	60.29
669.331	60.31
669.659	60.32
669.987	60.23
670.315	60.24
670.643	60.35
670.971	60.29
671.299	60.32
671.627	60.31
671.955	60.35
672.283	60.31
672.61	60.28
672.938	60.29
673.266	60.26
673.593	60.39
673.921	60.46
674.249	60.37
674.576	60.44
674.904	60.57
675.231	60.59
675.558	60.62
675.886	60.63
676.213	60.58
676.54	60.53
676.867	60.49
677.195	60.57
677.522	60.58
677.849	60.56
678.176	60.54
678.503	60.64
678.83	60.42
679.157	60.44
679.484	60.52
679.81	60.55
680.137	60.7
680.464	60.92
680.791	60.96
681.117	61.1
681.444	61.07
681.771	61.08
682.097	61.08
682.424	61.11
682.75	61.18
683.077	61.36
683.403	61.45
683.729	61.58
684.056	61.72
684.382	61.7
684.708	61.83
685.034	61.91
685.36	61.91
685.686	62.04
686.012	62.02
686.339	62.13
686.664	62.06
686.99	62.11
687.316	61.82
687.642	61.79
687.968	61.77
688.294	61.84
688.619	61.89
688.945	61.96
689.271	61.86
689.596	61.84
689.922	61.69
690.247	61.51
690.573	61.54
690.898	61.57
691.224	61.59
691.549	61.4
691.874	61.32
692.2	61.33
692.525	61.47
692.85	61.56
693.175	61.55
693.5	61.74
693.825	61.65
694.15	61.78
694.475	61.88
694.8	61.89
695.125	61.87
695.45	61.79
695.775	61.87
696.099	62.11
696.424	62.14
696.749	62.24
697.073	62.46
697.398	62.39
697.723	62.25
698.047	62.14
698.372	62.24
698.696	62.32
699.02	62.52
699.345	62.44
699.669	62.21
699.993	62.14
700.318	62.03
700.642	62.07
700.966	61.99
701.29	62.02
701.614	62.08
701.938	62.2
702.262	62.19
702.586	62
702.91	61.72
703.234	61.7
703.557	61.45
703.881	61.28
704.205	61.2
704.529	61.21
704.852	61.47
705.176	61.61
705.499	61.61
705.823	61.45
706.146	61.5
706.47	62.07
706.793	62.1
707.117	62.26
707.44	62.25
707.763	62.22
708.086	62.28
708.409	62.11
708.733	61.91
709.056	61.82
709.379	62.14
709.702	62.29
710.025	62.21
710.348	62.45
710.671	62.48
710.993	62.81
711.316	62.82
711.639	62.85
711.962	62.94
712.284	63.07
712.607	62.72
712.93	62.83
713.252	62.66
713.575	62.89
713.897	62.84
714.22	62.68
714.542	62.82
714.864	62.8
715.187	62.93
715.509	63.21
715.831	63.25
716.153	63.19
716.475	63.23
716.798	63.41
717.12	63.4
717.442	63.6
717.764	63.19
718.085	63.54
718.407	63.3
718.729	63.25
719.051	63.12
719.373	63.35
719.695	63.54
720.016	63.27
720.338	63.24
720.659	63.2
720.981	63.29
721.302	63.38
721.624	63.17
721.945	63.03
722.267	62.91
722.588	63.13
722.909	63.14
723.231	62.96
723.552	62.71
723.873	62.77
724.194	62.8
724.515	63.28
724.836	62.83
725.157	62.84
725.478	62.83
725.799	62.95
726.12	63.12
726.441	63.19
726.762	63.37
727.083	63.38
727.403	63.31
727.724	63.38
728.045	63.09
728.365	63.23
728.686	63.12
729.006	62.99
729.327	63.05
729.647	62.82
729.967	62.8
730.288	63.03
730.608	63.11
730.928	62.99
731.249	62.77
731.569	62.73
731.889	62.97
732.209	62.71
732.529	62.6
732.849	62.48
733.169	62.12
733.489	62.16
733.809	61.93
734.129	61.93
734.448	61.86
734.768	62.22
735.088	62.26
735.408	62.56
735.727	62.54
736.047	62.31
736.366	62.43
736.686	62.77
737.005	62.54
737.325	62.61
737.644	62.64
737.963	62.6
738.283	62.63
738.602	62.43
738.921	62.35
739.24	62.09
739.56	62.18
739.879	62.29
740.198	62.24
740.517	62.43
740.836	62.56
741.155	62.47
741.473	62.05
741.792	62.15
742.111	61.98
742.43	62.07
742.748	61.95
743.067	61.86
743.386	61.74
743.704	61.8
744.023	61.7
744.341	61.76
744.66	62.15
744.978	62.11
745.297	62.02
745.615	62.5
745.933	63.13
746.252	63.11
746.57	63.52
746.888	63.45
747.206	63.49
747.524	63.51
747.842	63.78
748.16	64.12
748.478	63.94
748.796	63.54
749.114	63.68
749.432	63.73
749.749	63.54
750.067	63.27
750.385	63.64
750.703	63.53
751.02	63.81
751.338	63.57
751.655	63.99
751.973	64.08
752.29	63.7
752.608	62.98
752.925	63.24
753.242	62.95
753.56	63.14
753.877	63.11
754.194	63.01
754.511	63.16
754.828	63.63
755.145	63.84
755.462	64.33
755.779	64.36
756.096	64.8
756.413	64.83
756.73	64.65
757.047	64.2
757.364	64.18
757.68	63.92
757.997	63.75
758.314	63.6
758.63	63.91
758.947	63.94
759.264	64.13
759.58	64.35
759.896	63.98
760.213	63.82
760.529	63.55
760.846	63.73
761.162	63.87
761.478	63.34
761.794	63.07
762.11	63.22
762.426	63.35
762.743	63.24
763.059	63.32
763.375	63.58
763.69	63.55
764.006	63.76
764.322	63.56
764.638	63.85
764.954	63.54
765.27	63.42
765.585	63.55
765.901	63.93
766.216	63.42
766.532	63.76
766.848	64.02
767.163	64.09
767.478	64.23
767.794	63.81
768.109	64.13
768.424	64.31
768.74	64.35
769.055	63.99
769.37	64.07
769.685	64.42
770	64.6
770.315	64.9
770.63	65.05
770.945	65.73
771.26	65.44
771.575	65.49
771.89	65.44
772.205	65.39
772.52	64.92
772.834	65.1
773.149	65.1
773.464	64.82
773.778	64.48
774.093	63.87
774.407	64.28
774.722	63.88
775.036	63.61
775.351	63.72
775.665	64.44
775.979	64.44
776.293	64.68
776.608	64.5
776.922	64.47
777.236	64.04
777.55	63.76
777.864	64.21
778.178	64.84
778.492	65.19
778.806	65.2
779.12	65.6
779.434	65.7
779.747	65.64
780.061	66.26
780.375	66.66
780.689	66.58
781.002	66
781.316	65.97
781.629	65.99
781.943	65.8
782.256	65.07
782.57	65.01
782.883	64.93
783.196	65
783.51	64.86
783.823	64.83
784.136	64.88
784.449	64.8
784.762	64.86
785.075	64.46
785.388	64.31
785.701	64.37
786.014	64.06
786.327	64.41
786.64	64.05
786.953	63.76
787.266	64.7
787.578	65.45
787.891	66.06
788.204	66.15
788.516	65.99
788.829	66.11
789.141	66.18
789.454	65.98
789.766	65.93
790.079	65.29
790.391	65.08
790.703	65.17
791.016	64.69
791.328	64.44
791.64	63.96
791.952	64.28
792.264	63.89
792.576	64.2
792.888	63.77
793.2	63.54
793.512	63.49
793.824	63.18
794.136	63.34
794.448	63.13
794.76	63.07
795.071	62.88
795.383	63.02
795.695	62.68
796.006	62.43
796.318	62.31
796.629	62.8
796.941	62.95
797.252	62.32
797.564	62.27
797.875	62.56
798.186	62.83
798.497	62.72
798.809	63.13
799.12	63.03
799.431	63.36
799.742	63.68
800.053	63.66
800.364	63.24
800.675	63.17
800.986	62.8
801.297	62.93
801.608	63.05
801.918	63.2
802.229	63.22
802.54	62.93
802.851	63.33
803.161	63.92
803.472	64.33
803.782	65.01
804.093	64.95
804.403	64.11
804.714	64.28
805.024	64.18
805.334	64.22
805.645	64.84
805.955	63.84
806.265	63.71
806.575	64.06
806.885	63.53
807.195	62.79
807.505	62.9
807.815	63.09
808.125	63.68
808.435	63.8
808.745	63.75
809.055	63.36
809.365	62.83
809.674	62.71
809.984	62.38
810.294	62.24
810.603	61.94
810.913	63
811.222	62.63
811.532	62.86
811.841	62.31
812.151	61.62
812.46	61.49
812.769	61.87
813.079	62.61
813.388	63.62
813.697	64.2
814.006	63.73
814.315	62.85
814.624	63.44
814.933	62.43
815.242	64.25
815.551	64.85
815.86	64.67
816.169	63.72
816.478	63.55
816.786	63.69
817.095	64.47
817.404	64.08
817.712	64.78
818.021	64.47
818.33	64.55
818.638	64.99
818.947	65.1
819.255	64.25
819.563	64.53
819.872	63.93
820.18	63.85
820.488	63.61
820.796	63.93
821.105	63.61
821.413	64.12
821.721	63.89
822.029	64.04
822.337	64.49
822.645	64.71
822.953	64.81
823.26	64.64
823.568	64.56
823.876	64.65
824.184	64.62
824.491	64.74
824.799	64.69
825.107	64.75
825.414	64.95
825.722	64.97
826.029	64.68
826.337	64.96
826.644	65.09
826.951	65.46
827.259	65.68
827.566	65.86
827.873	65.72
828.18	65.63
828.488	65.7
828.795	65.57
829.102	65.48
829.409	65.65
829.716	66.06
830.023	66.63
830.329	66.76
830.636	66.36
830.943	66.46
831.25	66.41
831.557	66.19
831.863	65.85
832.17	65.99
832.476	66.05
832.783	66.02
833.089	65.88
833.396	65.77
833.702	65.72
834.009	65.6
834.315	65.64
834.621	65.84
834.928	65.3
835.234	64.42
835.54	65.16
835.846	65.21
836.152	64.96
836.458	64.58
836.764	64.26
837.07	64.62
837.376	64.61
837.682	64.85
837.988	64.83
838.293	65.19
838.599	65.92
838.905	65.8
839.211	66.39
839.516	65.76
839.822	66.22
840.127	66.21
840.433	66.21
840.738	66.39
841.044	66.32
841.349	67.27
841.654	69.04
841.959	67.78
842.265	66.51
842.57	65.8
842.875	65.27
843.18	64.68
843.485	64.65
843.79	63.36
844.095	63.45
844.4	63.12
844.705	63.8
845.01	62.7
845.315	63.88
845.619	63.45
845.924	65.52
846.229	65.04
846.533	63.21
846.838	62.27
847.142	61.65
847.447	60.99
847.751	60.7
848.056	59.14
848.36	60.08
848.664	61.06
848.969	62.7
849.273	62.65
849.577	64.02
849.881	64.25
850.185	66.41
850.489	65.59
850.794	66.07
851.097	64.26
851.401	66.47
851.705	64.88
852.009	63.37
852.313	60.8
852.617	59.1
852.92	60.86
853.224	64.83
853.528	64.88
853.831	64.65
854.135	66.18
854.438	66.17
854.742	65.93
855.045	65.57
855.349	64.27
855.652	64.92
855.955	63.49
856.259	64.62
856.562	65.99
856.865	66.52
857.168	67.08
857.471	71.15
857.774	70.12
858.077	70.32
858.38	73.63
858.683	75.56
858.986	77.1
859.289	77.51
859.592	74.27
859.894	74.77
860.197	75
860.5	71.91
860.802	76.3
861.105	75.85
861.407	77.77
861.71	79.13
862.012	77.54
862.315	79.99
862.617	81.03
862.919	77.54
863.222	78.02
863.524	77.81
863.826	70.04
864.128	66.67
864.43	68.11
864.732	68.11
865.034	67.6
865.336	68.98
865.638	67.42
865.94	66.05
866.242	64.61
866.544	65.81
866.846	68.47
867.147	65.78
867.449	66.27
867.751	64.19
868.052	63.23
868.354	65.62
868.655	67.63
868.957	67.26
869.258	70.64
869.56	71.38
869.861	71.05
870.162	70.31
870.463	73.02
870.765	72.07
871.066	68.87
871.367	70.44
871.668	71.11
871.969	73.46
872.27	73.24
872.571	76.69
872.872	76.15
873.173	76.84
873.473	75.92
873.774	72.54
874.075	72.01
874.376	74.37
874.676	70.3
874.977	65.14
875.277	64.98
875.578	62.6
875.878	62.44
876.179	62.08
876.479	68.56
876.78	69.03
877.08	69.87
877.38	70.19
877.68	67.38
877.981	64.83
878.281	62.62
878.581	65.34
