Data from MVZ_BU147393_Reflection_00004.txt Node
Date: Tue Nov 19 12:06:54 EST 2019
User: vgr7
Spectrometer: USB2G7710
Scans to average: 3
Trigger mode: 4
Integration Time (sec): 2.000000E-2
Electric dark correction enabled: true
Boxcar width: 10
XAxis mode: Wavelengths
Number of Pixels in Spectrum: 2048
>>>>>Begin Spectral Data<<<<<
177.721	-85.96
178.105	-8650
178.488	-157.87
178.871	-53.13
179.254	-345.45
179.636	-101.2
180.019	-33.09
180.402	-100
180.785	118.18
181.168	204.37
181.55	-503.45
181.933	-43.44
182.316	-85.27
182.698	-200.88
183.081	-111.74
183.463	-71.87
183.846	-253.98
184.228	-130.54
184.611	-185.71
184.993	-330.77
185.376	3725
185.758	29600
186.14	1400
186.522	299.15
186.904	2060
187.287	4100
187.669	315.38
188.051	350
188.433	161.07
188.815	165.02
189.197	115.44
189.579	77.08
189.961	58.17
190.342	20.7
190.724	27.84
191.106	9.9
191.488	21.59
191.869	17.01
192.251	25.64
192.633	21.83
193.014	22.5
193.396	33.61
193.777	37.07
194.159	30.11
194.54	27.19
194.922	11.54
195.303	7.14
195.684	-0.09
196.065	5.99
196.447	7.61
196.828	4.86
197.209	1.13
197.59	-5.82
197.971	3.1
198.352	11.13
198.733	0.82
199.114	-13.76
199.495	-22.82
199.876	-16.24
200.257	-19.26
200.638	-0.43
201.018	6.72
201.399	16.5
201.78	2.68
202.16	1.83
202.541	16.73
202.922	16.73
203.302	16.73
203.683	16.73
204.063	22.54
204.444	21.91
204.824	24.2
205.204	30.79
205.585	38.67
205.965	39.48
206.345	41.48
206.725	40.34
207.106	51.82
207.486	45.33
207.866	39.64
208.246	44.13
208.626	26.5
209.006	20.45
209.386	23.1
209.766	22.69
210.145	22.01
210.525	20.98
210.905	29.84
211.285	34.75
211.664	49.39
212.044	45.63
212.424	41.9
212.803	33.39
213.183	28.77
213.562	24.88
213.942	5.48
214.321	10.54
214.701	-0.4
215.08	-15.07
215.459	0.89
215.838	-22.74
216.218	-74.53
216.597	-5.93
216.976	14.34
217.355	-59.92
217.734	-7.95
218.113	6.17
218.492	9.09
218.871	0.99
219.25	24.9
219.629	-3.86
220.008	-16.52
220.387	-47.3
220.766	-0.76
221.144	4.45
221.523	-16.76
221.902	-14.53
222.28	-23.73
222.659	21.29
223.037	39.88
223.416	25.95
223.794	33.53
224.173	15
224.551	8.76
224.929	-8.79
225.308	-5.36
225.686	-11.14
226.064	-11.4
226.442	-8.01
226.821	-4.05
227.199	-8.65
227.577	-8.46
227.955	-0.79
228.333	1.01
228.711	1.87
229.089	-3.88
229.467	0.21
229.845	2.29
230.222	2.92
230.6	0.7
230.978	1.82
231.356	-0.14
231.733	0.59
232.111	1.96
232.488	1.73
232.866	6.55
233.243	5.46
233.621	7.11
233.998	8.43
234.376	8.63
234.753	8.76
235.13	9.99
235.508	9.79
235.885	6.99
236.262	6.95
236.639	5.8
237.016	7.64
237.393	7.54
237.77	7.87
238.147	7.42
238.524	8.08
238.901	6.26
239.278	6.44
239.655	4.97
240.032	5.89
240.409	6.71
240.785	6.13
241.162	6.27
241.539	5.96
241.915	5.06
242.292	4.53
242.668	4.51
243.045	4.58
243.421	5.13
243.798	5.54
244.174	5.89
244.551	5.57
244.927	5.64
245.303	5.23
245.679	5.05
246.056	4.97
246.432	4.84
246.808	5.04
247.184	5.39
247.56	5.62
247.936	5.52
248.312	5.43
248.688	5.4
249.064	5.6
249.44	5.56
249.815	5.8
250.191	5.88
250.567	5.84
250.943	5.82
251.318	5.84
251.694	5.56
252.069	5.35
252.445	5.68
252.82	5.8
253.196	6.07
253.571	6.25
253.947	6.57
254.322	6.61
254.697	6.94
255.073	6.53
255.448	6.29
255.823	6.09
256.198	5.67
256.573	5.59
256.948	5.55
257.323	5.6
257.698	5.36
258.073	5.16
258.448	5.06
258.823	4.81
259.198	4.69
259.573	4.51
259.948	4.58
260.322	4.39
260.697	4.17
261.072	4.31
261.446	4.4
261.821	4.32
262.195	4.35
262.57	4.13
262.944	4.24
263.319	4.42
263.693	4.48
264.067	4.61
264.442	4.71
264.816	4.6
265.19	4.6
265.564	4.59
265.938	4.81
266.313	4.67
266.687	4.85
267.061	4.92
267.435	5.17
267.809	5.15
268.183	5.25
268.556	5.47
268.93	5.1
269.304	4.88
269.678	4.96
270.051	5.03
270.425	5.02
270.799	4.81
271.172	4.73
271.546	4.76
271.919	4.72
272.293	4.74
272.666	4.73
273.04	4.72
273.413	4.83
273.787	4.73
274.16	4.88
274.533	5.05
274.906	4.86
275.279	4.85
275.653	4.91
276.026	4.96
276.399	4.82
276.772	4.92
277.145	4.76
277.518	4.54
277.891	4.35
278.263	4.47
278.636	4.4
279.009	4.19
279.382	3.99
279.755	3.92
280.127	3.76
280.5	3.63
280.872	3.72
281.245	3.72
281.617	3.68
281.99	3.59
282.362	3.56
282.735	3.75
283.107	3.87
283.479	3.7
283.852	3.64
284.224	3.65
284.596	3.66
284.968	3.73
285.34	3.75
285.713	3.97
286.085	3.99
286.457	4.07
286.829	4.09
287.201	4.25
287.572	4.4
287.944	4.34
288.316	4.43
288.688	4.44
289.06	4.32
289.431	4.28
289.803	4.32
290.175	4.11
290.546	4.15
290.918	4.05
291.289	3.99
291.661	4.11
292.032	4.28
292.403	4.2
292.775	4.33
293.146	4.42
293.517	4.17
293.889	4.14
294.26	4.17
294.631	4.43
295.002	4.43
295.373	4.24
295.744	4.22
296.115	4.27
296.486	4.24
296.857	4.34
297.228	4.45
297.599	4.57
297.97	4.72
298.34	4.66
298.711	4.7
299.082	4.89
299.452	4.74
299.823	4.6
300.194	4.77
300.564	4.69
300.935	4.65
301.305	4.69
301.676	4.74
302.046	4.81
302.416	4.71
302.787	4.62
303.157	4.58
303.527	4.89
303.897	4.74
304.267	4.69
304.637	4.75
305.008	4.64
305.378	4.57
305.748	4.64
306.117	4.44
306.487	4.37
306.857	4.31
307.227	4.45
307.597	4.45
307.967	4.27
308.336	4.31
308.706	4.29
309.076	4.42
309.445	4.47
309.815	4.38
310.184	4.21
310.554	4.29
310.923	4.51
311.293	4.37
311.662	4.42
312.031	4.55
312.401	4.51
312.77	4.56
313.139	4.54
313.508	4.45
313.877	4.59
314.246	4.52
314.616	4.38
314.985	4.24
315.353	4.26
315.722	4.45
316.091	4.36
316.46	4.45
316.829	4.44
317.198	4.44
317.567	4.5
317.935	4.5
318.304	4.5
318.672	4.42
319.041	4.47
319.41	4.36
319.778	4.13
320.147	4.1
320.515	4.15
320.883	3.99
321.252	4.07
321.62	3.94
321.988	4.06
322.357	4.03
322.725	4.08
323.093	4.07
323.461	3.97
323.829	4.08
324.197	4.06
324.565	4.17
324.933	3.91
325.301	3.74
325.669	3.93
326.037	3.99
326.405	3.98
326.772	3.92
327.14	3.89
327.508	3.89
327.875	3.83
328.243	3.76
328.61	3.87
328.978	3.82
329.346	3.97
329.713	3.98
330.08	4.12
330.448	4.15
330.815	4.23
331.182	4.16
331.55	4.03
331.917	3.94
332.284	3.81
332.651	3.82
333.018	3.95
333.385	3.91
333.752	3.82
334.119	3.77
334.486	3.81
334.853	3.83
335.22	3.77
335.587	3.75
335.954	3.69
336.32	3.68
336.687	3.68
337.054	3.69
337.42	3.61
337.787	3.59
338.153	3.76
338.52	3.72
338.886	3.7
339.253	3.71
339.619	3.86
339.986	3.87
340.352	4.02
340.718	3.99
341.084	4.11
341.451	4.09
341.817	4.11
342.183	4.02
342.549	4.14
342.915	4.19
343.281	4.24
343.647	4.29
344.013	4.3
344.379	4.19
344.745	4.17
345.11	4.19
345.476	4.17
345.842	3.96
346.208	3.97
346.573	4.02
346.939	4.11
347.304	4.12
347.67	4.02
348.035	3.99
348.401	4.02
348.766	3.89
349.132	3.92
349.497	4.02
349.862	4.05
350.228	4.01
350.593	4
350.958	3.98
351.323	3.93
351.688	4.02
352.053	4.03
352.418	4.08
352.783	4.07
353.148	4.03
353.513	4.05
353.878	4.01
354.243	3.92
354.608	3.88
354.972	3.82
355.337	3.84
355.702	3.79
356.066	3.73
356.431	3.68
356.795	3.58
357.16	3.44
357.524	3.44
357.889	3.49
358.253	3.51
358.618	3.54
358.982	3.49
359.346	3.39
359.71	3.43
360.075	3.4
360.439	3.46
360.803	3.53
361.167	3.54
361.531	3.48
361.895	3.51
362.259	3.55
362.623	3.55
362.987	3.56
363.351	3.58
363.714	3.62
364.078	3.64
364.442	3.66
364.806	3.78
365.169	3.89
365.533	3.88
365.896	3.91
366.26	3.9
366.623	3.99
366.987	4.03
367.35	4.1
367.714	4.09
368.077	4.1
368.44	4.06
368.803	4.04
369.167	4.17
369.53	4.27
369.893	4.23
370.256	4.25
370.619	4.22
370.982	4.13
371.345	4.18
371.708	4.21
372.071	4.2
372.434	4.12
372.797	4.02
373.159	3.96
373.522	3.95
373.885	3.95
374.247	3.94
374.61	3.94
374.973	3.88
375.335	3.84
375.698	3.78
376.06	3.77
376.423	3.82
376.785	3.76
377.147	3.69
377.51	3.68
377.872	3.69
378.234	3.68
378.596	3.73
378.958	3.7
379.321	3.67
379.683	3.78
380.045	3.71
380.407	3.72
380.769	3.76
381.13	3.72
381.492	3.74
381.854	3.74
382.216	3.7
382.578	3.71
382.939	3.77
383.301	3.76
383.663	3.78
384.024	3.77
384.386	3.77
384.747	3.78
385.109	3.78
385.47	3.76
385.832	3.79
386.193	3.8
386.554	3.72
386.916	3.76
387.277	3.68
387.638	3.76
387.999	3.76
388.36	3.71
388.721	3.74
389.082	3.71
389.443	3.74
389.804	3.72
390.165	3.73
390.526	3.66
390.887	3.68
391.248	3.64
391.609	3.62
391.969	3.63
392.33	3.6
392.691	3.59
393.051	3.57
393.412	3.56
393.772	3.6
394.133	3.67
394.493	3.68
394.854	3.69
395.214	3.72
395.574	3.7
395.935	3.7
396.295	3.67
396.655	3.69
397.015	3.69
397.376	3.7
397.736	3.65
398.096	3.7
398.456	3.69
398.816	3.72
399.176	3.7
399.535	3.71
399.895	3.69
400.255	3.7
400.615	3.7
400.975	3.68
401.334	3.67
401.694	3.62
402.054	3.59
402.413	3.57
402.773	3.54
403.132	3.54
403.492	3.57
403.851	3.6
404.211	3.56
404.57	3.55
404.929	3.57
405.288	3.61
405.648	3.58
406.007	3.61
406.366	3.62
406.725	3.67
407.084	3.64
407.443	3.65
407.802	3.66
408.161	3.67
408.52	3.68
408.879	3.7
409.238	3.73
409.596	3.76
409.955	3.77
410.314	3.79
410.673	3.77
411.031	3.72
411.39	3.73
411.748	3.76
412.107	3.75
412.465	3.72
412.824	3.71
413.182	3.71
413.54	3.72
413.899	3.7
414.257	3.69
414.615	3.66
414.974	3.66
415.332	3.63
415.69	3.6
416.048	3.6
416.406	3.58
416.764	3.56
417.122	3.54
417.48	3.55
417.838	3.51
418.195	3.52
418.553	3.54
418.911	3.53
419.269	3.53
419.626	3.53
419.984	3.55
420.342	3.54
420.699	3.53
421.057	3.52
421.414	3.54
421.772	3.52
422.129	3.53
422.486	3.53
422.844	3.55
423.201	3.56
423.558	3.55
423.915	3.54
424.273	3.56
424.63	3.59
424.987	3.59
425.344	3.61
425.701	3.61
426.058	3.61
426.415	3.61
426.772	3.6
427.128	3.61
427.485	3.6
427.842	3.62
428.199	3.63
428.555	3.64
428.912	3.63
429.269	3.65
429.625	3.65
429.982	3.66
430.338	3.65
430.695	3.66
431.051	3.67
431.407	3.69
431.764	3.67
432.12	3.65
432.476	3.64
432.832	3.62
433.189	3.62
433.545	3.6
433.901	3.6
434.257	3.6
434.613	3.6
434.969	3.59
435.325	3.6
435.681	3.59
436.036	3.58
436.392	3.57
436.748	3.55
437.104	3.57
437.459	3.56
437.815	3.56
438.171	3.55
438.526	3.54
438.882	3.53
439.237	3.53
439.593	3.53
439.948	3.53
440.304	3.54
440.659	3.55
441.014	3.55
441.369	3.56
441.725	3.57
442.08	3.56
442.435	3.55
442.79	3.54
443.145	3.54
443.5	3.55
443.855	3.53
444.21	3.54
444.565	3.52
444.92	3.53
445.275	3.55
445.629	3.55
445.984	3.55
446.339	3.56
446.693	3.57
447.048	3.56
447.403	3.58
447.757	3.58
448.112	3.58
448.466	3.59
448.82	3.59
449.175	3.58
449.529	3.58
449.883	3.58
450.238	3.58
450.592	3.57
450.946	3.55
451.3	3.58
451.654	3.58
452.008	3.58
452.362	3.57
452.716	3.55
453.07	3.55
453.424	3.52
453.778	3.51
454.132	3.49
454.486	3.5
454.839	3.48
455.193	3.47
455.547	3.46
455.9	3.47
456.254	3.47
456.607	3.48
456.961	3.46
457.314	3.47
457.668	3.5
458.021	3.48
458.375	3.49
458.728	3.48
459.081	3.5
459.434	3.51
459.787	3.54
460.141	3.54
460.494	3.55
460.847	3.58
461.2	3.59
461.553	3.6
461.906	3.6
462.259	3.6
462.611	3.62
462.964	3.62
463.317	3.61
463.67	3.63
464.022	3.63
464.375	3.65
464.728	3.66
465.08	3.65
465.433	3.68
465.785	3.69
466.138	3.7
466.49	3.7
466.843	3.7
467.195	3.69
467.547	3.66
467.899	3.65
468.252	3.65
468.604	3.63
468.956	3.63
469.308	3.63
469.66	3.64
470.012	3.61
470.364	3.62
470.716	3.65
471.068	3.64
471.42	3.66
471.772	3.65
472.123	3.64
472.475	3.65
472.827	3.65
473.178	3.63
473.53	3.62
473.882	3.62
474.233	3.61
474.585	3.61
474.936	3.62
475.288	3.62
475.639	3.62
475.99	3.61
476.342	3.61
476.693	3.61
477.044	3.62
477.395	3.62
477.746	3.61
478.097	3.59
478.448	3.57
478.8	3.57
479.15	3.58
479.501	3.58
479.852	3.57
480.203	3.57
480.554	3.59
480.905	3.59
481.255	3.58
481.606	3.59
481.957	3.57
482.307	3.57
482.658	3.58
483.009	3.58
483.359	3.59
483.709	3.59
484.06	3.59
484.41	3.59
484.761	3.6
485.111	3.6
485.461	3.59
485.811	3.6
486.162	3.6
486.512	3.61
486.862	3.6
487.212	3.6
487.562	3.6
487.912	3.59
488.262	3.6
488.612	3.6
488.961	3.6
489.311	3.61
489.661	3.61
490.011	3.61
490.36	3.61
490.71	3.62
491.06	3.62
491.409	3.62
491.759	3.63
492.108	3.63
492.458	3.65
492.807	3.66
493.157	3.66
493.506	3.66
493.855	3.67
494.204	3.68
494.554	3.69
494.903	3.69
495.252	3.71
495.601	3.72
495.95	3.72
496.299	3.74
496.648	3.75
496.997	3.77
497.346	3.77
497.695	3.77
498.043	3.77
498.392	3.75
498.741	3.74
499.09	3.74
499.438	3.77
499.787	3.75
500.135	3.75
500.484	3.72
500.832	3.73
501.181	3.71
501.529	3.74
501.878	3.74
502.226	3.75
502.574	3.75
502.923	3.74
503.271	3.75
503.619	3.74
503.967	3.74
504.315	3.74
504.663	3.75
505.011	3.76
505.359	3.75
505.707	3.79
506.055	3.8
506.403	3.8
506.751	3.78
507.098	3.81
507.446	3.84
507.794	3.88
508.141	3.87
508.489	3.9
508.837	3.87
509.184	3.87
509.531	3.88
509.879	3.89
510.226	3.89
510.574	3.89
510.921	3.9
511.268	3.92
511.616	3.94
511.963	3.93
512.31	3.94
512.657	3.97
513.004	3.95
513.351	3.98
513.698	3.98
514.045	4
514.392	3.99
514.739	3.98
515.086	3.97
515.432	3.97
515.779	3.96
516.126	4
516.473	4.01
516.819	3.99
517.166	4
517.512	4.01
517.859	4.03
518.205	4.02
518.552	4.02
518.898	4.02
519.245	4.04
519.591	4.04
519.937	4.04
520.283	4.06
520.629	4.05
520.976	4.07
521.322	4.07
521.668	4.07
522.014	4.08
522.36	4.09
522.706	4.12
523.052	4.13
523.398	4.13
523.743	4.15
524.089	4.15
524.435	4.14
524.781	4.13
525.126	4.1
525.472	4.09
525.817	4.08
526.163	4.07
526.509	4.05
526.854	4.05
527.199	4.06
527.545	4.06
527.89	4.06
528.235	4.05
528.581	4.05
528.926	4.05
529.271	4.03
529.616	4.03
529.961	4.03
530.306	4.02
530.651	4.01
530.996	3.99
531.341	4
531.686	4
532.031	4.01
532.376	4.03
532.721	4.05
533.065	4.05
533.41	4.04
533.755	4.06
534.099	4.06
534.444	4.05
534.788	4.04
535.133	4.05
535.477	4.04
535.822	4.04
536.166	4.03
536.51	4.06
536.855	4.05
537.199	4.04
537.543	4.06
537.887	4.07
538.231	4.07
538.576	4.06
538.92	4.08
539.264	4.07
539.608	4.06
539.951	4.07
540.295	4.09
540.639	4.11
540.983	4.12
541.327	4.12
541.671	4.13
542.014	4.16
542.358	4.16
542.701	4.16
543.045	4.16
543.389	4.17
543.732	4.16
544.075	4.18
544.419	4.18
544.762	4.18
545.105	4.17
545.449	4.19
545.792	4.23
546.135	4.21
546.478	4.23
546.821	4.25
547.165	4.24
547.508	4.24
547.851	4.24
548.194	4.2
548.536	4.2
548.879	4.16
549.222	4.15
549.565	4.13
549.908	4.14
550.25	4.13
550.593	4.14
550.936	4.13
551.278	4.13
551.621	4.14
551.963	4.19
552.306	4.21
552.648	4.18
552.991	4.16
553.333	4.18
553.675	4.17
554.017	4.14
554.36	4.14
554.702	4.12
555.044	4.1
555.386	4.14
555.728	4.15
556.07	4.18
556.412	4.19
556.754	4.2
557.096	4.19
557.438	4.22
557.78	4.19
558.121	4.19
558.463	4.17
558.805	4.19
559.147	4.15
559.488	4.13
559.83	4.15
560.171	4.15
560.513	4.2
560.854	4.19
561.196	4.18
561.537	4.19
561.878	4.24
562.22	4.23
562.561	4.24
562.902	4.24
563.243	4.24
563.584	4.25
563.925	4.28
564.266	4.26
564.607	4.27
564.948	4.32
565.289	4.36
565.63	4.37
565.971	4.39
566.312	4.4
566.653	4.41
566.993	4.37
567.334	4.36
567.675	4.32
568.015	4.31
568.356	4.33
568.696	4.31
569.037	4.28
569.377	4.29
569.718	4.27
570.058	4.27
570.398	4.29
570.739	4.25
571.079	4.24
571.419	4.27
571.759	4.24
572.099	4.21
572.439	4.19
572.779	4.2
573.119	4.16
573.459	4.14
573.799	4.12
574.139	4.15
574.479	4.19
574.819	4.22
575.158	4.24
575.498	4.25
575.838	4.27
576.177	4.26
576.517	4.28
576.856	4.29
577.196	4.32
577.535	4.34
577.875	4.36
578.214	4.34
578.553	4.32
578.893	4.35
579.232	4.35
579.571	4.36
579.91	4.34
580.25	4.36
580.589	4.38
580.928	4.41
581.267	4.39
581.606	4.36
581.945	4.32
582.283	4.32
582.622	4.33
582.961	4.33
583.3	4.38
583.639	4.37
583.977	4.39
584.316	4.38
584.654	4.36
584.993	4.32
585.332	4.35
585.67	4.37
586.008	4.39
586.347	4.43
586.685	4.43
587.024	4.42
587.362	4.4
587.7	4.41
588.038	4.43
588.376	4.5
588.715	4.49
589.053	4.49
589.391	4.45
589.729	4.48
590.067	4.48
590.404	4.42
590.742	4.43
591.08	4.43
591.418	4.49
591.756	4.47
592.093	4.49
592.431	4.52
592.769	4.5
593.106	4.44
593.444	4.39
593.781	4.36
594.119	4.38
594.456	4.4
594.793	4.38
595.131	4.35
595.468	4.32
595.805	4.38
596.143	4.41
596.48	4.42
596.817	4.37
597.154	4.39
597.491	4.42
597.828	4.41
598.165	4.42
598.502	4.35
598.839	4.37
599.176	4.38
599.512	4.34
599.849	4.37
600.186	4.39
600.523	4.46
600.859	4.48
601.196	4.5
601.532	4.5
601.869	4.52
602.205	4.53
602.542	4.52
602.878	4.49
603.215	4.52
603.551	4.53
603.887	4.54
604.223	4.5
604.56	4.52
604.896	4.57
605.232	4.52
605.568	4.5
605.904	4.51
606.24	4.54
606.576	4.57
606.912	4.53
607.248	4.55
607.583	4.54
607.919	4.55
608.255	4.57
608.591	4.58
608.926	4.54
609.262	4.53
609.597	4.53
609.933	4.54
610.268	4.5
610.604	4.5
610.939	4.5
611.275	4.55
611.61	4.52
611.945	4.5
612.281	4.55
612.616	4.61
612.951	4.63
613.286	4.61
613.621	4.61
613.956	4.66
614.291	4.7
614.626	4.7
614.961	4.68
615.296	4.7
615.631	4.74
615.966	4.82
616.3	4.88
616.635	4.95
616.97	4.97
617.304	4.94
617.639	4.97
617.973	4.97
618.308	5
618.642	5.03
618.977	4.97
619.311	4.97
619.646	4.94
619.98	4.93
620.314	4.95
620.648	4.88
620.983	4.88
621.317	4.86
621.651	4.87
621.985	4.9
622.319	4.87
622.653	4.85
622.987	4.82
623.321	4.8
623.655	4.72
623.988	4.71
624.322	4.72
624.656	4.7
624.99	4.68
625.323	4.67
625.657	4.69
625.99	4.71
626.324	4.67
626.657	4.68
626.991	4.67
627.324	4.63
627.658	4.71
627.991	4.72
628.324	4.74
628.657	4.72
628.991	4.67
629.324	4.69
629.657	4.69
629.99	4.63
630.323	4.63
630.656	4.61
630.989	4.58
631.322	4.59
631.655	4.59
631.987	4.65
632.32	4.65
632.653	4.64
632.986	4.62
633.318	4.65
633.651	4.65
633.984	4.67
634.316	4.68
634.649	4.64
634.981	4.63
635.313	4.66
635.646	4.72
635.978	4.84
636.31	4.84
636.643	4.82
636.975	4.88
637.307	4.88
637.639	4.98
637.971	5.02
638.303	5
638.635	4.97
638.967	4.95
639.299	4.94
639.631	4.96
639.963	4.99
640.295	5.02
640.626	5
640.958	4.98
641.29	5.05
641.621	5.05
641.953	5.04
642.285	5.02
642.616	5.04
642.948	4.98
643.279	5.01
643.61	5.06
643.942	5.09
644.273	5.13
644.604	5.03
644.936	5.06
645.267	5.07
645.598	5.18
645.929	5.2
646.26	5.19
646.591	5.21
646.922	5.2
647.253	5.12
647.584	5.13
647.915	5.17
648.245	5.11
648.576	5.1
648.907	5.14
649.238	5.04
649.568	5.04
649.899	5.05
650.229	5.01
650.56	4.92
650.89	4.96
651.221	4.93
651.551	4.96
651.882	4.93
652.212	5
652.542	4.98
652.872	4.92
653.203	4.87
653.533	4.86
653.863	4.88
654.193	4.9
654.523	4.95
654.853	4.98
655.183	5.01
655.513	5.07
655.843	5.09
656.172	5.18
656.502	5.06
656.832	5.05
657.162	5.02
657.491	5.09
657.821	4.98
658.15	5.04
658.48	5.07
658.809	5.06
659.139	5.03
659.468	5.05
659.798	5.1
660.127	5.14
660.456	5.08
660.785	5.15
661.115	5.16
661.444	5.21
661.773	5.24
662.102	5.15
662.431	5.13
662.76	5.08
663.089	5.08
663.418	5.18
663.747	5.19
664.076	5.27
664.404	5.29
664.733	5.41
665.062	5.41
665.39	5.42
665.719	5.4
666.048	5.36
666.376	5.38
666.705	5.36
667.033	5.38
667.362	5.47
667.69	5.43
668.018	5.51
668.347	5.42
668.675	5.33
669.003	5.45
669.331	5.4
669.659	5.38
669.987	5.47
670.315	5.47
670.643	5.41
670.971	5.41
671.299	5.45
671.627	5.45
671.955	5.45
672.283	5.42
672.61	5.45
672.938	5.53
673.266	5.47
673.593	5.46
673.921	5.51
674.249	5.45
674.576	5.5
674.904	5.41
675.231	5.42
675.558	5.52
675.886	5.61
676.213	5.66
676.54	5.76
676.867	5.67
677.195	5.74
677.522	5.76
677.849	5.74
678.176	5.73
678.503	5.66
678.83	5.63
679.157	5.66
679.484	5.68
679.81	5.58
680.137	5.7
680.464	5.75
680.791	5.71
681.117	5.74
681.444	5.76
681.771	5.91
682.097	5.92
682.424	5.86
682.75	5.8
683.077	5.83
683.403	5.89
683.729	5.88
684.056	5.75
684.382	5.79
684.708	5.75
685.034	5.7
685.36	5.76
685.686	5.73
686.012	5.74
686.339	5.73
686.664	5.82
686.99	5.65
687.316	5.61
687.642	5.67
687.968	5.73
688.294	5.63
688.619	5.59
688.945	5.58
689.271	5.53
689.596	5.63
689.922	5.56
690.247	5.54
690.573	5.5
690.898	5.6
691.224	5.66
691.549	5.76
691.874	5.8
692.2	5.8
692.525	5.83
692.85	5.96
693.175	6
693.5	5.95
693.825	6.1
694.15	6.06
694.475	5.9
694.8	5.84
695.125	5.96
695.45	5.89
695.775	5.93
696.099	6.01
696.424	6.01
696.749	6.06
697.073	5.91
697.398	5.92
697.723	5.93
698.047	5.84
698.372	5.87
698.696	5.86
699.02	5.89
699.345	6
699.669	5.94
699.993	5.93
700.318	6.02
700.642	6.02
700.966	6.08
701.29	6.26
701.614	6.24
701.938	6.33
702.262	6.26
702.586	6.3
702.91	6.3
703.234	6.12
703.557	6.12
703.881	6.32
704.205	6.38
704.529	6.43
704.852	6.53
705.176	6.58
705.499	6.57
705.823	6.49
706.146	6.41
706.47	6.39
706.793	6.47
707.117	6.31
707.44	6.24
707.763	6.23
708.086	6.11
708.409	6.02
708.733	5.81
709.056	5.98
709.379	6.03
709.702	6.08
710.025	6.24
710.348	6.16
710.671	6.1
710.993	6.18
711.316	6.06
711.639	6.04
711.962	6.1
712.284	6.13
712.607	6.2
712.93	6.19
713.252	6.09
713.575	5.89
713.897	5.86
714.22	5.78
714.542	5.88
714.864	5.87
715.187	6
715.509	5.95
715.831	5.98
716.153	5.75
716.475	5.75
716.798	5.64
717.12	5.84
717.442	5.94
717.764	5.84
718.085	6.08
718.407	6.09
718.729	5.98
719.051	6.11
719.373	5.99
719.695	5.97
720.016	6.04
720.338	6.35
720.659	6.66
720.981	6.93
721.302	7
721.624	7.06
721.945	7.18
722.267	7.17
722.588	7.19
722.909	7.37
723.231	7.12
723.552	7.31
723.873	7.19
724.194	7.04
724.515	6.94
724.836	6.73
725.157	6.76
725.478	6.68
725.799	6.52
726.12	6.49
726.441	6.42
726.762	6.41
727.083	6.31
727.403	6.16
727.724	6.04
728.045	5.75
728.365	5.73
728.686	5.66
729.006	5.79
729.327	5.85
729.647	5.83
729.967	6.07
730.288	5.99
730.608	5.95
730.928	5.91
731.249	6.05
731.569	6
731.889	5.99
732.209	5.99
732.529	5.89
732.849	6.11
733.169	6.18
733.489	6.17
733.809	6.24
734.129	6.28
734.448	6.35
734.768	6.3
735.088	6.33
735.408	6.55
735.727	6.7
736.047	6.73
736.366	6.96
736.686	6.89
737.005	7.05
737.325	7.28
737.644	7.32
737.963	7.5
738.283	7.68
738.602	7.75
738.921	8
739.24	8.19
739.56	8.3
739.879	8.28
740.198	8.26
740.517	8.27
740.836	8.27
741.155	8.15
741.473	8.36
741.792	8.42
742.111	8.37
742.43	8.42
742.748	8.34
743.067	8.13
743.386	8.11
743.704	7.97
744.023	7.88
744.341	8.02
744.66	7.86
744.978	7.91
745.297	7.94
745.615	7.65
745.933	7.86
746.252	7.56
746.57	7.52
746.888	7.8
747.206	7.85
747.524	7.91
747.842	7.98
748.16	8.01
748.478	8.07
748.796	7.97
749.114	7.79
749.432	7.68
749.749	7.68
750.067	7.79
750.385	7.9
750.703	7.85
751.02	7.87
751.338	8.02
751.655	7.77
751.973	7.89
752.29	7.82
752.608	7.55
752.925	7.6
753.242	7.8
753.56	7.5
753.877	7.45
754.194	7.46
754.511	7.44
754.828	7.43
755.145	7.37
755.462	7.31
755.779	7.4
756.096	7.34
756.413	7.42
756.73	7.4
757.047	7.44
757.364	7.49
757.68	7.48
757.997	7.32
758.314	7.43
758.63	7.27
758.947	7.62
759.264	7.67
759.58	7.84
759.896	7.89
760.213	8.09
760.529	8.21
760.846	8.17
761.162	8.15
761.478	8.14
761.794	8.13
762.11	7.91
762.426	7.99
762.743	8.07
763.059	8.13
763.375	8.35
763.69	8.31
764.006	8.36
764.322	8.27
764.638	8.55
764.954	8.7
765.27	8.91
765.585	8.87
765.901	8.7
766.216	8.7
766.532	8.46
766.848	8.42
767.163	8.22
767.478	8.03
767.794	8.06
768.109	8.08
768.424	8.41
768.74	8.78
769.055	8.79
769.37	8.83
769.685	8.87
770	8.53
770.315	8.56
770.63	8.2
770.945	8.5
771.26	8.29
771.575	7.95
771.89	7.4
772.205	7.49
772.52	7.84
772.834	7.53
773.149	8.02
773.464	8.33
773.778	8.58
774.093	8.84
774.407	9.05
774.722	9.41
775.036	9.26
775.351	9.07
775.665	8.88
775.979	8.9
776.293	9.19
776.608	9.3
776.922	9.38
777.236	9.81
777.55	9.46
777.864	9.41
778.178	9.62
778.492	10.16
778.806	9.93
779.12	9.62
779.434	9.97
779.747	9.89
780.061	9.6
780.375	9.47
780.689	9.65
781.002	9.64
781.316	9.04
781.629	8.83
781.943	9.24
782.256	9.27
782.57	9.53
782.883	9.51
783.196	9.45
783.51	9.51
783.823	9.43
784.136	9.87
784.449	9.57
784.762	9.84
785.075	9.59
785.388	9.8
785.701	10.14
786.014	10.25
786.327	10.11
786.64	10.53
786.953	10.69
787.266	10.67
787.578	10.6
787.891	11.09
788.204	11.29
788.516	11.01
788.829	11.01
789.141	10.71
789.454	10.64
789.766	11.2
790.079	11.05
790.391	10.75
790.703	11.07
791.016	11.31
791.328	11.23
791.64	11.1
791.952	11.03
792.264	11.07
792.576	10.95
792.888	10.88
793.2	10.64
793.512	10.52
793.824	10.75
794.136	10.92
794.448	11.2
794.76	10.93
795.071	10.66
795.383	10.85
795.695	11.02
796.006	10.52
796.318	10.09
796.629	9.91
796.941	10.65
797.252	9.98
797.564	9.87
797.875	9.63
798.186	10.05
798.497	10.33
798.809	10.57
799.12	10.71
799.431	11.06
799.742	11.07
800.053	11.35
800.364	11.48
800.675	11.54
800.986	11.65
801.297	11.94
801.608	12.17
801.918	12.24
802.229	12.7
802.54	12.58
802.851	12.62
803.161	13.09
803.472	12.88
803.782	13.07
804.093	13.36
804.403	13.72
804.714	14.14
805.024	14.07
805.334	14.22
805.645	14.04
805.955	14.31
806.265	14.4
806.575	14.82
806.885	14.39
807.195	14.03
807.505	13.23
807.815	13.5
808.125	13.37
808.435	13.71
808.745	13.44
809.055	14.53
809.365	14.55
809.674	14.23
809.984	14.58
810.294	14.38
810.603	14.6
810.913	14.47
811.222	13.68
811.532	13.4
811.841	13.65
812.151	13.6
812.46	13.47
812.769	13.62
813.079	13.29
813.388	13
813.697	13.33
814.006	13.7
814.315	13.33
814.624	13.18
814.933	13.05
815.242	12.98
815.551	12.75
815.86	13.22
816.169	12.72
816.478	13.11
816.786	12.37
817.095	12.46
817.404	12.56
817.712	12.83
818.021	12.57
818.33	11.79
818.638	11.87
818.947	11.34
819.255	10.84
819.563	10.52
819.872	10.7
820.18	10.74
820.488	10.84
820.796	10.78
821.105	11.33
821.413	11.1
821.721	10.99
822.029	10.61
822.337	10.39
822.645	10.68
822.953	10.45
823.26	10.7
823.568	10.51
823.876	10.46
824.184	10.36
824.491	10.44
824.799	10.62
825.107	10.69
825.414	10.88
825.722	10.88
826.029	10.93
826.337	11.03
826.644	11.16
826.951	11.16
827.259	11.19
827.566	11.04
827.873	11.28
828.18	11.24
828.488	11.75
828.795	12.27
829.102	12.04
829.409	12.16
829.716	12.14
830.023	12.33
830.329	12.44
830.636	12.74
830.943	12.84
831.25	12.58
831.557	12.27
831.863	12.31
832.17	12.49
832.476	12.4
832.783	11.99
833.089	12.04
833.396	11.83
833.702	12.11
834.009	12.29
834.315	12.04
834.621	12.56
834.928	12.25
835.234	12.21
835.54	12.48
835.846	12.52
836.152	12.31
836.458	12.52
836.764	12.68
837.07	12.59
837.376	12.77
837.682	12.96
837.988	13.24
838.293	13.44
838.599	13.26
838.905	13.55
839.211	14.01
839.516	13.44
839.822	14.42
840.127	14.39
840.433	13.91
840.738	14.46
841.044	14.72
841.349	14.65
841.654	13.51
841.959	13.39
842.265	13.83
842.57	14.78
842.875	14.63
843.18	14.46
843.485	14.64
843.79	13.88
844.095	13.99
844.4	15.32
844.705	15.48
845.01	17.63
845.315	17.47
845.619	18.12
845.924	18.42
846.229	18.23
846.533	18.18
846.838	19.48
847.142	17.27
847.447	15.65
847.751	14.94
848.056	16.27
848.36	16.93
848.664	17.57
848.969	18.87
849.273	18.27
849.577	19.41
849.881	18.51
850.185	19.73
850.489	20.92
850.794	19.44
851.097	18.23
851.401	15.4
851.705	16.42
852.009	16.96
852.313	16.97
852.617	17.3
852.92	17.72
853.224	16.17
853.528	18.22
853.831	21.07
854.135	22.9
854.438	23.05
854.742	22.36
855.045	20.22
855.349	18.14
855.652	19.14
855.955	18.89
856.259	21.53
856.562	22.3
856.865	20.55
857.168	21.52
857.471	21.86
857.774	22
858.077	21.15
858.38	21.17
858.683	22.66
858.986	20.35
859.289	19.36
859.592	19.14
859.894	19.86
860.197	18.62
860.5	17.56
860.802	16.18
861.105	14.67
861.407	16.61
861.71	16.07
862.012	15.32
862.315	15.61
862.617	15.02
862.919	14.32
863.222	15.78
863.524	14.37
863.826	13.3
864.128	16.28
864.43	16.78
864.732	15.05
865.034	14.34
865.336	15.78
865.638	16.53
865.94	18.12
866.242	18.08
866.544	17.87
866.846	18.99
867.147	19.72
867.449	22.38
867.751	21.23
868.052	23.31
868.354	24.26
868.655	22.97
868.957	21.56
869.258	20.76
869.56	19.47
869.861	21.11
870.162	23.16
870.463	22.07
870.765	20.92
871.066	21.38
871.367	19.04
871.668	19.17
871.969	17.56
872.27	15.62
872.571	16.57
872.872	17.14
873.173	16.79
873.473	14.64
873.774	15.34
874.075	16.41
874.376	14.37
874.676	13.45
874.977	14.33
875.277	13.9
875.578	13.73
875.878	14.02
876.179	13.5
876.479	11.4
876.78	10.81
877.08	12.85
877.38	12.69
877.68	15.72
877.981	14.91
878.281	17.21
878.581	19.27
