Data from MVZ_BU26842_Reflection_00001.txt Node
Date: Tue Nov 19 12:18:12 EST 2019
User: vgr7
Spectrometer: USB2G7710
Scans to average: 3
Trigger mode: 4
Integration Time (sec): 2.000000E-2
Electric dark correction enabled: true
Boxcar width: 10
XAxis mode: Wavelengths
Number of Pixels in Spectrum: 2048
>>>>>Begin Spectral Data<<<<<
177.721	47.71
178.105	470.37
178.488	-1011.11
178.871	-134.57
179.254	-1233.33
179.636	-7677.78
180.019	748.15
180.402	-18.18
180.785	-274.07
181.168	416.24
181.55	336.11
181.933	242.51
182.316	143.86
182.698	162.02
183.081	185.14
183.463	477.19
183.846	-480.46
184.228	-749.21
184.611	-148.51
184.993	-68.52
185.376	-73.67
185.758	-102.09
186.14	-141.67
186.522	-110.82
186.904	-131.94
187.287	-75.72
187.669	-66.67
188.051	-81.89
188.433	-131.1
188.815	-126.19
189.197	-74.73
189.579	-84.29
189.961	-75.23
190.342	-54.34
190.724	-71.57
191.106	-63.21
191.488	-100.2
191.869	-214.35
192.251	-235.5
192.633	-251.45
193.014	-429.1
193.396	-628.68
193.777	-293.68
194.159	-134.07
194.54	-178.55
194.922	-228.75
195.303	-354.17
195.684	-864.65
196.065	-425.46
196.447	-243.14
196.828	-189.8
197.209	-179.81
197.59	-82.29
197.971	-88.84
198.352	-75.21
198.733	-77.19
199.114	-113.36
199.495	-104.14
199.876	-89.35
200.257	-87.05
200.638	-65.79
201.018	-71.44
201.399	-61.15
201.78	-77.95
202.16	-82.38
202.541	-56.49
202.922	-56.31
203.302	-57.2
203.683	-53.33
204.063	-45.89
204.444	-35.12
204.824	-42.42
205.204	-38.51
205.585	-47
205.965	-49.15
206.345	-53.66
206.725	-53.26
207.106	-22.25
207.486	-14.22
207.866	-18.6
208.246	-10.38
208.626	-24.17
209.006	-22.53
209.386	-24.03
209.766	-21.11
210.145	-10.77
210.525	-28.49
210.905	-35.25
211.285	-28.21
211.664	-15.92
212.044	-23.13
212.424	-28.21
212.803	-40.21
213.183	-39.39
213.562	-30.13
213.942	-33.61
214.321	-47.46
214.701	-59.63
215.08	-75.6
215.459	-50.65
215.838	-43.61
216.218	-63.02
216.597	-48.69
216.976	-77.66
217.355	-83.88
217.734	-131.66
218.113	-159.83
218.492	-154.73
218.871	-94.93
219.25	-122.22
219.629	-159.96
220.008	-123.65
220.387	-153.97
220.766	-87.12
221.144	-112.69
221.523	-121.54
221.902	-77.94
222.28	-52.69
222.659	-49.64
223.037	-54.06
223.416	-48.1
223.794	-34.13
224.173	-34.08
224.551	-31.89
224.929	-34.41
225.308	-21.53
225.686	-12.56
226.064	-10.11
226.442	-2.22
226.821	-7.43
227.199	-4.71
227.577	-3.72
227.955	-1.2
228.333	3.01
228.711	2.53
229.089	2.99
229.467	2.73
229.845	0.67
230.222	0.11
230.6	5.44
230.978	6.72
231.356	7.96
231.733	7.62
232.111	10.26
232.488	6.46
232.866	10.6
233.243	8.92
233.621	7.91
233.998	10.03
234.376	6.85
234.753	6.27
235.13	7.7
235.508	8.01
235.885	6.42
236.262	4.94
236.639	4.46
237.016	3.84
237.393	3.43
237.77	2.06
238.147	2.6
238.524	2.25
238.901	1.67
239.278	2.03
239.655	0.59
240.032	-0.31
240.409	0.93
240.785	0.63
241.162	1.11
241.539	2.07
241.915	2.02
242.292	2.42
242.668	3.34
243.045	3.69
243.421	3.67
243.798	3.97
244.174	4.34
244.551	4.34
244.927	4.75
245.303	4.69
245.679	4.91
246.056	5.05
246.432	4.75
246.808	5.13
247.184	5.03
247.56	5.46
247.936	5.42
248.312	5.12
248.688	5.19
249.064	5.01
249.44	4.56
249.815	4.4
250.191	4.3
250.567	4.18
250.943	4.16
251.318	3.95
251.694	4
252.069	3.91
252.445	3.69
252.82	3.48
253.196	3.45
253.571	3.65
253.947	3.37
254.322	3.71
254.697	3.36
255.073	3.45
255.448	3.28
255.823	3.73
256.198	4.29
256.573	4.62
256.948	4.78
257.323	4.96
257.698	4.91
258.073	4.89
258.448	4.79
258.823	4.63
259.198	4.82
259.573	4.67
259.948	4.57
260.322	4.54
260.697	4.56
261.072	4.77
261.446	4.67
261.821	4.66
262.195	4.7
262.57	4.77
262.944	4.71
263.319	4.87
263.693	4.93
264.067	4.91
264.442	4.68
264.816	4.47
265.19	4.4
265.564	4.68
265.938	4.76
266.313	4.76
266.687	4.86
267.061	4.74
267.435	4.64
267.809	4.58
268.183	4.63
268.556	4.52
268.93	4.31
269.304	4.33
269.678	4.25
270.051	4.33
270.425	4.33
270.799	4.08
271.172	3.91
271.546	3.83
271.919	3.63
272.293	3.77
272.666	4.11
273.04	4.27
273.413	4.05
273.787	4.14
274.16	3.9
274.533	3.89
274.906	3.9
275.279	3.96
275.653	4.06
276.026	4.25
276.399	4.25
276.772	4.41
277.145	4.51
277.518	4.69
277.891	4.53
278.263	4.58
278.636	4.78
279.009	4.88
279.382	4.71
279.755	4.69
280.127	4.26
280.5	3.87
280.872	3.87
281.245	4.04
281.617	4.08
281.99	4.44
282.362	4.35
282.735	4.34
283.107	4.3
283.479	4.27
283.852	4.07
284.224	4.19
284.596	4.09
284.968	3.98
285.34	3.93
285.713	3.96
286.085	3.93
286.457	3.98
286.829	3.96
287.201	4.08
287.572	4.24
287.944	4.56
288.316	4.73
288.688	4.73
289.06	4.67
289.431	4.73
289.803	4.77
290.175	4.8
290.546	4.87
290.918	5
291.289	5.05
291.661	5.1
292.032	4.99
292.403	5.14
292.775	5.24
293.146	5.29
293.517	5.38
293.889	5.34
294.26	5.3
294.631	5.45
295.002	5.41
295.373	5.33
295.744	5.29
296.115	5.25
296.486	5.2
296.857	5.21
297.228	5.08
297.599	4.87
297.97	4.89
298.34	4.82
298.711	4.84
299.082	4.68
299.452	4.71
299.823	4.7
300.194	4.53
300.564	4.46
300.935	4.4
301.305	4.45
301.676	4.42
302.046	4.39
302.416	4.21
302.787	4.29
303.157	4.17
303.527	4.24
303.897	4.16
304.267	4.11
304.637	4.03
305.008	3.94
305.378	3.88
305.748	3.83
306.117	3.8
306.487	3.82
306.857	4.11
307.227	4.26
307.597	4.39
307.967	4.48
308.336	4.48
308.706	4.44
309.076	4.37
309.445	4.53
309.815	4.52
310.184	4.42
310.554	4.29
310.923	4.23
311.293	4.14
311.662	4.18
312.031	4.13
312.401	4.17
312.77	4.34
313.139	4.45
313.508	4.52
313.877	4.55
314.246	4.44
314.616	4.37
314.985	4.16
315.353	4.08
315.722	4.2
316.091	4.14
316.46	4.08
316.829	4.08
317.198	4.02
317.567	4.17
317.935	4.2
318.304	4.27
318.672	4.4
319.041	4.41
319.41	4.53
319.778	4.64
320.147	4.63
320.515	4.56
320.883	4.71
321.252	4.66
321.62	4.73
321.988	4.69
322.357	4.62
322.725	4.71
323.093	4.62
323.461	4.55
323.829	4.6
324.197	4.75
324.565	4.67
324.933	4.54
325.301	4.4
325.669	4.4
326.037	4.36
326.405	4.43
326.772	4.57
327.14	4.54
327.508	4.56
327.875	4.53
328.243	4.43
328.61	4.36
328.978	4.31
329.346	4.3
329.713	4.44
330.08	4.58
330.448	4.65
330.815	4.8
331.182	4.72
331.55	4.62
331.917	4.49
332.284	4.48
332.651	4.54
333.018	4.52
333.385	4.68
333.752	4.8
334.119	4.84
334.486	4.82
334.853	4.79
335.22	4.75
335.587	4.76
335.954	4.7
336.32	4.67
336.687	4.75
337.054	4.78
337.42	4.74
337.787	4.64
338.153	4.58
338.52	4.57
338.886	4.58
339.253	4.6
339.619	4.73
339.986	4.75
340.352	4.67
340.718	4.68
341.084	4.68
341.451	4.7
341.817	4.55
342.183	4.44
342.549	4.53
342.915	4.58
343.281	4.64
343.647	4.75
344.013	4.84
344.379	4.9
344.745	4.88
345.11	4.88
345.476	4.86
345.842	4.8
346.208	4.83
346.573	4.76
346.939	4.84
347.304	4.86
347.67	4.86
348.035	5.02
348.401	5.03
348.766	5
349.132	4.89
349.497	5.01
349.862	5.04
350.228	4.93
350.593	4.91
350.958	4.86
351.323	4.8
351.688	4.84
352.053	4.79
352.418	4.77
352.783	4.77
353.148	4.86
353.513	4.95
353.878	4.88
354.243	4.88
354.608	4.85
354.972	4.89
355.337	4.89
355.702	4.84
356.066	4.79
356.431	4.77
356.795	4.86
357.16	4.85
357.524	4.87
357.889	4.91
358.253	4.88
358.618	4.9
358.982	4.99
359.346	4.93
359.71	4.96
360.075	5.02
360.439	5.04
360.803	5.06
361.167	5
361.531	4.92
361.895	4.95
362.259	5.02
362.623	4.95
362.987	4.94
363.351	4.94
363.714	4.95
364.078	4.94
364.442	4.93
364.806	4.94
365.169	4.94
365.533	4.95
365.896	5.01
366.26	5.03
366.623	4.93
366.987	4.95
367.35	4.97
367.714	4.98
368.077	5.06
368.44	4.98
368.803	4.96
369.167	5.02
369.53	5.03
369.893	5.01
370.256	5.05
370.619	5.06
370.982	5.05
371.345	5.17
371.708	5.15
372.071	5.12
372.434	5.12
372.797	5.15
373.159	5.09
373.522	5.03
373.885	5.08
374.247	5.11
374.61	5.13
374.973	5
375.335	4.97
375.698	4.85
376.06	4.9
376.423	4.89
376.785	4.94
377.147	4.91
377.51	4.92
377.872	4.89
378.234	4.89
378.596	4.87
378.958	4.83
379.321	4.89
379.683	4.91
380.045	4.9
380.407	4.86
380.769	4.87
381.13	4.9
381.492	4.86
381.854	4.87
382.216	4.91
382.578	5.04
382.939	5.03
383.301	5.03
383.663	5.04
384.024	5.09
384.386	5.08
384.747	5.07
385.109	5.04
385.47	5.05
385.832	4.98
386.193	5.05
386.554	5
386.916	4.91
387.277	4.84
387.638	4.89
387.999	4.89
388.36	4.89
388.721	4.87
389.082	4.88
389.443	4.89
389.804	4.87
390.165	4.81
390.526	4.82
390.887	4.83
391.248	4.77
391.609	4.8
391.969	4.85
392.33	4.86
392.691	4.85
393.051	4.82
393.412	4.88
393.772	4.84
394.133	4.82
394.493	4.89
394.854	4.93
395.214	4.91
395.574	4.89
395.935	4.92
396.295	4.96
396.655	4.92
397.015	4.95
397.376	4.97
397.736	4.96
398.096	4.99
398.456	5.01
398.816	5.02
399.176	4.97
399.535	4.93
399.895	4.88
400.255	4.92
400.615	4.95
400.975	4.94
401.334	4.98
401.694	5.03
402.054	5.01
402.413	5.07
402.773	5.09
403.132	5.1
403.492	5.07
403.851	5.06
404.211	5.09
404.57	5.06
404.929	5.06
405.288	5.08
405.648	5.09
406.007	5.08
406.366	5.08
406.725	5.09
407.084	5.06
407.443	5.11
407.802	5.06
408.161	5.01
408.52	5.01
408.879	4.98
409.238	4.99
409.596	5
409.955	4.95
410.314	4.93
410.673	4.92
411.031	4.91
411.39	4.93
411.748	4.91
412.107	4.9
412.465	4.88
412.824	4.88
413.182	4.84
413.54	4.86
413.899	4.86
414.257	4.9
414.615	4.91
414.974	4.93
415.332	4.94
415.69	4.96
416.048	4.98
416.406	4.98
416.764	5
417.122	5.01
417.48	5.02
417.838	5.03
418.195	5.05
418.553	5.08
418.911	5.07
419.269	5.1
419.626	5.11
419.984	5.1
420.342	5.11
420.699	5.12
421.057	5.12
421.414	5.14
421.772	5.13
422.129	5.14
422.486	5.15
422.844	5.16
423.201	5.19
423.558	5.18
423.915	5.17
424.273	5.17
424.63	5.17
424.987	5.17
425.344	5.17
425.701	5.17
426.058	5.15
426.415	5.16
426.772	5.15
427.128	5.15
427.485	5.15
427.842	5.15
428.199	5.14
428.555	5.13
428.912	5.14
429.269	5.13
429.625	5.14
429.982	5.12
430.338	5.13
430.695	5.11
431.051	5.14
431.407	5.16
431.764	5.14
432.12	5.16
432.476	5.17
432.832	5.19
433.189	5.18
433.545	5.19
433.901	5.19
434.257	5.17
434.613	5.17
434.969	5.17
435.325	5.16
435.681	5.16
436.036	5.19
436.392	5.19
436.748	5.19
437.104	5.2
437.459	5.19
437.815	5.18
438.171	5.21
438.526	5.21
438.882	5.21
439.237	5.21
439.593	5.22
439.948	5.22
440.304	5.22
440.659	5.23
441.014	5.23
441.369	5.23
441.725	5.24
442.08	5.25
442.435	5.26
442.79	5.26
443.145	5.27
443.5	5.26
443.855	5.25
444.21	5.24
444.565	5.24
444.92	5.25
445.275	5.26
445.629	5.24
445.984	5.22
446.339	5.21
446.693	5.23
447.048	5.2
447.403	5.19
447.757	5.16
448.112	5.16
448.466	5.16
448.82	5.16
449.175	5.15
449.529	5.15
449.883	5.16
450.238	5.16
450.592	5.17
450.946	5.15
451.3	5.15
451.654	5.16
452.008	5.16
452.362	5.16
452.716	5.17
453.07	5.17
453.424	5.17
453.778	5.18
454.132	5.16
454.486	5.17
454.839	5.17
455.193	5.2
455.547	5.21
455.9	5.22
456.254	5.22
456.607	5.24
456.961	5.21
457.314	5.22
457.668	5.22
458.021	5.22
458.375	5.23
458.728	5.27
459.081	5.28
459.434	5.28
459.787	5.27
460.141	5.27
460.494	5.26
460.847	5.26
461.2	5.29
461.553	5.32
461.906	5.32
462.259	5.32
462.611	5.32
462.964	5.33
463.317	5.31
463.67	5.33
464.022	5.33
464.375	5.33
464.728	5.35
465.08	5.37
465.433	5.38
465.785	5.4
466.138	5.4
466.49	5.39
466.843	5.4
467.195	5.43
467.547	5.43
467.899	5.46
468.252	5.49
468.604	5.47
468.956	5.49
469.308	5.49
469.66	5.5
470.012	5.48
470.364	5.49
470.716	5.51
471.068	5.51
471.42	5.52
471.772	5.54
472.123	5.54
472.475	5.52
472.827	5.5
473.178	5.49
473.53	5.5
473.882	5.5
474.233	5.52
474.585	5.53
474.936	5.54
475.288	5.53
475.639	5.51
475.99	5.51
476.342	5.49
476.693	5.51
477.044	5.52
477.395	5.55
477.746	5.54
478.097	5.53
478.448	5.54
478.8	5.54
479.15	5.54
479.501	5.53
479.852	5.54
480.203	5.56
480.554	5.58
480.905	5.56
481.255	5.57
481.606	5.56
481.957	5.56
482.307	5.56
482.658	5.56
483.009	5.56
483.359	5.57
483.709	5.57
484.06	5.58
484.41	5.57
484.761	5.57
485.111	5.57
485.461	5.57
485.811	5.56
486.162	5.57
486.512	5.58
486.862	5.58
487.212	5.58
487.562	5.58
487.912	5.57
488.262	5.57
488.612	5.57
488.961	5.57
489.311	5.57
489.661	5.57
490.011	5.57
490.36	5.57
490.71	5.56
491.06	5.55
491.409	5.55
491.759	5.56
492.108	5.56
492.458	5.57
492.807	5.57
493.157	5.58
493.506	5.57
493.855	5.58
494.204	5.56
494.554	5.56
494.903	5.57
495.252	5.59
495.601	5.61
495.95	5.61
496.299	5.62
496.648	5.62
496.997	5.62
497.346	5.64
497.695	5.67
498.043	5.71
498.392	5.72
498.741	5.7
499.09	5.74
499.438	5.75
499.787	5.77
500.135	5.78
500.484	5.79
500.832	5.77
501.181	5.78
501.529	5.81
501.878	5.81
502.226	5.82
502.574	5.82
502.923	5.8
503.271	5.78
503.619	5.8
503.967	5.81
504.315	5.78
504.663	5.77
505.011	5.76
505.359	5.72
505.707	5.72
506.055	5.75
506.403	5.73
506.751	5.73
507.098	5.7
507.446	5.7
507.794	5.72
508.141	5.75
508.489	5.76
508.837	5.79
509.184	5.82
509.531	5.8
509.879	5.8
510.226	5.8
510.574	5.81
510.921	5.8
511.268	5.83
511.616	5.85
511.963	5.86
512.31	5.89
512.657	5.91
513.004	5.92
513.351	5.9
513.698	5.9
514.045	5.91
514.392	5.91
514.739	5.91
515.086	5.91
515.432	5.9
515.779	5.89
516.126	5.91
516.473	5.91
516.819	5.93
517.166	5.96
517.512	5.96
517.859	5.98
518.205	5.99
518.552	5.97
518.898	5.98
519.245	5.99
519.591	5.96
519.937	5.98
520.283	5.98
520.629	5.99
520.976	6
521.322	6
521.668	6.01
522.014	6.01
522.36	6.02
522.706	6.04
523.052	6.07
523.398	6.04
523.743	6.03
524.089	6.03
524.435	6.01
524.781	6.02
525.126	6
525.472	6
525.817	6.02
526.163	6.03
526.509	6.03
526.854	6.04
527.199	6.03
527.545	6.03
527.89	6.03
528.235	6.03
528.581	6.03
528.926	6.03
529.271	6.04
529.616	6.06
529.961	6.05
530.306	6.05
530.651	6.05
530.996	6.07
531.341	6.07
531.686	6.08
532.031	6.08
532.376	6.1
532.721	6.1
533.065	6.09
533.41	6.08
533.755	6.08
534.099	6.1
534.444	6.1
534.788	6.11
535.133	6.13
535.477	6.15
535.822	6.17
536.166	6.17
536.51	6.17
536.855	6.16
537.199	6.15
537.543	6.16
537.887	6.17
538.231	6.18
538.576	6.19
538.92	6.18
539.264	6.2
539.608	6.2
539.951	6.21
540.295	6.23
540.639	6.24
540.983	6.25
541.327	6.24
541.671	6.25
542.014	6.26
542.358	6.24
542.701	6.24
543.045	6.25
543.389	6.26
543.732	6.25
544.075	6.25
544.419	6.26
544.762	6.27
545.105	6.29
545.449	6.28
545.792	6.28
546.135	6.28
546.478	6.29
546.821	6.31
547.165	6.31
547.508	6.31
547.851	6.29
548.194	6.28
548.536	6.29
548.879	6.27
549.222	6.29
549.565	6.3
549.908	6.28
550.25	6.27
550.593	6.29
550.936	6.29
551.278	6.3
551.621	6.3
551.963	6.3
552.306	6.3
552.648	6.28
552.991	6.29
553.333	6.29
553.675	6.28
554.017	6.24
554.36	6.24
554.702	6.23
555.044	6.26
555.386	6.26
555.728	6.25
556.07	6.26
556.412	6.23
556.754	6.23
557.096	6.25
557.438	6.24
557.78	6.23
558.121	6.22
558.463	6.24
558.805	6.28
559.147	6.26
559.488	6.21
559.83	6.25
560.171	6.24
560.513	6.25
560.854	6.24
561.196	6.25
561.537	6.29
561.878	6.31
562.22	6.32
562.561	6.34
562.902	6.35
563.243	6.37
563.584	6.38
563.925	6.4
564.266	6.42
564.607	6.4
564.948	6.41
565.289	6.45
565.63	6.44
565.971	6.42
566.312	6.38
566.653	6.42
566.993	6.4
567.334	6.45
567.675	6.44
568.015	6.41
568.356	6.44
568.696	6.44
569.037	6.44
569.377	6.43
569.718	6.43
570.058	6.44
570.398	6.43
570.739	6.4
571.079	6.38
571.419	6.36
571.759	6.4
572.099	6.41
572.439	6.39
572.779	6.41
573.119	6.43
573.459	6.47
573.799	6.47
574.139	6.46
574.479	6.46
574.819	6.48
575.158	6.52
575.498	6.48
575.838	6.47
576.177	6.48
576.517	6.5
576.856	6.49
577.196	6.47
577.535	6.51
577.875	6.53
578.214	6.55
578.553	6.53
578.893	6.54
579.232	6.5
579.571	6.52
579.91	6.48
580.25	6.44
580.589	6.45
580.928	6.47
581.267	6.47
581.606	6.43
581.945	6.4
582.283	6.39
582.622	6.4
582.961	6.41
583.3	6.41
583.639	6.4
583.977	6.42
584.316	6.49
584.654	6.51
584.993	6.54
585.332	6.57
585.67	6.6
586.008	6.61
586.347	6.6
586.685	6.56
587.024	6.57
587.362	6.62
587.7	6.66
588.038	6.64
588.376	6.66
588.715	6.68
589.053	6.67
589.391	6.69
589.729	6.73
590.067	6.74
590.404	6.76
590.742	6.8
591.08	6.79
591.418	6.77
591.756	6.72
592.093	6.74
592.431	6.71
592.769	6.7
593.106	6.73
593.444	6.82
593.781	6.82
594.119	6.82
594.456	6.8
594.793	6.8
595.131	6.79
595.468	6.79
595.805	6.81
596.143	6.85
596.48	6.86
596.817	6.88
597.154	6.86
597.491	6.79
597.828	6.74
598.165	6.74
598.502	6.73
598.839	6.75
599.176	6.76
599.512	6.77
599.849	6.83
600.186	6.78
600.523	6.71
600.859	6.75
601.196	6.74
601.532	6.77
601.869	6.77
602.205	6.75
602.542	6.76
602.878	6.79
603.215	6.74
603.551	6.74
603.887	6.75
604.223	6.81
604.56	6.86
604.896	6.92
605.232	6.92
605.568	6.94
605.904	6.91
606.24	6.87
606.576	6.9
606.912	6.88
607.248	6.88
607.583	6.91
607.919	6.88
608.255	6.91
608.591	6.89
608.926	6.85
609.262	6.89
609.597	6.94
609.933	6.91
610.268	6.96
610.604	6.99
610.939	6.97
611.275	6.9
611.61	6.87
611.945	6.84
612.281	6.85
612.616	6.86
612.951	6.87
613.286	6.89
613.621	6.85
613.956	6.85
614.291	6.85
614.626	6.88
614.961	6.9
615.296	6.93
615.631	6.92
615.966	6.98
616.3	6.91
616.635	6.86
616.97	6.87
617.304	6.82
617.639	6.78
617.973	6.8
618.308	6.83
618.642	6.84
618.977	6.81
619.311	6.84
619.646	6.81
619.98	6.89
620.314	6.89
620.648	6.91
620.983	6.9
621.317	6.9
621.651	6.87
621.985	6.91
622.319	6.89
622.653	6.98
622.987	6.94
623.321	7.05
623.655	7.05
623.988	7.06
624.322	7.08
624.656	7.09
624.99	7.1
625.323	7.08
625.657	7.07
625.99	7.09
626.324	7.07
626.657	7.07
626.991	7.02
627.324	7.02
627.658	7.03
627.991	7.04
628.324	7.04
628.657	6.98
628.991	7.01
629.324	7.02
629.657	6.98
629.99	6.98
630.323	6.96
630.656	6.99
630.989	6.96
631.322	6.96
631.655	6.98
631.987	6.99
632.32	7
632.653	7.03
632.986	7.1
633.318	7.14
633.651	7.13
633.984	7.14
634.316	7.12
634.649	7.14
634.981	7.14
635.313	7.2
635.646	7.3
635.978	7.3
636.31	7.3
636.643	7.31
636.975	7.36
637.307	7.32
637.639	7.3
637.971	7.29
638.303	7.35
638.635	7.35
638.967	7.33
639.299	7.35
639.631	7.38
639.963	7.33
640.295	7.31
640.626	7.39
640.958	7.35
641.29	7.41
641.621	7.37
641.953	7.35
642.285	7.39
642.616	7.39
642.948	7.33
643.279	7.26
643.61	7.32
643.942	7.3
644.273	7.27
644.604	7.3
644.936	7.35
645.267	7.32
645.598	7.35
645.929	7.29
646.26	7.32
646.591	7.33
646.922	7.37
647.253	7.33
647.584	7.29
647.915	7.37
648.245	7.41
648.576	7.43
648.907	7.43
649.238	7.35
649.568	7.29
649.899	7.34
650.229	7.42
650.56	7.37
650.89	7.43
651.221	7.51
651.551	7.52
651.882	7.53
652.212	7.51
652.542	7.45
652.872	7.54
653.203	7.61
653.533	7.63
653.863	7.62
654.193	7.65
654.523	7.64
654.853	7.67
655.183	7.66
655.513	7.71
655.843	7.78
656.172	7.89
656.502	7.88
656.832	7.92
657.162	7.92
657.491	7.93
657.821	7.88
658.15	7.83
658.48	7.85
658.809	7.9
659.139	7.88
659.468	7.89
659.798	7.87
660.127	7.81
660.456	7.79
660.785	7.74
661.115	7.69
661.444	7.72
661.773	7.75
662.102	7.72
662.431	7.73
662.76	7.67
663.089	7.62
663.418	7.7
663.747	7.71
664.076	7.66
664.404	7.73
664.733	7.75
665.062	7.86
665.39	7.85
665.719	7.84
666.048	7.85
666.376	7.85
666.705	7.86
667.033	7.81
667.362	7.82
667.69	7.74
668.018	7.89
668.347	7.89
668.675	7.75
669.003	7.74
669.331	7.74
669.659	7.77
669.987	7.85
670.315	7.84
670.643	7.8
670.971	7.85
671.299	7.74
671.627	7.71
671.955	7.58
672.283	7.46
672.61	7.43
672.938	7.56
673.266	7.57
673.593	7.55
673.921	7.66
674.249	7.67
674.576	7.87
674.904	7.83
675.231	7.89
675.558	8.04
675.886	8.08
676.213	7.98
676.54	8.03
676.867	8.07
677.195	8.13
677.522	8.13
677.849	8.15
678.176	8.21
678.503	8.26
678.83	8.3
679.157	8.47
679.484	8.52
679.81	8.5
680.137	8.66
680.464	8.79
680.791	8.82
681.117	8.81
681.444	8.79
681.771	8.76
682.097	8.71
682.424	8.7
682.75	8.73
683.077	8.81
683.403	8.77
683.729	8.68
684.056	8.6
684.382	8.54
684.708	8.59
685.034	8.56
685.36	8.53
685.686	8.67
686.012	8.64
686.339	8.57
686.664	8.57
686.99	8.37
687.316	8.21
687.642	8.1
687.968	8.09
688.294	8.05
688.619	8.11
688.945	8.09
689.271	8.15
689.596	8.2
689.922	8.15
690.247	8.25
690.573	8.27
690.898	8.35
691.224	8.39
691.549	8.41
691.874	8.4
692.2	8.36
692.525	8.24
692.85	8.23
693.175	8.24
693.5	8.11
693.825	8.25
694.15	8.29
694.475	8.39
694.8	8.46
695.125	8.54
695.45	8.52
695.775	8.46
696.099	8.45
696.424	8.46
696.749	8.59
697.073	8.49
697.398	8.56
697.723	8.5
698.047	8.59
698.372	8.61
698.696	8.65
699.02	8.75
699.345	8.83
699.669	8.87
699.993	8.82
700.318	8.87
700.642	8.84
700.966	8.88
701.29	8.87
701.614	8.93
701.938	8.78
702.262	8.68
702.586	8.82
702.91	8.85
703.234	8.79
703.557	8.69
703.881	8.85
704.205	8.79
704.529	8.86
704.852	8.65
705.176	8.64
705.499	8.62
705.823	8.61
706.146	8.48
706.47	8.4
706.793	8.72
707.117	8.77
707.44	8.88
707.763	8.97
708.086	8.9
708.409	8.92
708.733	8.9
709.056	9.23
709.379	9.36
709.702	9.35
710.025	9.43
710.348	9.59
710.671	9.55
710.993	9.58
711.316	9.51
711.639	9.66
711.962	9.66
712.284	9.86
712.607	9.92
712.93	9.91
713.252	9.99
713.575	9.74
713.897	9.74
714.22	9.57
714.542	9.56
714.864	9.57
715.187	9.51
715.509	9.69
715.831	9.43
716.153	9.36
716.475	9.39
716.798	9.45
717.12	9.38
717.442	9.32
717.764	9.31
718.085	9.46
718.407	9.44
718.729	9.46
719.051	9.4
719.373	9.51
719.695	9.61
720.016	9.75
720.338	9.91
720.659	10.06
720.981	10.12
721.302	10.23
721.624	10.32
721.945	10.36
722.267	10.47
722.588	10.59
722.909	10.46
723.231	10.26
723.552	10.14
723.873	10.07
724.194	10.23
724.515	10.14
724.836	10
725.157	9.95
725.478	9.88
725.799	9.74
726.12	9.45
726.441	9.49
726.762	9.28
727.083	9.35
727.403	9.18
727.724	9.42
728.045	9.24
728.365	9.35
728.686	9.27
729.006	9.16
729.327	9.25
729.647	9.22
729.967	9.3
730.288	9.38
730.608	9.41
730.928	9.34
731.249	9.52
731.569	9.56
731.889	9.66
732.209	9.76
732.529	9.78
732.849	9.96
733.169	9.84
733.489	9.77
733.809	9.82
734.129	9.92
734.448	9.53
734.768	9.53
735.088	9.44
735.408	9.46
735.727	9.62
736.047	9.76
736.366	9.86
736.686	9.94
737.005	9.98
737.325	9.96
737.644	10.04
737.963	9.76
738.283	9.81
738.602	9.77
738.921	9.61
739.24	9.71
739.56	9.73
739.879	9.74
740.198	9.74
740.517	9.67
740.836	9.59
741.155	9.89
741.473	9.97
741.792	10.15
742.111	10.25
742.43	9.98
742.748	9.71
743.067	9.6
743.386	9.38
743.704	9.55
744.023	9.68
744.341	9.79
744.66	9.99
744.978	9.89
745.297	10.01
745.615	10
745.933	9.92
746.252	9.87
746.57	10.01
746.888	10.07
747.206	9.94
747.524	9.93
747.842	9.73
748.16	9.63
748.478	9.54
748.796	9.62
749.114	9.81
749.432	9.99
749.749	10.15
750.067	10.57
750.385	10.33
750.703	10.25
751.02	10.04
751.338	9.87
751.655	9.93
751.973	9.9
752.29	10.02
752.608	10.18
752.925	10.12
753.242	10.03
753.56	10.09
753.877	10.11
754.194	10.3
754.511	10.56
754.828	10.77
755.145	10.94
755.462	10.76
755.779	10.61
756.096	10.62
756.413	10.88
756.73	10.8
757.047	10.64
757.364	10.53
757.68	10.48
757.997	10.61
758.314	11.04
758.63	11
758.947	11.12
759.264	11.22
759.58	11.26
759.896	11.56
760.213	12.02
760.529	12.14
760.846	12.07
761.162	12.02
761.478	11.86
761.794	11.7
762.11	11.79
762.426	11.81
762.743	11.85
763.059	11.69
763.375	11.5
763.69	11.66
764.006	11.94
764.322	12.11
764.638	12.42
764.954	12.06
765.27	12.28
765.585	12.31
765.901	12.04
766.216	12.19
766.532	11.79
766.848	11.59
767.163	11.58
767.478	11.53
767.794	11.51
768.109	11.58
768.424	11.37
768.74	11.35
769.055	11.66
769.37	11.31
769.685	11.31
770	11.46
770.315	11.82
770.63	11.73
770.945	11.77
771.26	11.45
771.575	11.62
771.89	11.22
772.205	11.46
772.52	11.78
772.834	11.92
773.149	12.49
773.464	12.44
773.778	12.38
774.093	12.45
774.407	12.68
774.722	12.6
775.036	13.05
775.351	13.04
775.665	13.1
775.979	13.49
776.293	13.18
776.608	13.06
776.922	12.19
777.236	12.28
777.55	11.96
777.864	11.63
778.178	11.66
778.492	11.95
778.806	11.81
779.12	11.99
779.434	11.68
779.747	11.72
780.061	11.65
780.375	11.99
780.689	12.05
781.002	11.94
781.316	12.05
781.629	11.99
781.943	11.81
782.256	11.12
782.57	11.48
782.883	12.01
783.196	11.78
783.51	12.16
783.823	11.85
784.136	11.78
784.449	12.58
784.762	12.85
785.075	12.59
785.388	12.53
785.701	12.43
786.014	12.6
786.327	12.16
786.64	12.59
786.953	12.17
787.266	12.23
787.578	12.15
787.891	12.2
788.204	12.48
788.516	12.82
788.829	12.91
789.141	12.89
789.454	12.95
789.766	13.62
790.079	13.68
790.391	13.82
790.703	14.09
791.016	14.04
791.328	13.51
791.64	13.45
791.952	13.02
792.264	12.65
792.576	12.49
792.888	12.84
793.2	12.43
793.512	12.78
793.824	12.88
794.136	12.91
794.448	13.12
794.76	12.81
795.071	12.58
795.383	12.8
795.695	12.66
796.006	12.16
796.318	12.02
796.629	11.78
796.941	11.92
797.252	11.9
797.564	11.63
797.875	12.09
798.186	12.15
798.497	12.76
798.809	13.15
799.12	13.29
799.431	13.56
799.742	13.78
800.053	13.8
800.364	13.91
800.675	14.27
800.986	14.18
801.297	14.02
801.608	14.18
801.918	14.12
802.229	13.68
802.54	13.92
802.851	14.37
803.161	14.58
803.472	14.46
803.782	14.78
804.093	14.53
804.403	14.33
804.714	14.66
805.024	14.3
805.334	13.9
805.645	13.84
805.955	13.9
806.265	13.91
806.575	13.95
806.885	14.1
807.195	13.46
807.505	13.13
807.815	12.92
808.125	13.6
808.435	14.01
808.745	14.34
809.055	14.66
809.365	14.26
809.674	14.76
809.984	14.52
810.294	14
810.603	14.13
810.913	13.99
811.222	13.66
811.532	13.94
811.841	14.72
812.151	14.45
812.46	14.03
812.769	13.58
813.079	13.91
813.388	13.23
813.697	12.93
814.006	13.57
814.315	13.97
814.624	13.17
814.933	12.66
815.242	13.23
815.551	13.03
815.86	12.86
816.169	12.16
816.478	12.83
816.786	12.99
817.095	12.88
817.404	13.92
817.712	14.51
818.021	14.25
818.33	13.74
818.638	14.33
818.947	14.73
819.255	14.85
819.563	14.22
819.872	14.63
820.18	15.18
820.488	15.26
820.796	15.5
821.105	15.64
821.413	15.91
821.721	15.69
822.029	15.64
822.337	15.54
822.645	15.57
822.953	15.66
823.26	15.72
823.568	15.75
823.876	15.7
824.184	15.65
824.491	15.87
824.799	15.9
825.107	15.87
825.414	15.79
825.722	15.73
826.029	15.79
826.337	15.78
826.644	15.88
826.951	15.85
827.259	15.76
827.566	15.75
827.873	15.61
828.18	15.53
828.488	15.61
828.795	15.67
829.102	15.83
829.409	15.29
829.716	15.36
830.023	15.64
830.329	15.59
830.636	15.73
830.943	15.54
831.25	15.82
831.557	15.5
831.863	15.47
832.17	15.74
832.476	15.88
832.783	16.08
833.089	15.67
833.396	15.48
833.702	15.58
834.009	15.51
834.315	15.53
834.621	15.51
834.928	15.36
835.234	15.57
835.54	15.37
835.846	16.18
836.152	15.94
836.458	16.02
836.764	16.32
837.07	16.01
837.376	15.63
837.682	15.18
837.988	15.91
838.293	15.85
838.599	15.83
838.905	16.41
839.211	15.66
839.516	15.25
839.822	15.29
840.127	14.76
840.433	14.41
840.738	14.34
841.044	14.74
841.349	14.57
841.654	13.58
841.959	14.33
842.265	12.73
842.57	12.55
842.875	11.27
843.18	10.03
843.485	9.62
843.79	9.2
844.095	9.32
844.4	8.29
844.705	8.6
845.01	8.1
845.315	6.6
845.619	7.4
845.924	9.05
846.229	10.4
846.533	9.98
846.838	10.03
847.142	9.9
847.447	10.76
847.751	12.75
848.056	14.47
848.36	13.5
848.664	15.26
848.969	14.78
849.273	14.68
849.577	14.78
849.881	14.97
850.185	14.94
850.489	15.21
850.794	14.46
851.097	15.34
851.401	14.13
851.705	16.03
852.009	17.84
852.313	14.87
852.617	14.58
852.92	16.78
853.224	18.62
853.528	19.19
853.831	19.76
854.135	20.33
854.438	19.67
854.742	19.09
855.045	17.94
855.349	18.43
855.652	17.29
855.955	16.74
856.259	17.24
856.562	17.05
856.865	17.19
857.168	17.13
857.471	15.45
857.774	16.99
858.077	16.63
858.38	14.92
858.683	17.17
858.986	17.25
859.289	17.52
859.592	17.1
859.894	16.45
860.197	15.31
860.5	15.26
860.802	14.58
861.105	14.74
861.407	17.04
861.71	15.27
862.012	17.9
862.315	18.15
862.617	18.86
862.919	19.62
863.222	21.15
863.524	21.11
863.826	21.6
864.128	20.27
864.43	18.3
864.732	15.68
865.034	15.67
865.336	14.42
865.638	13.48
865.94	12.47
866.242	11
866.544	9.73
866.846	11.05
867.147	12.07
867.449	13.18
867.751	12.77
868.052	12.64
868.354	13.24
868.655	10.69
868.957	10.14
869.258	10.39
869.56	7.01
869.861	9.79
870.162	9.79
870.463	11.01
870.765	11.56
871.066	12.07
871.367	10.94
871.668	8.52
871.969	7.81
872.27	8.01
872.571	7.05
872.872	4.38
873.173	0.08
873.473	-1.68
873.774	-3.42
874.075	-3.36
874.376	-0.74
874.676	-1.43
874.977	2.81
875.277	2.12
875.578	0.68
875.878	2.38
876.179	-0.11
876.479	-0.62
876.78	-1.12
877.08	-1.73
877.38	-1.08
877.68	-1.21
877.981	0.95
878.281	0.38
878.581	-0.93
