Data from MVZ_BU165823_Reflection_00013.txt Node
Date: Tue Nov 19 12:10:42 EST 2019
User: vgr7
Spectrometer: USB2G7710
Scans to average: 3
Trigger mode: 4
Integration Time (sec): 2.000000E-2
Electric dark correction enabled: true
Boxcar width: 10
XAxis mode: Wavelengths
Number of Pixels in Spectrum: 2048
>>>>>Begin Spectral Data<<<<<
177.721	40.14
178.105	7.83
178.488	9.92
178.871	-0.83
179.254	-48.94
179.636	-41.63
180.019	37.41
180.402	200
180.785	37.7
181.168	-3.06
181.55	95.71
181.933	63.79
182.316	-61.85
182.698	-2718.18
183.081	-191.97
183.463	326.8
183.846	365.31
184.228	9.09
184.611	9.09
184.993	9.64
185.376	4.48
185.758	-13.34
186.14	-22.18
186.522	-15.28
186.904	-16.97
187.287	-28.34
187.669	-10.9
188.051	-7.23
188.433	-20.52
188.815	-12.93
189.197	-17.37
189.579	-12.93
189.961	-5.84
190.342	-33.56
190.724	-49.24
191.106	-48.39
191.488	-51.31
191.869	-43.13
192.251	-33.83
192.633	-50.53
193.014	-67.14
193.396	-72.74
193.777	-77.17
194.159	-87.93
194.54	-84.15
194.922	-119.61
195.303	-158.06
195.684	-328.3
196.065	-344.87
196.447	-256.41
196.828	-236.67
197.209	-231.57
197.59	-220.17
197.971	-190.4
198.352	-110.43
198.733	-123.01
199.114	-104.66
199.495	-143.28
199.876	-128.22
200.257	-218.87
200.638	-231.91
201.018	-189.09
201.399	-255.13
201.78	-139.2
202.16	-172.83
202.541	-176.23
202.922	-160.06
203.302	-142.75
203.683	-100
204.063	-64.18
204.444	-53.71
204.824	-45.89
205.204	-34.56
205.585	-36.62
205.965	-55.06
206.345	-44.44
206.725	-37.7
207.106	-23.26
207.486	-1.27
207.866	-6.76
208.246	9.09
208.626	21.18
209.006	1.63
209.386	8.87
209.766	-7.78
210.145	-1.63
210.525	6.33
210.905	-1.44
211.285	3.4
211.664	8.45
212.044	-14.18
212.424	-21.06
212.803	-37.15
213.183	-49.3
213.562	-47.76
213.942	-44.76
214.321	-50.03
214.701	-66.03
215.08	-64.38
215.459	-61.66
215.838	-61.85
216.218	-87.01
216.597	-91.73
216.976	-141.29
217.355	-145.71
217.734	-215.07
218.113	-104.48
218.492	-99.34
218.871	-98.03
219.25	-83.46
219.629	-137.57
220.008	-124.02
220.387	-110.24
220.766	-79.02
221.144	-73.07
221.523	-90.79
221.902	-73.56
222.28	-94.99
222.659	-61.14
223.037	-67.01
223.416	-53.76
223.794	-39.5
224.173	-35.21
224.551	-31.33
224.929	-23.88
225.308	-14.66
225.686	-11.65
226.064	-17.33
226.442	-17.18
226.821	-18.95
227.199	-19.41
227.577	-12.68
227.955	-8.91
228.333	-12.12
228.711	-9.08
229.089	-9.57
229.467	-10.37
229.845	-10.5
230.222	-5.26
230.6	-4.73
230.978	0.55
231.356	-1.68
231.733	-4.73
232.111	-3.04
232.488	-5.71
232.866	-6.94
233.243	-4.94
233.621	-4.67
233.998	-3.19
234.376	-2.33
234.753	-3.05
235.13	-3.24
235.508	-2.05
235.885	-1.87
236.262	-3.47
236.639	-5.28
237.016	-2.36
237.393	-1.17
237.77	-0.11
238.147	-0.41
238.524	0.91
238.901	-0.38
239.278	-0.82
239.655	-0.14
240.032	-0.31
240.409	1.05
240.785	1.9
241.162	1.76
241.539	2.08
241.915	2.39
242.292	2.08
242.668	2.3
243.045	3.38
243.421	3.59
243.798	4.05
244.174	4.45
244.551	4.79
244.927	4.61
245.303	4.94
245.679	4.67
246.056	4.51
246.432	4.47
246.808	4.5
247.184	4.8
247.56	4.99
247.936	5.04
248.312	5.09
248.688	5
249.064	5.01
249.44	4.94
249.815	4.82
250.191	5.1
250.567	5.24
250.943	4.91
251.318	4.62
251.694	4.35
252.069	4.28
252.445	4.14
252.82	4.3
253.196	3.84
253.571	4.13
253.947	4.29
254.322	3.93
254.697	3.99
255.073	3.92
255.448	3.67
255.823	3.7
256.198	3.62
256.573	3.85
256.948	3.7
257.323	3.96
257.698	3.96
258.073	3.9
258.448	3.94
258.823	3.76
259.198	3.9
259.573	3.83
259.948	3.99
260.322	4.01
260.697	3.95
261.072	3.91
261.446	3.81
261.821	3.79
262.195	3.78
262.57	3.76
262.944	3.55
263.319	3.53
263.693	3.31
264.067	3.33
264.442	3.03
264.816	2.98
265.19	2.92
265.564	2.73
265.938	2.74
266.313	2.61
266.687	2.79
267.061	2.76
267.435	3.01
267.809	2.88
268.183	3.05
268.556	2.95
268.93	3.25
269.304	3.13
269.678	3.14
270.051	3.36
270.425	3.35
270.799	3.44
271.172	3.63
271.546	3.96
271.919	3.82
272.293	3.92
272.666	4.01
273.04	4.03
273.413	4.14
273.787	4.01
274.16	3.76
274.533	3.75
274.906	3.72
275.279	3.65
275.653	3.61
276.026	3.45
276.399	3.35
276.772	3.22
277.145	3.25
277.518	3.32
277.891	3.32
278.263	3.37
278.636	3.58
279.009	3.6
279.382	3.34
279.755	3.69
280.127	3.72
280.5	3.75
280.872	3.63
281.245	3.45
281.617	3.73
281.99	3.9
282.362	3.85
282.735	3.87
283.107	3.72
283.479	3.82
283.852	3.86
284.224	3.94
284.596	3.95
284.968	3.92
285.34	3.88
285.713	3.85
286.085	3.74
286.457	3.62
286.829	3.38
287.201	3.52
287.572	3.38
287.944	3.52
288.316	3.31
288.688	3.46
289.06	3.63
289.431	3.66
289.803	3.73
290.175	3.67
290.546	3.74
290.918	3.81
291.289	3.74
291.661	3.76
292.032	3.64
292.403	3.63
292.775	3.67
293.146	3.78
293.517	3.72
293.889	3.85
294.26	3.97
294.631	4.09
295.002	4.05
295.373	4.07
295.744	4.04
296.115	4.32
296.486	4.26
296.857	4.43
297.228	4.19
297.599	4.15
297.97	4.37
298.34	4.21
298.711	4.23
299.082	4.28
299.452	4.23
299.823	4.28
300.194	4.33
300.564	4.42
300.935	4.39
301.305	4.46
301.676	4.46
302.046	4.42
302.416	4.57
302.787	4.62
303.157	4.69
303.527	4.77
303.897	4.8
304.267	4.86
304.637	4.79
305.008	4.89
305.378	4.98
305.748	4.84
306.117	5.17
306.487	5.18
306.857	5.24
307.227	5.43
307.597	5.45
307.967	5.53
308.336	5.41
308.706	5.36
309.076	5.6
309.445	5.68
309.815	5.78
310.184	5.72
310.554	5.68
310.923	5.66
311.293	5.61
311.662	5.61
312.031	5.64
312.401	5.76
312.77	5.78
313.139	5.8
313.508	5.73
313.877	5.8
314.246	5.88
314.616	6.09
314.985	6.17
315.353	6.45
315.722	6.67
316.091	6.87
316.46	6.93
316.829	6.94
317.198	7.01
317.567	7.23
317.935	7.36
318.304	7.47
318.672	7.72
319.041	7.95
319.41	8.1
319.778	8.18
320.147	8.12
320.515	8.31
320.883	8.35
321.252	8.73
321.62	8.69
321.988	8.78
322.357	8.59
322.725	8.57
323.093	8.48
323.461	8.48
323.829	8.47
324.197	8.56
324.565	8.62
324.933	8.64
325.301	8.43
325.669	8.47
326.037	8.43
326.405	8.31
326.772	8.32
327.14	8.12
327.508	8.07
327.875	8.13
328.243	8.1
328.61	8.17
328.978	8.17
329.346	8.27
329.713	8.37
330.08	8.54
330.448	8.68
330.815	8.95
331.182	8.95
331.55	8.82
331.917	8.74
332.284	8.62
332.651	8.76
333.018	9.03
333.385	9.05
333.752	9.16
334.119	9.27
334.486	9.22
334.853	9.34
335.22	9.36
335.587	9.4
335.954	9.44
336.32	9.47
336.687	9.54
337.054	9.54
337.42	9.45
337.787	9.38
338.153	9.27
338.52	9.13
338.886	9.16
339.253	9.28
339.619	9.4
339.986	9.51
340.352	9.53
340.718	9.48
341.084	9.63
341.451	9.63
341.817	9.64
342.183	9.67
342.549	9.82
342.915	9.99
343.281	10.03
343.647	10.03
344.013	10.07
344.379	10.05
344.745	10.05
345.11	10.09
345.476	10.24
345.842	10.23
346.208	10.23
346.573	10.2
346.939	10.27
347.304	10.25
347.67	10.23
348.035	10.17
348.401	10.04
348.766	9.86
349.132	9.88
349.497	9.94
349.862	9.91
350.228	9.83
350.593	9.78
350.958	9.75
351.323	9.72
351.688	9.76
352.053	9.7
352.418	9.65
352.783	9.61
353.148	9.53
353.513	9.48
353.878	9.46
354.243	9.35
354.608	9.4
354.972	9.48
355.337	9.38
355.702	9.4
356.066	9.43
356.431	9.45
356.795	9.52
357.16	9.36
357.524	9.33
357.889	9.28
358.253	9.12
358.618	9.1
358.982	9.12
359.346	9.05
359.71	9
360.075	8.97
360.439	8.98
360.803	8.96
361.167	8.95
361.531	8.9
361.895	8.9
362.259	8.83
362.623	8.75
362.987	8.72
363.351	8.65
363.714	8.68
364.078	8.64
364.442	8.5
364.806	8.52
365.169	8.48
365.533	8.46
365.896	8.57
366.26	8.42
366.623	8.35
366.987	8.22
367.35	8.22
367.714	8.21
368.077	8.18
368.44	8.14
368.803	8.09
369.167	8.02
369.53	8
369.893	8.02
370.256	8
370.619	7.93
370.982	7.89
371.345	7.75
371.708	7.82
372.071	7.85
372.434	7.74
372.797	7.68
373.159	7.6
373.522	7.45
373.885	7.43
374.247	7.34
374.61	7.39
374.973	7.32
375.335	7.21
375.698	7.08
376.06	6.97
376.423	6.92
376.785	6.9
377.147	6.86
377.51	6.71
377.872	6.6
378.234	6.63
378.596	6.61
378.958	6.62
379.321	6.43
379.683	6.33
380.045	6.31
380.407	6.32
380.769	6.21
381.13	6.15
381.492	6.09
381.854	6.06
382.216	6.01
382.578	5.95
382.939	5.94
383.301	5.96
383.663	5.97
384.024	5.88
384.386	5.82
384.747	5.78
385.109	5.79
385.47	5.84
385.832	5.79
386.193	5.7
386.554	5.63
386.916	5.62
387.277	5.56
387.638	5.55
387.999	5.48
388.36	5.44
388.721	5.46
389.082	5.47
389.443	5.48
389.804	5.43
390.165	5.44
390.526	5.38
390.887	5.32
391.248	5.24
391.609	5.28
391.969	5.28
392.33	5.28
392.691	5.24
393.051	5.18
393.412	5.08
393.772	5.1
394.133	5.06
394.493	5.02
394.854	5.01
395.214	4.98
395.574	4.96
395.935	4.99
396.295	4.94
396.655	4.91
397.015	4.88
397.376	4.84
397.736	4.76
398.096	4.66
398.456	4.64
398.816	4.63
399.176	4.61
399.535	4.57
399.895	4.5
400.255	4.45
400.615	4.42
400.975	4.45
401.334	4.42
401.694	4.4
402.054	4.41
402.413	4.41
402.773	4.41
403.132	4.37
403.492	4.33
403.851	4.32
404.211	4.28
404.57	4.24
404.929	4.21
405.288	4.16
405.648	4.16
406.007	4.1
406.366	4.09
406.725	4.07
407.084	4.01
407.443	4
407.802	3.99
408.161	3.97
408.52	3.93
408.879	3.93
409.238	3.94
409.596	3.91
409.955	3.88
410.314	3.84
410.673	3.79
411.031	3.77
411.39	3.76
411.748	3.72
412.107	3.69
412.465	3.7
412.824	3.74
413.182	3.75
413.54	3.75
413.899	3.68
414.257	3.67
414.615	3.64
414.974	3.63
415.332	3.61
415.69	3.59
416.048	3.61
416.406	3.55
416.764	3.53
417.122	3.52
417.48	3.53
417.838	3.51
418.195	3.52
418.553	3.49
418.911	3.48
419.269	3.49
419.626	3.48
419.984	3.47
420.342	3.46
420.699	3.46
421.057	3.46
421.414	3.47
421.772	3.47
422.129	3.46
422.486	3.44
422.844	3.43
423.201	3.42
423.558	3.41
423.915	3.41
424.273	3.4
424.63	3.41
424.987	3.38
425.344	3.37
425.701	3.37
426.058	3.39
426.415	3.37
426.772	3.36
427.128	3.36
427.485	3.36
427.842	3.35
428.199	3.35
428.555	3.35
428.912	3.33
429.269	3.31
429.625	3.32
429.982	3.32
430.338	3.32
430.695	3.32
431.051	3.31
431.407	3.31
431.764	3.29
432.12	3.25
432.476	3.25
432.832	3.26
433.189	3.28
433.545	3.26
433.901	3.26
434.257	3.28
434.613	3.28
434.969	3.24
435.325	3.25
435.681	3.25
436.036	3.25
436.392	3.25
436.748	3.24
437.104	3.24
437.459	3.21
437.815	3.23
438.171	3.23
438.526	3.24
438.882	3.22
439.237	3.24
439.593	3.25
439.948	3.26
440.304	3.24
440.659	3.25
441.014	3.25
441.369	3.25
441.725	3.25
442.08	3.23
442.435	3.24
442.79	3.22
443.145	3.2
443.5	3.22
443.855	3.22
444.21	3.21
444.565	3.22
444.92	3.25
445.275	3.24
445.629	3.24
445.984	3.24
446.339	3.25
446.693	3.24
447.048	3.24
447.403	3.23
447.757	3.22
448.112	3.2
448.466	3.19
448.82	3.19
449.175	3.19
449.529	3.2
449.883	3.19
450.238	3.19
450.592	3.2
450.946	3.17
451.3	3.2
451.654	3.2
452.008	3.19
452.362	3.16
452.716	3.16
453.07	3.15
453.424	3.11
453.778	3.11
454.132	3.1
454.486	3.11
454.839	3.11
455.193	3.13
455.547	3.14
455.9	3.15
456.254	3.14
456.607	3.13
456.961	3.12
457.314	3.15
457.668	3.16
458.021	3.15
458.375	3.16
458.728	3.14
459.081	3.13
459.434	3.15
459.787	3.16
460.141	3.17
460.494	3.19
460.847	3.19
461.2	3.18
461.553	3.19
461.906	3.17
462.259	3.17
462.611	3.17
462.964	3.17
463.317	3.19
463.67	3.2
464.022	3.18
464.375	3.18
464.728	3.15
465.08	3.15
465.433	3.15
465.785	3.17
466.138	3.18
466.49	3.19
466.843	3.18
467.195	3.17
467.547	3.16
467.899	3.17
468.252	3.19
468.604	3.15
468.956	3.16
469.308	3.19
469.66	3.19
470.012	3.19
470.364	3.2
470.716	3.19
471.068	3.21
471.42	3.26
471.772	3.26
472.123	3.29
472.475	3.29
472.827	3.31
473.178	3.31
473.53	3.3
473.882	3.32
474.233	3.34
474.585	3.34
474.936	3.36
475.288	3.35
475.639	3.33
475.99	3.36
476.342	3.38
476.693	3.36
477.044	3.37
477.395	3.36
477.746	3.37
478.097	3.39
478.448	3.38
478.8	3.37
479.15	3.37
479.501	3.34
479.852	3.33
480.203	3.32
480.554	3.31
480.905	3.32
481.255	3.32
481.606	3.32
481.957	3.32
482.307	3.33
482.658	3.34
483.009	3.34
483.359	3.34
483.709	3.34
484.06	3.35
484.41	3.36
484.761	3.36
485.111	3.35
485.461	3.33
485.811	3.33
486.162	3.33
486.512	3.33
486.862	3.36
487.212	3.36
487.562	3.36
487.912	3.38
488.262	3.37
488.612	3.36
488.961	3.36
489.311	3.35
489.661	3.34
490.011	3.33
490.36	3.33
490.71	3.34
491.06	3.34
491.409	3.33
491.759	3.33
492.108	3.33
492.458	3.33
492.807	3.35
493.157	3.35
493.506	3.36
493.855	3.36
494.204	3.35
494.554	3.37
494.903	3.38
495.252	3.38
495.601	3.4
495.95	3.42
496.299	3.44
496.648	3.48
496.997	3.49
497.346	3.54
497.695	3.57
498.043	3.61
498.392	3.64
498.741	3.66
499.09	3.7
499.438	3.73
499.787	3.79
500.135	3.79
500.484	3.82
500.832	3.83
501.181	3.89
501.529	3.9
501.878	3.93
502.226	3.98
502.574	4.02
502.923	4.04
503.271	4.1
503.619	4.15
503.967	4.16
504.315	4.2
504.663	4.23
505.011	4.28
505.359	4.33
505.707	4.38
506.055	4.43
506.403	4.47
506.751	4.54
507.098	4.58
507.446	4.65
507.794	4.7
508.141	4.77
508.489	4.82
508.837	4.91
509.184	4.95
509.531	5.02
509.879	5.08
510.226	5.15
510.574	5.21
510.921	5.26
511.268	5.35
511.616	5.44
511.963	5.5
512.31	5.6
512.657	5.65
513.004	5.73
513.351	5.81
513.698	5.92
514.045	6.01
514.392	6.11
514.739	6.22
515.086	6.37
515.432	6.48
515.779	6.58
516.126	6.68
516.473	6.76
516.819	6.85
517.166	6.94
517.512	7.04
517.859	7.12
518.205	7.21
518.552	7.3
518.898	7.38
519.245	7.48
519.591	7.55
519.937	7.67
520.283	7.77
520.629	7.88
520.976	7.97
521.322	8.07
521.668	8.2
522.014	8.32
522.36	8.42
522.706	8.56
523.052	8.69
523.398	8.84
523.743	9
524.089	9.14
524.435	9.27
524.781	9.42
525.126	9.54
525.472	9.68
525.817	9.78
526.163	9.89
526.509	9.99
526.854	10.08
527.199	10.17
527.545	10.25
527.89	10.33
528.235	10.42
528.581	10.51
528.926	10.6
529.271	10.68
529.616	10.77
529.961	10.85
530.306	10.94
530.651	11.03
530.996	11.14
531.341	11.25
531.686	11.38
532.031	11.48
532.376	11.6
532.721	11.69
533.065	11.8
533.41	11.9
533.755	12.02
534.099	12.14
534.444	12.26
534.788	12.41
535.133	12.54
535.477	12.68
535.822	12.81
536.166	12.95
536.51	13.11
536.855	13.3
537.199	13.47
537.543	13.64
537.887	13.83
538.231	14.01
538.576	14.19
538.92	14.34
539.264	14.52
539.608	14.71
539.951	14.89
540.295	15.09
540.639	15.28
540.983	15.44
541.327	15.64
541.671	15.8
542.014	15.95
542.358	16.11
542.701	16.28
543.045	16.45
543.389	16.6
543.732	16.77
544.075	16.91
544.419	17.08
544.762	17.27
545.105	17.48
545.449	17.67
545.792	17.9
546.135	18.16
546.478	18.41
546.821	18.65
547.165	18.89
547.508	19.12
547.851	19.34
548.194	19.58
548.536	19.8
548.879	20.06
549.222	20.31
549.565	20.55
549.908	20.78
550.25	21.02
550.593	21.28
550.936	21.57
551.278	21.83
551.621	22.1
551.963	22.42
552.306	22.68
552.648	22.94
552.991	23.17
553.333	23.41
553.675	23.65
554.017	23.92
554.36	24.22
554.702	24.48
555.044	24.76
555.386	25.06
555.728	25.29
556.07	25.5
556.412	25.76
556.754	26.06
557.096	26.38
557.438	26.69
557.78	26.96
558.121	27.25
558.463	27.57
558.805	27.9
559.147	28.15
559.488	28.44
559.83	28.72
560.171	28.91
560.513	29.2
560.854	29.49
561.196	29.76
561.537	30.06
561.878	30.27
562.22	30.61
562.561	30.91
562.902	31.21
563.243	31.56
563.584	31.9
563.925	32.18
564.266	32.41
564.607	32.71
564.948	33.02
565.289	33.29
565.63	33.51
565.971	33.77
566.312	34.05
566.653	34.29
566.993	34.59
567.334	34.93
567.675	35.19
568.015	35.44
568.356	35.71
568.696	35.91
569.037	36.17
569.377	36.4
569.718	36.64
570.058	36.91
570.398	37.08
570.739	37.3
571.079	37.47
571.419	37.75
571.759	37.94
572.099	38.15
572.439	38.36
572.779	38.54
573.119	38.76
573.459	38.91
573.799	39.13
574.139	39.28
574.479	39.41
574.819	39.61
575.158	39.8
575.498	39.99
575.838	40.28
576.177	40.45
576.517	40.58
576.856	40.75
577.196	40.93
577.535	41.1
577.875	41.25
578.214	41.48
578.553	41.65
578.893	41.83
579.232	42.05
579.571	42.2
579.91	42.49
580.25	42.66
580.589	42.91
580.928	43.09
581.267	43.28
581.606	43.57
581.945	43.75
582.283	43.89
582.622	44.05
582.961	44.16
583.3	44.44
583.639	44.65
583.977	44.82
584.316	45.05
584.654	45.33
584.993	45.49
585.332	45.68
585.67	45.75
586.008	45.96
586.347	46.08
586.685	46.23
587.024	46.31
587.362	46.49
587.7	46.64
588.038	46.75
588.376	46.9
588.715	47.02
589.053	47.12
589.391	47.3
589.729	47.41
590.067	47.52
590.404	47.64
590.742	47.84
591.08	47.97
591.418	48.02
591.756	48.17
592.093	48.33
592.431	48.46
592.769	48.61
593.106	48.67
593.444	48.77
593.781	48.89
594.119	49.03
594.456	49.04
594.793	49.07
595.131	49.26
595.468	49.37
595.805	49.41
596.143	49.48
596.48	49.53
596.817	49.63
597.154	49.76
597.491	49.8
597.828	49.82
598.165	49.91
598.502	50.03
598.839	50.08
599.176	50.19
599.512	50.24
599.849	50.36
600.186	50.47
600.523	50.5
600.859	50.59
601.196	50.71
601.532	50.83
601.869	50.92
602.205	50.9
602.542	50.94
602.878	51.01
603.215	51.1
603.551	51.19
603.887	51.29
604.223	51.31
604.56	51.27
604.896	51.37
605.232	51.38
605.568	51.46
605.904	51.46
606.24	51.47
606.576	51.55
606.912	51.56
607.248	51.6
607.583	51.66
607.919	51.74
608.255	51.77
608.591	51.87
608.926	51.96
609.262	52.02
609.597	52.13
609.933	52.27
610.268	52.33
610.604	52.37
610.939	52.32
611.275	52.39
611.61	52.55
611.945	52.6
612.281	52.77
612.616	52.84
612.951	52.96
613.286	53.01
613.621	53.01
613.956	53.12
614.291	53.2
614.626	53.35
614.961	53.44
615.296	53.54
615.631	53.57
615.966	53.66
616.3	53.72
616.635	53.81
616.97	53.79
617.304	53.84
617.639	53.94
617.973	54.07
618.308	54.14
618.642	54.27
618.977	54.25
619.311	54.14
619.646	54.06
619.98	54.08
620.314	54.14
620.648	54.14
620.983	54.18
621.317	54.22
621.651	54.19
621.985	54.15
622.319	54.11
622.653	54.05
622.987	54.05
623.321	54.05
623.655	53.93
623.988	54.04
624.322	54.14
624.656	54.15
624.99	54.16
625.323	54.05
625.657	54.01
625.99	54.1
626.324	54.25
626.657	54.25
626.991	54.29
627.324	54.29
627.658	54.45
627.991	54.45
628.324	54.44
628.657	54.46
628.991	54.52
629.324	54.58
629.657	54.69
629.99	54.84
630.323	54.85
630.656	54.92
630.989	54.95
631.322	54.95
631.655	54.94
631.987	54.92
632.32	54.96
632.653	54.98
632.986	54.94
633.318	55
633.651	55.14
633.984	55.26
634.316	55.34
634.649	55.34
634.981	55.43
635.313	55.53
635.646	55.55
635.978	55.58
636.31	55.56
636.643	55.54
636.975	55.43
637.307	55.42
637.639	55.49
637.971	55.4
638.303	55.36
638.635	55.35
638.967	55.48
639.299	55.58
639.631	55.6
639.963	55.66
640.295	55.59
640.626	55.52
640.958	55.4
641.29	55.38
641.621	55.37
641.953	55.28
642.285	55.25
642.616	55.36
642.948	55.41
643.279	55.38
643.61	55.4
643.942	55.42
644.273	55.4
644.604	55.37
644.936	55.48
645.267	55.67
645.598	55.72
645.929	55.68
646.26	55.75
646.591	55.83
646.922	55.88
647.253	55.96
647.584	56
647.915	56.05
648.245	56.09
648.576	56.09
648.907	56.26
649.238	56.27
649.568	56.36
649.899	56.33
650.229	56.45
650.56	56.56
650.89	56.59
651.221	56.73
651.551	56.79
651.882	56.82
652.212	56.69
652.542	56.69
652.872	56.62
653.203	56.59
653.533	56.63
653.863	56.7
654.193	56.62
654.523	56.64
654.853	56.66
655.183	56.61
655.513	56.7
655.843	56.67
656.172	56.78
656.502	56.71
656.832	56.67
657.162	56.72
657.491	56.67
657.821	56.64
658.15	56.7
658.48	56.72
658.809	56.77
659.139	56.69
659.468	56.78
659.798	56.84
660.127	56.88
660.456	56.92
660.785	56.89
661.115	56.92
661.444	56.98
661.773	57.19
662.102	57.28
662.431	57.24
662.76	57.22
663.089	57.11
663.418	57.17
663.747	57.21
664.076	57.04
664.404	57.15
664.733	57.17
665.062	57.24
665.39	57.2
665.719	57.04
666.048	57.13
666.376	56.99
666.705	57
667.033	56.97
667.362	56.93
667.69	56.95
668.018	56.94
668.347	57
668.675	56.69
669.003	56.79
669.331	56.71
669.659	56.67
669.987	56.67
670.315	56.61
670.643	56.67
670.971	56.83
671.299	56.72
671.627	56.7
671.955	56.6
672.283	56.72
672.61	56.83
672.938	56.83
673.266	56.92
673.593	57.02
673.921	57.03
674.249	56.92
674.576	56.93
674.904	56.98
675.231	56.87
675.558	57.14
675.886	57.09
676.213	57.25
676.54	57.26
676.867	57.32
677.195	57.48
677.522	57.52
677.849	57.32
678.176	57.21
678.503	57.32
678.83	57.38
679.157	57.23
679.484	57.25
679.81	57.29
680.137	57.44
680.464	57.45
680.791	57.51
681.117	57.56
681.444	57.55
681.771	57.56
682.097	57.57
682.424	57.34
682.75	57.2
683.077	57.14
683.403	57.21
683.729	57.27
684.056	57.06
684.382	56.94
684.708	57.1
685.034	57.19
685.36	57.13
685.686	57.13
686.012	57.22
686.339	57.12
686.664	57.08
686.99	56.75
687.316	56.79
687.642	56.53
687.968	56.61
688.294	56.64
688.619	56.5
688.945	56.61
689.271	56.71
689.596	56.98
689.922	57.01
690.247	57.07
690.573	57.12
690.898	57.08
691.224	57.03
691.549	56.99
691.874	57.05
692.2	57.01
692.525	57.11
692.85	57.09
693.175	57.09
693.5	57.2
693.825	57.53
694.15	57.48
694.475	57.64
694.8	57.71
695.125	57.58
695.45	57.76
695.775	57.67
696.099	57.75
696.424	57.66
696.749	57.64
697.073	57.66
697.398	57.62
697.723	57.68
698.047	57.76
698.372	57.82
698.696	57.93
699.02	58.08
699.345	57.96
699.669	58.03
699.993	58.14
700.318	58.2
700.642	58.08
700.966	58.15
701.29	58.24
701.614	58.09
701.938	57.99
702.262	58.05
702.586	58.2
702.91	58.06
703.234	57.89
703.557	57.91
703.881	57.86
704.205	57.75
704.529	57.9
704.852	58.05
705.176	58.01
705.499	57.89
705.823	57.8
706.146	57.74
706.47	57.77
706.793	57.68
707.117	57.52
707.44	57.54
707.763	57.5
708.086	57.36
708.409	57.48
708.733	57.7
709.056	57.39
709.379	57.29
709.702	57.44
710.025	57.72
710.348	57.66
710.671	57.69
710.993	57.68
711.316	57.54
711.639	57.38
711.962	57.44
712.284	57.36
712.607	57.31
712.93	57.42
713.252	57.38
713.575	57.66
713.897	57.69
714.22	57.83
714.542	57.77
714.864	57.85
715.187	57.79
715.509	57.77
715.831	57.78
716.153	57.8
716.475	57.81
716.798	57.66
717.12	57.69
717.442	57.59
717.764	57.74
718.085	57.76
718.407	57.85
718.729	57.99
719.051	58.13
719.373	58.21
719.695	58.38
720.016	58.32
720.338	58.08
720.659	57.99
720.981	57.86
721.302	57.99
721.624	58.23
721.945	58.31
722.267	58.4
722.588	58.57
722.909	58.62
723.231	58.71
723.552	58.82
723.873	58.78
724.194	58.76
724.515	58.52
724.836	58.57
725.157	58.64
725.478	58.55
725.799	58.5
726.12	58.4
726.441	57.96
726.762	57.88
727.083	57.9
727.403	58.08
727.724	58.03
728.045	57.89
728.365	57.74
728.686	57.47
729.006	57.18
729.327	57.25
729.647	57.42
729.967	57.29
730.288	57.24
730.608	57.23
730.928	57.36
731.249	57.53
731.569	57.52
731.889	57.55
732.209	57.25
732.529	56.95
732.849	56.85
733.169	56.92
733.489	56.9
733.809	57.01
734.129	56.85
734.448	56.98
734.768	56.91
735.088	56.98
735.408	57.14
735.727	57.21
736.047	56.99
736.366	56.72
736.686	56.61
737.005	56.59
737.325	56.44
737.644	56.32
737.963	56.12
738.283	56.27
738.602	55.94
738.921	56.24
739.24	56.4
739.56	56.5
739.879	56.55
740.198	56.8
740.517	56.64
740.836	56.67
741.155	56.71
741.473	56.85
741.792	56.55
742.111	56.57
742.43	57.03
742.748	57.28
743.067	57.29
743.386	57.25
743.704	57.19
744.023	57.33
744.341	57.44
744.66	57.42
744.978	57.21
745.297	57.36
745.615	57.32
745.933	57.57
746.252	57.73
746.57	57.94
746.888	57.81
747.206	57.86
747.524	57.9
747.842	57.82
748.16	57.5
748.478	57.7
748.796	58.2
749.114	57.81
749.432	57.84
749.749	57.71
750.067	57.91
750.385	58.23
750.703	58.3
751.02	58.23
751.338	58.36
751.655	58.32
751.973	58.55
752.29	58.66
752.608	58.44
752.925	58.4
753.242	58.43
753.56	58.52
753.877	58.33
754.194	58.5
754.511	58.35
754.828	58.13
755.145	58.24
755.462	57.57
755.779	57.71
756.096	57.26
756.413	57.6
756.73	57.63
757.047	57.41
757.364	57.59
757.68	57.56
757.997	57.82
758.314	57.78
758.63	57.48
758.947	57.24
759.264	57.13
759.58	57.08
759.896	57
760.213	56.76
760.529	56.93
760.846	56.61
761.162	56.54
761.478	56.98
761.794	57.11
762.11	57.05
762.426	57.02
762.743	56.87
763.059	56.71
763.375	56.35
763.69	56.42
764.006	56.3
764.322	56.46
764.638	56.38
764.954	56.59
765.27	56.57
765.585	56.86
765.901	56.77
766.216	56.79
766.532	56.81
766.848	57.21
767.163	56.94
767.478	57.22
767.794	57.44
768.109	57.32
768.424	57
768.74	57.06
769.055	57.25
769.37	57.62
769.685	57.73
770	58.45
770.315	58.54
770.63	58.82
770.945	58.74
771.26	58.36
771.575	58.13
771.89	58.59
772.205	58.31
772.52	58.45
772.834	58.68
773.149	58.72
773.464	58.23
773.778	58.43
774.093	58.72
774.407	58.69
774.722	58.93
775.036	59.24
775.351	59.01
775.665	58.76
775.979	59.12
776.293	58.87
776.608	58.53
776.922	58.41
777.236	58.05
777.55	57.8
777.864	58.55
778.178	58.85
778.492	58.16
778.806	58.14
779.12	58.62
779.434	58.29
779.747	58.15
780.061	58.8
780.375	58.64
780.689	57.86
781.002	57.65
781.316	57.45
781.629	57.38
781.943	57.76
782.256	57.57
782.57	57.32
782.883	57.15
783.196	57.49
783.51	58.05
783.823	58.35
784.136	58.63
784.449	58.12
784.762	58.25
785.075	58.42
785.388	58.99
785.701	59.28
786.014	59.56
786.327	59.7
786.64	59.06
786.953	59.39
787.266	60.01
787.578	59.96
787.891	60.04
788.204	59.84
788.516	59.22
788.829	59.76
789.141	59.67
789.454	60.11
789.766	59.66
790.079	59.39
790.391	58.78
790.703	58.65
791.016	58.77
791.328	58.21
791.64	58.26
791.952	57.76
792.264	57.15
792.576	56.83
792.888	56.42
793.2	56.44
793.512	56.39
793.824	56.03
794.136	55.63
794.448	55.33
794.76	55.46
795.071	56.15
795.383	55.24
795.695	55.49
796.006	55.47
796.318	55.45
796.629	55.36
796.941	55.74
797.252	55.75
797.564	56.17
797.875	56.6
798.186	56.25
798.497	56.06
798.809	56.16
799.12	56.13
799.431	56.09
799.742	56.55
800.053	56.36
800.364	56.36
800.675	57.11
800.986	57.62
801.297	57.41
801.608	57.49
801.918	58.16
802.229	58.04
802.54	57.74
802.851	57.69
803.161	56.9
803.472	57.29
803.782	57.43
804.093	56.97
804.403	56.97
804.714	57.75
805.024	58.08
805.334	58.27
805.645	58.32
805.955	58.7
806.265	58.18
806.575	57.54
806.885	57.2
807.195	57.11
807.505	56.61
807.815	56.53
808.125	56.64
808.435	56.57
808.745	56.17
809.055	56.74
809.365	56.97
809.674	57.32
809.984	57.05
810.294	57.02
810.603	56.47
810.913	56.28
811.222	56
811.532	55.96
811.841	55.69
812.151	55.29
812.46	54.86
812.769	54.91
813.079	56.4
813.388	56.71
813.697	56.16
814.006	56.07
814.315	56.39
814.624	56.19
814.933	56.15
815.242	56.63
815.551	55.92
815.86	56.44
816.169	56.09
816.478	55.38
816.786	55.26
817.095	56.03
817.404	55.78
817.712	56.52
818.021	56.76
818.33	56.75
818.638	57.11
818.947	56.93
819.255	57.1
819.563	56.78
819.872	56.88
820.18	56.9
820.488	57.28
820.796	57.41
821.105	57.72
821.413	58
821.721	58
822.029	58.2
822.337	58.05
822.645	58.31
822.953	58.5
823.26	58.4
823.568	58.25
823.876	58.14
824.184	57.8
824.491	57.6
824.799	57.57
825.107	57.63
825.414	57.79
825.722	57.95
826.029	57.94
826.337	57.99
826.644	58.37
826.951	58.2
827.259	57.97
827.566	57.74
827.873	57.46
828.18	57.39
828.488	57.29
828.795	57.26
829.102	57.02
829.409	56.87
829.716	56.72
830.023	56.7
830.329	56.71
830.636	56.49
830.943	56.55
831.25	56.77
831.557	56.65
831.863	56.51
832.17	55.72
832.476	55.77
832.783	55.83
833.089	55.2
833.396	55.3
833.702	55.34
834.009	55.24
834.315	55.27
834.621	55.42
834.928	55.96
835.234	55.63
835.54	55.74
835.846	55.82
836.152	56.37
836.458	56.54
836.764	57.21
837.07	57.72
837.376	57.83
837.682	57.84
837.988	57.99
838.293	57.94
838.599	58.34
838.905	57.98
839.211	58.18
839.516	58.51
839.822	59.08
840.127	59.73
840.433	60.45
840.738	60.73
841.044	60.53
841.349	59.87
841.654	60.88
841.959	60.41
842.265	60.67
842.57	60.48
842.875	60.34
843.18	60.2
843.485	60.72
843.79	60.58
844.095	61.48
844.4	61.81
844.705	62.21
845.01	63.39
845.315	64
845.619	64.27
845.924	63.37
846.229	61.8
846.533	61.03
846.838	58.81
847.142	57.58
847.447	57.78
847.751	57.13
848.056	55.83
848.36	56.29
848.664	56.49
848.969	55.56
849.273	55
849.577	52.7
849.881	51.37
850.185	51.14
850.489	49.76
850.794	48.81
851.097	49.05
851.401	46.77
851.705	47.15
852.009	47.29
852.313	47.67
852.617	46.92
852.92	47
853.224	48.62
853.528	51.12
853.831	49.97
854.135	49.9
854.438	49.88
854.742	50.95
855.045	50.08
855.349	50.84
855.652	51.79
855.955	52.91
856.259	53.53
856.562	53.44
856.865	54.51
857.168	55.83
857.471	54.25
857.774	54.79
858.077	56
858.38	54.36
858.683	53.33
858.986	55.66
859.289	57.86
859.592	57.31
859.894	55.07
860.197	56.42
860.5	55.96
860.802	57.24
861.105	56.14
861.407	55.07
861.71	53.78
862.012	51.37
862.315	52.16
862.617	54
862.919	53.31
863.222	50.71
863.524	50.07
863.826	50.91
864.128	52.24
864.43	51.25
864.732	52.58
865.034	56.31
865.336	56.53
865.638	56.3
865.94	58.68
866.242	59.8
866.544	58.21
866.846	57.9
867.147	57.07
867.449	60.98
867.751	59.1
868.052	59.84
868.354	62.12
868.655	60.97
868.957	59.39
869.258	58.18
869.56	58.84
869.861	56.36
870.162	56.49
870.463	53.08
870.765	54.81
871.066	55.63
871.367	52.33
871.668	51.94
871.969	49.18
872.27	47.86
872.571	49.38
872.872	48.75
873.173	48.62
873.473	49.62
873.774	46.1
874.075	47.41
874.376	45.63
874.676	47.05
874.977	45.78
875.277	44.16
875.578	45.89
875.878	46.39
876.179	47.67
876.479	47.42
876.78	49.05
877.08	46.85
877.38	43.04
877.68	44.4
877.981	42.99
878.281	45.39
878.581	44.66
