Data from MVZ_BU78245_Reflection_00005.txt Node
Date: Tue Nov 19 12:01:07 EST 2019
User: vgr7
Spectrometer: USB2G7710
Scans to average: 3
Trigger mode: 4
Integration Time (sec): 2.000000E-2
Electric dark correction enabled: true
Boxcar width: 10
XAxis mode: Wavelengths
Number of Pixels in Spectrum: 2048
>>>>>Begin Spectral Data<<<<<
177.721	1293.18
178.105	488.89
178.488	-146.95
178.871	-800
179.254	131.25
179.636	240.19
180.019	71.8
180.402	-262.5
180.785	29.69
181.168	112.3
181.55	778.57
181.933	-40.63
182.316	30.56
182.698	72.22
183.081	-9.38
183.463	44.81
183.846	71.49
184.228	20.96
184.611	30.2
184.993	41.25
185.376	78.52
185.758	127.78
186.14	88.64
186.522	102.91
186.904	81.25
187.287	78.19
187.669	101.52
188.051	29.69
188.433	25.98
188.815	11.49
189.197	7.28
189.579	-1.93
189.961	19.53
190.342	14.96
190.724	-10.75
191.106	-10.56
191.488	-36.03
191.869	-33.55
192.251	-20.45
192.633	-23.92
193.014	-10.29
193.396	-1.44
193.777	1.46
194.159	-10.1
194.54	5.22
194.922	-6.2
195.303	-4.32
195.684	-15.54
196.065	2.74
196.447	-3.47
196.828	-0.95
197.209	-9.29
197.59	-16.55
197.971	-23.45
198.352	-19.07
198.733	-23.55
199.114	-30.21
199.495	-22.67
199.876	-23.34
200.257	-28.06
200.638	-24.1
201.018	-33.86
201.399	-27.51
201.78	-33.46
202.16	-28.26
202.541	-47.73
202.922	-37.86
203.302	-40.76
203.683	-35.33
204.063	-35.92
204.444	-28.3
204.824	-32.61
205.204	-36.44
205.585	-18.34
205.965	-13.8
206.345	-15.46
206.725	-4.02
207.106	14.87
207.486	26.36
207.866	27.55
208.246	26.43
208.626	12.89
209.006	19.81
209.386	4.99
209.766	-6.6
210.145	1.7
210.525	-2.31
210.905	-2.62
211.285	4.21
211.664	1.92
212.044	-1.6
212.424	6.99
212.803	18.68
213.183	26.52
213.562	24.6
213.942	29.44
214.321	23.66
214.701	18.05
215.08	4.2
215.459	19.04
215.838	12.56
216.218	-15.03
216.597	5.5
216.976	6.05
217.355	3.74
217.734	16.24
218.113	-3.59
218.492	21.47
218.871	-1.67
219.25	-19.51
219.629	-34.74
220.008	-10.95
220.387	-16.67
220.766	-26.52
221.144	-23.04
221.523	-26.09
221.902	-28.19
222.28	-25.57
222.659	-23.33
223.037	-10.68
223.416	-22.4
223.794	-16.36
224.173	-11.85
224.551	-6.12
224.929	-15.82
225.308	-10.24
225.686	-9.07
226.064	-10.51
226.442	-12.5
226.821	-7.86
227.199	-6.41
227.577	-3.87
227.955	-5.87
228.333	-7.37
228.711	-5.55
229.089	-5.5
229.467	-2.92
229.845	-3.49
230.222	-0.5
230.6	1.37
230.978	0.93
231.356	1.65
231.733	-2.12
232.111	-1.71
232.488	-1.35
232.866	-0.02
233.243	-1.41
233.621	-1.61
233.998	1.22
234.376	2.2
234.753	-0.96
235.13	-0.1
235.508	-0.06
235.885	0.42
236.262	0.56
236.639	-0.05
237.016	0.87
237.393	1.2
237.77	2.86
238.147	2.97
238.524	1.56
238.901	0.93
239.278	0.58
239.655	1.76
240.032	2.56
240.409	1.56
240.785	2.18
241.162	2.37
241.539	2.55
241.915	2.89
242.292	3.3
242.668	3.64
243.045	3.55
243.421	3.91
243.798	3.9
244.174	3.93
244.551	4.14
244.927	4.15
245.303	4.03
245.679	4.07
246.056	4.27
246.432	4.62
246.808	5.09
247.184	5.35
247.56	5.26
247.936	5.15
248.312	5.57
248.688	5.58
249.064	5.45
249.44	5.28
249.815	5.13
250.191	5.17
250.567	5.24
250.943	5.43
251.318	5.22
251.694	4.9
252.069	4.81
252.445	4.81
252.82	4.51
253.196	4.56
253.571	4.51
253.947	4.02
254.322	3.68
254.697	3.52
255.073	3.45
255.448	3.68
255.823	3.49
256.198	3.45
256.573	3.47
256.948	3.93
257.323	4.07
257.698	3.93
258.073	3.68
258.448	3.77
258.823	3.38
259.198	3.56
259.573	3.69
259.948	3.89
260.322	3.71
260.697	3.92
261.072	3.8
261.446	3.9
261.821	3.84
262.195	3.89
262.57	3.74
262.944	3.9
263.319	3.87
263.693	4.14
264.067	4.04
264.442	3.99
264.816	3.86
265.19	3.74
265.564	3.95
265.938	4.2
266.313	4.41
266.687	4.71
267.061	4.72
267.435	4.8
267.809	4.42
268.183	4.52
268.556	4.59
268.93	4.72
269.304	4.42
269.678	4.62
270.051	4.85
270.425	4.91
270.799	4.62
271.172	4.61
271.546	4.4
271.919	4.43
272.293	4.47
272.666	4.38
273.04	4.42
273.413	4.18
273.787	4.13
274.16	3.95
274.533	4
274.906	3.98
275.279	3.86
275.653	3.95
276.026	4.04
276.399	3.8
276.772	3.76
277.145	3.82
277.518	3.68
277.891	3.47
278.263	3.63
278.636	3.76
279.009	3.77
279.382	3.67
279.755	3.71
280.127	3.78
280.5	3.74
280.872	3.72
281.245	3.95
281.617	3.85
281.99	3.85
282.362	3.68
282.735	3.56
283.107	3.53
283.479	3.56
283.852	3.7
284.224	3.81
284.596	3.75
284.968	3.91
285.34	3.73
285.713	3.8
286.085	3.61
286.457	3.67
286.829	3.73
287.201	3.8
287.572	3.8
287.944	3.71
288.316	3.66
288.688	3.76
289.06	3.62
289.431	3.72
289.803	3.66
290.175	3.63
290.546	3.73
290.918	3.8
291.289	3.58
291.661	3.39
292.032	3.44
292.403	3.38
292.775	3.27
293.146	3.48
293.517	3.44
293.889	3.42
294.26	3.4
294.631	3.33
295.002	3.32
295.373	3.37
295.744	3.5
296.115	3.51
296.486	3.4
296.857	3.5
297.228	3.39
297.599	3.39
297.97	3.6
298.34	3.65
298.711	3.68
299.082	3.87
299.452	3.85
299.823	3.83
300.194	3.89
300.564	3.78
300.935	3.72
301.305	3.64
301.676	3.63
302.046	3.63
302.416	3.66
302.787	3.74
303.157	3.56
303.527	3.55
303.897	3.68
304.267	3.89
304.637	3.85
305.008	4.03
305.378	4.06
305.748	3.95
306.117	3.86
306.487	3.88
306.857	3.84
307.227	4.04
307.597	3.88
307.967	3.76
308.336	3.79
308.706	3.95
309.076	4.1
309.445	4.13
309.815	4.06
310.184	3.97
310.554	3.9
310.923	3.99
311.293	3.92
311.662	3.78
312.031	3.57
312.401	3.59
312.77	3.43
313.139	3.38
313.508	3.29
313.877	3.23
314.246	3.22
314.616	3.28
314.985	3.04
315.353	3.1
315.722	3.38
316.091	3.41
316.46	3.29
316.829	3.11
317.198	3.21
317.567	3.3
317.935	3.2
318.304	3.35
318.672	3.19
319.041	3.13
319.41	3.25
319.778	3.38
320.147	3.28
320.515	3.48
320.883	3.44
321.252	3.55
321.62	3.46
321.988	3.49
322.357	3.55
322.725	3.75
323.093	3.68
323.461	3.63
323.829	3.7
324.197	3.58
324.565	3.67
324.933	3.59
325.301	3.51
325.669	3.59
326.037	3.46
326.405	3.58
326.772	3.75
327.14	3.7
327.508	3.64
327.875	3.58
328.243	3.31
328.61	3.37
328.978	3.35
329.346	3.56
329.713	3.49
330.08	3.49
330.448	3.28
330.815	3.27
331.182	3.1
331.55	3.17
331.917	3.17
332.284	3.22
332.651	3.22
333.018	3.2
333.385	3.28
333.752	3.41
334.119	3.36
334.486	3.15
334.853	3.18
335.22	3.17
335.587	3.35
335.954	3.39
336.32	3.37
336.687	3.38
337.054	3.28
337.42	3.33
337.787	3.17
338.153	3.23
338.52	3.24
338.886	3.33
339.253	3.14
339.619	3.35
339.986	3.16
340.352	3.1
340.718	3.04
341.084	2.92
341.451	2.84
341.817	2.89
342.183	3
342.549	2.94
342.915	3.01
343.281	2.92
343.647	3.09
344.013	3.17
344.379	3.17
344.745	3.16
345.11	3.14
345.476	3.24
345.842	3.24
346.208	3.31
346.573	3.26
346.939	3.43
347.304	3.4
347.67	3.45
348.035	3.39
348.401	3.41
348.766	3.41
349.132	3.44
349.497	3.48
349.862	3.46
350.228	3.61
350.593	3.51
350.958	3.54
351.323	3.45
351.688	3.38
352.053	3.35
352.418	3.29
352.783	3.2
353.148	3.14
353.513	3.18
353.878	3.11
354.243	3.1
354.608	2.99
354.972	2.95
355.337	3.07
355.702	3.15
356.066	3.23
356.431	3.23
356.795	3.14
357.16	3.15
357.524	3.14
357.889	3.08
358.253	3.07
358.618	3.1
358.982	3.09
359.346	3.12
359.71	3.1
360.075	3.13
360.439	3.22
360.803	3.32
361.167	3.26
361.531	3.33
361.895	3.36
362.259	3.44
362.623	3.37
362.987	3.39
363.351	3.32
363.714	3.26
364.078	3.31
364.442	3.32
364.806	3.27
365.169	3.22
365.533	3.21
365.896	3.31
366.26	3.22
366.623	3.24
366.987	3.23
367.35	3.25
367.714	3.34
368.077	3.32
368.44	3.29
368.803	3.33
369.167	3.25
369.53	3.31
369.893	3.26
370.256	3.25
370.619	3.15
370.982	3.16
371.345	3.2
371.708	3.11
372.071	3.12
372.434	3.17
372.797	3.19
373.159	3.19
373.522	3.15
373.885	3.25
374.247	3.26
374.61	3.28
374.973	3.35
375.335	3.37
375.698	3.36
376.06	3.31
376.423	3.28
376.785	3.35
377.147	3.32
377.51	3.28
377.872	3.33
378.234	3.36
378.596	3.42
378.958	3.4
379.321	3.44
379.683	3.45
380.045	3.37
380.407	3.38
380.769	3.34
381.13	3.3
381.492	3.24
381.854	3.24
382.216	3.25
382.578	3.17
382.939	3.13
383.301	3.09
383.663	3.16
384.024	3.2
384.386	3.1
384.747	3.09
385.109	3.09
385.47	3.11
385.832	3.09
386.193	3.09
386.554	3.02
386.916	3.04
387.277	3.01
387.638	3.06
387.999	3.1
388.36	3.14
388.721	3.18
389.082	3.18
389.443	3.17
389.804	3.19
390.165	3.27
390.526	3.25
390.887	3.27
391.248	3.22
391.609	3.24
391.969	3.29
392.33	3.26
392.691	3.3
393.051	3.27
393.412	3.28
393.772	3.28
394.133	3.36
394.493	3.32
394.854	3.36
395.214	3.35
395.574	3.34
395.935	3.34
396.295	3.3
396.655	3.33
397.015	3.32
397.376	3.29
397.736	3.25
398.096	3.24
398.456	3.25
398.816	3.29
399.176	3.22
399.535	3.21
399.895	3.2
400.255	3.2
400.615	3.2
400.975	3.2
401.334	3.19
401.694	3.16
402.054	3.19
402.413	3.2
402.773	3.21
403.132	3.2
403.492	3.2
403.851	3.24
404.211	3.22
404.57	3.24
404.929	3.24
405.288	3.27
405.648	3.28
406.007	3.29
406.366	3.29
406.725	3.29
407.084	3.32
407.443	3.34
407.802	3.3
408.161	3.32
408.52	3.35
408.879	3.37
409.238	3.39
409.596	3.38
409.955	3.35
410.314	3.36
410.673	3.35
411.031	3.36
411.39	3.39
411.748	3.4
412.107	3.36
412.465	3.38
412.824	3.35
413.182	3.37
413.54	3.35
413.899	3.32
414.257	3.35
414.615	3.32
414.974	3.31
415.332	3.33
415.69	3.31
416.048	3.29
416.406	3.27
416.764	3.26
417.122	3.24
417.48	3.25
417.838	3.24
418.195	3.25
418.553	3.22
418.911	3.2
419.269	3.21
419.626	3.22
419.984	3.2
420.342	3.22
420.699	3.21
421.057	3.2
421.414	3.2
421.772	3.21
422.129	3.22
422.486	3.22
422.844	3.21
423.201	3.22
423.558	3.23
423.915	3.24
424.273	3.24
424.63	3.26
424.987	3.26
425.344	3.26
425.701	3.27
426.058	3.3
426.415	3.3
426.772	3.3
427.128	3.31
427.485	3.33
427.842	3.3
428.199	3.3
428.555	3.33
428.912	3.33
429.269	3.31
429.625	3.31
429.982	3.32
430.338	3.37
430.695	3.35
431.051	3.33
431.407	3.31
431.764	3.31
432.12	3.31
432.476	3.32
432.832	3.33
433.189	3.32
433.545	3.29
433.901	3.29
434.257	3.29
434.613	3.28
434.969	3.27
435.325	3.28
435.681	3.29
436.036	3.26
436.392	3.28
436.748	3.27
437.104	3.26
437.459	3.26
437.815	3.25
438.171	3.26
438.526	3.28
438.882	3.28
439.237	3.27
439.593	3.26
439.948	3.27
440.304	3.25
440.659	3.28
441.014	3.29
441.369	3.27
441.725	3.27
442.08	3.27
442.435	3.28
442.79	3.29
443.145	3.28
443.5	3.3
443.855	3.27
444.21	3.3
444.565	3.32
444.92	3.33
445.275	3.3
445.629	3.3
445.984	3.28
446.339	3.28
446.693	3.28
447.048	3.28
447.403	3.28
447.757	3.26
448.112	3.24
448.466	3.24
448.82	3.24
449.175	3.24
449.529	3.23
449.883	3.23
450.238	3.22
450.592	3.22
450.946	3.24
451.3	3.25
451.654	3.23
452.008	3.21
452.362	3.19
452.716	3.2
453.07	3.22
453.424	3.24
453.778	3.25
454.132	3.25
454.486	3.27
454.839	3.28
455.193	3.29
455.547	3.3
455.9	3.32
456.254	3.32
456.607	3.32
456.961	3.32
457.314	3.33
457.668	3.34
458.021	3.35
458.375	3.34
458.728	3.33
459.081	3.33
459.434	3.35
459.787	3.36
460.141	3.36
460.494	3.35
460.847	3.34
461.2	3.34
461.553	3.36
461.906	3.35
462.259	3.35
462.611	3.35
462.964	3.37
463.317	3.34
463.67	3.35
464.022	3.38
464.375	3.37
464.728	3.35
465.08	3.34
465.433	3.34
465.785	3.32
466.138	3.32
466.49	3.33
466.843	3.34
467.195	3.36
467.547	3.34
467.899	3.36
468.252	3.35
468.604	3.36
468.956	3.34
469.308	3.33
469.66	3.31
470.012	3.34
470.364	3.33
470.716	3.33
471.068	3.35
471.42	3.33
471.772	3.33
472.123	3.36
472.475	3.38
472.827	3.36
473.178	3.37
473.53	3.39
473.882	3.39
474.233	3.38
474.585	3.34
474.936	3.34
475.288	3.34
475.639	3.35
475.99	3.33
476.342	3.36
476.693	3.38
477.044	3.37
477.395	3.37
477.746	3.37
478.097	3.38
478.448	3.36
478.8	3.36
479.15	3.35
479.501	3.35
479.852	3.34
480.203	3.38
480.554	3.37
480.905	3.37
481.255	3.38
481.606	3.38
481.957	3.41
482.307	3.41
482.658	3.41
483.009	3.4
483.359	3.41
483.709	3.41
484.06	3.42
484.41	3.42
484.761	3.42
485.111	3.42
485.461	3.42
485.811	3.42
486.162	3.43
486.512	3.43
486.862	3.43
487.212	3.44
487.562	3.42
487.912	3.44
488.262	3.44
488.612	3.45
488.961	3.45
489.311	3.44
489.661	3.45
490.011	3.45
490.36	3.45
490.71	3.45
491.06	3.44
491.409	3.42
491.759	3.41
492.108	3.41
492.458	3.4
492.807	3.41
493.157	3.4
493.506	3.39
493.855	3.39
494.204	3.39
494.554	3.38
494.903	3.38
495.252	3.36
495.601	3.33
495.95	3.3
496.299	3.3
496.648	3.29
496.997	3.28
497.346	3.29
497.695	3.28
498.043	3.3
498.392	3.3
498.741	3.33
499.09	3.37
499.438	3.39
499.787	3.4
500.135	3.4
500.484	3.41
500.832	3.43
501.181	3.44
501.529	3.46
501.878	3.46
502.226	3.48
502.574	3.49
502.923	3.5
503.271	3.53
503.619	3.54
503.967	3.52
504.315	3.53
504.663	3.53
505.011	3.53
505.359	3.48
505.707	3.48
506.055	3.48
506.403	3.45
506.751	3.45
507.098	3.45
507.446	3.44
507.794	3.44
508.141	3.44
508.489	3.42
508.837	3.4
509.184	3.41
509.531	3.4
509.879	3.39
510.226	3.41
510.574	3.4
510.921	3.38
511.268	3.39
511.616	3.38
511.963	3.4
512.31	3.41
512.657	3.44
513.004	3.44
513.351	3.45
513.698	3.46
514.045	3.45
514.392	3.45
514.739	3.46
515.086	3.49
515.432	3.49
515.779	3.48
516.126	3.49
516.473	3.49
516.819	3.5
517.166	3.51
517.512	3.51
517.859	3.51
518.205	3.5
518.552	3.5
518.898	3.53
519.245	3.52
519.591	3.54
519.937	3.54
520.283	3.54
520.629	3.52
520.976	3.53
521.322	3.54
521.668	3.53
522.014	3.53
522.36	3.51
522.706	3.51
523.052	3.53
523.398	3.51
523.743	3.52
524.089	3.52
524.435	3.53
524.781	3.54
525.126	3.54
525.472	3.58
525.817	3.58
526.163	3.56
526.509	3.57
526.854	3.57
527.199	3.57
527.545	3.57
527.89	3.58
528.235	3.59
528.581	3.6
528.926	3.61
529.271	3.61
529.616	3.62
529.961	3.62
530.306	3.62
530.651	3.63
530.996	3.64
531.341	3.66
531.686	3.66
532.031	3.67
532.376	3.67
532.721	3.65
533.065	3.65
533.41	3.67
533.755	3.67
534.099	3.68
534.444	3.69
534.788	3.7
535.133	3.7
535.477	3.7
535.822	3.69
536.166	3.67
536.51	3.67
536.855	3.68
537.199	3.67
537.543	3.67
537.887	3.68
538.231	3.66
538.576	3.65
538.92	3.64
539.264	3.64
539.608	3.64
539.951	3.62
540.295	3.64
540.639	3.64
540.983	3.62
541.327	3.62
541.671	3.61
542.014	3.62
542.358	3.62
542.701	3.62
543.045	3.62
543.389	3.64
543.732	3.64
544.075	3.61
544.419	3.62
544.762	3.62
545.105	3.63
545.449	3.64
545.792	3.65
546.135	3.66
546.478	3.67
546.821	3.67
547.165	3.69
547.508	3.69
547.851	3.69
548.194	3.67
548.536	3.68
548.879	3.69
549.222	3.67
549.565	3.66
549.908	3.64
550.25	3.64
550.593	3.61
550.936	3.62
551.278	3.67
551.621	3.66
551.963	3.67
552.306	3.65
552.648	3.64
552.991	3.63
553.333	3.63
553.675	3.63
554.017	3.63
554.36	3.65
554.702	3.64
555.044	3.66
555.386	3.66
555.728	3.65
556.07	3.63
556.412	3.61
556.754	3.6
557.096	3.63
557.438	3.62
557.78	3.67
558.121	3.64
558.463	3.62
558.805	3.63
559.147	3.65
559.488	3.64
559.83	3.64
560.171	3.64
560.513	3.63
560.854	3.61
561.196	3.61
561.537	3.62
561.878	3.65
562.22	3.64
562.561	3.66
562.902	3.64
563.243	3.68
563.584	3.7
563.925	3.74
564.266	3.72
564.607	3.73
564.948	3.72
565.289	3.74
565.63	3.71
565.971	3.7
566.312	3.68
566.653	3.71
566.993	3.7
567.334	3.69
567.675	3.65
568.015	3.67
568.356	3.68
568.696	3.66
569.037	3.66
569.377	3.65
569.718	3.64
570.058	3.67
570.398	3.63
570.739	3.63
571.079	3.61
571.419	3.62
571.759	3.61
572.099	3.6
572.439	3.6
572.779	3.61
573.119	3.61
573.459	3.61
573.799	3.6
574.139	3.6
574.479	3.62
574.819	3.65
575.158	3.62
575.498	3.61
575.838	3.61
576.177	3.59
576.517	3.6
576.856	3.57
577.196	3.58
577.535	3.57
577.875	3.57
578.214	3.58
578.553	3.6
578.893	3.61
579.232	3.62
579.571	3.62
579.91	3.64
580.25	3.65
580.589	3.64
580.928	3.65
581.267	3.66
581.606	3.66
581.945	3.64
582.283	3.68
582.622	3.7
582.961	3.71
583.3	3.71
583.639	3.75
583.977	3.78
584.316	3.76
584.654	3.8
584.993	3.78
585.332	3.78
585.67	3.78
586.008	3.76
586.347	3.75
586.685	3.73
587.024	3.69
587.362	3.69
587.7	3.75
588.038	3.77
588.376	3.77
588.715	3.81
589.053	3.82
589.391	3.78
589.729	3.79
590.067	3.78
590.404	3.8
590.742	3.75
591.08	3.75
591.418	3.76
591.756	3.77
592.093	3.76
592.431	3.79
592.769	3.78
593.106	3.8
593.444	3.83
593.781	3.85
594.119	3.89
594.456	3.88
594.793	3.83
595.131	3.76
595.468	3.8
595.805	3.79
596.143	3.82
596.48	3.84
596.817	3.82
597.154	3.84
597.491	3.84
597.828	3.84
598.165	3.83
598.502	3.82
598.839	3.79
599.176	3.79
599.512	3.74
599.849	3.74
600.186	3.74
600.523	3.71
600.859	3.71
601.196	3.7
601.532	3.7
601.869	3.74
602.205	3.77
602.542	3.73
602.878	3.73
603.215	3.73
603.551	3.72
603.887	3.7
604.223	3.7
604.56	3.73
604.896	3.77
605.232	3.75
605.568	3.79
605.904	3.77
606.24	3.81
606.576	3.84
606.912	3.82
607.248	3.83
607.583	3.86
607.919	3.89
608.255	3.87
608.591	3.9
608.926	3.87
609.262	3.86
609.597	3.89
609.933	3.87
610.268	3.86
610.604	3.86
610.939	3.88
611.275	3.88
611.61	3.86
611.945	3.82
612.281	3.82
612.616	3.82
612.951	3.87
613.286	3.84
613.621	3.78
613.956	3.84
614.291	3.83
614.626	3.78
614.961	3.77
615.296	3.81
615.631	3.79
615.966	3.78
616.3	3.83
616.635	3.84
616.97	3.85
617.304	3.84
617.639	3.87
617.973	3.88
618.308	3.85
618.642	3.82
618.977	3.81
619.311	3.77
619.646	3.77
619.98	3.82
620.314	3.85
620.648	3.89
620.983	3.84
621.317	3.83
621.651	3.86
621.985	3.84
622.319	3.83
622.653	3.89
622.987	3.85
623.321	3.78
623.655	3.76
623.988	3.75
624.322	3.76
624.656	3.76
624.99	3.73
625.323	3.73
625.657	3.73
625.99	3.72
626.324	3.76
626.657	3.72
626.991	3.69
627.324	3.66
627.658	3.67
627.991	3.76
628.324	3.78
628.657	3.76
628.991	3.72
629.324	3.73
629.657	3.65
629.99	3.68
630.323	3.72
630.656	3.68
630.989	3.72
631.322	3.74
631.655	3.71
631.987	3.73
632.32	3.78
632.653	3.79
632.986	3.8
633.318	3.84
633.651	3.86
633.984	3.85
634.316	3.85
634.649	3.85
634.981	3.75
635.313	3.79
635.646	3.83
635.978	3.88
636.31	3.9
636.643	3.92
636.975	3.97
637.307	3.97
637.639	4.03
637.971	3.97
638.303	3.96
638.635	3.97
638.967	4.03
639.299	4.03
639.631	4
639.963	4.09
640.295	4.13
640.626	4.14
640.958	4.16
641.29	4.17
641.621	4.16
641.953	4.19
642.285	4.19
642.616	4.18
642.948	4.17
643.279	4.12
643.61	4.2
643.942	4.21
644.273	4.25
644.604	4.24
644.936	4.26
645.267	4.18
645.598	4.16
645.929	4.07
646.26	4.03
646.591	4.04
646.922	4.02
647.253	3.95
647.584	3.94
647.915	3.94
648.245	3.99
648.576	3.97
648.907	3.97
649.238	3.96
649.568	3.96
649.899	4
650.229	4.06
650.56	4
650.89	3.99
651.221	3.92
651.551	3.92
651.882	3.92
652.212	4.05
652.542	4.04
652.872	4.09
653.203	4.16
653.533	4.19
653.863	4.13
654.193	4.14
654.523	4.14
654.853	4.17
655.183	4.11
655.513	4.15
655.843	4.16
656.172	4.11
656.502	4.08
656.832	4.05
657.162	4.06
657.491	4.09
657.821	4.04
658.15	4.13
658.48	4.14
658.809	4.12
659.139	4.1
659.468	4.12
659.798	4.14
660.127	4.05
660.456	4.05
660.785	4.08
661.115	4.16
661.444	4.18
661.773	4.12
662.102	4.1
662.431	4.07
662.76	4.09
663.089	4.13
663.418	4.12
663.747	4.07
664.076	4.07
664.404	4.03
664.733	4.05
665.062	4.04
665.39	4.02
665.719	4.09
666.048	4.04
666.376	4.01
666.705	4
667.033	3.97
667.362	4.01
667.69	4.02
668.018	3.94
668.347	3.92
668.675	4.01
669.003	4.09
669.331	4.19
669.659	4.13
669.987	4.14
670.315	4.15
670.643	4.12
670.971	4.12
671.299	4.06
671.627	4.09
671.955	3.99
672.283	3.98
672.61	3.98
672.938	4.04
673.266	4.04
673.593	3.96
673.921	4.04
674.249	4.02
674.576	4.13
674.904	4.15
675.231	4.1
675.558	4.11
675.886	4.12
676.213	4.06
676.54	4.14
676.867	4.06
677.195	4.08
677.522	4.14
677.849	4.15
678.176	4.32
678.503	4.35
678.83	4.38
679.157	4.43
679.484	4.46
679.81	4.4
680.137	4.51
680.464	4.69
680.791	4.66
681.117	4.72
681.444	4.62
681.771	4.65
682.097	4.77
682.424	4.66
682.75	4.63
683.077	4.63
683.403	4.54
683.729	4.58
684.056	4.58
684.382	4.7
684.708	4.66
685.034	4.61
685.36	4.52
685.686	4.52
686.012	4.55
686.339	4.38
686.664	4.46
686.99	4.33
687.316	4.16
687.642	4.22
687.968	4.19
688.294	4.25
688.619	4.22
688.945	4.14
689.271	4.15
689.596	4.1
689.922	4.13
690.247	4.13
690.573	4.12
690.898	4.16
691.224	4.08
691.549	4.12
691.874	4.04
692.2	4.1
692.525	4.06
692.85	4.15
693.175	4.28
693.5	4.16
693.825	4.32
694.15	4.27
694.475	4.21
694.8	4.15
695.125	4
695.45	3.96
695.775	3.84
696.099	4.03
696.424	4.05
696.749	4.15
697.073	4.22
697.398	4.29
697.723	4.23
698.047	4.27
698.372	4.24
698.696	4.24
699.02	4.22
699.345	4.27
699.669	4.2
699.993	4.09
700.318	4.27
700.642	4.15
700.966	4.19
701.29	4.27
701.614	4.28
701.938	4.33
702.262	4.38
702.586	4.52
702.91	4.35
703.234	4.35
703.557	4.16
703.881	4.11
704.205	3.99
704.529	4.08
704.852	4.07
705.176	4.09
705.499	4.17
705.823	4.28
706.146	4.37
706.47	4.44
706.793	4.62
707.117	4.51
707.44	4.72
707.763	4.85
708.086	4.82
708.409	4.79
708.733	4.86
709.056	4.82
709.379	4.81
709.702	4.82
710.025	4.95
710.348	4.94
710.671	5.07
710.993	5.14
711.316	5.16
711.639	5.22
711.962	5.24
712.284	5.23
712.607	5.17
712.93	5.07
713.252	4.93
713.575	4.93
713.897	4.9
714.22	4.68
714.542	4.59
714.864	4.56
715.187	4.53
715.509	4.46
715.831	4.52
716.153	4.65
716.475	4.8
716.798	4.6
717.12	4.68
717.442	4.72
717.764	4.69
718.085	4.57
718.407	4.36
718.729	4.33
719.051	4.4
719.373	4.38
719.695	4.42
720.016	4.47
720.338	4.42
720.659	4.49
720.981	4.36
721.302	4.33
721.624	4.29
721.945	4.37
722.267	4.41
722.588	4.45
722.909	4.29
723.231	4.01
723.552	4.31
723.873	4.41
724.194	4.34
724.515	4.15
724.836	4.09
725.157	4.08
725.478	4.01
725.799	3.89
726.12	3.82
726.441	3.82
726.762	3.89
727.083	4.01
727.403	3.91
727.724	4.13
728.045	4.32
728.365	4.32
728.686	4.32
729.006	4.4
729.327	4.35
729.647	4.27
729.967	4.44
730.288	4.26
730.608	4.29
730.928	4.43
731.249	4.73
731.569	4.96
731.889	5.03
732.209	5.09
732.529	4.99
732.849	5.07
733.169	5
733.489	4.82
733.809	4.77
734.129	4.84
734.448	4.86
734.768	4.75
735.088	4.78
735.408	4.71
735.727	4.64
736.047	4.58
736.366	4.72
736.686	4.63
737.005	4.81
737.325	4.78
737.644	4.41
737.963	4.42
738.283	4.4
738.602	4.31
738.921	4.53
739.24	4.57
739.56	4.56
739.879	4.54
740.198	4.71
740.517	4.76
740.836	4.62
741.155	4.72
741.473	4.71
741.792	4.7
742.111	4.66
742.43	4.73
742.748	4.9
743.067	4.77
743.386	4.6
743.704	4.37
744.023	4.39
744.341	4.68
744.66	4.61
744.978	4.45
745.297	4.48
745.615	4.19
745.933	4.17
746.252	4.25
746.57	4.38
746.888	4.42
747.206	4.51
747.524	4.79
747.842	4.7
748.16	4.75
748.478	4.94
748.796	5.33
749.114	5.18
749.432	5.21
749.749	5.35
750.067	5.51
750.385	5.75
750.703	5.28
751.02	5.21
751.338	5.06
751.655	5.12
751.973	5.25
752.29	5.47
752.608	5.51
752.925	5.54
753.242	5.74
753.56	5.74
753.877	5.43
754.194	5.28
754.511	5.37
754.828	5.29
755.145	5.22
755.462	4.94
755.779	4.94
756.096	4.95
756.413	4.95
756.73	4.93
757.047	4.59
757.364	5.04
757.68	5.04
757.997	5.16
758.314	5.52
758.63	5.41
758.947	5.34
759.264	5.25
759.58	5.22
759.896	5.1
760.213	5.15
760.529	5.23
760.846	5.21
761.162	5.17
761.478	5.41
761.794	5.47
762.11	5.5
762.426	5.6
762.743	5.5
763.059	5.46
763.375	5.51
763.69	5.71
764.006	5.64
764.322	5.67
764.638	6
764.954	5.88
765.27	6
765.585	5.98
765.901	6.15
766.216	6.22
766.532	6.23
766.848	6.29
767.163	6.25
767.478	6.27
767.794	6.24
768.109	5.83
768.424	5.73
768.74	5.79
769.055	6.05
769.37	5.72
769.685	5.88
770	5.92
770.315	5.86
770.63	5.86
770.945	5.89
771.26	5.49
771.575	5.2
771.89	5.31
772.205	5.4
772.52	5.43
772.834	5.49
773.149	5.62
773.464	5.24
773.778	5.21
774.093	5.5
774.407	5.62
774.722	6.11
775.036	6.17
775.351	6.18
775.665	6.12
775.979	6.44
776.293	6.48
776.608	6.64
776.922	6.72
777.236	6.71
777.55	6.37
777.864	6.17
778.178	6.19
778.492	5.96
778.806	5.95
779.12	6.1
779.434	5.96
779.747	5.92
780.061	6.07
780.375	5.88
780.689	5.83
781.002	5.56
781.316	5.39
781.629	5.16
781.943	5.24
782.256	4.78
782.57	4.89
782.883	4.74
783.196	4.65
783.51	4.52
783.823	4.52
784.136	4.6
784.449	4.37
784.762	4.24
785.075	4.36
785.388	4.09
785.701	3.89
786.014	3.77
786.327	3.52
786.64	3.85
786.953	4.74
787.266	4.51
787.578	4.83
787.891	4.95
788.204	5.13
788.516	4.83
788.829	4.91
789.141	4.84
789.454	5.09
789.766	5.26
790.079	5.29
790.391	5.37
790.703	5.52
791.016	6.33
791.328	6.81
791.64	6.62
791.952	6.69
792.264	6.66
792.576	6.44
792.888	6.34
793.2	6.32
793.512	5.78
793.824	5.83
794.136	5.52
794.448	5.18
794.76	5.46
795.071	5.84
795.383	5.8
795.695	6.01
796.006	6.19
796.318	5.85
796.629	5.79
796.941	6.03
797.252	6.28
797.564	5.81
797.875	5.5
798.186	6.1
798.497	6.33
798.809	6.58
799.12	6.78
799.431	6.94
799.742	7.17
800.053	7.25
800.364	7.47
800.675	7.38
800.986	7.23
801.297	6.69
801.608	6.31
801.918	6.59
802.229	6.69
802.54	5.8
802.851	6.1
803.161	5.84
803.472	5.28
803.782	5.17
804.093	4.77
804.403	4.67
804.714	4.5
805.024	4.1
805.334	3.8
805.645	3.78
805.955	3.55
806.265	2.95
806.575	2.89
806.885	3.1
807.195	3.39
807.505	4.16
807.815	4.65
808.125	4.55
808.435	4.6
808.745	4.19
809.055	4.87
809.365	4.64
809.674	5.54
809.984	5.83
810.294	5.45
810.603	5.38
810.913	5.21
811.222	5.31
811.532	5.07
811.841	5.21
812.151	5.18
812.46	5.54
812.769	4.71
813.079	5.18
813.388	4.69
813.697	4.06
814.006	3.75
814.315	3.58
814.624	4.67
814.933	4.79
815.242	5.31
815.551	5.4
815.86	5.68
816.169	4.75
816.478	4.95
816.786	5.07
817.095	5.75
817.404	6.29
817.712	6.62
818.021	7.42
818.33	6.92
818.638	7.25
818.947	7.17
819.255	7.42
819.563	7.3
819.872	7.2
820.18	7.7
820.488	7.58
820.796	7.45
821.105	7.24
821.413	6.94
821.721	6.88
822.029	6.66
822.337	6.7
822.645	6.9
822.953	6.97
823.26	7.09
823.568	7.06
823.876	7.11
824.184	6.96
824.491	6.79
824.799	6.94
825.107	6.84
825.414	6.88
825.722	6.89
826.029	6.79
826.337	6.85
826.644	6.77
826.951	6.99
827.259	7.02
827.566	6.85
827.873	7.02
828.18	7.03
828.488	7.33
828.795	7.2
829.102	7.01
829.409	6.85
829.716	6.81
830.023	6.7
830.329	6.8
830.636	6.82
830.943	6.91
831.25	6.88
831.557	6.72
831.863	6.73
832.17	6.98
832.476	7.14
832.783	7.39
833.089	7.18
833.396	6.65
833.702	6.39
834.009	6.68
834.315	6.68
834.621	6.75
834.928	6.62
835.234	6.73
835.54	6.89
835.846	6.87
836.152	6.74
836.458	7
836.764	6.79
837.07	6.46
837.376	6.72
837.682	6.56
837.988	7.54
838.293	7.53
838.599	7.37
838.905	6.76
839.211	5.93
839.516	5.78
839.822	6.36
840.127	6.63
840.433	6.49
840.738	6.08
841.044	6.53
841.349	6.51
841.654	6.2
841.959	7.11
842.265	8.22
842.57	8.09
842.875	7.73
843.18	7.81
843.485	8.21
843.79	7.44
844.095	7.44
844.4	6.46
844.705	6.8
845.01	7.84
845.315	9.05
845.619	10.51
845.924	12.01
846.229	11.61
846.533	11.69
846.838	11.41
847.142	11.61
847.447	11.31
847.751	10.85
848.056	12.61
848.36	11.28
848.664	9.46
848.969	9.43
849.273	9.58
849.577	9.49
849.881	9.22
850.185	10.77
850.489	12.97
850.794	12.7
851.097	13.32
851.401	11.05
851.705	10.57
852.009	8.6
852.313	7.14
852.617	6.64
852.92	7.51
853.224	8.06
853.528	8.14
853.831	6.34
854.135	5.46
854.438	4.95
854.742	4.49
855.045	3.84
855.349	4.09
855.652	4.7
855.955	5.37
856.259	7.04
856.562	4.9
856.865	2.03
857.168	2.16
857.471	2.17
857.774	3.67
858.077	2.24
858.38	2.78
858.683	4.15
858.986	4.33
859.289	3.15
859.592	4.38
859.894	5.34
860.197	4.4
860.5	5.73
860.802	5.12
861.105	5.73
861.407	5.34
861.71	4.33
862.012	2.74
862.315	1.05
862.617	0.52
862.919	1.9
863.222	3.67
863.524	3.05
863.826	2.03
864.128	1.67
864.43	4.34
864.732	5.45
865.034	5.64
865.336	6.51
865.638	8.23
865.94	8.45
866.242	9.03
866.544	11.75
866.846	10.65
867.147	8.4
867.449	7.47
867.751	8.74
868.052	9.37
868.354	11.09
868.655	11.46
868.957	10.43
869.258	10.3
869.56	9.91
869.861	8.47
870.162	6.78
870.463	8.01
870.765	9.32
871.066	9.28
871.367	5.65
871.668	4.33
871.969	4.77
872.27	2.96
872.571	2.72
872.872	3.51
873.173	2.93
873.473	5.86
873.774	7.28
874.075	8.03
874.376	7.66
874.676	10.36
874.977	8.88
875.277	10.27
875.578	9.51
875.878	8.96
876.179	10.7
876.479	12.46
876.78	11.84
877.08	9.16
877.38	8.29
877.68	11.96
877.981	13.01
878.281	11.48
878.581	13.52
