Data from MVZ_BU28167_Reflection_00002.txt Node
Date: Tue Nov 19 12:17:20 EST 2019
User: vgr7
Spectrometer: USB2G7710
Scans to average: 3
Trigger mode: 4
Integration Time (sec): 2.000000E-2
Electric dark correction enabled: true
Boxcar width: 10
XAxis mode: Wavelengths
Number of Pixels in Spectrum: 2048
>>>>>Begin Spectral Data<<<<<
177.721	-14.86
178.105	16.67
178.488	-38.11
178.871	-43.75
179.254	-50
179.636	-88.31
180.019	-19.86
180.402	55
180.785	-175
181.168	-144.32
181.55	-53.61
181.933	-39.11
182.316	29.19
182.698	13.83
183.081	-9.45
183.463	-25.65
183.846	5.84
184.228	-9.25
184.611	-16.95
184.993	-7.14
185.376	-8.65
185.758	-9.5
186.14	-0.82
186.522	-1.38
186.904	-16.3
187.287	-17.6
187.669	-17.21
188.051	-8.26
188.433	2.23
188.815	1.79
189.197	-3.95
189.579	2.95
189.961	3.77
190.342	-5.72
190.724	-9.81
191.106	49.32
191.488	47.18
191.869	16.67
192.251	-208.82
192.633	193.75
193.014	-275
193.396	-17.19
193.777	-1775
194.159	-2462.5
194.54	350
194.922	91.38
195.303	58.33
195.684	193.75
196.065	662.5
196.447	582.14
196.828	475
197.209	-13.1
197.59	3.41
197.971	58.33
198.352	-71.05
198.733	26.47
199.114	37.5
199.495	24.02
199.876	6.25
200.257	-10.29
200.638	-30.21
201.018	-18.85
201.399	-364.29
201.78	-775
202.16	107.14
202.541	27.08
202.922	-608.33
203.302	42.07
203.683	-16.67
204.063	-10
204.444	18.51
204.824	11.67
205.204	25.87
205.585	47.99
205.965	35.76
206.345	39.27
206.725	58.07
207.106	84.2
207.486	75.71
207.866	86.69
208.246	60.05
208.626	58.33
209.006	35.43
209.386	50.76
209.766	-16.67
210.145	-54.11
210.525	-57.69
210.905	-9.69
211.285	51.92
211.664	146.43
212.044	152.47
212.424	190.58
212.803	115.63
213.183	203.85
213.562	242.31
213.942	124.31
214.321	209.38
214.701	200.75
215.08	231.36
215.459	209.15
215.838	208.49
216.218	356.58
216.597	144.12
216.976	151.23
217.355	142.53
217.734	133.97
218.113	133.6
218.492	155.72
218.871	135.94
219.25	107.27
219.629	117.3
220.008	91.01
220.387	60.34
220.766	81.91
221.144	55.74
221.523	37.19
221.902	78.51
222.28	54.81
222.659	44.18
223.037	39.97
223.416	37.69
223.794	42.21
224.173	37.14
224.551	38.02
224.929	51.02
225.308	32.49
225.686	44.16
226.064	36.92
226.442	29.04
226.821	30
227.199	28.89
227.577	29.65
227.955	28.31
228.333	25.94
228.711	27.63
229.089	24.44
229.467	23.09
229.845	20.69
230.222	19.96
230.6	21.02
230.978	17.44
231.356	16.08
231.733	13.76
232.111	11.98
232.488	10.75
232.866	10.11
233.243	9.93
233.621	8.15
233.998	7.77
234.376	6.46
234.753	7.3
235.13	7.62
235.508	5.22
235.885	5.56
236.262	7.32
236.639	5.5
237.016	6.2
237.393	7.02
237.77	8.11
238.147	8.41
238.524	7.87
238.901	7.41
239.278	6.8
239.655	6.73
240.032	7.17
240.409	7.22
240.785	6.63
241.162	5.9
241.539	5.17
241.915	5.32
242.292	5.81
242.668	5.5
243.045	5.23
243.421	5.44
243.798	5.83
244.174	5.97
244.551	5.77
244.927	5.56
245.303	5.25
245.679	4.9
246.056	4.49
246.432	4.54
246.808	4.85
247.184	5.01
247.56	5.03
247.936	4.89
248.312	4.97
248.688	4.98
249.064	5.29
249.44	5.02
249.815	5.03
250.191	5.22
250.567	5.33
250.943	5.39
251.318	5.16
251.694	4.9
252.069	4.64
252.445	4.66
252.82	4.87
253.196	4.67
253.571	4.79
253.947	5.21
254.322	4.94
254.697	4.49
255.073	4.23
255.448	4.15
255.823	4.33
256.198	3.99
256.573	4.02
256.948	3.83
257.323	4.04
257.698	3.93
258.073	3.54
258.448	3.4
258.823	3.16
259.198	3.05
259.573	2.85
259.948	2.83
260.322	2.73
260.697	2.79
261.072	2.79
261.446	2.74
261.821	2.67
262.195	2.73
262.57	3.01
262.944	3.16
263.319	3.08
263.693	3.04
264.067	2.99
264.442	2.99
264.816	3.13
265.19	3.19
265.564	3.13
265.938	3.06
266.313	3.03
266.687	3.28
267.061	3.61
267.435	3.98
267.809	3.98
268.183	3.93
268.556	3.9
268.93	4.23
269.304	4.25
269.678	4.25
270.051	4.36
270.425	4.25
270.799	3.88
271.172	3.74
271.546	3.84
271.919	3.97
272.293	3.95
272.666	3.81
273.04	3.7
273.413	3.64
273.787	3.58
274.16	3.39
274.533	3.47
274.906	3.42
275.279	3.19
275.653	3.3
276.026	3.4
276.399	3.41
276.772	3.42
277.145	3.43
277.518	3.3
277.891	3.1
278.263	3.01
278.636	3.31
279.009	3.52
279.382	3.34
279.755	3.32
280.127	3.34
280.5	3.44
280.872	3.43
281.245	3.73
281.617	3.73
281.99	4.02
282.362	3.88
282.735	3.72
283.107	3.77
283.479	3.65
283.852	3.62
284.224	3.52
284.596	3.3
284.968	3.22
285.34	3.22
285.713	3.34
286.085	3.36
286.457	3.31
286.829	3.36
287.201	3.29
287.572	3.32
287.944	3.26
288.316	3.2
288.688	3.25
289.06	3.18
289.431	3.25
289.803	3.21
290.175	3.28
290.546	3.32
290.918	3.31
291.289	3.27
291.661	3.33
292.032	3.28
292.403	3.35
292.775	3.38
293.146	3.41
293.517	3.27
293.889	3.28
294.26	3.26
294.631	3.15
295.002	3.24
295.373	3.27
295.744	3.31
296.115	3.41
296.486	3.58
296.857	3.61
297.228	3.7
297.599	3.78
297.97	3.69
298.34	3.7
298.711	3.78
299.082	3.85
299.452	3.81
299.823	3.93
300.194	4.01
300.564	3.95
300.935	4
301.305	4.1
301.676	4
302.046	3.98
302.416	4.04
302.787	4.07
303.157	4.05
303.527	4.11
303.897	3.86
304.267	3.77
304.637	3.7
305.008	3.69
305.378	3.49
305.748	3.48
306.117	3.45
306.487	3.53
306.857	3.48
307.227	3.56
307.597	3.52
307.967	3.53
308.336	3.7
308.706	3.66
309.076	3.77
309.445	3.74
309.815	3.85
310.184	3.76
310.554	3.67
310.923	3.6
311.293	3.45
311.662	3.64
312.031	3.55
312.401	3.47
312.77	3.34
313.139	3.33
313.508	3.25
313.877	3.24
314.246	3.03
314.616	3.08
314.985	2.98
315.353	3.07
315.722	2.96
316.091	2.83
316.46	2.84
316.829	2.82
317.198	3.02
317.567	3.05
317.935	3.14
318.304	3.21
318.672	3.36
319.041	3.57
319.41	3.4
319.778	3.45
320.147	3.45
320.515	3.5
320.883	3.51
321.252	3.61
321.62	3.64
321.988	3.9
322.357	3.89
322.725	3.83
323.093	3.67
323.461	3.74
323.829	3.75
324.197	3.85
324.565	3.73
324.933	3.66
325.301	3.5
325.669	3.43
326.037	3.45
326.405	3.37
326.772	3.2
327.14	3.14
327.508	3.13
327.875	3.15
328.243	3.11
328.61	3.23
328.978	3.25
329.346	3.26
329.713	3.03
330.08	2.97
330.448	2.96
330.815	2.99
331.182	2.8
331.55	2.62
331.917	2.49
332.284	2.58
332.651	2.65
333.018	2.62
333.385	2.61
333.752	2.64
334.119	2.55
334.486	2.59
334.853	2.66
335.22	2.6
335.587	2.54
335.954	2.59
336.32	2.48
336.687	2.49
337.054	2.58
337.42	2.7
337.787	2.62
338.153	2.76
338.52	2.84
338.886	3.04
339.253	3.11
339.619	3.14
339.986	3.1
340.352	2.93
340.718	3.02
341.084	2.96
341.451	2.93
341.817	2.98
342.183	3.01
342.549	2.94
342.915	2.95
343.281	3.06
343.647	3.15
344.013	3.19
344.379	3.14
344.745	2.97
345.11	2.9
345.476	3.07
345.842	2.93
346.208	2.89
346.573	2.8
346.939	2.75
347.304	2.75
347.67	2.72
348.035	2.72
348.401	2.61
348.766	2.6
349.132	2.75
349.497	2.81
349.862	2.76
350.228	2.84
350.593	2.89
350.958	2.94
351.323	2.85
351.688	2.77
352.053	2.81
352.418	2.92
352.783	2.97
353.148	2.95
353.513	2.91
353.878	2.83
354.243	2.76
354.608	2.82
354.972	2.87
355.337	2.91
355.702	3.01
356.066	3.11
356.431	3.14
356.795	3
357.16	2.92
357.524	2.9
357.889	2.87
358.253	2.83
358.618	2.71
358.982	2.77
359.346	2.84
359.71	2.8
360.075	2.84
360.439	2.88
360.803	2.95
361.167	2.99
361.531	3.02
361.895	3.1
362.259	3.2
362.623	3.17
362.987	3.11
363.351	3.03
363.714	3.04
364.078	3.03
364.442	3.04
364.806	3.09
365.169	3.18
365.533	3.17
365.896	3.21
366.26	3.2
366.623	3.17
366.987	3.17
367.35	3.24
367.714	3.22
368.077	3.22
368.44	3.13
368.803	3.09
369.167	3.04
369.53	3.02
369.893	2.99
370.256	2.96
370.619	3.01
370.982	3.06
371.345	3.07
371.708	3.01
372.071	2.99
372.434	2.97
372.797	2.97
373.159	2.96
373.522	2.92
373.885	3.06
374.247	3.08
374.61	3.09
374.973	3.09
375.335	3.05
375.698	2.99
376.06	3.02
376.423	3.1
376.785	3.17
377.147	3.14
377.51	3.1
377.872	3.16
378.234	3.17
378.596	3.14
378.958	3.12
379.321	3.17
379.683	3.22
380.045	3.23
380.407	3.23
380.769	3.3
381.13	3.29
381.492	3.22
381.854	3.24
382.216	3.27
382.578	3.27
382.939	3.28
383.301	3.3
383.663	3.26
384.024	3.25
384.386	3.3
384.747	3.32
385.109	3.32
385.47	3.3
385.832	3.25
386.193	3.24
386.554	3.22
386.916	3.23
387.277	3.21
387.638	3.21
387.999	3.22
388.36	3.18
388.721	3.21
389.082	3.22
389.443	3.2
389.804	3.21
390.165	3.22
390.526	3.18
390.887	3.2
391.248	3.24
391.609	3.25
391.969	3.21
392.33	3.24
392.691	3.25
393.051	3.2
393.412	3.26
393.772	3.31
394.133	3.3
394.493	3.32
394.854	3.34
395.214	3.36
395.574	3.33
395.935	3.33
396.295	3.32
396.655	3.33
397.015	3.35
397.376	3.34
397.736	3.31
398.096	3.35
398.456	3.32
398.816	3.33
399.176	3.28
399.535	3.26
399.895	3.21
400.255	3.24
400.615	3.25
400.975	3.21
401.334	3.22
401.694	3.25
402.054	3.24
402.413	3.24
402.773	3.2
403.132	3.21
403.492	3.23
403.851	3.25
404.211	3.25
404.57	3.22
404.929	3.21
405.288	3.25
405.648	3.25
406.007	3.27
406.366	3.25
406.725	3.28
407.084	3.3
407.443	3.36
407.802	3.36
408.161	3.35
408.52	3.36
408.879	3.37
409.238	3.36
409.596	3.39
409.955	3.37
410.314	3.42
410.673	3.42
411.031	3.41
411.39	3.42
411.748	3.44
412.107	3.43
412.465	3.43
412.824	3.41
413.182	3.42
413.54	3.4
413.899	3.43
414.257	3.42
414.615	3.4
414.974	3.39
415.332	3.37
415.69	3.39
416.048	3.38
416.406	3.33
416.764	3.33
417.122	3.3
417.48	3.29
417.838	3.24
418.195	3.27
418.553	3.26
418.911	3.25
419.269	3.24
419.626	3.26
419.984	3.25
420.342	3.23
420.699	3.23
421.057	3.24
421.414	3.25
421.772	3.24
422.129	3.23
422.486	3.23
422.844	3.23
423.201	3.25
423.558	3.26
423.915	3.28
424.273	3.3
424.63	3.3
424.987	3.32
425.344	3.34
425.701	3.33
426.058	3.33
426.415	3.33
426.772	3.33
427.128	3.31
427.485	3.34
427.842	3.35
428.199	3.36
428.555	3.35
428.912	3.35
429.269	3.36
429.625	3.36
429.982	3.38
430.338	3.39
430.695	3.37
431.051	3.38
431.407	3.38
431.764	3.35
432.12	3.36
432.476	3.37
432.832	3.37
433.189	3.4
433.545	3.4
433.901	3.41
434.257	3.41
434.613	3.44
434.969	3.44
435.325	3.45
435.681	3.43
436.036	3.43
436.392	3.43
436.748	3.44
437.104	3.44
437.459	3.41
437.815	3.4
438.171	3.4
438.526	3.41
438.882	3.42
439.237	3.42
439.593	3.41
439.948	3.41
440.304	3.41
440.659	3.39
441.014	3.4
441.369	3.43
441.725	3.44
442.08	3.42
442.435	3.42
442.79	3.43
443.145	3.43
443.5	3.42
443.855	3.42
444.21	3.4
444.565	3.42
444.92	3.44
445.275	3.44
445.629	3.44
445.984	3.44
446.339	3.45
446.693	3.45
447.048	3.44
447.403	3.44
447.757	3.43
448.112	3.42
448.466	3.41
448.82	3.39
449.175	3.4
449.529	3.4
449.883	3.4
450.238	3.4
450.592	3.4
450.946	3.42
451.3	3.43
451.654	3.41
452.008	3.41
452.362	3.42
452.716	3.42
453.07	3.42
453.424	3.4
453.778	3.37
454.132	3.36
454.486	3.38
454.839	3.41
455.193	3.42
455.547	3.44
455.9	3.45
456.254	3.43
456.607	3.43
456.961	3.43
457.314	3.4
457.668	3.4
458.021	3.42
458.375	3.4
458.728	3.41
459.081	3.43
459.434	3.42
459.787	3.44
460.141	3.44
460.494	3.46
460.847	3.47
461.2	3.49
461.553	3.52
461.906	3.52
462.259	3.5
462.611	3.49
462.964	3.49
463.317	3.49
463.67	3.5
464.022	3.49
464.375	3.49
464.728	3.51
465.08	3.5
465.433	3.5
465.785	3.51
466.138	3.49
466.49	3.49
466.843	3.5
467.195	3.47
467.547	3.47
467.899	3.47
468.252	3.47
468.604	3.46
468.956	3.45
469.308	3.43
469.66	3.44
470.012	3.46
470.364	3.45
470.716	3.45
471.068	3.47
471.42	3.46
471.772	3.48
472.123	3.5
472.475	3.55
472.827	3.55
473.178	3.59
473.53	3.6
473.882	3.61
474.233	3.61
474.585	3.63
474.936	3.64
475.288	3.62
475.639	3.64
475.99	3.64
476.342	3.65
476.693	3.68
477.044	3.68
477.395	3.69
477.746	3.69
478.097	3.7
478.448	3.69
478.8	3.69
479.15	3.68
479.501	3.68
479.852	3.65
480.203	3.64
480.554	3.62
480.905	3.63
481.255	3.64
481.606	3.65
481.957	3.66
482.307	3.66
482.658	3.65
483.009	3.65
483.359	3.65
483.709	3.65
484.06	3.65
484.41	3.66
484.761	3.66
485.111	3.66
485.461	3.66
485.811	3.66
486.162	3.66
486.512	3.67
486.862	3.66
487.212	3.66
487.562	3.65
487.912	3.65
488.262	3.65
488.612	3.65
488.961	3.65
489.311	3.64
489.661	3.63
490.011	3.65
490.36	3.64
490.71	3.64
491.06	3.64
491.409	3.63
491.759	3.63
492.108	3.62
492.458	3.62
492.807	3.63
493.157	3.62
493.506	3.64
493.855	3.63
494.204	3.64
494.554	3.65
494.903	3.68
495.252	3.7
495.601	3.7
495.95	3.7
496.299	3.72
496.648	3.72
496.997	3.73
497.346	3.72
497.695	3.73
498.043	3.74
498.392	3.74
498.741	3.77
499.09	3.77
499.438	3.78
499.787	3.77
500.135	3.76
500.484	3.79
500.832	3.78
501.181	3.77
501.529	3.8
501.878	3.8
502.226	3.79
502.574	3.79
502.923	3.79
503.271	3.77
503.619	3.77
503.967	3.76
504.315	3.78
504.663	3.8
505.011	3.81
505.359	3.8
505.707	3.79
506.055	3.78
506.403	3.79
506.751	3.79
507.098	3.8
507.446	3.82
507.794	3.83
508.141	3.83
508.489	3.85
508.837	3.82
509.184	3.82
509.531	3.8
509.879	3.78
510.226	3.81
510.574	3.82
510.921	3.81
511.268	3.84
511.616	3.85
511.963	3.84
512.31	3.84
512.657	3.85
513.004	3.86
513.351	3.86
513.698	3.86
514.045	3.87
514.392	3.89
514.739	3.89
515.086	3.85
515.432	3.86
515.779	3.86
516.126	3.89
516.473	3.89
516.819	3.9
517.166	3.91
517.512	3.89
517.859	3.91
518.205	3.9
518.552	3.92
518.898	3.9
519.245	3.9
519.591	3.9
519.937	3.9
520.283	3.92
520.629	3.92
520.976	3.91
521.322	3.92
521.668	3.9
522.014	3.89
522.36	3.91
522.706	3.9
523.052	3.92
523.398	3.91
523.743	3.93
524.089	3.94
524.435	3.93
524.781	3.93
525.126	3.91
525.472	3.91
525.817	3.91
526.163	3.91
526.509	3.91
526.854	3.92
527.199	3.93
527.545	3.93
527.89	3.94
528.235	3.95
528.581	3.95
528.926	3.95
529.271	3.95
529.616	3.96
529.961	3.96
530.306	3.95
530.651	3.95
530.996	3.95
531.341	3.96
531.686	3.97
532.031	3.98
532.376	4
532.721	4
533.065	4
533.41	3.99
533.755	4.02
534.099	4.02
534.444	4.01
534.788	4
535.133	4
535.477	4.01
535.822	4.02
536.166	4.03
536.51	4.04
536.855	4.04
537.199	4.05
537.543	4.06
537.887	4.07
538.231	4.06
538.576	4.06
538.92	4.07
539.264	4.05
539.608	4.05
539.951	4.05
540.295	4.06
540.639	4.08
540.983	4.07
541.327	4.08
541.671	4.09
542.014	4.11
542.358	4.12
542.701	4.11
543.045	4.11
543.389	4.12
543.732	4.11
544.075	4.12
544.419	4.11
544.762	4.14
545.105	4.13
545.449	4.14
545.792	4.15
546.135	4.16
546.478	4.17
546.821	4.19
547.165	4.22
547.508	4.23
547.851	4.23
548.194	4.22
548.536	4.21
548.879	4.22
549.222	4.2
549.565	4.18
549.908	4.17
550.25	4.17
550.593	4.15
550.936	4.17
551.278	4.15
551.621	4.14
551.963	4.11
552.306	4.12
552.648	4.12
552.991	4.12
553.333	4.07
553.675	4.05
554.017	4.02
554.36	4.02
554.702	3.97
555.044	3.96
555.386	3.93
555.728	3.94
556.07	3.94
556.412	3.94
556.754	3.95
557.096	3.98
557.438	3.98
557.78	4
558.121	4.01
558.463	4.05
558.805	4.09
559.147	4.1
559.488	4.11
559.83	4.13
560.171	4.13
560.513	4.18
560.854	4.2
561.196	4.24
561.537	4.23
561.878	4.28
562.22	4.31
562.561	4.35
562.902	4.31
563.243	4.3
563.584	4.3
563.925	4.34
564.266	4.33
564.607	4.36
564.948	4.36
565.289	4.33
565.63	4.3
565.971	4.25
566.312	4.26
566.653	4.3
566.993	4.26
567.334	4.27
567.675	4.28
568.015	4.28
568.356	4.29
568.696	4.29
569.037	4.3
569.377	4.29
569.718	4.29
570.058	4.32
570.398	4.32
570.739	4.32
571.079	4.29
571.419	4.27
571.759	4.26
572.099	4.25
572.439	4.27
572.779	4.29
573.119	4.29
573.459	4.3
573.799	4.26
574.139	4.27
574.479	4.31
574.819	4.29
575.158	4.31
575.498	4.3
575.838	4.3
576.177	4.3
576.517	4.29
576.856	4.26
577.196	4.27
577.535	4.28
577.875	4.28
578.214	4.3
578.553	4.31
578.893	4.34
579.232	4.34
579.571	4.39
579.91	4.39
580.25	4.43
580.589	4.4
580.928	4.46
581.267	4.46
581.606	4.42
581.945	4.43
582.283	4.49
582.622	4.46
582.961	4.49
583.3	4.45
583.639	4.47
583.977	4.5
584.316	4.52
584.654	4.53
584.993	4.52
585.332	4.53
585.67	4.56
586.008	4.54
586.347	4.53
586.685	4.5
587.024	4.52
587.362	4.51
587.7	4.55
588.038	4.57
588.376	4.62
588.715	4.64
589.053	4.64
589.391	4.57
589.729	4.59
590.067	4.57
590.404	4.57
590.742	4.59
591.08	4.62
591.418	4.63
591.756	4.65
592.093	4.61
592.431	4.6
592.769	4.59
593.106	4.54
593.444	4.56
593.781	4.59
594.119	4.58
594.456	4.55
594.793	4.57
595.131	4.52
595.468	4.53
595.805	4.53
596.143	4.55
596.48	4.56
596.817	4.57
597.154	4.59
597.491	4.61
597.828	4.57
598.165	4.56
598.502	4.54
598.839	4.48
599.176	4.53
599.512	4.53
599.849	4.54
600.186	4.57
600.523	4.53
600.859	4.49
601.196	4.5
601.532	4.55
601.869	4.54
602.205	4.53
602.542	4.47
602.878	4.48
603.215	4.45
603.551	4.43
603.887	4.42
604.223	4.39
604.56	4.38
604.896	4.45
605.232	4.45
605.568	4.43
605.904	4.45
606.24	4.46
606.576	4.48
606.912	4.47
607.248	4.48
607.583	4.53
607.919	4.54
608.255	4.52
608.591	4.54
608.926	4.53
609.262	4.54
609.597	4.54
609.933	4.54
610.268	4.6
610.604	4.58
610.939	4.56
611.275	4.6
611.61	4.65
611.945	4.62
612.281	4.6
612.616	4.69
612.951	4.74
613.286	4.67
613.621	4.67
613.956	4.68
614.291	4.67
614.626	4.68
614.961	4.69
615.296	4.77
615.631	4.8
615.966	4.76
616.3	4.78
616.635	4.82
616.97	4.8
617.304	4.77
617.639	4.78
617.973	4.78
618.308	4.79
618.642	4.75
618.977	4.73
619.311	4.76
619.646	4.72
619.98	4.68
620.314	4.73
620.648	4.71
620.983	4.73
621.317	4.73
621.651	4.73
621.985	4.77
622.319	4.68
622.653	4.64
622.987	4.69
623.321	4.73
623.655	4.76
623.988	4.81
624.322	4.81
624.656	4.87
624.99	4.87
625.323	4.85
625.657	4.84
625.99	4.81
626.324	4.83
626.657	4.86
626.991	4.89
627.324	4.91
627.658	4.96
627.991	4.95
628.324	4.99
628.657	4.92
628.991	4.93
629.324	4.95
629.657	4.94
629.99	4.93
630.323	4.91
630.656	4.9
630.989	4.88
631.322	4.87
631.655	4.86
631.987	4.88
632.32	4.91
632.653	4.91
632.986	4.93
633.318	4.95
633.651	4.94
633.984	4.94
634.316	4.92
634.649	4.88
634.981	4.9
635.313	4.96
635.646	5.04
635.978	5.1
636.31	5.15
636.643	5.09
636.975	5.1
637.307	5.07
637.639	5.08
637.971	5.08
638.303	5.14
638.635	5.14
638.967	5.18
639.299	5.14
639.631	5.16
639.963	5.2
640.295	5.23
640.626	5.24
640.958	5.25
641.29	5.3
641.621	5.28
641.953	5.27
642.285	5.2
642.616	5.21
642.948	5.19
643.279	5.13
643.61	5.22
643.942	5.27
644.273	5.32
644.604	5.27
644.936	5.29
645.267	5.3
645.598	5.33
645.929	5.28
646.26	5.32
646.591	5.32
646.922	5.3
647.253	5.21
647.584	5.18
647.915	5.19
648.245	5.19
648.576	5.23
648.907	5.25
649.238	5.19
649.568	5.17
649.899	5.16
650.229	5.22
650.56	5.22
650.89	5.21
651.221	5.15
651.551	5.19
651.882	5.18
652.212	5.22
652.542	5.24
652.872	5.27
653.203	5.32
653.533	5.44
653.863	5.52
654.193	5.6
654.523	5.58
654.853	5.56
655.183	5.56
655.513	5.61
655.843	5.48
656.172	5.54
656.502	5.52
656.832	5.45
657.162	5.46
657.491	5.53
657.821	5.46
658.15	5.53
658.48	5.53
658.809	5.49
659.139	5.46
659.468	5.5
659.798	5.52
660.127	5.46
660.456	5.33
660.785	5.23
661.115	5.27
661.444	5.35
661.773	5.41
662.102	5.35
662.431	5.4
662.76	5.57
663.089	5.63
663.418	5.68
663.747	5.7
664.076	5.7
664.404	5.75
664.733	5.74
665.062	5.7
665.39	5.69
665.719	5.76
666.048	5.78
666.376	5.75
666.705	5.8
667.033	5.84
667.362	5.88
667.69	5.92
668.018	5.87
668.347	5.84
668.675	5.81
669.003	5.79
669.331	5.77
669.659	5.74
669.987	5.7
670.315	5.64
670.643	5.7
670.971	5.79
671.299	5.66
671.627	5.8
671.955	5.73
672.283	5.75
672.61	5.76
672.938	5.76
673.266	5.67
673.593	5.57
673.921	5.62
674.249	5.68
674.576	5.72
674.904	5.67
675.231	5.66
675.558	5.67
675.886	5.74
676.213	5.62
676.54	5.56
676.867	5.52
677.195	5.48
677.522	5.47
677.849	5.41
678.176	5.47
678.503	5.44
678.83	5.46
679.157	5.48
679.484	5.46
679.81	5.48
680.137	5.57
680.464	5.58
680.791	5.54
681.117	5.52
681.444	5.54
681.771	5.52
682.097	5.5
682.424	5.5
682.75	5.53
683.077	5.58
683.403	5.7
683.729	5.73
684.056	5.71
684.382	5.7
684.708	5.76
685.034	5.7
685.36	5.69
685.686	5.74
686.012	5.78
686.339	5.71
686.664	5.68
686.99	5.62
687.316	5.67
687.642	5.74
687.968	5.92
688.294	5.87
688.619	5.95
688.945	6.01
689.271	6.02
689.596	5.97
689.922	6.02
690.247	5.92
690.573	5.89
690.898	6.03
691.224	6.05
691.549	6.07
691.874	6.1
692.2	6.11
692.525	6.04
692.85	6.03
693.175	6.12
693.5	6.1
693.825	6.21
694.15	6.16
694.475	6.16
694.8	5.96
695.125	5.89
695.45	5.88
695.775	5.87
696.099	5.96
696.424	6.05
696.749	6.11
697.073	6.14
697.398	6.22
697.723	6.27
698.047	6.22
698.372	6.16
698.696	6.17
699.02	6.17
699.345	6.23
699.669	6.13
699.993	6.15
700.318	6.29
700.642	6.29
700.966	6.27
701.29	6.3
701.614	6.43
701.938	6.56
702.262	6.55
702.586	6.59
702.91	6.46
703.234	6.39
703.557	6.35
703.881	6.43
704.205	6.44
704.529	6.5
704.852	6.52
705.176	6.6
705.499	6.49
705.823	6.49
706.146	6.52
706.47	6.66
706.793	6.67
707.117	6.54
707.44	6.48
707.763	6.56
708.086	6.43
708.409	6.37
708.733	6.21
709.056	6.28
709.379	6.4
709.702	6.41
710.025	6.43
710.348	6.45
710.671	6.34
710.993	6.22
711.316	6.28
711.639	6.29
711.962	6.31
712.284	6.38
712.607	6.4
712.93	6.27
713.252	6.19
713.575	6.2
713.897	6.23
714.22	6.09
714.542	6.22
714.864	6.22
715.187	6.22
715.509	6.36
715.831	6.43
716.153	6.44
716.475	6.65
716.798	6.61
717.12	6.45
717.442	6.56
717.764	6.62
718.085	6.48
718.407	6.54
718.729	6.54
719.051	6.64
719.373	6.64
719.695	6.9
720.016	7.06
720.338	7.19
720.659	7.12
720.981	7.3
721.302	7.41
721.624	7.56
721.945	7.65
722.267	7.72
722.588	7.69
722.909	7.69
723.231	7.49
723.552	7.44
723.873	7.58
724.194	7.45
724.515	7.59
724.836	7.41
725.157	7.55
725.478	7.46
725.799	7.31
726.12	7.3
726.441	7.45
726.762	7.38
727.083	7.41
727.403	7.34
727.724	7.23
728.045	7.25
728.365	7.41
728.686	7.21
729.006	7.17
729.327	7.22
729.647	7.16
729.967	7.34
730.288	7.53
730.608	7.59
730.928	7.67
731.249	7.8
731.569	7.96
731.889	7.8
732.209	8.07
732.529	8.24
732.849	8.27
733.169	8.15
733.489	8.1
733.809	8.17
734.129	8.33
734.448	8.47
734.768	8.2
735.088	7.92
735.408	7.96
735.727	7.81
736.047	7.73
736.366	7.64
736.686	7.47
737.005	7.42
737.325	7.6
737.644	7.4
737.963	7.09
738.283	7.2
738.602	7.35
738.921	7.14
739.24	7.06
739.56	7.06
739.879	6.84
740.198	7.17
740.517	6.84
740.836	6.8
741.155	6.92
741.473	7.09
741.792	7.23
742.111	7.4
742.43	7.67
742.748	7.83
743.067	7.95
743.386	8.06
743.704	8.14
744.023	8
744.341	8.13
744.66	8.27
744.978	8.14
745.297	7.87
745.615	7.7
745.933	7.86
746.252	7.91
746.57	8.1
746.888	7.57
747.206	7.65
747.524	7.73
747.842	7.61
748.16	7.63
748.478	7.7
748.796	7.7
749.114	7.65
749.432	7.59
749.749	7.31
750.067	7.13
750.385	7.21
750.703	6.97
751.02	7
751.338	7.03
751.655	7.1
751.973	7.32
752.29	7.35
752.608	7.31
752.925	7.33
753.242	7.46
753.56	7.53
753.877	7.63
754.194	7.5
754.511	7.33
754.828	7.18
755.145	7.12
755.462	7.07
755.779	7.02
756.096	6.91
756.413	7.14
756.73	7.3
757.047	7.03
757.364	7.24
757.68	7.15
757.997	7.1
758.314	7.4
758.63	7.43
758.947	7.47
759.264	7.35
759.58	7.52
759.896	7.31
760.213	7.52
760.529	7.54
760.846	7.58
761.162	7.61
761.478	7.51
761.794	7.47
762.11	7.49
762.426	7.45
762.743	7.58
763.059	7.54
763.375	7.52
763.69	7.75
764.006	7.73
764.322	8.16
764.638	8.43
764.954	8.23
765.27	8.21
765.585	8.38
765.901	8.34
766.216	8.43
766.532	8.55
766.848	8.56
767.163	8.28
767.478	8.26
767.794	8.53
768.109	8.73
768.424	8.74
768.74	8.78
769.055	8.99
769.37	8.77
769.685	8.76
770	9.02
770.315	9.13
770.63	9.24
770.945	8.9
771.26	8.39
771.575	8.51
771.89	8.25
772.205	8.26
772.52	8.32
772.834	8.23
773.149	8.11
773.464	8.41
773.778	8.66
774.093	9.05
774.407	8.72
774.722	9.06
775.036	9.23
775.351	9.44
775.665	9.22
775.979	9.36
776.293	9.74
776.608	9.16
776.922	8.91
777.236	9.02
777.55	8.73
777.864	9.13
778.178	9.11
778.492	9.36
778.806	9.58
779.12	9.98
779.434	9.84
779.747	9.94
780.061	9.52
780.375	9.63
780.689	9.62
781.002	9.92
781.316	9.3
781.629	9.25
781.943	8.87
782.256	9.17
782.57	9.81
782.883	9.84
783.196	10.04
783.51	10.12
783.823	10.17
784.136	10.39
784.449	10.05
784.762	10.48
785.075	10.91
785.388	10.69
785.701	10
786.014	9.99
786.327	10.24
786.64	10.62
786.953	10.79
787.266	10.69
787.578	10.52
787.891	10.9
788.204	11.18
788.516	11.25
788.829	11.11
789.141	10.93
789.454	11
789.766	11.13
790.079	10.7
790.391	10.72
790.703	10.83
791.016	10.71
791.328	9.85
791.64	9.73
791.952	9.52
792.264	9.76
792.576	10.29
792.888	10.44
793.2	10.33
793.512	10.25
793.824	9.61
794.136	9.49
794.448	9.77
794.76	10.03
795.071	10.6
795.383	10.7
795.695	10.44
796.006	10.09
796.318	10.44
796.629	10.86
796.941	11.26
797.252	11.32
797.564	11.75
797.875	12.34
798.186	12.26
798.497	12.2
798.809	11.78
799.12	11.34
799.431	10.96
799.742	11.09
800.053	10.97
800.364	11.55
800.675	11.56
800.986	11.13
801.297	10.52
801.608	10.07
801.918	10.26
802.229	10.6
802.54	10.62
802.851	9.97
803.161	9.94
803.472	9.81
803.782	10.16
804.093	9.91
804.403	10.19
804.714	10.04
805.024	9.95
805.334	11.23
805.645	11.58
805.955	12.19
806.265	12.94
806.575	13.05
806.885	12.99
807.195	13.39
807.505	13.79
807.815	13.88
808.125	13.52
808.435	12.71
808.745	12.68
809.055	12.79
809.365	13.67
809.674	13.88
809.984	13.41
810.294	13.26
810.603	13.32
810.913	12.93
811.222	12.99
811.532	12.94
811.841	12.77
812.151	12.68
812.46	12.18
812.769	11.24
813.079	11.15
813.388	11.42
813.697	11.73
814.006	11.32
814.315	11.27
814.624	12.04
814.933	13.08
815.242	13.5
815.551	14.15
815.86	14.02
816.169	14.31
816.478	14.63
816.786	13.64
817.095	13.63
817.404	13.35
817.712	13.64
818.021	14.01
818.33	14.27
818.638	14.19
818.947	14.34
819.255	13.95
819.563	14.21
819.872	13.73
820.18	13.59
820.488	13.47
820.796	13.43
821.105	13.22
821.413	13.12
821.721	12.76
822.029	12.51
822.337	12.48
822.645	12.38
822.953	12.29
823.26	12.41
823.568	12.34
823.876	12.49
824.184	12.53
824.491	12.38
824.799	12.21
825.107	12.15
825.414	12.07
825.722	12.03
826.029	12.24
826.337	12.24
826.644	12.36
826.951	12.5
827.259	12.56
827.566	12.75
827.873	12.94
828.18	13.02
828.488	13.07
828.795	13.07
829.102	13.18
829.409	13.29
829.716	13.69
830.023	14.41
830.329	14.24
830.636	14.67
830.943	14.53
831.25	14.98
831.557	15.24
831.863	15.26
832.17	15.68
832.476	15.23
832.783	15.55
833.089	15.4
833.396	15.15
833.702	15.57
834.009	15.21
834.315	14.99
834.621	15.12
834.928	15.43
835.234	15.45
835.54	15.11
835.846	15.14
836.152	15.17
836.458	14.68
836.764	15.34
837.07	14.92
837.376	15.8
837.682	15.31
837.988	15.12
838.293	15.37
838.599	15.76
838.905	15.71
839.211	15.8
839.516	15.85
839.822	16.85
840.127	17
840.433	17.12
840.738	17.63
841.044	17.66
841.349	18.19
841.654	18.4
841.959	20.86
842.265	21.09
842.57	20.22
842.875	20.33
843.18	18.76
843.485	18.43
843.79	18.78
844.095	18.94
844.4	19.98
844.705	20.76
845.01	21.37
845.315	21.27
845.619	22.8
845.924	22.47
846.229	22.5
846.533	20.83
846.838	22.2
847.142	20.69
847.447	21.08
847.751	20.68
848.056	21.15
848.36	19.41
848.664	18.74
848.969	18.23
849.273	18.03
849.577	19.56
849.881	18.93
850.185	16.82
850.489	18.18
850.794	19.37
851.097	18.28
851.401	16.77
851.705	17.14
852.009	14.9
852.313	14.77
852.617	16.39
852.92	15.98
853.224	15.09
853.528	14.36
853.831	16.81
854.135	18.62
854.438	17.83
854.742	16.29
855.045	17.99
855.349	19.15
855.652	20.45
855.955	20.92
856.259	23.09
856.562	24.35
856.865	23.05
857.168	19.85
857.471	21.72
857.774	20.75
858.077	19.97
858.38	20.39
858.683	22.15
858.986	19.84
859.289	20.16
859.592	20.47
859.894	22.26
860.197	19.86
860.5	15.25
860.802	16.06
861.105	17.58
861.407	16.58
861.71	16.06
862.012	14.04
862.315	15.23
862.617	15.22
862.919	18.42
863.222	20.16
863.524	21.68
863.826	18.22
864.128	19.13
864.43	21.92
864.732	22.1
865.034	22.71
865.336	22.53
865.638	23.65
865.94	23.39
866.242	23.81
866.544	24.4
866.846	28.55
867.147	29.55
867.449	29.37
867.751	31.99
868.052	31.8
868.354	33.58
868.655	29.78
868.957	29.4
869.258	27.06
869.56	25.46
869.861	25.22
870.162	28.63
870.463	29.07
870.765	29.3
871.066	28.74
871.367	27.07
871.668	26.09
871.969	27.55
872.27	27.64
872.571	29.23
872.872	28.43
873.173	26.13
873.473	25.04
873.774	26.97
874.075	23.45
874.376	24.51
874.676	23.4
874.977	27.55
875.277	25.37
875.578	27.29
875.878	27.85
876.179	27.59
876.479	25.99
876.78	26.46
877.08	24.44
877.38	26.4
877.68	26.58
877.981	27.89
878.281	26.91
878.581	28.81
