Data from MVZ_BU8943_Reflection_00004.txt Node
Date: Tue Nov 19 12:09:00 EST 2019
User: vgr7
Spectrometer: USB2G7710
Scans to average: 3
Trigger mode: 4
Integration Time (sec): 2.000000E-2
Electric dark correction enabled: true
Boxcar width: 10
XAxis mode: Wavelengths
Number of Pixels in Spectrum: 2048
>>>>>Begin Spectral Data<<<<<
177.721	374.72
178.105	482.98
178.488	-96.59
178.871	-150.68
179.254	-270.59
179.636	-210.65
180.019	-38.93
180.402	280
180.785	-129.87
181.168	-33.25
181.55	-6.91
181.933	48.55
182.316	29.28
182.698	-7400
183.081	45.78
183.463	-114.29
183.846	-49.01
184.228	-184.81
184.611	129.18
184.993	98.01
185.376	118.93
185.758	80.75
186.14	42.38
186.522	6.82
186.904	17.62
187.287	-15.57
187.669	-10.22
188.051	-38.99
188.433	-51.02
188.815	-56.33
189.197	-55.17
189.579	-44.66
189.961	-34.88
190.342	-18.4
190.724	-27.81
191.106	-25.07
191.488	-20.67
191.869	-12.11
192.251	-13.62
192.633	-24.49
193.014	-38.4
193.396	-103.36
193.777	-88.67
194.159	-76.18
194.54	-49.5
194.922	-90.63
195.303	-92.09
195.684	-576.99
196.065	-436.5
196.447	37600
196.828	413.19
197.209	188.24
197.59	-45.43
197.971	-2.18
198.352	16.84
198.733	213.07
199.114	111.28
199.495	-186.13
199.876	-358.08
200.257	-99.81
200.638	-95.33
201.018	-105.17
201.399	-37.9
201.78	2.92
202.16	58.23
202.541	68.62
202.922	541.18
203.302	461.31
203.683	172.97
204.063	108.74
204.444	97.42
204.824	68.97
205.204	70.38
205.585	35.87
205.965	25.9
206.345	29.5
206.725	44.6
207.106	46.23
207.486	17.83
207.866	56.75
208.246	61.06
208.626	67.06
209.006	75.64
209.386	96.26
209.766	129.67
210.145	52.16
210.525	77.61
210.905	-73.82
211.285	92.61
211.664	114.56
212.044	441.58
212.424	371.81
212.803	-117.31
213.183	-55.17
213.562	-75.86
213.942	-126.03
214.321	-25.62
214.701	-353.49
215.08	-141.94
215.459	649.5
215.838	-384.25
216.218	-71.9
216.597	-76.27
216.976	-121.18
217.355	-1104.92
217.734	837.29
218.113	-494.67
218.492	5145.45
218.871	448.65
219.25	473.1
219.629	768.07
220.008	173.93
220.387	140.13
220.766	121.48
221.144	121.27
221.523	135.27
221.902	119.16
222.28	127.46
222.659	105.86
223.037	88.8
223.416	70.97
223.794	52.45
224.173	34.34
224.551	32.59
224.929	32.49
225.308	24.03
225.686	11.35
226.064	6.96
226.442	12.58
226.821	8.67
227.199	5.48
227.577	4.78
227.955	4.13
228.333	-0.66
228.711	1.41
229.089	0.41
229.467	1.39
229.845	-2.68
230.222	-2.39
230.6	-4.93
230.978	-4.31
231.356	-3.3
231.733	-1.57
232.111	-0.09
232.488	-1.88
232.866	-0.51
233.243	3.66
233.621	6.61
233.998	6.57
234.376	7.33
234.753	10.72
235.13	11.28
235.508	10.43
235.885	10.25
236.262	12.1
236.639	10.93
237.016	10.95
237.393	12.33
237.77	13.44
238.147	13.28
238.524	13.27
238.901	12.54
239.278	12.17
239.655	11.96
240.032	11.56
240.409	11.61
240.785	10.64
241.162	10.16
241.539	9.98
241.915	9.46
242.292	8.69
242.668	8.11
243.045	7.65
243.421	7.81
243.798	7.61
244.174	7.31
244.551	7.34
244.927	7.41
245.303	7.04
245.679	6.8
246.056	6.38
246.432	6.44
246.808	6.73
247.184	6.59
247.56	6.65
247.936	6.69
248.312	6.71
248.688	6.86
249.064	6.69
249.44	6.52
249.815	6.58
250.191	6.56
250.567	6.78
250.943	6.51
251.318	6.58
251.694	6.85
252.069	6.95
252.445	7
252.82	6.92
253.196	6.94
253.571	7.35
253.947	7.44
254.322	7.33
254.697	6.73
255.073	6.87
255.448	6.78
255.823	6.66
256.198	6.64
256.573	6.13
256.948	6.23
257.323	6.38
257.698	6.31
258.073	6.19
258.448	5.83
258.823	5.93
259.198	5.71
259.573	5.42
259.948	5.53
260.322	5.45
260.697	5.54
261.072	5.6
261.446	5.27
261.821	5.24
262.195	5.15
262.57	5.27
262.944	5.2
263.319	4.97
263.693	4.84
264.067	4.87
264.442	5.08
264.816	4.83
265.19	4.88
265.564	4.73
265.938	4.87
266.313	4.88
266.687	4.9
267.061	4.98
267.435	5.3
267.809	5.03
268.183	4.8
268.556	4.66
268.93	4.73
269.304	4.87
269.678	4.97
270.051	4.96
270.425	4.87
270.799	4.54
271.172	4.57
271.546	4.61
271.919	4.58
272.293	4.58
272.666	4.68
273.04	4.56
273.413	4.77
273.787	4.67
274.16	4.65
274.533	4.73
274.906	4.63
275.279	4.51
275.653	4.79
276.026	5.11
276.399	5.13
276.772	4.97
277.145	5.11
277.518	5.12
277.891	5.2
278.263	5.55
278.636	5.99
279.009	6.16
279.382	6.28
279.755	6.4
280.127	6.3
280.5	6.13
280.872	5.99
281.245	5.83
281.617	5.84
281.99	5.95
282.362	6
282.735	6.01
283.107	5.83
283.479	5.75
283.852	5.77
284.224	5.83
284.596	5.83
284.968	5.76
285.34	5.75
285.713	5.86
286.085	5.57
286.457	5.48
286.829	5.45
287.201	5.26
287.572	5.22
287.944	5.38
288.316	5.5
288.688	5.6
289.06	5.63
289.431	5.7
289.803	5.85
290.175	5.67
290.546	5.79
290.918	6
291.289	5.91
291.661	5.87
292.032	5.88
292.403	5.92
292.775	5.87
293.146	5.83
293.517	5.68
293.889	5.86
294.26	5.86
294.631	5.79
295.002	5.99
295.373	6.03
295.744	5.85
296.115	5.94
296.486	5.85
296.857	6.06
297.228	6.02
297.599	5.95
297.97	6.16
298.34	6.18
298.711	6.2
299.082	6.22
299.452	6.37
299.823	6.35
300.194	6.45
300.564	6.29
300.935	6.31
301.305	6.39
301.676	6.44
302.046	6.59
302.416	6.81
302.787	6.73
303.157	6.64
303.527	6.77
303.897	6.71
304.267	6.91
304.637	6.9
305.008	6.95
305.378	7.11
305.748	7.2
306.117	7.26
306.487	7.29
306.857	7.41
307.227	7.42
307.597	7.43
307.967	7.52
308.336	7.73
308.706	7.75
309.076	7.95
309.445	8.02
309.815	7.94
310.184	7.89
310.554	8
310.923	7.97
311.293	8.25
311.662	8.34
312.031	8.29
312.401	8.16
312.77	8.06
313.139	8.02
313.508	7.85
313.877	7.79
314.246	7.76
314.616	7.7
314.985	7.67
315.353	7.76
315.722	7.82
316.091	7.87
316.46	7.9
316.829	7.75
317.198	7.65
317.567	7.86
317.935	7.95
318.304	7.89
318.672	8.15
319.041	8.02
319.41	8.03
319.778	8.22
320.147	8.45
320.515	8.66
320.883	8.57
321.252	8.63
321.62	8.58
321.988	8.5
322.357	8.54
322.725	8.5
323.093	8.55
323.461	8.44
323.829	8.44
324.197	8.65
324.565	8.69
324.933	8.75
325.301	8.65
325.669	8.6
326.037	8.72
326.405	8.66
326.772	8.71
327.14	8.7
327.508	8.73
327.875	8.69
328.243	8.65
328.61	8.72
328.978	8.76
329.346	8.91
329.713	9.07
330.08	9.26
330.448	9.41
330.815	9.47
331.182	9.52
331.55	9.64
331.917	9.29
332.284	9.37
332.651	9.41
333.018	9.46
333.385	9.68
333.752	9.65
334.119	9.66
334.486	9.67
334.853	9.62
335.22	9.45
335.587	9.41
335.954	9.35
336.32	9.37
336.687	9.38
337.054	9.38
337.42	9.38
337.787	9.26
338.153	9.29
338.52	9.49
338.886	9.54
339.253	9.51
339.619	9.79
339.986	9.87
340.352	9.85
340.718	9.81
341.084	9.69
341.451	9.87
341.817	9.81
342.183	9.66
342.549	9.77
342.915	10.02
343.281	9.92
343.647	10.02
344.013	9.98
344.379	9.93
344.745	10.03
345.11	9.99
345.476	10
345.842	9.95
346.208	9.73
346.573	9.68
346.939	9.64
347.304	9.62
347.67	9.43
348.035	9.4
348.401	9.4
348.766	9.34
349.132	9.32
349.497	9.46
349.862	9.41
350.228	9.36
350.593	9.2
350.958	9.3
351.323	9.29
351.688	9.3
352.053	9.34
352.418	9.16
352.783	9.24
353.148	9.29
353.513	9.15
353.878	9.14
354.243	9.13
354.608	9.12
354.972	9.2
355.337	9.33
355.702	9.35
356.066	9.36
356.431	9.45
356.795	9.41
357.16	9.36
357.524	9.5
357.889	9.45
358.253	9.42
358.618	9.51
358.982	9.45
359.346	9.44
359.71	9.41
360.075	9.44
360.439	9.46
360.803	9.46
361.167	9.46
361.531	9.57
361.895	9.57
362.259	9.69
362.623	9.6
362.987	9.63
363.351	9.66
363.714	9.7
364.078	9.69
364.442	9.64
364.806	9.67
365.169	9.65
365.533	9.7
365.896	9.75
366.26	9.68
366.623	9.77
366.987	9.79
367.35	9.87
367.714	9.82
368.077	9.79
368.44	9.85
368.803	9.87
369.167	9.77
369.53	9.84
369.893	9.78
370.256	9.82
370.619	9.74
370.982	9.72
371.345	9.68
371.708	9.58
372.071	9.63
372.434	9.55
372.797	9.52
373.159	9.56
373.522	9.59
373.885	9.54
374.247	9.49
374.61	9.47
374.973	9.42
375.335	9.47
375.698	9.43
376.06	9.39
376.423	9.35
376.785	9.35
377.147	9.27
377.51	9.24
377.872	9.28
378.234	9.29
378.596	9.27
378.958	9.31
379.321	9.34
379.683	9.35
380.045	9.39
380.407	9.36
380.769	9.31
381.13	9.25
381.492	9.27
381.854	9.28
382.216	9.31
382.578	9.37
382.939	9.33
383.301	9.3
383.663	9.27
384.024	9.32
384.386	9.34
384.747	9.32
385.109	9.35
385.47	9.31
385.832	9.33
386.193	9.3
386.554	9.25
386.916	9.27
387.277	9.19
387.638	9.16
387.999	9.18
388.36	9.18
388.721	9.21
389.082	9.24
389.443	9.23
389.804	9.26
390.165	9.22
390.526	9.27
390.887	9.28
391.248	9.23
391.609	9.23
391.969	9.21
392.33	9.21
392.691	9.2
393.051	9.17
393.412	9.12
393.772	9.15
394.133	9.15
394.493	9.15
394.854	9.2
395.214	9.23
395.574	9.19
395.935	9.16
396.295	9.09
396.655	9.02
397.015	9.03
397.376	8.97
397.736	8.94
398.096	8.88
398.456	8.8
398.816	8.82
399.176	8.77
399.535	8.72
399.895	8.67
400.255	8.64
400.615	8.64
400.975	8.63
401.334	8.6
401.694	8.55
402.054	8.53
402.413	8.51
402.773	8.46
403.132	8.45
403.492	8.44
403.851	8.45
404.211	8.45
404.57	8.43
404.929	8.43
405.288	8.46
405.648	8.44
406.007	8.5
406.366	8.46
406.725	8.46
407.084	8.48
407.443	8.52
407.802	8.51
408.161	8.49
408.52	8.47
408.879	8.47
409.238	8.46
409.596	8.47
409.955	8.46
410.314	8.46
410.673	8.49
411.031	8.51
411.39	8.52
411.748	8.53
412.107	8.51
412.465	8.51
412.824	8.47
413.182	8.5
413.54	8.53
413.899	8.52
414.257	8.52
414.615	8.51
414.974	8.49
415.332	8.47
415.69	8.45
416.048	8.48
416.406	8.43
416.764	8.45
417.122	8.43
417.48	8.4
417.838	8.39
418.195	8.38
418.553	8.36
418.911	8.34
419.269	8.33
419.626	8.3
419.984	8.29
420.342	8.29
420.699	8.27
421.057	8.22
421.414	8.24
421.772	8.21
422.129	8.19
422.486	8.19
422.844	8.16
423.201	8.17
423.558	8.14
423.915	8.15
424.273	8.11
424.63	8.1
424.987	8.1
425.344	8.09
425.701	8.05
426.058	8.03
426.415	8.01
426.772	7.98
427.128	7.96
427.485	7.93
427.842	7.89
428.199	7.9
428.555	7.9
428.912	7.83
429.269	7.8
429.625	7.81
429.982	7.79
430.338	7.8
430.695	7.77
431.051	7.75
431.407	7.74
431.764	7.74
432.12	7.74
432.476	7.73
432.832	7.71
433.189	7.72
433.545	7.72
433.901	7.74
434.257	7.76
434.613	7.75
434.969	7.75
435.325	7.75
435.681	7.75
436.036	7.74
436.392	7.78
436.748	7.81
437.104	7.8
437.459	7.79
437.815	7.81
438.171	7.81
438.526	7.81
438.882	7.81
439.237	7.83
439.593	7.82
439.948	7.81
440.304	7.83
440.659	7.84
441.014	7.85
441.369	7.83
441.725	7.82
442.08	7.82
442.435	7.82
442.79	7.84
443.145	7.84
443.5	7.82
443.855	7.81
444.21	7.81
444.565	7.8
444.92	7.83
445.275	7.81
445.629	7.8
445.984	7.8
446.339	7.8
446.693	7.78
447.048	7.78
447.403	7.79
447.757	7.75
448.112	7.74
448.466	7.73
448.82	7.75
449.175	7.75
449.529	7.76
449.883	7.76
450.238	7.75
450.592	7.71
450.946	7.71
451.3	7.71
451.654	7.66
452.008	7.66
452.362	7.62
452.716	7.62
453.07	7.61
453.424	7.59
453.778	7.56
454.132	7.54
454.486	7.54
454.839	7.51
455.193	7.52
455.547	7.51
455.9	7.5
456.254	7.47
456.607	7.48
456.961	7.46
457.314	7.45
457.668	7.43
458.021	7.43
458.375	7.43
458.728	7.42
459.081	7.43
459.434	7.41
459.787	7.42
460.141	7.42
460.494	7.43
460.847	7.46
461.2	7.47
461.553	7.49
461.906	7.51
462.259	7.52
462.611	7.53
462.964	7.55
463.317	7.56
463.67	7.59
464.022	7.6
464.375	7.63
464.728	7.66
465.08	7.69
465.433	7.73
465.785	7.76
466.138	7.79
466.49	7.84
466.843	7.89
467.195	7.92
467.547	7.94
467.899	7.96
468.252	7.97
468.604	8.03
468.956	8.03
469.308	8.07
469.66	8.11
470.012	8.15
470.364	8.19
470.716	8.24
471.068	8.25
471.42	8.27
471.772	8.3
472.123	8.32
472.475	8.36
472.827	8.35
473.178	8.4
473.53	8.42
473.882	8.45
474.233	8.46
474.585	8.49
474.936	8.51
475.288	8.52
475.639	8.55
475.99	8.52
476.342	8.56
476.693	8.55
477.044	8.56
477.395	8.53
477.746	8.51
478.097	8.47
478.448	8.47
478.8	8.48
479.15	8.48
479.501	8.47
479.852	8.46
480.203	8.5
480.554	8.5
480.905	8.49
481.255	8.47
481.606	8.48
481.957	8.48
482.307	8.46
482.658	8.47
483.009	8.46
483.359	8.46
483.709	8.44
484.06	8.44
484.41	8.44
484.761	8.45
485.111	8.45
485.461	8.45
485.811	8.44
486.162	8.43
486.512	8.42
486.862	8.41
487.212	8.42
487.562	8.4
487.912	8.39
488.262	8.38
488.612	8.37
488.961	8.35
489.311	8.33
489.661	8.34
490.011	8.33
490.36	8.32
490.71	8.33
491.06	8.33
491.409	8.33
491.759	8.33
492.108	8.33
492.458	8.34
492.807	8.35
493.157	8.36
493.506	8.38
493.855	8.41
494.204	8.42
494.554	8.43
494.903	8.46
495.252	8.49
495.601	8.54
495.95	8.58
496.299	8.61
496.648	8.65
496.997	8.66
497.346	8.71
497.695	8.78
498.043	8.82
498.392	8.87
498.741	8.92
499.09	8.98
499.438	9.04
499.787	9.1
500.135	9.17
500.484	9.23
500.832	9.26
501.181	9.32
501.529	9.38
501.878	9.45
502.226	9.51
502.574	9.58
502.923	9.62
503.271	9.72
503.619	9.8
503.967	9.87
504.315	9.98
504.663	10.05
505.011	10.1
505.359	10.14
505.707	10.22
506.055	10.32
506.403	10.38
506.751	10.43
507.098	10.51
507.446	10.58
507.794	10.65
508.141	10.77
508.489	10.85
508.837	10.92
509.184	10.99
509.531	11.05
509.879	11.12
510.226	11.2
510.574	11.28
510.921	11.31
511.268	11.4
511.616	11.47
511.963	11.51
512.31	11.57
512.657	11.63
513.004	11.69
513.351	11.74
513.698	11.8
514.045	11.9
514.392	11.95
514.739	12.02
515.086	12.06
515.432	12.08
515.779	12.13
516.126	12.23
516.473	12.27
516.819	12.35
517.166	12.42
517.512	12.49
517.859	12.53
518.205	12.59
518.552	12.65
518.898	12.68
519.245	12.75
519.591	12.82
519.937	12.9
520.283	12.95
520.629	13.01
520.976	13.05
521.322	13.08
521.668	13.14
522.014	13.2
522.36	13.26
522.706	13.35
523.052	13.41
523.398	13.46
523.743	13.49
524.089	13.53
524.435	13.58
524.781	13.64
525.126	13.69
525.472	13.75
525.817	13.77
526.163	13.8
526.509	13.84
526.854	13.87
527.199	13.88
527.545	13.89
527.89	13.92
528.235	13.94
528.581	13.98
528.926	14
529.271	14.03
529.616	14.06
529.961	14.05
530.306	14.08
530.651	14.1
530.996	14.15
531.341	14.17
531.686	14.16
532.031	14.16
532.376	14.17
532.721	14.19
533.065	14.23
533.41	14.26
533.755	14.27
534.099	14.31
534.444	14.34
534.788	14.37
535.133	14.4
535.477	14.42
535.822	14.44
536.166	14.47
536.51	14.49
536.855	14.49
537.199	14.53
537.543	14.55
537.887	14.57
538.231	14.61
538.576	14.64
538.92	14.72
539.264	14.76
539.608	14.8
539.951	14.81
540.295	14.8
540.639	14.84
540.983	14.89
541.327	14.9
541.671	14.92
542.014	14.94
542.358	14.94
542.701	14.95
543.045	14.96
543.389	14.98
543.732	15
544.075	15.04
544.419	15.05
544.762	15.08
545.105	15.09
545.449	15.11
545.792	15.16
546.135	15.15
546.478	15.19
546.821	15.22
547.165	15.28
547.508	15.33
547.851	15.34
548.194	15.29
548.536	15.29
548.879	15.32
549.222	15.34
549.565	15.41
549.908	15.46
550.25	15.53
550.593	15.54
550.936	15.57
551.278	15.59
551.621	15.64
551.963	15.67
552.306	15.7
552.648	15.7
552.991	15.66
553.333	15.65
553.675	15.67
554.017	15.65
554.36	15.63
554.702	15.71
555.044	15.72
555.386	15.79
555.728	15.82
556.07	15.82
556.412	15.83
556.754	15.8
557.096	15.82
557.438	15.81
557.78	15.82
558.121	15.88
558.463	15.92
558.805	15.97
559.147	16.01
559.488	16.04
559.83	16.11
560.171	16.14
560.513	16.17
560.854	16.21
561.196	16.23
561.537	16.26
561.878	16.23
562.22	16.23
562.561	16.24
562.902	16.27
563.243	16.35
563.584	16.36
563.925	16.42
564.266	16.47
564.607	16.45
564.948	16.47
565.289	16.46
565.63	16.47
565.971	16.47
566.312	16.46
566.653	16.47
566.993	16.45
567.334	16.47
567.675	16.51
568.015	16.51
568.356	16.53
568.696	16.55
569.037	16.58
569.377	16.59
569.718	16.61
570.058	16.62
570.398	16.56
570.739	16.59
571.079	16.57
571.419	16.59
571.759	16.61
572.099	16.6
572.439	16.58
572.779	16.6
573.119	16.59
573.459	16.64
573.799	16.62
574.139	16.61
574.479	16.63
574.819	16.62
575.158	16.62
575.498	16.64
575.838	16.63
576.177	16.6
576.517	16.6
576.856	16.59
577.196	16.59
577.535	16.62
577.875	16.61
578.214	16.63
578.553	16.63
578.893	16.66
579.232	16.69
579.571	16.75
579.91	16.76
580.25	16.73
580.589	16.61
580.928	16.62
581.267	16.7
581.606	16.67
581.945	16.68
582.283	16.66
582.622	16.61
582.961	16.6
583.3	16.59
583.639	16.65
583.977	16.65
584.316	16.71
584.654	16.75
584.993	16.73
585.332	16.76
585.67	16.79
586.008	16.81
586.347	16.82
586.685	16.81
587.024	16.83
587.362	16.86
587.7	16.94
588.038	16.98
588.376	16.95
588.715	16.99
589.053	17.04
589.391	17.11
589.729	17.21
590.067	17.28
590.404	17.33
590.742	17.31
591.08	17.33
591.418	17.34
591.756	17.35
592.093	17.33
592.431	17.34
592.769	17.3
593.106	17.28
593.444	17.29
593.781	17.28
594.119	17.26
594.456	17.27
594.793	17.25
595.131	17.25
595.468	17.28
595.805	17.3
596.143	17.3
596.48	17.27
596.817	17.23
597.154	17.22
597.491	17.2
597.828	17.2
598.165	17.16
598.502	17.12
598.839	17.09
599.176	17.14
599.512	17.12
599.849	17.17
600.186	17.16
600.523	17.15
600.859	17.19
601.196	17.22
601.532	17.25
601.869	17.3
602.205	17.3
602.542	17.29
602.878	17.31
603.215	17.32
603.551	17.34
603.887	17.34
604.223	17.33
604.56	17.37
604.896	17.42
605.232	17.47
605.568	17.48
605.904	17.48
606.24	17.48
606.576	17.54
606.912	17.52
607.248	17.57
607.583	17.59
607.919	17.6
608.255	17.61
608.591	17.61
608.926	17.61
609.262	17.61
609.597	17.62
609.933	17.64
610.268	17.57
610.604	17.58
610.939	17.58
611.275	17.58
611.61	17.55
611.945	17.51
612.281	17.49
612.616	17.51
612.951	17.56
613.286	17.62
613.621	17.63
613.956	17.65
614.291	17.61
614.626	17.59
614.961	17.55
615.296	17.56
615.631	17.62
615.966	17.64
616.3	17.68
616.635	17.65
616.97	17.6
617.304	17.67
617.639	17.67
617.973	17.71
618.308	17.73
618.642	17.79
618.977	17.79
619.311	17.83
619.646	17.88
619.98	17.9
620.314	17.88
620.648	17.82
620.983	17.81
621.317	17.83
621.651	17.86
621.985	17.87
622.319	17.82
622.653	17.84
622.987	17.8
623.321	17.86
623.655	17.89
623.988	17.97
624.322	18
624.656	18.04
624.99	18.05
625.323	18.09
625.657	18.05
625.99	18.08
626.324	18.11
626.657	18.09
626.991	18.08
627.324	18.08
627.658	18.12
627.991	18.23
628.324	18.25
628.657	18.21
628.991	18.23
629.324	18.32
629.657	18.25
629.99	18.3
630.323	18.28
630.656	18.27
630.989	18.25
631.322	18.21
631.655	18.16
631.987	18.17
632.32	18.18
632.653	18.25
632.986	18.24
633.318	18.27
633.651	18.26
633.984	18.33
634.316	18.33
634.649	18.33
634.981	18.23
635.313	18.3
635.646	18.33
635.978	18.34
636.31	18.28
636.643	18.35
636.975	18.38
637.307	18.3
637.639	18.33
637.971	18.28
638.303	18.34
638.635	18.34
638.967	18.36
639.299	18.27
639.631	18.28
639.963	18.33
640.295	18.3
640.626	18.3
640.958	18.19
641.29	18.2
641.621	18.18
641.953	18.21
642.285	18.17
642.616	18.24
642.948	18.27
643.279	18.31
643.61	18.29
643.942	18.32
644.273	18.35
644.604	18.33
644.936	18.42
645.267	18.37
645.598	18.44
645.929	18.37
646.26	18.4
646.591	18.41
646.922	18.33
647.253	18.38
647.584	18.45
647.915	18.48
648.245	18.49
648.576	18.53
648.907	18.58
649.238	18.52
649.568	18.5
649.899	18.5
650.229	18.53
650.56	18.56
650.89	18.6
651.221	18.62
651.551	18.76
651.882	18.67
652.212	18.63
652.542	18.65
652.872	18.75
653.203	18.86
653.533	18.87
653.863	18.99
654.193	18.95
654.523	18.8
654.853	18.84
655.183	18.81
655.513	18.78
655.843	18.71
656.172	18.81
656.502	18.81
656.832	18.79
657.162	18.77
657.491	18.82
657.821	18.83
658.15	18.87
658.48	18.88
658.809	18.86
659.139	18.96
659.468	18.94
659.798	18.93
660.127	18.85
660.456	18.78
660.785	18.77
661.115	18.85
661.444	18.97
661.773	19.01
662.102	19.05
662.431	19.1
662.76	19.12
663.089	19.13
663.418	19.11
663.747	19.13
664.076	19.22
664.404	19.19
664.733	19.2
665.062	19.18
665.39	19.12
665.719	19.14
666.048	19.17
666.376	19.21
666.705	19.27
667.033	19.37
667.362	19.46
667.69	19.46
668.018	19.44
668.347	19.4
668.675	19.4
669.003	19.45
669.331	19.44
669.659	19.53
669.987	19.53
670.315	19.65
670.643	19.64
670.971	19.54
671.299	19.58
671.627	19.58
671.955	19.63
672.283	19.65
672.61	19.79
672.938	19.8
673.266	19.71
673.593	19.59
673.921	19.56
674.249	19.46
674.576	19.49
674.904	19.43
675.231	19.5
675.558	19.43
675.886	19.4
676.213	19.39
676.54	19.4
676.867	19.32
677.195	19.34
677.522	19.37
677.849	19.43
678.176	19.35
678.503	19.36
678.83	19.37
679.157	19.35
679.484	19.31
679.81	19.2
680.137	19.23
680.464	19.21
680.791	19.2
681.117	19.29
681.444	19.33
681.771	19.29
682.097	19.34
682.424	19.39
682.75	19.4
683.077	19.41
683.403	19.4
683.729	19.4
684.056	19.29
684.382	19.37
684.708	19.33
685.034	19.44
685.36	19.5
685.686	19.49
686.012	19.53
686.339	19.5
686.664	19.53
686.99	19.64
687.316	19.72
687.642	19.84
687.968	19.82
688.294	19.81
688.619	19.91
688.945	19.79
689.271	19.76
689.596	19.8
689.922	19.81
690.247	19.88
690.573	19.85
690.898	20
691.224	19.87
691.549	19.92
691.874	19.95
692.2	19.88
692.525	19.85
692.85	19.92
693.175	20.02
693.5	20.03
693.825	20.05
694.15	20.03
694.475	20.03
694.8	19.99
695.125	19.93
695.45	19.94
695.775	20.09
696.099	20.17
696.424	20.26
696.749	20.28
697.073	20.27
697.398	20.39
697.723	20.24
698.047	20.29
698.372	20.35
698.696	20.35
699.02	20.24
699.345	20.31
699.669	20.41
699.993	20.33
700.318	20.41
700.642	20.35
700.966	20.4
701.29	20.35
701.614	20.31
701.938	20.38
702.262	20.37
702.586	20.26
702.91	20.17
703.234	20
703.557	19.9
703.881	19.9
704.205	19.96
704.529	20.1
704.852	20.22
705.176	20.26
705.499	20.17
705.823	20.31
706.146	20.31
706.47	20.22
706.793	20.3
707.117	20.39
707.44	20.46
707.763	20.4
708.086	20.4
708.409	20.55
708.733	20.47
709.056	20.67
709.379	20.86
709.702	20.92
710.025	21.16
710.348	21.25
710.671	21.4
710.993	21.34
711.316	21.48
711.639	21.39
711.962	21.34
712.284	21.35
712.607	21.45
712.93	21.38
713.252	21.18
713.575	21.16
713.897	21.09
714.22	21.05
714.542	21.17
714.864	21.16
715.187	21.26
715.509	21.26
715.831	21.15
716.153	20.98
716.475	21.04
716.798	21
717.12	21.12
717.442	20.98
717.764	21.04
718.085	21
718.407	21
718.729	21.03
719.051	21.23
719.373	21.14
719.695	21.12
720.016	21.21
720.338	21.57
720.659	21.75
720.981	21.58
721.302	21.67
721.624	21.62
721.945	21.49
722.267	21.55
722.588	21.47
722.909	21.53
723.231	21.67
723.552	21.71
723.873	21.78
724.194	21.91
724.515	21.63
724.836	21.29
725.157	21.46
725.478	21.43
725.799	21.09
726.12	20.96
726.441	20.95
726.762	21.26
727.083	20.95
727.403	20.78
727.724	21.22
728.045	21.32
728.365	21.44
728.686	21.43
729.006	21.54
729.327	21.77
729.647	22.05
729.967	22.05
730.288	22.15
730.608	21.93
730.928	21.89
731.249	22.15
731.569	22.53
731.889	22.44
732.209	22.5
732.529	22.67
732.849	22.84
733.169	22.96
733.489	22.62
733.809	22.86
734.129	22.85
734.448	22.85
734.768	22.73
735.088	22.55
735.408	22.46
735.727	22.65
736.047	22.53
736.366	22.32
736.686	22.2
737.005	22.01
737.325	22.01
737.644	22.01
737.963	21.93
738.283	21.66
738.602	21.83
738.921	21.85
739.24	21.77
739.56	21.82
739.879	21.88
740.198	22.04
740.517	21.81
740.836	21.9
741.155	21.96
741.473	22.06
741.792	22.26
742.111	22.4
742.43	22.25
742.748	22.43
743.067	22.56
743.386	22.68
743.704	22.77
744.023	22.98
744.341	22.93
744.66	22.92
744.978	23.08
745.297	22.92
745.615	22.81
745.933	23.06
746.252	23.16
746.57	23.21
746.888	22.99
747.206	22.98
747.524	22.92
747.842	22.6
748.16	22.65
748.478	22.83
748.796	22.86
749.114	22.81
749.432	22.55
749.749	22.28
750.067	22.31
750.385	22.44
750.703	22.44
751.02	22.32
751.338	22.45
751.655	22.69
751.973	22.94
752.29	23.06
752.608	22.99
752.925	22.7
753.242	22.7
753.56	22.74
753.877	22.82
754.194	22.98
754.511	22.99
754.828	22.89
755.145	22.81
755.462	22.73
755.779	22.57
756.096	22.63
756.413	22.71
756.73	22.87
757.047	22.55
757.364	22.69
757.68	22.65
757.997	22.63
758.314	22.37
758.63	22.17
758.947	22.26
759.264	22.25
759.58	22.26
759.896	22.37
760.213	22.83
760.529	22.79
760.846	23.06
761.162	22.96
761.478	22.99
761.794	23.17
762.11	23.14
762.426	23.38
762.743	23.37
763.059	23.67
763.375	23.69
763.69	23.94
764.006	24.15
764.322	24.26
764.638	24.3
764.954	24.6
765.27	24.88
765.585	25.06
765.901	25.12
766.216	25.37
766.532	25.44
766.848	25.33
767.163	25.44
767.478	25.39
767.794	25.68
768.109	25.67
768.424	25.57
768.74	25.76
769.055	25.91
769.37	26.09
769.685	25.8
770	25.68
770.315	25.75
770.63	25.59
770.945	25.94
771.26	26.06
771.575	25.57
771.89	25.14
772.205	24.84
772.52	24.81
772.834	24.64
773.149	24.41
773.464	24.28
773.778	24.54
774.093	24.32
774.407	24.25
774.722	24.42
775.036	24.65
775.351	24.88
775.665	24.52
775.979	24.6
776.293	24.46
776.608	24.56
776.922	24.38
777.236	24.43
777.55	24.2
777.864	24.25
778.178	24.65
778.492	24.75
778.806	24.98
779.12	25.2
779.434	25.59
779.747	25.74
780.061	26.28
780.375	26.31
780.689	26.25
781.002	26.4
781.316	26.3
781.629	25.93
781.943	25.96
782.256	26.41
782.57	26.49
782.883	27.12
783.196	26.98
783.51	27.16
783.823	26.74
784.136	26.82
784.449	26.22
784.762	25.99
785.075	25.92
785.388	26.01
785.701	26.25
786.014	25.98
786.327	25.96
786.64	25.1
786.953	25.17
787.266	24.99
787.578	24.83
787.891	25
788.204	25.11
788.516	25.17
788.829	25.13
789.141	25.06
789.454	24.82
789.766	25.17
790.079	24.99
790.391	24.82
790.703	25.28
791.016	26.27
791.328	26.61
791.64	26.85
791.952	26.45
792.264	25.95
792.576	26.45
792.888	27.11
793.2	27.83
793.512	27.17
793.824	27.17
794.136	27.41
794.448	27.62
794.76	27.83
795.071	27.42
795.383	27.12
795.695	27.29
796.006	27.2
796.318	27.07
796.629	27.39
796.941	27.45
797.252	26.62
797.564	25.59
797.875	25.13
798.186	25.64
798.497	26.11
798.809	26.52
799.12	25.76
799.431	25.11
799.742	25.23
800.053	25.35
800.364	26.34
800.675	26.36
800.986	26.24
801.297	26.15
801.608	26.38
801.918	26.94
802.229	26.76
802.54	26.83
802.851	26.26
803.161	26.33
803.472	26.1
803.782	26.14
804.093	26.49
804.403	26.64
804.714	25.99
805.024	25.36
805.334	24.81
805.645	25.14
805.955	25.28
806.265	24.96
806.575	25.69
806.885	25.3
807.195	25.2
807.505	24.89
807.815	25.35
808.125	25.51
808.435	25.06
808.745	25.46
809.055	26.03
809.365	26.78
809.674	26.39
809.984	27.6
810.294	27.85
810.603	27.52
810.913	26.85
811.222	26.9
811.532	27.33
811.841	27.32
812.151	27.36
812.46	27.47
812.769	27.15
813.079	26.85
813.388	26.69
813.697	26.49
814.006	26.96
814.315	27.28
814.624	27.28
814.933	27.45
815.242	27.22
815.551	26.69
815.86	26.45
816.169	26.39
816.478	26.04
816.786	26.07
817.095	26.75
817.404	27.48
817.712	27.71
818.021	27.65
818.33	27.66
818.638	28.11
818.947	28.36
819.255	28.9
819.563	28.85
819.872	28.74
820.18	29.06
820.488	28.76
820.796	28.66
821.105	28.55
821.413	28.82
821.721	28.78
822.029	28.75
822.337	28.71
822.645	28.86
822.953	28.9
823.26	29.1
823.568	29.12
823.876	29.21
824.184	29.01
824.491	29.01
824.799	29.17
825.107	29.14
825.414	28.97
825.722	28.93
826.029	29
826.337	28.94
826.644	29.08
826.951	29.26
827.259	29.24
827.566	29.15
827.873	29.11
828.18	29.4
828.488	29.54
828.795	29.76
829.102	29.72
829.409	29.63
829.716	29.42
830.023	29.45
830.329	29.56
830.636	30.06
830.943	30.32
831.25	30.25
831.557	29.89
831.863	30.27
832.17	30.09
832.476	29.77
832.783	30.17
833.089	29.38
833.396	29.25
833.702	29.01
834.009	29.59
834.315	29.91
834.621	29.78
834.928	29.66
835.234	29.53
835.54	29.87
835.846	29.63
836.152	29.85
836.458	30.19
836.764	30.48
837.07	30.32
837.376	30.43
837.682	30.81
837.988	31.46
838.293	30.82
838.599	30.88
838.905	31.74
839.211	31.47
839.516	32.14
839.822	32.6
840.127	32.97
840.433	33.26
840.738	31.97
841.044	31.3
841.349	31.7
841.654	32.17
841.959	31.99
842.265	33.19
842.57	33.68
842.875	33.59
843.18	31.97
843.485	31.83
843.79	30.65
844.095	30.47
844.4	30.66
844.705	31.83
845.01	32.76
845.315	31.52
845.619	32.08
845.924	32.25
846.229	32.84
846.533	32.27
846.838	31.81
847.142	31.94
847.447	32.66
847.751	32.22
848.056	31.53
848.36	30.41
848.664	31.2
848.969	29.02
849.273	27.41
849.577	29.05
849.881	31.81
850.185	31.34
850.489	31.44
850.794	32.47
851.097	32.2
851.401	32.62
851.705	33.36
852.009	33.84
852.313	31.14
852.617	33.05
852.92	33.91
853.224	35.36
853.528	35.21
853.831	37.38
854.135	37.59
854.438	38.01
854.742	40.98
855.045	38.99
855.349	38.44
855.652	39.22
855.955	38.73
856.259	36.45
856.562	36.98
856.865	37.87
857.168	37.68
857.471	41.4
857.774	40.99
858.077	41.9
858.38	43.06
858.683	47.35
858.986	44.86
859.289	43.92
859.592	43.49
859.894	44.85
860.197	40.74
860.5	41.48
860.802	43.03
861.105	38.93
861.407	38.91
861.71	39.63
862.012	39.39
862.315	39.24
862.617	39.06
862.919	40.62
863.222	39.35
863.524	36.12
863.826	35.4
864.128	36.82
864.43	38.44
864.732	38.4
865.034	37.5
865.336	37.61
865.638	41.33
865.94	42.22
866.242	42.17
866.544	45.07
866.846	46.88
867.147	46.35
867.449	48.98
867.751	48.93
868.052	48.84
868.354	50.63
868.655	53.11
868.957	54.33
869.258	53.27
869.56	54.33
869.861	54.79
870.162	53.03
870.463	53
870.765	50.35
871.066	48.66
871.367	47.37
871.668	44.9
871.969	42.37
872.27	37.58
872.571	38.43
872.872	38.71
873.173	37.49
873.473	34.17
873.774	32.65
874.075	31.43
874.376	30.77
874.676	30.11
874.977	27.6
875.277	26.52
875.578	28.13
875.878	26.37
876.179	26.86
876.479	26.29
876.78	23.62
877.08	23.56
877.38	23.05
877.68	24
877.981	26.26
878.281	26.16
878.581	30.4
