Data from MVZ_BU147395_Reflection_00010.txt Node
Date: Tue Nov 19 12:05:09 EST 2019
User: vgr7
Spectrometer: USB2G7710
Scans to average: 3
Trigger mode: 4
Integration Time (sec): 2.000000E-2
Electric dark correction enabled: true
Boxcar width: 10
XAxis mode: Wavelengths
Number of Pixels in Spectrum: 2048
>>>>>Begin Spectral Data<<<<<
177.721	65.75
178.105	75.71
178.488	66.48
178.871	37.74
179.254	10.89
179.636	104.34
180.019	2638.46
180.402	63.64
180.785	6.83
181.168	13.29
181.55	-123.88
181.933	-15.68
182.316	-281.5
182.698	3415.79
183.081	-1559.57
183.463	-1309.64
183.846	1505.06
184.228	1352.75
184.611	393.16
184.993	284.16
185.376	193.31
185.758	116.11
186.14	102.51
186.522	86.55
186.904	77.9
187.287	71.68
187.669	98.3
188.051	83.82
188.433	94.3
188.815	106.12
189.197	111.9
189.579	117.11
189.961	78.21
190.342	69.4
190.724	57.41
191.106	40.53
191.488	18.15
191.869	17.44
192.251	13.5
192.633	13.03
193.014	10.43
193.396	19.49
193.777	7.11
194.159	10.38
194.54	0.53
194.922	-17.26
195.303	-40.36
195.684	-38.82
196.065	-23.45
196.447	-34.37
196.828	-42.24
197.209	-53.98
197.59	-63.59
197.971	-44.62
198.352	-47.42
198.733	-49.29
199.114	-33.36
199.495	-22.1
199.876	-28.1
200.257	-17.15
200.638	-8.84
201.018	-17.56
201.399	-31.24
201.78	-17.69
202.16	-47.64
202.541	-33.96
202.922	-23.9
203.302	-31.87
203.683	-17.48
204.063	2.99
204.444	69.27
204.824	80.65
205.204	93.8
205.585	93.47
205.965	60.19
206.345	79.48
206.725	68.6
207.106	44.76
207.486	40.61
207.866	60.5
208.246	65.3
208.626	42.79
209.006	34.36
209.386	35.65
209.766	39.11
210.145	49.65
210.525	42.54
210.905	45.05
211.285	36.37
211.664	33.93
212.044	11.99
212.424	1.95
212.803	-13.42
213.183	-20.88
213.562	-20.27
213.942	-12.14
214.321	-16.87
214.701	-17.2
215.08	-14.47
215.459	-15.66
215.838	-29.45
216.218	-42.78
216.597	-48.38
216.976	-52.16
217.355	-57.69
217.734	-61.95
218.113	-44.54
218.492	-42.4
218.871	-34.9
219.25	-25.93
219.629	-39.88
220.008	-21.54
220.387	-22.2
220.766	-11.91
221.144	-20.03
221.523	-11.96
221.902	-14.72
222.28	-6.49
222.659	-1.79
223.037	-1.61
223.416	-2.62
223.794	-5.66
224.173	-7.95
224.551	-2.34
224.929	0.11
225.308	-0.62
225.686	-2.95
226.064	-6.19
226.442	-2.08
226.821	0.7
227.199	0.36
227.577	3.77
227.955	5.87
228.333	5.62
228.711	7.73
229.089	10.24
229.467	6.64
229.845	6.06
230.222	5.06
230.6	2.27
230.978	1.59
231.356	2.42
231.733	3.37
232.111	3.9
232.488	3.47
232.866	2.13
233.243	3.27
233.621	3.76
233.998	4.44
234.376	6.01
234.753	4.64
235.13	5.24
235.508	5.9
235.885	5.07
236.262	3.3
236.639	2.23
237.016	2.56
237.393	3.96
237.77	4.88
238.147	3.73
238.524	3.98
238.901	3.18
239.278	3.16
239.655	3.77
240.032	3.97
240.409	3.74
240.785	3.85
241.162	3.81
241.539	3.82
241.915	3.85
242.292	3.28
242.668	3.29
243.045	3.58
243.421	3.37
243.798	3.61
244.174	4.07
244.551	4.02
244.927	3.94
245.303	3.44
245.679	3.37
246.056	3.7
246.432	3.86
246.808	4.03
247.184	3.99
247.56	3.87
247.936	3.97
248.312	4.07
248.688	3.97
249.064	3.99
249.44	3.95
249.815	3.92
250.191	4.07
250.567	4.09
250.943	4.14
251.318	4.04
251.694	3.89
252.069	3.8
252.445	4.07
252.82	4.17
253.196	4.41
253.571	4.65
253.947	4.73
254.322	4.62
254.697	4.69
255.073	4.53
255.448	4.49
255.823	4.3
256.198	4.27
256.573	4.33
256.948	4.06
257.323	4.13
257.698	4.06
258.073	3.89
258.448	3.84
258.823	3.41
259.198	3.51
259.573	3.48
259.948	3.65
260.322	3.72
260.697	3.85
261.072	3.96
261.446	3.87
261.821	3.63
262.195	3.57
262.57	3.72
262.944	3.84
263.319	3.77
263.693	3.59
264.067	3.54
264.442	3.51
264.816	3.63
265.19	3.68
265.564	3.74
265.938	3.66
266.313	3.51
266.687	3.66
267.061	3.74
267.435	3.84
267.809	3.57
268.183	3.35
268.556	3.01
268.93	2.89
269.304	2.91
269.678	3.08
270.051	2.99
270.425	2.76
270.799	2.59
271.172	2.61
271.546	2.77
271.919	2.97
272.293	2.89
272.666	2.96
273.04	2.86
273.413	2.7
273.787	2.85
274.16	2.92
274.533	3.1
274.906	3
275.279	2.78
275.653	2.85
276.026	2.94
276.399	3.04
276.772	3.05
277.145	2.86
277.518	2.87
277.891	2.98
278.263	3.08
278.636	3.21
279.009	3.22
279.382	3.13
279.755	3
280.127	3.21
280.5	3.14
280.872	3.09
281.245	3.36
281.617	3.33
281.99	3.52
282.362	3.45
282.735	3.34
283.107	3.56
283.479	3.49
283.852	3.39
284.224	3.47
284.596	3.42
284.968	3.62
285.34	3.64
285.713	3.72
286.085	3.59
286.457	3.5
286.829	3.48
287.201	3.52
287.572	3.57
287.944	3.46
288.316	3.45
288.688	3.49
289.06	3.37
289.431	3.42
289.803	3.32
290.175	3.26
290.546	3.35
290.918	3.28
291.289	3.27
291.661	3.37
292.032	3.35
292.403	3.45
292.775	3.4
293.146	3.44
293.517	3.51
293.889	3.62
294.26	3.8
294.631	3.9
295.002	3.97
295.373	3.89
295.744	4
296.115	4.02
296.486	4.02
296.857	4.08
297.228	3.94
297.599	3.94
297.97	4.08
298.34	4.07
298.711	4.16
299.082	4.31
299.452	4.29
299.823	4.28
300.194	4.36
300.564	4.27
300.935	4.24
301.305	4.15
301.676	4.13
302.046	3.98
302.416	3.98
302.787	3.94
303.157	4.01
303.527	4.04
303.897	4.1
304.267	4.1
304.637	4.02
305.008	4.17
305.378	4.16
305.748	4.12
306.117	4.14
306.487	4.11
306.857	4.07
307.227	4.11
307.597	4.07
307.967	3.95
308.336	4.1
308.706	4.05
309.076	4.11
309.445	4.26
309.815	4.36
310.184	4.33
310.554	4.37
310.923	4.33
311.293	4.37
311.662	4.35
312.031	4.47
312.401	4.59
312.77	4.62
313.139	4.58
313.508	4.59
313.877	4.58
314.246	4.55
314.616	4.62
314.985	4.59
315.353	4.69
315.722	4.8
316.091	4.79
316.46	4.85
316.829	4.88
317.198	4.76
317.567	4.89
317.935	5.01
318.304	5
318.672	5.06
319.041	5.08
319.41	5.15
319.778	5.14
320.147	5
320.515	5.02
320.883	5.13
321.252	5.26
321.62	5.42
321.988	5.56
322.357	5.62
322.725	5.65
323.093	5.66
323.461	5.66
323.829	5.74
324.197	5.83
324.565	5.81
324.933	5.9
325.301	5.81
325.669	5.69
326.037	5.77
326.405	5.78
326.772	5.67
327.14	5.63
327.508	5.73
327.875	5.83
328.243	5.86
328.61	5.83
328.978	5.71
329.346	5.69
329.713	5.64
330.08	5.58
330.448	5.69
330.815	5.78
331.182	5.66
331.55	5.72
331.917	5.66
332.284	5.77
332.651	5.75
333.018	5.79
333.385	5.9
333.752	5.86
334.119	5.95
334.486	6
334.853	5.92
335.22	5.74
335.587	5.77
335.954	5.76
336.32	5.83
336.687	5.82
337.054	5.94
337.42	5.96
337.787	5.87
338.153	5.84
338.52	5.9
338.886	5.96
339.253	5.87
339.619	5.84
339.986	5.74
340.352	5.82
340.718	5.82
341.084	5.79
341.451	5.79
341.817	5.8
342.183	5.76
342.549	5.99
342.915	6.1
343.281	6.06
343.647	6.17
344.013	6.21
344.379	6.31
344.745	6.28
345.11	6.29
345.476	6.43
345.842	6.41
346.208	6.31
346.573	6.47
346.939	6.43
347.304	6.46
347.67	6.54
348.035	6.55
348.401	6.68
348.766	6.67
349.132	6.76
349.497	6.73
349.862	6.76
350.228	6.66
350.593	6.54
350.958	6.63
351.323	6.61
351.688	6.59
352.053	6.64
352.418	6.64
352.783	6.7
353.148	6.74
353.513	6.79
353.878	6.81
354.243	6.75
354.608	6.81
354.972	6.77
355.337	6.76
355.702	6.65
356.066	6.57
356.431	6.6
356.795	6.52
357.16	6.56
357.524	6.54
357.889	6.55
358.253	6.58
358.618	6.52
358.982	6.46
359.346	6.48
359.71	6.43
360.075	6.39
360.439	6.38
360.803	6.33
361.167	6.25
361.531	6.22
361.895	6.21
362.259	6.25
362.623	6.31
362.987	6.35
363.351	6.36
363.714	6.34
364.078	6.35
364.442	6.38
364.806	6.36
365.169	6.36
365.533	6.38
365.896	6.38
366.26	6.39
366.623	6.38
366.987	6.35
367.35	6.37
367.714	6.37
368.077	6.34
368.44	6.33
368.803	6.36
369.167	6.3
369.53	6.31
369.893	6.28
370.256	6.24
370.619	6.17
370.982	6.17
371.345	6.23
371.708	6.18
372.071	6.12
372.434	6.1
372.797	6.11
373.159	6.02
373.522	5.99
373.885	5.96
374.247	5.92
374.61	5.96
374.973	5.92
375.335	5.87
375.698	5.79
376.06	5.73
376.423	5.72
376.785	5.73
377.147	5.68
377.51	5.59
377.872	5.56
378.234	5.55
378.596	5.5
378.958	5.42
379.321	5.33
379.683	5.32
380.045	5.26
380.407	5.23
380.769	5.22
381.13	5.19
381.492	5.14
381.854	5.1
382.216	5.02
382.578	4.96
382.939	4.93
383.301	4.92
383.663	4.86
384.024	4.83
384.386	4.83
384.747	4.83
385.109	4.83
385.47	4.83
385.832	4.77
386.193	4.79
386.554	4.71
386.916	4.74
387.277	4.73
387.638	4.72
387.999	4.72
388.36	4.67
388.721	4.66
389.082	4.65
389.443	4.63
389.804	4.58
390.165	4.57
390.526	4.57
390.887	4.55
391.248	4.59
391.609	4.55
391.969	4.51
392.33	4.5
392.691	4.51
393.051	4.46
393.412	4.46
393.772	4.43
394.133	4.44
394.493	4.42
394.854	4.36
395.214	4.32
395.574	4.27
395.935	4.24
396.295	4.24
396.655	4.21
397.015	4.2
397.376	4.22
397.736	4.17
398.096	4.13
398.456	4.09
398.816	4.05
399.176	4.04
399.535	4.01
399.895	3.95
400.255	3.9
400.615	3.86
400.975	3.83
401.334	3.8
401.694	3.78
402.054	3.76
402.413	3.79
402.773	3.8
403.132	3.8
403.492	3.83
403.851	3.79
404.211	3.8
404.57	3.8
404.929	3.75
405.288	3.76
405.648	3.77
406.007	3.78
406.366	3.76
406.725	3.74
407.084	3.71
407.443	3.71
407.802	3.69
408.161	3.73
408.52	3.74
408.879	3.72
409.238	3.73
409.596	3.72
409.955	3.66
410.314	3.67
410.673	3.64
411.031	3.58
411.39	3.59
411.748	3.58
412.107	3.58
412.465	3.59
412.824	3.57
413.182	3.53
413.54	3.52
413.899	3.53
414.257	3.53
414.615	3.52
414.974	3.54
415.332	3.53
415.69	3.5
416.048	3.46
416.406	3.48
416.764	3.46
417.122	3.45
417.48	3.46
417.838	3.45
418.195	3.43
418.553	3.46
418.911	3.46
419.269	3.45
419.626	3.43
419.984	3.42
420.342	3.42
420.699	3.41
421.057	3.42
421.414	3.4
421.772	3.39
422.129	3.39
422.486	3.37
422.844	3.37
423.201	3.36
423.558	3.38
423.915	3.38
424.273	3.37
424.63	3.37
424.987	3.39
425.344	3.38
425.701	3.39
426.058	3.38
426.415	3.36
426.772	3.35
427.128	3.37
427.485	3.36
427.842	3.36
428.199	3.37
428.555	3.34
428.912	3.34
429.269	3.34
429.625	3.33
429.982	3.33
430.338	3.32
430.695	3.34
431.051	3.32
431.407	3.3
431.764	3.31
432.12	3.31
432.476	3.29
432.832	3.29
433.189	3.29
433.545	3.29
433.901	3.29
434.257	3.29
434.613	3.27
434.969	3.29
435.325	3.28
435.681	3.28
436.036	3.28
436.392	3.28
436.748	3.31
437.104	3.33
437.459	3.34
437.815	3.34
438.171	3.33
438.526	3.33
438.882	3.34
439.237	3.34
439.593	3.33
439.948	3.34
440.304	3.33
440.659	3.33
441.014	3.33
441.369	3.32
441.725	3.36
442.08	3.35
442.435	3.34
442.79	3.35
443.145	3.34
443.5	3.34
443.855	3.34
444.21	3.32
444.565	3.31
444.92	3.3
445.275	3.3
445.629	3.29
445.984	3.3
446.339	3.28
446.693	3.25
447.048	3.26
447.403	3.25
447.757	3.25
448.112	3.24
448.466	3.25
448.82	3.25
449.175	3.22
449.529	3.23
449.883	3.23
450.238	3.22
450.592	3.22
450.946	3.23
451.3	3.23
451.654	3.22
452.008	3.22
452.362	3.2
452.716	3.19
453.07	3.18
453.424	3.17
453.778	3.19
454.132	3.18
454.486	3.18
454.839	3.18
455.193	3.2
455.547	3.19
455.9	3.18
456.254	3.18
456.607	3.19
456.961	3.19
457.314	3.18
457.668	3.19
458.021	3.2
458.375	3.21
458.728	3.2
459.081	3.21
459.434	3.2
459.787	3.22
460.141	3.24
460.494	3.25
460.847	3.25
461.2	3.27
461.553	3.29
461.906	3.29
462.259	3.29
462.611	3.3
462.964	3.3
463.317	3.3
463.67	3.32
464.022	3.32
464.375	3.32
464.728	3.34
465.08	3.33
465.433	3.34
465.785	3.33
466.138	3.35
466.49	3.36
466.843	3.37
467.195	3.4
467.547	3.39
467.899	3.41
468.252	3.41
468.604	3.4
468.956	3.41
469.308	3.41
469.66	3.42
470.012	3.44
470.364	3.46
470.716	3.49
471.068	3.47
471.42	3.47
471.772	3.47
472.123	3.47
472.475	3.48
472.827	3.47
473.178	3.48
473.53	3.49
473.882	3.49
474.233	3.49
474.585	3.48
474.936	3.51
475.288	3.49
475.639	3.51
475.99	3.52
476.342	3.53
476.693	3.55
477.044	3.54
477.395	3.52
477.746	3.49
478.097	3.49
478.448	3.5
478.8	3.5
479.15	3.48
479.501	3.46
479.852	3.46
480.203	3.48
480.554	3.46
480.905	3.45
481.255	3.44
481.606	3.44
481.957	3.43
482.307	3.42
482.658	3.43
483.009	3.42
483.359	3.41
483.709	3.41
484.06	3.41
484.41	3.41
484.761	3.42
485.111	3.42
485.461	3.42
485.811	3.41
486.162	3.41
486.512	3.42
486.862	3.42
487.212	3.42
487.562	3.4
487.912	3.4
488.262	3.41
488.612	3.41
488.961	3.42
489.311	3.41
489.661	3.41
490.011	3.41
490.36	3.4
490.71	3.4
491.06	3.4
491.409	3.41
491.759	3.43
492.108	3.41
492.458	3.42
492.807	3.43
493.157	3.44
493.506	3.46
493.855	3.47
494.204	3.46
494.554	3.47
494.903	3.5
495.252	3.52
495.601	3.54
495.95	3.56
496.299	3.59
496.648	3.62
496.997	3.68
497.346	3.69
497.695	3.74
498.043	3.77
498.392	3.78
498.741	3.79
499.09	3.81
499.438	3.86
499.787	3.9
500.135	3.94
500.484	3.98
500.832	4.01
501.181	4.05
501.529	4.13
501.878	4.19
502.226	4.26
502.574	4.31
502.923	4.35
503.271	4.39
503.619	4.45
503.967	4.5
504.315	4.57
504.663	4.65
505.011	4.73
505.359	4.78
505.707	4.88
506.055	4.97
506.403	5.05
506.751	5.13
507.098	5.23
507.446	5.31
507.794	5.41
508.141	5.53
508.489	5.64
508.837	5.73
509.184	5.83
509.531	5.93
509.879	6.04
510.226	6.16
510.574	6.29
510.921	6.41
511.268	6.55
511.616	6.68
511.963	6.82
512.31	6.94
512.657	7.09
513.004	7.24
513.351	7.4
513.698	7.58
514.045	7.77
514.392	7.95
514.739	8.15
515.086	8.33
515.432	8.51
515.779	8.68
516.126	8.86
516.473	9.05
516.819	9.24
517.166	9.41
517.512	9.57
517.859	9.77
518.205	9.91
518.552	10.07
518.898	10.21
519.245	10.38
519.591	10.54
519.937	10.73
520.283	10.91
520.629	11.09
520.976	11.28
521.322	11.45
521.668	11.64
522.014	11.82
522.36	12.04
522.706	12.26
523.052	12.52
523.398	12.78
523.743	13.05
524.089	13.31
524.435	13.56
524.781	13.82
525.126	14.02
525.472	14.25
525.817	14.41
526.163	14.57
526.509	14.72
526.854	14.88
527.199	15.02
527.545	15.15
527.89	15.29
528.235	15.43
528.581	15.58
528.926	15.72
529.271	15.88
529.616	16.02
529.961	16.16
530.306	16.3
530.651	16.45
530.996	16.61
531.341	16.77
531.686	16.95
532.031	17.11
532.376	17.31
532.721	17.48
533.065	17.69
533.41	17.93
533.755	18.16
534.099	18.37
534.444	18.59
534.788	18.81
535.133	19.01
535.477	19.24
535.822	19.46
536.166	19.72
536.51	19.93
536.855	20.18
537.199	20.45
537.543	20.72
537.887	21
538.231	21.3
538.576	21.57
538.92	21.85
539.264	22.08
539.608	22.31
539.951	22.53
540.295	22.75
540.639	22.92
540.983	23.1
541.327	23.31
541.671	23.49
542.014	23.68
542.358	23.86
542.701	24.04
543.045	24.22
543.389	24.42
543.732	24.62
544.075	24.8
544.419	25
544.762	25.19
545.105	25.39
545.449	25.59
545.792	25.79
546.135	25.99
546.478	26.25
546.821	26.51
547.165	26.77
547.508	27.03
547.851	27.29
548.194	27.56
548.536	27.78
548.879	28
549.222	28.21
549.565	28.48
549.908	28.71
550.25	28.97
550.593	29.17
550.936	29.4
551.278	29.7
551.621	29.96
551.963	30.24
552.306	30.42
552.648	30.64
552.991	30.82
553.333	31.06
553.675	31.26
554.017	31.41
554.36	31.6
554.702	31.74
555.044	31.9
555.386	32.05
555.728	32.29
556.07	32.54
556.412	32.72
556.754	32.89
557.096	33.12
557.438	33.29
557.78	33.55
558.121	33.74
558.463	33.91
558.805	34.09
559.147	34.27
559.488	34.46
559.83	34.6
560.171	34.86
560.513	34.98
560.854	35.15
561.196	35.29
561.537	35.48
561.878	35.72
562.22	35.94
562.561	36.08
562.902	36.16
563.243	36.26
563.584	36.4
563.925	36.53
564.266	36.56
564.607	36.71
564.948	36.8
565.289	36.98
565.63	37.1
565.971	37.25
566.312	37.35
566.653	37.51
566.993	37.64
567.334	37.73
567.675	37.86
568.015	38.01
568.356	38.16
568.696	38.26
569.037	38.37
569.377	38.5
569.718	38.66
570.058	38.84
570.398	38.96
570.739	39.1
571.079	39.23
571.419	39.46
571.759	39.57
572.099	39.65
572.439	39.76
572.779	39.89
573.119	39.97
573.459	40.09
573.799	40.15
574.139	40.22
574.479	40.29
574.819	40.43
575.158	40.48
575.498	40.58
575.838	40.69
576.177	40.74
576.517	40.86
576.856	40.92
577.196	40.95
577.535	41.05
577.875	41.16
578.214	41.27
578.553	41.31
578.893	41.42
579.232	41.54
579.571	41.58
579.91	41.64
580.25	41.68
580.589	41.75
580.928	41.85
581.267	41.95
581.606	42.08
581.945	42.14
582.283	42.25
582.622	42.29
582.961	42.35
583.3	42.44
583.639	42.53
583.977	42.64
584.316	42.75
584.654	42.9
584.993	42.92
585.332	43.03
585.67	43.09
586.008	43.12
586.347	43.17
586.685	43.27
587.024	43.34
587.362	43.39
587.7	43.52
588.038	43.64
588.376	43.73
588.715	43.79
589.053	43.83
589.391	43.93
589.729	43.99
590.067	44.04
590.404	44.12
590.742	44.19
591.08	44.26
591.418	44.39
591.756	44.46
592.093	44.53
592.431	44.52
592.769	44.61
593.106	44.65
593.444	44.76
593.781	44.77
594.119	44.87
594.456	44.99
594.793	44.95
595.131	45.01
595.468	45.1
595.805	45.15
596.143	45.17
596.48	45.24
596.817	45.29
597.154	45.37
597.491	45.43
597.828	45.4
598.165	45.46
598.502	45.47
598.839	45.46
599.176	45.62
599.512	45.7
599.849	45.71
600.186	45.77
600.523	45.8
600.859	45.84
601.196	45.88
601.532	45.9
601.869	45.93
602.205	45.94
602.542	45.95
602.878	45.99
603.215	46.07
603.551	46.02
603.887	46.13
604.223	46.18
604.56	46.17
604.896	46.3
605.232	46.34
605.568	46.37
605.904	46.44
606.24	46.46
606.576	46.5
606.912	46.55
607.248	46.64
607.583	46.66
607.919	46.76
608.255	46.78
608.591	46.79
608.926	46.88
609.262	47.01
609.597	47.07
609.933	47.12
610.268	47.17
610.604	47.26
610.939	47.26
611.275	47.23
611.61	47.26
611.945	47.17
612.281	47.23
612.616	47.3
612.951	47.37
613.286	47.32
613.621	47.44
613.956	47.55
614.291	47.59
614.626	47.76
614.961	47.87
615.296	47.87
615.631	47.97
615.966	48.01
616.3	47.95
616.635	47.98
616.97	47.98
617.304	48.07
617.639	48.1
617.973	48.11
618.308	48.19
618.642	48.23
618.977	48.36
619.311	48.37
619.646	48.46
619.98	48.41
620.314	48.54
620.648	48.46
620.983	48.39
621.317	48.37
621.651	48.32
621.985	48.29
622.319	48.39
622.653	48.39
622.987	48.36
623.321	48.47
623.655	48.52
623.988	48.6
624.322	48.65
624.656	48.69
624.99	48.76
625.323	48.71
625.657	48.82
625.99	48.84
626.324	48.83
626.657	48.73
626.991	48.77
627.324	48.77
627.658	48.76
627.991	48.77
628.324	48.82
628.657	48.84
628.991	48.88
629.324	48.9
629.657	49
629.99	49.05
630.323	49.02
630.656	48.99
630.989	48.9
631.322	48.88
631.655	48.99
631.987	49.03
632.32	49.13
632.653	49.1
632.986	49.05
633.318	49.1
633.651	49.19
633.984	49.28
634.316	49.33
634.649	49.4
634.981	49.43
635.313	49.41
635.646	49.4
635.978	49.43
636.31	49.46
636.643	49.39
636.975	49.5
637.307	49.53
637.639	49.54
637.971	49.6
638.303	49.59
638.635	49.44
638.967	49.46
639.299	49.47
639.631	49.31
639.963	49.34
640.295	49.37
640.626	49.36
640.958	49.3
641.29	49.24
641.621	49.31
641.953	49.39
642.285	49.47
642.616	49.6
642.948	49.66
643.279	49.58
643.61	49.58
643.942	49.53
644.273	49.56
644.604	49.6
644.936	49.6
645.267	49.61
645.598	49.7
645.929	49.53
646.26	49.57
646.591	49.82
646.922	49.83
647.253	49.78
647.584	49.85
647.915	49.82
648.245	49.94
648.576	49.97
648.907	49.95
649.238	49.95
649.568	49.82
649.899	49.73
650.229	49.83
650.56	49.95
650.89	49.98
651.221	49.98
651.551	49.98
651.882	50.09
652.212	50.12
652.542	50.14
652.872	50.23
653.203	50.21
653.533	50.23
653.863	50.31
654.193	50.28
654.523	50.24
654.853	50.35
655.183	50.37
655.513	50.28
655.843	50.33
656.172	50.35
656.502	50.47
656.832	50.56
657.162	50.55
657.491	50.59
657.821	50.65
658.15	50.64
658.48	50.67
658.809	50.61
659.139	50.7
659.468	50.68
659.798	50.73
660.127	50.79
660.456	50.72
660.785	50.68
661.115	50.82
661.444	50.83
661.773	50.87
662.102	50.88
662.431	50.92
662.76	50.99
663.089	51.11
663.418	51.1
663.747	51.03
664.076	51.05
664.404	50.89
664.733	50.87
665.062	50.9
665.39	50.91
665.719	50.94
666.048	50.9
666.376	50.96
666.705	51
667.033	50.94
667.362	51
667.69	51.07
668.018	50.99
668.347	51.08
668.675	51.03
669.003	50.9
669.331	50.91
669.659	50.83
669.987	50.74
670.315	50.65
670.643	50.67
670.971	50.64
671.299	50.84
671.627	50.9
671.955	50.83
672.283	50.78
672.61	50.74
672.938	50.75
673.266	50.72
673.593	50.57
673.921	50.66
674.249	50.65
674.576	50.66
674.904	50.72
675.231	50.72
675.558	50.81
675.886	50.93
676.213	51.01
676.54	51.06
676.867	51.07
677.195	51.18
677.522	51.28
677.849	51.33
678.176	51.31
678.503	51.33
678.83	51.37
679.157	51.34
679.484	51.58
679.81	51.73
680.137	51.79
680.464	51.98
680.791	51.92
681.117	51.91
681.444	51.93
681.771	51.93
682.097	52.05
682.424	52.08
682.75	52.15
683.077	52.09
683.403	52.12
683.729	51.99
684.056	52.05
684.382	52.01
684.708	52.12
685.034	52.15
685.36	52.15
685.686	52.26
686.012	52.37
686.339	52.19
686.664	52
686.99	51.94
687.316	51.83
687.642	51.87
687.968	51.94
688.294	51.84
688.619	51.88
688.945	51.68
689.271	51.58
689.596	51.53
689.922	51.71
690.247	51.67
690.573	51.81
690.898	51.72
691.224	51.67
691.549	51.69
691.874	51.63
692.2	51.63
692.525	51.74
692.85	51.61
693.175	51.57
693.5	51.8
693.825	51.88
694.15	51.81
694.475	51.73
694.8	51.68
695.125	51.95
695.45	51.91
695.775	52.1
696.099	52.14
696.424	52.19
696.749	52.15
697.073	52.16
697.398	52.31
697.723	52.33
698.047	52.51
698.372	52.38
698.696	52.33
699.02	52.36
699.345	52.19
699.669	52.42
699.993	52.47
700.318	52.33
700.642	52.29
700.966	52.43
701.29	52.46
701.614	52.54
701.938	52.47
702.262	52.58
702.586	52.52
702.91	52.53
703.234	52.57
703.557	52.57
703.881	52.61
704.205	52.46
704.529	52.57
704.852	52.65
705.176	52.8
705.499	53
705.823	52.84
706.146	52.96
706.47	52.9
706.793	52.93
707.117	52.95
707.44	53.01
707.763	52.93
708.086	53.17
708.409	53.17
708.733	53.02
709.056	52.99
709.379	52.96
709.702	52.98
710.025	52.91
710.348	52.72
710.671	52.68
710.993	52.67
711.316	52.63
711.639	52.39
711.962	52.24
712.284	52.28
712.607	52.31
712.93	52.27
713.252	52.14
713.575	52.27
713.897	52.35
714.22	52.48
714.542	52.49
714.864	52.32
715.187	52.31
715.509	52.37
715.831	52.42
716.153	52.41
716.475	52.34
716.798	52.45
717.12	52.67
717.442	52.81
717.764	52.83
718.085	52.76
718.407	52.91
718.729	52.93
719.051	52.98
719.373	53.24
719.695	53.27
720.016	53.47
720.338	53.41
720.659	53.33
720.981	53.28
721.302	53.38
721.624	53.58
721.945	53.73
722.267	53.6
722.588	53.51
722.909	53.41
723.231	53.5
723.552	53.43
723.873	53.43
724.194	53.46
724.515	53.55
724.836	53.62
725.157	53.62
725.478	53.7
725.799	53.43
726.12	53.37
726.441	53.39
726.762	53.41
727.083	53.37
727.403	53.45
727.724	53.35
728.045	53.34
728.365	53.29
728.686	53.1
729.006	53.17
729.327	53.12
729.647	53.17
729.967	53.22
730.288	53.24
730.608	53.06
730.928	53.18
731.249	53.22
731.569	53.25
731.889	53.12
732.209	53.15
732.529	53.31
732.849	53.37
733.169	53.42
733.489	53.35
733.809	53.13
734.129	53.02
734.448	53.19
734.768	53.24
735.088	53.27
735.408	53.37
735.727	53.6
736.047	53.62
736.366	53.35
736.686	53.55
737.005	53.67
737.325	53.51
737.644	53.3
737.963	53.42
738.283	53.37
738.602	53.56
738.921	53.55
739.24	53.57
739.56	53.35
739.879	53.3
740.198	53.39
740.517	53.51
740.836	53.5
741.155	53.42
741.473	53.25
741.792	53.19
742.111	53.25
742.43	53.13
742.748	53.13
743.067	53.61
743.386	53.38
743.704	53.18
744.023	53.34
744.341	53.4
744.66	53.04
744.978	53.35
745.297	53.3
745.615	53.45
745.933	53.26
746.252	53.34
746.57	53.45
746.888	53.55
747.206	53.76
747.524	53.82
747.842	53.77
748.16	53.99
748.478	53.92
748.796	53.85
749.114	53.72
749.432	53.69
749.749	53.51
750.067	53.58
750.385	53.53
750.703	53.7
751.02	53.85
751.338	53.74
751.655	53.59
751.973	53.3
752.29	53.17
752.608	53.34
752.925	53.14
753.242	53.14
753.56	53.1
753.877	52.96
754.194	53.1
754.511	53.31
754.828	53.67
755.145	53.64
755.462	53.37
755.779	53.44
756.096	53.89
756.413	54.1
756.73	54.39
757.047	54.45
757.364	54.62
757.68	54.55
757.997	54.94
758.314	54.56
758.63	54.94
758.947	54.71
759.264	54.65
759.58	55.26
759.896	55.07
760.213	55.28
760.529	55.15
760.846	55.16
761.162	54.75
761.478	54.37
761.794	54.59
762.11	54.84
762.426	54.9
762.743	54.72
763.059	54.63
763.375	54.34
763.69	54.45
764.006	54.45
764.322	54.32
764.638	54.43
764.954	54.61
765.27	54.49
765.585	54.68
765.901	54.63
766.216	54.2
766.532	54.73
766.848	54.31
767.163	54.34
767.478	54.21
767.794	54.4
768.109	54.43
768.424	54.26
768.74	54.3
769.055	54.47
769.37	54.38
769.685	54.4
770	54.41
770.315	54.39
770.63	54.44
770.945	54.61
771.26	54.49
771.575	54.75
771.89	54.54
772.205	54.44
772.52	54.47
772.834	54.57
773.149	54
773.464	54.22
773.778	54.42
774.093	54.98
774.407	55.27
774.722	55.23
775.036	55.13
775.351	54.93
775.665	54.76
775.979	54.94
776.293	55.13
776.608	55.07
776.922	54.86
777.236	54.62
777.55	54.29
777.864	54.11
778.178	53.76
778.492	54
778.806	54.54
779.12	54.74
779.434	54.32
779.747	54.68
780.061	54.79
780.375	54.64
780.689	53.91
781.002	53.59
781.316	53.98
781.629	53.89
781.943	54.08
782.256	53.86
782.57	53.94
782.883	53.42
783.196	53.34
783.51	53.42
783.823	53.54
784.136	53.64
784.449	53.7
784.762	54.11
785.075	54.32
785.388	53.82
785.701	53.87
786.014	54.31
786.327	53.83
786.64	53.66
786.953	54.06
787.266	54.03
787.578	54.01
787.891	54.03
788.204	54.84
788.516	54.81
788.829	55.1
789.141	55.26
789.454	55.48
789.766	55.67
790.079	55.28
790.391	55.23
790.703	55.56
791.016	55.28
791.328	54.69
791.64	54.55
791.952	54.78
792.264	54.59
792.576	54.51
792.888	54.79
793.2	54.98
793.512	54.84
793.824	55.08
794.136	55.15
794.448	55.48
794.76	55.03
795.071	55.09
795.383	54.75
795.695	54.24
796.006	54.76
796.318	54.86
796.629	55.73
796.941	56.11
797.252	55.72
797.564	55.79
797.875	55.76
798.186	56.02
798.497	55.38
798.809	54.89
799.12	55.26
799.431	54.97
799.742	55
800.053	54.98
800.364	55.37
800.675	55.65
800.986	55.12
801.297	55.24
801.608	55.55
801.918	55.69
802.229	56.21
802.54	55.9
802.851	55.97
803.161	55.84
803.472	55.4
803.782	55.65
804.093	56.02
804.403	57.36
804.714	57.07
805.024	57.87
805.334	58.57
805.645	58.78
805.955	59.02
806.265	59.54
806.575	59.53
806.885	59.2
807.195	58.69
807.505	58.02
807.815	57.98
808.125	57.11
808.435	57.5
808.745	57.13
809.055	57.04
809.365	57.07
809.674	56.85
809.984	57.54
810.294	58.1
810.603	58.37
810.913	57.82
811.222	58.05
811.532	57.97
811.841	58.26
812.151	58.56
812.46	58.41
812.769	57.47
813.079	56.6
813.388	57.05
813.697	57.6
814.006	58.48
814.315	57.87
814.624	58.71
814.933	58.64
815.242	58.89
815.551	58.61
815.86	57.94
816.169	57.37
816.478	56.82
816.786	56.15
817.095	56.28
817.404	55.7
817.712	55.83
818.021	55.79
818.33	54.45
818.638	53.85
818.947	53.82
819.255	54.51
819.563	55.06
819.872	54.69
820.18	55.12
820.488	54.92
820.796	55.14
821.105	55.22
821.413	55.35
821.721	55.39
822.029	55.54
822.337	55.76
822.645	55.9
822.953	55.75
823.26	55.67
823.568	55.44
823.876	55.39
824.184	55.47
824.491	55.42
824.799	55.64
825.107	55.7
825.414	55.74
825.722	55.59
826.029	55.6
826.337	55.68
826.644	55.45
826.951	55.63
827.259	55.5
827.566	55.45
827.873	55.39
828.18	55.2
828.488	55.2
828.795	54.91
829.102	54.89
829.409	55.03
829.716	55.44
830.023	55.74
830.329	55.98
830.636	55.84
830.943	55.97
831.25	55.97
831.557	55.84
831.863	55.73
832.17	55.57
832.476	55.43
832.783	55.36
833.089	55.5
833.396	55.68
833.702	55.84
834.009	55.38
834.315	55.06
834.621	55.5
834.928	55.35
835.234	55.44
835.54	55.13
835.846	54.94
836.152	54.64
836.458	54.53
836.764	54.46
837.07	54.21
837.376	54.57
837.682	54.66
837.988	54.89
838.293	55.29
838.599	55.53
838.905	56.22
839.211	56.76
839.516	56.54
839.822	56.42
840.127	57.26
840.433	57.57
840.738	58.56
841.044	59.12
841.349	58.87
841.654	59.23
841.959	59.76
842.265	59.52
842.57	59.31
842.875	60.12
843.18	60.34
843.485	61.08
843.79	60.53
844.095	61.54
844.4	61.16
844.705	61.29
845.01	61.84
845.315	61.02
845.619	61.48
845.924	62.92
846.229	62.64
846.533	60.97
846.838	60.6
847.142	59.24
847.447	57.82
847.751	57.76
848.056	57.58
848.36	58.53
848.664	59.17
848.969	59.19
849.273	57.79
849.577	58.61
849.881	58.52
850.185	59.09
850.489	58.17
850.794	57.85
851.097	57.98
851.401	57.39
851.705	58.45
852.009	57.63
852.313	57.49
852.617	55.82
852.92	57.97
853.224	61.27
853.528	62.51
853.831	64.22
854.135	67.88
854.438	69.09
854.742	68.57
855.045	68.57
855.349	70.1
855.652	70.28
855.955	69.26
856.259	66.8
856.562	65.32
856.865	66.73
857.168	68.52
857.471	66.51
857.774	67.68
858.077	68.51
858.38	68.24
858.683	67.92
858.986	68.51
859.289	68.56
859.592	67.33
859.894	67.53
860.197	64.38
860.5	62.9
860.802	63.48
861.105	62.88
861.407	62.11
861.71	60.72
862.012	60.98
862.315	63.26
862.617	67.12
862.919	66.42
863.222	64.23
863.524	63.99
863.826	66.25
864.128	66.47
864.43	64.84
864.732	62.88
865.034	59.96
865.336	58.9
865.638	57.02
865.94	56.43
866.242	55.01
866.544	55.97
866.846	55.25
867.147	55.65
867.449	57.69
867.751	60.29
868.052	59.43
868.354	60.41
868.655	59.84
868.957	58.24
869.258	61.17
869.56	63.68
869.861	63.92
870.162	62.07
870.463	60.4
870.765	60.26
871.066	61.81
871.367	64.48
871.668	68.34
871.969	67
872.27	69
872.571	70.94
872.872	71.39
873.173	70.29
873.473	67.82
873.774	65.56
874.075	65.93
874.376	67.07
874.676	67.37
874.977	66.28
875.277	66.15
875.578	62.49
875.878	60.67
876.179	60.04
876.479	61.52
876.78	62.96
877.08	62.84
877.38	63.49
877.68	62.33
877.981	60.31
878.281	63.46
878.581	60.74
