Data from MVZ_BU136690_Reflection_00006.txt Node
Date: Tue Nov 19 12:07:58 EST 2019
User: vgr7
Spectrometer: USB2G7710
Scans to average: 3
Trigger mode: 4
Integration Time (sec): 2.000000E-2
Electric dark correction enabled: true
Boxcar width: 10
XAxis mode: Wavelengths
Number of Pixels in Spectrum: 2048
>>>>>Begin Spectral Data<<<<<
177.721	229.37
178.105	92.7
178.488	-18.64
178.871	-142.86
179.254	9.09
179.636	53.56
180.019	95.41
180.402	86.36
180.785	242.86
181.168	104.67
181.55	66.54
181.933	51.42
182.316	22.54
182.698	20.86
183.081	36.05
183.463	25.37
183.846	88.53
184.228	170.65
184.611	-302.17
184.993	-146.15
185.376	75.61
185.758	-70.33
186.14	-65.71
186.522	-365.12
186.904	-700
187.287	-308.54
187.669	-41.46
188.051	2.44
188.433	-125.61
188.815	-141.38
189.197	-68.83
189.579	-14.39
189.961	-7.43
190.342	8.9
190.724	22.65
191.106	38.23
191.488	55.79
191.869	53.62
192.251	38.76
192.633	36.14
193.014	53
193.396	49.48
193.777	77.02
194.159	83.26
194.54	36.83
194.922	34.72
195.303	47.76
195.684	45.03
196.065	14.94
196.447	29.54
196.828	25.52
197.209	42.51
197.59	80.43
197.971	66.04
198.352	29.22
198.733	-10.93
199.114	-52.36
199.495	-111.08
199.876	-153.91
200.257	-154.1
200.638	-88.37
201.018	-109.81
201.399	-92.96
201.78	-76.42
202.16	-83.7
202.541	-81.94
202.922	-123.83
203.302	-178.6
203.683	-420.69
204.063	-286.21
204.444	-223.03
204.824	-334.78
205.204	-75.9
205.585	-160.78
205.965	-132.79
206.345	-101.42
206.725	2.99
207.106	60.96
207.486	55.45
207.866	29.4
208.246	78.2
208.626	109.65
209.006	187.84
209.386	169.71
209.766	223.08
210.145	83.55
210.525	123.4
210.905	110.99
211.285	127.12
211.664	121.31
212.044	89.89
212.424	82.44
212.803	96.83
213.183	51.15
213.562	29.34
213.942	9.27
214.321	3.63
214.701	1.59
215.08	-12.1
215.459	12.06
215.838	10.93
216.218	-8.09
216.597	-9.1
216.976	-0.53
217.355	-1.75
217.734	2.8
218.113	3.66
218.492	-9.53
218.871	-19.46
219.25	-19.72
219.629	-52.39
220.008	-47.06
220.387	-48.57
220.766	-49.53
221.144	-60.42
221.523	-59.77
221.902	-41.3
222.28	-31.93
222.659	-10.98
223.037	-16.59
223.416	-23.92
223.794	-26.42
224.173	-36.2
224.551	-26.89
224.929	-34.55
225.308	-42.54
225.686	-41.38
226.064	-53.26
226.442	-48.4
226.821	-37.45
227.199	-38.03
227.577	-30.86
227.955	-21.72
228.333	-22.85
228.711	-20.25
229.089	-17.41
229.467	-16.33
229.845	-12.36
230.222	-13.4
230.6	-12.97
230.978	-9.11
231.356	-9.76
231.733	-5.35
232.111	-2.6
232.488	-0.67
232.866	2.42
233.243	3.34
233.621	4.06
233.998	9.86
234.376	11.46
234.753	10.26
235.13	11.97
235.508	11.21
235.885	8.9
236.262	7.12
236.639	6.6
237.016	7.46
237.393	8.61
237.77	7.11
238.147	7.43
238.524	6.98
238.901	5.8
239.278	6
239.655	5.28
240.032	5.79
240.409	4.63
240.785	4.92
241.162	5.09
241.539	4.94
241.915	4.06
242.292	3.96
242.668	4.25
243.045	4.27
243.421	4.61
243.798	4.64
244.174	4.76
244.551	5.15
244.927	4.73
245.303	4.38
245.679	4.44
246.056	4.43
246.432	4.3
246.808	4.7
247.184	4.65
247.56	4.43
247.936	4.18
248.312	4.42
248.688	4.38
249.064	4.55
249.44	4.63
249.815	4.62
250.191	4.88
250.567	4.79
250.943	4.91
251.318	4.81
251.694	4.66
252.069	4.85
252.445	4.67
252.82	5.06
253.196	5.19
253.571	5.28
253.947	5.15
254.322	5.53
254.697	5.17
255.073	5.32
255.448	5.36
255.823	5.52
256.198	5.27
256.573	4.76
256.948	4.41
257.323	4.45
257.698	4.57
258.073	4.4
258.448	4.38
258.823	4.37
259.198	4.4
259.573	4.3
259.948	4.3
260.322	4.19
260.697	4.14
261.072	4.18
261.446	4.11
261.821	3.94
262.195	3.82
262.57	3.7
262.944	3.75
263.319	3.89
263.693	3.79
264.067	3.88
264.442	3.97
264.816	4.01
265.19	3.79
265.564	3.7
265.938	3.72
266.313	3.57
266.687	3.36
267.061	3.32
267.435	3.36
267.809	3.29
268.183	3.29
268.556	3.27
268.93	3.21
269.304	3.09
269.678	3.25
270.051	3.25
270.425	3.2
270.799	3
271.172	2.88
271.546	3.02
271.919	2.96
272.293	3.22
272.666	3.3
273.04	3.32
273.413	3.15
273.787	3.09
274.16	3.14
274.533	3.25
274.906	3.25
275.279	3.24
275.653	3.2
276.026	3.51
276.399	3.5
276.772	3.72
277.145	3.82
277.518	3.84
277.891	3.66
278.263	3.74
278.636	3.9
279.009	3.85
279.382	3.72
279.755	3.75
280.127	3.73
280.5	3.58
280.872	3.68
281.245	3.69
281.617	3.72
281.99	3.85
282.362	3.78
282.735	3.9
283.107	3.84
283.479	3.89
283.852	3.74
284.224	3.75
284.596	3.49
284.968	3.53
285.34	3.53
285.713	3.61
286.085	3.65
286.457	3.62
286.829	3.52
287.201	3.52
287.572	3.55
287.944	3.54
288.316	3.71
288.688	3.68
289.06	3.75
289.431	3.85
289.803	3.75
290.175	3.79
290.546	3.72
290.918	3.78
291.289	3.77
291.661	3.59
292.032	3.56
292.403	3.62
292.775	3.74
293.146	3.72
293.517	3.72
293.889	3.85
294.26	3.86
294.631	4.03
295.002	3.99
295.373	3.97
295.744	3.81
296.115	3.66
296.486	3.74
296.857	3.74
297.228	3.65
297.599	3.56
297.97	3.52
298.34	3.42
298.711	3.43
299.082	3.3
299.452	3.44
299.823	3.54
300.194	3.48
300.564	3.28
300.935	3.37
301.305	3.41
301.676	3.25
302.046	3.17
302.416	3.25
302.787	3.2
303.157	3.14
303.527	3.27
303.897	3.33
304.267	3.09
304.637	3.03
305.008	3.07
305.378	3.32
305.748	3.33
306.117	3.27
306.487	3.28
306.857	3.38
307.227	3.45
307.597	3.33
307.967	3.38
308.336	3.58
308.706	3.61
309.076	3.49
309.445	3.58
309.815	3.59
310.184	3.5
310.554	3.53
310.923	3.53
311.293	3.58
311.662	3.58
312.031	3.74
312.401	3.69
312.77	3.43
313.139	3.34
313.508	3.21
313.877	3.34
314.246	3.27
314.616	3.37
314.985	3.28
315.353	3.32
315.722	3.41
316.091	3.34
316.46	3.18
316.829	3.29
317.198	3.27
317.567	3.28
317.935	3.25
318.304	3.34
318.672	3.47
319.041	3.3
319.41	3.26
319.778	3.28
320.147	3.38
320.515	3.6
320.883	3.56
321.252	3.67
321.62	3.53
321.988	3.49
322.357	3.25
322.725	3.34
323.093	3.32
323.461	3.17
323.829	3.15
324.197	3.2
324.565	3.07
324.933	2.96
325.301	2.83
325.669	2.78
326.037	2.82
326.405	2.78
326.772	2.9
327.14	2.77
327.508	2.6
327.875	2.65
328.243	2.64
328.61	2.55
328.978	2.59
329.346	2.72
329.713	2.97
330.08	3.06
330.448	3.1
330.815	3.08
331.182	3.01
331.55	3.02
331.917	2.99
332.284	3.01
332.651	3.17
333.018	3.2
333.385	3.38
333.752	3.39
334.119	3.4
334.486	3.38
334.853	3.42
335.22	3.51
335.587	3.44
335.954	3.32
336.32	3.34
336.687	3.25
337.054	3.14
337.42	2.99
337.787	2.98
338.153	2.9
338.52	2.84
338.886	2.89
339.253	2.88
339.619	2.92
339.986	3.09
340.352	3
340.718	3.04
341.084	2.86
341.451	2.79
341.817	2.73
342.183	2.64
342.549	2.8
342.915	2.84
343.281	2.91
343.647	3.1
344.013	3.14
344.379	3.06
344.745	3.14
345.11	3.13
345.476	3.12
345.842	3.18
346.208	3.26
346.573	3.34
346.939	3.26
347.304	3.25
347.67	3.18
348.035	3.12
348.401	3.12
348.766	3.19
349.132	3.15
349.497	3.25
349.862	3.27
350.228	3.25
350.593	3.29
350.958	3.33
351.323	3.19
351.688	3.26
352.053	3.38
352.418	3.35
352.783	3.31
353.148	3.41
353.513	3.29
353.878	3.28
354.243	3.23
354.608	3.36
354.972	3.46
355.337	3.51
355.702	3.52
356.066	3.47
356.431	3.51
356.795	3.61
357.16	3.53
357.524	3.55
357.889	3.47
358.253	3.47
358.618	3.44
358.982	3.47
359.346	3.43
359.71	3.47
360.075	3.51
360.439	3.6
360.803	3.59
361.167	3.63
361.531	3.62
361.895	3.69
362.259	3.69
362.623	3.58
362.987	3.53
363.351	3.53
363.714	3.57
364.078	3.57
364.442	3.49
364.806	3.53
365.169	3.55
365.533	3.57
365.896	3.57
366.26	3.51
366.623	3.52
366.987	3.51
367.35	3.52
367.714	3.47
368.077	3.44
368.44	3.46
368.803	3.45
369.167	3.43
369.53	3.36
369.893	3.42
370.256	3.37
370.619	3.38
370.982	3.37
371.345	3.49
371.708	3.46
372.071	3.48
372.434	3.46
372.797	3.5
373.159	3.55
373.522	3.48
373.885	3.53
374.247	3.56
374.61	3.6
374.973	3.56
375.335	3.6
375.698	3.57
376.06	3.53
376.423	3.5
376.785	3.52
377.147	3.59
377.51	3.5
377.872	3.58
378.234	3.61
378.596	3.65
378.958	3.54
379.321	3.52
379.683	3.5
380.045	3.49
380.407	3.44
380.769	3.42
381.13	3.46
381.492	3.46
381.854	3.43
382.216	3.41
382.578	3.44
382.939	3.43
383.301	3.44
383.663	3.36
384.024	3.38
384.386	3.36
384.747	3.33
385.109	3.32
385.47	3.34
385.832	3.31
386.193	3.27
386.554	3.25
386.916	3.3
387.277	3.32
387.638	3.34
387.999	3.36
388.36	3.36
388.721	3.34
389.082	3.36
389.443	3.4
389.804	3.43
390.165	3.4
390.526	3.39
390.887	3.41
391.248	3.46
391.609	3.48
391.969	3.51
392.33	3.51
392.691	3.54
393.051	3.53
393.412	3.55
393.772	3.56
394.133	3.57
394.493	3.51
394.854	3.51
395.214	3.51
395.574	3.48
395.935	3.48
396.295	3.48
396.655	3.47
397.015	3.46
397.376	3.48
397.736	3.47
398.096	3.49
398.456	3.48
398.816	3.47
399.176	3.44
399.535	3.42
399.895	3.38
400.255	3.35
400.615	3.34
400.975	3.32
401.334	3.33
401.694	3.36
402.054	3.37
402.413	3.39
402.773	3.38
403.132	3.4
403.492	3.4
403.851	3.44
404.211	3.42
404.57	3.4
404.929	3.35
405.288	3.35
405.648	3.33
406.007	3.36
406.366	3.41
406.725	3.41
407.084	3.41
407.443	3.42
407.802	3.43
408.161	3.45
408.52	3.5
408.879	3.48
409.238	3.5
409.596	3.51
409.955	3.48
410.314	3.46
410.673	3.42
411.031	3.41
411.39	3.37
411.748	3.4
412.107	3.41
412.465	3.4
412.824	3.4
413.182	3.36
413.54	3.32
413.899	3.32
414.257	3.34
414.615	3.35
414.974	3.37
415.332	3.37
415.69	3.35
416.048	3.31
416.406	3.34
416.764	3.32
417.122	3.31
417.48	3.35
417.838	3.37
418.195	3.39
418.553	3.39
418.911	3.4
419.269	3.4
419.626	3.4
419.984	3.4
420.342	3.4
420.699	3.42
421.057	3.42
421.414	3.41
421.772	3.41
422.129	3.4
422.486	3.4
422.844	3.39
423.201	3.4
423.558	3.4
423.915	3.41
424.273	3.42
424.63	3.44
424.987	3.45
425.344	3.45
425.701	3.45
426.058	3.47
426.415	3.49
426.772	3.49
427.128	3.48
427.485	3.52
427.842	3.53
428.199	3.54
428.555	3.54
428.912	3.54
429.269	3.51
429.625	3.52
429.982	3.51
430.338	3.53
430.695	3.52
431.051	3.51
431.407	3.5
431.764	3.48
432.12	3.5
432.476	3.48
432.832	3.48
433.189	3.48
433.545	3.47
433.901	3.46
434.257	3.47
434.613	3.46
434.969	3.44
435.325	3.42
435.681	3.41
436.036	3.4
436.392	3.41
436.748	3.44
437.104	3.44
437.459	3.46
437.815	3.46
438.171	3.47
438.526	3.46
438.882	3.45
439.237	3.44
439.593	3.44
439.948	3.43
440.304	3.41
440.659	3.42
441.014	3.43
441.369	3.43
441.725	3.42
442.08	3.45
442.435	3.46
442.79	3.49
443.145	3.5
443.5	3.52
443.855	3.51
444.21	3.5
444.565	3.5
444.92	3.51
445.275	3.51
445.629	3.53
445.984	3.54
446.339	3.56
446.693	3.57
447.048	3.54
447.403	3.55
447.757	3.56
448.112	3.57
448.466	3.57
448.82	3.55
449.175	3.55
449.529	3.55
449.883	3.54
450.238	3.52
450.592	3.52
450.946	3.5
451.3	3.52
451.654	3.52
452.008	3.51
452.362	3.52
452.716	3.52
453.07	3.52
453.424	3.5
453.778	3.47
454.132	3.5
454.486	3.53
454.839	3.52
455.193	3.52
455.547	3.49
455.9	3.49
456.254	3.5
456.607	3.51
456.961	3.51
457.314	3.5
457.668	3.52
458.021	3.51
458.375	3.52
458.728	3.5
459.081	3.5
459.434	3.52
459.787	3.52
460.141	3.52
460.494	3.52
460.847	3.53
461.2	3.53
461.553	3.52
461.906	3.52
462.259	3.52
462.611	3.52
462.964	3.54
463.317	3.53
463.67	3.53
464.022	3.55
464.375	3.52
464.728	3.52
465.08	3.51
465.433	3.53
465.785	3.54
466.138	3.56
466.49	3.58
466.843	3.58
467.195	3.57
467.547	3.57
467.899	3.57
468.252	3.58
468.604	3.59
468.956	3.6
469.308	3.59
469.66	3.6
470.012	3.59
470.364	3.59
470.716	3.6
471.068	3.59
471.42	3.6
471.772	3.63
472.123	3.67
472.475	3.68
472.827	3.65
473.178	3.66
473.53	3.68
473.882	3.67
474.233	3.65
474.585	3.65
474.936	3.66
475.288	3.64
475.639	3.64
475.99	3.62
476.342	3.64
476.693	3.63
477.044	3.62
477.395	3.63
477.746	3.62
478.097	3.62
478.448	3.62
478.8	3.61
479.15	3.6
479.501	3.57
479.852	3.57
480.203	3.58
480.554	3.59
480.905	3.59
481.255	3.6
481.606	3.62
481.957	3.63
482.307	3.64
482.658	3.65
483.009	3.64
483.359	3.65
483.709	3.65
484.06	3.67
484.41	3.66
484.761	3.67
485.111	3.68
485.461	3.69
485.811	3.7
486.162	3.69
486.512	3.69
486.862	3.7
487.212	3.71
487.562	3.72
487.912	3.71
488.262	3.71
488.612	3.69
488.961	3.69
489.311	3.69
489.661	3.69
490.011	3.68
490.36	3.69
490.71	3.69
491.06	3.68
491.409	3.68
491.759	3.71
492.108	3.7
492.458	3.71
492.807	3.7
493.157	3.7
493.506	3.71
493.855	3.72
494.204	3.72
494.554	3.72
494.903	3.73
495.252	3.73
495.601	3.74
495.95	3.77
496.299	3.77
496.648	3.77
496.997	3.76
497.346	3.78
497.695	3.79
498.043	3.8
498.392	3.81
498.741	3.82
499.09	3.82
499.438	3.83
499.787	3.8
500.135	3.8
500.484	3.81
500.832	3.81
501.181	3.82
501.529	3.84
501.878	3.84
502.226	3.82
502.574	3.82
502.923	3.82
503.271	3.82
503.619	3.83
503.967	3.83
504.315	3.84
504.663	3.84
505.011	3.83
505.359	3.8
505.707	3.81
506.055	3.8
506.403	3.78
506.751	3.78
507.098	3.81
507.446	3.81
507.794	3.82
508.141	3.82
508.489	3.82
508.837	3.82
509.184	3.81
509.531	3.84
509.879	3.85
510.226	3.86
510.574	3.87
510.921	3.85
511.268	3.86
511.616	3.87
511.963	3.87
512.31	3.88
512.657	3.91
513.004	3.89
513.351	3.89
513.698	3.9
514.045	3.89
514.392	3.9
514.739	3.92
515.086	3.91
515.432	3.89
515.779	3.9
516.126	3.91
516.473	3.92
516.819	3.91
517.166	3.91
517.512	3.9
517.859	3.91
518.205	3.9
518.552	3.9
518.898	3.88
519.245	3.89
519.591	3.9
519.937	3.9
520.283	3.92
520.629	3.91
520.976	3.9
521.322	3.93
521.668	3.91
522.014	3.91
522.36	3.91
522.706	3.9
523.052	3.88
523.398	3.89
523.743	3.89
524.089	3.89
524.435	3.89
524.781	3.91
525.126	3.92
525.472	3.95
525.817	3.95
526.163	3.97
526.509	3.98
526.854	3.98
527.199	3.99
527.545	4
527.89	4
528.235	4.01
528.581	4.01
528.926	4.01
529.271	4.01
529.616	4.02
529.961	4.04
530.306	4.04
530.651	4.04
530.996	4.05
531.341	4.05
531.686	4.06
532.031	4.05
532.376	4.03
532.721	4.01
533.065	4.02
533.41	4.02
533.755	4.01
534.099	3.99
534.444	3.99
534.788	3.97
535.133	3.97
535.477	3.97
535.822	3.97
536.166	3.97
536.51	3.96
536.855	3.96
537.199	3.96
537.543	3.98
537.887	3.97
538.231	3.97
538.576	3.98
538.92	3.97
539.264	3.98
539.608	3.99
539.951	4
540.295	4
540.639	4
540.983	4.01
541.327	4.02
541.671	4
542.014	4.01
542.358	4.02
542.701	4.02
543.045	4.01
543.389	4.01
543.732	4.02
544.075	4.01
544.419	4.01
544.762	3.99
545.105	4
545.449	4
545.792	4
546.135	3.99
546.478	3.99
546.821	4.02
547.165	4.01
547.508	4.02
547.851	4.01
548.194	3.97
548.536	3.97
548.879	3.96
549.222	3.97
549.565	3.97
549.908	3.96
550.25	3.97
550.593	3.98
550.936	4
551.278	4
551.621	4
551.963	4.03
552.306	4.04
552.648	4.06
552.991	4.07
553.333	4.08
553.675	4.1
554.017	4.09
554.36	4.12
554.702	4.1
555.044	4.1
555.386	4.15
555.728	4.15
556.07	4.17
556.412	4.17
556.754	4.14
557.096	4.15
557.438	4.16
557.78	4.17
558.121	4.13
558.463	4.13
558.805	4.16
559.147	4.11
559.488	4.09
559.83	4.06
560.171	4.04
560.513	4.01
560.854	3.97
561.196	3.96
561.537	3.93
561.878	3.97
562.22	3.99
562.561	3.97
562.902	3.97
563.243	3.99
563.584	4
563.925	4.02
564.266	4.02
564.607	4.03
564.948	4.03
565.289	4.05
565.63	4.08
565.971	4.07
566.312	4.09
566.653	4.11
566.993	4.12
567.334	4.14
567.675	4.14
568.015	4.17
568.356	4.15
568.696	4.16
569.037	4.15
569.377	4.13
569.718	4.12
570.058	4.1
570.398	4.09
570.739	4.07
571.079	4.07
571.419	4.07
571.759	4.05
572.099	4.04
572.439	4.02
572.779	4
573.119	4
573.459	3.96
573.799	3.95
574.139	3.93
574.479	3.94
574.819	3.96
575.158	3.96
575.498	4
575.838	3.99
576.177	3.97
576.517	4
576.856	3.96
577.196	3.99
577.535	3.99
577.875	3.98
578.214	3.99
578.553	3.98
578.893	4.01
579.232	4.03
579.571	4.12
579.91	4.1
580.25	4.08
580.589	4.13
580.928	4.14
581.267	4.18
581.606	4.14
581.945	4.15
582.283	4.14
582.622	4.11
582.961	4.13
583.3	4.12
583.639	4.09
583.977	4.13
584.316	4.13
584.654	4.13
584.993	4.13
585.332	4.14
585.67	4.15
586.008	4.11
586.347	4.12
586.685	4.02
587.024	4.04
587.362	4.08
587.7	4.1
588.038	4.06
588.376	4.05
588.715	4.04
589.053	4.04
589.391	4.07
589.729	4.07
590.067	4.05
590.404	4.08
590.742	4.08
591.08	4.13
591.418	4.15
591.756	4.16
592.093	4.17
592.431	4.17
592.769	4.22
593.106	4.2
593.444	4.19
593.781	4.24
594.119	4.23
594.456	4.23
594.793	4.22
595.131	4.22
595.468	4.22
595.805	4.3
596.143	4.27
596.48	4.27
596.817	4.26
597.154	4.27
597.491	4.29
597.828	4.31
598.165	4.26
598.502	4.23
598.839	4.2
599.176	4.21
599.512	4.2
599.849	4.13
600.186	4.16
600.523	4.17
600.859	4.13
601.196	4.13
601.532	4.11
601.869	4.09
602.205	4.1
602.542	4.12
602.878	4.07
603.215	4.08
603.551	4.09
603.887	4.1
604.223	4.1
604.56	4.09
604.896	4.08
605.232	4.09
605.568	4.11
605.904	4.11
606.24	4.1
606.576	4.13
606.912	4.19
607.248	4.2
607.583	4.2
607.919	4.2
608.255	4.22
608.591	4.22
608.926	4.26
609.262	4.27
609.597	4.24
609.933	4.25
610.268	4.27
610.604	4.19
610.939	4.22
611.275	4.23
611.61	4.22
611.945	4.23
612.281	4.24
612.616	4.25
612.951	4.27
613.286	4.29
613.621	4.24
613.956	4.23
614.291	4.26
614.626	4.21
614.961	4.27
615.296	4.32
615.631	4.33
615.966	4.27
616.3	4.32
616.635	4.36
616.97	4.38
617.304	4.35
617.639	4.47
617.973	4.41
618.308	4.39
618.642	4.39
618.977	4.35
619.311	4.37
619.646	4.36
619.98	4.34
620.314	4.3
620.648	4.36
620.983	4.33
621.317	4.33
621.651	4.37
621.985	4.27
622.319	4.21
622.653	4.21
622.987	4.27
623.321	4.22
623.655	4.21
623.988	4.26
624.322	4.25
624.656	4.21
624.99	4.21
625.323	4.19
625.657	4.21
625.99	4.22
626.324	4.22
626.657	4.19
626.991	4.21
627.324	4.18
627.658	4.13
627.991	4.19
628.324	4.14
628.657	4.09
628.991	4.13
629.324	4.12
629.657	4.11
629.99	4.13
630.323	4.09
630.656	4.05
630.989	4.01
631.322	4.02
631.655	4.02
631.987	4.05
632.32	4.06
632.653	4.08
632.986	4.09
633.318	4.05
633.651	4.06
633.984	4.12
634.316	4.17
634.649	4.18
634.981	4.11
635.313	4.14
635.646	4.12
635.978	4.18
636.31	4.14
636.643	4.13
636.975	4.06
637.307	4.11
637.639	4.15
637.971	4.14
638.303	4.17
638.635	4.21
638.967	4.18
639.299	4.23
639.631	4.18
639.963	4.14
640.295	4.2
640.626	4.19
640.958	4.15
641.29	4.22
641.621	4.19
641.953	4.21
642.285	4.23
642.616	4.3
642.948	4.24
643.279	4.32
643.61	4.36
643.942	4.4
644.273	4.41
644.604	4.41
644.936	4.45
645.267	4.5
645.598	4.48
645.929	4.43
646.26	4.43
646.591	4.47
646.922	4.56
647.253	4.52
647.584	4.49
647.915	4.5
648.245	4.42
648.576	4.4
648.907	4.43
649.238	4.36
649.568	4.38
649.899	4.34
650.229	4.4
650.56	4.4
650.89	4.45
651.221	4.45
651.551	4.5
651.882	4.41
652.212	4.4
652.542	4.39
652.872	4.4
653.203	4.39
653.533	4.39
653.863	4.32
654.193	4.33
654.523	4.34
654.853	4.38
655.183	4.46
655.513	4.53
655.843	4.49
656.172	4.56
656.502	4.48
656.832	4.51
657.162	4.43
657.491	4.42
657.821	4.32
658.15	4.33
658.48	4.27
658.809	4.31
659.139	4.28
659.468	4.27
659.798	4.3
660.127	4.28
660.456	4.3
660.785	4.26
661.115	4.23
661.444	4.34
661.773	4.22
662.102	4.22
662.431	4.2
662.76	4.23
663.089	4.29
663.418	4.37
663.747	4.38
664.076	4.47
664.404	4.52
664.733	4.59
665.062	4.7
665.39	4.74
665.719	4.75
666.048	4.77
666.376	4.86
666.705	4.81
667.033	4.84
667.362	4.85
667.69	4.9
668.018	4.99
668.347	4.88
668.675	4.99
669.003	4.92
669.331	4.92
669.659	4.93
669.987	4.87
670.315	4.89
670.643	4.98
670.971	4.93
671.299	4.91
671.627	4.93
671.955	4.84
672.283	4.77
672.61	4.76
672.938	4.79
673.266	4.7
673.593	4.79
673.921	4.74
674.249	4.69
674.576	4.76
674.904	4.74
675.231	4.88
675.558	5
675.886	4.98
676.213	4.98
676.54	4.99
676.867	4.92
677.195	4.91
677.522	4.81
677.849	4.77
678.176	4.73
678.503	4.69
678.83	4.67
679.157	4.71
679.484	4.7
679.81	4.7
680.137	4.72
680.464	4.64
680.791	4.7
681.117	4.77
681.444	4.74
681.771	4.71
682.097	4.63
682.424	4.51
682.75	4.56
683.077	4.55
683.403	4.59
683.729	4.69
684.056	4.62
684.382	4.68
684.708	4.7
685.034	4.68
685.36	4.66
685.686	4.63
686.012	4.55
686.339	4.54
686.664	4.53
686.99	4.46
687.316	4.55
687.642	4.66
687.968	4.68
688.294	4.61
688.619	4.66
688.945	4.65
689.271	4.67
689.596	4.58
689.922	4.56
690.247	4.34
690.573	4.36
690.898	4.47
691.224	4.45
691.549	4.5
691.874	4.52
692.2	4.55
692.525	4.57
692.85	4.59
693.175	4.64
693.5	4.59
693.825	4.62
694.15	4.58
694.475	4.49
694.8	4.5
695.125	4.6
695.45	4.42
695.775	4.48
696.099	4.51
696.424	4.68
696.749	4.8
697.073	4.98
697.398	4.9
697.723	4.85
698.047	4.85
698.372	4.78
698.696	4.71
699.02	4.75
699.345	4.8
699.669	4.85
699.993	4.83
700.318	4.88
700.642	4.96
700.966	5.06
701.29	5.01
701.614	4.93
701.938	4.88
702.262	4.96
702.586	4.97
702.91	4.9
703.234	4.68
703.557	4.53
703.881	4.55
704.205	4.47
704.529	4.42
704.852	4.33
705.176	4.48
705.499	4.63
705.823	4.62
706.146	4.52
706.47	4.62
706.793	4.66
707.117	4.67
707.44	4.55
707.763	4.46
708.086	4.43
708.409	4.45
708.733	4.34
709.056	4.5
709.379	4.46
709.702	4.48
710.025	4.67
710.348	4.69
710.671	4.59
710.993	4.78
711.316	4.93
711.639	5
711.962	5.04
712.284	4.99
712.607	4.94
712.93	4.9
713.252	4.78
713.575	4.77
713.897	4.69
714.22	4.77
714.542	4.88
714.864	4.95
715.187	4.98
715.509	5.08
715.831	5.08
716.153	5.11
716.475	5.22
716.798	5.13
717.12	5.23
717.442	5.3
717.764	5.23
718.085	5.26
718.407	5.25
718.729	5.22
719.051	5.18
719.373	5.19
719.695	5.4
720.016	5.34
720.338	5.39
720.659	5.58
720.981	5.53
721.302	5.46
721.624	5.35
721.945	5.25
722.267	5.36
722.588	5.13
722.909	5.09
723.231	5.08
723.552	5.14
723.873	5.02
724.194	5.09
724.515	5.2
724.836	4.97
725.157	4.97
725.478	4.86
725.799	4.89
726.12	5
726.441	4.9
726.762	4.96
727.083	5.13
727.403	4.99
727.724	4.99
728.045	4.95
728.365	4.98
728.686	5.16
729.006	4.99
729.327	5.22
729.647	5.39
729.967	5.27
730.288	5.22
730.608	5.46
730.928	5.46
731.249	5.43
731.569	5.51
731.889	5.62
732.209	5.44
732.529	5.44
732.849	5.36
733.169	5.52
733.489	5.57
733.809	5.4
734.129	5.45
734.448	5.55
734.768	5.46
735.088	5.42
735.408	5.42
735.727	5.43
736.047	5.5
736.366	5.27
736.686	5.54
737.005	5.77
737.325	5.67
737.644	5.32
737.963	5.21
738.283	5.22
738.602	5.24
738.921	5.7
739.24	5.88
739.56	6.12
739.879	6.06
740.198	6.05
740.517	6.05
740.836	6.04
741.155	6.07
741.473	6.34
741.792	6.32
742.111	6.18
742.43	6.42
742.748	6.44
743.067	6.57
743.386	6.11
743.704	5.88
744.023	6
744.341	6.41
744.66	6.41
744.978	6.38
745.297	6.12
745.615	6.02
745.933	6.01
746.252	5.84
746.57	5.8
746.888	6.03
747.206	5.93
747.524	6.23
747.842	6.01
748.16	5.97
748.478	6.19
748.796	6.23
749.114	6.46
749.432	6.26
749.749	6.28
750.067	6.65
750.385	6.66
750.703	6.5
751.02	6.57
751.338	6.81
751.655	6.85
751.973	7.07
752.29	6.99
752.608	7.01
752.925	6.91
753.242	6.62
753.56	6.12
753.877	6.29
754.194	6.13
754.511	6.4
754.828	6.17
755.145	6.34
755.462	6.53
755.779	6.12
756.096	6.09
756.413	5.99
756.73	5.85
757.047	5.84
757.364	5.93
757.68	5.76
757.997	5.5
758.314	5.64
758.63	5.7
758.947	5.76
759.264	5.87
759.58	5.79
759.896	6.17
760.213	6.64
760.529	6.8
760.846	6.52
761.162	6.29
761.478	6.28
761.794	6.43
762.11	6.51
762.426	6.54
762.743	6.53
763.059	6.55
763.375	6.65
763.69	6.71
764.006	6.72
764.322	6.56
764.638	6.63
764.954	6.81
765.27	6.64
765.585	6.56
765.901	6.56
766.216	6.61
766.532	6.55
766.848	6.54
767.163	6.44
767.478	6.53
767.794	6.71
768.109	6.8
768.424	6.56
768.74	6.48
769.055	6.53
769.37	6.61
769.685	6.49
770	6.28
770.315	6.36
770.63	6.25
770.945	6.63
771.26	6.56
771.575	6.36
771.89	6.51
772.205	6.69
772.52	6.33
772.834	6.84
773.149	6.91
773.464	6.68
773.778	6.76
774.093	6.66
774.407	6.55
774.722	6.66
775.036	6.65
775.351	6.47
775.665	6.34
775.979	6.83
776.293	7.19
776.608	7.33
776.922	7.38
777.236	7.66
777.55	7.48
777.864	7.63
778.178	7.74
778.492	8.13
778.806	7.97
779.12	8.49
779.434	7.87
779.747	8.06
780.061	8.31
780.375	8.08
780.689	8.65
781.002	8.71
781.316	8.84
781.629	9
781.943	9.18
782.256	9.44
782.57	9.27
782.883	9.19
783.196	9.23
783.51	9.33
783.823	8.74
784.136	8.25
784.449	8.44
784.762	8.4
785.075	7.84
785.388	7.91
785.701	7.54
786.014	8.13
786.327	7.87
786.64	7.7
786.953	7.84
787.266	7.28
787.578	7.53
787.891	7.43
788.204	7.42
788.516	7.53
788.829	7.54
789.141	7.3
789.454	7.06
789.766	7.22
790.079	7.04
790.391	7.72
790.703	8.11
791.016	7.87
791.328	7.59
791.64	7.9
791.952	8.4
792.264	8.37
792.576	8.48
792.888	8.43
793.2	8.43
793.512	8.07
793.824	8.44
794.136	8.12
794.448	8.31
794.76	8.16
795.071	8.29
795.383	8.39
795.695	8.44
796.006	8.55
796.318	8.41
796.629	8.52
796.941	7.88
797.252	7.66
797.564	8.24
797.875	8.51
798.186	8.32
798.497	7.93
798.809	8.15
799.12	7.68
799.431	7.64
799.742	7.67
800.053	8.39
800.364	8.33
800.675	8.04
800.986	8.04
801.297	7.9
801.608	7.32
801.918	7.23
802.229	7.53
802.54	7.64
802.851	8.12
803.161	8.27
803.472	8.78
803.782	9.39
804.093	8.67
804.403	8.77
804.714	9.25
805.024	9.1
805.334	8.44
805.645	8.7
805.955	9.06
806.265	9.25
806.575	8.27
806.885	8.08
807.195	8.3
807.505	8.41
807.815	8.71
808.125	8.53
808.435	8.85
808.745	8.2
809.055	8.45
809.365	7.73
809.674	7.32
809.984	7.05
810.294	6.64
810.603	6.48
810.913	6.24
811.222	5.3
811.532	5.28
811.841	6.49
812.151	6.32
812.46	6.42
812.769	5.76
813.079	6.88
813.388	7.3
813.697	7.47
814.006	6.84
814.315	6.7
814.624	7.32
814.933	7.45
815.242	7.16
815.551	6.85
815.86	7.32
816.169	7.19
816.478	7.3
816.786	7.34
817.095	7.67
817.404	7.49
817.712	8.5
818.021	8.48
818.33	8.19
818.638	8.01
818.947	8.03
819.255	8.44
819.563	8.01
819.872	8.01
820.18	8.14
820.488	8.52
820.796	8.72
821.105	8.65
821.413	8.7
821.721	8.98
822.029	8.98
822.337	9.06
822.645	9.17
822.953	9.26
823.26	9.27
823.568	9.27
823.876	9.25
824.184	9.13
824.491	9.23
824.799	9.25
825.107	9.34
825.414	9.32
825.722	9.27
826.029	9.42
826.337	9.51
826.644	9.58
826.951	9.59
827.259	9.61
827.566	9.7
827.873	9.58
828.18	9.58
828.488	9.56
828.795	9.66
829.102	9.4
829.409	9.19
829.716	9.26
830.023	9.32
830.329	9.36
830.636	9.56
830.943	8.97
831.25	8.47
831.557	8.15
831.863	7.98
832.17	7.91
832.476	8.09
832.783	7.93
833.089	8.15
833.396	8.11
833.702	7.97
834.009	7.92
834.315	8.28
834.621	8.43
834.928	8.48
835.234	8.2
835.54	8.78
835.846	9.47
836.152	9.09
836.458	8.72
836.764	9.24
837.07	9.16
837.376	9.98
837.682	10.82
837.988	11.68
838.293	11.91
838.599	12.4
838.905	12.15
839.211	12.15
839.516	11.83
839.822	11.28
840.127	11.28
840.433	11.92
840.738	11.38
841.044	10.76
841.349	11.44
841.654	10.26
841.959	11.16
842.265	10.77
842.57	11.75
842.875	12.95
843.18	12.1
843.485	11.59
843.79	11.17
844.095	10.58
844.4	9.95
844.705	10.56
845.01	10.57
845.315	10.91
845.619	10.49
845.924	10.61
846.229	13.01
846.533	12.61
846.838	10.98
847.142	11.45
847.447	12.57
847.751	12.71
848.056	15.02
848.36	13.37
848.664	12.58
848.969	12
849.273	11.95
849.577	12.38
849.881	14.22
850.185	13.31
850.489	13.37
850.794	15.76
851.097	17.24
851.401	16.78
851.705	16.78
852.009	17.86
852.313	18.09
852.617	16.61
852.92	18.48
853.224	20.63
853.528	18.49
853.831	17.95
854.135	16.1
854.438	15.27
854.742	15.8
855.045	13.91
855.349	15.84
855.652	12.99
855.955	11.92
856.259	10.86
856.562	12.47
856.865	11.54
857.168	8.13
857.471	7.11
857.774	8.14
858.077	6.57
858.38	8.52
858.683	9.07
858.986	8.69
859.289	6.79
859.592	6.4
859.894	6.26
860.197	5.83
860.5	8.84
860.802	10.18
861.105	9.93
861.407	11.67
861.71	12.42
862.012	14.47
862.315	16.95
862.617	14.51
862.919	16.08
863.222	17.74
863.524	17.92
863.826	16.76
864.128	16.84
864.43	19.22
864.732	15.93
865.034	15.39
865.336	15.34
865.638	16.97
865.94	16.38
866.242	19.32
866.544	19.67
866.846	19.57
867.147	19.1
867.449	20.61
867.751	19.1
868.052	15.93
868.354	17.48
868.655	16.31
868.957	16.47
869.258	14.71
869.56	12.63
869.861	13.45
870.162	13.65
870.463	12.85
870.765	13.78
871.066	14.8
871.367	11.67
871.668	12.71
871.969	11.35
872.27	10.13
872.571	10.87
872.872	10.74
873.173	7.94
873.473	7.66
873.774	6.91
874.075	9.58
874.376	12.7
874.676	12.23
874.977	13.66
875.277	14.13
875.578	13.66
875.878	15.44
876.179	15.07
876.479	15.29
876.78	15.27
877.08	12.38
877.38	13.56
877.68	18.05
877.981	16.65
878.281	18.05
878.581	21.54
