Data from MVZ_BU28167_Reflection_00013.txt Node
Date: Tue Nov 19 12:17:43 EST 2019
User: vgr7
Spectrometer: USB2G7710
Scans to average: 3
Trigger mode: 4
Integration Time (sec): 2.000000E-2
Electric dark correction enabled: true
Boxcar width: 10
XAxis mode: Wavelengths
Number of Pixels in Spectrum: 2048
>>>>>Begin Spectral Data<<<<<
177.721	127.03
178.105	266.67
178.488	-95.8
178.871	-146.87
179.254	-366.67
179.636	-49.35
180.019	-153.42
180.402	15
180.785	-130
181.168	-76.14
181.55	-26.51
181.933	-33.06
182.316	-18.5
182.698	-23.79
183.081	-31.34
183.463	-19.17
183.846	-19.05
184.228	17.32
184.611	-3
184.993	-26.53
185.376	-35.02
185.758	-14.34
186.14	-3.28
186.522	-10.24
186.904	-2.17
187.287	-12.15
187.669	-21.31
188.051	-2.8
188.433	-14.17
188.815	1.1
189.197	1.79
189.579	13.04
189.961	18.65
190.342	10.45
190.724	48.6
191.106	32.43
191.488	36.62
191.869	-138.1
192.251	864.71
192.633	-2025
193.014	-10150
193.396	-525
193.777	-11400
194.159	-5775
194.54	721.21
194.922	858.62
195.303	816.67
195.684	3350
196.065	2308.33
196.447	2064.29
196.828	2385.71
197.209	850
197.59	895.45
197.971	1877.78
198.352	-557.89
198.733	-269.75
199.114	-279.63
199.495	-331.37
199.876	-320.45
200.257	-194.12
200.638	-400
201.018	-252.46
201.399	-2542.86
201.78	-2983.33
202.16	571.43
202.541	766.67
202.922	-2400
203.302	142.68
203.683	109.52
204.063	132
204.444	72.38
204.824	70
205.204	33.14
205.585	22.82
205.965	40.97
206.345	23.73
206.725	47.2
207.106	65.52
207.486	57.14
207.866	91.12
208.246	88.58
208.626	110.87
209.006	50.33
209.386	92.42
209.766	-0
210.145	-50.68
210.525	-138.46
210.905	-68.37
211.285	-79.49
211.664	-78.57
212.044	-103.7
212.424	-23.19
212.803	-7.14
213.183	92.31
213.562	153.85
213.942	162.5
214.321	245.83
214.701	114.93
215.08	40.68
215.459	71.83
215.838	43.4
216.218	73.68
216.597	-0.84
216.976	38.52
217.355	35.57
217.734	42.93
218.113	83.87
218.492	109.04
218.871	131.25
219.25	140.7
219.629	147.17
220.008	182.73
220.387	144.83
220.766	169.08
221.144	97.61
221.523	63.05
221.902	50.23
222.28	53.85
222.659	57.55
223.037	51.37
223.416	50.77
223.794	36.36
224.173	34.97
224.551	45.68
224.929	40.06
225.308	38.5
225.686	28.57
226.064	16.82
226.442	18.38
226.821	12.9
227.199	13.4
227.577	13.12
227.955	14.29
228.333	12.54
228.711	6.28
229.089	5.37
229.467	9.2
229.845	8.42
230.222	8.21
230.6	5.15
230.978	7.67
231.356	8.16
231.733	9.49
232.111	9.9
232.488	11.54
232.866	13.83
233.243	9.79
233.621	11.68
233.998	9.81
234.376	6.32
234.753	6.89
235.13	5.68
235.508	5.86
235.885	6.4
236.262	6.32
236.639	7.87
237.016	6.11
237.393	5.17
237.77	4.98
238.147	4.87
238.524	5.24
238.901	4.56
239.278	2.98
239.655	3.16
240.032	2.99
240.409	2.88
240.785	2.59
241.162	3.6
241.539	3.6
241.915	4.09
242.292	4.28
242.668	4.41
243.045	4.02
243.421	4.33
243.798	3.39
244.174	3.64
244.551	3.63
244.927	4.06
245.303	3.79
245.679	3.67
246.056	3.7
246.432	3.57
246.808	4
247.184	4.32
247.56	4.23
247.936	4.29
248.312	4.16
248.688	4.1
249.064	4.08
249.44	3.87
249.815	3.91
250.191	4.1
250.567	3.82
250.943	3.98
251.318	3.8
251.694	4.08
252.069	3.93
252.445	4.02
252.82	4.03
253.196	4.31
253.571	4.54
253.947	4.38
254.322	4.65
254.697	4.27
255.073	4.01
255.448	4.01
255.823	3.95
256.198	3.89
256.573	3.69
256.948	3.47
257.323	3.62
257.698	3.57
258.073	3.5
258.448	3.74
258.823	3.53
259.198	3.42
259.573	3.46
259.948	3.34
260.322	3.31
260.697	3.24
261.072	3.43
261.446	3.31
261.821	3.3
262.195	3.25
262.57	3.18
262.944	3.33
263.319	3.22
263.693	3.3
264.067	3.42
264.442	3.44
264.816	3.41
265.19	3.35
265.564	3.1
265.938	3.18
266.313	2.99
266.687	3.29
267.061	3.17
267.435	3.28
267.809	3.28
268.183	3.13
268.556	2.91
268.93	2.84
269.304	2.86
269.678	2.83
270.051	2.8
270.425	2.82
270.799	2.68
271.172	2.58
271.546	2.42
271.919	2.39
272.293	2.59
272.666	2.72
273.04	2.62
273.413	2.73
273.787	2.56
274.16	2.56
274.533	2.52
274.906	2.74
275.279	2.85
275.653	3.03
276.026	3.08
276.399	3.35
276.772	3.36
277.145	3.4
277.518	3.37
277.891	3.62
278.263	3.74
278.636	3.84
279.009	4.05
279.382	3.98
279.755	3.89
280.127	3.8
280.5	3.74
280.872	3.76
281.245	3.8
281.617	3.77
281.99	3.78
282.362	3.75
282.735	3.66
283.107	3.42
283.479	3.44
283.852	3.36
284.224	3.31
284.596	3.18
284.968	3.09
285.34	3.1
285.713	2.93
286.085	2.98
286.457	3.02
286.829	3.06
287.201	3.25
287.572	3.35
287.944	3.55
288.316	3.5
288.688	3.67
289.06	3.65
289.431	3.75
289.803	3.65
290.175	3.69
290.546	3.75
290.918	3.82
291.289	3.61
291.661	3.61
292.032	3.73
292.403	3.87
292.775	4.11
293.146	4.21
293.517	4.22
293.889	4.17
294.26	4.11
294.631	4.18
295.002	4.29
295.373	4.21
295.744	4.2
296.115	4.33
296.486	4.26
296.857	4.41
297.228	4.41
297.599	4.63
297.97	4.63
298.34	4.61
298.711	4.75
299.082	4.95
299.452	5.1
299.823	5.11
300.194	5.24
300.564	5.15
300.935	5.23
301.305	5.28
301.676	5.3
302.046	5.46
302.416	5.49
302.787	5.35
303.157	5.34
303.527	5.45
303.897	5.37
304.267	5.48
304.637	5.33
305.008	5.23
305.378	5.31
305.748	5.37
306.117	5.49
306.487	5.38
306.857	5.49
307.227	5.71
307.597	5.72
307.967	5.67
308.336	5.95
308.706	5.95
309.076	6.11
309.445	6.37
309.815	6.36
310.184	6.27
310.554	6.27
310.923	6.36
311.293	6.16
311.662	6.34
312.031	6.37
312.401	6.47
312.77	6.67
313.139	6.71
313.508	6.77
313.877	6.73
314.246	6.88
314.616	6.88
314.985	6.68
315.353	6.78
315.722	7.01
316.091	7
316.46	7.14
316.829	7.08
317.198	6.99
317.567	7.07
317.935	7.1
318.304	7.26
318.672	7.35
319.041	7.51
319.41	7.48
319.778	7.38
320.147	7.49
320.515	7.45
320.883	7.4
321.252	7.42
321.62	7.57
321.988	7.58
322.357	7.62
322.725	7.69
323.093	7.67
323.461	7.55
323.829	7.57
324.197	7.57
324.565	7.7
324.933	7.69
325.301	7.68
325.669	7.93
326.037	7.9
326.405	7.93
326.772	8.13
327.14	8.15
327.508	8.33
327.875	8.37
328.243	8.56
328.61	8.6
328.978	8.55
329.346	8.71
329.713	8.76
330.08	8.86
330.448	8.95
330.815	9.05
331.182	9.14
331.55	9.11
331.917	9.02
332.284	8.97
332.651	9.11
333.018	9.21
333.385	9.2
333.752	9.34
334.119	9.41
334.486	9.38
334.853	9.36
335.22	9.36
335.587	9.4
335.954	9.34
336.32	9.52
336.687	9.78
337.054	9.67
337.42	9.63
337.787	9.56
338.153	9.51
338.52	9.68
338.886	9.65
339.253	9.54
339.619	9.73
339.986	9.52
340.352	9.47
340.718	9.41
341.084	9.5
341.451	9.6
341.817	9.63
342.183	9.59
342.549	9.75
342.915	9.76
343.281	9.74
343.647	9.64
344.013	9.53
344.379	9.47
344.745	9.48
345.11	9.56
345.476	9.72
345.842	9.72
346.208	9.63
346.573	9.73
346.939	9.87
347.304	9.86
347.67	10.1
348.035	10.09
348.401	10.16
348.766	10.11
349.132	10.16
349.497	10.15
349.862	10.23
350.228	10.26
350.593	10.24
350.958	10.41
351.323	10.53
351.688	10.71
352.053	10.67
352.418	10.63
352.783	10.74
353.148	10.7
353.513	10.8
353.878	10.75
354.243	10.65
354.608	10.7
354.972	10.66
355.337	10.58
355.702	10.62
356.066	10.6
356.431	10.63
356.795	10.48
357.16	10.6
357.524	10.55
357.889	10.42
358.253	10.41
358.618	10.2
358.982	10.2
359.346	10.06
359.71	10.07
360.075	10.13
360.439	10.01
360.803	9.98
361.167	9.89
361.531	9.82
361.895	9.86
362.259	9.79
362.623	9.73
362.987	9.69
363.351	9.61
363.714	9.57
364.078	9.51
364.442	9.46
364.806	9.32
365.169	9.24
365.533	9.19
365.896	9.22
366.26	9.24
366.623	9.17
366.987	9.12
367.35	9.14
367.714	9.06
368.077	9.08
368.44	9.04
368.803	9.03
369.167	9.01
369.53	8.9
369.893	8.85
370.256	8.86
370.619	8.78
370.982	8.73
371.345	8.75
371.708	8.6
372.071	8.61
372.434	8.55
372.797	8.55
373.159	8.47
373.522	8.4
373.885	8.34
374.247	8.28
374.61	8.24
374.973	8.08
375.335	7.96
375.698	7.8
376.06	7.72
376.423	7.64
376.785	7.62
377.147	7.61
377.51	7.49
377.872	7.4
378.234	7.42
378.596	7.4
378.958	7.34
379.321	7.32
379.683	7.29
380.045	7.2
380.407	7.09
380.769	7.11
381.13	6.95
381.492	6.83
381.854	6.79
382.216	6.73
382.578	6.71
382.939	6.72
383.301	6.7
383.663	6.6
384.024	6.58
384.386	6.51
384.747	6.41
385.109	6.46
385.47	6.47
385.832	6.35
386.193	6.25
386.554	6.16
386.916	6.16
387.277	6.1
387.638	6.08
387.999	6.07
388.36	6.04
388.721	6.06
389.082	6.09
389.443	6.06
389.804	5.99
390.165	5.94
390.526	5.92
390.887	5.88
391.248	5.87
391.609	5.85
391.969	5.82
392.33	5.8
392.691	5.77
393.051	5.71
393.412	5.77
393.772	5.81
394.133	5.77
394.493	5.72
394.854	5.68
395.214	5.63
395.574	5.58
395.935	5.52
396.295	5.47
396.655	5.4
397.015	5.35
397.376	5.39
397.736	5.32
398.096	5.29
398.456	5.25
398.816	5.23
399.176	5.14
399.535	5.05
399.895	4.96
400.255	4.89
400.615	4.83
400.975	4.75
401.334	4.65
401.694	4.59
402.054	4.56
402.413	4.49
402.773	4.49
403.132	4.49
403.492	4.45
403.851	4.41
404.211	4.39
404.57	4.35
404.929	4.23
405.288	4.24
405.648	4.2
406.007	4.19
406.366	4.13
406.725	4.16
407.084	4.17
407.443	4.2
407.802	4.19
408.161	4.18
408.52	4.18
408.879	4.2
409.238	4.21
409.596	4.18
409.955	4.14
410.314	4.17
410.673	4.09
411.031	4.05
411.39	4.06
411.748	4.08
412.107	4.06
412.465	4.09
412.824	4.08
413.182	4.04
413.54	4.05
413.899	4.07
414.257	4.07
414.615	4.07
414.974	4.07
415.332	4.04
415.69	3.99
416.048	3.95
416.406	3.9
416.764	3.9
417.122	3.87
417.48	3.9
417.838	3.85
418.195	3.84
418.553	3.83
418.911	3.82
419.269	3.77
419.626	3.75
419.984	3.74
420.342	3.71
420.699	3.68
421.057	3.65
421.414	3.64
421.772	3.61
422.129	3.59
422.486	3.58
422.844	3.57
423.201	3.56
423.558	3.56
423.915	3.55
424.273	3.54
424.63	3.54
424.987	3.53
425.344	3.51
425.701	3.5
426.058	3.5
426.415	3.49
426.772	3.5
427.128	3.51
427.485	3.49
427.842	3.49
428.199	3.52
428.555	3.51
428.912	3.49
429.269	3.47
429.625	3.47
429.982	3.45
430.338	3.44
430.695	3.44
431.051	3.43
431.407	3.43
431.764	3.42
432.12	3.44
432.476	3.43
432.832	3.44
433.189	3.43
433.545	3.42
433.901	3.4
434.257	3.41
434.613	3.4
434.969	3.43
435.325	3.43
435.681	3.41
436.036	3.41
436.392	3.44
436.748	3.46
437.104	3.45
437.459	3.45
437.815	3.47
438.171	3.47
438.526	3.49
438.882	3.49
439.237	3.48
439.593	3.47
439.948	3.45
440.304	3.47
440.659	3.47
441.014	3.49
441.369	3.49
441.725	3.49
442.08	3.48
442.435	3.46
442.79	3.47
443.145	3.48
443.5	3.47
443.855	3.45
444.21	3.42
444.565	3.43
444.92	3.39
445.275	3.37
445.629	3.37
445.984	3.34
446.339	3.34
446.693	3.32
447.048	3.31
447.403	3.31
447.757	3.28
448.112	3.27
448.466	3.26
448.82	3.26
449.175	3.24
449.529	3.25
449.883	3.23
450.238	3.22
450.592	3.18
450.946	3.19
451.3	3.18
451.654	3.17
452.008	3.15
452.362	3.18
452.716	3.17
453.07	3.16
453.424	3.17
453.778	3.17
454.132	3.15
454.486	3.15
454.839	3.18
455.193	3.19
455.547	3.2
455.9	3.2
456.254	3.18
456.607	3.18
456.961	3.18
457.314	3.19
457.668	3.18
458.021	3.19
458.375	3.19
458.728	3.19
459.081	3.2
459.434	3.21
459.787	3.22
460.141	3.24
460.494	3.26
460.847	3.26
461.2	3.26
461.553	3.29
461.906	3.31
462.259	3.28
462.611	3.29
462.964	3.31
463.317	3.32
463.67	3.33
464.022	3.36
464.375	3.36
464.728	3.4
465.08	3.43
465.433	3.45
465.785	3.47
466.138	3.47
466.49	3.49
466.843	3.53
467.195	3.54
467.547	3.54
467.899	3.55
468.252	3.56
468.604	3.58
468.956	3.59
469.308	3.59
469.66	3.65
470.012	3.66
470.364	3.68
470.716	3.71
471.068	3.73
471.42	3.75
471.772	3.77
472.123	3.75
472.475	3.75
472.827	3.77
473.178	3.79
473.53	3.8
473.882	3.82
474.233	3.79
474.585	3.81
474.936	3.81
475.288	3.8
475.639	3.8
475.99	3.8
476.342	3.82
476.693	3.81
477.044	3.78
477.395	3.76
477.746	3.72
478.097	3.7
478.448	3.68
478.8	3.64
479.15	3.63
479.501	3.63
479.852	3.62
480.203	3.59
480.554	3.56
480.905	3.56
481.255	3.55
481.606	3.56
481.957	3.54
482.307	3.52
482.658	3.53
483.009	3.52
483.359	3.51
483.709	3.51
484.06	3.51
484.41	3.51
484.761	3.51
485.111	3.51
485.461	3.5
485.811	3.49
486.162	3.51
486.512	3.51
486.862	3.49
487.212	3.49
487.562	3.48
487.912	3.49
488.262	3.49
488.612	3.49
488.961	3.49
489.311	3.49
489.661	3.49
490.011	3.5
490.36	3.5
490.71	3.51
491.06	3.51
491.409	3.5
491.759	3.51
492.108	3.52
492.458	3.54
492.807	3.56
493.157	3.59
493.506	3.61
493.855	3.62
494.204	3.65
494.554	3.67
494.903	3.72
495.252	3.77
495.601	3.8
495.95	3.81
496.299	3.85
496.648	3.91
496.997	3.95
497.346	4
497.695	4.06
498.043	4.1
498.392	4.14
498.741	4.23
499.09	4.29
499.438	4.34
499.787	4.39
500.135	4.44
500.484	4.52
500.832	4.6
501.181	4.67
501.529	4.79
501.878	4.89
502.226	5
502.574	5.09
502.923	5.2
503.271	5.33
503.619	5.45
503.967	5.56
504.315	5.7
504.663	5.83
505.011	5.96
505.359	6.07
505.707	6.21
506.055	6.35
506.403	6.51
506.751	6.68
507.098	6.89
507.446	7.05
507.794	7.21
508.141	7.38
508.489	7.6
508.837	7.8
509.184	7.97
509.531	8.15
509.879	8.33
510.226	8.54
510.574	8.74
510.921	8.95
511.268	9.14
511.616	9.34
511.963	9.55
512.31	9.83
512.657	10.11
513.004	10.36
513.351	10.62
513.698	10.9
514.045	11.18
514.392	11.46
514.739	11.73
515.086	12.04
515.432	12.33
515.779	12.61
516.126	12.87
516.473	13.14
516.819	13.39
517.166	13.66
517.512	13.88
517.859	14.1
518.205	14.31
518.552	14.58
518.898	14.79
519.245	15.04
519.591	15.26
519.937	15.51
520.283	15.79
520.629	16.04
520.976	16.33
521.322	16.59
521.668	16.86
522.014	17.17
522.36	17.44
522.706	17.74
523.052	18.07
523.398	18.41
523.743	18.78
524.089	19.17
524.435	19.49
524.781	19.81
525.126	20.15
525.472	20.45
525.817	20.69
526.163	20.94
526.509	21.15
526.854	21.34
527.199	21.51
527.545	21.69
527.89	21.9
528.235	22.07
528.581	22.28
528.926	22.46
529.271	22.64
529.616	22.87
529.961	23.08
530.306	23.29
530.651	23.5
530.996	23.7
531.341	23.92
531.686	24.16
532.031	24.4
532.376	24.63
532.721	24.87
533.065	25.14
533.41	25.39
533.755	25.67
534.099	25.96
534.444	26.26
534.788	26.54
535.133	26.83
535.477	27.12
535.822	27.4
536.166	27.73
536.51	28.11
536.855	28.39
537.199	28.73
537.543	29.08
537.887	29.45
538.231	29.84
538.576	30.17
538.92	30.54
539.264	30.88
539.608	31.17
539.951	31.49
540.295	31.76
540.639	32.06
540.983	32.32
541.327	32.57
541.671	32.82
542.014	33.09
542.358	33.31
542.701	33.57
543.045	33.82
543.389	34.04
543.732	34.23
544.075	34.49
544.419	34.74
544.762	35
545.105	35.21
545.449	35.44
545.792	35.72
546.135	35.98
546.478	36.27
546.821	36.6
547.165	36.9
547.508	37.22
547.851	37.55
548.194	37.89
548.536	38.19
548.879	38.47
549.222	38.73
549.565	39
549.908	39.28
550.25	39.53
550.593	39.79
550.936	40.11
551.278	40.44
551.621	40.76
551.963	40.99
552.306	41.27
552.648	41.55
552.991	41.82
553.333	42.09
553.675	42.35
554.017	42.55
554.36	42.78
554.702	43
555.044	43.17
555.386	43.36
555.728	43.61
556.07	43.81
556.412	44.01
556.754	44.28
557.096	44.48
557.438	44.7
557.78	45
558.121	45.3
558.463	45.47
558.805	45.72
559.147	45.98
559.488	46.23
559.83	46.42
560.171	46.63
560.513	46.8
560.854	46.91
561.196	47.12
561.537	47.36
561.878	47.55
562.22	47.69
562.561	47.84
562.902	48.02
563.243	48.19
563.584	48.36
563.925	48.55
564.266	48.68
564.607	48.87
564.948	49
565.289	49.07
565.63	49.15
565.971	49.25
566.312	49.35
566.653	49.43
566.993	49.58
567.334	49.74
567.675	49.85
568.015	50.01
568.356	50.15
568.696	50.25
569.037	50.39
569.377	50.58
569.718	50.78
570.058	50.9
570.398	51.02
570.739	51.16
571.079	51.2
571.419	51.33
571.759	51.43
572.099	51.51
572.439	51.65
572.779	51.81
573.119	51.94
573.459	52.04
573.799	52.17
574.139	52.35
574.479	52.44
574.819	52.61
575.158	52.74
575.498	52.76
575.838	52.83
576.177	53
576.517	53.11
576.856	53.17
577.196	53.26
577.535	53.41
577.875	53.54
578.214	53.71
578.553	53.85
578.893	53.92
579.232	54.12
579.571	54.27
579.91	54.33
580.25	54.52
580.589	54.64
580.928	54.75
581.267	54.75
581.606	54.82
581.945	54.86
582.283	54.96
582.622	55.07
582.961	55.16
583.3	55.08
583.639	55.16
583.977	55.25
584.316	55.39
584.654	55.48
584.993	55.51
585.332	55.66
585.67	55.75
586.008	55.79
586.347	55.85
586.685	55.92
587.024	56.05
587.362	55.98
587.7	56.08
588.038	56.24
588.376	56.31
588.715	56.38
589.053	56.51
589.391	56.52
589.729	56.62
590.067	56.7
590.404	56.8
590.742	56.89
591.08	56.9
591.418	56.93
591.756	56.96
592.093	57.08
592.431	57.1
592.769	57.15
593.106	57.33
593.444	57.29
593.781	57.27
594.119	57.31
594.456	57.38
594.793	57.42
595.131	57.36
595.468	57.43
595.805	57.53
596.143	57.58
596.48	57.67
596.817	57.74
597.154	57.79
597.491	57.83
597.828	57.86
598.165	57.99
598.502	58.1
598.839	58.16
599.176	58.12
599.512	58.11
599.849	58.16
600.186	58.16
600.523	58.27
600.859	58.34
601.196	58.44
601.532	58.47
601.869	58.44
602.205	58.59
602.542	58.64
602.878	58.63
603.215	58.65
603.551	58.75
603.887	58.77
604.223	58.83
604.56	58.86
604.896	58.84
605.232	58.79
605.568	58.73
605.904	58.81
606.24	58.89
606.576	58.93
606.912	58.92
607.248	58.93
607.583	58.96
607.919	59.01
608.255	58.98
608.591	59.06
608.926	59.13
609.262	59.12
609.597	59.19
609.933	59.22
610.268	59.26
610.604	59.24
610.939	59.32
611.275	59.34
611.61	59.43
611.945	59.44
612.281	59.52
612.616	59.62
612.951	59.67
613.286	59.68
613.621	59.71
613.956	59.72
614.291	59.75
614.626	59.84
614.961	59.97
615.296	60.05
615.631	60.06
615.966	60.08
616.3	60.1
616.635	60.12
616.97	60.09
617.304	60.16
617.639	60.15
617.973	60.2
618.308	60.29
618.642	60.3
618.977	60.44
619.311	60.45
619.646	60.37
619.98	60.3
620.314	60.34
620.648	60.4
620.983	60.49
621.317	60.62
621.651	60.57
621.985	60.53
622.319	60.56
622.653	60.5
622.987	60.59
623.321	60.66
623.655	60.58
623.988	60.57
624.322	60.57
624.656	60.67
624.99	60.57
625.323	60.55
625.657	60.47
625.99	60.47
626.324	60.49
626.657	60.62
626.991	60.66
627.324	60.69
627.658	60.63
627.991	60.74
628.324	60.68
628.657	60.67
628.991	60.72
629.324	60.67
629.657	60.75
629.99	60.69
630.323	60.66
630.656	60.71
630.989	60.76
631.322	60.83
631.655	60.88
631.987	61.01
632.32	61.1
632.653	61.22
632.986	61.2
633.318	61.24
633.651	61.29
633.984	61.27
634.316	61.3
634.649	61.38
634.981	61.29
635.313	61.31
635.646	61.38
635.978	61.35
636.31	61.37
636.643	61.43
636.975	61.5
637.307	61.59
637.639	61.67
637.971	61.7
638.303	61.64
638.635	61.48
638.967	61.52
639.299	61.33
639.631	61.41
639.963	61.4
640.295	61.33
640.626	61.29
640.958	61.38
641.29	61.39
641.621	61.54
641.953	61.57
642.285	61.66
642.616	61.68
642.948	61.67
643.279	61.73
643.61	61.76
643.942	61.78
644.273	61.64
644.604	61.64
644.936	61.69
645.267	61.68
645.598	61.71
645.929	61.49
646.26	61.61
646.591	61.65
646.922	61.81
647.253	61.76
647.584	61.82
647.915	61.86
648.245	61.91
648.576	61.72
648.907	61.75
649.238	61.71
649.568	61.75
649.899	61.85
650.229	61.85
650.56	61.82
650.89	61.82
651.221	61.8
651.551	61.81
651.882	61.8
652.212	61.88
652.542	62
652.872	62.12
653.203	62.12
653.533	62.01
653.863	61.98
654.193	62.19
654.523	62.12
654.853	62.05
655.183	62.09
655.513	62.17
655.843	62.15
656.172	62.1
656.502	61.97
656.832	62.08
657.162	62.18
657.491	62.23
657.821	62.31
658.15	62.46
658.48	62.5
658.809	62.52
659.139	62.43
659.468	62.47
659.798	62.44
660.127	62.55
660.456	62.56
660.785	62.53
661.115	62.57
661.444	62.66
661.773	62.74
662.102	62.68
662.431	62.67
662.76	62.75
663.089	62.88
663.418	63.04
663.747	62.88
664.076	62.75
664.404	62.63
664.733	62.64
665.062	62.59
665.39	62.47
665.719	62.64
666.048	62.73
666.376	62.59
666.705	62.73
667.033	62.66
667.362	62.63
667.69	62.6
668.018	62.44
668.347	62.27
668.675	62.27
669.003	62.2
669.331	62.37
669.659	62.25
669.987	62.23
670.315	62.2
670.643	62.21
670.971	62.3
671.299	62.39
671.627	62.39
671.955	62.45
672.283	62.58
672.61	62.36
672.938	62.35
673.266	62.73
673.593	62.65
673.921	62.56
674.249	62.62
674.576	62.77
674.904	62.65
675.231	62.63
675.558	62.52
675.886	62.52
676.213	62.3
676.54	62.25
676.867	62.18
677.195	62.22
677.522	62.21
677.849	62.23
678.176	62.15
678.503	62.24
678.83	62.29
679.157	62.14
679.484	62.34
679.81	62.39
680.137	62.09
680.464	62.21
680.791	62.4
681.117	62.41
681.444	62.47
681.771	62.58
682.097	62.78
682.424	62.95
682.75	63.07
683.077	63.24
683.403	63.4
683.729	63.48
684.056	63.47
684.382	63.47
684.708	63.47
685.034	63.52
685.36	63.39
685.686	63.38
686.012	63.47
686.339	63.43
686.664	63.41
686.99	63.48
687.316	63.5
687.642	63.38
687.968	63.59
688.294	63.5
688.619	63.67
688.945	63.74
689.271	63.7
689.596	63.71
689.922	63.61
690.247	63.61
690.573	63.45
690.898	63.38
691.224	63.51
691.549	63.36
691.874	63.42
692.2	63.55
692.525	63.57
692.85	63.64
693.175	63.32
693.5	63.27
693.825	63.37
694.15	63.16
694.475	63.15
694.8	63.14
695.125	63.15
695.45	63.12
695.775	63
696.099	63.06
696.424	63.16
696.749	63.28
697.073	63.25
697.398	63.4
697.723	63.49
698.047	63.61
698.372	63.77
698.696	63.83
699.02	63.7
699.345	63.68
699.669	63.64
699.993	63.85
700.318	63.95
700.642	63.94
700.966	64.1
701.29	64.05
701.614	64.01
701.938	64.05
702.262	64.06
702.586	64.27
702.91	64.23
703.234	64.04
703.557	64.01
703.881	64.09
704.205	64.06
704.529	64.01
704.852	63.94
705.176	63.94
705.499	63.83
705.823	63.84
706.146	63.67
706.47	63.78
706.793	63.7
707.117	63.67
707.44	63.64
707.763	63.49
708.086	63.65
708.409	63.51
708.733	63.35
709.056	63.38
709.379	63.16
709.702	63.41
710.025	63.34
710.348	63.47
710.671	63.3
710.993	63.19
711.316	63.28
711.639	63.15
711.962	63.23
712.284	63.39
712.607	63.41
712.93	63.47
713.252	63.42
713.575	63.53
713.897	63.57
714.22	63.55
714.542	63.57
714.864	63.43
715.187	63.55
715.509	63.57
715.831	63.55
716.153	63.56
716.475	63.23
716.798	63.38
717.12	63.28
717.442	63.33
717.764	63.66
718.085	63.62
718.407	63.69
718.729	63.68
719.051	63.6
719.373	63.68
719.695	63.67
720.016	63.59
720.338	63.64
720.659	63.41
720.981	63.59
721.302	63.47
721.624	63.43
721.945	63.19
722.267	63.37
722.588	63.14
722.909	63.11
723.231	63.25
723.552	63.25
723.873	63.22
724.194	63.44
724.515	63.19
724.836	63.16
725.157	63.04
725.478	63.12
725.799	62.93
726.12	62.38
726.441	62.75
726.762	62.77
727.083	62.67
727.403	62.82
727.724	62.56
728.045	62.73
728.365	63
728.686	62.87
729.006	62.75
729.327	62.91
729.647	62.79
729.967	62.8
730.288	63.03
730.608	63.18
730.928	63.25
731.249	63.37
731.569	63.33
731.889	63.62
732.209	63.81
732.529	63.89
732.849	64.51
733.169	64.42
733.489	64.3
733.809	64.24
734.129	64.42
734.448	64.62
734.768	64.64
735.088	64.65
735.408	64.77
735.727	64.68
736.047	65.02
736.366	65.43
736.686	65.48
737.005	65.48
737.325	65.15
737.644	65.1
737.963	65.25
738.283	65.27
738.602	65.45
738.921	65.37
739.24	65.51
739.56	65.42
739.879	65.38
740.198	65.72
740.517	65.88
740.836	65.64
741.155	65.81
741.473	65.51
741.792	65.28
742.111	65.67
742.43	65.98
742.748	65.81
743.067	65.7
743.386	65.8
743.704	65.43
744.023	65.74
744.341	65.54
744.66	65.28
744.978	65.39
745.297	64.96
745.615	64.76
745.933	64.94
746.252	64.94
746.57	64.98
746.888	64.69
747.206	64.75
747.524	65.15
747.842	65.34
748.16	66.11
748.478	66.16
748.796	65.96
749.114	65.84
749.432	65.69
749.749	65.48
750.067	65.34
750.385	65.95
750.703	65.76
751.02	66.32
751.338	66.21
751.655	66.06
751.973	66.05
752.29	66.23
752.608	66.12
752.925	65.99
753.242	66.03
753.56	66.07
753.877	66.05
754.194	65.86
754.511	65.46
754.828	65.41
755.145	65.18
755.462	65.21
755.779	65.23
756.096	65.19
756.413	65.31
756.73	65.22
757.047	64.74
757.364	64.85
757.68	64.64
757.997	64.75
758.314	64.93
758.63	64.75
758.947	65.11
759.264	65.16
759.58	65.35
759.896	65.2
760.213	65.2
760.529	64.88
760.846	64.75
761.162	64.77
761.478	64.75
761.794	64.79
762.11	64.78
762.426	65.03
762.743	65.19
763.059	65.33
763.375	64.97
763.69	64.99
764.006	64.86
764.322	64.54
764.638	64.77
764.954	64.77
765.27	65.01
765.585	64.72
765.901	64.79
766.216	65
766.532	64.95
766.848	65.09
767.163	65.41
767.478	65.14
767.794	65.03
768.109	64.7
768.424	65.18
768.74	65.23
769.055	65.22
769.37	65.18
769.685	64.92
770	65.43
770.315	65.54
770.63	65.48
770.945	66.14
771.26	66.16
771.575	66.04
771.89	66.23
772.205	66.34
772.52	65.84
772.834	65.15
773.149	65.38
773.464	65.42
773.778	65.36
774.093	65.96
774.407	66.54
774.722	67.06
775.036	66.78
775.351	66.81
775.665	66.51
775.979	66.66
776.293	66.5
776.608	66.39
776.922	66.52
777.236	67.08
777.55	66.3
777.864	65.87
778.178	66.03
778.492	65.66
778.806	65.76
779.12	66.38
779.434	66.7
779.747	66.66
780.061	66.84
780.375	66.82
780.689	66.89
781.002	66.33
781.316	65.88
781.629	65.9
781.943	65.75
782.256	65.9
782.57	65.86
782.883	65.94
783.196	65.99
783.51	66.15
783.823	66.05
784.136	66.34
784.449	66.61
784.762	65.7
785.075	65.92
785.388	65.38
785.701	64.97
786.014	65.08
786.327	65.15
786.64	64.77
786.953	65.12
787.266	64.47
787.578	64.32
787.891	64.32
788.204	64.53
788.516	65.06
788.829	65.11
789.141	64.65
789.454	64.79
789.766	64.92
790.079	63.94
790.391	63.9
790.703	63.97
791.016	64.18
791.328	65.15
791.64	64.71
791.952	64.52
792.264	64.77
792.576	64.73
792.888	64.34
793.2	64.91
793.512	64.78
793.824	65.33
794.136	65.53
794.448	65.22
794.76	64.69
795.071	64.51
795.383	64.41
795.695	65.36
796.006	65.29
796.318	65.5
796.629	65.8
796.941	65.81
797.252	65.97
797.564	65.81
797.875	65.13
798.186	64.82
798.497	65.66
798.809	66.46
799.12	66.46
799.431	66.86
799.742	65.97
800.053	65.9
800.364	66.02
800.675	66.1
800.986	66.33
801.297	66.47
801.608	66.11
801.918	65.94
802.229	65.49
802.54	65.89
802.851	65.61
803.161	65.39
803.472	65.2
803.782	65.29
804.093	65.02
804.403	65.68
804.714	66.75
805.024	66.6
805.334	65.22
805.645	64.56
805.955	64.4
806.265	65.53
806.575	65.59
806.885	65.63
807.195	65.98
807.505	66.22
807.815	66.27
808.125	66.04
808.435	65.96
808.745	64.95
809.055	64.84
809.365	64.78
809.674	65.31
809.984	65.63
810.294	65.28
810.603	65.48
810.913	65.34
811.222	64.72
811.532	64.07
811.841	64.74
812.151	64.98
812.46	64.7
812.769	63.76
813.079	63.23
813.388	63.61
813.697	62.59
814.006	61.52
814.315	61.54
814.624	62.38
814.933	63.15
815.242	63.95
815.551	63.33
815.86	62.78
816.169	62.93
816.478	63.51
816.786	63.87
817.095	64.01
817.404	64.47
817.712	65.02
818.021	65.38
818.33	65.22
818.638	65.39
818.947	65.05
819.255	65.19
819.563	65.16
819.872	64.71
820.18	65.31
820.488	65.59
820.796	65.66
821.105	65.19
821.413	65.24
821.721	65.27
822.029	65.02
822.337	65.24
822.645	65.43
822.953	65.29
823.26	65.06
823.568	64.99
823.876	64.96
824.184	64.8
824.491	64.75
824.799	64.54
825.107	64.6
825.414	64.96
825.722	64.89
826.029	64.96
826.337	64.98
826.644	64.82
826.951	65.04
827.259	64.74
827.566	65.05
827.873	65.09
828.18	64.87
828.488	65.3
828.795	65.29
829.102	65.35
829.409	65.11
829.716	65.12
830.023	65.01
830.329	64.97
830.636	64.89
830.943	65.39
831.25	65.46
831.557	65.48
831.863	64.88
832.17	65.45
832.476	65.63
832.783	66.15
833.089	66.17
833.396	65.82
833.702	66.87
834.009	66.84
834.315	66.73
834.621	66.62
834.928	66.74
835.234	66.47
835.54	66.03
835.846	65.85
836.152	66.4
836.458	66.41
836.764	66.79
837.07	67.24
837.376	67.06
837.682	67.93
837.988	68.18
838.293	69.7
838.599	69.19
838.905	69.52
839.211	69.33
839.516	70.25
839.822	71.01
840.127	70.66
840.433	70.41
840.738	70.23
841.044	72.69
841.349	72.13
841.654	72.17
841.959	72.63
842.265	74.7
842.57	75.11
842.875	75.72
843.18	73.39
843.485	73.84
843.79	73.14
844.095	71.99
844.4	71.58
844.705	69.66
845.01	70.98
845.315	70.02
845.619	70.84
845.924	70.86
846.229	70.08
846.533	70.41
846.838	70.83
847.142	70.55
847.447	67.49
847.751	66.73
848.056	69.35
848.36	68.14
848.664	67.12
848.969	66.56
849.273	66.25
849.577	68.89
849.881	70.37
850.185	69.84
850.489	71.88
850.794	72.9
851.097	73.83
851.401	72.95
851.705	73.97
852.009	71.67
852.313	69.93
852.617	69.63
852.92	71.55
853.224	73.45
853.528	72.11
853.831	75.54
854.135	76.59
854.438	76.65
854.742	78.88
855.045	81.05
855.349	80.41
855.652	78.72
855.955	78.33
856.259	79.3
856.562	79.49
856.865	78.12
857.168	75.53
857.471	74.11
857.774	75.5
858.077	75.38
858.38	75.68
858.683	77.1
858.986	78.17
859.289	75.53
859.592	71.81
859.894	73.46
860.197	73.42
860.5	75.75
860.802	74.47
861.105	73.09
861.407	70.45
861.71	70.33
862.012	73.23
862.315	73.44
862.617	69.91
862.919	70.54
863.222	70.87
863.524	73.4
863.826	72.07
864.128	69.63
864.43	69.98
864.732	68.17
865.034	65.82
865.336	63.79
865.638	62.02
865.94	64.14
866.242	63.91
866.544	63
866.846	64.84
867.147	65.34
867.449	67.97
867.751	70.44
868.052	70.75
868.354	73.23
868.655	73.68
868.957	75.05
869.258	74.07
869.56	75.2
869.861	74.09
870.162	76.25
870.463	73.48
870.765	74.2
871.066	77.15
871.367	80.34
871.668	80.64
871.969	84.41
872.27	82.34
872.571	80.57
872.872	80.22
873.173	76.39
873.473	74.35
873.774	74.35
874.075	71.38
874.376	70.37
874.676	69.46
874.977	68.97
875.277	67.5
875.578	70.66
875.878	69.39
876.179	69.41
876.479	68.32
876.78	72.11
877.08	70.64
877.38	69.2
877.68	66.56
877.981	68.75
878.281	66.04
878.581	67.75
