Data from MVZ_BU65311_Reflection_00014.txt Node
Date: Tue Nov 19 12:20:26 EST 2019
User: vgr7
Spectrometer: USB2G7710
Scans to average: 3
Trigger mode: 4
Integration Time (sec): 2.000000E-2
Electric dark correction enabled: true
Boxcar width: 10
XAxis mode: Wavelengths
Number of Pixels in Spectrum: 2048
>>>>>Begin Spectral Data<<<<<
177.721	-385.45
178.105	-177.78
178.488	-60.02
178.871	-57.78
179.254	-31.48
179.636	50.19
180.019	771.3
180.402	141.67
180.785	78.4
181.168	106.17
181.55	-15.74
181.933	329.17
182.316	527.08
182.698	-63.19
183.081	102.98
183.463	22.51
183.846	6.12
184.228	92.56
184.611	28.69
184.993	-4.17
185.376	-20.55
185.758	-16.33
186.14	-63.68
186.522	-50.89
186.904	-35.13
187.287	-43.05
187.669	-26.44
188.051	-22.6
188.433	-33.46
188.815	-43.98
189.197	-40.46
189.579	-34.07
189.961	-28.35
190.342	-20.46
190.724	-25.08
191.106	-26.02
191.488	-8.05
191.869	-5.15
192.251	-8.87
192.633	0.51
193.014	1.54
193.396	-1.08
193.777	-0.2
194.159	3.57
194.54	5.71
194.922	-6.88
195.303	-5.98
195.684	-9.8
196.065	-10.75
196.447	-13.82
196.828	-19.19
197.209	-11.54
197.59	-8.66
197.971	-15.67
198.352	-12.77
198.733	-12.24
199.114	-7.71
199.495	-20.33
199.876	-27.12
200.257	-28.13
200.638	-32.44
201.018	-31.83
201.399	-32.05
201.78	-31.12
202.16	-39.2
202.541	-35.45
202.922	-30.13
203.302	-33.27
203.683	-31.85
204.063	-20.05
204.444	-17.84
204.824	-4.57
205.204	-4.88
205.585	-12.58
205.965	-17
206.345	-23.34
206.725	-14.78
207.106	-14.8
207.486	-19.76
207.866	-16.33
208.246	-16.75
208.626	-18.83
209.006	-27.57
209.386	-19.99
209.766	-16.86
210.145	-18.32
210.525	-24.53
210.905	-18.81
211.285	-14.73
211.664	-7.96
212.044	-6.86
212.424	-6.35
212.803	-9.71
213.183	-14.41
213.562	-17.31
213.942	-10.29
214.321	-8.44
214.701	-16.53
215.08	-21.29
215.459	-12.84
215.838	-17.1
216.218	-18.98
216.597	-17.04
216.976	-14.37
217.355	-26.62
217.734	-29.57
218.113	-18.65
218.492	-21.87
218.871	-21.65
219.25	-26.58
219.629	-47.47
220.008	-47.72
220.387	-30.93
220.766	-29.19
221.144	-23.38
221.523	-25.36
221.902	-30.27
222.28	-32.6
222.659	-20.72
223.037	-23.26
223.416	-25.29
223.794	-22.93
224.173	-28.35
224.551	-26.59
224.929	-21.04
225.308	-14.41
225.686	-16.08
226.064	-22.81
226.442	-16.59
226.821	-16.36
227.199	-9.54
227.577	-7.3
227.955	-2.18
228.333	-9.35
228.711	-6.04
229.089	-7.31
229.467	-6.09
229.845	-3.51
230.222	-0.25
230.6	-2.67
230.978	0.79
231.356	2.23
231.733	5.86
232.111	8.79
232.488	9.2
232.866	8.32
233.243	7.22
233.621	9.23
233.998	11.03
234.376	9.77
234.753	11.24
235.13	7.59
235.508	9.36
235.885	8.85
236.262	9.23
236.639	9.31
237.016	9.1
237.393	9.39
237.77	9.05
238.147	8.78
238.524	9.63
238.901	8.17
239.278	7.41
239.655	6.23
240.032	5.31
240.409	6.24
240.785	5.77
241.162	5.96
241.539	4.95
241.915	4.72
242.292	4.9
242.668	4.46
243.045	5.06
243.421	4.93
243.798	4.6
244.174	4.89
244.551	4.47
244.927	4.35
245.303	4.15
245.679	4.55
246.056	4.34
246.432	4.35
246.808	4.72
247.184	4.49
247.56	4.25
247.936	4.51
248.312	4.09
248.688	4.46
249.064	4.33
249.44	4.44
249.815	4.49
250.191	4.55
250.567	4.57
250.943	4.76
251.318	4.74
251.694	4.68
252.069	4.63
252.445	4.53
252.82	4.48
253.196	4.63
253.571	4.21
253.947	4.37
254.322	4.18
254.697	3.91
255.073	3.76
255.448	4.39
255.823	4.36
256.198	4.31
256.573	4.21
256.948	4.31
257.323	4.33
257.698	4.4
258.073	4.35
258.448	4.24
258.823	3.77
259.198	3.88
259.573	3.69
259.948	3.73
260.322	3.79
260.697	3.93
261.072	3.93
261.446	3.92
261.821	3.87
262.195	3.8
262.57	3.92
262.944	4.17
263.319	3.99
263.693	3.98
264.067	4.01
264.442	3.73
264.816	3.72
265.19	3.64
265.564	3.55
265.938	3.38
266.313	3.49
266.687	3.66
267.061	3.43
267.435	3.81
267.809	3.39
268.183	3.35
268.556	3.29
268.93	3.38
269.304	3.22
269.678	3.29
270.051	3.35
270.425	3.28
270.799	2.87
271.172	2.85
271.546	2.89
271.919	3.07
272.293	3.16
272.666	3.21
273.04	3.22
273.413	3.07
273.787	3.01
274.16	2.73
274.533	2.85
274.906	2.89
275.279	2.87
275.653	3.15
276.026	3.3
276.399	3.21
276.772	3.04
277.145	3.3
277.518	3.23
277.891	3.23
278.263	3.31
278.636	3.58
279.009	3.45
279.382	3.44
279.755	3.19
280.127	3.29
280.5	3.16
280.872	3.22
281.245	3.32
281.617	3.34
281.99	3.41
282.362	3.36
282.735	3.29
283.107	3.05
283.479	3.04
283.852	3.02
284.224	3.12
284.596	3.12
284.968	3
285.34	2.93
285.713	2.85
286.085	2.8
286.457	2.84
286.829	2.92
287.201	2.85
287.572	3
287.944	3.03
288.316	3.1
288.688	3.22
289.06	3.25
289.431	3.34
289.803	3.28
290.175	3.3
290.546	3.42
290.918	3.64
291.289	3.67
291.661	3.72
292.032	3.85
292.403	3.88
292.775	4.09
293.146	4.09
293.517	4.08
293.889	4.03
294.26	3.99
294.631	3.99
295.002	4.05
295.373	3.93
295.744	3.84
296.115	3.81
296.486	3.69
296.857	3.77
297.228	3.7
297.599	3.8
297.97	3.77
298.34	3.84
298.711	3.73
299.082	3.8
299.452	3.69
299.823	3.58
300.194	3.75
300.564	3.44
300.935	3.49
301.305	3.49
301.676	3.52
302.046	3.57
302.416	3.59
302.787	3.62
303.157	3.61
303.527	3.82
303.897	3.78
304.267	3.76
304.637	3.68
305.008	3.96
305.378	3.96
305.748	4
306.117	3.82
306.487	4.03
306.857	3.97
307.227	4.04
307.597	4.09
307.967	4.05
308.336	4.2
308.706	4.26
309.076	4.39
309.445	4.5
309.815	4.59
310.184	4.59
310.554	4.58
310.923	4.77
311.293	4.68
311.662	4.77
312.031	4.82
312.401	4.79
312.77	4.69
313.139	4.8
313.508	4.75
313.877	4.77
314.246	4.54
314.616	4.54
314.985	4.57
315.353	4.57
315.722	4.67
316.091	4.7
316.46	4.77
316.829	4.76
317.198	4.57
317.567	4.65
317.935	4.76
318.304	4.94
318.672	4.94
319.041	4.97
319.41	4.96
319.778	5.06
320.147	5.17
320.515	5.19
320.883	5.08
321.252	5.33
321.62	5.33
321.988	5.43
322.357	5.42
322.725	5.5
323.093	5.35
323.461	5.15
323.829	5.25
324.197	5.24
324.565	5.33
324.933	5.33
325.301	5.03
325.669	4.98
326.037	4.87
326.405	4.78
326.772	4.89
327.14	4.8
327.508	4.75
327.875	4.82
328.243	4.75
328.61	4.96
328.978	4.8
329.346	4.87
329.713	5.01
330.08	5.23
330.448	5.21
330.815	5.48
331.182	5.44
331.55	5.33
331.917	5.28
332.284	5.18
332.651	5.3
333.018	5.43
333.385	5.51
333.752	5.4
334.119	5.41
334.486	5.28
334.853	5.3
335.22	5.26
335.587	5.13
335.954	5.1
336.32	4.97
336.687	4.86
337.054	4.83
337.42	4.84
337.787	4.65
338.153	4.74
338.52	4.58
338.886	4.73
339.253	4.71
339.619	4.7
339.986	4.76
340.352	4.68
340.718	4.73
341.084	4.71
341.451	4.76
341.817	4.78
342.183	4.83
342.549	4.82
342.915	4.93
343.281	5.06
343.647	5.11
344.013	5.24
344.379	5.39
344.745	5.34
345.11	5.23
345.476	5.31
345.842	5.15
346.208	5.24
346.573	5.2
346.939	5.29
347.304	5.33
347.67	5.41
348.035	5.43
348.401	5.53
348.766	5.48
349.132	5.55
349.497	5.57
349.862	5.56
350.228	5.66
350.593	5.66
350.958	5.64
351.323	5.61
351.688	5.56
352.053	5.49
352.418	5.57
352.783	5.63
353.148	5.6
353.513	5.59
353.878	5.59
354.243	5.56
354.608	5.58
354.972	5.65
355.337	5.52
355.702	5.52
356.066	5.44
356.431	5.51
356.795	5.5
357.16	5.51
357.524	5.55
357.889	5.48
358.253	5.52
358.618	5.56
358.982	5.61
359.346	5.58
359.71	5.61
360.075	5.69
360.439	5.71
360.803	5.67
361.167	5.74
361.531	5.68
361.895	5.66
362.259	5.67
362.623	5.6
362.987	5.64
363.351	5.72
363.714	5.72
364.078	5.66
364.442	5.62
364.806	5.61
365.169	5.57
365.533	5.63
365.896	5.59
366.26	5.48
366.623	5.45
366.987	5.49
367.35	5.61
367.714	5.5
368.077	5.5
368.44	5.6
368.803	5.6
369.167	5.57
369.53	5.62
369.893	5.57
370.256	5.49
370.619	5.45
370.982	5.34
371.345	5.35
371.708	5.39
372.071	5.31
372.434	5.2
372.797	5.15
373.159	5.05
373.522	4.95
373.885	4.95
374.247	4.98
374.61	4.99
374.973	4.89
375.335	4.87
375.698	4.79
376.06	4.72
376.423	4.68
376.785	4.74
377.147	4.72
377.51	4.71
377.872	4.76
378.234	4.72
378.596	4.78
378.958	4.7
379.321	4.69
379.683	4.78
380.045	4.83
380.407	4.92
380.769	4.95
381.13	4.99
381.492	4.99
381.854	4.98
382.216	4.93
382.578	4.9
382.939	4.81
383.301	4.83
383.663	4.79
384.024	4.81
384.386	4.79
384.747	4.73
385.109	4.71
385.47	4.71
385.832	4.7
386.193	4.68
386.554	4.63
386.916	4.58
387.277	4.47
387.638	4.44
387.999	4.41
388.36	4.39
388.721	4.41
389.082	4.43
389.443	4.41
389.804	4.39
390.165	4.4
390.526	4.47
390.887	4.43
391.248	4.43
391.609	4.44
391.969	4.44
392.33	4.45
392.691	4.45
393.051	4.43
393.412	4.45
393.772	4.4
394.133	4.42
394.493	4.42
394.854	4.49
395.214	4.49
395.574	4.44
395.935	4.42
396.295	4.4
396.655	4.34
397.015	4.32
397.376	4.33
397.736	4.23
398.096	4.21
398.456	4.23
398.816	4.24
399.176	4.18
399.535	4.11
399.895	4.07
400.255	4.04
400.615	4.02
400.975	3.97
401.334	3.95
401.694	3.96
402.054	3.97
402.413	3.91
402.773	3.89
403.132	3.89
403.492	3.89
403.851	3.88
404.211	3.87
404.57	3.86
404.929	3.85
405.288	3.87
405.648	3.86
406.007	3.87
406.366	3.83
406.725	3.8
407.084	3.85
407.443	3.87
407.802	3.84
408.161	3.85
408.52	3.89
408.879	3.87
409.238	3.9
409.596	3.89
409.955	3.89
410.314	3.89
410.673	3.9
411.031	3.89
411.39	3.88
411.748	3.9
412.107	3.89
412.465	3.88
412.824	3.88
413.182	3.91
413.54	3.91
413.899	3.89
414.257	3.91
414.615	3.84
414.974	3.84
415.332	3.87
415.69	3.85
416.048	3.85
416.406	3.85
416.764	3.83
417.122	3.82
417.48	3.83
417.838	3.84
418.195	3.82
418.553	3.8
418.911	3.79
419.269	3.76
419.626	3.77
419.984	3.76
420.342	3.75
420.699	3.72
421.057	3.71
421.414	3.72
421.772	3.72
422.129	3.73
422.486	3.73
422.844	3.71
423.201	3.72
423.558	3.7
423.915	3.71
424.273	3.69
424.63	3.7
424.987	3.72
425.344	3.71
425.701	3.72
426.058	3.73
426.415	3.72
426.772	3.73
427.128	3.73
427.485	3.73
427.842	3.74
428.199	3.75
428.555	3.74
428.912	3.73
429.269	3.71
429.625	3.69
429.982	3.7
430.338	3.7
430.695	3.68
431.051	3.69
431.407	3.68
431.764	3.7
432.12	3.68
432.476	3.68
432.832	3.66
433.189	3.65
433.545	3.65
433.901	3.67
434.257	3.66
434.613	3.63
434.969	3.62
435.325	3.64
435.681	3.63
436.036	3.64
436.392	3.67
436.748	3.68
437.104	3.69
437.459	3.67
437.815	3.67
438.171	3.67
438.526	3.66
438.882	3.67
439.237	3.66
439.593	3.65
439.948	3.65
440.304	3.68
440.659	3.7
441.014	3.71
441.369	3.72
441.725	3.73
442.08	3.74
442.435	3.76
442.79	3.74
443.145	3.72
443.5	3.73
443.855	3.71
444.21	3.72
444.565	3.72
444.92	3.75
445.275	3.76
445.629	3.75
445.984	3.76
446.339	3.79
446.693	3.8
447.048	3.78
447.403	3.77
447.757	3.73
448.112	3.72
448.466	3.71
448.82	3.71
449.175	3.71
449.529	3.73
449.883	3.72
450.238	3.71
450.592	3.72
450.946	3.72
451.3	3.71
451.654	3.7
452.008	3.69
452.362	3.68
452.716	3.68
453.07	3.69
453.424	3.67
453.778	3.64
454.132	3.62
454.486	3.63
454.839	3.62
455.193	3.63
455.547	3.63
455.9	3.64
456.254	3.63
456.607	3.63
456.961	3.6
457.314	3.59
457.668	3.61
458.021	3.61
458.375	3.61
458.728	3.63
459.081	3.65
459.434	3.63
459.787	3.66
460.141	3.66
460.494	3.67
460.847	3.68
461.2	3.68
461.553	3.7
461.906	3.72
462.259	3.74
462.611	3.76
462.964	3.78
463.317	3.77
463.67	3.79
464.022	3.76
464.375	3.78
464.728	3.79
465.08	3.8
465.433	3.82
465.785	3.81
466.138	3.8
466.49	3.79
466.843	3.85
467.195	3.82
467.547	3.8
467.899	3.82
468.252	3.83
468.604	3.84
468.956	3.83
469.308	3.83
469.66	3.83
470.012	3.82
470.364	3.8
470.716	3.81
471.068	3.81
471.42	3.85
471.772	3.87
472.123	3.88
472.475	3.89
472.827	3.87
473.178	3.91
473.53	3.93
473.882	3.97
474.233	3.93
474.585	3.93
474.936	3.95
475.288	3.93
475.639	3.92
475.99	3.91
476.342	3.9
476.693	3.92
477.044	3.89
477.395	3.87
477.746	3.86
478.097	3.86
478.448	3.83
478.8	3.83
479.15	3.78
479.501	3.77
479.852	3.77
480.203	3.78
480.554	3.78
480.905	3.76
481.255	3.77
481.606	3.78
481.957	3.78
482.307	3.79
482.658	3.79
483.009	3.79
483.359	3.79
483.709	3.81
484.06	3.82
484.41	3.83
484.761	3.84
485.111	3.85
485.461	3.86
485.811	3.86
486.162	3.86
486.512	3.88
486.862	3.89
487.212	3.89
487.562	3.89
487.912	3.89
488.262	3.9
488.612	3.9
488.961	3.91
489.311	3.9
489.661	3.9
490.011	3.9
490.36	3.89
490.71	3.91
491.06	3.91
491.409	3.89
491.759	3.89
492.108	3.9
492.458	3.89
492.807	3.89
493.157	3.9
493.506	3.91
493.855	3.94
494.204	3.94
494.554	3.96
494.903	3.97
495.252	3.98
495.601	3.99
495.95	4.01
496.299	4.02
496.648	4.04
496.997	4.05
497.346	4.08
497.695	4.11
498.043	4.1
498.392	4.1
498.741	4.12
499.09	4.15
499.438	4.18
499.787	4.21
500.135	4.23
500.484	4.24
500.832	4.28
501.181	4.29
501.529	4.32
501.878	4.36
502.226	4.36
502.574	4.37
502.923	4.39
503.271	4.4
503.619	4.45
503.967	4.48
504.315	4.53
504.663	4.57
505.011	4.61
505.359	4.65
505.707	4.68
506.055	4.73
506.403	4.76
506.751	4.78
507.098	4.85
507.446	4.9
507.794	4.96
508.141	5
508.489	5.04
508.837	5.1
509.184	5.14
509.531	5.2
509.879	5.25
510.226	5.31
510.574	5.43
510.921	5.49
511.268	5.55
511.616	5.6
511.963	5.68
512.31	5.77
512.657	5.85
513.004	5.95
513.351	6.07
513.698	6.19
514.045	6.29
514.392	6.42
514.739	6.55
515.086	6.68
515.432	6.83
515.779	6.97
516.126	7.12
516.473	7.25
516.819	7.39
517.166	7.53
517.512	7.65
517.859	7.75
518.205	7.88
518.552	8.03
518.898	8.2
519.245	8.34
519.591	8.47
519.937	8.61
520.283	8.78
520.629	8.95
520.976	9.14
521.322	9.37
521.668	9.56
522.014	9.78
522.36	10.02
522.706	10.22
523.052	10.47
523.398	10.76
523.743	11.04
524.089	11.35
524.435	11.62
524.781	11.9
525.126	12.14
525.472	12.36
525.817	12.57
526.163	12.77
526.509	12.96
526.854	13.15
527.199	13.34
527.545	13.5
527.89	13.67
528.235	13.82
528.581	13.97
528.926	14.13
529.271	14.29
529.616	14.45
529.961	14.64
530.306	14.81
530.651	14.96
530.996	15.16
531.341	15.35
531.686	15.56
532.031	15.77
532.376	15.98
532.721	16.2
533.065	16.42
533.41	16.64
533.755	16.87
534.099	17.1
534.444	17.33
534.788	17.54
535.133	17.71
535.477	17.95
535.822	18.2
536.166	18.44
536.51	18.7
536.855	18.97
537.199	19.23
537.543	19.5
537.887	19.79
538.231	20.05
538.576	20.35
538.92	20.62
539.264	20.89
539.608	21.13
539.951	21.38
540.295	21.63
540.639	21.84
540.983	22.03
541.327	22.23
541.671	22.43
542.014	22.67
542.358	22.89
542.701	23.1
543.045	23.29
543.389	23.49
543.732	23.68
544.075	23.9
544.419	24.12
544.762	24.35
545.105	24.57
545.449	24.81
545.792	25.02
546.135	25.24
546.478	25.46
546.821	25.72
547.165	25.97
547.508	26.21
547.851	26.46
548.194	26.77
548.536	27.08
548.879	27.33
549.222	27.58
549.565	27.84
549.908	28.11
550.25	28.33
550.593	28.61
550.936	28.85
551.278	29.06
551.621	29.33
551.963	29.6
552.306	29.86
552.648	30.11
552.991	30.38
553.333	30.65
553.675	30.89
554.017	31.09
554.36	31.33
554.702	31.52
555.044	31.74
555.386	31.93
555.728	32.04
556.07	32.22
556.412	32.4
556.754	32.65
557.096	32.82
557.438	33.1
557.78	33.28
558.121	33.51
558.463	33.78
558.805	33.97
559.147	34.11
559.488	34.28
559.83	34.48
560.171	34.65
560.513	34.77
560.854	35.01
561.196	35.19
561.537	35.37
561.878	35.58
562.22	35.78
562.561	35.98
562.902	36.22
563.243	36.5
563.584	36.76
563.925	36.96
564.266	37.1
564.607	37.29
564.948	37.45
565.289	37.63
565.63	37.78
565.971	37.94
566.312	38.1
566.653	38.31
566.993	38.46
567.334	38.6
567.675	38.83
568.015	38.99
568.356	39.22
568.696	39.36
569.037	39.51
569.377	39.68
569.718	39.82
570.058	39.92
570.398	40.07
570.739	40.16
571.079	40.29
571.419	40.54
571.759	40.62
572.099	40.77
572.439	40.89
572.779	41.05
573.119	41.2
573.459	41.34
573.799	41.49
574.139	41.61
574.479	41.69
574.819	41.79
575.158	41.88
575.498	41.99
575.838	42.05
576.177	42.17
576.517	42.31
576.856	42.45
577.196	42.66
577.535	42.74
577.875	42.91
578.214	43
578.553	43.08
578.893	43.22
579.232	43.33
579.571	43.49
579.91	43.56
580.25	43.65
580.589	43.79
580.928	43.8
581.267	43.91
581.606	44.06
581.945	44.17
582.283	44.3
582.622	44.4
582.961	44.6
583.3	44.69
583.639	44.79
583.977	44.86
584.316	44.94
584.654	45.02
584.993	45.09
585.332	45.24
585.67	45.3
586.008	45.56
586.347	45.71
586.685	45.84
587.024	46
587.362	46.14
587.7	46.3
588.038	46.44
588.376	46.61
588.715	46.75
589.053	46.88
589.391	46.95
589.729	46.96
590.067	47.14
590.404	47.25
590.742	47.25
591.08	47.45
591.418	47.57
591.756	47.67
592.093	47.75
592.431	47.82
592.769	47.95
593.106	47.94
593.444	48.05
593.781	48.15
594.119	48.17
594.456	48.21
594.793	48.28
595.131	48.45
595.468	48.44
595.805	48.47
596.143	48.47
596.48	48.52
596.817	48.71
597.154	48.69
597.491	48.77
597.828	48.87
598.165	48.86
598.502	48.87
598.839	48.94
599.176	49.02
599.512	49.14
599.849	49.18
600.186	49.25
600.523	49.36
600.859	49.39
601.196	49.62
601.532	49.6
601.869	49.65
602.205	49.65
602.542	49.77
602.878	49.85
603.215	49.94
603.551	50.07
603.887	50.04
604.223	50.11
604.56	50.09
604.896	50.19
605.232	50.26
605.568	50.34
605.904	50.39
606.24	50.5
606.576	50.51
606.912	50.59
607.248	50.69
607.583	50.7
607.919	50.71
608.255	50.66
608.591	50.84
608.926	50.89
609.262	50.93
609.597	50.95
609.933	51
610.268	51
610.604	51
610.939	51.06
611.275	51.09
611.61	51.21
611.945	51.21
612.281	51.2
612.616	51.28
612.951	51.35
613.286	51.32
613.621	51.37
613.956	51.44
614.291	51.51
614.626	51.57
614.961	51.68
615.296	51.7
615.631	51.73
615.966	51.77
616.3	51.89
616.635	52.03
616.97	52.1
617.304	52.21
617.639	52.31
617.973	52.41
618.308	52.44
618.642	52.49
618.977	52.52
619.311	52.71
619.646	52.83
619.98	52.82
620.314	52.87
620.648	52.97
620.983	53.03
621.317	52.97
621.651	53.07
621.985	53.09
622.319	53.2
622.653	53.32
622.987	53.32
623.321	53.26
623.655	53.27
623.988	53.35
624.322	53.49
624.656	53.48
624.99	53.46
625.323	53.54
625.657	53.59
625.99	53.68
626.324	53.59
626.657	53.52
626.991	53.6
627.324	53.65
627.658	53.66
627.991	53.63
628.324	53.63
628.657	53.53
628.991	53.59
629.324	53.58
629.657	53.52
629.99	53.52
630.323	53.65
630.656	53.66
630.989	53.66
631.322	53.69
631.655	53.74
631.987	53.83
632.32	53.85
632.653	53.83
632.986	53.88
633.318	54.02
633.651	54.11
633.984	54.13
634.316	54.09
634.649	54.14
634.981	54.26
635.313	54.37
635.646	54.41
635.978	54.51
636.31	54.59
636.643	54.71
636.975	54.88
637.307	54.88
637.639	55
637.971	54.93
638.303	54.82
638.635	54.96
638.967	54.95
639.299	55.02
639.631	55.16
639.963	55.14
640.295	55.18
640.626	55.2
640.958	55.24
641.29	55.41
641.621	55.4
641.953	55.38
642.285	55.4
642.616	55.49
642.948	55.52
643.279	55.53
643.61	55.53
643.942	55.48
644.273	55.42
644.604	55.39
644.936	55.41
645.267	55.51
645.598	55.47
645.929	55.48
646.26	55.49
646.591	55.5
646.922	55.62
647.253	55.52
647.584	55.51
647.915	55.62
648.245	55.59
648.576	55.66
648.907	55.67
649.238	55.79
649.568	55.96
649.899	55.93
650.229	56.03
650.56	55.95
650.89	55.99
651.221	56.05
651.551	56.19
651.882	56.26
652.212	56.25
652.542	56.29
652.872	56.42
653.203	56.34
653.533	56.31
653.863	56.23
654.193	56.29
654.523	56.49
654.853	56.52
655.183	56.47
655.513	56.4
655.843	56.45
656.172	56.51
656.502	56.38
656.832	56.4
657.162	56.43
657.491	56.59
657.821	56.68
658.15	56.73
658.48	56.63
658.809	56.7
659.139	56.79
659.468	56.79
659.798	56.71
660.127	56.85
660.456	56.87
660.785	57.05
661.115	57.11
661.444	57.1
661.773	57.17
662.102	57.25
662.431	57.41
662.76	57.46
663.089	57.53
663.418	57.69
663.747	57.68
664.076	57.6
664.404	57.5
664.733	57.55
665.062	57.63
665.39	57.7
665.719	57.75
666.048	57.82
666.376	57.74
666.705	57.76
667.033	57.76
667.362	57.79
667.69	57.59
668.018	57.56
668.347	57.6
668.675	57.52
669.003	57.57
669.331	57.49
669.659	57.51
669.987	57.38
670.315	57.38
670.643	57.41
670.971	57.53
671.299	57.67
671.627	57.61
671.955	57.58
672.283	57.59
672.61	57.62
672.938	57.58
673.266	57.71
673.593	57.65
673.921	57.85
674.249	57.87
674.576	57.95
674.904	58.16
675.231	58.09
675.558	58.1
675.886	58.2
676.213	58.28
676.54	58.29
676.867	58.26
677.195	58.19
677.522	58.2
677.849	58.21
678.176	58.1
678.503	58.06
678.83	57.99
679.157	58.13
679.484	58.24
679.81	58.31
680.137	58.33
680.464	58.5
680.791	58.37
681.117	58.48
681.444	58.53
681.771	58.47
682.097	58.49
682.424	58.55
682.75	58.56
683.077	58.55
683.403	58.58
683.729	58.7
684.056	58.76
684.382	58.85
684.708	58.82
685.034	58.8
685.36	58.97
685.686	59.2
686.012	59.08
686.339	59.03
686.664	59.04
686.99	59.12
687.316	59.07
687.642	59.09
687.968	59.06
688.294	59.12
688.619	59.1
688.945	58.95
689.271	58.98
689.596	58.93
689.922	59.01
690.247	59.04
690.573	59.16
690.898	59.16
691.224	59.26
691.549	59.28
691.874	59.42
692.2	59.38
692.525	59.23
692.85	59.27
693.175	59.3
693.5	59.38
693.825	59.36
694.15	59.4
694.475	59.41
694.8	59.44
695.125	59.43
695.45	59.35
695.775	59.61
696.099	59.66
696.424	59.57
696.749	59.58
697.073	59.71
697.398	59.68
697.723	59.62
698.047	59.57
698.372	59.61
698.696	59.55
699.02	59.64
699.345	59.73
699.669	59.89
699.993	59.88
700.318	59.89
700.642	59.84
700.966	59.97
701.29	60.06
701.614	59.98
701.938	60.03
702.262	60.04
702.586	59.94
702.91	59.82
703.234	60.07
703.557	60.25
703.881	60.32
704.205	60.19
704.529	60.38
704.852	60.23
705.176	60.23
705.499	60.49
705.823	60.42
706.146	60.47
706.47	60.38
706.793	60.47
707.117	60.19
707.44	60.27
707.763	60.29
708.086	60.04
708.409	60.25
708.733	60.48
709.056	60.6
709.379	60.68
709.702	60.58
710.025	60.26
710.348	60.17
710.671	59.8
710.993	59.95
711.316	60
711.639	60.08
711.962	60.16
712.284	60.16
712.607	60.06
712.93	60.02
713.252	60.04
713.575	60.07
713.897	60.08
714.22	59.99
714.542	60.02
714.864	60.28
715.187	60.28
715.509	59.9
715.831	59.91
716.153	59.87
716.475	60.07
716.798	60.21
717.12	60.12
717.442	60.21
717.764	60.4
718.085	60.25
718.407	60.29
718.729	60.43
719.051	60.22
719.373	60.17
719.695	60.26
720.016	60.07
720.338	59.85
720.659	60.07
720.981	60.17
721.302	59.83
721.624	59.85
721.945	59.83
722.267	60.11
722.588	60.18
722.909	60.05
723.231	59.93
723.552	60.21
723.873	60.34
724.194	60.5
724.515	60.06
724.836	60.37
725.157	60.49
725.478	60.62
725.799	60.82
726.12	60.78
726.441	60.66
726.762	60.74
727.083	60.91
727.403	61.01
727.724	61.21
728.045	61.53
728.365	61.33
728.686	61.2
729.006	61.32
729.327	61.26
729.647	61.22
729.967	61.29
730.288	61.3
730.608	61.28
730.928	61.07
731.249	61.16
731.569	60.87
731.889	60.79
732.209	60.54
732.529	60.56
732.849	60.89
733.169	61
733.489	61.11
733.809	60.87
734.129	60.8
734.448	60.82
734.768	60.65
735.088	60.68
735.408	60.77
735.727	60.59
736.047	60.75
736.366	61.1
736.686	61.03
737.005	60.59
737.325	60.58
737.644	60.64
737.963	60.66
738.283	61.07
738.602	61.23
738.921	61.19
739.24	61.13
739.56	60.79
739.879	60.55
740.198	60.54
740.517	60.76
740.836	60.51
741.155	60.18
741.473	60.33
741.792	60.36
742.111	60.54
742.43	60.65
742.748	60.61
743.067	60.63
743.386	61.01
743.704	61.24
744.023	61.52
744.341	61.84
744.66	61.74
744.978	61.41
745.297	61.22
745.615	61.08
745.933	61.12
746.252	61.34
746.57	61.2
746.888	61.16
747.206	61.3
747.524	61.51
747.842	61.37
748.16	61.34
748.478	61.52
748.796	61.2
749.114	61.08
749.432	60.93
749.749	60.87
750.067	60.64
750.385	60.59
750.703	60.31
751.02	60.6
751.338	60.72
751.655	60.84
751.973	60.92
752.29	61.03
752.608	60.95
752.925	60.98
753.242	61.66
753.56	61.63
753.877	61.64
754.194	61.73
754.511	62.26
754.828	62.27
755.145	62.16
755.462	62.43
755.779	62.65
756.096	62.65
756.413	62.88
756.73	62.73
757.047	63.05
757.364	63.27
757.68	62.92
757.997	63.14
758.314	63.27
758.63	63.32
758.947	63.35
759.264	63.39
759.58	63.45
759.896	63.34
760.213	63.34
760.529	63.19
760.846	63.54
761.162	63.43
761.478	63.36
761.794	63.59
762.11	63.5
762.426	63.25
762.743	62.97
763.059	62.83
763.375	62.78
763.69	62.67
764.006	62.42
764.322	62.46
764.638	62.49
764.954	62.2
765.27	62.09
765.585	62.1
765.901	62.02
766.216	61.82
766.532	61.59
766.848	61.62
767.163	61.87
767.478	61.4
767.794	61.49
768.109	61.56
768.424	61.51
768.74	61.34
769.055	61.31
769.37	61.7
769.685	61.83
770	61.95
770.315	61.89
770.63	61.66
770.945	61.55
771.26	61.27
771.575	61.55
771.89	61.52
772.205	61.49
772.52	61.63
772.834	61.78
773.149	61.89
773.464	61.45
773.778	61.65
774.093	61.73
774.407	61.68
774.722	61.95
775.036	61.45
775.351	61.8
775.665	61.98
775.979	61.86
776.293	61.37
776.608	61.4
776.922	61.4
777.236	62.18
777.55	61.5
777.864	61.29
778.178	60.85
778.492	61.38
778.806	61.13
779.12	61.1
779.434	60.89
779.747	60.76
780.061	61.51
780.375	60.93
780.689	61.63
781.002	61.49
781.316	61.17
781.629	61.31
781.943	61.27
782.256	61.52
782.57	61.01
782.883	60.85
783.196	60.99
783.51	61.19
783.823	61.24
784.136	62
784.449	62.37
784.762	63
785.075	63.07
785.388	63
785.701	62.8
786.014	63.05
786.327	62.94
786.64	63.15
786.953	63.34
787.266	62.94
787.578	62.53
787.891	62.63
788.204	62.84
788.516	62.63
788.829	61.8
789.141	62.19
789.454	62.53
789.766	62.41
790.079	61.85
790.391	62.04
790.703	62.01
791.016	62.21
791.328	62.4
791.64	62.67
791.952	63.13
792.264	62.96
792.576	62.71
792.888	62.57
793.2	62.04
793.512	62.73
793.824	62.61
794.136	62.94
794.448	62.5
794.76	62.23
795.071	61.82
795.383	62.68
795.695	62.42
796.006	62.55
796.318	63.15
796.629	63.75
796.941	63.28
797.252	63.34
797.564	63.04
797.875	62.43
798.186	61.22
798.497	61.06
798.809	61.4
799.12	61.59
799.431	61.58
799.742	61.47
800.053	60.04
800.364	59.9
800.675	59.35
800.986	59.16
801.297	59.18
801.608	59.5
801.918	59.22
802.229	60.38
802.54	60.18
802.851	59.71
803.161	59.93
803.472	59.39
803.782	58.97
804.093	59.01
804.403	58.74
804.714	59.46
805.024	60.25
805.334	60.04
805.645	60.1
805.955	61.2
806.265	61.41
806.575	62.2
806.885	62.15
807.195	62.57
807.505	63.61
807.815	64.99
808.125	65.22
808.435	65.25
808.745	63.83
809.055	63.88
809.365	63.43
809.674	63.01
809.984	63.43
810.294	63.81
810.603	64.34
810.913	65.27
811.222	65.24
811.532	64.13
811.841	64.36
812.151	63.83
812.46	63.08
812.769	62.83
813.079	62.83
813.388	63.04
813.697	63.21
814.006	62.03
814.315	60.65
814.624	60.21
814.933	60.26
815.242	60.35
815.551	60.49
815.86	60.91
816.169	61.07
816.478	61.56
816.786	61.22
817.095	60.21
817.404	59.81
817.712	59.41
818.021	59.46
818.33	59.33
818.638	59.48
818.947	60.17
819.255	60.76
819.563	60.87
819.872	61.05
820.18	61.12
820.488	61.82
820.796	62.04
821.105	62.01
821.413	62.15
821.721	62.59
822.029	62.4
822.337	62.42
822.645	62.54
822.953	62.28
823.26	62.42
823.568	62.4
823.876	62.49
824.184	62.6
824.491	62.63
824.799	62.59
825.107	62.89
825.414	62.76
825.722	62.65
826.029	62.7
826.337	62.78
826.644	62.86
826.951	62.67
827.259	62.57
827.566	62.87
827.873	62.62
828.18	62.54
828.488	62.73
828.795	62.75
829.102	62.49
829.409	62.41
829.716	62.69
830.023	63.32
830.329	63.4
830.636	63.56
830.943	63.92
831.25	64.68
831.557	64.35
831.863	64.24
832.17	63.77
832.476	63.56
832.783	63.73
833.089	63.27
833.396	63.05
833.702	62.75
834.009	62.62
834.315	63.09
834.621	62.91
834.928	63.08
835.234	62.91
835.54	63.08
835.846	63.93
836.152	63.64
836.458	63.11
836.764	62.57
837.07	61.89
837.376	61.87
837.682	60.75
837.988	60.46
838.293	60.54
838.599	60.79
838.905	60.68
839.211	60.43
839.516	61.4
839.822	62.48
840.127	62.65
840.433	62.11
840.738	61.69
841.044	61.37
841.349	60.27
841.654	60.93
841.959	60.54
842.265	57.93
842.57	57.31
842.875	55.8
843.18	56.41
843.485	57.96
843.79	58.09
844.095	59.31
844.4	60.82
844.705	60.06
845.01	60.98
845.315	62.76
845.619	62.09
845.924	60.62
846.229	60.04
846.533	59.84
846.838	59.78
847.142	58.8
847.447	59.74
847.751	60.3
848.056	58.65
848.36	59.27
848.664	62.68
848.969	62.31
849.273	62.57
849.577	61.57
849.881	59.18
850.185	58.28
850.489	56.68
850.794	54.08
851.097	54.27
851.401	52.76
851.705	50.6
852.009	50.08
852.313	51.01
852.617	50.67
852.92	51.47
853.224	53.38
853.528	54.87
853.831	55.74
854.135	54.06
854.438	53.44
854.742	53.41
855.045	52.12
855.349	53.93
855.652	57.41
855.955	59.5
856.259	62.44
856.562	61.35
856.865	62.38
857.168	63.53
857.471	63.6
857.774	65.76
858.077	65.81
858.38	67.53
858.683	66.12
858.986	65.73
859.289	66.31
859.592	63.96
859.894	62.78
860.197	59.68
860.5	61.33
860.802	64.52
861.105	63.54
861.407	62.48
861.71	59.03
862.012	58.33
862.315	56.02
862.617	54.81
862.919	55.73
863.222	58.03
863.524	57.99
863.826	58.23
864.128	56.93
864.43	58.06
864.732	56.82
865.034	57.9
865.336	59.24
865.638	59.07
865.94	60.88
866.242	59.68
866.544	59.99
866.846	61.37
867.147	60.99
867.449	59.51
867.751	60.52
868.052	62.18
868.354	62.62
868.655	64.81
868.957	64.79
869.258	63.94
869.56	62.44
869.861	63.18
870.162	64.97
870.463	66.99
870.765	66.23
871.066	66.31
871.367	65.37
871.668	64.02
871.969	62.89
872.27	59.61
872.571	60.75
872.872	61.33
873.173	61.96
873.473	61.2
873.774	64.89
874.075	66.15
874.376	65.07
874.676	64.46
874.977	64.74
875.277	62.86
875.578	61.38
875.878	60.67
876.179	60.3
876.479	58.69
876.78	56.64
877.08	56.26
877.38	55.42
877.68	56.17
877.981	56.63
878.281	57.57
878.581	62.23
