Data from MVZ_BU8943_Reflection_00012.txt Node
Date: Tue Nov 19 12:09:23 EST 2019
User: vgr7
Spectrometer: USB2G7710
Scans to average: 3
Trigger mode: 4
Integration Time (sec): 2.000000E-2
Electric dark correction enabled: true
Boxcar width: 10
XAxis mode: Wavelengths
Number of Pixels in Spectrum: 2048
>>>>>Begin Spectral Data<<<<<
177.721	229.66
178.105	270.21
178.488	-219.57
178.871	-186.3
179.254	-382.35
179.636	-275.74
180.019	-49.14
180.402	-40
180.785	-240.26
181.168	-106.85
181.55	-20.95
181.933	-0.26
182.316	-16.63
182.698	-37900
183.081	774.7
183.463	-343.61
183.846	-350.33
184.228	-608.86
184.611	294.55
184.993	118.54
185.376	119.64
185.758	140.84
186.14	82.78
186.522	91.47
186.904	98.96
187.287	65.85
187.669	49.52
188.051	14.75
188.433	-8.09
188.815	-19.19
189.197	-24.03
189.579	-20.02
189.961	-15.68
190.342	-11.86
190.724	-51.07
191.106	-57.92
191.488	-55.66
191.869	-56.27
192.251	-77.51
192.633	-100.49
193.014	-113.42
193.396	-123.64
193.777	-140.35
194.159	-78.92
194.54	-75.81
194.922	-113.09
195.303	-138.85
195.684	-838.05
196.065	-454.74
196.447	34100
196.828	539.56
197.209	-1723.53
197.59	44.6
197.971	119.07
198.352	77.41
198.733	74.87
199.114	175.19
199.495	-217.92
199.876	-247.31
200.257	-36.96
200.638	1.72
201.018	-48.94
201.399	-20.08
201.78	-14.82
202.16	-77.22
202.541	-192.89
202.922	-336.97
203.302	-367.15
203.683	-294.59
204.063	-65.05
204.444	-41.14
204.824	-29.66
205.204	-41.83
205.585	-13.66
205.965	10.55
206.345	-13.45
206.725	-12.18
207.106	-5.07
207.486	7.01
207.866	48.41
208.246	61.68
208.626	-2.49
209.006	-34.57
209.386	-74.56
209.766	-80.22
210.145	-42.59
210.525	-82.09
210.905	-110.3
211.285	-111.82
211.664	22.33
212.044	60.4
212.424	-108.05
212.803	103.53
213.183	-58.62
213.562	-120.69
213.942	-132.88
214.321	109.85
214.701	-713.95
215.08	-1416.13
215.459	773.27
215.838	-364.57
216.218	-30.3
216.597	-157.21
216.976	-154.69
217.355	-965.57
217.734	998.31
218.113	-444.38
218.492	9009.09
218.871	581.08
219.25	536.55
219.629	520.17
220.008	98.41
220.387	98.73
220.766	94.1
221.144	34.11
221.523	4.82
221.902	6.84
222.28	1.69
222.659	19.13
223.037	9.91
223.416	-10.67
223.794	-6.07
224.173	0.03
224.551	-3.8
224.929	3.19
225.308	1.25
225.686	-6.9
226.064	-7.94
226.442	-5.09
226.821	-1.13
227.199	0.52
227.577	5.71
227.955	5.48
228.333	4.54
228.711	0.66
229.089	4.75
229.467	4.34
229.845	2.92
230.222	2.88
230.6	-1.39
230.978	1.39
231.356	2.08
231.733	3.01
232.111	4.74
232.488	4.13
232.866	5.65
233.243	5.78
233.621	8.42
233.998	8.51
234.376	9.31
234.753	5.36
235.13	5.97
235.508	6.02
235.885	5.83
236.262	5.6
236.639	6.43
237.016	4.19
237.393	5.27
237.77	6.42
238.147	6.27
238.524	6.12
238.901	4.23
239.278	4.78
239.655	5.2
240.032	4.27
240.409	4.55
240.785	4.02
241.162	3.96
241.539	4.42
241.915	3.5
242.292	3.1
242.668	3.45
243.045	3.35
243.421	3.02
243.798	3.37
244.174	3.4
244.551	3.92
244.927	4.21
245.303	4.01
245.679	3.93
246.056	4.2
246.432	4.29
246.808	4.71
247.184	4.6
247.56	4.31
247.936	4.32
248.312	4.51
248.688	4.3
249.064	4.21
249.44	3.92
249.815	4.37
250.191	4.62
250.567	4.72
250.943	5.17
251.318	5.45
251.694	5.18
252.069	5.1
252.445	4.66
252.82	5.02
253.196	5.15
253.571	5.24
253.947	4.73
254.322	4.86
254.697	4.6
255.073	4.59
255.448	4.53
255.823	4.43
256.198	4.11
256.573	4.42
256.948	4.63
257.323	4.6
257.698	4.18
258.073	4
258.448	3.9
258.823	3.6
259.198	3.52
259.573	3.56
259.948	3.68
260.322	3.65
260.697	3.61
261.072	3.9
261.446	3.73
261.821	3.87
262.195	3.78
262.57	3.56
262.944	3.54
263.319	3.79
263.693	3.67
264.067	3.69
264.442	3.41
264.816	3.48
265.19	3.43
265.564	3.53
265.938	3.57
266.313	3.72
266.687	3.73
267.061	3.71
267.435	3.64
267.809	3.58
268.183	3.65
268.556	3.59
268.93	3.41
269.304	3.29
269.678	3.5
270.051	3.45
270.425	3.6
270.799	3.23
271.172	3.28
271.546	3.55
271.919	3.51
272.293	3.96
272.666	3.86
273.04	4.03
273.413	4.19
273.787	4.13
274.16	4.05
274.533	4.07
274.906	4.14
275.279	4.2
275.653	4.07
276.026	4.14
276.399	4.19
276.772	4.09
277.145	4.56
277.518	4.31
277.891	4.29
278.263	4.39
278.636	4.79
279.009	4.57
279.382	4.4
279.755	4.46
280.127	3.98
280.5	3.84
280.872	3.89
281.245	3.91
281.617	3.76
281.99	3.76
282.362	3.83
282.735	3.74
283.107	3.74
283.479	3.83
283.852	3.92
284.224	3.82
284.596	3.86
284.968	3.88
285.34	3.98
285.713	4.09
286.085	4.22
286.457	4.24
286.829	4.41
287.201	4.5
287.572	4.53
287.944	4.78
288.316	4.92
288.688	4.93
289.06	4.85
289.431	4.99
289.803	5.06
290.175	4.92
290.546	4.91
290.918	4.95
291.289	4.87
291.661	4.64
292.032	4.63
292.403	4.65
292.775	4.61
293.146	4.73
293.517	4.67
293.889	4.48
294.26	4.45
294.631	4.3
295.002	4.24
295.373	4.28
295.744	4.23
296.115	4.31
296.486	4.16
296.857	4.23
297.228	4.16
297.599	4.27
297.97	4.43
298.34	4.48
298.711	4.59
299.082	4.76
299.452	5
299.823	5
300.194	5.05
300.564	4.83
300.935	4.83
301.305	4.86
301.676	4.92
302.046	4.92
302.416	5.07
302.787	5.13
303.157	5.04
303.527	5.15
303.897	5.12
304.267	5.37
304.637	5.52
305.008	5.5
305.378	5.3
305.748	5.23
306.117	5.3
306.487	5.3
306.857	5.39
307.227	5.45
307.597	5.45
307.967	5.56
308.336	5.68
308.706	5.75
309.076	5.92
309.445	6
309.815	6.08
310.184	6.09
310.554	6.25
310.923	6.36
311.293	6.43
311.662	6.5
312.031	6.48
312.401	6.42
312.77	6.66
313.139	6.75
313.508	6.81
313.877	6.85
314.246	6.8
314.616	6.69
314.985	6.66
315.353	6.89
315.722	6.99
316.091	7.15
316.46	7.17
316.829	7.16
317.198	7.33
317.567	7.47
317.935	7.51
318.304	7.44
318.672	7.51
319.041	7.63
319.41	7.69
319.778	7.8
320.147	7.77
320.515	7.87
320.883	7.8
321.252	7.87
321.62	7.96
321.988	8.07
322.357	8.22
322.725	8.22
323.093	8.13
323.461	8
323.829	7.85
324.197	7.86
324.565	7.81
324.933	7.83
325.301	7.74
325.669	7.68
326.037	7.7
326.405	7.64
326.772	7.54
327.14	7.45
327.508	7.33
327.875	7.46
328.243	7.43
328.61	7.72
328.978	7.75
329.346	7.92
329.713	7.96
330.08	8.13
330.448	8.12
330.815	8.23
331.182	8.24
331.55	8.39
331.917	8.36
332.284	8.41
332.651	8.36
333.018	8.53
333.385	8.72
333.752	8.84
334.119	9.12
334.486	9.26
334.853	9.38
335.22	9.53
335.587	9.56
335.954	9.5
336.32	9.41
336.687	9.49
337.054	9.28
337.42	9.37
337.787	9.26
338.153	9.32
338.52	9.31
338.886	9.51
339.253	9.55
339.619	9.71
339.986	9.81
340.352	9.83
340.718	9.73
341.084	9.69
341.451	9.78
341.817	9.67
342.183	9.54
342.549	9.64
342.915	9.69
343.281	9.7
343.647	9.72
344.013	9.74
344.379	9.61
344.745	9.79
345.11	9.77
345.476	9.79
345.842	9.79
346.208	9.88
346.573	9.89
346.939	9.87
347.304	9.83
347.67	9.77
348.035	9.79
348.401	9.85
348.766	9.87
349.132	9.9
349.497	9.96
349.862	10.03
350.228	10.03
350.593	10
350.958	10.06
351.323	10.2
351.688	10.23
352.053	10.33
352.418	10.22
352.783	10.32
353.148	10.34
353.513	10.48
353.878	10.36
354.243	10.29
354.608	10.33
354.972	10.26
355.337	10.38
355.702	10.34
356.066	10.41
356.431	10.49
356.795	10.43
357.16	10.38
357.524	10.49
357.889	10.47
358.253	10.45
358.618	10.44
358.982	10.4
359.346	10.42
359.71	10.43
360.075	10.47
360.439	10.47
360.803	10.56
361.167	10.53
361.531	10.58
361.895	10.58
362.259	10.65
362.623	10.73
362.987	10.67
363.351	10.72
363.714	10.65
364.078	10.63
364.442	10.57
364.806	10.55
365.169	10.54
365.533	10.53
365.896	10.58
366.26	10.59
366.623	10.59
366.987	10.53
367.35	10.54
367.714	10.46
368.077	10.42
368.44	10.33
368.803	10.27
369.167	10.24
369.53	10.17
369.893	10.12
370.256	10.05
370.619	10.1
370.982	10.11
371.345	10.02
371.708	10.01
372.071	9.98
372.434	9.95
372.797	9.82
373.159	9.77
373.522	9.69
373.885	9.68
374.247	9.62
374.61	9.62
374.973	9.58
375.335	9.57
375.698	9.42
376.06	9.44
376.423	9.41
376.785	9.41
377.147	9.38
377.51	9.3
377.872	9.23
378.234	9.17
378.596	9.18
378.958	9.22
379.321	9.14
379.683	9.21
380.045	9.2
380.407	9.19
380.769	9.15
381.13	9.2
381.492	9.12
381.854	9.13
382.216	9.07
382.578	9.09
382.939	9.05
383.301	9.05
383.663	8.97
384.024	8.94
384.386	8.9
384.747	8.9
385.109	8.9
385.47	8.92
385.832	8.88
386.193	8.8
386.554	8.76
386.916	8.67
387.277	8.58
387.638	8.53
387.999	8.46
388.36	8.42
388.721	8.35
389.082	8.35
389.443	8.24
389.804	8.27
390.165	8.2
390.526	8.22
390.887	8.26
391.248	8.21
391.609	8.21
391.969	8.2
392.33	8.16
392.691	8.12
393.051	8.05
393.412	8.03
393.772	8.04
394.133	8.04
394.493	8.05
394.854	8.03
395.214	8.01
395.574	7.98
395.935	7.94
396.295	7.92
396.655	7.83
397.015	7.86
397.376	7.78
397.736	7.72
398.096	7.68
398.456	7.56
398.816	7.54
399.176	7.45
399.535	7.35
399.895	7.3
400.255	7.29
400.615	7.27
400.975	7.18
401.334	7.11
401.694	7.05
402.054	6.99
402.413	6.95
402.773	6.94
403.132	6.92
403.492	6.92
403.851	6.84
404.211	6.85
404.57	6.79
404.929	6.79
405.288	6.82
405.648	6.79
406.007	6.82
406.366	6.79
406.725	6.8
407.084	6.82
407.443	6.82
407.802	6.77
408.161	6.73
408.52	6.76
408.879	6.72
409.238	6.68
409.596	6.68
409.955	6.66
410.314	6.69
410.673	6.68
411.031	6.66
411.39	6.63
411.748	6.6
412.107	6.58
412.465	6.53
412.824	6.49
413.182	6.45
413.54	6.38
413.899	6.37
414.257	6.34
414.615	6.31
414.974	6.28
415.332	6.26
415.69	6.26
416.048	6.23
416.406	6.22
416.764	6.22
417.122	6.21
417.48	6.19
417.838	6.14
418.195	6.11
418.553	6.07
418.911	6.07
419.269	6.04
419.626	6.02
419.984	5.99
420.342	5.99
420.699	5.97
421.057	5.96
421.414	5.95
421.772	5.93
422.129	5.9
422.486	5.89
422.844	5.87
423.201	5.86
423.558	5.83
423.915	5.81
424.273	5.77
424.63	5.74
424.987	5.74
425.344	5.72
425.701	5.68
426.058	5.67
426.415	5.65
426.772	5.65
427.128	5.66
427.485	5.67
427.842	5.63
428.199	5.62
428.555	5.62
428.912	5.6
429.269	5.59
429.625	5.59
429.982	5.59
430.338	5.59
430.695	5.57
431.051	5.58
431.407	5.58
431.764	5.61
432.12	5.62
432.476	5.6
432.832	5.61
433.189	5.63
433.545	5.62
433.901	5.61
434.257	5.6
434.613	5.57
434.969	5.56
435.325	5.56
435.681	5.55
436.036	5.56
436.392	5.58
436.748	5.57
437.104	5.57
437.459	5.56
437.815	5.56
438.171	5.56
438.526	5.54
438.882	5.54
439.237	5.55
439.593	5.53
439.948	5.53
440.304	5.49
440.659	5.52
441.014	5.53
441.369	5.54
441.725	5.54
442.08	5.52
442.435	5.51
442.79	5.52
443.145	5.51
443.5	5.52
443.855	5.49
444.21	5.46
444.565	5.47
444.92	5.45
445.275	5.46
445.629	5.46
445.984	5.47
446.339	5.46
446.693	5.44
447.048	5.44
447.403	5.43
447.757	5.44
448.112	5.4
448.466	5.38
448.82	5.38
449.175	5.37
449.529	5.39
449.883	5.38
450.238	5.36
450.592	5.36
450.946	5.32
451.3	5.33
451.654	5.33
452.008	5.32
452.362	5.32
452.716	5.3
453.07	5.27
453.424	5.26
453.778	5.27
454.132	5.25
454.486	5.25
454.839	5.25
455.193	5.26
455.547	5.29
455.9	5.29
456.254	5.27
456.607	5.27
456.961	5.25
457.314	5.26
457.668	5.26
458.021	5.26
458.375	5.27
458.728	5.25
459.081	5.26
459.434	5.26
459.787	5.25
460.141	5.27
460.494	5.28
460.847	5.27
461.2	5.27
461.553	5.27
461.906	5.3
462.259	5.29
462.611	5.29
462.964	5.29
463.317	5.31
463.67	5.33
464.022	5.32
464.375	5.33
464.728	5.34
465.08	5.37
465.433	5.38
465.785	5.41
466.138	5.44
466.49	5.48
466.843	5.51
467.195	5.54
467.547	5.54
467.899	5.58
468.252	5.6
468.604	5.59
468.956	5.61
469.308	5.56
469.66	5.62
470.012	5.62
470.364	5.65
470.716	5.67
471.068	5.7
471.42	5.76
471.772	5.78
472.123	5.82
472.475	5.85
472.827	5.87
473.178	5.89
473.53	5.91
473.882	5.91
474.233	5.9
474.585	5.91
474.936	5.94
475.288	5.92
475.639	5.94
475.99	5.98
476.342	6
476.693	6.04
477.044	6.01
477.395	6.03
477.746	6.03
478.097	6.02
478.448	6.01
478.8	6.02
479.15	6.02
479.501	6
479.852	5.96
480.203	5.96
480.554	5.94
480.905	5.94
481.255	5.94
481.606	5.94
481.957	5.94
482.307	5.93
482.658	5.93
483.009	5.91
483.359	5.9
483.709	5.88
484.06	5.88
484.41	5.89
484.761	5.89
485.111	5.87
485.461	5.86
485.811	5.85
486.162	5.83
486.512	5.82
486.862	5.83
487.212	5.84
487.562	5.84
487.912	5.84
488.262	5.84
488.612	5.82
488.961	5.82
489.311	5.82
489.661	5.82
490.011	5.82
490.36	5.82
490.71	5.82
491.06	5.84
491.409	5.86
491.759	5.86
492.108	5.85
492.458	5.89
492.807	5.9
493.157	5.93
493.506	5.96
493.855	5.99
494.204	6.01
494.554	6.03
494.903	6.05
495.252	6.08
495.601	6.1
495.95	6.15
496.299	6.18
496.648	6.23
496.997	6.28
497.346	6.34
497.695	6.41
498.043	6.48
498.392	6.52
498.741	6.57
499.09	6.62
499.438	6.7
499.787	6.75
500.135	6.85
500.484	6.9
500.832	6.97
501.181	7.04
501.529	7.13
501.878	7.21
502.226	7.31
502.574	7.41
502.923	7.52
503.271	7.64
503.619	7.76
503.967	7.83
504.315	7.95
504.663	8.09
505.011	8.21
505.359	8.31
505.707	8.42
506.055	8.56
506.403	8.71
506.751	8.83
507.098	8.98
507.446	9.09
507.794	9.22
508.141	9.35
508.489	9.5
508.837	9.6
509.184	9.75
509.531	9.89
509.879	10.03
510.226	10.15
510.574	10.29
510.921	10.42
511.268	10.56
511.616	10.7
511.963	10.84
512.31	10.99
512.657	11.17
513.004	11.34
513.351	11.49
513.698	11.67
514.045	11.86
514.392	12.03
514.739	12.25
515.086	12.45
515.432	12.62
515.779	12.76
516.126	13
516.473	13.16
516.819	13.33
517.166	13.52
517.512	13.7
517.859	13.84
518.205	14
518.552	14.18
518.898	14.35
519.245	14.52
519.591	14.67
519.937	14.84
520.283	14.99
520.629	15.21
520.976	15.36
521.322	15.55
521.668	15.74
522.014	15.93
522.36	16.14
522.706	16.35
523.052	16.6
523.398	16.79
523.743	17.01
524.089	17.23
524.435	17.43
524.781	17.65
525.126	17.88
525.472	18.09
525.817	18.23
526.163	18.41
526.509	18.55
526.854	18.68
527.199	18.8
527.545	18.93
527.89	19.05
528.235	19.19
528.581	19.33
528.926	19.46
529.271	19.6
529.616	19.72
529.961	19.87
530.306	20.02
530.651	20.17
530.996	20.35
531.341	20.51
531.686	20.66
532.031	20.82
532.376	20.96
532.721	21.13
533.065	21.32
533.41	21.49
533.755	21.66
534.099	21.87
534.444	22.07
534.788	22.26
535.133	22.43
535.477	22.62
535.822	22.79
536.166	23.01
536.51	23.23
536.855	23.47
537.199	23.72
537.543	23.97
537.887	24.23
538.231	24.47
538.576	24.77
538.92	25.05
539.264	25.29
539.608	25.56
539.951	25.77
540.295	26
540.639	26.23
540.983	26.46
541.327	26.68
541.671	26.87
542.014	27.12
542.358	27.32
542.701	27.55
543.045	27.76
543.389	27.99
543.732	28.18
544.075	28.38
544.419	28.62
544.762	28.83
545.105	29.08
545.449	29.31
545.792	29.53
546.135	29.79
546.478	30.05
546.821	30.31
547.165	30.59
547.508	30.83
547.851	31.09
548.194	31.34
548.536	31.63
548.879	31.93
549.222	32.13
549.565	32.45
549.908	32.66
550.25	32.97
550.593	33.21
550.936	33.53
551.278	33.85
551.621	34.09
551.963	34.39
552.306	34.65
552.648	34.94
552.991	35.14
553.333	35.35
553.675	35.64
554.017	35.86
554.36	36.05
554.702	36.26
555.044	36.51
555.386	36.71
555.728	36.91
556.07	37.1
556.412	37.32
556.754	37.51
557.096	37.85
557.438	38.04
557.78	38.36
558.121	38.56
558.463	38.7
558.805	38.93
559.147	39.11
559.488	39.32
559.83	39.58
560.171	39.82
560.513	40.03
560.854	40.29
561.196	40.51
561.537	40.79
561.878	40.99
562.22	41.18
562.561	41.39
562.902	41.54
563.243	41.8
563.584	42.11
563.925	42.3
564.266	42.45
564.607	42.61
564.948	42.63
565.289	42.78
565.63	42.94
565.971	43.08
566.312	43.27
566.653	43.44
566.993	43.54
567.334	43.71
567.675	43.9
568.015	43.99
568.356	44.14
568.696	44.31
569.037	44.51
569.377	44.62
569.718	44.78
570.058	44.93
570.398	45.02
570.739	45.07
571.079	45.2
571.419	45.31
571.759	45.45
572.099	45.66
572.439	45.78
572.779	45.91
573.119	46
573.459	46.12
573.799	46.19
574.139	46.28
574.479	46.36
574.819	46.41
575.158	46.45
575.498	46.5
575.838	46.55
576.177	46.66
576.517	46.78
576.856	46.84
577.196	46.98
577.535	47.05
577.875	47.14
578.214	47.29
578.553	47.37
578.893	47.49
579.232	47.55
579.571	47.64
579.91	47.74
580.25	47.9
580.589	47.91
580.928	48.03
581.267	48.1
581.606	48.17
581.945	48.26
582.283	48.35
582.622	48.5
582.961	48.67
583.3	48.67
583.639	48.72
583.977	48.77
584.316	48.87
584.654	49
584.993	49.03
585.332	49.04
585.67	49.15
586.008	49.11
586.347	49.22
586.685	49.29
587.024	49.4
587.362	49.38
587.7	49.57
588.038	49.63
588.376	49.64
588.715	49.69
589.053	49.81
589.391	49.93
589.729	50.03
590.067	49.99
590.404	50.11
590.742	50.25
591.08	50.35
591.418	50.39
591.756	50.48
592.093	50.57
592.431	50.64
592.769	50.65
593.106	50.69
593.444	50.75
593.781	50.86
594.119	50.98
594.456	51.04
594.793	51.01
595.131	51.07
595.468	51.25
595.805	51.37
596.143	51.36
596.48	51.44
596.817	51.48
597.154	51.57
597.491	51.56
597.828	51.62
598.165	51.63
598.502	51.62
598.839	51.64
599.176	51.7
599.512	51.71
599.849	51.74
600.186	51.78
600.523	51.76
600.859	51.72
601.196	51.67
601.532	51.65
601.869	51.76
602.205	51.9
602.542	51.9
602.878	52.01
603.215	52.07
603.551	52.08
603.887	52.04
604.223	52.09
604.56	52.14
604.896	52.15
605.232	52.26
605.568	52.42
605.904	52.38
606.24	52.42
606.576	52.52
606.912	52.59
607.248	52.69
607.583	52.72
607.919	52.83
608.255	52.92
608.591	53.05
608.926	53.02
609.262	52.98
609.597	52.96
609.933	52.85
610.268	52.94
610.604	52.94
610.939	53.1
611.275	53.11
611.61	53.2
611.945	53.19
612.281	53.14
612.616	53.01
612.951	53.13
613.286	53.19
613.621	53.11
613.956	53.08
614.291	53.15
614.626	53.21
614.961	53.07
615.296	53.03
615.631	53.03
615.966	53.09
616.3	53.04
616.635	53.03
616.97	53.06
617.304	52.98
617.639	53.06
617.973	53.07
618.308	53.07
618.642	52.99
618.977	52.97
619.311	52.96
619.646	53.03
619.98	53.03
620.314	53.04
620.648	53.17
620.983	53.25
621.317	53.31
621.651	53.34
621.985	53.53
622.319	53.58
622.653	53.66
622.987	53.71
623.321	53.79
623.655	53.84
623.988	53.96
624.322	53.94
624.656	53.92
624.99	53.88
625.323	53.87
625.657	53.91
625.99	53.91
626.324	54.02
626.657	54.08
626.991	54.18
627.324	54.19
627.658	54.26
627.991	54.18
628.324	54.09
628.657	54.13
628.991	54.1
629.324	54.11
629.657	54.11
629.99	54.13
630.323	54.22
630.656	54.31
630.989	54.35
631.322	54.47
631.655	54.42
631.987	54.46
632.32	54.62
632.653	54.72
632.986	54.88
633.318	54.9
633.651	54.9
633.984	54.93
634.316	54.92
634.649	54.9
634.981	55.04
635.313	55.12
635.646	55.15
635.978	55.21
636.31	55.26
636.643	55.13
636.975	55.04
637.307	54.88
637.639	54.78
637.971	54.65
638.303	54.59
638.635	54.75
638.967	54.72
639.299	54.53
639.631	54.52
639.963	54.34
640.295	54.28
640.626	54.24
640.958	54.1
641.29	54.16
641.621	54.12
641.953	54.03
642.285	54.07
642.616	54.03
642.948	53.94
643.279	53.91
643.61	54
643.942	54.1
644.273	54.2
644.604	54.33
644.936	54.45
645.267	54.51
645.598	54.43
645.929	54.5
646.26	54.65
646.591	54.7
646.922	54.81
647.253	55.08
647.584	55.09
647.915	55.06
648.245	55
648.576	55.1
648.907	55.18
649.238	55.15
649.568	55.23
649.899	55.31
650.229	55.35
650.56	55.39
650.89	55.44
651.221	55.45
651.551	55.38
651.882	55.23
652.212	55.24
652.542	55.24
652.872	55.17
653.203	55.16
653.533	55.08
653.863	55.12
654.193	54.93
654.523	55.02
654.853	55.13
655.183	55.23
655.513	55.19
655.843	55.11
656.172	55.33
656.502	55.28
656.832	55.44
657.162	55.35
657.491	55.44
657.821	55.28
658.15	55.33
658.48	55.46
658.809	55.63
659.139	55.62
659.468	55.65
659.798	55.7
660.127	55.69
660.456	55.78
660.785	55.85
661.115	55.94
661.444	55.95
661.773	55.82
662.102	55.87
662.431	55.92
662.76	55.98
663.089	55.86
663.418	55.94
663.747	55.72
664.076	55.72
664.404	55.68
664.733	55.91
665.062	55.99
665.39	55.93
665.719	55.96
666.048	55.84
666.376	55.86
666.705	55.99
667.033	56.08
667.362	56.09
667.69	56.02
668.018	56.04
668.347	55.8
668.675	56.11
669.003	55.92
669.331	55.92
669.659	55.93
669.987	55.84
670.315	55.87
670.643	55.86
670.971	56.07
671.299	56.13
671.627	56.01
671.955	55.99
672.283	56
672.61	56
672.938	56.26
673.266	56.25
673.593	56.09
673.921	56.02
674.249	55.95
674.576	55.87
674.904	55.83
675.231	56.06
675.558	56.09
675.886	56.24
676.213	56.11
676.54	56.21
676.867	56.22
677.195	56.25
677.522	56.53
677.849	56.52
678.176	56.47
678.503	56.59
678.83	56.55
679.157	56.62
679.484	56.52
679.81	56.47
680.137	56.51
680.464	56.54
680.791	56.6
681.117	56.6
681.444	56.71
681.771	56.63
682.097	56.49
682.424	56.51
682.75	56.53
683.077	56.64
683.403	56.71
683.729	56.75
684.056	56.66
684.382	56.56
684.708	56.49
685.034	56.51
685.36	56.49
685.686	56.62
686.012	56.58
686.339	56.69
686.664	56.64
686.99	56.61
687.316	56.69
687.642	56.73
687.968	56.82
688.294	56.97
688.619	57.07
688.945	57.28
689.271	57.17
689.596	57.28
689.922	57.32
690.247	57.18
690.573	57.22
690.898	57.33
691.224	57.28
691.549	57.45
691.874	57.52
692.2	57.52
692.525	57.44
692.85	57.51
693.175	57.52
693.5	57.5
693.825	57.57
694.15	57.71
694.475	57.7
694.8	57.72
695.125	57.46
695.45	57.59
695.775	57.49
696.099	57.44
696.424	57.27
696.749	57.36
697.073	57.43
697.398	57.6
697.723	57.46
698.047	57.45
698.372	57.4
698.696	57.46
699.02	57.34
699.345	57.3
699.669	57.49
699.993	57.53
700.318	57.64
700.642	57.59
700.966	57.52
701.29	57.49
701.614	57.38
701.938	57.51
702.262	57.59
702.586	57.64
702.91	57.55
703.234	57.68
703.557	57.57
703.881	57.58
704.205	57.42
704.529	57.44
704.852	57.4
705.176	57.45
705.499	57.22
705.823	57.37
706.146	57.4
706.47	57.18
706.793	56.98
707.117	56.92
707.44	57.04
707.763	57.05
708.086	56.98
708.409	57.09
708.733	57.07
709.056	57.06
709.379	57.24
709.702	57.35
710.025	57.35
710.348	57.39
710.671	57.5
710.993	57.48
711.316	57.54
711.639	57.64
711.962	57.61
712.284	57.63
712.607	57.81
712.93	57.82
713.252	57.9
713.575	58.11
713.897	58.24
714.22	58.13
714.542	58.24
714.864	58.49
715.187	58.44
715.509	58.41
715.831	58.35
716.153	58.16
716.475	58.28
716.798	58.38
717.12	58.48
717.442	58.23
717.764	58.26
718.085	58.45
718.407	58.49
718.729	58.54
719.051	58.67
719.373	58.54
719.695	58.41
720.016	58.22
720.338	58.12
720.659	58.05
720.981	58.04
721.302	58.01
721.624	57.89
721.945	57.91
722.267	58.12
722.588	57.95
722.909	58
723.231	58.05
723.552	57.89
723.873	57.88
724.194	57.98
724.515	58
724.836	57.9
725.157	57.72
725.478	57.51
725.799	57.5
726.12	57.52
726.441	57.54
726.762	57.53
727.083	57.59
727.403	57.72
727.724	57.93
728.045	57.73
728.365	57.71
728.686	57.54
729.006	57.5
729.327	57.47
729.647	57.83
729.967	57.82
730.288	57.67
730.608	57.6
730.928	57.65
731.249	57.68
731.569	57.63
731.889	57.69
732.209	57.96
732.529	58.03
732.849	57.99
733.169	58.29
733.489	58.36
733.809	58.39
734.129	58.51
734.448	58.51
734.768	58.67
735.088	58.6
735.408	58.83
735.727	58.7
736.047	58.66
736.366	58.56
736.686	58.5
737.005	58.68
737.325	58.62
737.644	58.88
737.963	58.71
738.283	58.7
738.602	59.03
738.921	58.77
739.24	58.9
739.56	58.91
739.879	58.8
740.198	58.66
740.517	58.69
740.836	58.39
741.155	58.43
741.473	58.29
741.792	58.37
742.111	58.61
742.43	58.66
742.748	58.87
743.067	58.63
743.386	58.51
743.704	58.39
744.023	58.4
744.341	58.14
744.66	58.15
744.978	58.35
745.297	58.13
745.615	58.16
745.933	58.16
746.252	58.12
746.57	58.04
746.888	58.33
747.206	58.19
747.524	58.36
747.842	58.15
748.16	58.03
748.478	58
748.796	57.76
749.114	57.44
749.432	57.14
749.749	57.17
750.067	57.21
750.385	57.39
750.703	57.52
751.02	57.37
751.338	57.68
751.655	57.58
751.973	57.71
752.29	57.92
752.608	57.29
752.925	57.19
753.242	57.21
753.56	57.26
753.877	57.14
754.194	56.91
754.511	57.07
754.828	57.05
755.145	57.09
755.462	56.88
755.779	57.54
756.096	57.8
756.413	57.55
756.73	57.73
757.047	57.62
757.364	57.65
757.68	58.11
757.997	58.18
758.314	57.88
758.63	57.58
758.947	57.47
759.264	57.72
759.58	57.95
759.896	58.02
760.213	58.15
760.529	58.77
760.846	59.09
761.162	59.09
761.478	59.35
761.794	59.45
762.11	59.72
762.426	59.79
762.743	59.71
763.059	60.04
763.375	59.9
763.69	60.04
764.006	60.31
764.322	60.13
764.638	60.04
764.954	60.09
765.27	60.54
765.585	60.27
765.901	60.45
766.216	60.47
766.532	60.27
766.848	59.99
767.163	59.62
767.478	59.48
767.794	59.52
768.109	59.31
768.424	59.28
768.74	58.92
769.055	58.6
769.37	58.63
769.685	58.32
770	58.51
770.315	58.07
770.63	57.79
770.945	58.02
771.26	58.33
771.575	58.21
771.89	57.61
772.205	58.43
772.52	58.28
772.834	58.54
773.149	59.03
773.464	59.1
773.778	59.33
774.093	59.39
774.407	59.69
774.722	60.16
775.036	60.43
775.351	61.15
775.665	61.16
775.979	61.25
776.293	61.36
776.608	60.74
776.922	61.17
777.236	60.96
777.55	61.02
777.864	60.35
778.178	61
778.492	61.52
778.806	61.2
779.12	61.82
779.434	61.25
779.747	60.94
780.061	61.33
780.375	61.08
780.689	61.18
781.002	61.41
781.316	61.02
781.629	60.43
781.943	60.2
782.256	60.23
782.57	60.49
782.883	60.59
783.196	61.06
783.51	60.7
783.823	61.16
784.136	60.32
784.449	60.64
784.762	60.59
785.075	60.11
785.388	59.86
785.701	59.46
786.014	59.6
786.327	59.62
786.64	59.44
786.953	59.66
787.266	59.16
787.578	58.45
787.891	58.34
788.204	59.02
788.516	58.87
788.829	58.22
789.141	58.13
789.454	57.84
789.766	57.87
790.079	58.69
790.391	58.7
790.703	59.17
791.016	59.21
791.328	59.34
791.64	59.73
791.952	60.28
792.264	60.6
792.576	60.39
792.888	60.85
793.2	60.87
793.512	60.49
793.824	60.31
794.136	61.4
794.448	61.43
794.76	60.79
795.071	61.01
795.383	62.23
795.695	62.34
796.006	62.66
796.318	63.09
796.629	62.65
796.941	62.92
797.252	62.61
797.564	62.72
797.875	62.44
798.186	62.69
798.497	62.42
798.809	62.09
799.12	62.88
799.431	62.25
799.742	61.95
800.053	62.03
800.364	63.43
800.675	62.37
800.986	62.82
801.297	63.34
801.608	63.3
801.918	63.36
802.229	63.18
802.54	62.77
802.851	62.74
803.161	62.96
803.472	61.84
803.782	62.3
804.093	62.04
804.403	61.93
804.714	61.12
805.024	60.77
805.334	60.66
805.645	60.79
805.955	61.76
806.265	61.98
806.575	62.25
806.885	61.91
807.195	62.03
807.505	62.2
807.815	61.56
808.125	61.38
808.435	60.74
808.745	60.89
809.055	61.55
809.365	61.09
809.674	61.1
809.984	61.11
810.294	61.49
810.603	61.52
810.913	60.97
811.222	61.32
811.532	62.16
811.841	62.61
812.151	60.94
812.46	60.13
812.769	59.67
813.079	59.37
813.388	58.28
813.697	58.11
814.006	59.02
814.315	59.66
814.624	59.83
814.933	59.6
815.242	59.42
815.551	59.67
815.86	59.39
816.169	59.88
816.478	60.28
816.786	59.71
817.095	60.68
817.404	61.24
817.712	61.2
818.021	60.64
818.33	60.12
818.638	61.41
818.947	61.49
819.255	62.44
819.563	62.53
819.872	62.32
820.18	62.19
820.488	61.67
820.796	61.76
821.105	62.06
821.413	62.22
821.721	62.33
822.029	62.3
822.337	62.49
822.645	61.99
822.953	62.16
823.26	62.23
823.568	62.12
823.876	61.79
824.184	61.94
824.491	61.98
824.799	62.05
825.107	61.96
825.414	61.81
825.722	61.59
826.029	61.7
826.337	62.06
826.644	61.99
826.951	61.84
827.259	61.94
827.566	61.8
827.873	61.96
828.18	61.94
828.488	61.97
828.795	62.11
829.102	62.63
829.409	62.43
829.716	62.59
830.023	62.29
830.329	63.23
830.636	63.4
830.943	63.22
831.25	63.11
831.557	63.42
831.863	64.11
832.17	64.21
832.476	63.67
832.783	63.56
833.089	63.8
833.396	64.34
833.702	63.74
834.009	64.37
834.315	63.96
834.621	63.95
834.928	63.64
835.234	63.35
835.54	63.03
835.846	62.69
836.152	62.81
836.458	63.52
836.764	63.71
837.07	63.19
837.376	63.66
837.682	63.79
837.988	63.42
838.293	62.81
838.599	62.44
838.905	62.88
839.211	62.14
839.516	62.63
839.822	62.65
840.127	63.19
840.433	62.14
840.738	61.65
841.044	61.82
841.349	62.07
841.654	61.33
841.959	61.59
842.265	60.97
842.57	60.52
842.875	58.3
843.18	57.36
843.485	56.67
843.79	56.5
844.095	58.26
844.4	58.09
844.705	59.79
845.01	59.97
845.315	60.7
845.619	61.35
845.924	60.16
846.229	58.63
846.533	59.3
846.838	58.75
847.142	58.46
847.447	57.71
847.751	57.71
848.056	57.94
848.36	57.81
848.664	60.32
848.969	59.46
849.273	62.04
849.577	60.58
849.881	62.48
850.185	62.56
850.489	59.04
850.794	59.91
851.097	57.97
851.401	56.59
851.705	56.15
852.009	56.02
852.313	56.89
852.617	56.73
852.92	55.49
853.224	54.91
853.528	56.74
853.831	57.36
854.135	54.88
854.438	55.98
854.742	56.86
855.045	57.7
855.349	58.08
855.652	58.38
855.955	59.15
856.259	57.77
856.562	58.4
856.865	61.38
857.168	58.88
857.471	57.93
857.774	58.69
858.077	58.17
858.38	60.28
858.683	61.71
858.986	63.17
859.289	61.73
859.592	61.44
859.894	59.98
860.197	59.6
860.5	61.22
860.802	60.6
861.105	59.36
861.407	57.61
861.71	57.2
862.012	58.94
862.315	60.61
862.617	60.4
862.919	59.32
863.222	58.84
863.524	62.2
863.826	61.32
864.128	64.66
864.43	64.85
864.732	62.72
865.034	59.69
865.336	60.31
865.638	62.92
865.94	65.14
866.242	64.34
866.544	66.41
866.846	69.48
867.147	69.27
867.449	68.7
867.751	68.1
868.052	70.43
868.354	70.47
868.655	67.56
868.957	66.42
869.258	64.72
869.56	63.24
869.861	59.73
870.162	62.53
870.463	60.07
870.765	61.35
871.066	59.31
871.367	62.65
871.668	63.42
871.969	61.89
872.27	58.54
872.571	59.97
872.872	57.79
873.173	57.05
873.473	56.44
873.774	57.23
874.075	59.76
874.376	53.93
874.676	52.86
874.977	54.03
875.277	54.76
875.578	56.96
875.878	56.76
876.179	58.96
876.479	57.96
876.78	59.36
877.08	57.08
877.38	60.9
877.68	58.19
877.981	55.72
878.281	55.65
878.581	59.67
