Data from MVZ_BU147393_Reflection_00014.txt Node
Date: Tue Nov 19 12:07:16 EST 2019
User: vgr7
Spectrometer: USB2G7710
Scans to average: 3
Trigger mode: 4
Integration Time (sec): 2.000000E-2
Electric dark correction enabled: true
Boxcar width: 10
XAxis mode: Wavelengths
Number of Pixels in Spectrum: 2048
>>>>>Begin Spectral Data<<<<<
177.721	-106.28
178.105	-10150
178.488	-107.68
178.871	-6.25
179.254	22.73
179.636	155.78
180.019	134.17
180.402	333.33
180.785	-103.41
181.168	-159.71
181.55	-63.79
181.933	110.25
182.316	45.31
182.698	57.96
183.081	19.04
183.463	85.49
183.846	111.06
184.228	89.52
184.611	60.08
184.993	119.23
185.376	537.5
185.758	10850
186.14	110
186.522	89.41
186.904	410
187.287	4207.14
187.669	251.92
188.051	102.23
188.433	-36.45
188.815	33.86
189.197	19.88
189.579	-49.71
189.961	-7.49
190.342	-9.77
190.724	-19.27
191.106	-3.52
191.488	13.19
191.869	11.66
192.251	11.27
192.633	12.81
193.014	8.55
193.396	12.92
193.777	9.56
194.159	15.47
194.54	18.36
194.922	20.77
195.303	-6.92
195.684	1.9
196.065	15.47
196.447	30.58
196.828	22.7
197.209	28.02
197.59	46.09
197.971	45.66
198.352	35.69
198.733	33.97
199.114	0.39
199.495	-20.2
199.876	-31.13
200.257	-35.52
200.638	-12.51
201.018	-13.61
201.399	-21.98
201.78	-18.08
202.16	-13.99
202.541	-19.38
202.922	-14.78
203.302	-1.88
203.683	-0.18
204.063	-2.29
204.444	1.98
204.824	3.66
205.204	14.85
205.585	6.13
205.965	-1.1
206.345	-1.54
206.725	8
207.106	20.71
207.486	12.61
207.866	17.9
208.246	27.52
208.626	15.64
209.006	15.24
209.386	14.89
209.766	18.66
210.145	5.68
210.525	14.59
210.905	23.74
211.285	19.74
211.664	15.71
212.044	19.31
212.424	19.19
212.803	6.79
213.183	-8.73
213.562	9.81
213.942	16.5
214.321	3.23
214.701	-16.05
215.08	-9.73
215.459	11.75
215.838	-8.06
216.218	-62.15
216.597	-36.12
216.976	-66.96
217.355	-20.45
217.734	-35.65
218.113	16.22
218.492	0.12
218.871	-42.08
219.25	-39.26
219.629	-68.4
220.008	-52.15
220.387	-93.92
220.766	-39.26
221.144	-91.75
221.523	-158.93
221.902	-171.65
222.28	-158.47
222.659	-60.55
223.037	-64.59
223.416	-73.66
223.794	-43.64
224.173	-31.18
224.551	-26.23
224.929	-21.01
225.308	-24.09
225.686	-22.48
226.064	-29.66
226.442	-24.83
226.821	-23.18
227.199	-21.79
227.577	-18.02
227.955	-18.98
228.333	-18.14
228.711	-14.61
229.089	-7.85
229.467	-9.95
229.845	-11.02
230.222	-11.61
230.6	-9.32
230.978	-6.63
231.356	-8.9
231.733	-9.53
232.111	-8.61
232.488	-8.4
232.866	-7.54
233.243	-5.95
233.621	-3.88
233.998	-3.88
234.376	-4.56
234.753	-3.73
235.13	-2.99
235.508	-4.03
235.885	-2.44
236.262	-2.35
236.639	-3.92
237.016	-4.75
237.393	-1.21
237.77	1.62
238.147	1.69
238.524	1.13
238.901	-0.53
239.278	0.12
239.655	1.19
240.032	1.86
240.409	1.3
240.785	1.87
241.162	1.03
241.539	0.5
241.915	0.6
242.292	1.29
242.668	1.86
243.045	2.29
243.421	2.75
243.798	2.83
244.174	3.08
244.551	3.1
244.927	3.13
245.303	2.98
245.679	2.72
246.056	2.99
246.432	2.78
246.808	3.33
247.184	3.34
247.56	3.17
247.936	3.11
248.312	3.42
248.688	3.25
249.064	3.53
249.44	3.47
249.815	3.93
250.191	3.84
250.567	3.79
250.943	3.66
251.318	3.63
251.694	3.35
252.069	3.41
252.445	3.55
252.82	3.75
253.196	3.68
253.571	4.01
253.947	4.27
254.322	4.62
254.697	4.61
255.073	4.6
255.448	4.29
255.823	4.24
256.198	3.71
256.573	3.72
256.948	3.79
257.323	4.01
257.698	3.85
258.073	3.9
258.448	3.97
258.823	3.92
259.198	3.93
259.573	3.87
259.948	3.95
260.322	3.91
260.697	3.92
261.072	3.99
261.446	4
261.821	3.76
262.195	3.73
262.57	3.75
262.944	3.88
263.319	4.03
263.693	3.94
264.067	4.14
264.442	4.15
264.816	4.05
265.19	3.89
265.564	3.94
265.938	3.8
266.313	3.61
266.687	3.49
267.061	3.5
267.435	3.72
267.809	3.48
268.183	3.53
268.556	3.47
268.93	3.38
269.304	3.28
269.678	3.55
270.051	3.56
270.425	3.6
270.799	3.31
271.172	3.24
271.546	3.43
271.919	3.23
272.293	3.32
272.666	3.43
273.04	3.38
273.413	3.28
273.787	3.35
274.16	3.33
274.533	3.63
274.906	3.69
275.279	3.68
275.653	3.74
276.026	3.75
276.399	3.79
276.772	3.83
277.145	3.83
277.518	3.58
277.891	3.55
278.263	3.54
278.636	3.75
279.009	3.89
279.382	3.75
279.755	3.86
280.127	3.66
280.5	3.52
280.872	3.71
281.245	3.75
281.617	3.74
281.99	3.7
282.362	3.65
282.735	3.5
283.107	3.39
283.479	3.4
283.852	3.34
284.224	3.21
284.596	3.31
284.968	3.21
285.34	3.22
285.713	3.43
286.085	3.41
286.457	3.37
286.829	3.43
287.201	3.45
287.572	3.42
287.944	3.49
288.316	3.45
288.688	3.5
289.06	3.5
289.431	3.63
289.803	3.85
290.175	3.75
290.546	3.81
290.918	3.93
291.289	3.9
291.661	3.99
292.032	4.09
292.403	4.02
292.775	4.12
293.146	4.27
293.517	4.05
293.889	4.09
294.26	4.23
294.631	4.22
295.002	4.29
295.373	4.48
295.744	4.6
296.115	4.67
296.486	4.63
296.857	4.61
297.228	4.5
297.599	4.33
297.97	4.44
298.34	4.43
298.711	4.44
299.082	4.47
299.452	4.38
299.823	4.56
300.194	4.7
300.564	4.72
300.935	4.83
301.305	4.99
301.676	4.86
302.046	4.77
302.416	4.93
302.787	4.96
303.157	4.86
303.527	4.87
303.897	5.02
304.267	5.24
304.637	5.42
305.008	5.6
305.378	5.84
305.748	5.79
306.117	5.7
306.487	5.77
306.857	5.87
307.227	6.1
307.597	5.89
307.967	5.89
308.336	6.02
308.706	5.89
309.076	5.93
309.445	6.07
309.815	6.09
310.184	5.96
310.554	6.05
310.923	6.14
311.293	6.19
311.662	6.33
312.031	6.18
312.401	6.15
312.77	6.09
313.139	6.09
313.508	6.08
313.877	6.34
314.246	6.36
314.616	6.42
314.985	6.34
315.353	6.49
315.722	6.57
316.091	6.43
316.46	6.5
316.829	6.48
317.198	6.57
317.567	6.8
317.935	6.91
318.304	6.9
318.672	6.95
319.041	6.98
319.41	6.93
319.778	6.92
320.147	6.92
320.515	6.98
320.883	7.08
321.252	7.1
321.62	7.12
321.988	7.21
322.357	7.18
322.725	7.39
323.093	7.45
323.461	7.27
323.829	7.49
324.197	7.7
324.565	7.77
324.933	7.71
325.301	7.46
325.669	7.31
326.037	7.36
326.405	7.48
326.772	7.47
327.14	7.33
327.508	7.37
327.875	7.37
328.243	7.31
328.61	7.32
328.978	7.35
329.346	7.36
329.713	7.43
330.08	7.45
330.448	7.44
330.815	7.37
331.182	7.5
331.55	7.51
331.917	7.34
332.284	7.36
332.651	7.41
333.018	7.62
333.385	7.83
333.752	7.8
334.119	7.85
334.486	7.97
334.853	8.07
335.22	8.1
335.587	8.29
335.954	8.39
336.32	8.36
336.687	8.5
337.054	8.49
337.42	8.46
337.787	8.47
338.153	8.36
338.52	8.43
338.886	8.44
339.253	8.36
339.619	8.45
339.986	8.43
340.352	8.34
340.718	8.28
341.084	8.24
341.451	8.27
341.817	8.25
342.183	8.2
342.549	8.29
342.915	8.4
343.281	8.37
343.647	8.43
344.013	8.47
344.379	8.37
344.745	8.44
345.11	8.36
345.476	8.41
345.842	8.4
346.208	8.43
346.573	8.51
346.939	8.62
347.304	8.68
347.67	8.74
348.035	8.83
348.401	8.94
348.766	8.98
349.132	9.11
349.497	9.06
349.862	9.02
350.228	8.99
350.593	8.93
350.958	9.04
351.323	9.01
351.688	9
352.053	9.09
352.418	9.04
352.783	9.12
353.148	9.11
353.513	9.17
353.878	9.11
354.243	9.11
354.608	9.09
354.972	9.02
355.337	8.94
355.702	8.95
356.066	8.94
356.431	8.92
356.795	8.83
357.16	8.82
357.524	8.85
357.889	8.86
358.253	8.81
358.618	8.72
358.982	8.72
359.346	8.73
359.71	8.69
360.075	8.7
360.439	8.72
360.803	8.85
361.167	8.75
361.531	8.73
361.895	8.71
362.259	8.7
362.623	8.61
362.987	8.57
363.351	8.56
363.714	8.53
364.078	8.51
364.442	8.54
364.806	8.59
365.169	8.49
365.533	8.44
365.896	8.48
366.26	8.42
366.623	8.38
366.987	8.41
367.35	8.41
367.714	8.37
368.077	8.32
368.44	8.15
368.803	8.15
369.167	8.05
369.53	8
369.893	7.94
370.256	7.91
370.619	7.9
370.982	7.79
371.345	7.78
371.708	7.74
372.071	7.6
372.434	7.45
372.797	7.57
373.159	7.55
373.522	7.44
373.885	7.41
374.247	7.34
374.61	7.29
374.973	7.23
375.335	7.26
375.698	7.14
376.06	7.02
376.423	7.04
376.785	7.12
377.147	7.02
377.51	6.96
377.872	6.9
378.234	6.89
378.596	6.92
378.958	6.84
379.321	6.8
379.683	6.83
380.045	6.79
380.407	6.65
380.769	6.58
381.13	6.63
381.492	6.54
381.854	6.58
382.216	6.49
382.578	6.45
382.939	6.39
383.301	6.37
383.663	6.44
384.024	6.39
384.386	6.32
384.747	6.35
385.109	6.29
385.47	6.31
385.832	6.26
386.193	6.16
386.554	6.12
386.916	6.06
387.277	6.01
387.638	5.97
387.999	5.94
388.36	5.92
388.721	5.85
389.082	5.84
389.443	5.76
389.804	5.73
390.165	5.69
390.526	5.67
390.887	5.62
391.248	5.59
391.609	5.55
391.969	5.51
392.33	5.44
392.691	5.44
393.051	5.39
393.412	5.37
393.772	5.36
394.133	5.33
394.493	5.35
394.854	5.3
395.214	5.27
395.574	5.25
395.935	5.19
396.295	5.16
396.655	5.13
397.015	5.1
397.376	5.09
397.736	5.05
398.096	4.94
398.456	4.92
398.816	4.85
399.176	4.77
399.535	4.79
399.895	4.76
400.255	4.75
400.615	4.73
400.975	4.71
401.334	4.7
401.694	4.66
402.054	4.61
402.413	4.6
402.773	4.59
403.132	4.53
403.492	4.52
403.851	4.52
404.211	4.52
404.57	4.51
404.929	4.46
405.288	4.45
405.648	4.47
406.007	4.43
406.366	4.46
406.725	4.46
407.084	4.44
407.443	4.46
407.802	4.41
408.161	4.37
408.52	4.36
408.879	4.33
409.238	4.36
409.596	4.37
409.955	4.33
410.314	4.34
410.673	4.33
411.031	4.32
411.39	4.29
411.748	4.27
412.107	4.22
412.465	4.2
412.824	4.21
413.182	4.18
413.54	4.21
413.899	4.18
414.257	4.18
414.615	4.14
414.974	4.13
415.332	4.14
415.69	4.1
416.048	4.09
416.406	4.09
416.764	4.05
417.122	4.04
417.48	4.03
417.838	3.99
418.195	3.98
418.553	3.97
418.911	3.95
419.269	3.94
419.626	3.93
419.984	3.93
420.342	3.9
420.699	3.9
421.057	3.88
421.414	3.85
421.772	3.83
422.129	3.8
422.486	3.77
422.844	3.75
423.201	3.77
423.558	3.76
423.915	3.75
424.273	3.75
424.63	3.73
424.987	3.74
425.344	3.74
425.701	3.75
426.058	3.75
426.415	3.73
426.772	3.73
427.128	3.74
427.485	3.72
427.842	3.71
428.199	3.72
428.555	3.71
428.912	3.72
429.269	3.72
429.625	3.72
429.982	3.73
430.338	3.71
430.695	3.7
431.051	3.68
431.407	3.67
431.764	3.65
432.12	3.65
432.476	3.63
432.832	3.66
433.189	3.65
433.545	3.64
433.901	3.65
434.257	3.65
434.613	3.63
434.969	3.64
435.325	3.63
435.681	3.6
436.036	3.61
436.392	3.59
436.748	3.59
437.104	3.61
437.459	3.61
437.815	3.61
438.171	3.61
438.526	3.62
438.882	3.62
439.237	3.6
439.593	3.59
439.948	3.62
440.304	3.58
440.659	3.59
441.014	3.57
441.369	3.57
441.725	3.57
442.08	3.58
442.435	3.59
442.79	3.6
443.145	3.61
443.5	3.62
443.855	3.64
444.21	3.65
444.565	3.64
444.92	3.62
445.275	3.62
445.629	3.61
445.984	3.61
446.339	3.61
446.693	3.64
447.048	3.63
447.403	3.61
447.757	3.61
448.112	3.59
448.466	3.58
448.82	3.58
449.175	3.56
449.529	3.56
449.883	3.55
450.238	3.54
450.592	3.53
450.946	3.5
451.3	3.48
451.654	3.44
452.008	3.44
452.362	3.45
452.716	3.44
453.07	3.41
453.424	3.38
453.778	3.36
454.132	3.32
454.486	3.32
454.839	3.31
455.193	3.32
455.547	3.34
455.9	3.35
456.254	3.33
456.607	3.35
456.961	3.34
457.314	3.31
457.668	3.31
458.021	3.31
458.375	3.32
458.728	3.3
459.081	3.32
459.434	3.31
459.787	3.32
460.141	3.36
460.494	3.39
460.847	3.41
461.2	3.43
461.553	3.45
461.906	3.47
462.259	3.44
462.611	3.45
462.964	3.45
463.317	3.44
463.67	3.49
464.022	3.49
464.375	3.52
464.728	3.54
465.08	3.55
465.433	3.56
465.785	3.59
466.138	3.63
466.49	3.65
466.843	3.69
467.195	3.7
467.547	3.7
467.899	3.7
468.252	3.72
468.604	3.72
468.956	3.73
469.308	3.71
469.66	3.77
470.012	3.79
470.364	3.81
470.716	3.84
471.068	3.84
471.42	3.83
471.772	3.83
472.123	3.83
472.475	3.87
472.827	3.89
473.178	3.86
473.53	3.88
473.882	3.88
474.233	3.88
474.585	3.89
474.936	3.88
475.288	3.9
475.639	3.89
475.99	3.88
476.342	3.88
476.693	3.89
477.044	3.88
477.395	3.83
477.746	3.82
478.097	3.8
478.448	3.79
478.8	3.78
479.15	3.79
479.501	3.79
479.852	3.76
480.203	3.75
480.554	3.77
480.905	3.75
481.255	3.75
481.606	3.74
481.957	3.74
482.307	3.73
482.658	3.72
483.009	3.72
483.359	3.72
483.709	3.72
484.06	3.72
484.41	3.71
484.761	3.72
485.111	3.73
485.461	3.73
485.811	3.74
486.162	3.74
486.512	3.73
486.862	3.73
487.212	3.74
487.562	3.74
487.912	3.72
488.262	3.72
488.612	3.71
488.961	3.71
489.311	3.71
489.661	3.71
490.011	3.69
490.36	3.68
490.71	3.68
491.06	3.68
491.409	3.69
491.759	3.7
492.108	3.7
492.458	3.7
492.807	3.7
493.157	3.69
493.506	3.69
493.855	3.71
494.204	3.73
494.554	3.75
494.903	3.77
495.252	3.83
495.601	3.85
495.95	3.89
496.299	3.93
496.648	3.97
496.997	4.02
497.346	4.08
497.695	4.15
498.043	4.2
498.392	4.24
498.741	4.28
499.09	4.33
499.438	4.38
499.787	4.44
500.135	4.5
500.484	4.55
500.832	4.65
501.181	4.73
501.529	4.8
501.878	4.86
502.226	4.92
502.574	4.98
502.923	5.09
503.271	5.18
503.619	5.26
503.967	5.38
504.315	5.49
504.663	5.61
505.011	5.74
505.359	5.86
505.707	5.95
506.055	6.07
506.403	6.2
506.751	6.35
507.098	6.5
507.446	6.63
507.794	6.78
508.141	6.92
508.489	7.07
508.837	7.22
509.184	7.38
509.531	7.53
509.879	7.67
510.226	7.8
510.574	7.96
510.921	8.11
511.268	8.27
511.616	8.45
511.963	8.61
512.31	8.77
512.657	8.94
513.004	9.14
513.351	9.34
513.698	9.51
514.045	9.71
514.392	9.94
514.739	10.17
515.086	10.38
515.432	10.58
515.779	10.78
516.126	11.01
516.473	11.22
516.819	11.41
517.166	11.58
517.512	11.77
517.859	11.96
518.205	12.14
518.552	12.32
518.898	12.48
519.245	12.65
519.591	12.85
519.937	13.04
520.283	13.24
520.629	13.45
520.976	13.69
521.322	13.88
521.668	14.07
522.014	14.26
522.36	14.46
522.706	14.7
523.052	14.93
523.398	15.14
523.743	15.39
524.089	15.69
524.435	15.96
524.781	16.21
525.126	16.41
525.472	16.63
525.817	16.82
526.163	16.98
526.509	17.13
526.854	17.28
527.199	17.42
527.545	17.57
527.89	17.71
528.235	17.86
528.581	18.03
528.926	18.2
529.271	18.38
529.616	18.57
529.961	18.72
530.306	18.9
530.651	19.08
530.996	19.27
531.341	19.44
531.686	19.64
532.031	19.82
532.376	20.02
532.721	20.22
533.065	20.44
533.41	20.68
533.755	20.92
534.099	21.16
534.444	21.39
534.788	21.61
535.133	21.83
535.477	22.09
535.822	22.32
536.166	22.59
536.51	22.84
536.855	23.09
537.199	23.41
537.543	23.7
537.887	24.02
538.231	24.31
538.576	24.63
538.92	24.91
539.264	25.19
539.608	25.46
539.951	25.71
540.295	25.95
540.639	26.19
540.983	26.41
541.327	26.65
541.671	26.87
542.014	27.09
542.358	27.3
542.701	27.44
543.045	27.64
543.389	27.82
543.732	28.03
544.075	28.26
544.419	28.44
544.762	28.65
545.105	28.86
545.449	29.08
545.792	29.31
546.135	29.57
546.478	29.82
546.821	30.1
547.165	30.36
547.508	30.66
547.851	30.93
548.194	31.21
548.536	31.47
548.879	31.75
549.222	31.97
549.565	32.22
549.908	32.53
550.25	32.77
550.593	33
550.936	33.24
551.278	33.43
551.621	33.69
551.963	33.95
552.306	34.13
552.648	34.32
552.991	34.56
553.333	34.77
553.675	34.97
554.017	35.18
554.36	35.37
554.702	35.55
555.044	35.69
555.386	35.83
555.728	36
556.07	36.18
556.412	36.41
556.754	36.61
557.096	36.81
557.438	37.03
557.78	37.22
558.121	37.33
558.463	37.58
558.805	37.72
559.147	37.91
559.488	38.08
559.83	38.27
560.171	38.37
560.513	38.54
560.854	38.69
561.196	38.89
561.537	39.06
561.878	39.21
562.22	39.38
562.561	39.61
562.902	39.74
563.243	39.86
563.584	40.01
563.925	40.19
564.266	40.28
564.607	40.41
564.948	40.6
565.289	40.82
565.63	40.87
565.971	41.07
566.312	41.19
566.653	41.34
566.993	41.51
567.334	41.62
567.675	41.75
568.015	41.84
568.356	41.98
568.696	42.1
569.037	42.19
569.377	42.3
569.718	42.37
570.058	42.5
570.398	42.68
570.739	42.73
571.079	42.8
571.419	42.96
571.759	43.04
572.099	43.12
572.439	43.17
572.779	43.31
573.119	43.36
573.459	43.45
573.799	43.5
574.139	43.54
574.479	43.71
574.819	43.78
575.158	43.85
575.498	43.85
575.838	43.94
576.177	43.99
576.517	44.04
576.856	44.1
577.196	44.14
577.535	44.19
577.875	44.32
578.214	44.39
578.553	44.42
578.893	44.55
579.232	44.63
579.571	44.74
579.91	44.84
580.25	44.99
580.589	45.03
580.928	45.18
581.267	45.25
581.606	45.21
581.945	45.25
582.283	45.39
582.622	45.49
582.961	45.52
583.3	45.67
583.639	45.76
583.977	45.82
584.316	45.95
584.654	45.98
584.993	46.09
585.332	46.21
585.67	46.3
586.008	46.34
586.347	46.45
586.685	46.52
587.024	46.58
587.362	46.62
587.7	46.67
588.038	46.68
588.376	46.74
588.715	46.86
589.053	47.07
589.391	47.12
589.729	47.2
590.067	47.3
590.404	47.3
590.742	47.33
591.08	47.41
591.418	47.47
591.756	47.57
592.093	47.51
592.431	47.56
592.769	47.53
593.106	47.6
593.444	47.7
593.781	47.75
594.119	47.79
594.456	47.79
594.793	47.82
595.131	47.94
595.468	48.01
595.805	48.02
596.143	47.98
596.48	48.06
596.817	48.09
597.154	48.15
597.491	48.26
597.828	48.29
598.165	48.3
598.502	48.3
598.839	48.34
599.176	48.44
599.512	48.5
599.849	48.67
600.186	48.7
600.523	48.64
600.859	48.73
601.196	48.69
601.532	48.76
601.869	48.85
602.205	48.79
602.542	48.82
602.878	48.93
603.215	49.09
603.551	49.04
603.887	49.15
604.223	49.1
604.56	49.08
604.896	49.18
605.232	49.29
605.568	49.33
605.904	49.37
606.24	49.41
606.576	49.39
606.912	49.36
607.248	49.44
607.583	49.52
607.919	49.46
608.255	49.58
608.591	49.62
608.926	49.64
609.262	49.73
609.597	49.7
609.933	49.63
610.268	49.51
610.604	49.6
610.939	49.54
611.275	49.6
611.61	49.68
611.945	49.73
612.281	49.75
612.616	49.75
612.951	49.78
613.286	49.79
613.621	49.79
613.956	49.85
614.291	49.83
614.626	49.82
614.961	49.86
615.296	49.96
615.631	50.05
615.966	50.1
616.3	50.13
616.635	50.18
616.97	50.29
617.304	50.36
617.639	50.39
617.973	50.44
618.308	50.52
618.642	50.48
618.977	50.46
619.311	50.48
619.646	50.53
619.98	50.61
620.314	50.69
620.648	50.66
620.983	50.7
621.317	50.74
621.651	50.66
621.985	50.66
622.319	50.53
622.653	50.48
622.987	50.45
623.321	50.5
623.655	50.6
623.988	50.63
624.322	50.64
624.656	50.65
624.99	50.68
625.323	50.72
625.657	50.68
625.99	50.69
626.324	50.7
626.657	50.66
626.991	50.56
627.324	50.53
627.658	50.61
627.991	50.63
628.324	50.64
628.657	50.75
628.991	50.72
629.324	50.83
629.657	50.91
629.99	51.03
630.323	51.04
630.656	51
630.989	50.97
631.322	50.98
631.655	50.92
631.987	50.86
632.32	50.86
632.653	50.95
632.986	50.94
633.318	50.89
633.651	50.93
633.984	50.92
634.316	50.91
634.649	50.95
634.981	51.01
635.313	51.07
635.646	50.99
635.978	51.18
636.31	51.17
636.643	51.14
636.975	51.1
637.307	51.08
637.639	51.21
637.971	51.21
638.303	51.21
638.635	51.23
638.967	51.32
639.299	51.25
639.631	51.22
639.963	51.29
640.295	51.34
640.626	51.46
640.958	51.52
641.29	51.56
641.621	51.53
641.953	51.44
642.285	51.47
642.616	51.54
642.948	51.51
643.279	51.58
643.61	51.64
643.942	51.64
644.273	51.66
644.604	51.53
644.936	51.49
645.267	51.36
645.598	51.42
645.929	51.44
646.26	51.51
646.591	51.58
646.922	51.58
647.253	51.6
647.584	51.6
647.915	51.64
648.245	51.65
648.576	51.75
648.907	51.78
649.238	51.7
649.568	51.79
649.899	51.68
650.229	51.59
650.56	51.61
650.89	51.67
651.221	51.85
651.551	51.9
651.882	52.04
652.212	52.23
652.542	52.34
652.872	52.35
653.203	52.26
653.533	52.27
653.863	52.33
654.193	52.31
654.523	52.24
654.853	52.25
655.183	52.42
655.513	52.39
655.843	52.45
656.172	52.61
656.502	52.61
656.832	52.66
657.162	52.63
657.491	52.59
657.821	52.51
658.15	52.31
658.48	52.35
658.809	52.33
659.139	52.44
659.468	52.31
659.798	52.45
660.127	52.59
660.456	52.59
660.785	52.54
661.115	52.52
661.444	52.46
661.773	52.53
662.102	52.37
662.431	52.32
662.76	52.25
663.089	52.27
663.418	52.28
663.747	52.18
664.076	52.26
664.404	52.26
664.733	52.27
665.062	52.31
665.39	52.31
665.719	52.31
666.048	52.14
666.376	52.17
666.705	52.01
667.033	51.96
667.362	51.84
667.69	51.85
668.018	51.73
668.347	51.72
668.675	51.7
669.003	51.71
669.331	51.86
669.659	51.89
669.987	51.87
670.315	51.86
670.643	52.02
670.971	52.11
671.299	52.1
671.627	52.12
671.955	52.15
672.283	52.15
672.61	52.17
672.938	52.12
673.266	52.14
673.593	52.17
673.921	52.18
674.249	52.25
674.576	52.25
674.904	52.55
675.231	52.83
675.558	52.78
675.886	52.88
676.213	52.85
676.54	52.81
676.867	52.81
677.195	52.77
677.522	52.78
677.849	52.65
678.176	52.65
678.503	52.82
678.83	52.8
679.157	52.8
679.484	52.84
679.81	52.94
680.137	52.99
680.464	53.03
680.791	53.06
681.117	53.11
681.444	53.2
681.771	53.11
682.097	53
682.424	53.01
682.75	53.1
683.077	53.1
683.403	53.24
683.729	53.11
684.056	53.05
684.382	53.16
684.708	53.1
685.034	53.17
685.36	53
685.686	53.09
686.012	53.09
686.339	52.97
686.664	53.01
686.99	53
687.316	52.94
687.642	52.91
687.968	53
688.294	52.85
688.619	52.94
688.945	52.78
689.271	52.89
689.596	52.89
689.922	52.74
690.247	52.61
690.573	52.59
690.898	52.64
691.224	52.58
691.549	52.69
691.874	52.68
692.2	52.59
692.525	52.69
692.85	52.71
693.175	52.84
693.5	52.79
693.825	52.89
694.15	52.9
694.475	52.87
694.8	52.82
695.125	52.91
695.45	52.9
695.775	53.25
696.099	53.3
696.424	53.28
696.749	53.62
697.073	53.78
697.398	53.87
697.723	54.08
698.047	54.14
698.372	54.11
698.696	54.18
699.02	54.32
699.345	54.31
699.669	54.4
699.993	54.43
700.318	54.53
700.642	54.57
700.966	54.53
701.29	54.59
701.614	54.65
701.938	54.85
702.262	54.92
702.586	54.95
702.91	54.96
703.234	54.95
703.557	54.61
703.881	54.56
704.205	54.55
704.529	54.37
704.852	54.2
705.176	54.26
705.499	53.89
705.823	53.67
706.146	53.58
706.47	53.41
706.793	53.33
707.117	53.1
707.44	53.2
707.763	53.31
708.086	53.18
708.409	53.06
708.733	52.88
709.056	52.82
709.379	52.55
709.702	52.61
710.025	52.57
710.348	52.68
710.671	52.72
710.993	52.68
711.316	52.65
711.639	52.77
711.962	53.05
712.284	53.16
712.607	53.37
712.93	53.54
713.252	53.4
713.575	53.57
713.897	53.76
714.22	53.57
714.542	53.48
714.864	53.57
715.187	53.69
715.509	53.61
715.831	53.74
716.153	53.99
716.475	53.71
716.798	53.81
717.12	53.89
717.442	53.64
717.764	53.68
718.085	53.63
718.407	53.57
718.729	53.21
719.051	53.34
719.373	53.29
719.695	53.19
720.016	53.33
720.338	53.35
720.659	53.19
720.981	53.09
721.302	53.4
721.624	53.28
721.945	53.21
722.267	53.13
722.588	52.87
722.909	52.62
723.231	52.75
723.552	52.6
723.873	52.54
724.194	52.76
724.515	52.84
724.836	52.84
725.157	52.87
725.478	53.13
725.799	53.31
726.12	53.33
726.441	53.24
726.762	53.48
727.083	53.53
727.403	53.77
727.724	53.95
728.045	53.77
728.365	53.79
728.686	53.78
729.006	53.67
729.327	53.72
729.647	53.52
729.967	53.31
730.288	53.58
730.608	53.59
730.928	53.55
731.249	53.37
731.569	53.34
731.889	53.36
732.209	53.06
732.529	52.98
732.849	53.03
733.169	53.17
733.489	53.01
733.809	52.72
734.129	52.48
734.448	52.25
734.768	52.42
735.088	52.64
735.408	52.52
735.727	52.84
736.047	52.78
736.366	53.25
736.686	53.59
737.005	53.53
737.325	53.61
737.644	53.74
737.963	53.92
738.283	53.89
738.602	53.98
738.921	54.64
739.24	54.66
739.56	54.53
739.879	54.48
740.198	54.39
740.517	54.7
740.836	54.76
741.155	54.75
741.473	54.7
741.792	54.62
742.111	54.68
742.43	54.77
742.748	54.83
743.067	54.73
743.386	54.52
743.704	54.48
744.023	54.52
744.341	54.32
744.66	54.09
744.978	54.37
745.297	53.96
745.615	53.73
745.933	53.64
746.252	53.78
746.57	53.77
746.888	54.23
747.206	53.9
747.524	54
747.842	54.26
748.16	54.32
748.478	54.38
748.796	54.52
749.114	54.18
749.432	54.59
749.749	54.5
750.067	54.55
750.385	54.22
750.703	54.22
751.02	54.2
751.338	54.4
751.655	54.24
751.973	54.78
752.29	54.49
752.608	54.7
752.925	54.83
753.242	54.87
753.56	54.58
753.877	54.64
754.194	54.77
754.511	54.88
754.828	54.51
755.145	54.3
755.462	54.41
755.779	54.56
756.096	54.25
756.413	53.97
756.73	53.72
757.047	54.06
757.364	53.97
757.68	54.25
757.997	54.17
758.314	54.36
758.63	54.23
758.947	54.18
759.264	54.13
759.58	54.05
759.896	53.76
760.213	54.13
760.529	54.54
760.846	54.42
761.162	54.28
761.478	54.25
761.794	54.42
762.11	54.11
762.426	54.11
762.743	53.98
763.059	54.04
763.375	54.64
763.69	54.69
764.006	55.03
764.322	54.85
764.638	54.59
764.954	54.63
765.27	54.14
765.585	54.49
765.901	54.47
766.216	54.42
766.532	54.63
766.848	54.15
767.163	53.89
767.478	54.01
767.794	53.96
768.109	54.07
768.424	54.23
768.74	54.52
769.055	54.77
769.37	55.16
769.685	55.43
770	54.7
770.315	54.46
770.63	53.75
770.945	53.81
771.26	54.2
771.575	54.11
771.89	54.75
772.205	54.01
772.52	53.96
772.834	54.23
773.149	54.45
773.464	54.84
773.778	54.74
774.093	54.46
774.407	54.86
774.722	54.84
775.036	54.54
775.351	54.42
775.665	54.43
775.979	54.44
776.293	54.68
776.608	54.79
776.922	54.96
777.236	55.01
777.55	54.81
777.864	55.33
778.178	55.72
778.492	55.87
778.806	56.27
779.12	56.05
779.434	55.72
779.747	55.42
780.061	55.2
780.375	54.79
780.689	55.15
781.002	54.66
781.316	54.59
781.629	54.76
781.943	55.13
782.256	54.85
782.57	54.63
782.883	53.86
783.196	54.88
783.51	54.4
783.823	54.46
784.136	54.84
784.449	54.23
784.762	54.24
785.075	53.72
785.388	53.99
785.701	54.14
786.014	54.2
786.327	53.98
786.64	54.17
786.953	55.17
787.266	55.1
787.578	55.59
787.891	55.41
788.204	55.26
788.516	55.25
788.829	55.54
789.141	55.8
789.454	56.17
789.766	55.01
790.079	55.2
790.391	55.09
790.703	54.9
791.016	55.63
791.328	55.48
791.64	55.58
791.952	55.68
792.264	55.44
792.576	55.16
792.888	55.59
793.2	55.15
793.512	54.71
793.824	54.69
794.136	54.7
794.448	55.25
794.76	55.46
795.071	55.3
795.383	55.35
795.695	54.71
796.006	54.97
796.318	55.25
796.629	55.07
796.941	55.45
797.252	55.63
797.564	54.88
797.875	54.34
798.186	54.55
798.497	54.62
798.809	54.48
799.12	54.97
799.431	54.9
799.742	55.02
800.053	54.72
800.364	55.18
800.675	55.01
800.986	54.96
801.297	55.19
801.608	54.94
801.918	54.78
802.229	55.36
802.54	55.35
802.851	55.23
803.161	55.77
803.472	55.47
803.782	56.42
804.093	56.13
804.403	56.85
804.714	57.11
805.024	55.85
805.334	56.52
805.645	56.9
805.955	56.95
806.265	57.58
806.575	58.07
806.885	57.47
807.195	57.49
807.505	57.71
807.815	57.64
808.125	58.04
808.435	57.98
808.745	57.62
809.055	57.23
809.365	57.92
809.674	57.68
809.984	58.04
810.294	57.45
810.603	58.64
810.913	58.27
811.222	58.43
811.532	59.44
811.841	59.5
812.151	58.99
812.46	59.19
812.769	58.46
813.079	58.41
813.388	58
813.697	57.7
814.006	57.62
814.315	56.86
814.624	56.17
814.933	55.7
815.242	56.65
815.551	56.77
815.86	56.43
816.169	56.89
816.478	57.7
816.786	56.63
817.095	56.38
817.404	56.05
817.712	56.49
818.021	56.51
818.33	56.6
818.638	56.13
818.947	56.01
819.255	56.05
819.563	55.89
819.872	56.08
820.18	55.95
820.488	56.32
820.796	56.52
821.105	56.62
821.413	56.92
821.721	56.8
822.029	56.8
822.337	56.46
822.645	56.56
822.953	56.33
823.26	56.58
823.568	56.45
823.876	56.4
824.184	56.37
824.491	56.55
824.799	56.39
825.107	56.55
825.414	56.51
825.722	56.73
826.029	56.87
826.337	56.99
826.644	57.3
826.951	56.96
827.259	56.98
827.566	56.84
827.873	56.76
828.18	56.68
828.488	56.9
828.795	57.47
829.102	57.24
829.409	57.15
829.716	57.18
830.023	57.24
830.329	57.96
830.636	57.89
830.943	57.75
831.25	57.81
831.557	57.58
831.863	57.82
832.17	57.35
832.476	57.5
832.783	57.51
833.089	57.06
833.396	57.62
833.702	57.49
834.009	58.49
834.315	59.08
834.621	58.68
834.928	58.11
835.234	57.8
835.54	57.31
835.846	57.19
836.152	56.85
836.458	57.13
836.764	56.43
837.07	56.5
837.376	55.83
837.682	55.5
837.988	55.58
838.293	55.19
838.599	55.73
838.905	55.15
839.211	54.98
839.516	55.2
839.822	55.49
840.127	55.7
840.433	55.21
840.738	53.65
841.044	54.28
841.349	55.23
841.654	56.05
841.959	57.22
842.265	58.72
842.57	59.51
842.875	59.62
843.18	61.33
843.485	59.96
843.79	60.6
844.095	62.55
844.4	62.74
844.705	64.1
845.01	62.76
845.315	62.35
845.619	60.76
845.924	59.38
846.229	57.09
846.533	55.43
846.838	53.2
847.142	52.72
847.447	52.29
847.751	51.13
848.056	50
848.36	48.4
848.664	45.67
848.969	45.24
849.273	46
849.577	42.62
849.881	44.09
850.185	44.98
850.489	44.51
850.794	45.48
851.097	44.57
851.401	45.88
851.705	45.25
852.009	45.34
852.313	47.29
852.617	48.87
852.92	49.7
853.224	50.16
853.528	51.3
853.831	52.89
854.135	53.4
854.438	51.88
854.742	53.34
855.045	54.48
855.349	54.55
855.652	54.28
855.955	56.29
856.259	54.89
856.562	53.76
856.865	53.59
857.168	55.55
857.471	54.07
857.774	55.24
858.077	56.65
858.38	57.75
858.683	57.24
858.986	57.67
859.289	57.07
859.592	59.64
859.894	57.99
860.197	57.4
860.5	57.05
860.802	58.8
861.105	61.71
861.407	62.69
861.71	62.53
862.012	59.51
862.315	59.37
862.617	59.64
862.919	58.63
863.222	57.75
863.524	54.32
863.826	53.52
864.128	53.95
864.43	54.15
864.732	55.9
865.034	57.14
865.336	56.12
865.638	59.68
865.94	55.58
866.242	57.3
866.544	54.47
866.846	55.79
867.147	56.08
867.449	54.51
867.751	53.81
868.052	54.18
868.354	54.95
868.655	54.69
868.957	56.76
869.258	58.57
869.56	59.8
869.861	60.32
870.162	63.85
870.463	61.51
870.765	62.39
871.066	60.76
871.367	59.59
871.668	58.22
871.969	56.31
872.27	60.03
872.571	62.39
872.872	62.06
873.173	61.55
873.473	62.01
873.774	60.73
874.075	61.13
874.376	60.27
874.676	61.01
874.977	62.98
875.277	61.2
875.578	62.12
875.878	61.21
876.179	61.32
876.479	59.75
876.78	59.7
877.08	58.79
877.38	59.95
877.68	60.33
877.981	62.74
878.281	65.38
878.581	63.21
