Data from MVZ_BU26842_Reflection_00003.txt Node
Date: Tue Nov 19 12:18:16 EST 2019
User: vgr7
Spectrometer: USB2G7710
Scans to average: 3
Trigger mode: 4
Integration Time (sec): 2.000000E-2
Electric dark correction enabled: true
Boxcar width: 10
XAxis mode: Wavelengths
Number of Pixels in Spectrum: 2048
>>>>>Begin Spectral Data<<<<<
177.721	276.47
178.105	1100
178.488	-1650
178.871	-244.44
179.254	-1500
179.636	-6900
180.019	600
180.402	272.73
180.785	166.67
181.168	-246.15
181.55	-66.67
181.933	-37.68
182.316	-12.78
182.698	-16.28
183.081	-3.26
183.463	-110.53
183.846	82.76
184.228	52.38
184.611	15.18
184.993	52.78
185.376	51.68
185.758	34.78
186.14	46.43
186.522	7.28
186.904	29.17
187.287	-11.41
187.669	-25
188.051	-55.25
188.433	-106.19
188.815	-93.88
189.197	-89.52
189.579	-106.73
189.961	-87.75
190.342	-79.58
190.724	-97.48
191.106	-88.8
191.488	-140.85
191.869	-343.04
192.251	-289.61
192.633	-188.04
193.014	-344.44
193.396	-516.28
193.777	-270.69
194.159	-105.88
194.54	-78.32
194.922	-106.42
195.303	-100
195.684	-96.97
196.065	-11.11
196.447	20.17
196.828	-8.21
197.209	-42.34
197.59	1.79
197.971	11.29
198.352	2.93
198.733	13.62
199.114	8.56
199.495	19.46
199.876	34.55
200.257	32.07
200.638	24.08
201.018	11.46
201.399	10.94
201.78	-2.86
202.16	2.86
202.541	5.52
202.922	15.25
203.302	-5.11
203.683	-11.25
204.063	-8.7
204.444	-3.58
204.824	-3.9
205.204	18.26
205.585	10.03
205.965	-1.91
206.345	14.89
206.725	-4.9
207.106	3.69
207.486	2.94
207.866	-23.82
208.246	-12.14
208.626	-24.65
209.006	-19.94
209.386	-17.94
209.766	-20
210.145	-23.48
210.525	-33.87
210.905	-21.41
211.285	-7.99
211.664	4.48
212.044	-6.74
212.424	3.01
212.803	-3.17
213.183	-21.82
213.562	-7.69
213.942	-7.44
214.321	3.29
214.701	13.5
215.08	21.87
215.459	32.38
215.838	50.59
216.218	50.82
216.597	43.63
216.976	61.54
217.355	42.93
217.734	93.71
218.113	93.79
218.492	74.43
218.871	19.57
219.25	21.17
219.629	-8.7
220.008	10.26
220.387	7.14
220.766	6.14
221.144	5.86
221.523	-37.86
221.902	-12.78
222.28	-40.32
222.659	-20.74
223.037	-26.64
223.416	-34.29
223.794	-23.81
224.173	-28.31
224.551	-29.13
224.929	-33.78
225.308	-25.8
225.686	-27.92
226.064	-26.45
226.442	-20
226.821	-14.13
227.199	-13.82
227.577	-11.06
227.955	-7.62
228.333	-11.91
228.711	-12.44
229.089	-15.71
229.467	-9.7
229.845	-13.4
230.222	-8.11
230.6	-9.91
230.978	-8.7
231.356	-10.74
231.733	-12.89
232.111	-11.86
232.488	-8.87
232.866	-6.4
233.243	-4.26
233.621	-3.39
233.998	-4.85
234.376	-4.35
234.753	-5.71
235.13	-4.16
235.508	-2.59
235.885	-3.41
236.262	-1.52
236.639	-0.34
237.016	2.21
237.393	2.42
237.77	3.88
238.147	2.55
238.524	2.79
238.901	1.64
239.278	2.39
239.655	2.46
240.032	2.93
240.409	3.15
240.785	2.19
241.162	2.24
241.539	2.17
241.915	2.3
242.292	2.4
242.668	2.75
243.045	2.91
243.421	3.04
243.798	3.22
244.174	3.11
244.551	3.03
244.927	2.95
245.303	2.8
245.679	2.77
246.056	2.9
246.432	3.03
246.808	3.35
247.184	3.41
247.56	3.53
247.936	3.79
248.312	3.48
248.688	3.72
249.064	3.68
249.44	3.65
249.815	3.73
250.191	3.76
250.567	3.89
250.943	3.79
251.318	3.67
251.694	3.27
252.069	3.36
252.445	3.33
252.82	3.41
253.196	3.5
253.571	3.31
253.947	3.36
254.322	2.95
254.697	2.57
255.073	2.55
255.448	2.32
255.823	1.94
256.198	2.19
256.573	2.28
256.948	2.28
257.323	2.25
257.698	2.51
258.073	2.4
258.448	2.32
258.823	2.25
259.198	2.19
259.573	2.26
259.948	2.24
260.322	2.15
260.697	2.33
261.072	2.38
261.446	2.53
261.821	2.5
262.195	2.53
262.57	2.67
262.944	2.49
263.319	2.56
263.693	2.51
264.067	2.42
264.442	2.51
264.816	2.49
265.19	2.46
265.564	2.11
265.938	2.25
266.313	2.23
266.687	2.21
267.061	2.27
267.435	2.55
267.809	2.36
268.183	2.49
268.556	2.51
268.93	2.55
269.304	2.49
269.678	2.56
270.051	2.63
270.425	2.48
270.799	2.59
271.172	2.6
271.546	2.88
271.919	2.91
272.293	2.86
272.666	2.87
273.04	2.97
273.413	3.16
273.787	2.96
274.16	2.83
274.533	3.03
274.906	3.12
275.279	3.05
275.653	3.13
276.026	3.23
276.399	2.93
276.772	2.88
277.145	2.8
277.518	2.8
277.891	2.87
278.263	3.03
278.636	3.19
279.009	3.26
279.382	2.96
279.755	2.96
280.127	2.94
280.5	3.01
280.872	3
281.245	3.11
281.617	3.12
281.99	3.33
282.362	3.09
282.735	3.07
283.107	3.07
283.479	3.18
283.852	3.19
284.224	3.33
284.596	3.35
284.968	3.33
285.34	3.29
285.713	3.28
286.085	3.19
286.457	3.12
286.829	3.02
287.201	3
287.572	3.03
287.944	3.08
288.316	3.01
288.688	3.16
289.06	3.04
289.431	3.27
289.803	3.27
290.175	3.43
290.546	3.5
290.918	3.44
291.289	3.37
291.661	3.37
292.032	3.44
292.403	3.58
292.775	3.62
293.146	3.68
293.517	3.71
293.889	3.83
294.26	3.89
294.631	4.03
295.002	4.23
295.373	4.16
295.744	4.12
296.115	4.15
296.486	4.17
296.857	4.27
297.228	4.04
297.599	4.06
297.97	4.09
298.34	4
298.711	4.13
299.082	4.21
299.452	4.14
299.823	4.23
300.194	4.3
300.564	4.33
300.935	4.37
301.305	4.3
301.676	4.35
302.046	4.27
302.416	4.36
302.787	4.29
303.157	4.4
303.527	4.38
303.897	4.41
304.267	4.27
304.637	4.18
305.008	4.23
305.378	4.04
305.748	4.01
306.117	4.02
306.487	3.85
306.857	3.85
307.227	4.06
307.597	3.77
307.967	3.55
308.336	3.58
308.706	3.6
309.076	3.74
309.445	3.69
309.815	3.72
310.184	3.68
310.554	3.76
310.923	3.58
311.293	3.59
311.662	3.56
312.031	3.58
312.401	3.52
312.77	3.61
313.139	3.76
313.508	3.69
313.877	3.6
314.246	3.66
314.616	3.77
314.985	3.71
315.353	3.86
315.722	3.98
316.091	4.01
316.46	4.01
316.829	3.97
317.198	4.03
317.567	4.1
317.935	4.04
318.304	4.19
318.672	4.44
319.041	4.65
319.41	4.64
319.778	4.73
320.147	4.92
320.515	4.93
320.883	4.8
321.252	4.74
321.62	4.76
321.988	4.92
322.357	4.76
322.725	4.77
323.093	4.67
323.461	4.56
323.829	4.49
324.197	4.38
324.565	4.28
324.933	4.22
325.301	4.07
325.669	4.02
326.037	3.87
326.405	3.8
326.772	3.64
327.14	3.54
327.508	3.37
327.875	3.27
328.243	3.1
328.61	3.05
328.978	3.08
329.346	3.1
329.713	3.14
330.08	3.22
330.448	3.09
330.815	3.14
331.182	3.02
331.55	3.04
331.917	3.12
332.284	3.14
332.651	2.99
333.018	3
333.385	2.97
333.752	3.02
334.119	3.1
334.486	3.08
334.853	3.22
335.22	3.18
335.587	2.99
335.954	3.07
336.32	3.05
336.687	3.04
337.054	3.19
337.42	3.09
337.787	3
338.153	3.04
338.52	2.93
338.886	3.07
339.253	3.05
339.619	2.96
339.986	2.91
340.352	2.95
340.718	3.06
341.084	3.14
341.451	3.02
341.817	2.91
342.183	2.85
342.549	2.84
342.915	2.93
343.281	3.13
343.647	3.24
344.013	3.45
344.379	3.42
344.745	3.31
345.11	3.29
345.476	3.33
345.842	3.25
346.208	3.36
346.573	3.28
346.939	3.27
347.304	3.34
347.67	3.36
348.035	3.43
348.401	3.36
348.766	3.29
349.132	3.39
349.497	3.41
349.862	3.47
350.228	3.43
350.593	3.47
350.958	3.44
351.323	3.34
351.688	3.26
352.053	3.36
352.418	3.22
352.783	3.14
353.148	3.15
353.513	3.25
353.878	3.26
354.243	3.25
354.608	3.29
354.972	3.3
355.337	3.41
355.702	3.29
356.066	3.35
356.431	3.33
356.795	3.27
357.16	3.34
357.524	3.36
357.889	3.37
358.253	3.41
358.618	3.42
358.982	3.48
359.346	3.57
359.71	3.57
360.075	3.67
360.439	3.7
360.803	3.67
361.167	3.62
361.531	3.6
361.895	3.6
362.259	3.65
362.623	3.71
362.987	3.65
363.351	3.75
363.714	3.74
364.078	3.75
364.442	3.76
364.806	3.72
365.169	3.72
365.533	3.75
365.896	3.71
366.26	3.7
366.623	3.7
366.987	3.62
367.35	3.66
367.714	3.66
368.077	3.75
368.44	3.83
368.803	3.83
369.167	3.82
369.53	3.95
369.893	3.87
370.256	3.77
370.619	3.81
370.982	3.72
371.345	3.7
371.708	3.79
372.071	3.77
372.434	3.77
372.797	3.82
373.159	3.79
373.522	3.8
373.885	3.78
374.247	3.74
374.61	3.76
374.973	3.73
375.335	3.82
375.698	3.75
376.06	3.73
376.423	3.74
376.785	3.73
377.147	3.66
377.51	3.69
377.872	3.76
378.234	3.85
378.596	3.88
378.958	3.9
379.321	3.9
379.683	3.92
380.045	3.94
380.407	3.93
380.769	3.94
381.13	3.89
381.492	3.9
381.854	3.95
382.216	3.97
382.578	3.95
382.939	3.89
383.301	3.89
383.663	3.85
384.024	3.9
384.386	3.9
384.747	3.9
385.109	3.84
385.47	3.81
385.832	3.72
386.193	3.74
386.554	3.7
386.916	3.69
387.277	3.69
387.638	3.7
387.999	3.71
388.36	3.69
388.721	3.68
389.082	3.75
389.443	3.75
389.804	3.78
390.165	3.81
390.526	3.81
390.887	3.81
391.248	3.84
391.609	3.81
391.969	3.81
392.33	3.8
392.691	3.89
393.051	3.91
393.412	3.89
393.772	3.89
394.133	3.9
394.493	3.89
394.854	3.91
395.214	3.87
395.574	3.89
395.935	3.99
396.295	4.03
396.655	3.99
397.015	3.99
397.376	3.93
397.736	3.94
398.096	3.95
398.456	3.96
398.816	3.97
399.176	3.96
399.535	3.97
399.895	3.98
400.255	3.95
400.615	3.95
400.975	4.02
401.334	4.01
401.694	3.99
402.054	4.01
402.413	3.99
402.773	4.03
403.132	4.02
403.492	3.98
403.851	3.95
404.211	3.93
404.57	3.92
404.929	3.94
405.288	3.93
405.648	3.92
406.007	3.93
406.366	3.93
406.725	3.96
407.084	3.95
407.443	3.97
407.802	4
408.161	4.03
408.52	3.98
408.879	4
409.238	4.08
409.596	4.05
409.955	4.05
410.314	4.03
410.673	4.03
411.031	4
411.39	4.03
411.748	4.06
412.107	4.06
412.465	4.07
412.824	4.06
413.182	4.1
413.54	4.08
413.899	4.06
414.257	4.02
414.615	4.04
414.974	4.03
415.332	3.98
415.69	3.95
416.048	3.96
416.406	3.95
416.764	3.92
417.122	3.92
417.48	3.94
417.838	3.94
418.195	3.93
418.553	3.93
418.911	3.93
419.269	3.94
419.626	3.94
419.984	3.93
420.342	3.93
420.699	3.91
421.057	3.93
421.414	3.94
421.772	3.97
422.129	3.97
422.486	3.99
422.844	3.99
423.201	3.99
423.558	4.01
423.915	4.03
424.273	4.05
424.63	4.05
424.987	4.06
425.344	4.06
425.701	4.07
426.058	4.08
426.415	4.07
426.772	4.06
427.128	4.07
427.485	4.08
427.842	4.11
428.199	4.13
428.555	4.11
428.912	4.12
429.269	4.1
429.625	4.11
429.982	4.07
430.338	4.1
430.695	4.1
431.051	4.09
431.407	4.07
431.764	4.06
432.12	4.09
432.476	4.1
432.832	4.12
433.189	4.11
433.545	4.1
433.901	4.12
434.257	4.13
434.613	4.12
434.969	4.12
435.325	4.1
435.681	4.09
436.036	4.07
436.392	4.06
436.748	4.06
437.104	4.06
437.459	4.06
437.815	4.07
438.171	4.06
438.526	4.05
438.882	4.05
439.237	4.06
439.593	4.05
439.948	4.04
440.304	4.03
440.659	4.05
441.014	4.05
441.369	4.05
441.725	4.04
442.08	4.03
442.435	4.03
442.79	4.03
443.145	4.04
443.5	4.05
443.855	4.07
444.21	4.06
444.565	4.07
444.92	4.09
445.275	4.08
445.629	4.09
445.984	4.08
446.339	4.1
446.693	4.09
447.048	4.09
447.403	4.1
447.757	4.1
448.112	4.09
448.466	4.11
448.82	4.1
449.175	4.12
449.529	4.15
449.883	4.14
450.238	4.13
450.592	4.14
450.946	4.15
451.3	4.14
451.654	4.16
452.008	4.16
452.362	4.14
452.716	4.17
453.07	4.18
453.424	4.19
453.778	4.17
454.132	4.17
454.486	4.16
454.839	4.13
455.193	4.14
455.547	4.16
455.9	4.13
456.254	4.13
456.607	4.14
456.961	4.11
457.314	4.11
457.668	4.11
458.021	4.12
458.375	4.11
458.728	4.12
459.081	4.14
459.434	4.14
459.787	4.16
460.141	4.15
460.494	4.16
460.847	4.14
461.2	4.15
461.553	4.15
461.906	4.15
462.259	4.15
462.611	4.15
462.964	4.14
463.317	4.16
463.67	4.17
464.022	4.18
464.375	4.18
464.728	4.21
465.08	4.23
465.433	4.24
465.785	4.27
466.138	4.27
466.49	4.28
466.843	4.27
467.195	4.24
467.547	4.25
467.899	4.23
468.252	4.27
468.604	4.28
468.956	4.29
469.308	4.28
469.66	4.3
470.012	4.29
470.364	4.28
470.716	4.29
471.068	4.28
471.42	4.27
471.772	4.28
472.123	4.25
472.475	4.26
472.827	4.23
473.178	4.21
473.53	4.2
473.882	4.15
474.233	4.16
474.585	4.17
474.936	4.19
475.288	4.18
475.639	4.15
475.99	4.15
476.342	4.16
476.693	4.18
477.044	4.18
477.395	4.19
477.746	4.2
478.097	4.22
478.448	4.21
478.8	4.21
479.15	4.2
479.501	4.22
479.852	4.23
480.203	4.25
480.554	4.28
480.905	4.29
481.255	4.32
481.606	4.33
481.957	4.34
482.307	4.34
482.658	4.36
483.009	4.36
483.359	4.37
483.709	4.38
484.06	4.37
484.41	4.38
484.761	4.38
485.111	4.38
485.461	4.38
485.811	4.38
486.162	4.4
486.512	4.41
486.862	4.42
487.212	4.42
487.562	4.41
487.912	4.4
488.262	4.39
488.612	4.39
488.961	4.38
489.311	4.39
489.661	4.38
490.011	4.37
490.36	4.37
490.71	4.35
491.06	4.36
491.409	4.37
491.759	4.37
492.108	4.37
492.458	4.37
492.807	4.38
493.157	4.39
493.506	4.38
493.855	4.38
494.204	4.36
494.554	4.37
494.903	4.38
495.252	4.39
495.601	4.42
495.95	4.42
496.299	4.42
496.648	4.44
496.997	4.44
497.346	4.47
497.695	4.48
498.043	4.51
498.392	4.5
498.741	4.5
499.09	4.51
499.438	4.52
499.787	4.54
500.135	4.52
500.484	4.52
500.832	4.53
501.181	4.52
501.529	4.55
501.878	4.56
502.226	4.54
502.574	4.54
502.923	4.53
503.271	4.55
503.619	4.54
503.967	4.51
504.315	4.53
504.663	4.52
505.011	4.53
505.359	4.54
505.707	4.54
506.055	4.54
506.403	4.53
506.751	4.54
507.098	4.54
507.446	4.56
507.794	4.57
508.141	4.59
508.489	4.6
508.837	4.59
509.184	4.59
509.531	4.62
509.879	4.63
510.226	4.65
510.574	4.65
510.921	4.66
511.268	4.67
511.616	4.68
511.963	4.7
512.31	4.73
512.657	4.71
513.004	4.71
513.351	4.73
513.698	4.75
514.045	4.74
514.392	4.74
514.739	4.74
515.086	4.74
515.432	4.75
515.779	4.74
516.126	4.74
516.473	4.75
516.819	4.75
517.166	4.76
517.512	4.73
517.859	4.72
518.205	4.74
518.552	4.74
518.898	4.71
519.245	4.73
519.591	4.71
519.937	4.73
520.283	4.74
520.629	4.74
520.976	4.73
521.322	4.73
521.668	4.75
522.014	4.75
522.36	4.75
522.706	4.75
523.052	4.78
523.398	4.79
523.743	4.81
524.089	4.81
524.435	4.82
524.781	4.86
525.126	4.87
525.472	4.88
525.817	4.9
526.163	4.92
526.509	4.92
526.854	4.92
527.199	4.92
527.545	4.93
527.89	4.93
528.235	4.96
528.581	4.96
528.926	4.96
529.271	4.97
529.616	4.98
529.961	4.98
530.306	4.97
530.651	4.97
530.996	4.97
531.341	4.99
531.686	4.99
532.031	4.98
532.376	4.98
532.721	4.96
533.065	4.95
533.41	4.94
533.755	4.94
534.099	4.95
534.444	4.95
534.788	4.94
535.133	4.94
535.477	4.92
535.822	4.92
536.166	4.92
536.51	4.93
536.855	4.9
537.199	4.9
537.543	4.92
537.887	4.94
538.231	4.93
538.576	4.91
538.92	4.92
539.264	4.93
539.608	4.96
539.951	4.96
540.295	4.96
540.639	4.96
540.983	4.95
541.327	4.96
541.671	4.96
542.014	4.98
542.358	4.99
542.701	5.01
543.045	5
543.389	5.01
543.732	5.01
544.075	5.05
544.419	5.06
544.762	5.05
545.105	5.04
545.449	5.04
545.792	5.06
546.135	5.04
546.478	5.03
546.821	5.02
547.165	5.03
547.508	5.06
547.851	5.06
548.194	5.06
548.536	5.04
548.879	5.04
549.222	5.04
549.565	5.01
549.908	5.02
550.25	5.05
550.593	5.03
550.936	5.01
551.278	5.02
551.621	5.02
551.963	5.02
552.306	5.02
552.648	5.01
552.991	5.02
553.333	5.04
553.675	5.09
554.017	5.09
554.36	5.1
554.702	5.07
555.044	5.1
555.386	5.12
555.728	5.15
556.07	5.14
556.412	5.16
556.754	5.15
557.096	5.12
557.438	5.09
557.78	5.09
558.121	5.1
558.463	5.09
558.805	5.11
559.147	5.12
559.488	5.12
559.83	5.13
560.171	5.12
560.513	5.11
560.854	5.08
561.196	5.08
561.537	5.09
561.878	5.12
562.22	5.12
562.561	5.09
562.902	5.07
563.243	5.09
563.584	5.07
563.925	5.11
564.266	5.13
564.607	5.13
564.948	5.11
565.289	5.12
565.63	5.11
565.971	5.09
566.312	5.08
566.653	5.08
566.993	5.06
567.334	5.06
567.675	5.06
568.015	5.06
568.356	5.04
568.696	5.02
569.037	5.01
569.377	4.99
569.718	5
570.058	5.01
570.398	5.02
570.739	5.03
571.079	5.02
571.419	5.03
571.759	5.03
572.099	5.06
572.439	5.09
572.779	5.12
573.119	5.14
573.459	5.14
573.799	5.14
574.139	5.16
574.479	5.19
574.819	5.21
575.158	5.23
575.498	5.26
575.838	5.25
576.177	5.25
576.517	5.29
576.856	5.28
577.196	5.29
577.535	5.26
577.875	5.26
578.214	5.28
578.553	5.24
578.893	5.29
579.232	5.3
579.571	5.31
579.91	5.29
580.25	5.27
580.589	5.28
580.928	5.26
581.267	5.3
581.606	5.27
581.945	5.26
582.283	5.22
582.622	5.17
582.961	5.21
583.3	5.25
583.639	5.24
583.977	5.27
584.316	5.26
584.654	5.32
584.993	5.36
585.332	5.39
585.67	5.44
586.008	5.45
586.347	5.48
586.685	5.44
587.024	5.45
587.362	5.45
587.7	5.45
588.038	5.49
588.376	5.47
588.715	5.5
589.053	5.53
589.391	5.53
589.729	5.6
590.067	5.59
590.404	5.57
590.742	5.55
591.08	5.56
591.418	5.56
591.756	5.53
592.093	5.49
592.431	5.49
592.769	5.51
593.106	5.49
593.444	5.47
593.781	5.52
594.119	5.53
594.456	5.52
594.793	5.56
595.131	5.59
595.468	5.6
595.805	5.6
596.143	5.6
596.48	5.6
596.817	5.61
597.154	5.63
597.491	5.64
597.828	5.64
598.165	5.62
598.502	5.61
598.839	5.63
599.176	5.67
599.512	5.65
599.849	5.63
600.186	5.65
600.523	5.6
600.859	5.56
601.196	5.6
601.532	5.62
601.869	5.59
602.205	5.57
602.542	5.59
602.878	5.62
603.215	5.59
603.551	5.59
603.887	5.59
604.223	5.57
604.56	5.56
604.896	5.56
605.232	5.55
605.568	5.58
605.904	5.54
606.24	5.54
606.576	5.55
606.912	5.56
607.248	5.56
607.583	5.61
607.919	5.62
608.255	5.6
608.591	5.63
608.926	5.62
609.262	5.6
609.597	5.55
609.933	5.5
610.268	5.52
610.604	5.53
610.939	5.54
611.275	5.57
611.61	5.56
611.945	5.54
612.281	5.61
612.616	5.58
612.951	5.65
613.286	5.65
613.621	5.64
613.956	5.63
614.291	5.58
614.626	5.57
614.961	5.59
615.296	5.58
615.631	5.54
615.966	5.57
616.3	5.62
616.635	5.68
616.97	5.74
617.304	5.79
617.639	5.83
617.973	5.76
618.308	5.76
618.642	5.76
618.977	5.84
619.311	5.83
619.646	5.83
619.98	5.8
620.314	5.78
620.648	5.77
620.983	5.76
621.317	5.78
621.651	5.77
621.985	5.78
622.319	5.72
622.653	5.69
622.987	5.7
623.321	5.69
623.655	5.69
623.988	5.68
624.322	5.65
624.656	5.64
624.99	5.67
625.323	5.64
625.657	5.68
625.99	5.65
626.324	5.61
626.657	5.6
626.991	5.63
627.324	5.62
627.658	5.67
627.991	5.7
628.324	5.75
628.657	5.73
628.991	5.71
629.324	5.7
629.657	5.69
629.99	5.69
630.323	5.73
630.656	5.7
630.989	5.7
631.322	5.71
631.655	5.7
631.987	5.72
632.32	5.76
632.653	5.76
632.986	5.73
633.318	5.78
633.651	5.86
633.984	5.81
634.316	5.82
634.649	5.84
634.981	5.8
635.313	5.79
635.646	5.81
635.978	5.86
636.31	5.96
636.643	6.01
636.975	6
637.307	6.02
637.639	6.07
637.971	6.04
638.303	6.05
638.635	6.09
638.967	6.08
639.299	6.09
639.631	6.11
639.963	6.11
640.295	6.1
640.626	6.13
640.958	6.19
641.29	6.2
641.621	6.08
641.953	6.01
642.285	5.98
642.616	6.03
642.948	6.05
643.279	6.03
643.61	6.06
643.942	6.11
644.273	6.08
644.604	6.07
644.936	6.1
645.267	6.11
645.598	6.07
645.929	6.16
646.26	6.14
646.591	6.12
646.922	6.15
647.253	6.15
647.584	6.02
647.915	6.06
648.245	6.01
648.576	6.07
648.907	6.17
649.238	6.18
649.568	6.18
649.899	6.19
650.229	6.21
650.56	6.21
650.89	6.19
651.221	6.15
651.551	6.17
651.882	6.14
652.212	6.1
652.542	6.13
652.872	6.08
653.203	6.11
653.533	6.14
653.863	6.14
654.193	6.14
654.523	6.17
654.853	6.12
655.183	6.2
655.513	6.26
655.843	6.35
656.172	6.39
656.502	6.33
656.832	6.27
657.162	6.27
657.491	6.29
657.821	6.26
658.15	6.25
658.48	6.32
658.809	6.38
659.139	6.39
659.468	6.36
659.798	6.37
660.127	6.34
660.456	6.25
660.785	6.27
661.115	6.25
661.444	6.32
661.773	6.34
662.102	6.33
662.431	6.32
662.76	6.28
663.089	6.3
663.418	6.31
663.747	6.39
664.076	6.39
664.404	6.5
664.733	6.5
665.062	6.5
665.39	6.45
665.719	6.41
666.048	6.46
666.376	6.53
666.705	6.52
667.033	6.57
667.362	6.64
667.69	6.75
668.018	6.82
668.347	6.8
668.675	6.72
669.003	6.67
669.331	6.73
669.659	6.68
669.987	6.55
670.315	6.69
670.643	6.62
670.971	6.62
671.299	6.51
671.627	6.58
671.955	6.69
672.283	6.71
672.61	6.71
672.938	6.68
673.266	6.58
673.593	6.66
673.921	6.56
674.249	6.67
674.576	6.61
674.904	6.63
675.231	6.58
675.558	6.66
675.886	6.85
676.213	6.85
676.54	6.88
676.867	6.95
677.195	6.81
677.522	6.79
677.849	6.8
678.176	6.75
678.503	6.72
678.83	6.7
679.157	6.63
679.484	6.63
679.81	6.72
680.137	6.82
680.464	6.78
680.791	6.85
681.117	6.79
681.444	6.73
681.771	6.7
682.097	6.8
682.424	6.75
682.75	6.63
683.077	6.57
683.403	6.61
683.729	6.69
684.056	6.75
684.382	6.74
684.708	6.71
685.034	6.7
685.36	6.7
685.686	6.73
686.012	6.77
686.339	6.76
686.664	6.71
686.99	6.67
687.316	6.65
687.642	6.66
687.968	6.57
688.294	6.68
688.619	6.77
688.945	6.77
689.271	6.77
689.596	6.81
689.922	6.72
690.247	6.71
690.573	6.68
690.898	6.78
691.224	6.92
691.549	7.06
691.874	7.22
692.2	7.31
692.525	7.2
692.85	7.15
693.175	7.32
693.5	7.35
693.825	7.44
694.15	7.43
694.475	7.45
694.8	7.58
695.125	7.48
695.45	7.47
695.775	7.47
696.099	7.56
696.424	7.56
696.749	7.68
697.073	7.66
697.398	7.63
697.723	7.53
698.047	7.48
698.372	7.49
698.696	7.45
699.02	7.45
699.345	7.48
699.669	7.59
699.993	7.42
700.318	7.36
700.642	7.3
700.966	7.37
701.29	7.39
701.614	7.37
701.938	7.36
702.262	7.26
702.586	7.27
702.91	7.21
703.234	7.11
703.557	7.06
703.881	7.01
704.205	6.98
704.529	7.06
704.852	6.9
705.176	6.83
705.499	6.75
705.823	6.63
706.146	6.64
706.47	6.69
706.793	6.69
707.117	6.71
707.44	6.64
707.763	6.49
708.086	6.45
708.409	6.41
708.733	6.45
709.056	6.45
709.379	6.57
709.702	6.63
710.025	6.84
710.348	6.96
710.671	7.12
710.993	7.05
711.316	7.03
711.639	7.17
711.962	7.33
712.284	7.43
712.607	7.49
712.93	7.55
713.252	7.38
713.575	7.55
713.897	7.59
714.22	7.62
714.542	7.74
714.864	7.69
715.187	7.73
715.509	7.71
715.831	7.92
716.153	7.69
716.475	7.75
716.798	7.64
717.12	7.58
717.442	7.44
717.764	7.54
718.085	7.57
718.407	7.74
718.729	7.51
719.051	7.51
719.373	7.6
719.695	7.51
720.016	7.55
720.338	7.59
720.659	7.61
720.981	7.6
721.302	7.62
721.624	7.79
721.945	8.01
722.267	8.03
722.588	8.04
722.909	8.08
723.231	7.92
723.552	7.99
723.873	8.09
724.194	8.28
724.515	8.35
724.836	8.3
725.157	8.09
725.478	8.23
725.799	8.06
726.12	8.04
726.441	7.97
726.762	8.14
727.083	8.13
727.403	7.98
727.724	8.05
728.045	8.08
728.365	7.99
728.686	7.87
729.006	7.94
729.327	7.92
729.647	8.05
729.967	8.3
730.288	8.23
730.608	8.13
730.928	7.98
731.249	8.11
731.569	8.07
731.889	8.12
732.209	8.03
732.529	8.16
732.849	8.3
733.169	8.43
733.489	8.25
733.809	8.31
734.129	8.5
734.448	8.6
734.768	8.56
735.088	8.65
735.408	8.67
735.727	8.53
736.047	8.4
736.366	8.25
736.686	8.11
737.005	8.17
737.325	8.12
737.644	8.01
737.963	7.7
738.283	7.88
738.602	7.96
738.921	7.91
739.24	8.08
739.56	7.78
739.879	7.81
740.198	7.74
740.517	7.53
740.836	7.54
741.155	7.57
741.473	7.64
741.792	7.71
742.111	7.85
742.43	8.12
742.748	8.12
743.067	8.06
743.386	7.78
743.704	7.67
744.023	7.84
744.341	8.24
744.66	8.42
744.978	8.38
745.297	8.21
745.615	8.16
745.933	8.07
746.252	8.29
746.57	8.26
746.888	8.57
747.206	8.41
747.524	8.19
747.842	7.78
748.16	7.91
748.478	7.51
748.796	7.41
749.114	7.25
749.432	7.47
749.749	7.72
750.067	8.22
750.385	8.35
750.703	8.21
751.02	8.05
751.338	7.75
751.655	7.81
751.973	7.93
752.29	8.15
752.608	7.82
752.925	7.91
753.242	8.06
753.56	7.9
753.877	8.1
754.194	8.39
754.511	8.78
754.828	8.37
755.145	9.05
755.462	8.96
755.779	8.89
756.096	8.79
756.413	8.99
756.73	8.98
757.047	9.09
757.364	9.03
757.68	8.87
757.997	9.17
758.314	9.08
758.63	9.16
758.947	9.26
759.264	9.54
759.58	9.47
759.896	9.47
760.213	9.51
760.529	9.52
760.846	9.47
761.162	9.68
761.478	10.04
761.794	10.12
762.11	10.08
762.426	10.17
762.743	10.2
763.059	10.37
763.375	10.37
763.69	10.25
764.006	10.28
764.322	10.49
764.638	10.52
764.954	10.5
765.27	10.56
765.585	10.58
765.901	10.62
766.216	10.75
766.532	10.81
766.848	10.95
767.163	11.25
767.478	11.36
767.794	10.97
768.109	10.8
768.424	10.52
768.74	10.53
769.055	10.58
769.37	10.58
769.685	10.46
770	10.22
770.315	10.23
770.63	10.71
770.945	10.7
771.26	10.57
771.575	10.57
771.89	10.61
772.205	10.54
772.52	10.34
772.834	10.3
773.149	10.34
773.464	10.03
773.778	9.7
774.093	9.79
774.407	10.1
774.722	9.99
775.036	10.05
775.351	10.53
775.665	10.71
775.979	10.83
776.293	10.53
776.608	10.36
776.922	10.53
777.236	10.22
777.55	10.01
777.864	10.2
778.178	10.61
778.492	10.62
778.806	10.71
779.12	10.82
779.434	10.62
779.747	10.72
780.061	11.04
780.375	11.22
780.689	11.28
781.002	11.44
781.316	11.15
781.629	11.12
781.943	10.39
782.256	10.27
782.57	10.22
782.883	10.62
783.196	10.79
783.51	11.25
783.823	11.02
784.136	10.95
784.449	11.27
784.762	11.06
785.075	10.88
785.388	10.82
785.701	10.98
786.014	10.7
786.327	10.32
786.64	10.28
786.953	10.21
787.266	9.84
787.578	9.72
787.891	10.24
788.204	9.98
788.516	10.57
788.829	10.75
789.141	11.12
789.454	10.95
789.766	11.45
790.079	10.85
790.391	10.79
790.703	11.53
791.016	11.23
791.328	11.22
791.64	11.06
791.952	11.46
792.264	11.72
792.576	11.83
792.888	11.48
793.2	11.53
793.512	11.73
793.824	11.73
794.136	11.99
794.448	12.28
794.76	12.89
795.071	12.61
795.383	12.24
795.695	12.34
796.006	11.95
796.318	11.46
796.629	12.01
796.941	12.55
797.252	12.09
797.564	12.51
797.875	12.32
798.186	12.94
798.497	12.59
798.809	12.38
799.12	12.41
799.431	12.82
799.742	13.2
800.053	12.9
800.364	13.42
800.675	13
800.986	12.76
801.297	12.38
801.608	12.31
801.918	12.78
802.229	11.69
802.54	12.46
802.851	12.85
803.161	12.68
803.472	13.1
803.782	13.15
804.093	12.74
804.403	12.9
804.714	12.85
805.024	12.43
805.334	12.78
805.645	13.27
805.955	13.82
806.265	13.66
806.575	13.32
806.885	12.79
807.195	13.5
807.505	13.28
807.815	13.65
808.125	13.81
808.435	13.41
808.745	14.44
809.055	14.28
809.365	14.67
809.674	14.74
809.984	14.26
810.294	14.36
810.603	13.79
810.913	13.9
811.222	13.45
811.532	13.32
811.841	13.44
812.151	13.29
812.46	13.94
812.769	13.55
813.079	14.02
813.388	14.03
813.697	12.97
814.006	13.69
814.315	13.32
814.624	13.01
814.933	13.74
815.242	13.76
815.551	13.35
815.86	12.84
816.169	12.07
816.478	12.27
816.786	12.03
817.095	12.86
817.404	12.75
817.712	12.8
818.021	13.51
818.33	13.26
818.638	13.04
818.947	12.66
819.255	12.54
819.563	12.26
819.872	12.45
820.18	12.82
820.488	12.96
820.796	13.23
821.105	13.61
821.413	13.64
821.721	13.57
822.029	13.65
822.337	13.69
822.645	13.77
822.953	13.7
823.26	13.75
823.568	13.74
823.876	13.74
824.184	13.66
824.491	13.53
824.799	13.46
825.107	13.66
825.414	13.57
825.722	13.8
826.029	13.96
826.337	13.85
826.644	13.91
826.951	13.42
827.259	13.33
827.566	13.13
827.873	12.98
828.18	12.91
828.488	12.75
828.795	12.92
829.102	12.83
829.409	12.52
829.716	12.34
830.023	12.49
830.329	12.35
830.636	12.41
830.943	12.46
831.25	12.2
831.557	11.73
831.863	11.66
832.17	11.58
832.476	11.77
832.783	12.04
833.089	12.26
833.396	13.19
833.702	13.05
834.009	13.42
834.315	13.92
834.621	13.63
834.928	13.81
835.234	13.34
835.54	13.27
835.846	13.5
836.152	13.5
836.458	13.3
836.764	13.43
837.07	13.39
837.376	13.49
837.682	13.68
837.988	13.97
838.293	14.06
838.599	13.78
838.905	14.45
839.211	15.44
839.516	14.33
839.822	14.76
840.127	13.91
840.433	13.83
840.738	13.16
841.044	13.76
841.349	13.21
841.654	12.45
841.959	12.98
842.265	13.95
842.57	14.32
842.875	14.08
843.18	14.72
843.485	15.07
843.79	14.76
844.095	15.58
844.4	15.89
844.705	15.87
845.01	15.26
845.315	13.65
845.619	12.49
845.924	12.98
846.229	12.78
846.533	14.7
846.838	13.9
847.142	11.62
847.447	11.52
847.751	12.53
848.056	13.72
848.36	14.15
848.664	13.36
848.969	14.53
849.273	15.38
849.577	14.52
849.881	15.11
850.185	15.07
850.489	15.73
850.794	16.57
851.097	16.67
851.401	17.11
851.705	16.36
852.009	16.32
852.313	18.39
852.617	16.63
852.92	15.61
853.224	15.89
853.528	19.11
853.831	19.24
854.135	19.13
854.438	18.94
854.742	19.91
855.045	18.77
855.349	19.03
855.652	20.75
855.955	19.72
856.259	20.63
856.562	22.05
856.865	21.55
857.168	19.17
857.471	18.38
857.774	19.08
858.077	18.74
858.38	16.16
858.683	16.02
858.986	18.71
859.289	21.53
859.592	20.91
859.894	19.64
860.197	16.34
860.5	18.73
860.802	19.65
861.105	17.11
861.407	17.64
861.71	15.42
862.012	13.89
862.315	14.19
862.617	13
862.919	12.74
863.222	13.42
863.524	14.86
863.826	13.94
864.128	12.66
864.43	13.92
864.732	17.97
865.034	17.03
865.336	14.8
865.638	13.87
865.94	14.49
866.242	14.78
866.544	17.67
866.846	15.89
867.147	14
867.449	15.11
867.751	13.79
868.052	12.12
868.354	11.42
868.655	11.49
868.957	11.17
869.258	10.75
869.56	8.95
869.861	6.99
870.162	9.49
870.463	10.24
870.765	8.02
871.066	6.02
871.367	4.9
871.668	3.88
871.969	-0.72
872.27	1.4
872.571	2.46
872.872	2.27
873.173	0.25
873.473	1.61
873.774	0.62
874.075	2.04
874.376	2.79
874.676	3.18
874.977	4
875.277	3.82
875.578	5.36
875.878	5.62
876.179	6.69
876.479	5.27
876.78	5.04
877.08	7.48
877.38	7.65
877.68	8.72
877.981	9.64
878.281	15.31
878.581	12.43
