Data from MVZ_BU95633_Reflection_00015.txt Node
Date: Tue Nov 19 12:21:23 EST 2019
User: vgr7
Spectrometer: USB2G7710
Scans to average: 3
Trigger mode: 4
Integration Time (sec): 2.000000E-2
Electric dark correction enabled: true
Boxcar width: 10
XAxis mode: Wavelengths
Number of Pixels in Spectrum: 2048
>>>>>Begin Spectral Data<<<<<
177.721	2.37
178.105	42.03
178.488	71.53
178.871	510
179.254	-281.82
179.636	264.18
180.019	56.04
180.402	46.43
180.785	394.74
181.168	180.42
181.55	127.62
181.933	160.11
182.316	199.29
182.698	43.32
183.081	93.71
183.463	111.05
183.846	77.59
184.228	129.7
184.611	205.59
184.993	222.58
185.376	689.74
185.758	1004.76
186.14	-814.29
186.522	-198.97
186.904	-100
187.287	-295.35
187.669	-94.59
188.051	-162.3
188.433	-184.15
188.815	-105.78
189.197	-79.4
189.579	-63.14
189.961	-71.31
190.342	-92.12
190.724	-133.77
191.106	-132.07
191.488	-95.34
191.869	-59.13
192.251	-33.03
192.633	-62.84
193.014	-48.09
193.396	-85.27
193.777	-86.25
194.159	-90.74
194.54	-133.68
194.922	-149.01
195.303	-131.75
195.684	-163.67
196.065	-142.74
196.447	-149.36
196.828	-173.93
197.209	-166.49
197.59	-119.46
197.971	-109.21
198.352	-105.27
198.733	-124.42
199.114	-117.32
199.495	-112.98
199.876	-124.96
200.257	-180.74
200.638	-143.07
201.018	-144.31
201.399	-110.13
201.78	-111
202.16	-86.39
202.541	-87.89
202.922	-95.22
203.302	-101.77
203.683	-94.07
204.063	-96.46
204.444	-92.98
204.824	-78.06
205.204	-69.45
205.585	-73.75
205.965	-80.31
206.345	-73.01
206.725	-47.49
207.106	-35.95
207.486	-34.39
207.866	-41.29
208.246	-33.59
208.626	-47.97
209.006	-47.54
209.386	-52.1
209.766	-56.76
210.145	-65.04
210.525	-65.36
210.905	-62.99
211.285	-68.77
211.664	-57.33
212.044	-64.78
212.424	-55.12
212.803	-65.47
213.183	-68.16
213.562	-65.48
213.942	-66.84
214.321	-85.49
214.701	-120.31
215.08	-116.69
215.459	-99.44
215.838	-119.08
216.218	-123.9
216.597	-111.16
216.976	-136.29
217.355	-100.64
217.734	-110.44
218.113	-104.15
218.492	-123.99
218.871	-96.9
219.25	-79.62
219.629	-102.78
220.008	-88.48
220.387	-82.95
220.766	-76.3
221.144	-66.92
221.523	-91.2
221.902	-62.66
222.28	-44.13
222.659	-25.12
223.037	-29.92
223.416	-37.33
223.794	-25.71
224.173	-24.69
224.551	-26.27
224.929	-22.01
225.308	-22.95
225.686	-18.41
226.064	-20.56
226.442	-14.79
226.821	-17.31
227.199	-23.29
227.577	-19.38
227.955	-17.23
228.333	-17.76
228.711	-10.94
229.089	-10.43
229.467	-4.82
229.845	-7.5
230.222	-5.65
230.6	-7.56
230.978	-7.87
231.356	-6.41
231.733	-5.05
232.111	-4.94
232.488	-3.06
232.866	-3
233.243	-4.93
233.621	-3.77
233.998	-3.33
234.376	-3.95
234.753	-2.24
235.13	-0.7
235.508	-1.45
235.885	-1.12
236.262	-2.06
236.639	-3.87
237.016	-3.58
237.393	-1.87
237.77	1.31
238.147	1.28
238.524	0.61
238.901	0.18
239.278	-0.11
239.655	-0.46
240.032	-0.69
240.409	-0.22
240.785	0.14
241.162	0.5
241.539	0.27
241.915	0.74
242.292	1.39
242.668	1.7
243.045	2.33
243.421	2.84
243.798	3.02
244.174	3.36
244.551	3.82
244.927	3.95
245.303	3.65
245.679	3.31
246.056	3.22
246.432	3.32
246.808	3.5
247.184	3.66
247.56	3.81
247.936	4.07
248.312	3.99
248.688	3.76
249.064	3.81
249.44	3.82
249.815	3.9
250.191	3.68
250.567	3.29
250.943	2.95
251.318	2.55
251.694	2.31
252.069	2.25
252.445	2
252.82	1.93
253.196	1.8
253.571	1.86
253.947	1.6
254.322	1.74
254.697	2.01
255.073	2.15
255.448	2.14
255.823	2.15
256.198	2.14
256.573	2.24
256.948	2.4
257.323	2.66
257.698	2.8
258.073	2.88
258.448	3.19
258.823	3.19
259.198	3.42
259.573	3.51
259.948	3.5
260.322	3.48
260.697	3.59
261.072	3.69
261.446	3.66
261.821	3.69
262.195	3.5
262.57	3.44
262.944	3.34
263.319	3.33
263.693	3.42
264.067	3.4
264.442	3.52
264.816	3.52
265.19	3.33
265.564	2.91
265.938	2.97
266.313	2.68
266.687	2.85
267.061	2.78
267.435	2.66
267.809	2.48
268.183	2.34
268.556	1.99
268.93	2.03
269.304	2.11
269.678	2.49
270.051	2.68
270.425	2.4
270.799	2.25
271.172	2.28
271.546	2.24
271.919	2.37
272.293	2.27
272.666	2.33
273.04	2.36
273.413	2.61
273.787	2.51
274.16	2.66
274.533	2.55
274.906	2.44
275.279	2.34
275.653	2.31
276.026	2.29
276.399	2.33
276.772	2.25
277.145	2.15
277.518	1.83
277.891	1.84
278.263	2.01
278.636	2.39
279.009	2.61
279.382	2.41
279.755	2.27
280.127	2.48
280.5	2.46
280.872	2.48
281.245	2.48
281.617	2.61
281.99	2.71
282.362	2.79
282.735	2.92
283.107	3
283.479	3.16
283.852	3.45
284.224	3.49
284.596	3.4
284.968	3.28
285.34	3.34
285.713	3.36
286.085	3.35
286.457	3.05
286.829	2.91
287.201	3.07
287.572	3.2
287.944	3.15
288.316	3.09
288.688	3.17
289.06	3.15
289.431	3.24
289.803	3.21
290.175	3.15
290.546	3.19
290.918	3.28
291.289	3.23
291.661	3.02
292.032	2.95
292.403	2.91
292.775	2.97
293.146	3.05
293.517	2.96
293.889	2.93
294.26	3.22
294.631	3.3
295.002	3.23
295.373	3.24
295.744	3.25
296.115	3.32
296.486	3.27
296.857	3.36
297.228	3.22
297.599	3.13
297.97	3.17
298.34	3.3
298.711	3.26
299.082	3.28
299.452	3.38
299.823	3.52
300.194	3.7
300.564	3.82
300.935	3.82
301.305	3.83
301.676	3.92
302.046	3.85
302.416	3.94
302.787	4.07
303.157	4.04
303.527	4.18
303.897	4.2
304.267	4.32
304.637	4.34
305.008	4.41
305.378	4.61
305.748	4.68
306.117	4.69
306.487	4.69
306.857	4.8
307.227	4.82
307.597	4.78
307.967	4.85
308.336	4.86
308.706	4.78
309.076	4.98
309.445	5.08
309.815	5.08
310.184	4.96
310.554	4.97
310.923	5.05
311.293	4.94
311.662	4.94
312.031	4.95
312.401	4.93
312.77	4.93
313.139	4.89
313.508	4.84
313.877	4.85
314.246	4.97
314.616	4.99
314.985	4.93
315.353	5
315.722	5.01
316.091	5.03
316.46	5.12
316.829	5.11
317.198	5.12
317.567	5.32
317.935	5.55
318.304	5.56
318.672	5.54
319.041	5.64
319.41	5.62
319.778	5.68
320.147	5.58
320.515	5.76
320.883	5.74
321.252	5.89
321.62	5.75
321.988	5.81
322.357	5.83
322.725	5.92
323.093	5.98
323.461	6.18
323.829	6.28
324.197	6.42
324.565	6.45
324.933	6.37
325.301	6.28
325.669	6.12
326.037	6.07
326.405	6.22
326.772	6.24
327.14	6.24
327.508	6.27
327.875	6.46
328.243	6.45
328.61	6.56
328.978	6.62
329.346	6.71
329.713	6.79
330.08	6.92
330.448	6.83
330.815	6.85
331.182	6.49
331.55	6.38
331.917	6.22
332.284	6.2
332.651	6.35
333.018	6.41
333.385	6.43
333.752	6.57
334.119	6.51
334.486	6.59
334.853	6.74
335.22	6.69
335.587	6.62
335.954	6.55
336.32	6.39
336.687	6.34
337.054	6.42
337.42	6.43
337.787	6.44
338.153	6.6
338.52	6.66
338.886	6.94
339.253	7.06
339.619	7.29
339.986	7.31
340.352	7.45
340.718	7.35
341.084	7.38
341.451	7.37
341.817	7.36
342.183	7.19
342.549	7.12
342.915	7.14
343.281	7.25
343.647	7.36
344.013	7.51
344.379	7.58
344.745	7.56
345.11	7.53
345.476	7.57
345.842	7.57
346.208	7.54
346.573	7.44
346.939	7.55
347.304	7.41
347.67	7.36
348.035	7.16
348.401	7.09
348.766	7.17
349.132	7.11
349.497	7.17
349.862	7.38
350.228	7.38
350.593	7.41
350.958	7.46
351.323	7.41
351.688	7.41
352.053	7.37
352.418	7.42
352.783	7.46
353.148	7.38
353.513	7.39
353.878	7.28
354.243	7.17
354.608	7.09
354.972	7.07
355.337	7.08
355.702	7.08
356.066	7.21
356.431	7.24
356.795	7.31
357.16	7.27
357.524	7.28
357.889	7.35
358.253	7.26
358.618	7.1
358.982	7.09
359.346	7.07
359.71	7
360.075	6.95
360.439	7
360.803	7.05
361.167	6.95
361.531	6.93
361.895	7.04
362.259	7.01
362.623	7.08
362.987	7.07
363.351	7.06
363.714	6.98
364.078	6.95
364.442	6.94
364.806	6.92
365.169	6.75
365.533	6.71
365.896	6.7
366.26	6.77
366.623	6.76
366.987	6.71
367.35	6.76
367.714	6.69
368.077	6.66
368.44	6.55
368.803	6.48
369.167	6.5
369.53	6.41
369.893	6.38
370.256	6.26
370.619	6.26
370.982	6.19
371.345	6.19
371.708	6.1
372.071	6.02
372.434	5.96
372.797	5.95
373.159	5.83
373.522	5.81
373.885	5.74
374.247	5.65
374.61	5.66
374.973	5.6
375.335	5.63
375.698	5.54
376.06	5.52
376.423	5.57
376.785	5.57
377.147	5.46
377.51	5.42
377.872	5.41
378.234	5.37
378.596	5.37
378.958	5.27
379.321	5.24
379.683	5.2
380.045	5.14
380.407	5.17
380.769	5.1
381.13	5.07
381.492	5.03
381.854	5
382.216	4.95
382.578	4.94
382.939	4.89
383.301	4.84
383.663	4.84
384.024	4.85
384.386	4.76
384.747	4.8
385.109	4.75
385.47	4.72
385.832	4.64
386.193	4.64
386.554	4.64
386.916	4.64
387.277	4.58
387.638	4.58
387.999	4.52
388.36	4.57
388.721	4.56
389.082	4.53
389.443	4.51
389.804	4.49
390.165	4.45
390.526	4.37
390.887	4.37
391.248	4.32
391.609	4.31
391.969	4.33
392.33	4.27
392.691	4.31
393.051	4.27
393.412	4.29
393.772	4.25
394.133	4.28
394.493	4.2
394.854	4.21
395.214	4.21
395.574	4.2
395.935	4.14
396.295	4.11
396.655	4.09
397.015	4.08
397.376	4.09
397.736	4.04
398.096	4.08
398.456	4.01
398.816	4
399.176	3.91
399.535	3.91
399.895	3.92
400.255	3.85
400.615	3.87
400.975	3.82
401.334	3.78
401.694	3.71
402.054	3.73
402.413	3.71
402.773	3.69
403.132	3.66
403.492	3.67
403.851	3.62
404.211	3.59
404.57	3.58
404.929	3.55
405.288	3.54
405.648	3.52
406.007	3.5
406.366	3.48
406.725	3.49
407.084	3.47
407.443	3.44
407.802	3.46
408.161	3.46
408.52	3.5
408.879	3.53
409.238	3.55
409.596	3.55
409.955	3.55
410.314	3.54
410.673	3.54
411.031	3.51
411.39	3.52
411.748	3.55
412.107	3.52
412.465	3.51
412.824	3.54
413.182	3.54
413.54	3.56
413.899	3.57
414.257	3.58
414.615	3.56
414.974	3.58
415.332	3.54
415.69	3.49
416.048	3.43
416.406	3.4
416.764	3.41
417.122	3.4
417.48	3.38
417.838	3.36
418.195	3.33
418.553	3.35
418.911	3.34
419.269	3.34
419.626	3.33
419.984	3.32
420.342	3.3
420.699	3.29
421.057	3.28
421.414	3.27
421.772	3.26
422.129	3.24
422.486	3.23
422.844	3.23
423.201	3.22
423.558	3.22
423.915	3.23
424.273	3.2
424.63	3.2
424.987	3.2
425.344	3.19
425.701	3.2
426.058	3.2
426.415	3.2
426.772	3.2
427.128	3.2
427.485	3.19
427.842	3.19
428.199	3.17
428.555	3.14
428.912	3.13
429.269	3.12
429.625	3.13
429.982	3.12
430.338	3.1
430.695	3.09
431.051	3.09
431.407	3.09
431.764	3.08
432.12	3.08
432.476	3.09
432.832	3.1
433.189	3.08
433.545	3.06
433.901	3.07
434.257	3.08
434.613	3.08
434.969	3.09
435.325	3.07
435.681	3.08
436.036	3.11
436.392	3.11
436.748	3.12
437.104	3.14
437.459	3.16
437.815	3.18
438.171	3.2
438.526	3.21
438.882	3.21
439.237	3.22
439.593	3.23
439.948	3.25
440.304	3.23
440.659	3.23
441.014	3.24
441.369	3.25
441.725	3.26
442.08	3.27
442.435	3.28
442.79	3.3
443.145	3.3
443.5	3.3
443.855	3.3
444.21	3.3
444.565	3.29
444.92	3.28
445.275	3.27
445.629	3.26
445.984	3.24
446.339	3.26
446.693	3.26
447.048	3.24
447.403	3.22
447.757	3.24
448.112	3.27
448.466	3.26
448.82	3.25
449.175	3.23
449.529	3.23
449.883	3.22
450.238	3.19
450.592	3.18
450.946	3.17
451.3	3.17
451.654	3.16
452.008	3.15
452.362	3.16
452.716	3.16
453.07	3.18
453.424	3.17
453.778	3.16
454.132	3.15
454.486	3.16
454.839	3.18
455.193	3.18
455.547	3.15
455.9	3.14
456.254	3.14
456.607	3.13
456.961	3.15
457.314	3.17
457.668	3.18
458.021	3.19
458.375	3.18
458.728	3.19
459.081	3.19
459.434	3.18
459.787	3.18
460.141	3.18
460.494	3.17
460.847	3.19
461.2	3.18
461.553	3.18
461.906	3.18
462.259	3.17
462.611	3.19
462.964	3.19
463.317	3.21
463.67	3.19
464.022	3.2
464.375	3.18
464.728	3.18
465.08	3.19
465.433	3.22
465.785	3.25
466.138	3.27
466.49	3.31
466.843	3.33
467.195	3.35
467.547	3.36
467.899	3.38
468.252	3.37
468.604	3.38
468.956	3.42
469.308	3.41
469.66	3.45
470.012	3.43
470.364	3.45
470.716	3.46
471.068	3.49
471.42	3.51
471.772	3.53
472.123	3.54
472.475	3.56
472.827	3.52
473.178	3.52
473.53	3.5
473.882	3.5
474.233	3.5
474.585	3.47
474.936	3.5
475.288	3.5
475.639	3.54
475.99	3.55
476.342	3.54
476.693	3.55
477.044	3.53
477.395	3.52
477.746	3.52
478.097	3.53
478.448	3.52
478.8	3.51
479.15	3.51
479.501	3.5
479.852	3.48
480.203	3.47
480.554	3.46
480.905	3.47
481.255	3.47
481.606	3.47
481.957	3.47
482.307	3.46
482.658	3.45
483.009	3.44
483.359	3.44
483.709	3.44
484.06	3.44
484.41	3.44
484.761	3.45
485.111	3.45
485.461	3.44
485.811	3.44
486.162	3.44
486.512	3.44
486.862	3.43
487.212	3.43
487.562	3.44
487.912	3.44
488.262	3.43
488.612	3.43
488.961	3.44
489.311	3.44
489.661	3.43
490.011	3.44
490.36	3.44
490.71	3.45
491.06	3.44
491.409	3.44
491.759	3.44
492.108	3.45
492.458	3.43
492.807	3.44
493.157	3.45
493.506	3.47
493.855	3.47
494.204	3.49
494.554	3.5
494.903	3.5
495.252	3.52
495.601	3.56
495.95	3.57
496.299	3.59
496.648	3.61
496.997	3.64
497.346	3.69
497.695	3.72
498.043	3.75
498.392	3.81
498.741	3.82
499.09	3.87
499.438	3.91
499.787	3.97
500.135	4.01
500.484	4.05
500.832	4.09
501.181	4.15
501.529	4.19
501.878	4.26
502.226	4.35
502.574	4.42
502.923	4.47
503.271	4.55
503.619	4.63
503.967	4.74
504.315	4.83
504.663	4.91
505.011	4.99
505.359	5.09
505.707	5.18
506.055	5.32
506.403	5.43
506.751	5.54
507.098	5.69
507.446	5.83
507.794	5.97
508.141	6.11
508.489	6.25
508.837	6.37
509.184	6.52
509.531	6.67
509.879	6.82
510.226	6.99
510.574	7.17
510.921	7.36
511.268	7.51
511.616	7.7
511.963	7.92
512.31	8.13
512.657	8.34
513.004	8.55
513.351	8.75
513.698	8.98
514.045	9.26
514.392	9.5
514.739	9.77
515.086	10.02
515.432	10.32
515.779	10.57
516.126	10.86
516.473	11.12
516.819	11.35
517.166	11.6
517.512	11.83
517.859	12.07
518.205	12.25
518.552	12.51
518.898	12.71
519.245	12.89
519.591	13.1
519.937	13.36
520.283	13.62
520.629	13.92
520.976	14.18
521.322	14.44
521.668	14.74
522.014	15.02
522.36	15.32
522.706	15.57
523.052	15.91
523.398	16.22
523.743	16.58
524.089	16.93
524.435	17.24
524.781	17.56
525.126	17.81
525.472	18.12
525.817	18.36
526.163	18.59
526.509	18.84
526.854	19.03
527.199	19.2
527.545	19.38
527.89	19.56
528.235	19.75
528.581	19.94
528.926	20.11
529.271	20.28
529.616	20.46
529.961	20.66
530.306	20.85
530.651	21.07
530.996	21.28
531.341	21.52
531.686	21.77
532.031	22
532.376	22.25
532.721	22.47
533.065	22.7
533.41	22.96
533.755	23.19
534.099	23.45
534.444	23.69
534.788	23.93
535.133	24.16
535.477	24.41
535.822	24.68
536.166	24.94
536.51	25.22
536.855	25.52
537.199	25.78
537.543	26.06
537.887	26.32
538.231	26.61
538.576	26.86
538.92	27.13
539.264	27.36
539.608	27.58
539.951	27.82
540.295	28.06
540.639	28.25
540.983	28.42
541.327	28.63
541.671	28.85
542.014	29.05
542.358	29.26
542.701	29.44
543.045	29.6
543.389	29.78
543.732	29.98
544.075	30.17
544.419	30.37
544.762	30.56
545.105	30.78
545.449	30.96
545.792	31.19
546.135	31.4
546.478	31.66
546.821	31.92
547.165	32.14
547.508	32.33
547.851	32.6
548.194	32.91
548.536	33.15
548.879	33.33
549.222	33.56
549.565	33.73
549.908	33.93
550.25	34.15
550.593	34.33
550.936	34.51
551.278	34.68
551.621	34.88
551.963	35.15
552.306	35.36
552.648	35.56
552.991	35.72
553.333	35.9
553.675	36.08
554.017	36.29
554.36	36.47
554.702	36.67
555.044	36.85
555.386	36.95
555.728	37.12
556.07	37.29
556.412	37.47
556.754	37.66
557.096	37.9
557.438	38.09
557.78	38.3
558.121	38.5
558.463	38.73
558.805	38.93
559.147	39.06
559.488	39.15
559.83	39.3
560.171	39.51
560.513	39.71
560.854	39.89
561.196	39.95
561.537	40.08
561.878	40.22
562.22	40.41
562.561	40.64
562.902	40.79
563.243	40.97
563.584	41.09
563.925	41.27
564.266	41.3
564.607	41.4
564.948	41.5
565.289	41.6
565.63	41.78
565.971	41.9
566.312	42.05
566.653	42.21
566.993	42.31
567.334	42.42
567.675	42.48
568.015	42.51
568.356	42.64
568.696	42.79
569.037	42.92
569.377	42.93
569.718	42.96
570.058	43.05
570.398	43.15
570.739	43.23
571.079	43.26
571.419	43.41
571.759	43.51
572.099	43.63
572.439	43.71
572.779	43.74
573.119	43.86
573.459	43.86
573.799	43.96
574.139	44.07
574.479	44.16
574.819	44.28
575.158	44.39
575.498	44.48
575.838	44.52
576.177	44.57
576.517	44.7
576.856	44.79
577.196	44.88
577.535	44.92
577.875	45.01
578.214	45.13
578.553	45.23
578.893	45.28
579.232	45.36
579.571	45.49
579.91	45.56
580.25	45.58
580.589	45.68
580.928	45.74
581.267	45.79
581.606	45.83
581.945	45.86
582.283	46
582.622	46.02
582.961	46.11
583.3	46.27
583.639	46.29
583.977	46.4
584.316	46.43
584.654	46.54
584.993	46.64
585.332	46.78
585.67	46.85
586.008	46.93
586.347	47.04
586.685	47.1
587.024	47.23
587.362	47.31
587.7	47.47
588.038	47.52
588.376	47.67
588.715	47.83
589.053	47.87
589.391	47.93
589.729	48.07
590.067	48.09
590.404	48.07
590.742	48.08
591.08	48.14
591.418	48.23
591.756	48.31
592.093	48.44
592.431	48.5
592.769	48.53
593.106	48.59
593.444	48.61
593.781	48.58
594.119	48.65
594.456	48.74
594.793	48.73
595.131	48.73
595.468	48.71
595.805	48.66
596.143	48.76
596.48	48.72
596.817	48.73
597.154	48.83
597.491	48.87
597.828	49.02
598.165	49.04
598.502	49.11
598.839	49.12
599.176	49.12
599.512	49.13
599.849	49.3
600.186	49.37
600.523	49.44
600.859	49.55
601.196	49.53
601.532	49.57
601.869	49.64
602.205	49.76
602.542	49.85
602.878	50
603.215	49.97
603.551	50.05
603.887	50.13
604.223	50.17
604.56	50.22
604.896	50.22
605.232	50.32
605.568	50.32
605.904	50.35
606.24	50.39
606.576	50.43
606.912	50.38
607.248	50.46
607.583	50.48
607.919	50.48
608.255	50.5
608.591	50.45
608.926	50.46
609.262	50.47
609.597	50.44
609.933	50.38
610.268	50.52
610.604	50.63
610.939	50.6
611.275	50.63
611.61	50.71
611.945	50.76
612.281	50.84
612.616	50.82
612.951	50.89
613.286	50.86
613.621	50.89
613.956	50.96
614.291	50.89
614.626	51.03
614.961	51.08
615.296	51.2
615.631	51.3
615.966	51.37
616.3	51.39
616.635	51.44
616.97	51.45
617.304	51.5
617.639	51.43
617.973	51.49
618.308	51.58
618.642	51.57
618.977	51.6
619.311	51.49
619.646	51.47
619.98	51.56
620.314	51.6
620.648	51.67
620.983	51.71
621.317	51.84
621.651	51.8
621.985	51.86
622.319	51.8
622.653	51.93
622.987	52.01
623.321	52.04
623.655	52.11
623.988	52.24
624.322	52.2
624.656	52.21
624.99	52.22
625.323	52.13
625.657	52.1
625.99	52.07
626.324	52.12
626.657	52.29
626.991	52.31
627.324	52.3
627.658	52.25
627.991	52.28
628.324	52.26
628.657	52.21
628.991	52.17
629.324	52.33
629.657	52.37
629.99	52.27
630.323	52.21
630.656	52.19
630.989	52.14
631.322	52.14
631.655	52.08
631.987	52.13
632.32	52.16
632.653	52.17
632.986	52.22
633.318	52.35
633.651	52.35
633.984	52.32
634.316	52.28
634.649	52.3
634.981	52.29
635.313	52.45
635.646	52.5
635.978	52.62
636.31	52.5
636.643	52.37
636.975	52.41
637.307	52.49
637.639	52.49
637.971	52.41
638.303	52.42
638.635	52.63
638.967	52.71
639.299	52.66
639.631	52.67
639.963	52.77
640.295	52.63
640.626	52.57
640.958	52.57
641.29	52.7
641.621	52.75
641.953	52.63
642.285	52.44
642.616	52.55
642.948	52.48
643.279	52.61
643.61	52.75
643.942	52.75
644.273	52.74
644.604	52.78
644.936	53.01
645.267	52.96
645.598	52.92
645.929	52.88
646.26	52.98
646.591	52.97
646.922	52.98
647.253	53.05
647.584	53.09
647.915	53.11
648.245	53.07
648.576	53.05
648.907	53.14
649.238	53.14
649.568	53.05
649.899	53.1
650.229	53.04
650.56	53.03
650.89	53.09
651.221	53.24
651.551	53.22
651.882	53.18
652.212	53.21
652.542	53.29
652.872	53.32
653.203	53.39
653.533	53.58
653.863	53.48
654.193	53.39
654.523	53.37
654.853	53.51
655.183	53.57
655.513	53.68
655.843	53.71
656.172	53.83
656.502	53.93
656.832	54.04
657.162	54.13
657.491	54.15
657.821	54.17
658.15	54.13
658.48	54.21
658.809	54.16
659.139	54.28
659.468	54.15
659.798	54.23
660.127	54.19
660.456	54.12
660.785	54.23
661.115	54.4
661.444	54.51
661.773	54.46
662.102	54.48
662.431	54.46
662.76	54.43
663.089	54.38
663.418	54.4
663.747	54.29
664.076	54.25
664.404	54.22
664.733	54.24
665.062	54.3
665.39	54.2
665.719	54.27
666.048	54.18
666.376	54.26
666.705	54.2
667.033	54.32
667.362	54.25
667.69	54.09
668.018	53.91
668.347	53.9
668.675	53.96
669.003	53.97
669.331	54.04
669.659	54.07
669.987	54.04
670.315	53.93
670.643	54.05
670.971	54.2
671.299	54.26
671.627	54.38
671.955	54.33
672.283	54.42
672.61	54.47
672.938	54.43
673.266	54.48
673.593	54.33
673.921	54.19
674.249	54.26
674.576	54.42
674.904	54.51
675.231	54.57
675.558	54.43
675.886	54.49
676.213	54.51
676.54	54.56
676.867	54.72
677.195	54.8
677.522	54.77
677.849	54.65
678.176	54.74
678.503	54.57
678.83	54.54
679.157	54.54
679.484	54.41
679.81	54.46
680.137	54.4
680.464	54.51
680.791	54.59
681.117	54.72
681.444	54.74
681.771	54.69
682.097	54.56
682.424	54.54
682.75	54.5
683.077	54.45
683.403	54.4
683.729	54.34
684.056	54.4
684.382	54.3
684.708	54.26
685.034	53.99
685.36	54.05
685.686	54.01
686.012	54.04
686.339	54.24
686.664	54.42
686.99	54.4
687.316	54.54
687.642	54.55
687.968	54.44
688.294	54.36
688.619	54.58
688.945	54.69
689.271	54.85
689.596	55.01
689.922	55.02
690.247	55.27
690.573	55.13
690.898	55.02
691.224	55.14
691.549	55.11
691.874	55.46
692.2	55.45
692.525	55.49
692.85	55.57
693.175	55.53
693.5	55.35
693.825	55.36
694.15	55.14
694.475	55.01
694.8	55.04
695.125	55.06
695.45	54.84
695.775	54.86
696.099	54.97
696.424	54.81
696.749	54.77
697.073	54.59
697.398	54.72
697.723	54.74
698.047	54.64
698.372	54.74
698.696	54.71
699.02	54.73
699.345	54.65
699.669	54.65
699.993	54.65
700.318	54.75
700.642	54.87
700.966	55.03
701.29	55.24
701.614	55.23
701.938	55.4
702.262	55.52
702.586	55.53
702.91	55.21
703.234	55.3
703.557	55.44
703.881	55.51
704.205	55.49
704.529	55.68
704.852	55.82
705.176	55.89
705.499	55.87
705.823	55.99
706.146	56.1
706.47	56.07
706.793	56.04
707.117	55.95
707.44	55.92
707.763	55.93
708.086	55.76
708.409	55.62
708.733	55.23
709.056	55.3
709.379	55.38
709.702	55.66
710.025	55.64
710.348	55.7
710.671	55.65
710.993	55.72
711.316	55.66
711.639	55.69
711.962	55.6
712.284	55.56
712.607	55.47
712.93	55.45
713.252	55.4
713.575	55.32
713.897	55.28
714.22	55.16
714.542	55.28
714.864	55.43
715.187	55.54
715.509	55.83
715.831	55.79
716.153	55.75
716.475	55.69
716.798	55.69
717.12	55.64
717.442	55.49
717.764	55.49
718.085	55.39
718.407	55.28
718.729	55.32
719.051	55.18
719.373	55.15
719.695	55.29
720.016	55.27
720.338	55.41
720.659	55.54
720.981	55.36
721.302	55.25
721.624	55.16
721.945	54.99
722.267	54.87
722.588	55.03
722.909	54.96
723.231	55.12
723.552	55.35
723.873	55.31
724.194	55.62
724.515	55.72
724.836	55.46
725.157	55.47
725.478	55.46
725.799	55.58
726.12	55.76
726.441	55.66
726.762	55.65
727.083	55.72
727.403	55.6
727.724	55.84
728.045	55.65
728.365	55.83
728.686	55.97
729.006	56.03
729.327	56.15
729.647	56.12
729.967	55.92
730.288	55.83
730.608	55.86
730.928	55.97
731.249	55.92
731.569	56.36
731.889	56.29
732.209	56.2
732.529	56.29
732.849	56.1
733.169	55.93
733.489	55.95
733.809	55.87
734.129	55.62
734.448	55.67
734.768	55.91
735.088	55.83
735.408	55.79
735.727	55.66
736.047	55.56
736.366	55.49
736.686	55.58
737.005	55.43
737.325	55.04
737.644	54.88
737.963	54.8
738.283	54.62
738.602	54.65
738.921	54.92
739.24	54.85
739.56	55.08
739.879	55.31
740.198	55.44
740.517	55.35
740.836	55.8
741.155	55.79
741.473	55.48
741.792	55.6
742.111	55.97
742.43	55.93
742.748	55.77
743.067	55.71
743.386	55.67
743.704	55.84
744.023	56.36
744.341	56.13
744.66	55.98
744.978	56.08
745.297	56.35
745.615	56.5
745.933	56.46
746.252	56.56
746.57	56.6
746.888	56.54
747.206	56.51
747.524	56.22
747.842	56.18
748.16	56.38
748.478	56.34
748.796	56.04
749.114	56.28
749.432	56.09
749.749	55.94
750.067	56.01
750.385	55.7
750.703	55.41
751.02	55.67
751.338	55.71
751.655	55.71
751.973	55.23
752.29	55.06
752.608	54.97
752.925	54.5
753.242	54.54
753.56	54.53
753.877	54.53
754.194	54.54
754.511	54.54
754.828	54.81
755.145	54.74
755.462	54.7
755.779	54.58
756.096	54.67
756.413	55.15
756.73	55.28
757.047	55.66
757.364	55.93
757.68	55.71
757.997	55.64
758.314	55.67
758.63	56.18
758.947	56.32
759.264	56.66
759.58	57.16
759.896	57.11
760.213	57.37
760.529	57.74
760.846	57.91
761.162	58.16
761.478	58.04
761.794	57.78
762.11	58
762.426	58.25
762.743	58.47
763.059	58.57
763.375	58.48
763.69	58.39
764.006	58.46
764.322	58.58
764.638	58.67
764.954	58.68
765.27	58.59
765.585	58.62
765.901	58.57
766.216	58.47
766.532	58.55
766.848	58.18
767.163	57.86
767.478	58.18
767.794	58.26
768.109	58.22
768.424	58.53
768.74	58.37
769.055	58.21
769.37	58.23
769.685	57.72
770	57.9
770.315	58.09
770.63	57.81
770.945	57.79
771.26	57.76
771.575	57.34
771.89	57.16
772.205	56.57
772.52	56
772.834	56.13
773.149	56.23
773.464	56.33
773.778	56.77
774.093	56.4
774.407	55.79
774.722	55.51
775.036	54.82
775.351	54.86
775.665	54.71
775.979	54.29
776.293	54.77
776.608	54.18
776.922	54.23
777.236	54.36
777.55	54.44
777.864	54.24
778.178	54.9
778.492	55.05
778.806	55.55
779.12	55.98
779.434	55.54
779.747	55.24
780.061	55.61
780.375	55.32
780.689	54.78
781.002	54.85
781.316	54.85
781.629	55.83
781.943	55.68
782.256	55.91
782.57	56.15
782.883	56.66
783.196	57.03
783.51	56.47
783.823	56.57
784.136	56.74
784.449	57.19
784.762	56.83
785.075	57.44
785.388	57.52
785.701	57.09
786.014	57.05
786.327	57.05
786.64	57.36
786.953	57.37
787.266	58.05
787.578	57.9
787.891	58.56
788.204	58.36
788.516	58.49
788.829	58.57
789.141	58.43
789.454	57.24
789.766	57.69
790.079	57.87
790.391	57.73
790.703	57.43
791.016	57.55
791.328	57.69
791.64	56.97
791.952	56.38
792.264	56.4
792.576	56.58
792.888	57.12
793.2	56.76
793.512	57.35
793.824	57.46
794.136	57.64
794.448	57.16
794.76	56.88
795.071	56.97
795.383	56.38
795.695	56.17
796.006	56.17
796.318	55.51
796.629	55.72
796.941	55.69
797.252	55.84
797.564	55.48
797.875	54.74
798.186	54.78
798.497	54.76
798.809	54.77
799.12	54.84
799.431	54.65
799.742	54.31
800.053	53.82
800.364	54.15
800.675	54.47
800.986	53.73
801.297	53.51
801.608	53.67
801.918	54.1
802.229	54.28
802.54	54.44
802.851	54.83
803.161	54.68
803.472	54.2
803.782	53.98
804.093	54.3
804.403	54.8
804.714	55.23
805.024	55.48
805.334	55.95
805.645	55.66
805.955	55.84
806.265	56.18
806.575	55.71
806.885	55.2
807.195	55.72
807.505	56.56
807.815	56.15
808.125	55.68
808.435	55.63
808.745	56.11
809.055	55.7
809.365	56.1
809.674	56.23
809.984	57.11
810.294	57.24
810.603	57.41
810.913	57.16
811.222	56.9
811.532	57.64
811.841	57.67
812.151	57.67
812.46	56.72
812.769	56.11
813.079	56.79
813.388	56.33
813.697	55.67
814.006	55.17
814.315	55.35
814.624	55.6
814.933	55.68
815.242	55.46
815.551	56.6
815.86	55.22
816.169	55.15
816.478	54.47
816.786	54.94
817.095	55.4
817.404	55.66
817.712	55.71
818.021	55.52
818.33	55.15
818.638	55.87
818.947	56.47
819.255	56.35
819.563	56.95
819.872	57.49
820.18	57.96
820.488	58.3
820.796	58.4
821.105	58.53
821.413	58.21
821.721	58.44
822.029	58.46
822.337	58.65
822.645	58.99
822.953	59.03
823.26	59.01
823.568	59.03
823.876	58.84
824.184	58.82
824.491	58.74
824.799	58.91
825.107	58.94
825.414	58.99
825.722	59.35
826.029	59.27
826.337	58.94
826.644	58.74
826.951	58.72
827.259	59.02
827.566	58.99
827.873	59.32
828.18	59.32
828.488	59.47
828.795	59.36
829.102	58.79
829.409	58.88
829.716	58.43
830.023	57.74
830.329	58.05
830.636	58.31
830.943	58.74
831.25	58.44
831.557	58.41
831.863	58.03
832.17	57.61
832.476	57.42
832.783	58.24
833.089	58.05
833.396	57.86
833.702	57.05
834.009	57.05
834.315	57.17
834.621	56.7
834.928	56.32
835.234	56.61
835.54	56.78
835.846	56.69
836.152	57.25
836.458	57.74
836.764	58.03
837.07	57.81
837.376	57.18
837.682	57.41
837.988	56.99
838.293	56.78
838.599	56.77
838.905	56.24
839.211	55.99
839.516	55.91
839.822	56
840.127	56.19
840.433	56.31
840.738	56.23
841.044	56.94
841.349	57.19
841.654	57.31
841.959	57.4
842.265	56.79
842.57	56.61
842.875	56.09
843.18	55.92
843.485	56.34
843.79	55.67
844.095	55.4
844.4	55.26
844.705	56.43
845.01	55.77
845.315	55.68
845.619	55.54
845.924	55.72
846.229	55.8
846.533	55.88
846.838	55.72
847.142	53.47
847.447	53.43
847.751	52.95
848.056	51.36
848.36	52.09
848.664	54.11
848.969	54.23
849.273	54.07
849.577	53.12
849.881	50.37
850.185	49.71
850.489	49.32
850.794	49.96
851.097	50.2
851.401	49.99
851.705	46.98
852.009	45.51
852.313	45.59
852.617	41.94
852.92	44.08
853.224	41.9
853.528	44.24
853.831	41.4
854.135	41.83
854.438	42.96
854.742	40.85
855.045	38.92
855.349	35.96
855.652	36.49
855.955	35.72
856.259	37.95
856.562	39.41
856.865	41.36
857.168	39.51
857.471	38.38
857.774	39.35
858.077	43.08
858.38	42.95
858.683	41.81
858.986	44.98
859.289	44.5
859.592	44.62
859.894	43.25
860.197	43.66
860.5	43.4
860.802	45.05
861.105	46.59
861.407	47.14
861.71	50.93
862.012	50.05
862.315	51.94
862.617	49.35
862.919	49.88
863.222	46.3
863.524	48.71
863.826	51.23
864.128	52.54
864.43	54.96
864.732	56.85
865.034	56.61
865.336	54.09
865.638	53.24
865.94	55.2
866.242	54.4
866.544	55.64
866.846	57.42
867.147	55.42
867.449	55.84
867.751	53.83
868.052	53.25
868.354	54.91
868.655	53.18
868.957	54.75
869.258	53.31
869.56	55.68
869.861	55.22
870.162	52.14
870.463	51.27
870.765	47.91
871.066	45.48
871.367	44.48
871.668	48.38
871.969	45.86
872.27	46.95
872.571	48.12
872.872	48.92
873.173	46.61
873.473	46.38
873.774	44.84
874.075	46.95
874.376	47.26
874.676	47.81
874.977	45.49
875.277	44.11
875.578	44.98
875.878	44.56
876.179	43.62
876.479	44.76
876.78	43.44
877.08	43.63
877.38	44.56
877.68	47.75
877.981	45.05
878.281	48.44
878.581	44.88
