Data from MVZ_BU136690_Reflection_00014.txt Node
Date: Tue Nov 19 12:08:14 EST 2019
User: vgr7
Spectrometer: USB2G7710
Scans to average: 3
Trigger mode: 4
Integration Time (sec): 2.000000E-2
Electric dark correction enabled: true
Boxcar width: 10
XAxis mode: Wavelengths
Number of Pixels in Spectrum: 2048
>>>>>Begin Spectral Data<<<<<
177.721	123.6
178.105	110.95
178.488	1053.39
178.871	537.14
179.254	631.82
179.636	135.57
180.019	616.06
180.402	104.55
180.785	-607.14
181.168	36.92
181.55	20.28
181.933	9.36
182.316	55.11
182.698	-37.59
183.081	-170.35
183.463	-196.64
183.846	-164.91
184.228	-250.54
184.611	507.61
184.993	209.62
185.376	-869.51
185.758	355.49
186.14	172.86
186.522	745.35
186.904	1018.75
187.287	548.17
187.669	191.46
188.051	310.37
188.433	-37.2
188.815	-197.41
189.197	36.69
189.579	23.94
189.961	4.28
190.342	17.14
190.724	-14.99
191.106	-5.74
191.488	-12.14
191.869	-13.41
192.251	-4.34
192.633	-13.11
193.014	-23.65
193.396	-21.52
193.777	-11.67
194.159	29.39
194.54	36.44
194.922	25.75
195.303	11.57
195.684	-0.53
196.065	16.79
196.447	33.66
196.828	32.97
197.209	23.98
197.59	13.26
197.971	4.5
198.352	-2.79
198.733	-16.23
199.114	-27.15
199.495	-36.54
199.876	-102.15
200.257	-105.94
200.638	-68.28
201.018	-65.53
201.399	-48.72
201.78	-52.19
202.16	-94.02
202.541	-125.79
202.922	-162.64
203.302	-129.7
203.683	-246.55
204.063	-163.79
204.444	-190.73
204.824	-284.78
205.204	-89.06
205.585	-77.8
205.965	-12.35
206.345	82.23
206.725	119.59
207.106	83
207.486	71.36
207.866	101.45
208.246	155.18
208.626	189.77
209.006	317.91
209.386	182.93
209.766	290.38
210.145	107.4
210.525	211.7
210.905	159.75
211.285	144.22
211.664	125.82
212.044	112.83
212.424	117.91
212.803	122.58
213.183	124.05
213.562	102.69
213.942	89.23
214.321	59.64
214.701	51.16
215.08	47.39
215.459	64.03
215.838	40.11
216.218	35.34
216.597	44.83
216.976	39.08
217.355	50.47
217.734	64.17
218.113	67.75
218.492	49.86
218.871	34.56
219.25	33.74
219.629	21
220.008	40.82
220.387	28.21
220.766	32.54
221.144	33.66
221.523	16.8
221.902	53.6
222.28	76.05
222.659	93.67
223.037	87.39
223.416	72.01
223.794	79.48
224.173	66.39
224.551	43.22
224.929	41.7
225.308	37.9
225.686	36.59
226.064	35.84
226.442	36.98
226.821	36.49
227.199	31.98
227.577	28.41
227.955	23.42
228.333	21.94
228.711	21.59
229.089	21.75
229.467	19.11
229.845	12.64
230.222	12.48
230.6	5.41
230.978	6.56
231.356	5.75
231.733	6.01
232.111	8.44
232.488	10.82
232.866	11.79
233.243	9.6
233.621	11.06
233.998	10.05
234.376	7.38
234.753	7.51
235.13	6.54
235.508	5.63
235.885	2.92
236.262	3.1
236.639	2.75
237.016	3.69
237.393	3.76
237.77	5.93
238.147	5.19
238.524	6.25
238.901	6
239.278	5.31
239.655	5
240.032	4.29
240.409	4
240.785	3.89
241.162	4.12
241.539	2.4
241.915	3.32
242.292	3.84
242.668	3.61
243.045	4.41
243.421	4.91
243.798	5.56
244.174	5.95
244.551	5.88
244.927	5.64
245.303	5.49
245.679	5.38
246.056	5.37
246.432	5.34
246.808	5.27
247.184	5.43
247.56	5.41
247.936	5.67
248.312	5.97
248.688	6.12
249.064	6.19
249.44	6.62
249.815	6.37
250.191	6.06
250.567	6.25
250.943	6.27
251.318	6.1
251.694	5.91
252.069	5.75
252.445	5.6
252.82	5.68
253.196	6.05
253.571	5.86
253.947	5.91
254.322	5.76
254.697	5.59
255.073	5.35
255.448	5.32
255.823	5.07
256.198	4.79
256.573	4.62
256.948	4.8
257.323	4.85
257.698	5.04
258.073	5.15
258.448	5.19
258.823	4.91
259.198	5
259.573	4.87
259.948	4.76
260.322	4.67
260.697	4.67
261.072	4.65
261.446	4.75
261.821	4.75
262.195	4.8
262.57	4.96
262.944	5
263.319	5.03
263.693	5.14
264.067	5.07
264.442	5.05
264.816	5.06
265.19	5.1
265.564	4.9
265.938	4.77
266.313	4.5
266.687	4.55
267.061	4.44
267.435	4.6
267.809	4.53
268.183	4.53
268.556	4.48
268.93	4.61
269.304	4.55
269.678	4.51
270.051	4.59
270.425	4.58
270.799	4.35
271.172	4.45
271.546	4.45
271.919	4.53
272.293	4.49
272.666	4.33
273.04	4.17
273.413	4.09
273.787	4.18
274.16	4.25
274.533	4.31
274.906	4.16
275.279	4.14
275.653	4.31
276.026	4.46
276.399	4.52
276.772	4.4
277.145	4.4
277.518	4.5
277.891	4.42
278.263	4.42
278.636	4.69
279.009	4.67
279.382	4.47
279.755	4.48
280.127	4.57
280.5	4.68
280.872	4.85
281.245	4.74
281.617	4.79
281.99	4.89
282.362	4.89
282.735	4.99
283.107	4.78
283.479	4.69
283.852	4.85
284.224	4.75
284.596	4.85
284.968	4.84
285.34	4.78
285.713	4.72
286.085	4.65
286.457	4.57
286.829	4.68
287.201	4.75
287.572	4.84
287.944	4.95
288.316	5
288.688	5.01
289.06	5.2
289.431	5.12
289.803	5.18
290.175	5.32
290.546	5.35
290.918	5.5
291.289	5.41
291.661	5.21
292.032	5.29
292.403	5.27
292.775	5.36
293.146	5.34
293.517	5.41
293.889	5.44
294.26	5.64
294.631	5.6
295.002	5.77
295.373	5.78
295.744	5.77
296.115	5.7
296.486	5.65
296.857	5.74
297.228	5.88
297.599	5.9
297.97	5.83
298.34	5.93
298.711	6.04
299.082	6.19
299.452	6.25
299.823	6.36
300.194	6.38
300.564	6.34
300.935	6.61
301.305	6.7
301.676	6.79
302.046	6.79
302.416	6.77
302.787	6.76
303.157	6.63
303.527	6.72
303.897	6.78
304.267	6.96
304.637	6.83
305.008	6.76
305.378	6.87
305.748	6.96
306.117	6.95
306.487	7.12
306.857	7.22
307.227	7.44
307.597	7.45
307.967	7.59
308.336	7.69
308.706	7.49
309.076	7.65
309.445	7.7
309.815	7.76
310.184	7.95
310.554	7.94
310.923	8.07
311.293	8.16
311.662	8.17
312.031	8.18
312.401	8.31
312.77	8.42
313.139	8.42
313.508	8.44
313.877	8.68
314.246	8.58
314.616	8.73
314.985	8.78
315.353	8.89
315.722	9.05
316.091	9.23
316.46	9.55
316.829	9.59
317.198	9.76
317.567	9.99
317.935	9.98
318.304	10.2
318.672	10.45
319.041	10.47
319.41	10.74
319.778	10.88
320.147	11.23
320.515	11.33
320.883	11.34
321.252	11.42
321.62	11.34
321.988	11.4
322.357	11.33
322.725	11.33
323.093	11.36
323.461	11.3
323.829	11.37
324.197	11.21
324.565	11.3
324.933	11.19
325.301	11.14
325.669	11.15
326.037	11.13
326.405	11.1
326.772	11.17
327.14	11.05
327.508	11.08
327.875	11.02
328.243	11.07
328.61	11.19
328.978	11.26
329.346	11.38
329.713	11.53
330.08	11.7
330.448	11.84
330.815	11.9
331.182	11.96
331.55	12
331.917	12.11
332.284	12.02
332.651	12.18
333.018	12.02
333.385	12.07
333.752	12.2
334.119	12.36
334.486	12.42
334.853	12.56
335.22	12.56
335.587	12.49
335.954	12.63
336.32	12.63
336.687	12.72
337.054	12.79
337.42	12.85
337.787	12.87
338.153	12.84
338.52	12.81
338.886	12.81
339.253	12.76
339.619	12.82
339.986	12.97
340.352	13.02
340.718	13.22
341.084	13.28
341.451	13.33
341.817	13.29
342.183	13.35
342.549	13.35
342.915	13.32
343.281	13.37
343.647	13.47
344.013	13.41
344.379	13.36
344.745	13.26
345.11	13.22
345.476	13.2
345.842	13.15
346.208	13.08
346.573	13.13
346.939	13.11
347.304	13.04
347.67	13.01
348.035	13.04
348.401	12.99
348.766	12.98
349.132	12.95
349.497	12.92
349.862	12.84
350.228	12.84
350.593	12.85
350.958	13.02
351.323	12.88
351.688	12.94
352.053	13
352.418	13.03
352.783	13.05
353.148	13.15
353.513	13.19
353.878	13.29
354.243	13.17
354.608	13.32
354.972	13.35
355.337	13.32
355.702	13.15
356.066	13.24
356.431	13.11
356.795	13.05
357.16	13.03
357.524	13.01
357.889	12.91
358.253	12.94
358.618	12.8
358.982	12.77
359.346	12.73
359.71	12.64
360.075	12.7
360.439	12.7
360.803	12.61
361.167	12.63
361.531	12.58
361.895	12.62
362.259	12.51
362.623	12.53
362.987	12.53
363.351	12.52
363.714	12.43
364.078	12.51
364.442	12.53
364.806	12.47
365.169	12.49
365.533	12.55
365.896	12.54
366.26	12.48
366.623	12.48
366.987	12.43
367.35	12.35
367.714	12.19
368.077	12.13
368.44	12.05
368.803	11.95
369.167	11.94
369.53	11.9
369.893	11.87
370.256	11.78
370.619	11.69
370.982	11.6
371.345	11.56
371.708	11.42
372.071	11.28
372.434	11.19
372.797	11.04
373.159	10.87
373.522	10.73
373.885	10.68
374.247	10.58
374.61	10.51
374.973	10.49
375.335	10.46
375.698	10.28
376.06	10.25
376.423	10.15
376.785	10.11
377.147	9.98
377.51	9.94
377.872	9.86
378.234	9.84
378.596	9.83
378.958	9.78
379.321	9.71
379.683	9.68
380.045	9.68
380.407	9.6
380.769	9.54
381.13	9.47
381.492	9.41
381.854	9.32
382.216	9.27
382.578	9.21
382.939	9.15
383.301	9.16
383.663	9.16
384.024	9.16
384.386	9.08
384.747	9.1
385.109	9.02
385.47	8.95
385.832	8.84
386.193	8.74
386.554	8.61
386.916	8.6
387.277	8.53
387.638	8.46
387.999	8.44
388.36	8.39
388.721	8.37
389.082	8.34
389.443	8.3
389.804	8.26
390.165	8.23
390.526	8.15
390.887	8.07
391.248	7.92
391.609	7.85
391.969	7.76
392.33	7.63
392.691	7.59
393.051	7.55
393.412	7.52
393.772	7.52
394.133	7.46
394.493	7.37
394.854	7.32
395.214	7.27
395.574	7.17
395.935	7.13
396.295	7.03
396.655	6.94
397.015	6.9
397.376	6.81
397.736	6.71
398.096	6.67
398.456	6.65
398.816	6.63
399.176	6.52
399.535	6.48
399.895	6.48
400.255	6.42
400.615	6.35
400.975	6.3
401.334	6.21
401.694	6.21
402.054	6.2
402.413	6.16
402.773	6.1
403.132	6.11
403.492	6.08
403.851	6.08
404.211	6.02
404.57	5.98
404.929	5.92
405.288	5.9
405.648	5.83
406.007	5.77
406.366	5.75
406.725	5.76
407.084	5.71
407.443	5.68
407.802	5.62
408.161	5.6
408.52	5.55
408.879	5.55
409.238	5.53
409.596	5.5
409.955	5.43
410.314	5.43
410.673	5.41
411.031	5.39
411.39	5.32
411.748	5.32
412.107	5.29
412.465	5.3
412.824	5.28
413.182	5.27
413.54	5.28
413.899	5.25
414.257	5.24
414.615	5.22
414.974	5.2
415.332	5.2
415.69	5.18
416.048	5.14
416.406	5.1
416.764	5.07
417.122	5.02
417.48	5.04
417.838	4.99
418.195	4.94
418.553	4.9
418.911	4.88
419.269	4.87
419.626	4.84
419.984	4.81
420.342	4.79
420.699	4.77
421.057	4.74
421.414	4.72
421.772	4.71
422.129	4.67
422.486	4.64
422.844	4.62
423.201	4.58
423.558	4.56
423.915	4.54
424.273	4.53
424.63	4.5
424.987	4.47
425.344	4.45
425.701	4.43
426.058	4.44
426.415	4.41
426.772	4.38
427.128	4.38
427.485	4.4
427.842	4.37
428.199	4.37
428.555	4.33
428.912	4.32
429.269	4.31
429.625	4.32
429.982	4.32
430.338	4.33
430.695	4.31
431.051	4.33
431.407	4.32
431.764	4.29
432.12	4.32
432.476	4.33
432.832	4.34
433.189	4.32
433.545	4.31
433.901	4.34
434.257	4.33
434.613	4.29
434.969	4.24
435.325	4.25
435.681	4.22
436.036	4.24
436.392	4.24
436.748	4.22
437.104	4.21
437.459	4.19
437.815	4.17
438.171	4.17
438.526	4.17
438.882	4.16
439.237	4.15
439.593	4.14
439.948	4.11
440.304	4.1
440.659	4.12
441.014	4.1
441.369	4.08
441.725	4.08
442.08	4.09
442.435	4.11
442.79	4.1
443.145	4.11
443.5	4.09
443.855	4.08
444.21	4.08
444.565	4.08
444.92	4.07
445.275	4.08
445.629	4.08
445.984	4.06
446.339	4.06
446.693	4.06
447.048	4.04
447.403	4.04
447.757	4.04
448.112	4.03
448.466	4.03
448.82	4.03
449.175	4.03
449.529	4.04
449.883	4.01
450.238	4
450.592	4
450.946	3.99
451.3	4
451.654	3.97
452.008	3.97
452.362	3.95
452.716	3.92
453.07	3.92
453.424	3.92
453.778	3.92
454.132	3.9
454.486	3.89
454.839	3.88
455.193	3.89
455.547	3.89
455.9	3.88
456.254	3.85
456.607	3.85
456.961	3.85
457.314	3.85
457.668	3.86
458.021	3.86
458.375	3.82
458.728	3.82
459.081	3.84
459.434	3.83
459.787	3.84
460.141	3.86
460.494	3.86
460.847	3.87
461.2	3.89
461.553	3.91
461.906	3.93
462.259	3.94
462.611	3.92
462.964	3.92
463.317	3.94
463.67	3.97
464.022	3.98
464.375	3.97
464.728	4
465.08	3.99
465.433	3.98
465.785	4.04
466.138	4.07
466.49	4.07
466.843	4.1
467.195	4.15
467.547	4.15
467.899	4.19
468.252	4.2
468.604	4.2
468.956	4.21
469.308	4.21
469.66	4.25
470.012	4.27
470.364	4.29
470.716	4.31
471.068	4.33
471.42	4.35
471.772	4.37
472.123	4.36
472.475	4.41
472.827	4.44
473.178	4.46
473.53	4.45
473.882	4.47
474.233	4.47
474.585	4.46
474.936	4.48
475.288	4.46
475.639	4.47
475.99	4.46
476.342	4.46
476.693	4.48
477.044	4.47
477.395	4.47
477.746	4.45
478.097	4.42
478.448	4.41
478.8	4.39
479.15	4.39
479.501	4.37
479.852	4.35
480.203	4.32
480.554	4.31
480.905	4.31
481.255	4.3
481.606	4.29
481.957	4.29
482.307	4.28
482.658	4.28
483.009	4.27
483.359	4.26
483.709	4.26
484.06	4.25
484.41	4.25
484.761	4.24
485.111	4.24
485.461	4.24
485.811	4.24
486.162	4.24
486.512	4.23
486.862	4.23
487.212	4.23
487.562	4.22
487.912	4.22
488.262	4.22
488.612	4.21
488.961	4.22
489.311	4.21
489.661	4.21
490.011	4.21
490.36	4.21
490.71	4.21
491.06	4.22
491.409	4.22
491.759	4.22
492.108	4.24
492.458	4.25
492.807	4.27
493.157	4.29
493.506	4.32
493.855	4.35
494.204	4.37
494.554	4.41
494.903	4.46
495.252	4.5
495.601	4.52
495.95	4.56
496.299	4.61
496.648	4.68
496.997	4.73
497.346	4.79
497.695	4.85
498.043	4.91
498.392	4.96
498.741	5.02
499.09	5.08
499.438	5.14
499.787	5.18
500.135	5.25
500.484	5.32
500.832	5.38
501.181	5.43
501.529	5.51
501.878	5.57
502.226	5.66
502.574	5.75
502.923	5.83
503.271	5.92
503.619	5.97
503.967	6.04
504.315	6.13
504.663	6.22
505.011	6.32
505.359	6.4
505.707	6.51
506.055	6.62
506.403	6.71
506.751	6.82
507.098	6.97
507.446	7.08
507.794	7.17
508.141	7.27
508.489	7.4
508.837	7.54
509.184	7.65
509.531	7.75
509.879	7.88
510.226	8
510.574	8.11
510.921	8.25
511.268	8.38
511.616	8.53
511.963	8.66
512.31	8.81
512.657	8.96
513.004	9.08
513.351	9.24
513.698	9.42
514.045	9.63
514.392	9.78
514.739	9.94
515.086	10.14
515.432	10.32
515.779	10.5
516.126	10.65
516.473	10.81
516.819	10.95
517.166	11.08
517.512	11.23
517.859	11.39
518.205	11.51
518.552	11.65
518.898	11.75
519.245	11.91
519.591	12.06
519.937	12.22
520.283	12.38
520.629	12.55
520.976	12.71
521.322	12.86
521.668	13.03
522.014	13.21
522.36	13.37
522.706	13.57
523.052	13.76
523.398	13.95
523.743	14.18
524.089	14.41
524.435	14.63
524.781	14.85
525.126	15.03
525.472	15.22
525.817	15.39
526.163	15.56
526.509	15.69
526.854	15.81
527.199	15.94
527.545	16.06
527.89	16.16
528.235	16.28
528.581	16.38
528.926	16.53
529.271	16.66
529.616	16.8
529.961	16.93
530.306	17.06
530.651	17.23
530.996	17.39
531.341	17.56
531.686	17.75
532.031	17.94
532.376	18.13
532.721	18.32
533.065	18.51
533.41	18.71
533.755	18.93
534.099	19.15
534.444	19.33
534.788	19.55
535.133	19.79
535.477	20.03
535.822	20.3
536.166	20.56
536.51	20.84
536.855	21.14
537.199	21.45
537.543	21.79
537.887	22.09
538.231	22.37
538.576	22.64
538.92	22.91
539.264	23.17
539.608	23.45
539.951	23.68
540.295	23.91
540.639	24.17
540.983	24.42
541.327	24.67
541.671	24.93
542.014	25.17
542.358	25.42
542.701	25.66
543.045	25.89
543.389	26.12
543.732	26.33
544.075	26.55
544.419	26.8
544.762	27.03
545.105	27.29
545.449	27.59
545.792	27.93
546.135	28.2
546.478	28.52
546.821	28.86
547.165	29.22
547.508	29.58
547.851	29.93
548.194	30.27
548.536	30.62
548.879	30.97
549.222	31.34
549.565	31.7
549.908	32.08
550.25	32.44
550.593	32.8
550.936	33.23
551.278	33.63
551.621	34.05
551.963	34.47
552.306	34.83
552.648	35.19
552.991	35.54
553.333	35.95
553.675	36.31
554.017	36.65
554.36	37.05
554.702	37.41
555.044	37.7
555.386	38.04
555.728	38.42
556.07	38.8
556.412	39.19
556.754	39.53
557.096	39.86
557.438	40.23
557.78	40.64
558.121	40.99
558.463	41.32
558.805	41.61
559.147	41.9
559.488	42.27
559.83	42.59
560.171	42.98
560.513	43.36
560.854	43.69
561.196	44.1
561.537	44.4
561.878	44.82
562.22	45.2
562.561	45.53
562.902	45.86
563.243	46.15
563.584	46.38
563.925	46.66
564.266	46.98
564.607	47.25
564.948	47.49
565.289	47.81
565.63	48.1
565.971	48.4
566.312	48.66
566.653	48.9
566.993	49.14
567.334	49.38
567.675	49.64
568.015	49.93
568.356	50.12
568.696	50.41
569.037	50.54
569.377	50.76
569.718	51.03
570.058	51.24
570.398	51.49
570.739	51.76
571.079	52.09
571.419	52.26
571.759	52.51
572.099	52.68
572.439	52.83
572.779	53.06
573.119	53.25
573.459	53.52
573.799	53.79
574.139	54.04
574.479	54.2
574.819	54.37
575.158	54.5
575.498	54.74
575.838	54.87
576.177	55.12
576.517	55.37
576.856	55.56
577.196	55.82
577.535	56.03
577.875	56.23
578.214	56.34
578.553	56.6
578.893	56.76
579.232	57
579.571	57.28
579.91	57.44
580.25	57.66
580.589	57.84
580.928	57.99
581.267	58.2
581.606	58.39
581.945	58.56
582.283	58.81
582.622	58.97
582.961	59.18
583.3	59.33
583.639	59.45
583.977	59.62
584.316	59.76
584.654	60.01
584.993	60.2
585.332	60.34
585.67	60.54
586.008	60.75
586.347	60.89
586.685	60.99
587.024	61.12
587.362	61.25
587.7	61.37
588.038	61.49
588.376	61.64
588.715	61.75
589.053	61.91
589.391	62.01
589.729	62.06
590.067	62.13
590.404	62.28
590.742	62.41
591.08	62.55
591.418	62.64
591.756	62.69
592.093	62.74
592.431	62.91
592.769	62.95
593.106	62.95
593.444	63.1
593.781	63.2
594.119	63.31
594.456	63.42
594.793	63.48
595.131	63.51
595.468	63.5
595.805	63.7
596.143	63.71
596.48	63.75
596.817	63.92
597.154	64.12
597.491	64.21
597.828	64.3
598.165	64.36
598.502	64.44
598.839	64.48
599.176	64.65
599.512	64.68
599.849	64.82
600.186	64.96
600.523	65.07
600.859	65.14
601.196	65.29
601.532	65.33
601.869	65.38
602.205	65.51
602.542	65.61
602.878	65.59
603.215	65.69
603.551	65.76
603.887	65.77
604.223	65.79
604.56	65.79
604.896	65.76
605.232	65.78
605.568	65.77
605.904	65.89
606.24	65.92
606.576	65.95
606.912	65.95
607.248	66.08
607.583	66.13
607.919	66.23
608.255	66.25
608.591	66.29
608.926	66.3
609.262	66.35
609.597	66.42
609.933	66.49
610.268	66.59
610.604	66.62
610.939	66.57
611.275	66.59
611.61	66.67
611.945	66.84
612.281	66.89
612.616	66.96
612.951	66.97
613.286	67.01
613.621	67.04
613.956	67.13
614.291	67.06
614.626	67.01
614.961	66.98
615.296	67.09
615.631	67.22
615.966	67.32
616.3	67.28
616.635	67.31
616.97	67.39
617.304	67.37
617.639	67.32
617.973	67.5
618.308	67.59
618.642	67.62
618.977	67.64
619.311	67.61
619.646	67.63
619.98	67.59
620.314	67.59
620.648	67.72
620.983	67.67
621.317	67.72
621.651	67.71
621.985	67.82
622.319	67.77
622.653	67.71
622.987	67.79
623.321	67.97
623.655	67.98
623.988	67.99
624.322	68.09
624.656	68.28
624.99	68.28
625.323	68.37
625.657	68.44
625.99	68.42
626.324	68.57
626.657	68.63
626.991	68.69
627.324	68.79
627.658	68.77
627.991	68.86
628.324	68.86
628.657	68.94
628.991	68.93
629.324	68.95
629.657	69.03
629.99	68.99
630.323	68.84
630.656	68.91
630.989	68.98
631.322	68.95
631.655	68.8
631.987	68.76
632.32	68.63
632.653	68.68
632.986	68.71
633.318	68.64
633.651	68.62
633.984	68.68
634.316	68.75
634.649	68.77
634.981	68.72
635.313	68.74
635.646	68.81
635.978	68.85
636.31	68.8
636.643	68.82
636.975	68.93
637.307	69.04
637.639	69
637.971	68.94
638.303	68.84
638.635	68.89
638.967	68.9
639.299	68.95
639.631	68.87
639.963	68.86
640.295	68.87
640.626	68.88
640.958	68.82
641.29	68.59
641.621	68.63
641.953	68.77
642.285	68.72
642.616	68.71
642.948	68.62
643.279	68.72
643.61	68.79
643.942	68.75
644.273	68.6
644.604	68.63
644.936	68.62
645.267	68.64
645.598	68.71
645.929	68.88
646.26	68.94
646.591	68.84
646.922	68.92
647.253	69.11
647.584	69.15
647.915	69.32
648.245	69.32
648.576	69.36
648.907	69.41
649.238	69.42
649.568	69.48
649.899	69.57
650.229	69.57
650.56	69.51
650.89	69.62
651.221	69.86
651.551	69.94
651.882	70.06
652.212	70.06
652.542	70.14
652.872	70.11
653.203	70.15
653.533	70.4
653.863	70.34
654.193	70.33
654.523	70.31
654.853	70.2
655.183	70.31
655.513	70.33
655.843	70.3
656.172	70.39
656.502	70.29
656.832	70.41
657.162	70.47
657.491	70.46
657.821	70.32
658.15	70.23
658.48	70.16
658.809	70.18
659.139	70.22
659.468	70.25
659.798	70.18
660.127	70.06
660.456	69.92
660.785	69.93
661.115	69.95
661.444	69.94
661.773	70.08
662.102	70.19
662.431	70.1
662.76	70.08
663.089	70.21
663.418	70.31
663.747	70.17
664.076	70.15
664.404	70.17
664.733	70.34
665.062	70.27
665.39	70.21
665.719	70.2
666.048	70.34
666.376	70.24
666.705	70.44
667.033	70.51
667.362	70.59
667.69	70.71
668.018	70.61
668.347	70.61
668.675	70.52
669.003	70.45
669.331	70.52
669.659	70.45
669.987	70.52
670.315	70.48
670.643	70.53
670.971	70.61
671.299	70.66
671.627	70.64
671.955	70.68
672.283	70.75
672.61	70.73
672.938	70.7
673.266	70.73
673.593	70.71
673.921	70.72
674.249	70.61
674.576	70.48
674.904	70.4
675.231	70.3
675.558	70.32
675.886	70.33
676.213	70.26
676.54	70.37
676.867	70.23
677.195	70.37
677.522	70.15
677.849	70
678.176	70.13
678.503	70.05
678.83	70.25
679.157	70.28
679.484	70.26
679.81	70.2
680.137	70.31
680.464	70.44
680.791	70.48
681.117	70.58
681.444	70.68
681.771	70.72
682.097	70.86
682.424	70.78
682.75	70.67
683.077	70.7
683.403	70.72
683.729	70.71
684.056	70.58
684.382	70.65
684.708	70.66
685.034	70.69
685.36	70.76
685.686	70.63
686.012	70.57
686.339	70.62
686.664	70.63
686.99	70.64
687.316	70.54
687.642	70.42
687.968	70.38
688.294	70.39
688.619	70.4
688.945	70.43
689.271	70.49
689.596	70.75
689.922	70.82
690.247	70.78
690.573	70.89
690.898	70.94
691.224	71.17
691.549	71.2
691.874	71.08
692.2	71.04
692.525	71.13
692.85	71.29
693.175	71.25
693.5	71.27
693.825	71.1
694.15	70.99
694.475	70.81
694.8	70.99
695.125	70.9
695.45	70.95
695.775	71.04
696.099	71.08
696.424	71.02
696.749	70.98
697.073	70.97
697.398	70.85
697.723	70.82
698.047	70.72
698.372	70.82
698.696	70.86
699.02	70.86
699.345	70.93
699.669	70.82
699.993	70.95
700.318	70.99
700.642	71.1
700.966	71.11
701.29	71.29
701.614	71.21
701.938	71.33
702.262	71.32
702.586	71.22
702.91	71.2
703.234	71.03
703.557	71.05
703.881	70.89
704.205	71.03
704.529	71.12
704.852	71.03
705.176	70.98
705.499	70.8
705.823	70.78
706.146	70.72
706.47	70.88
706.793	70.7
707.117	70.77
707.44	70.71
707.763	70.72
708.086	70.97
708.409	70.83
708.733	70.73
709.056	70.89
709.379	71.05
709.702	70.97
710.025	70.99
710.348	70.84
710.671	71.16
710.993	71.08
711.316	71.01
711.639	71.2
711.962	71.19
712.284	71.04
712.607	70.99
712.93	70.93
713.252	70.89
713.575	71.05
713.897	70.99
714.22	71.14
714.542	71.29
714.864	71.33
715.187	71.24
715.509	71.28
715.831	71.09
716.153	70.96
716.475	70.83
716.798	71.1
717.12	71.26
717.442	71.08
717.764	70.98
718.085	71.03
718.407	71.05
718.729	71
719.051	71.15
719.373	71.19
719.695	71.16
720.016	71.25
720.338	71.07
720.659	70.97
720.981	70.79
721.302	70.92
721.624	70.78
721.945	70.96
722.267	71.03
722.588	71.22
722.909	71.11
723.231	71.37
723.552	71.22
723.873	71.22
724.194	71.25
724.515	71.35
724.836	71.31
725.157	71.17
725.478	71.18
725.799	71.21
726.12	71.41
726.441	71.54
726.762	71.66
727.083	71.53
727.403	71.45
727.724	71.57
728.045	71.31
728.365	71.33
728.686	71.55
729.006	71.56
729.327	71.54
729.647	71.69
729.967	71.69
730.288	71.7
730.608	71.61
730.928	71.58
731.249	71.76
731.569	71.72
731.889	71.58
732.209	71.64
732.529	71.79
732.849	71.56
733.169	71.51
733.489	71.61
733.809	72.03
734.129	72.15
734.448	72.06
734.768	72.09
735.088	72.38
735.408	72.24
735.727	72.13
736.047	72.17
736.366	72.03
736.686	72.07
737.005	72.17
737.325	72.2
737.644	72.17
737.963	72.27
738.283	72.39
738.602	72.86
738.921	72.69
739.24	72.8
739.56	72.99
739.879	72.81
740.198	72.83
740.517	72.4
740.836	72.5
741.155	72.71
741.473	72.36
741.792	71.99
742.111	72.02
742.43	71.79
742.748	71.6
743.067	71.86
743.386	72.02
743.704	71.98
744.023	72.29
744.341	72.43
744.66	72.37
744.978	72.43
745.297	72.23
745.615	72.59
745.933	72.44
746.252	72.55
746.57	72.85
746.888	72.6
747.206	72.8
747.524	72.82
747.842	72.68
748.16	72.91
748.478	73.23
748.796	73.31
749.114	73.68
749.432	73.68
749.749	73.36
750.067	73.2
750.385	73.17
750.703	73.14
751.02	73.03
751.338	72.85
751.655	72.83
751.973	73.15
752.29	73
752.608	72.88
752.925	73.09
753.242	73.11
753.56	72.98
753.877	72.96
754.194	72.94
754.511	72.78
754.828	72.89
755.145	72.98
755.462	72.8
755.779	72.88
756.096	73.25
756.413	73.63
756.73	73.62
757.047	74.03
757.364	73.9
757.68	74
757.997	73.71
758.314	73.52
758.63	73.14
758.947	73.42
759.264	73.77
759.58	73.67
759.896	73.71
760.213	74.14
760.529	74.35
760.846	74.13
761.162	73.92
761.478	73.98
761.794	73.53
762.11	73.5
762.426	73.39
762.743	73.09
763.059	73.43
763.375	73.66
763.69	73.36
764.006	73.45
764.322	73.42
764.638	73.41
764.954	73.69
765.27	73.77
765.585	73.38
765.901	73.4
766.216	73.13
766.532	73.03
766.848	72.64
767.163	72.38
767.478	72.58
767.794	72.71
768.109	72.58
768.424	72.85
768.74	73.26
769.055	73.28
769.37	73.19
769.685	72.6
770	72.15
770.315	72.31
770.63	72.08
770.945	72.27
771.26	72.44
771.575	72.18
771.89	72.08
772.205	72.5
772.52	72.17
772.834	72.71
773.149	72.55
773.464	73.06
773.778	73.23
774.093	72.95
774.407	73.35
774.722	73.52
775.036	72.79
775.351	72.19
775.665	72.08
775.979	72.36
776.293	72
776.608	71.72
776.922	71.7
777.236	72.35
777.55	72.09
777.864	72.72
778.178	72.27
778.492	72.05
778.806	72.06
779.12	71.99
779.434	71.43
779.747	71.87
780.061	71.66
780.375	71.56
780.689	71.73
781.002	71.62
781.316	71.4
781.629	71.97
781.943	72.16
782.256	72.23
782.57	72.26
782.883	72.78
783.196	72.94
783.51	72.71
783.823	72.27
784.136	72.09
784.449	71.52
784.762	72.02
785.075	72.23
785.388	71.71
785.701	71.71
786.014	71.44
786.327	71.22
786.64	71.37
786.953	71.05
787.266	71.07
787.578	70.86
787.891	71.08
788.204	71.44
788.516	71.53
788.829	71.22
789.141	71.54
789.454	71.25
789.766	71.2
790.079	71.31
790.391	71.65
790.703	71.66
791.016	71.8
791.328	72.05
791.64	72.45
791.952	73.12
792.264	73.18
792.576	74.21
792.888	74.02
793.2	73.6
793.512	73.98
793.824	74.16
794.136	74.35
794.448	74.51
794.76	74.35
795.071	74.57
795.383	75.14
795.695	74.87
796.006	74.59
796.318	75.57
796.629	75.28
796.941	74.46
797.252	74.9
797.564	75.37
797.875	75.21
798.186	75.05
798.497	75.18
798.809	75.1
799.12	74.92
799.431	75.05
799.742	75.35
800.053	75.31
800.364	75.69
800.675	75.61
800.986	75.14
801.297	75.1
801.608	74.89
801.918	74.66
802.229	74.82
802.54	75.17
802.851	74.66
803.161	74.67
803.472	75.28
803.782	74.66
804.093	74.07
804.403	74.08
804.714	74.39
805.024	73.63
805.334	74.09
805.645	73.42
805.955	73.83
806.265	73.93
806.575	74.13
806.885	72.82
807.195	71.71
807.505	72.09
807.815	72.14
808.125	71.98
808.435	71.94
808.745	71.48
809.055	72.03
809.365	72.23
809.674	72.66
809.984	72.78
810.294	73.92
810.603	73.82
810.913	72.46
811.222	71.74
811.532	71.73
811.841	72.27
812.151	72.54
812.46	71.45
812.769	70.73
813.079	69.88
813.388	70.85
813.697	73.12
814.006	72.61
814.315	72.28
814.624	72.52
814.933	73.03
815.242	72.94
815.551	71.91
815.86	71.77
816.169	70.94
816.478	70.52
816.786	69.96
817.095	69.94
817.404	71.36
817.712	71.68
818.021	71.55
818.33	71.87
818.638	71.93
818.947	72.77
819.255	73.64
819.563	74.59
819.872	74.6
820.18	74.36
820.488	74.44
820.796	74.61
821.105	74.69
821.413	74.25
821.721	74.6
822.029	74.68
822.337	74.63
822.645	74.76
822.953	74.58
823.26	74.6
823.568	74.44
823.876	74.42
824.184	74.31
824.491	74.4
824.799	74.25
825.107	74.38
825.414	74.3
825.722	74.05
826.029	73.9
826.337	73.68
826.644	73.38
826.951	73.69
827.259	73.49
827.566	73.23
827.873	73.46
828.18	73.11
828.488	72.88
828.795	73.03
829.102	73
829.409	73.23
829.716	73.03
830.023	73.19
830.329	73.17
830.636	73.45
830.943	73.66
831.25	73.92
831.557	73.53
831.863	73.53
832.17	73.44
832.476	73.45
832.783	74.42
833.089	74.92
833.396	74.05
833.702	74.7
834.009	74.35
834.315	74.59
834.621	74.62
834.928	75.36
835.234	75.08
835.54	74.87
835.846	75.43
836.152	75.78
836.458	76.51
836.764	76.3
837.07	76.3
837.376	76.32
837.682	75.86
837.988	76.52
838.293	77.68
838.599	78.04
838.905	78.29
839.211	77.66
839.516	76.53
839.822	77.01
840.127	76.71
840.433	78.34
840.738	78.8
841.044	79.15
841.349	78.99
841.654	79.62
841.959	79.87
842.265	77.8
842.57	77.82
842.875	76.79
843.18	77
843.485	77.69
843.79	77.31
844.095	78.64
844.4	79.12
844.705	78.87
845.01	79.37
845.315	79.54
845.619	78.86
845.924	81.55
846.229	83.48
846.533	83.97
846.838	83.37
847.142	83.4
847.447	83.49
847.751	83.62
848.056	82.35
848.36	82.57
848.664	85.98
848.969	86.59
849.273	86.01
849.577	86.92
849.881	87.44
850.185	90.3
850.489	87.73
850.794	86.95
851.097	84.47
851.401	83.27
851.705	82.54
852.009	84.31
852.313	84.25
852.617	82.39
852.92	81.82
853.224	82.2
853.528	80.22
853.831	80.78
854.135	80.28
854.438	79.76
854.742	79.57
855.045	76.75
855.349	76.12
855.652	76.68
855.955	74.84
856.259	73.26
856.562	70.39
856.865	68.42
857.168	69.51
857.471	70.51
857.774	74.71
858.077	72.13
858.38	73.74
858.683	76.06
858.986	75.35
859.289	73.86
859.592	71.2
859.894	71.67
860.197	69.51
860.5	68.31
860.802	72.66
861.105	74.67
861.407	75.31
861.71	74.12
862.012	73.84
862.315	75.62
862.617	76.29
862.919	76.8
863.222	78.43
863.524	76.01
863.826	77.88
864.128	80.3
864.43	83.93
864.732	81.56
865.034	81.47
865.336	86.03
865.638	83.44
865.94	87.94
866.242	87.59
866.544	93.9
866.846	94.88
867.147	87.11
867.449	88.08
867.751	86.57
868.052	87.17
868.354	87.81
868.655	85.69
868.957	85.18
869.258	87.26
869.56	85.58
869.861	87.22
870.162	83.92
870.463	77.4
870.765	75.99
871.066	77.28
871.367	75
871.668	72.65
871.969	74.35
872.27	72.56
872.571	74.05
872.872	68.8
873.173	68.45
873.473	73.41
873.774	71.04
874.075	73.19
874.376	76.02
874.676	75.67
874.977	77.75
875.277	77.3
875.578	76.11
875.878	77.96
876.179	77.76
876.479	77.83
876.78	79.65
877.08	79.79
877.38	78.89
877.68	78.72
877.981	76.72
878.281	78.9
878.581	80.41
