Data from MVZ_BU62167_Reflection_00002.txt Node
Date: Tue Nov 19 12:14:18 EST 2019
User: vgr7
Spectrometer: USB2G7710
Scans to average: 3
Trigger mode: 4
Integration Time (sec): 2.000000E-2
Electric dark correction enabled: true
Boxcar width: 10
XAxis mode: Wavelengths
Number of Pixels in Spectrum: 2048
>>>>>Begin Spectral Data<<<<<
177.721	72.7
178.105	-19.05
178.488	-108.92
178.871	28.07
179.254	-7.84
179.636	57.04
180.019	40.77
180.402	-12.5
180.785	1373.33
181.168	-27.19
181.55	-32.85
181.933	-16.86
182.316	-47.94
182.698	119.38
183.081	562.96
183.463	44.44
183.846	291.36
184.228	-439.22
184.611	33.93
184.993	-5.65
185.376	-15.58
185.758	-44.34
186.14	-275.56
186.522	-269.73
186.904	-266.67
187.287	-436.53
187.669	-448.48
188.051	-393.71
188.433	-10622.22
188.815	-2439.22
189.197	-482.3
189.579	715.65
189.961	712.99
190.342	-676.73
190.724	-2384.13
191.106	-295.97
191.488	-174.4
191.869	-142.89
192.251	-201.8
192.633	-239.51
193.014	-179.44
193.396	-91.9
193.777	-53.62
194.159	-48.93
194.54	-29.36
194.922	-14.76
195.303	-22.22
195.684	-28.14
196.065	-41.91
196.447	-26.51
196.828	-28.98
197.209	1.71
197.59	7.21
197.971	12.38
198.352	-5.37
198.733	0.84
199.114	-8.79
199.495	6.89
199.876	6.8
200.257	20.21
200.638	9.41
201.018	10.92
201.399	-0.1
201.78	10.29
202.16	4.94
202.541	1.85
202.922	-3.26
203.302	8.32
203.683	-2.36
204.063	4.94
204.444	7.51
204.824	4.36
205.204	6.6
205.585	14.22
205.965	2.72
206.345	-0.34
206.725	-7.73
207.106	-3.17
207.486	-1.93
207.866	-8.81
208.246	6.79
208.626	-9.41
209.006	-29.36
209.386	-24.36
209.766	-31.77
210.145	-16.95
210.525	-4.5
210.905	-1.4
211.285	11.74
211.664	30.39
212.044	17.01
212.424	22.3
212.803	16.37
213.183	0.45
213.562	-3.16
213.942	19.09
214.321	29.07
214.701	34.11
215.08	35.59
215.459	38.75
215.838	47.06
216.218	32.15
216.597	49.43
216.976	59.99
217.355	56.01
217.734	51.56
218.113	53.23
218.492	50.75
218.871	52.16
219.25	49.77
219.629	35.2
220.008	44
220.387	33.5
220.766	41.53
221.144	38.41
221.523	28.21
221.902	25.64
222.28	24.21
222.659	18.84
223.037	16.59
223.416	14.52
223.794	20.78
224.173	15.56
224.551	16.26
224.929	10.17
225.308	10.88
225.686	12.5
226.064	6.06
226.442	-1.36
226.821	0.16
227.199	-2.73
227.577	2.66
227.955	0.51
228.333	0.42
228.711	0.8
229.089	1.35
229.467	1.62
229.845	0.98
230.222	3.69
230.6	6.72
230.978	8.26
231.356	7.98
231.733	6.21
232.111	9.86
232.488	8.74
232.866	9.03
233.243	11.05
233.621	11.23
233.998	10.4
234.376	13.4
234.753	11.94
235.13	12.42
235.508	11.37
235.885	12.71
236.262	12.23
236.639	13.33
237.016	12.59
237.393	14.11
237.77	13.04
238.147	9.68
238.524	8.35
238.901	8.25
239.278	7.01
239.655	7.08
240.032	6.66
240.409	6.05
240.785	6.77
241.162	5.83
241.539	5.39
241.915	6.3
242.292	5.74
242.668	5.83
243.045	5.65
243.421	5.94
243.798	5.8
244.174	5.77
244.551	5.35
244.927	5.48
245.303	5.09
245.679	5.19
246.056	5.56
246.432	5.58
246.808	5.43
247.184	5.43
247.56	5.02
247.936	4.67
248.312	4.82
248.688	4.51
249.064	4.7
249.44	4.74
249.815	4.42
250.191	4.71
250.567	4.65
250.943	4.91
251.318	4.63
251.694	4.24
252.069	4.57
252.445	4.36
252.82	4.53
253.196	4.49
253.571	4.01
253.947	4.03
254.322	3.98
254.697	4.08
255.073	3.92
255.448	4.18
255.823	4.6
256.198	4.2
256.573	4.33
256.948	4.15
257.323	4.08
257.698	4.03
258.073	3.87
258.448	3.9
258.823	3.72
259.198	3.74
259.573	3.93
259.948	3.83
260.322	3.76
260.697	3.69
261.072	3.81
261.446	3.94
261.821	3.72
262.195	3.65
262.57	3.68
262.944	3.89
263.319	3.84
263.693	3.61
264.067	3.89
264.442	3.9
264.816	3.9
265.19	3.92
265.564	3.95
265.938	3.92
266.313	3.67
266.687	3.8
267.061	3.79
267.435	4.1
267.809	3.94
268.183	4.06
268.556	3.8
268.93	3.75
269.304	3.84
269.678	4.09
270.051	4.13
270.425	3.91
270.799	3.64
271.172	3.58
271.546	3.68
271.919	3.53
272.293	3.48
272.666	3.67
273.04	3.78
273.413	3.94
273.787	3.79
274.16	3.84
274.533	3.86
274.906	3.87
275.279	3.59
275.653	3.68
276.026	3.71
276.399	3.75
276.772	3.67
277.145	3.62
277.518	3.46
277.891	3.57
278.263	3.81
278.636	3.82
279.009	3.89
279.382	3.76
279.755	3.84
280.127	3.83
280.5	3.56
280.872	3.38
281.245	3.2
281.617	3.37
281.99	3.47
282.362	3.38
282.735	3.15
283.107	3.01
283.479	2.97
283.852	2.99
284.224	3.19
284.596	3.27
284.968	3.29
285.34	3.19
285.713	3.22
286.085	3.1
286.457	3.16
286.829	3.12
287.201	3.3
287.572	3.38
287.944	3.48
288.316	3.62
288.688	3.77
289.06	3.87
289.431	3.93
289.803	3.91
290.175	3.82
290.546	3.97
290.918	4.02
291.289	3.97
291.661	4.01
292.032	3.9
292.403	3.93
292.775	3.91
293.146	4.1
293.517	4
293.889	4.05
294.26	4.02
294.631	4.11
295.002	4.06
295.373	3.83
295.744	3.72
296.115	3.66
296.486	3.65
296.857	3.63
297.228	3.53
297.599	3.55
297.97	3.79
298.34	3.81
298.711	3.84
299.082	3.76
299.452	3.8
299.823	3.83
300.194	3.77
300.564	3.71
300.935	3.65
301.305	3.56
301.676	3.53
302.046	3.64
302.416	3.7
302.787	3.67
303.157	3.73
303.527	3.95
303.897	3.84
304.267	3.95
304.637	3.95
305.008	3.89
305.378	3.81
305.748	3.7
306.117	3.67
306.487	3.69
306.857	3.77
307.227	3.84
307.597	3.75
307.967	3.9
308.336	4.03
308.706	4.01
309.076	4.34
309.445	4.4
309.815	4.37
310.184	4.26
310.554	4.09
310.923	4.02
311.293	3.87
311.662	3.94
312.031	3.79
312.401	3.76
312.77	3.83
313.139	3.98
313.508	3.97
313.877	4.03
314.246	3.91
314.616	4.04
314.985	3.91
315.353	4.03
315.722	3.96
316.091	3.93
316.46	3.78
316.829	3.63
317.198	3.53
317.567	3.56
317.935	3.45
318.304	3.78
318.672	3.99
319.041	3.94
319.41	4.02
319.778	4.04
320.147	4.14
320.515	4.1
320.883	3.92
321.252	3.89
321.62	3.94
321.988	4.26
322.357	4.17
322.725	4.15
323.093	4.08
323.461	4.02
323.829	3.95
324.197	4.23
324.565	4.15
324.933	4.2
325.301	4.03
325.669	4.04
326.037	3.82
326.405	3.81
326.772	3.86
327.14	3.87
327.508	3.76
327.875	3.75
328.243	3.84
328.61	3.86
328.978	3.77
329.346	3.66
329.713	3.58
330.08	3.58
330.448	3.63
330.815	3.6
331.182	3.56
331.55	3.56
331.917	3.44
332.284	3.45
332.651	3.42
333.018	3.62
333.385	3.65
333.752	3.78
334.119	3.74
334.486	3.68
334.853	3.53
335.22	3.6
335.587	3.45
335.954	3.28
336.32	3.19
336.687	3.22
337.054	3.35
337.42	3.41
337.787	3.33
338.153	3.22
338.52	3.33
338.886	3.36
339.253	3.42
339.619	3.32
339.986	3.24
340.352	3.22
340.718	3.24
341.084	3.25
341.451	3.25
341.817	3.24
342.183	3.31
342.549	3.47
342.915	3.5
343.281	3.61
343.647	3.79
344.013	3.93
344.379	3.93
344.745	3.88
345.11	3.85
345.476	4.03
345.842	4.1
346.208	4.06
346.573	4.08
346.939	4.08
347.304	4.13
347.67	4.09
348.035	4.04
348.401	4.06
348.766	3.97
349.132	3.9
349.497	3.83
349.862	3.79
350.228	3.77
350.593	3.65
350.958	3.69
351.323	3.54
351.688	3.45
352.053	3.43
352.418	3.35
352.783	3.34
353.148	3.25
353.513	3.28
353.878	3.32
354.243	3.23
354.608	3.23
354.972	3.2
355.337	3.25
355.702	3.32
356.066	3.29
356.431	3.36
356.795	3.4
357.16	3.45
357.524	3.5
357.889	3.46
358.253	3.58
358.618	3.53
358.982	3.51
359.346	3.5
359.71	3.53
360.075	3.58
360.439	3.55
360.803	3.52
361.167	3.38
361.531	3.34
361.895	3.39
362.259	3.35
362.623	3.38
362.987	3.44
363.351	3.4
363.714	3.35
364.078	3.35
364.442	3.34
364.806	3.37
365.169	3.33
365.533	3.32
365.896	3.31
366.26	3.24
366.623	3.28
366.987	3.3
367.35	3.3
367.714	3.3
368.077	3.31
368.44	3.38
368.803	3.43
369.167	3.34
369.53	3.34
369.893	3.32
370.256	3.3
370.619	3.23
370.982	3.25
371.345	3.36
371.708	3.35
372.071	3.34
372.434	3.29
372.797	3.26
373.159	3.24
373.522	3.14
373.885	3.26
374.247	3.25
374.61	3.27
374.973	3.26
375.335	3.28
375.698	3.25
376.06	3.21
376.423	3.23
376.785	3.32
377.147	3.27
377.51	3.3
377.872	3.32
378.234	3.39
378.596	3.42
378.958	3.34
379.321	3.32
379.683	3.32
380.045	3.35
380.407	3.42
380.769	3.46
381.13	3.49
381.492	3.43
381.854	3.46
382.216	3.46
382.578	3.49
382.939	3.47
383.301	3.46
383.663	3.44
384.024	3.47
384.386	3.44
384.747	3.49
385.109	3.48
385.47	3.46
385.832	3.41
386.193	3.43
386.554	3.39
386.916	3.43
387.277	3.4
387.638	3.43
387.999	3.35
388.36	3.31
388.721	3.33
389.082	3.4
389.443	3.42
389.804	3.46
390.165	3.42
390.526	3.45
390.887	3.46
391.248	3.45
391.609	3.44
391.969	3.44
392.33	3.4
392.691	3.43
393.051	3.44
393.412	3.42
393.772	3.42
394.133	3.42
394.493	3.4
394.854	3.36
395.214	3.36
395.574	3.4
395.935	3.43
396.295	3.41
396.655	3.38
397.015	3.34
397.376	3.33
397.736	3.36
398.096	3.3
398.456	3.29
398.816	3.3
399.176	3.27
399.535	3.3
399.895	3.31
400.255	3.31
400.615	3.35
400.975	3.38
401.334	3.33
401.694	3.34
402.054	3.33
402.413	3.4
402.773	3.4
403.132	3.41
403.492	3.39
403.851	3.4
404.211	3.4
404.57	3.4
404.929	3.37
405.288	3.37
405.648	3.39
406.007	3.37
406.366	3.41
406.725	3.43
407.084	3.42
407.443	3.43
407.802	3.39
408.161	3.36
408.52	3.36
408.879	3.4
409.238	3.43
409.596	3.47
409.955	3.44
410.314	3.43
410.673	3.4
411.031	3.36
411.39	3.39
411.748	3.39
412.107	3.42
412.465	3.42
412.824	3.4
413.182	3.39
413.54	3.41
413.899	3.37
414.257	3.36
414.615	3.38
414.974	3.37
415.332	3.39
415.69	3.38
416.048	3.39
416.406	3.34
416.764	3.35
417.122	3.31
417.48	3.31
417.838	3.3
418.195	3.29
418.553	3.3
418.911	3.29
419.269	3.26
419.626	3.25
419.984	3.27
420.342	3.26
420.699	3.27
421.057	3.28
421.414	3.29
421.772	3.27
422.129	3.25
422.486	3.24
422.844	3.23
423.201	3.25
423.558	3.22
423.915	3.24
424.273	3.23
424.63	3.23
424.987	3.22
425.344	3.24
425.701	3.24
426.058	3.24
426.415	3.24
426.772	3.25
427.128	3.24
427.485	3.24
427.842	3.25
428.199	3.22
428.555	3.22
428.912	3.22
429.269	3.24
429.625	3.24
429.982	3.26
430.338	3.27
430.695	3.25
431.051	3.27
431.407	3.26
431.764	3.25
432.12	3.26
432.476	3.29
432.832	3.28
433.189	3.29
433.545	3.28
433.901	3.28
434.257	3.29
434.613	3.28
434.969	3.25
435.325	3.27
435.681	3.3
436.036	3.29
436.392	3.29
436.748	3.31
437.104	3.34
437.459	3.32
437.815	3.31
438.171	3.32
438.526	3.33
438.882	3.33
439.237	3.34
439.593	3.34
439.948	3.33
440.304	3.31
440.659	3.32
441.014	3.31
441.369	3.32
441.725	3.34
442.08	3.35
442.435	3.37
442.79	3.34
443.145	3.34
443.5	3.35
443.855	3.33
444.21	3.31
444.565	3.3
444.92	3.31
445.275	3.32
445.629	3.31
445.984	3.32
446.339	3.32
446.693	3.31
447.048	3.3
447.403	3.28
447.757	3.28
448.112	3.28
448.466	3.3
448.82	3.3
449.175	3.3
449.529	3.29
449.883	3.28
450.238	3.29
450.592	3.29
450.946	3.28
451.3	3.29
451.654	3.29
452.008	3.3
452.362	3.3
452.716	3.28
453.07	3.31
453.424	3.3
453.778	3.29
454.132	3.3
454.486	3.32
454.839	3.35
455.193	3.37
455.547	3.36
455.9	3.36
456.254	3.37
456.607	3.36
456.961	3.36
457.314	3.37
457.668	3.38
458.021	3.37
458.375	3.38
458.728	3.38
459.081	3.39
459.434	3.38
459.787	3.39
460.141	3.4
460.494	3.38
460.847	3.38
461.2	3.4
461.553	3.41
461.906	3.41
462.259	3.4
462.611	3.38
462.964	3.41
463.317	3.41
463.67	3.41
464.022	3.42
464.375	3.44
464.728	3.45
465.08	3.44
465.433	3.43
465.785	3.42
466.138	3.42
466.49	3.43
466.843	3.45
467.195	3.44
467.547	3.42
467.899	3.42
468.252	3.4
468.604	3.4
468.956	3.41
469.308	3.41
469.66	3.42
470.012	3.44
470.364	3.42
470.716	3.43
471.068	3.43
471.42	3.42
471.772	3.41
472.123	3.4
472.475	3.43
472.827	3.42
473.178	3.42
473.53	3.43
473.882	3.4
474.233	3.39
474.585	3.39
474.936	3.42
475.288	3.42
475.639	3.45
475.99	3.43
476.342	3.44
476.693	3.44
477.044	3.44
477.395	3.42
477.746	3.41
478.097	3.41
478.448	3.42
478.8	3.41
479.15	3.4
479.501	3.41
479.852	3.41
480.203	3.44
480.554	3.43
480.905	3.43
481.255	3.44
481.606	3.44
481.957	3.45
482.307	3.44
482.658	3.44
483.009	3.44
483.359	3.46
483.709	3.45
484.06	3.45
484.41	3.45
484.761	3.45
485.111	3.46
485.461	3.46
485.811	3.46
486.162	3.47
486.512	3.47
486.862	3.47
487.212	3.48
487.562	3.48
487.912	3.49
488.262	3.5
488.612	3.51
488.961	3.51
489.311	3.5
489.661	3.51
490.011	3.51
490.36	3.51
490.71	3.49
491.06	3.5
491.409	3.5
491.759	3.5
492.108	3.51
492.458	3.51
492.807	3.51
493.157	3.51
493.506	3.52
493.855	3.52
494.204	3.52
494.554	3.53
494.903	3.52
495.252	3.52
495.601	3.51
495.95	3.5
496.299	3.51
496.648	3.52
496.997	3.51
497.346	3.53
497.695	3.55
498.043	3.56
498.392	3.57
498.741	3.6
499.09	3.61
499.438	3.61
499.787	3.62
500.135	3.62
500.484	3.61
500.832	3.59
501.181	3.57
501.529	3.6
501.878	3.57
502.226	3.59
502.574	3.58
502.923	3.59
503.271	3.6
503.619	3.6
503.967	3.58
504.315	3.58
504.663	3.59
505.011	3.58
505.359	3.58
505.707	3.57
506.055	3.54
506.403	3.57
506.751	3.55
507.098	3.54
507.446	3.55
507.794	3.57
508.141	3.58
508.489	3.6
508.837	3.58
509.184	3.6
509.531	3.59
509.879	3.59
510.226	3.58
510.574	3.58
510.921	3.59
511.268	3.6
511.616	3.63
511.963	3.62
512.31	3.62
512.657	3.62
513.004	3.63
513.351	3.63
513.698	3.61
514.045	3.62
514.392	3.62
514.739	3.64
515.086	3.66
515.432	3.65
515.779	3.65
516.126	3.68
516.473	3.66
516.819	3.65
517.166	3.67
517.512	3.68
517.859	3.69
518.205	3.67
518.552	3.68
518.898	3.68
519.245	3.69
519.591	3.7
519.937	3.71
520.283	3.7
520.629	3.71
520.976	3.72
521.322	3.72
521.668	3.71
522.014	3.72
522.36	3.7
522.706	3.71
523.052	3.73
523.398	3.73
523.743	3.74
524.089	3.75
524.435	3.76
524.781	3.79
525.126	3.79
525.472	3.81
525.817	3.8
526.163	3.8
526.509	3.8
526.854	3.8
527.199	3.81
527.545	3.8
527.89	3.8
528.235	3.82
528.581	3.82
528.926	3.83
529.271	3.82
529.616	3.83
529.961	3.84
530.306	3.82
530.651	3.81
530.996	3.82
531.341	3.82
531.686	3.82
532.031	3.81
532.376	3.8
532.721	3.8
533.065	3.8
533.41	3.79
533.755	3.79
534.099	3.79
534.444	3.77
534.788	3.79
535.133	3.79
535.477	3.79
535.822	3.79
536.166	3.79
536.51	3.8
536.855	3.8
537.199	3.78
537.543	3.79
537.887	3.79
538.231	3.8
538.576	3.79
538.92	3.78
539.264	3.79
539.608	3.79
539.951	3.79
540.295	3.8
540.639	3.82
540.983	3.83
541.327	3.84
541.671	3.85
542.014	3.85
542.358	3.87
542.701	3.87
543.045	3.87
543.389	3.87
543.732	3.86
544.075	3.87
544.419	3.88
544.762	3.89
545.105	3.91
545.449	3.9
545.792	3.93
546.135	3.93
546.478	3.92
546.821	3.94
547.165	3.95
547.508	3.95
547.851	3.95
548.194	3.94
548.536	3.92
548.879	3.93
549.222	3.91
549.565	3.9
549.908	3.87
550.25	3.86
550.593	3.89
550.936	3.88
551.278	3.89
551.621	3.89
551.963	3.89
552.306	3.86
552.648	3.85
552.991	3.81
553.333	3.82
553.675	3.85
554.017	3.82
554.36	3.85
554.702	3.84
555.044	3.86
555.386	3.87
555.728	3.84
556.07	3.8
556.412	3.81
556.754	3.8
557.096	3.81
557.438	3.8
557.78	3.78
558.121	3.85
558.463	3.82
558.805	3.81
559.147	3.77
559.488	3.8
559.83	3.8
560.171	3.81
560.513	3.82
560.854	3.83
561.196	3.85
561.537	3.85
561.878	3.85
562.22	3.82
562.561	3.83
562.902	3.85
563.243	3.9
563.584	3.9
563.925	3.9
564.266	3.9
564.607	3.91
564.948	3.9
565.289	3.88
565.63	3.85
565.971	3.87
566.312	3.89
566.653	3.9
566.993	3.89
567.334	3.91
567.675	3.9
568.015	3.89
568.356	3.86
568.696	3.86
569.037	3.86
569.377	3.86
569.718	3.83
570.058	3.83
570.398	3.81
570.739	3.82
571.079	3.83
571.419	3.84
571.759	3.87
572.099	3.88
572.439	3.88
572.779	3.89
573.119	3.86
573.459	3.87
573.799	3.85
574.139	3.87
574.479	3.89
574.819	3.89
575.158	3.91
575.498	3.93
575.838	3.91
576.177	3.9
576.517	3.93
576.856	3.97
577.196	3.99
577.535	4.01
577.875	4.01
578.214	4.03
578.553	4.02
578.893	4.01
579.232	4.02
579.571	4.04
579.91	4.05
580.25	4.07
580.589	4.08
580.928	4.1
581.267	4.12
581.606	4.07
581.945	4.07
582.283	4.03
582.622	4.03
582.961	4.04
583.3	4.08
583.639	4.06
583.977	4.09
584.316	4.09
584.654	4.09
584.993	4.09
585.332	4.09
585.67	4.11
586.008	4.1
586.347	4.09
586.685	4.06
587.024	4.07
587.362	4.12
587.7	4.13
588.038	4.15
588.376	4.13
588.715	4.17
589.053	4.18
589.391	4.18
589.729	4.19
590.067	4.2
590.404	4.21
590.742	4.21
591.08	4.21
591.418	4.26
591.756	4.24
592.093	4.23
592.431	4.24
592.769	4.24
593.106	4.25
593.444	4.28
593.781	4.3
594.119	4.3
594.456	4.28
594.793	4.25
595.131	4.26
595.468	4.28
595.805	4.28
596.143	4.28
596.48	4.31
596.817	4.3
597.154	4.32
597.491	4.29
597.828	4.28
598.165	4.27
598.502	4.17
598.839	4.2
599.176	4.21
599.512	4.16
599.849	4.14
600.186	4.14
600.523	4.13
600.859	4.16
601.196	4.16
601.532	4.13
601.869	4.14
602.205	4.13
602.542	4.1
602.878	4.1
603.215	4.1
603.551	4.09
603.887	4.08
604.223	4.06
604.56	4.11
604.896	4.15
605.232	4.15
605.568	4.22
605.904	4.19
606.24	4.22
606.576	4.26
606.912	4.3
607.248	4.29
607.583	4.34
607.919	4.32
608.255	4.28
608.591	4.29
608.926	4.3
609.262	4.27
609.597	4.27
609.933	4.29
610.268	4.32
610.604	4.34
610.939	4.38
611.275	4.39
611.61	4.34
611.945	4.32
612.281	4.32
612.616	4.31
612.951	4.32
613.286	4.28
613.621	4.26
613.956	4.21
614.291	4.15
614.626	4.1
614.961	4.1
615.296	4.2
615.631	4.21
615.966	4.19
616.3	4.24
616.635	4.28
616.97	4.24
617.304	4.2
617.639	4.21
617.973	4.17
618.308	4.19
618.642	4.19
618.977	4.18
619.311	4.2
619.646	4.23
619.98	4.29
620.314	4.28
620.648	4.27
620.983	4.27
621.317	4.35
621.651	4.35
621.985	4.39
622.319	4.33
622.653	4.39
622.987	4.4
623.321	4.36
623.655	4.38
623.988	4.39
624.322	4.42
624.656	4.44
624.99	4.49
625.323	4.5
625.657	4.5
625.99	4.51
626.324	4.46
626.657	4.41
626.991	4.41
627.324	4.4
627.658	4.4
627.991	4.47
628.324	4.46
628.657	4.49
628.991	4.49
629.324	4.52
629.657	4.49
629.99	4.47
630.323	4.52
630.656	4.52
630.989	4.49
631.322	4.46
631.655	4.43
631.987	4.39
632.32	4.37
632.653	4.35
632.986	4.34
633.318	4.42
633.651	4.47
633.984	4.5
634.316	4.53
634.649	4.53
634.981	4.47
635.313	4.49
635.646	4.43
635.978	4.47
636.31	4.44
636.643	4.42
636.975	4.44
637.307	4.41
637.639	4.37
637.971	4.4
638.303	4.43
638.635	4.38
638.967	4.4
639.299	4.42
639.631	4.42
639.963	4.44
640.295	4.42
640.626	4.4
640.958	4.3
641.29	4.3
641.621	4.31
641.953	4.3
642.285	4.32
642.616	4.4
642.948	4.28
643.279	4.26
643.61	4.31
643.942	4.31
644.273	4.34
644.604	4.34
644.936	4.38
645.267	4.37
645.598	4.39
645.929	4.35
646.26	4.31
646.591	4.36
646.922	4.39
647.253	4.39
647.584	4.35
647.915	4.41
648.245	4.44
648.576	4.46
648.907	4.49
649.238	4.48
649.568	4.4
649.899	4.46
650.229	4.47
650.56	4.47
650.89	4.55
651.221	4.55
651.551	4.56
651.882	4.5
652.212	4.52
652.542	4.66
652.872	4.69
653.203	4.72
653.533	4.8
653.863	4.78
654.193	4.77
654.523	4.75
654.853	4.74
655.183	4.73
655.513	4.72
655.843	4.76
656.172	4.77
656.502	4.73
656.832	4.71
657.162	4.73
657.491	4.79
657.821	4.71
658.15	4.72
658.48	4.76
658.809	4.84
659.139	4.85
659.468	4.75
659.798	4.81
660.127	4.82
660.456	4.75
660.785	4.71
661.115	4.67
661.444	4.66
661.773	4.64
662.102	4.72
662.431	4.75
662.76	4.7
663.089	4.72
663.418	4.8
663.747	4.84
664.076	4.86
664.404	4.88
664.733	4.88
665.062	4.86
665.39	4.81
665.719	4.75
666.048	4.73
666.376	4.68
666.705	4.62
667.033	4.67
667.362	4.63
667.69	4.72
668.018	4.8
668.347	4.87
668.675	4.91
669.003	4.88
669.331	4.83
669.659	4.85
669.987	4.81
670.315	4.83
670.643	4.75
670.971	4.74
671.299	4.64
671.627	4.66
671.955	4.68
672.283	4.69
672.61	4.73
672.938	4.69
673.266	4.75
673.593	4.75
673.921	4.7
674.249	4.72
674.576	4.72
674.904	4.71
675.231	4.78
675.558	4.78
675.886	4.72
676.213	4.7
676.54	4.79
676.867	4.82
677.195	4.83
677.522	4.95
677.849	4.95
678.176	5
678.503	4.96
678.83	4.91
679.157	4.86
679.484	4.82
679.81	4.86
680.137	4.9
680.464	4.94
680.791	4.96
681.117	5.02
681.444	5
681.771	5
682.097	5.04
682.424	5.08
682.75	5.13
683.077	5.17
683.403	5.17
683.729	5.23
684.056	5.17
684.382	5.15
684.708	5.19
685.034	5.14
685.36	5.14
685.686	5.26
686.012	5.31
686.339	5.31
686.664	5.33
686.99	5.25
687.316	5.15
687.642	5.1
687.968	5.19
688.294	5.19
688.619	5.2
688.945	5.05
689.271	5.01
689.596	4.99
689.922	4.97
690.247	4.93
690.573	4.87
690.898	4.92
691.224	4.86
691.549	4.87
691.874	4.93
692.2	4.95
692.525	4.82
692.85	4.98
693.175	5.1
693.5	5.04
693.825	5.13
694.15	5.18
694.475	5.21
694.8	5.11
695.125	5.12
695.45	5.02
695.775	4.99
696.099	4.95
696.424	4.99
696.749	5.03
697.073	5.02
697.398	4.96
697.723	4.93
698.047	4.94
698.372	4.93
698.696	4.83
699.02	4.86
699.345	4.97
699.669	4.89
699.993	4.8
700.318	4.86
700.642	4.87
700.966	4.9
701.29	4.9
701.614	4.89
701.938	4.85
702.262	4.85
702.586	4.9
702.91	4.98
703.234	4.86
703.557	4.87
703.881	4.97
704.205	5.05
704.529	5.05
704.852	5.02
705.176	5.01
705.499	5.14
705.823	5.16
706.146	5.24
706.47	5.27
706.793	5.26
707.117	5.19
707.44	5.08
707.763	5.15
708.086	5.11
708.409	5.07
708.733	5.03
709.056	5.12
709.379	5.34
709.702	5.32
710.025	5.54
710.348	5.47
710.671	5.41
710.993	5.41
711.316	5.54
711.639	5.7
711.962	5.74
712.284	5.73
712.607	5.75
712.93	5.7
713.252	5.74
713.575	5.85
713.897	5.96
714.22	6.16
714.542	6.09
714.864	5.97
715.187	5.88
715.509	5.85
715.831	5.87
716.153	5.68
716.475	5.65
716.798	5.41
717.12	5.34
717.442	5.3
717.764	5.21
718.085	5.05
718.407	4.94
718.729	5.05
719.051	5.2
719.373	5.31
719.695	5.03
720.016	4.92
720.338	4.99
720.659	4.99
720.981	5.01
721.302	5.14
721.624	5.25
721.945	5.33
722.267	5.47
722.588	5.47
722.909	5.49
723.231	5.52
723.552	5.75
723.873	5.75
724.194	5.84
724.515	6.08
724.836	6.17
725.157	6.09
725.478	6.08
725.799	5.88
726.12	5.78
726.441	6
726.762	6.13
727.083	6.1
727.403	6.04
727.724	5.92
728.045	5.79
728.365	5.71
728.686	5.91
729.006	6.12
729.327	6.2
729.647	6.18
729.967	6.19
730.288	6.11
730.608	6.33
730.928	6.4
731.249	6.51
731.569	6.52
731.889	6.59
732.209	6.53
732.529	6.52
732.849	6.5
733.169	6.5
733.489	6.42
733.809	6.34
734.129	6.48
734.448	6.5
734.768	6.54
735.088	6.76
735.408	6.67
735.727	6.35
736.047	6.18
736.366	6.22
736.686	6.3
737.005	6.43
737.325	6.26
737.644	6.04
737.963	5.7
738.283	5.66
738.602	5.73
738.921	5.66
739.24	5.76
739.56	5.93
739.879	6.09
740.198	6.02
740.517	6.02
740.836	6.03
741.155	6.05
741.473	5.97
741.792	6.21
742.111	6.32
742.43	6.58
742.748	6.93
743.067	6.96
743.386	6.58
743.704	6.5
744.023	6.5
744.341	6.41
744.66	6.5
744.978	6.72
745.297	6.71
745.615	6.69
745.933	6.77
746.252	6.63
746.57	6.72
746.888	7.07
747.206	7.14
747.524	6.95
747.842	6.76
748.16	6.81
748.478	6.61
748.796	6.82
749.114	6.97
749.432	6.66
749.749	6.58
750.067	7
750.385	6.9
750.703	7
751.02	7.42
751.338	7.66
751.655	7.62
751.973	7.57
752.29	7.64
752.608	7.22
752.925	7.21
753.242	7.1
753.56	6.84
753.877	6.7
754.194	7.08
754.511	7.16
754.828	7.1
755.145	7.06
755.462	6.85
755.779	6.48
756.096	6.55
756.413	6.92
756.73	7
757.047	7
757.364	7.08
757.68	6.95
757.997	6.73
758.314	7.02
758.63	7.02
758.947	7.24
759.264	7.39
759.58	7.49
759.896	7.41
760.213	7.36
760.529	7.46
760.846	7.37
761.162	7.51
761.478	7.68
761.794	7.72
762.11	7.53
762.426	7.68
762.743	7.7
763.059	7.6
763.375	7.48
763.69	7.54
764.006	7.72
764.322	7.62
764.638	7.64
764.954	7.42
765.27	7.41
765.585	7.33
765.901	7.67
766.216	7.65
766.532	7.44
766.848	7.59
767.163	7.62
767.478	7.6
767.794	7.55
768.109	7.53
768.424	7.4
768.74	7.73
769.055	7.91
769.37	7.98
769.685	7.94
770	7.92
770.315	7.98
770.63	7.69
770.945	8.26
771.26	8.31
771.575	8.34
771.89	8.65
772.205	8.91
772.52	8.53
772.834	8.37
773.149	8.57
773.464	8.79
773.778	8.48
774.093	8.27
774.407	8.33
774.722	8.39
775.036	8.25
775.351	8.23
775.665	7.68
775.979	7.48
776.293	7.47
776.608	7.51
776.922	7.58
777.236	7.7
777.55	6.83
777.864	7.21
778.178	6.83
778.492	6.57
778.806	6.46
779.12	6.28
779.434	6.83
779.747	7.07
780.061	7.05
780.375	7.48
780.689	7.61
781.002	7.95
781.316	7.69
781.629	7.82
781.943	7.57
782.256	7.76
782.57	7.97
782.883	8.38
783.196	8.43
783.51	8.16
783.823	8.02
784.136	8.55
784.449	8.18
784.762	8.54
785.075	8.82
785.388	8.63
785.701	8.84
786.014	8.4
786.327	8.4
786.64	8.77
786.953	8.67
787.266	8.79
787.578	8.09
787.891	8.26
788.204	8.48
788.516	8.42
788.829	8.68
789.141	8.99
789.454	9.01
789.766	9.1
790.079	9.1
790.391	8.92
790.703	8.95
791.016	8.98
791.328	8.92
791.64	8.63
791.952	8.83
792.264	8.88
792.576	9.33
792.888	9.35
793.2	8.72
793.512	8.53
793.824	8.35
794.136	8.53
794.448	8.69
794.76	8.38
795.071	8.72
795.383	8.82
795.695	8.63
796.006	7.97
796.318	8.24
796.629	8.23
796.941	8.56
797.252	8.86
797.564	9.23
797.875	9.55
798.186	9.86
798.497	9.07
798.809	9.39
799.12	9.23
799.431	9.07
799.742	9.6
800.053	9.41
800.364	9.86
800.675	10.19
800.986	10.38
801.297	10.26
801.608	9.94
801.918	9.48
802.229	9.28
802.54	9.45
802.851	9.28
803.161	9.57
803.472	9.69
803.782	9.95
804.093	9.31
804.403	9.09
804.714	8.95
805.024	9.2
805.334	8.62
805.645	8.25
805.955	8.71
806.265	7.9
806.575	8.48
806.885	8.29
807.195	8.27
807.505	7.71
807.815	8.55
808.125	8.68
808.435	9.07
808.745	9.43
809.055	9.58
809.365	9.45
809.674	9.52
809.984	9.32
810.294	8.68
810.603	8.76
810.913	8.79
811.222	8.25
811.532	9.04
811.841	9.87
812.151	9.88
812.46	9.39
812.769	9.6
813.079	10.08
813.388	10.25
813.697	9.85
814.006	9.85
814.315	9.68
814.624	9.11
814.933	9.15
815.242	8.72
815.551	9.25
815.86	10.01
816.169	9.32
816.478	9.13
816.786	9.09
817.095	9.47
817.404	9.4
817.712	9.82
818.021	9.83
818.33	9.59
818.638	9.64
818.947	9.81
819.255	9.61
819.563	9.01
819.872	8.69
820.18	8.63
820.488	9.01
820.796	8.93
821.105	9.36
821.413	9.31
821.721	9.3
822.029	9.09
822.337	8.86
822.645	9.16
822.953	9.19
823.26	9.14
823.568	9.03
823.876	8.92
824.184	9.05
824.491	8.94
824.799	8.84
825.107	8.97
825.414	8.95
825.722	8.93
826.029	9.09
826.337	9.22
826.644	9.39
826.951	9.37
827.259	9.44
827.566	9.29
827.873	9.25
828.18	9.46
828.488	9.71
828.795	9.93
829.102	9.86
829.409	9.8
829.716	10.04
830.023	10.14
830.329	10.62
830.636	10.34
830.943	10.44
831.25	10.71
831.557	10.56
831.863	10.57
832.17	10.96
832.476	10.74
832.783	10.49
833.089	10.21
833.396	10.18
833.702	10.23
834.009	10.96
834.315	11.54
834.621	11.54
834.928	11.2
835.234	11
835.54	11.17
835.846	11.57
836.152	11.47
836.458	11.84
836.764	11.84
837.07	12.01
837.376	12.49
837.682	12.78
837.988	13.18
838.293	13.75
838.599	13.59
838.905	14.34
839.211	14.77
839.516	16.38
839.822	16.97
840.127	17.17
840.433	16.35
840.738	16.01
841.044	14.81
841.349	15.32
841.654	15.08
841.959	15.26
842.265	15.27
842.57	15.58
842.875	15.35
843.18	15.44
843.485	15.35
843.79	14.8
844.095	14.01
844.4	13.66
844.705	12.66
845.01	13.97
845.315	12.78
845.619	13.45
845.924	11.03
846.229	10.37
846.533	10.77
846.838	11.01
847.142	10.81
847.447	12.34
847.751	11.76
848.056	13.32
848.36	14.1
848.664	14.78
848.969	14.29
849.273	13.7
849.577	12.6
849.881	12.84
850.185	11.87
850.489	12.18
850.794	10.57
851.097	10.87
851.401	8.56
851.705	10.27
852.009	10.06
852.313	10.73
852.617	12.58
852.92	13.08
853.224	11.61
853.528	9.13
853.831	10.53
854.135	11.87
854.438	11.36
854.742	9.2
855.045	8.81
855.349	10.09
855.652	10.16
855.955	9.82
856.259	11.55
856.562	13.98
856.865	13.26
857.168	15.63
857.471	16.55
857.774	17.27
858.077	15.23
858.38	15.83
858.683	16.18
858.986	13.21
859.289	11.77
859.592	14.14
859.894	16.52
860.197	12.91
860.5	13.48
860.802	13.38
861.105	15.59
861.407	16.55
861.71	14.81
862.012	15.3
862.315	15.61
862.617	14.17
862.919	12.98
863.222	14.01
863.524	13.64
863.826	12.34
864.128	12.22
864.43	13.08
864.732	11.65
865.034	12.46
865.336	14.21
865.638	12.63
865.94	11.81
866.242	11.56
866.544	13.85
866.846	14.32
867.147	13.26
867.449	10.73
867.751	9.87
868.052	11.05
868.354	11.04
868.655	11.67
868.957	12.18
869.258	11.3
869.56	10.19
869.861	7.5
870.162	7.33
870.463	6.06
870.765	3.53
871.066	4.31
871.367	1.7
871.668	-0.1
871.969	0.98
872.27	1.39
872.571	1.17
872.872	3.08
873.173	0.55
873.473	1.63
873.774	1.23
874.075	0.3
874.376	-0.76
874.676	1.75
874.977	4.21
875.277	3.49
875.578	5.21
875.878	5.96
876.179	8.36
876.479	8.77
876.78	10.96
877.08	14.65
877.38	13.75
877.68	17.35
877.981	20.22
878.281	21.44
878.581	21.21
