Data from MVZ_BU95633_Reflection_00004.txt Node
Date: Tue Nov 19 12:21:02 EST 2019
User: vgr7
Spectrometer: USB2G7710
Scans to average: 3
Trigger mode: 4
Integration Time (sec): 2.000000E-2
Electric dark correction enabled: true
Boxcar width: 10
XAxis mode: Wavelengths
Number of Pixels in Spectrum: 2048
>>>>>Begin Spectral Data<<<<<
177.721	-9.94
178.105	-47.34
178.488	-68.45
178.871	-296.67
179.254	93.94
179.636	-36.82
180.019	-182.05
180.402	-71.43
180.785	-135.09
181.168	38.23
181.55	37.38
181.933	43.53
182.316	76.36
182.698	66.26
183.081	129.35
183.463	98.16
183.846	29.04
184.228	36.19
184.611	29.61
184.993	33.33
185.376	-88.03
185.758	-630.16
186.14	109.52
186.522	20.96
186.904	40.23
187.287	154.26
187.669	36.94
188.051	36.25
188.433	-7.47
188.815	-17.93
189.197	1.44
189.579	13.39
189.961	17.66
190.342	32.68
190.724	23.52
191.106	46.55
191.488	42.66
191.869	8.38
192.251	16.79
192.633	40.15
193.014	48.97
193.396	39.03
193.777	12.05
194.159	13.71
194.54	25.54
194.922	22.27
195.303	37.57
195.684	23.9
196.065	21.72
196.447	60.14
196.828	101.1
197.209	69.22
197.59	55.14
197.971	62.25
198.352	57.31
198.733	46.74
199.114	30.96
199.495	12.37
199.876	10.95
200.257	10.29
200.638	-10.16
201.018	-4.9
201.399	11.08
201.78	29.17
202.16	40.59
202.541	28.54
202.922	20.76
203.302	16.54
203.683	24.94
204.063	15.63
204.444	16
204.824	12.69
205.204	20.84
205.585	23.86
205.965	18.54
206.345	6.78
206.725	15.77
207.106	27.83
207.486	29.45
207.866	30.27
208.246	29.65
208.626	23.97
209.006	11.6
209.386	-2.12
209.766	-3.42
210.145	-4.96
210.525	7.64
210.905	6.76
211.285	11.09
211.664	11.41
212.044	17.47
212.424	24.59
212.803	23.73
213.183	29.68
213.562	23.18
213.942	17.43
214.321	25.49
214.701	8.92
215.08	-13.71
215.459	2.84
215.838	8.1
216.218	-2.37
216.597	0.96
216.976	8
217.355	23.49
217.734	4.3
218.113	12.81
218.492	1.82
218.871	9.04
219.25	-3.05
219.629	-0.73
220.008	-0.64
220.387	-12.66
220.766	0.33
221.144	-8.22
221.523	9.19
221.902	8.53
222.28	12.1
222.659	23.7
223.037	32.6
223.416	33.03
223.794	21.9
224.173	24.48
224.551	26.21
224.929	14.35
225.308	11.95
225.686	18.49
226.064	12.3
226.442	15.46
226.821	11.28
227.199	12.3
227.577	8.93
227.955	9.44
228.333	4.13
228.711	-0.14
229.089	-0.63
229.467	-1.34
229.845	-0.19
230.222	-0.38
230.6	-1.71
230.978	-3.51
231.356	-4.02
231.733	-0.1
232.111	-0.58
232.488	-0.95
232.866	4.76
233.243	7.66
233.621	8.96
233.998	10.29
234.376	7.6
234.753	8.7
235.13	7.96
235.508	7.34
235.885	6.56
236.262	7.84
236.639	6.07
237.016	5.8
237.393	6.08
237.77	6.03
238.147	6.37
238.524	6.03
238.901	5.47
239.278	5.12
239.655	4.19
240.032	3.5
240.409	3.23
240.785	2.3
241.162	2.53
241.539	2.5
241.915	2.17
242.292	2.68
242.668	2.88
243.045	3.43
243.421	4.11
243.798	4.2
244.174	4.34
244.551	4.73
244.927	4.58
245.303	4.06
245.679	3.99
246.056	4.02
246.432	3.94
246.808	4.08
247.184	4.06
247.56	4.03
247.936	4.36
248.312	4.59
248.688	4.77
249.064	4.45
249.44	4.38
249.815	4.63
250.191	4.52
250.567	4.21
250.943	4.09
251.318	3.74
251.694	3.7
252.069	3.83
252.445	3.89
252.82	4.19
253.196	4.42
253.571	4.41
253.947	4.22
254.322	4.57
254.697	4.69
255.073	4.46
255.448	4.83
255.823	4.87
256.198	4.29
256.573	4.19
256.948	4.47
257.323	4.4
257.698	4.14
258.073	4.38
258.448	4.65
258.823	4.55
259.198	4.73
259.573	4.51
259.948	4.27
260.322	4.03
260.697	3.93
261.072	3.83
261.446	3.88
261.821	3.94
262.195	3.85
262.57	3.72
262.944	3.71
263.319	3.65
263.693	3.55
264.067	3.82
264.442	3.86
264.816	3.64
265.19	3.47
265.564	3.35
265.938	3.07
266.313	2.85
266.687	2.81
267.061	2.75
267.435	2.98
267.809	3.2
268.183	3.37
268.556	3.25
268.93	3.55
269.304	3.48
269.678	3.51
270.051	3.48
270.425	3.72
270.799	3.74
271.172	3.6
271.546	3.74
271.919	3.64
272.293	3.54
272.666	3.61
273.04	3.6
273.413	3.66
273.787	3.7
274.16	3.78
274.533	3.93
274.906	4
275.279	3.99
275.653	4.11
276.026	4.02
276.399	4.21
276.772	4.02
277.145	4.11
277.518	4.05
277.891	4
278.263	3.86
278.636	4.11
279.009	4.13
279.382	4.2
279.755	4.22
280.127	4.36
280.5	4.25
280.872	4.48
281.245	4.52
281.617	4.66
281.99	4.65
282.362	4.54
282.735	4.29
283.107	4.36
283.479	4.21
283.852	4.26
284.224	4.24
284.596	4.32
284.968	4.27
285.34	4.22
285.713	4.23
286.085	4.13
286.457	4.05
286.829	3.99
287.201	3.81
287.572	3.81
287.944	3.8
288.316	3.83
288.688	3.69
289.06	3.66
289.431	3.65
289.803	3.56
290.175	3.61
290.546	3.72
290.918	3.57
291.289	3.47
291.661	3.5
292.032	3.5
292.403	3.41
292.775	3.55
293.146	3.61
293.517	3.69
293.889	3.72
294.26	3.66
294.631	3.82
295.002	3.94
295.373	4.03
295.744	4.06
296.115	4.08
296.486	4.08
296.857	4.21
297.228	4.17
297.599	4.27
297.97	4.29
298.34	4.33
298.711	4.33
299.082	4.31
299.452	4.28
299.823	4.22
300.194	4.4
300.564	4.21
300.935	4.26
301.305	4.19
301.676	4.14
302.046	4.22
302.416	4.08
302.787	4.01
303.157	3.85
303.527	3.87
303.897	3.85
304.267	3.81
304.637	3.7
305.008	3.68
305.378	3.58
305.748	3.49
306.117	3.48
306.487	3.51
306.857	3.59
307.227	3.57
307.597	3.58
307.967	3.49
308.336	3.52
308.706	3.55
309.076	3.6
309.445	3.8
309.815	3.73
310.184	3.69
310.554	3.64
310.923	3.74
311.293	3.62
311.662	3.51
312.031	3.54
312.401	3.47
312.77	3.38
313.139	3.61
313.508	3.51
313.877	3.48
314.246	3.5
314.616	3.47
314.985	3.3
315.353	3.17
315.722	3.14
316.091	3.19
316.46	3.16
316.829	3.13
317.198	3.05
317.567	3.15
317.935	3.34
318.304	3.49
318.672	3.42
319.041	3.54
319.41	3.66
319.778	3.59
320.147	3.66
320.515	3.71
320.883	3.52
321.252	3.7
321.62	3.7
321.988	3.74
322.357	3.79
322.725	4.11
323.093	4.25
323.461	4.3
323.829	4.19
324.197	4.11
324.565	4.11
324.933	4.07
325.301	4.02
325.669	3.87
326.037	3.85
326.405	3.72
326.772	3.59
327.14	3.53
327.508	3.57
327.875	3.47
328.243	3.43
328.61	3.32
328.978	3.2
329.346	3.07
329.713	3.03
330.08	3.12
330.448	3.01
330.815	2.91
331.182	2.89
331.55	2.93
331.917	2.98
332.284	3.13
332.651	3.02
333.018	3.02
333.385	3.06
333.752	3.02
334.119	3.21
334.486	3.2
334.853	3.2
335.22	3.25
335.587	3.34
335.954	3.36
336.32	3.43
336.687	3.59
337.054	3.67
337.42	3.62
337.787	3.51
338.153	3.59
338.52	3.67
338.886	3.57
339.253	3.59
339.619	3.6
339.986	3.47
340.352	3.65
340.718	3.58
341.084	3.54
341.451	3.62
341.817	3.57
342.183	3.66
342.549	3.62
342.915	3.65
343.281	3.67
343.647	3.68
344.013	3.67
344.379	3.59
344.745	3.64
345.11	3.7
345.476	3.76
345.842	3.67
346.208	3.78
346.573	3.79
346.939	3.75
347.304	3.77
347.67	3.71
348.035	3.66
348.401	3.68
348.766	3.68
349.132	3.65
349.497	3.66
349.862	3.61
350.228	3.67
350.593	3.66
350.958	3.75
351.323	3.75
351.688	3.87
352.053	3.79
352.418	3.75
352.783	3.75
353.148	3.74
353.513	3.64
353.878	3.58
354.243	3.55
354.608	3.66
354.972	3.57
355.337	3.66
355.702	3.65
356.066	3.67
356.431	3.63
356.795	3.5
357.16	3.52
357.524	3.44
357.889	3.44
358.253	3.4
358.618	3.33
358.982	3.27
359.346	3.21
359.71	3.28
360.075	3.37
360.439	3.36
360.803	3.42
361.167	3.51
361.531	3.47
361.895	3.52
362.259	3.48
362.623	3.5
362.987	3.52
363.351	3.43
363.714	3.41
364.078	3.5
364.442	3.6
364.806	3.64
365.169	3.7
365.533	3.69
365.896	3.71
366.26	3.67
366.623	3.71
366.987	3.67
367.35	3.63
367.714	3.64
368.077	3.69
368.44	3.65
368.803	3.58
369.167	3.53
369.53	3.51
369.893	3.5
370.256	3.41
370.619	3.31
370.982	3.31
371.345	3.35
371.708	3.32
372.071	3.24
372.434	3.21
372.797	3.22
373.159	3.25
373.522	3.25
373.885	3.23
374.247	3.26
374.61	3.31
374.973	3.31
375.335	3.25
375.698	3.15
376.06	3.13
376.423	3.18
376.785	3.29
377.147	3.32
377.51	3.3
377.872	3.37
378.234	3.44
378.596	3.44
378.958	3.43
379.321	3.43
379.683	3.47
380.045	3.42
380.407	3.41
380.769	3.39
381.13	3.39
381.492	3.42
381.854	3.44
382.216	3.45
382.578	3.43
382.939	3.45
383.301	3.46
383.663	3.45
384.024	3.45
384.386	3.42
384.747	3.38
385.109	3.41
385.47	3.42
385.832	3.38
386.193	3.4
386.554	3.35
386.916	3.32
387.277	3.32
387.638	3.36
387.999	3.32
388.36	3.34
388.721	3.38
389.082	3.38
389.443	3.35
389.804	3.34
390.165	3.4
390.526	3.4
390.887	3.42
391.248	3.42
391.609	3.42
391.969	3.36
392.33	3.35
392.691	3.33
393.051	3.32
393.412	3.37
393.772	3.4
394.133	3.43
394.493	3.48
394.854	3.46
395.214	3.46
395.574	3.49
395.935	3.46
396.295	3.45
396.655	3.45
397.015	3.48
397.376	3.49
397.736	3.43
398.096	3.36
398.456	3.4
398.816	3.4
399.176	3.4
399.535	3.4
399.895	3.45
400.255	3.46
400.615	3.47
400.975	3.48
401.334	3.44
401.694	3.44
402.054	3.43
402.413	3.42
402.773	3.43
403.132	3.44
403.492	3.45
403.851	3.45
404.211	3.44
404.57	3.42
404.929	3.42
405.288	3.48
405.648	3.49
406.007	3.44
406.366	3.44
406.725	3.4
407.084	3.44
407.443	3.43
407.802	3.43
408.161	3.44
408.52	3.39
408.879	3.38
409.238	3.4
409.596	3.37
409.955	3.4
410.314	3.36
410.673	3.33
411.031	3.33
411.39	3.31
411.748	3.34
412.107	3.32
412.465	3.36
412.824	3.32
413.182	3.38
413.54	3.42
413.899	3.44
414.257	3.48
414.615	3.47
414.974	3.49
415.332	3.47
415.69	3.45
416.048	3.46
416.406	3.46
416.764	3.46
417.122	3.45
417.48	3.45
417.838	3.47
418.195	3.49
418.553	3.49
418.911	3.49
419.269	3.48
419.626	3.49
419.984	3.45
420.342	3.47
420.699	3.46
421.057	3.45
421.414	3.47
421.772	3.48
422.129	3.46
422.486	3.44
422.844	3.46
423.201	3.47
423.558	3.48
423.915	3.5
424.273	3.49
424.63	3.5
424.987	3.49
425.344	3.5
425.701	3.49
426.058	3.51
426.415	3.5
426.772	3.5
427.128	3.51
427.485	3.53
427.842	3.5
428.199	3.51
428.555	3.52
428.912	3.49
429.269	3.46
429.625	3.49
429.982	3.49
430.338	3.51
430.695	3.49
431.051	3.5
431.407	3.48
431.764	3.49
432.12	3.49
432.476	3.51
432.832	3.52
433.189	3.53
433.545	3.52
433.901	3.54
434.257	3.54
434.613	3.52
434.969	3.5
435.325	3.53
435.681	3.53
436.036	3.54
436.392	3.53
436.748	3.55
437.104	3.55
437.459	3.56
437.815	3.54
438.171	3.55
438.526	3.53
438.882	3.54
439.237	3.53
439.593	3.54
439.948	3.51
440.304	3.49
440.659	3.48
441.014	3.48
441.369	3.49
441.725	3.5
442.08	3.5
442.435	3.51
442.79	3.5
443.145	3.48
443.5	3.47
443.855	3.47
444.21	3.46
444.565	3.47
444.92	3.47
445.275	3.47
445.629	3.47
445.984	3.48
446.339	3.48
446.693	3.51
447.048	3.49
447.403	3.52
447.757	3.52
448.112	3.52
448.466	3.52
448.82	3.51
449.175	3.5
449.529	3.51
449.883	3.5
450.238	3.52
450.592	3.53
450.946	3.52
451.3	3.53
451.654	3.52
452.008	3.5
452.362	3.5
452.716	3.51
453.07	3.49
453.424	3.49
453.778	3.47
454.132	3.43
454.486	3.45
454.839	3.46
455.193	3.47
455.547	3.49
455.9	3.5
456.254	3.51
456.607	3.52
456.961	3.52
457.314	3.53
457.668	3.52
458.021	3.53
458.375	3.52
458.728	3.55
459.081	3.58
459.434	3.58
459.787	3.6
460.141	3.58
460.494	3.6
460.847	3.59
461.2	3.6
461.553	3.61
461.906	3.61
462.259	3.59
462.611	3.57
462.964	3.56
463.317	3.56
463.67	3.56
464.022	3.55
464.375	3.54
464.728	3.57
465.08	3.56
465.433	3.57
465.785	3.6
466.138	3.59
466.49	3.57
466.843	3.56
467.195	3.57
467.547	3.58
467.899	3.57
468.252	3.59
468.604	3.6
468.956	3.62
469.308	3.6
469.66	3.63
470.012	3.65
470.364	3.68
470.716	3.69
471.068	3.7
471.42	3.7
471.772	3.71
472.123	3.7
472.475	3.71
472.827	3.71
473.178	3.68
473.53	3.68
473.882	3.69
474.233	3.71
474.585	3.68
474.936	3.7
475.288	3.7
475.639	3.71
475.99	3.69
476.342	3.7
476.693	3.72
477.044	3.69
477.395	3.67
477.746	3.66
478.097	3.67
478.448	3.68
478.8	3.68
479.15	3.68
479.501	3.68
479.852	3.7
480.203	3.69
480.554	3.69
480.905	3.7
481.255	3.68
481.606	3.69
481.957	3.7
482.307	3.69
482.658	3.7
483.009	3.69
483.359	3.7
483.709	3.7
484.06	3.69
484.41	3.7
484.761	3.72
485.111	3.71
485.461	3.71
485.811	3.71
486.162	3.71
486.512	3.71
486.862	3.71
487.212	3.69
487.562	3.69
487.912	3.68
488.262	3.68
488.612	3.7
488.961	3.7
489.311	3.7
489.661	3.7
490.011	3.69
490.36	3.7
490.71	3.69
491.06	3.68
491.409	3.7
491.759	3.7
492.108	3.67
492.458	3.68
492.807	3.66
493.157	3.67
493.506	3.68
493.855	3.67
494.204	3.67
494.554	3.69
494.903	3.7
495.252	3.7
495.601	3.7
495.95	3.7
496.299	3.68
496.648	3.68
496.997	3.69
497.346	3.71
497.695	3.71
498.043	3.72
498.392	3.74
498.741	3.73
499.09	3.73
499.438	3.77
499.787	3.76
500.135	3.79
500.484	3.8
500.832	3.8
501.181	3.81
501.529	3.83
501.878	3.84
502.226	3.85
502.574	3.85
502.923	3.84
503.271	3.83
503.619	3.86
503.967	3.86
504.315	3.83
504.663	3.83
505.011	3.85
505.359	3.83
505.707	3.84
506.055	3.83
506.403	3.82
506.751	3.79
507.098	3.82
507.446	3.82
507.794	3.81
508.141	3.81
508.489	3.81
508.837	3.8
509.184	3.79
509.531	3.8
509.879	3.8
510.226	3.81
510.574	3.84
510.921	3.84
511.268	3.83
511.616	3.87
511.963	3.89
512.31	3.91
512.657	3.93
513.004	3.93
513.351	3.93
513.698	3.95
514.045	3.97
514.392	3.95
514.739	3.98
515.086	3.99
515.432	4.01
515.779	4.01
516.126	4.05
516.473	4.07
516.819	4.11
517.166	4.14
517.512	4.11
517.859	4.11
518.205	4.12
518.552	4.12
518.898	4.11
519.245	4.11
519.591	4.1
519.937	4.11
520.283	4.13
520.629	4.11
520.976	4.11
521.322	4.12
521.668	4.14
522.014	4.14
522.36	4.14
522.706	4.12
523.052	4.14
523.398	4.09
523.743	4.09
524.089	4.06
524.435	4.06
524.781	4.09
525.126	4.09
525.472	4.11
525.817	4.13
526.163	4.13
526.509	4.13
526.854	4.13
527.199	4.12
527.545	4.12
527.89	4.12
528.235	4.12
528.581	4.11
528.926	4.11
529.271	4.09
529.616	4.1
529.961	4.11
530.306	4.11
530.651	4.12
530.996	4.14
531.341	4.15
531.686	4.17
532.031	4.16
532.376	4.16
532.721	4.15
533.065	4.14
533.41	4.15
533.755	4.15
534.099	4.17
534.444	4.17
534.788	4.17
535.133	4.18
535.477	4.19
535.822	4.2
536.166	4.21
536.51	4.22
536.855	4.21
537.199	4.21
537.543	4.21
537.887	4.22
538.231	4.19
538.576	4.19
538.92	4.16
539.264	4.17
539.608	4.18
539.951	4.15
540.295	4.16
540.639	4.17
540.983	4.16
541.327	4.16
541.671	4.17
542.014	4.19
542.358	4.18
542.701	4.17
543.045	4.17
543.389	4.18
543.732	4.17
544.075	4.19
544.419	4.2
544.762	4.19
545.105	4.19
545.449	4.21
545.792	4.22
546.135	4.24
546.478	4.23
546.821	4.25
547.165	4.27
547.508	4.28
547.851	4.29
548.194	4.31
548.536	4.31
548.879	4.3
549.222	4.29
549.565	4.3
549.908	4.3
550.25	4.32
550.593	4.29
550.936	4.31
551.278	4.3
551.621	4.27
551.963	4.31
552.306	4.27
552.648	4.29
552.991	4.25
553.333	4.23
553.675	4.25
554.017	4.24
554.36	4.23
554.702	4.21
555.044	4.19
555.386	4.17
555.728	4.18
556.07	4.15
556.412	4.18
556.754	4.17
557.096	4.17
557.438	4.16
557.78	4.17
558.121	4.15
558.463	4.15
558.805	4.18
559.147	4.18
559.488	4.17
559.83	4.16
560.171	4.17
560.513	4.23
560.854	4.19
561.196	4.19
561.537	4.21
561.878	4.22
562.22	4.21
562.561	4.23
562.902	4.2
563.243	4.21
563.584	4.19
563.925	4.27
564.266	4.29
564.607	4.27
564.948	4.27
565.289	4.29
565.63	4.27
565.971	4.25
566.312	4.23
566.653	4.25
566.993	4.27
567.334	4.29
567.675	4.26
568.015	4.26
568.356	4.24
568.696	4.25
569.037	4.22
569.377	4.21
569.718	4.2
570.058	4.22
570.398	4.23
570.739	4.23
571.079	4.14
571.419	4.11
571.759	4.11
572.099	4.13
572.439	4.11
572.779	4.13
573.119	4.14
573.459	4.16
573.799	4.15
574.139	4.14
574.479	4.13
574.819	4.12
575.158	4.12
575.498	4.15
575.838	4.12
576.177	4.12
576.517	4.12
576.856	4.14
577.196	4.13
577.535	4.12
577.875	4.13
578.214	4.18
578.553	4.21
578.893	4.23
579.232	4.25
579.571	4.26
579.91	4.26
580.25	4.28
580.589	4.26
580.928	4.29
581.267	4.28
581.606	4.28
581.945	4.28
582.283	4.33
582.622	4.28
582.961	4.35
583.3	4.39
583.639	4.44
583.977	4.41
584.316	4.39
584.654	4.41
584.993	4.39
585.332	4.38
585.67	4.37
586.008	4.32
586.347	4.3
586.685	4.29
587.024	4.29
587.362	4.28
587.7	4.31
588.038	4.31
588.376	4.31
588.715	4.34
589.053	4.35
589.391	4.35
589.729	4.42
590.067	4.38
590.404	4.39
590.742	4.36
591.08	4.4
591.418	4.45
591.756	4.46
592.093	4.42
592.431	4.47
592.769	4.43
593.106	4.45
593.444	4.49
593.781	4.5
594.119	4.49
594.456	4.5
594.793	4.48
595.131	4.48
595.468	4.51
595.805	4.51
596.143	4.51
596.48	4.5
596.817	4.44
597.154	4.45
597.491	4.45
597.828	4.44
598.165	4.42
598.502	4.37
598.839	4.36
599.176	4.39
599.512	4.38
599.849	4.42
600.186	4.41
600.523	4.39
600.859	4.43
601.196	4.46
601.532	4.43
601.869	4.44
602.205	4.45
602.542	4.45
602.878	4.44
603.215	4.45
603.551	4.41
603.887	4.45
604.223	4.44
604.56	4.44
604.896	4.47
605.232	4.46
605.568	4.48
605.904	4.45
606.24	4.47
606.576	4.48
606.912	4.49
607.248	4.52
607.583	4.51
607.919	4.47
608.255	4.44
608.591	4.43
608.926	4.43
609.262	4.38
609.597	4.35
609.933	4.36
610.268	4.36
610.604	4.37
610.939	4.33
611.275	4.32
611.61	4.29
611.945	4.24
612.281	4.25
612.616	4.25
612.951	4.3
613.286	4.33
613.621	4.3
613.956	4.28
614.291	4.25
614.626	4.28
614.961	4.34
615.296	4.39
615.631	4.43
615.966	4.42
616.3	4.45
616.635	4.47
616.97	4.46
617.304	4.47
617.639	4.47
617.973	4.47
618.308	4.49
618.642	4.5
618.977	4.54
619.311	4.53
619.646	4.54
619.98	4.55
620.314	4.51
620.648	4.52
620.983	4.52
621.317	4.52
621.651	4.5
621.985	4.49
622.319	4.43
622.653	4.45
622.987	4.44
623.321	4.54
623.655	4.56
623.988	4.52
624.322	4.54
624.656	4.6
624.99	4.64
625.323	4.67
625.657	4.68
625.99	4.7
626.324	4.76
626.657	4.79
626.991	4.8
627.324	4.81
627.658	4.77
627.991	4.76
628.324	4.76
628.657	4.77
628.991	4.78
629.324	4.85
629.657	4.83
629.99	4.86
630.323	4.81
630.656	4.79
630.989	4.8
631.322	4.81
631.655	4.75
631.987	4.71
632.32	4.73
632.653	4.73
632.986	4.74
633.318	4.72
633.651	4.65
633.984	4.64
634.316	4.64
634.649	4.7
634.981	4.78
635.313	4.82
635.646	4.89
635.978	4.92
636.31	4.9
636.643	4.87
636.975	4.91
637.307	4.89
637.639	4.92
637.971	4.96
638.303	4.93
638.635	5
638.967	5.06
639.299	4.98
639.631	4.98
639.963	4.95
640.295	4.94
640.626	4.97
640.958	4.97
641.29	4.98
641.621	4.96
641.953	4.88
642.285	4.82
642.616	4.8
642.948	4.76
643.279	4.76
643.61	4.81
643.942	4.81
644.273	4.84
644.604	4.82
644.936	4.78
645.267	4.76
645.598	4.68
645.929	4.69
646.26	4.76
646.591	4.81
646.922	4.84
647.253	4.81
647.584	4.87
647.915	4.89
648.245	4.92
648.576	4.95
648.907	5.02
649.238	5.04
649.568	4.98
649.899	5.01
650.229	5.01
650.56	4.99
650.89	4.98
651.221	4.97
651.551	4.94
651.882	5
652.212	5.05
652.542	5.13
652.872	5.13
653.203	5.17
653.533	5.16
653.863	5.16
654.193	5.17
654.523	5.1
654.853	5.16
655.183	5.12
655.513	5.13
655.843	5.16
656.172	5.2
656.502	5.24
656.832	5.22
657.162	5.15
657.491	5.15
657.821	5.13
658.15	5.16
658.48	5.24
658.809	5.15
659.139	5.11
659.468	5.14
659.798	5.14
660.127	5.14
660.456	5.11
660.785	5.1
661.115	5.14
661.444	5.21
661.773	5.18
662.102	5.19
662.431	5.17
662.76	5.11
663.089	5.11
663.418	5.08
663.747	5.07
664.076	5.19
664.404	5.28
664.733	5.33
665.062	5.29
665.39	5.15
665.719	5.23
666.048	5.22
666.376	5.24
666.705	5.24
667.033	5.25
667.362	5.23
667.69	5.2
668.018	5.14
668.347	5.11
668.675	5.11
669.003	5.13
669.331	5.17
669.659	5.14
669.987	5.17
670.315	5.26
670.643	5.23
670.971	5.19
671.299	5.19
671.627	5.17
671.955	5.14
672.283	5.12
672.61	5.12
672.938	5.18
673.266	5.08
673.593	4.99
673.921	4.99
674.249	5.04
674.576	5.06
674.904	5.07
675.231	5.06
675.558	5.04
675.886	5.03
676.213	4.95
676.54	5.01
676.867	4.9
677.195	4.89
677.522	5.03
677.849	5.05
678.176	5.01
678.503	5.03
678.83	5.04
679.157	5.17
679.484	5.18
679.81	5.18
680.137	5.27
680.464	5.35
680.791	5.25
681.117	5.27
681.444	5.23
681.771	5.21
682.097	5.21
682.424	5.17
682.75	5.22
683.077	5.26
683.403	5.29
683.729	5.32
684.056	5.3
684.382	5.29
684.708	5.22
685.034	5.19
685.36	5.12
685.686	5.11
686.012	5.05
686.339	5.02
686.664	5.05
686.99	4.93
687.316	4.91
687.642	4.99
687.968	5.01
688.294	5.03
688.619	5.05
688.945	5.07
689.271	5.14
689.596	5.14
689.922	5.07
690.247	5.01
690.573	5.07
690.898	5.14
691.224	5.01
691.549	5.05
691.874	5.12
692.2	5.19
692.525	5.2
692.85	5.32
693.175	5.38
693.5	5.27
693.825	5.43
694.15	5.46
694.475	5.41
694.8	5.37
695.125	5.32
695.45	5.28
695.775	5.3
696.099	5.37
696.424	5.34
696.749	5.4
697.073	5.41
697.398	5.48
697.723	5.39
698.047	5.43
698.372	5.43
698.696	5.36
699.02	5.29
699.345	5.41
699.669	5.41
699.993	5.4
700.318	5.42
700.642	5.29
700.966	5.25
701.29	5.28
701.614	5.44
701.938	5.47
702.262	5.52
702.586	5.53
702.91	5.5
703.234	5.52
703.557	5.57
703.881	5.56
704.205	5.48
704.529	5.57
704.852	5.53
705.176	5.63
705.499	5.82
705.823	5.87
706.146	5.68
706.47	5.61
706.793	5.64
707.117	5.76
707.44	5.89
707.763	5.91
708.086	5.96
708.409	5.87
708.733	5.76
709.056	5.79
709.379	5.85
709.702	5.83
710.025	5.8
710.348	5.71
710.671	5.85
710.993	5.8
711.316	5.76
711.639	5.75
711.962	5.67
712.284	5.71
712.607	5.8
712.93	5.96
713.252	5.98
713.575	6.02
713.897	6
714.22	5.96
714.542	6.03
714.864	5.95
715.187	5.76
715.509	5.84
715.831	5.78
716.153	5.61
716.475	5.72
716.798	5.77
717.12	5.89
717.442	5.73
717.764	5.78
718.085	5.84
718.407	5.87
718.729	5.8
719.051	5.79
719.373	5.71
719.695	5.57
720.016	5.47
720.338	5.42
720.659	5.48
720.981	5.52
721.302	5.61
721.624	5.7
721.945	5.85
722.267	5.91
722.588	5.99
722.909	6.18
723.231	5.91
723.552	5.85
723.873	5.84
724.194	5.96
724.515	6.09
724.836	6.03
725.157	6.02
725.478	5.97
725.799	5.88
726.12	5.94
726.441	6.15
726.762	6.29
727.083	6.4
727.403	6.46
727.724	6.4
728.045	6.33
728.365	6.28
728.686	6.4
729.006	6.41
729.327	6.75
729.647	6.82
729.967	6.8
730.288	6.73
730.608	6.77
730.928	6.73
731.249	6.65
731.569	6.59
731.889	6.73
732.209	6.79
732.529	6.64
732.849	6.62
733.169	6.39
733.489	6.38
733.809	6.29
734.129	6.24
734.448	6.44
734.768	6.39
735.088	6.35
735.408	6.13
735.727	6.24
736.047	5.99
736.366	5.92
736.686	6.19
737.005	6.34
737.325	6.11
737.644	5.95
737.963	5.96
738.283	5.94
738.602	5.83
738.921	6.09
739.24	6.25
739.56	6.22
739.879	6.26
740.198	6.37
740.517	6.54
740.836	6.58
741.155	6.49
741.473	6.47
741.792	6.6
742.111	6.95
742.43	7.13
742.748	7.1
743.067	7.07
743.386	6.89
743.704	6.89
744.023	7.14
744.341	7.29
744.66	7.24
744.978	7.07
745.297	7.13
745.615	7.04
745.933	7.03
746.252	7.13
746.57	7.34
746.888	7.34
747.206	7.35
747.524	7.69
747.842	7.48
748.16	7.55
748.478	7.55
748.796	7.41
749.114	7.27
749.432	7.41
749.749	7.57
750.067	7.43
750.385	7.39
750.703	7.32
751.02	7.48
751.338	7.32
751.655	7.73
751.973	7.78
752.29	7.44
752.608	7.52
752.925	7.64
753.242	7.52
753.56	7.25
753.877	7.09
754.194	6.69
754.511	6.93
754.828	6.71
755.145	6.93
755.462	6.89
755.779	6.85
756.096	6.9
756.413	6.71
756.73	6.79
757.047	7.05
757.364	7.38
757.68	7.42
757.997	7.61
758.314	7.78
758.63	7.85
758.947	8.11
759.264	8.07
759.58	8.23
759.896	8.35
760.213	8.58
760.529	8.52
760.846	8.49
761.162	8.36
761.478	8.58
761.794	8.45
762.11	8.48
762.426	8.18
762.743	8.15
763.059	8.34
763.375	8.58
763.69	8.42
764.006	8.16
764.322	8.26
764.638	8.33
764.954	8.12
765.27	8.1
765.585	8.22
765.901	8.27
766.216	8.13
766.532	7.98
766.848	8
767.163	8.08
767.478	8.13
767.794	8.06
768.109	7.87
768.424	8.02
768.74	7.85
769.055	8.25
769.37	8.09
769.685	8.03
770	7.92
770.315	8.06
770.63	8.42
770.945	8.25
771.26	8.04
771.575	8.09
771.89	8.29
772.205	8.2
772.52	7.97
772.834	8
773.149	8.1
773.464	8.38
773.778	8.32
774.093	8.05
774.407	8.33
774.722	8.26
775.036	8.08
775.351	8.49
775.665	8.21
775.979	8.34
776.293	8.32
776.608	8.36
776.922	8.1
777.236	7.78
777.55	7.68
777.864	7.86
778.178	7.77
778.492	7.3
778.806	7.5
779.12	7.7
779.434	7.63
779.747	7.86
780.061	7.38
780.375	7.47
780.689	7.84
781.002	7.6
781.316	8.22
781.629	8
781.943	7.87
782.256	7.77
782.57	8.02
782.883	8.21
783.196	8.19
783.51	8.31
783.823	8.59
784.136	8.67
784.449	8.73
784.762	8.78
785.075	8.93
785.388	8.75
785.701	8.96
786.014	9
786.327	8.92
786.64	9.39
786.953	9.35
787.266	9.51
787.578	9.48
787.891	9.11
788.204	9.25
788.516	9.2
788.829	9.5
789.141	9.32
789.454	8.8
789.766	9.11
790.079	9.39
790.391	8.81
790.703	8.69
791.016	9.06
791.328	8.84
791.64	8.85
791.952	9.01
792.264	8.98
792.576	9.18
792.888	9.5
793.2	9.46
793.512	9.05
793.824	8.88
794.136	9
794.448	9.12
794.76	9.35
795.071	9.33
795.383	9.5
795.695	9.11
796.006	9.08
796.318	8.8
796.629	8.15
796.941	8.74
797.252	8.85
797.564	8.57
797.875	8.49
798.186	8.32
798.497	8.05
798.809	7.77
799.12	7.57
799.431	7.34
799.742	6.75
800.053	7.45
800.364	7.35
800.675	7.83
800.986	7.87
801.297	7.39
801.608	7.06
801.918	7.36
802.229	8.06
802.54	8.22
802.851	7.8
803.161	8.54
803.472	8.37
803.782	8.49
804.093	8.2
804.403	8.67
804.714	9.47
805.024	9.32
805.334	9.05
805.645	9.28
805.955	9.46
806.265	9.61
806.575	9.38
806.885	9.47
807.195	9.1
807.505	8.78
807.815	9.76
808.125	9.71
808.435	9.12
808.745	9.13
809.055	9.47
809.365	10.55
809.674	10.24
809.984	11.04
810.294	11.37
810.603	11.23
810.913	11.02
811.222	9.75
811.532	9.73
811.841	10.63
812.151	10.29
812.46	10.69
812.769	10.37
813.079	10.71
813.388	10.98
813.697	10.32
814.006	10.65
814.315	10.44
814.624	11.08
814.933	11.24
815.242	10.73
815.551	10.77
815.86	9.94
816.169	9.45
816.478	8.43
816.786	8.35
817.095	9.11
817.404	9.33
817.712	9.73
818.021	9.99
818.33	9.76
818.638	9.57
818.947	9.26
819.255	9.82
819.563	9.07
819.872	8.59
820.18	8.96
820.488	9.05
820.796	8.88
821.105	8.93
821.413	9.29
821.721	9.21
822.029	9.19
822.337	9.17
822.645	9.32
822.953	9.51
823.26	9.52
823.568	9.42
823.876	9.44
824.184	9.48
824.491	9.51
824.799	9.47
825.107	9.41
825.414	9.28
825.722	9.21
826.029	9.53
826.337	9.73
826.644	9.86
826.951	9.89
827.259	9.93
827.566	9.95
827.873	9.74
828.18	9.93
828.488	9.96
828.795	9.92
829.102	9.86
829.409	9.87
829.716	9.94
830.023	9.93
830.329	10.15
830.636	10.42
830.943	10.37
831.25	10.58
831.557	10.92
831.863	11.01
832.17	11.1
832.476	10.84
832.783	10.61
833.089	10.34
833.396	10.54
833.702	10.55
834.009	10.63
834.315	10.41
834.621	10.32
834.928	10.57
835.234	10.96
835.54	11.01
835.846	10.99
836.152	10.58
836.458	10.71
836.764	10.75
837.07	10.86
837.376	10.92
837.682	10.77
837.988	10.78
838.293	11.01
838.599	10.95
838.905	10.9
839.211	11.25
839.516	10.66
839.822	9.69
840.127	9.32
840.433	9.61
840.738	9.39
841.044	9.5
841.349	8.19
841.654	6.97
841.959	7.41
842.265	7.24
842.57	8.12
842.875	8.13
843.18	6.82
843.485	7.03
843.79	6.81
844.095	6.84
844.4	7.16
844.705	7.58
845.01	8.35
845.315	8.33
845.619	9.75
845.924	11.48
846.229	13.52
846.533	14.03
846.838	13.77
847.142	14.48
847.447	15.18
847.751	16.15
848.056	17.22
848.36	16.97
848.664	16.27
848.969	15.71
849.273	14.37
849.577	17.4
849.881	16.36
850.185	16.36
850.489	16.83
850.794	18.14
851.097	17.72
851.401	18.19
851.705	17.11
852.009	16.04
852.313	13.79
852.617	12.22
852.92	14.2
853.224	11.33
853.528	13.1
853.831	12.63
854.135	13.74
854.438	15.17
854.742	13.62
855.045	12.64
855.349	11.36
855.652	11.72
855.955	11.2
856.259	9.3
856.562	10.05
856.865	10.84
857.168	8.64
857.471	8.8
857.774	8.04
858.077	9.92
858.38	8.22
858.683	12.37
858.986	13.23
859.289	11.44
859.592	14.39
859.894	13.93
860.197	13.84
860.5	12.69
860.802	9.67
861.105	11.4
861.407	15.16
861.71	16.65
862.012	18.03
862.315	17.17
862.617	19.94
862.919	21.86
863.222	18.49
863.524	16.96
863.826	15.79
864.128	15.04
864.43	15.7
864.732	16.11
865.034	13.5
865.336	13.56
865.638	15.65
865.94	17.17
866.242	14.45
866.544	14.91
866.846	17
867.147	19.31
867.449	19.78
867.751	16.07
868.052	15.06
868.354	15.86
868.655	16.99
868.957	14.8
869.258	12.39
869.56	13.8
869.861	15.49
870.162	14.22
870.463	15.58
870.765	14.74
871.066	14.63
871.367	14.52
871.668	13.82
871.969	10.79
872.27	8.94
872.571	9.62
872.872	8.63
873.173	7.56
873.473	7.4
873.774	8.52
874.075	9.29
874.376	10.32
874.676	9.54
874.977	8.24
875.277	6.25
875.578	5.4
875.878	5.82
876.179	5.79
876.479	8.1
876.78	6.46
877.08	5.67
877.38	5.96
877.68	6.73
877.981	7.41
878.281	9.25
878.581	8.13
