Data from MVZ_BU78245_Reflection_00001.txt Node
Date: Tue Nov 19 12:00:59 EST 2019
User: vgr7
Spectrometer: USB2G7710
Scans to average: 3
Trigger mode: 4
Integration Time (sec): 2.000000E-2
Electric dark correction enabled: true
Boxcar width: 10
XAxis mode: Wavelengths
Number of Pixels in Spectrum: 2048
>>>>>Begin Spectral Data<<<<<
177.721	1315.91
178.105	766.67
178.488	-268.9
178.871	-5400
179.254	156.25
179.636	193.46
180.019	98.12
180.402	-225
180.785	-32.81
181.168	-63.93
181.55	-650
181.933	-228.13
182.316	197.22
182.698	127.78
183.081	-71.88
183.463	-0.65
183.846	-7.46
184.228	24.63
184.611	9.9
184.993	13.75
185.376	4.3
185.758	33.76
186.14	-15.91
186.522	27.33
186.904	14.58
187.287	-9.06
187.669	22.73
188.051	-14.96
188.433	-52.23
188.815	-59.94
189.197	-46.71
189.579	-51.29
189.961	-72.75
190.342	-77.25
190.724	-96.27
191.106	-78.29
191.488	-109.56
191.869	-114.74
192.251	-107.49
192.633	-90.73
193.014	-92.23
193.396	-76.52
193.777	-55.42
194.159	-53.89
194.54	-69.85
194.922	-58.97
195.303	-67.28
195.684	-84.73
196.065	-82.28
196.447	-66.45
196.828	-65.99
197.209	-66.88
197.59	-51.57
197.971	-50.74
198.352	-57.45
198.733	-52.55
199.114	-51.04
199.495	-46.48
199.876	-42.15
200.257	-47.67
200.638	-45.68
201.018	-37.53
201.399	-36.31
201.78	-38.47
202.16	-31.16
202.541	-10.29
202.922	-8.84
203.302	2.66
203.683	-0.67
204.063	3.52
204.444	-4.84
204.824	0.72
205.204	10.88
205.585	11.44
205.965	5.91
206.345	16.98
206.725	4.72
207.106	5.91
207.486	-0.91
207.866	13.22
208.246	12.11
208.626	-2.69
209.006	-16.58
209.386	-4.45
209.766	-17.92
210.145	-7.59
210.525	-25.38
210.905	-24.66
211.285	-20.24
211.664	-14.74
212.044	-13.92
212.424	-10.16
212.803	-17.61
213.183	-8.33
213.562	-3.97
213.942	1.57
214.321	10.23
214.701	8.11
215.08	29.74
215.459	43.95
215.838	51.97
216.218	64.72
216.597	89.23
216.976	123.89
217.355	107.18
217.734	109.02
218.113	120.72
218.492	149.68
218.871	138.33
219.25	126.1
219.629	111.36
220.008	110.36
220.387	85.56
220.766	70.65
221.144	30.25
221.523	22.01
221.902	22.85
222.28	24.43
222.659	35.83
223.037	11.34
223.416	19.27
223.794	13.55
224.173	9.54
224.551	8.19
224.929	-0.07
225.308	-4.26
225.686	3.15
226.064	-5.97
226.442	-7.91
226.821	-8.33
227.199	-10.44
227.577	-9.39
227.955	-8.3
228.333	-10.52
228.711	-7.06
229.089	-0.04
229.467	-0.11
229.845	-1.73
230.222	0.17
230.6	-4.05
230.978	1.23
231.356	-3.55
231.733	-2.4
232.111	-0.39
232.488	-2.93
232.866	2.42
233.243	3.91
233.621	3.16
233.998	6.56
234.376	7.87
234.753	6.96
235.13	6.17
235.508	9.87
235.885	7.95
236.262	7.34
236.639	6.15
237.016	2.07
237.393	1.51
237.77	2.44
238.147	2.71
238.524	4.36
238.901	2.76
239.278	2.44
239.655	2.3
240.032	2.22
240.409	2.79
240.785	2.04
241.162	1.82
241.539	1.45
241.915	0.94
242.292	0.74
242.668	1.69
243.045	2.34
243.421	2.45
243.798	3
244.174	3.21
244.551	3.6
244.927	4.01
245.303	4.06
245.679	3.58
246.056	3.57
246.432	3.42
246.808	3.92
247.184	4.11
247.56	4
247.936	3.77
248.312	3.83
248.688	3.8
249.064	3.73
249.44	3.55
249.815	3.56
250.191	3.62
250.567	3.66
250.943	3.51
251.318	3.11
251.694	2.74
252.069	2.89
252.445	2.7
252.82	2.47
253.196	2.51
253.571	3.11
253.947	2.93
254.322	2.86
254.697	2.32
255.073	2.35
255.448	2.34
255.823	2.8
256.198	2.53
256.573	2.85
256.948	3.06
257.323	3.32
257.698	3.45
258.073	3.44
258.448	3.36
258.823	3.32
259.198	3.58
259.573	3.41
259.948	3.54
260.322	3.45
260.697	3.66
261.072	3.6
261.446	3.47
261.821	3.32
262.195	3.19
262.57	3.27
262.944	3.33
263.319	3.32
263.693	3.25
264.067	3.47
264.442	3.6
264.816	3.4
265.19	3.4
265.564	3.46
265.938	3.47
266.313	3.42
266.687	3.58
267.061	3.35
267.435	3.84
267.809	3.44
268.183	3.43
268.556	3.18
268.93	3.24
269.304	3.25
269.678	3.44
270.051	3.56
270.425	3.47
270.799	3.33
271.172	3.44
271.546	3.52
271.919	3.43
272.293	3.28
272.666	3.43
273.04	3.4
273.413	3.33
273.787	3.36
274.16	3.24
274.533	3.2
274.906	3.41
275.279	3.22
275.653	3.43
276.026	3.6
276.399	3.62
276.772	3.65
277.145	3.74
277.518	3.66
277.891	3.74
278.263	3.85
278.636	4
279.009	3.99
279.382	3.83
279.755	3.73
280.127	3.73
280.5	3.62
280.872	3.75
281.245	3.54
281.617	3.6
281.99	3.65
282.362	3.68
282.735	3.56
283.107	3.45
283.479	3.33
283.852	3.16
284.224	3.35
284.596	3.38
284.968	3.33
285.34	3.32
285.713	3.37
286.085	3.36
286.457	3.35
286.829	3.34
287.201	3.39
287.572	3.37
287.944	3.52
288.316	3.56
288.688	3.61
289.06	3.77
289.431	3.69
289.803	3.84
290.175	3.79
290.546	3.88
290.918	3.95
291.289	3.89
291.661	4.05
292.032	3.86
292.403	3.85
292.775	3.88
293.146	3.9
293.517	3.88
293.889	4.01
294.26	4.02
294.631	4.08
295.002	4.01
295.373	4.18
295.744	3.96
296.115	4.01
296.486	3.98
296.857	3.9
297.228	3.92
297.599	3.72
297.97	3.73
298.34	3.65
298.711	3.66
299.082	3.76
299.452	3.73
299.823	3.8
300.194	3.85
300.564	3.84
300.935	3.78
301.305	3.66
301.676	3.52
302.046	3.49
302.416	3.32
302.787	3.2
303.157	3.16
303.527	3.23
303.897	3.02
304.267	2.82
304.637	2.97
305.008	3.07
305.378	3.3
305.748	3.29
306.117	3.34
306.487	3.5
306.857	3.5
307.227	3.49
307.597	3.46
307.967	3.39
308.336	3.36
308.706	3.49
309.076	3.69
309.445	3.73
309.815	3.74
310.184	3.83
310.554	4.02
310.923	3.89
311.293	3.88
311.662	4
312.031	4.09
312.401	3.96
312.77	3.89
313.139	3.67
313.508	3.57
313.877	3.52
314.246	3.41
314.616	3.51
314.985	3.48
315.353	3.62
315.722	3.67
316.091	3.65
316.46	3.5
316.829	3.49
317.198	3.49
317.567	3.63
317.935	3.77
318.304	3.73
318.672	3.74
319.041	3.61
319.41	3.53
319.778	3.56
320.147	3.65
320.515	3.59
320.883	3.59
321.252	3.63
321.62	3.79
321.988	3.78
322.357	3.78
322.725	3.81
323.093	3.6
323.461	3.78
323.829	3.93
324.197	4.07
324.565	3.92
324.933	3.81
325.301	3.63
325.669	3.41
326.037	3.46
326.405	3.47
326.772	3.68
327.14	3.72
327.508	3.63
327.875	3.5
328.243	3.45
328.61	3.6
328.978	3.59
329.346	3.53
329.713	3.58
330.08	3.51
330.448	3.5
330.815	3.62
331.182	3.4
331.55	3.21
331.917	3.11
332.284	3.01
332.651	3.16
333.018	3.15
333.385	3.3
333.752	3.31
334.119	3.41
334.486	3.31
334.853	3.27
335.22	3.28
335.587	3.44
335.954	3.58
336.32	3.58
336.687	3.61
337.054	3.62
337.42	3.55
337.787	3.47
338.153	3.4
338.52	3.43
338.886	3.5
339.253	3.44
339.619	3.52
339.986	3.46
340.352	3.38
340.718	3.5
341.084	3.43
341.451	3.47
341.817	3.44
342.183	3.45
342.549	3.62
342.915	3.66
343.281	3.64
343.647	3.67
344.013	3.61
344.379	3.63
344.745	3.54
345.11	3.54
345.476	3.6
345.842	3.67
346.208	3.73
346.573	3.7
346.939	3.82
347.304	3.86
347.67	3.94
348.035	3.95
348.401	3.76
348.766	3.78
349.132	3.75
349.497	3.8
349.862	3.75
350.228	3.73
350.593	3.69
350.958	3.8
351.323	3.7
351.688	3.82
352.053	3.81
352.418	3.81
352.783	3.83
353.148	3.8
353.513	3.76
353.878	3.71
354.243	3.63
354.608	3.64
354.972	3.62
355.337	3.71
355.702	3.72
356.066	3.89
356.431	3.91
356.795	3.9
357.16	3.84
357.524	3.87
357.889	3.81
358.253	3.77
358.618	3.67
358.982	3.7
359.346	3.58
359.71	3.53
360.075	3.55
360.439	3.59
360.803	3.66
361.167	3.63
361.531	3.55
361.895	3.61
362.259	3.6
362.623	3.58
362.987	3.55
363.351	3.47
363.714	3.39
364.078	3.4
364.442	3.4
364.806	3.48
365.169	3.44
365.533	3.36
365.896	3.43
366.26	3.43
366.623	3.42
366.987	3.46
367.35	3.5
367.714	3.45
368.077	3.45
368.44	3.4
368.803	3.37
369.167	3.44
369.53	3.47
369.893	3.48
370.256	3.44
370.619	3.35
370.982	3.38
371.345	3.43
371.708	3.39
372.071	3.36
372.434	3.25
372.797	3.32
373.159	3.38
373.522	3.32
373.885	3.33
374.247	3.34
374.61	3.36
374.973	3.43
375.335	3.51
375.698	3.46
376.06	3.45
376.423	3.55
376.785	3.49
377.147	3.49
377.51	3.46
377.872	3.55
378.234	3.63
378.596	3.7
378.958	3.74
379.321	3.69
379.683	3.72
380.045	3.72
380.407	3.76
380.769	3.74
381.13	3.74
381.492	3.74
381.854	3.71
382.216	3.7
382.578	3.7
382.939	3.68
383.301	3.67
383.663	3.72
384.024	3.64
384.386	3.66
384.747	3.59
385.109	3.58
385.47	3.56
385.832	3.56
386.193	3.54
386.554	3.5
386.916	3.56
387.277	3.47
387.638	3.51
387.999	3.52
388.36	3.54
388.721	3.56
389.082	3.58
389.443	3.61
389.804	3.59
390.165	3.56
390.526	3.55
390.887	3.54
391.248	3.52
391.609	3.58
391.969	3.59
392.33	3.61
392.691	3.64
393.051	3.63
393.412	3.59
393.772	3.61
394.133	3.62
394.493	3.63
394.854	3.7
395.214	3.7
395.574	3.62
395.935	3.65
396.295	3.63
396.655	3.62
397.015	3.61
397.376	3.63
397.736	3.63
398.096	3.64
398.456	3.67
398.816	3.69
399.176	3.62
399.535	3.63
399.895	3.63
400.255	3.62
400.615	3.63
400.975	3.63
401.334	3.63
401.694	3.63
402.054	3.63
402.413	3.6
402.773	3.62
403.132	3.68
403.492	3.64
403.851	3.68
404.211	3.7
404.57	3.73
404.929	3.71
405.288	3.74
405.648	3.73
406.007	3.72
406.366	3.7
406.725	3.75
407.084	3.8
407.443	3.83
407.802	3.82
408.161	3.83
408.52	3.84
408.879	3.83
409.238	3.82
409.596	3.85
409.955	3.86
410.314	3.83
410.673	3.83
411.031	3.81
411.39	3.83
411.748	3.84
412.107	3.8
412.465	3.8
412.824	3.79
413.182	3.79
413.54	3.8
413.899	3.8
414.257	3.82
414.615	3.77
414.974	3.75
415.332	3.79
415.69	3.77
416.048	3.8
416.406	3.82
416.764	3.83
417.122	3.82
417.48	3.83
417.838	3.82
418.195	3.83
418.553	3.85
418.911	3.82
419.269	3.82
419.626	3.84
419.984	3.84
420.342	3.84
420.699	3.84
421.057	3.85
421.414	3.86
421.772	3.86
422.129	3.87
422.486	3.87
422.844	3.86
423.201	3.88
423.558	3.87
423.915	3.88
424.273	3.89
424.63	3.89
424.987	3.88
425.344	3.9
425.701	3.88
426.058	3.88
426.415	3.9
426.772	3.88
427.128	3.87
427.485	3.88
427.842	3.88
428.199	3.9
428.555	3.89
428.912	3.86
429.269	3.84
429.625	3.86
429.982	3.87
430.338	3.9
430.695	3.86
431.051	3.86
431.407	3.83
431.764	3.81
432.12	3.8
432.476	3.82
432.832	3.82
433.189	3.81
433.545	3.81
433.901	3.8
434.257	3.82
434.613	3.81
434.969	3.82
435.325	3.82
435.681	3.83
436.036	3.84
436.392	3.85
436.748	3.87
437.104	3.86
437.459	3.87
437.815	3.86
438.171	3.87
438.526	3.89
438.882	3.89
439.237	3.89
439.593	3.91
439.948	3.91
440.304	3.9
440.659	3.92
441.014	3.93
441.369	3.96
441.725	3.96
442.08	3.97
442.435	3.98
442.79	3.97
443.145	3.98
443.5	3.97
443.855	3.97
444.21	3.98
444.565	3.98
444.92	3.98
445.275	3.97
445.629	3.97
445.984	3.95
446.339	3.98
446.693	3.99
447.048	3.98
447.403	3.99
447.757	3.99
448.112	3.97
448.466	3.99
448.82	3.97
449.175	3.97
449.529	3.98
449.883	3.95
450.238	3.95
450.592	3.95
450.946	3.96
451.3	3.95
451.654	3.94
452.008	3.94
452.362	3.94
452.716	3.93
453.07	3.93
453.424	3.95
453.778	3.93
454.132	3.95
454.486	3.96
454.839	3.97
455.193	3.99
455.547	4
455.9	4
456.254	4
456.607	4
456.961	3.99
457.314	4.01
457.668	4.02
458.021	4.01
458.375	4.01
458.728	4.03
459.081	4.01
459.434	4.01
459.787	4.01
460.141	4.03
460.494	4.04
460.847	4.05
461.2	4.06
461.553	4.05
461.906	4.05
462.259	4.04
462.611	4.04
462.964	4.03
463.317	4.01
463.67	4.02
464.022	4.01
464.375	4.03
464.728	4.04
465.08	4.02
465.433	4.02
465.785	4.04
466.138	4.04
466.49	4.05
466.843	4.07
467.195	4.07
467.547	4.03
467.899	4.05
468.252	4.05
468.604	4.05
468.956	4.04
469.308	4.02
469.66	4.04
470.012	4.02
470.364	4.01
470.716	4.02
471.068	4.02
471.42	4.05
471.772	4.04
472.123	4.04
472.475	4.07
472.827	4.1
473.178	4.09
473.53	4.1
473.882	4.11
474.233	4.09
474.585	4.1
474.936	4.1
475.288	4.07
475.639	4.03
475.99	4.04
476.342	4.03
476.693	4.06
477.044	4.05
477.395	4.04
477.746	4.05
478.097	4.04
478.448	4.07
478.8	4.04
479.15	4.05
479.501	4.04
479.852	4.03
480.203	4.03
480.554	4.03
480.905	4.04
481.255	4.05
481.606	4.07
481.957	4.06
482.307	4.07
482.658	4.09
483.009	4.1
483.359	4.1
483.709	4.1
484.06	4.1
484.41	4.1
484.761	4.11
485.111	4.11
485.461	4.12
485.811	4.11
486.162	4.11
486.512	4.12
486.862	4.12
487.212	4.12
487.562	4.12
487.912	4.12
488.262	4.12
488.612	4.11
488.961	4.1
489.311	4.1
489.661	4.1
490.011	4.09
490.36	4.09
490.71	4.09
491.06	4.09
491.409	4.09
491.759	4.08
492.108	4.08
492.458	4.09
492.807	4.09
493.157	4.09
493.506	4.1
493.855	4.09
494.204	4.09
494.554	4.09
494.903	4.11
495.252	4.1
495.601	4.11
495.95	4.14
496.299	4.14
496.648	4.15
496.997	4.17
497.346	4.19
497.695	4.21
498.043	4.22
498.392	4.21
498.741	4.23
499.09	4.23
499.438	4.26
499.787	4.25
500.135	4.23
500.484	4.24
500.832	4.25
501.181	4.27
501.529	4.28
501.878	4.32
502.226	4.31
502.574	4.32
502.923	4.29
503.271	4.29
503.619	4.3
503.967	4.3
504.315	4.3
504.663	4.3
505.011	4.27
505.359	4.25
505.707	4.28
506.055	4.26
506.403	4.28
506.751	4.26
507.098	4.29
507.446	4.29
507.794	4.31
508.141	4.31
508.489	4.28
508.837	4.26
509.184	4.24
509.531	4.24
509.879	4.22
510.226	4.23
510.574	4.25
510.921	4.25
511.268	4.24
511.616	4.24
511.963	4.24
512.31	4.22
512.657	4.23
513.004	4.22
513.351	4.24
513.698	4.25
514.045	4.26
514.392	4.23
514.739	4.23
515.086	4.22
515.432	4.23
515.779	4.26
516.126	4.28
516.473	4.28
516.819	4.27
517.166	4.3
517.512	4.29
517.859	4.29
518.205	4.3
518.552	4.31
518.898	4.31
519.245	4.32
519.591	4.34
519.937	4.35
520.283	4.36
520.629	4.34
520.976	4.34
521.322	4.35
521.668	4.34
522.014	4.34
522.36	4.37
522.706	4.37
523.052	4.38
523.398	4.37
523.743	4.37
524.089	4.39
524.435	4.38
524.781	4.4
525.126	4.37
525.472	4.38
525.817	4.37
526.163	4.36
526.509	4.35
526.854	4.35
527.199	4.36
527.545	4.37
527.89	4.37
528.235	4.37
528.581	4.37
528.926	4.38
529.271	4.39
529.616	4.38
529.961	4.38
530.306	4.37
530.651	4.38
530.996	4.39
531.341	4.39
531.686	4.4
532.031	4.39
532.376	4.41
532.721	4.4
533.065	4.4
533.41	4.41
533.755	4.43
534.099	4.43
534.444	4.43
534.788	4.42
535.133	4.43
535.477	4.43
535.822	4.43
536.166	4.43
536.51	4.44
536.855	4.44
537.199	4.45
537.543	4.44
537.887	4.43
538.231	4.43
538.576	4.42
538.92	4.42
539.264	4.44
539.608	4.44
539.951	4.44
540.295	4.44
540.639	4.44
540.983	4.44
541.327	4.46
541.671	4.47
542.014	4.48
542.358	4.48
542.701	4.5
543.045	4.5
543.389	4.5
543.732	4.51
544.075	4.5
544.419	4.49
544.762	4.51
545.105	4.53
545.449	4.54
545.792	4.56
546.135	4.54
546.478	4.55
546.821	4.57
547.165	4.59
547.508	4.59
547.851	4.6
548.194	4.61
548.536	4.6
548.879	4.59
549.222	4.57
549.565	4.55
549.908	4.52
550.25	4.49
550.593	4.52
550.936	4.5
551.278	4.54
551.621	4.53
551.963	4.53
552.306	4.53
552.648	4.5
552.991	4.49
553.333	4.5
553.675	4.51
554.017	4.49
554.36	4.53
554.702	4.52
555.044	4.52
555.386	4.51
555.728	4.54
556.07	4.52
556.412	4.52
556.754	4.53
557.096	4.53
557.438	4.54
557.78	4.52
558.121	4.54
558.463	4.53
558.805	4.54
559.147	4.51
559.488	4.48
559.83	4.52
560.171	4.52
560.513	4.54
560.854	4.54
561.196	4.52
561.537	4.49
561.878	4.52
562.22	4.55
562.561	4.55
562.902	4.51
563.243	4.53
563.584	4.55
563.925	4.57
564.266	4.62
564.607	4.63
564.948	4.63
565.289	4.62
565.63	4.61
565.971	4.65
566.312	4.63
566.653	4.65
566.993	4.64
567.334	4.65
567.675	4.67
568.015	4.65
568.356	4.63
568.696	4.64
569.037	4.63
569.377	4.61
569.718	4.63
570.058	4.64
570.398	4.62
570.739	4.63
571.079	4.61
571.419	4.6
571.759	4.6
572.099	4.58
572.439	4.58
572.779	4.56
573.119	4.53
573.459	4.55
573.799	4.54
574.139	4.53
574.479	4.52
574.819	4.52
575.158	4.54
575.498	4.58
575.838	4.55
576.177	4.51
576.517	4.51
576.856	4.48
577.196	4.47
577.535	4.5
577.875	4.48
578.214	4.47
578.553	4.45
578.893	4.49
579.232	4.5
579.571	4.52
579.91	4.54
580.25	4.53
580.589	4.56
580.928	4.6
581.267	4.61
581.606	4.6
581.945	4.56
582.283	4.52
582.622	4.47
582.961	4.5
583.3	4.5
583.639	4.49
583.977	4.52
584.316	4.57
584.654	4.57
584.993	4.6
585.332	4.63
585.67	4.67
586.008	4.68
586.347	4.7
586.685	4.68
587.024	4.68
587.362	4.73
587.7	4.71
588.038	4.73
588.376	4.73
588.715	4.77
589.053	4.8
589.391	4.81
589.729	4.83
590.067	4.8
590.404	4.86
590.742	4.88
591.08	4.89
591.418	4.86
591.756	4.87
592.093	4.87
592.431	4.86
592.769	4.87
593.106	4.85
593.444	4.86
593.781	4.85
594.119	4.85
594.456	4.86
594.793	4.85
595.131	4.85
595.468	4.9
595.805	4.89
596.143	4.86
596.48	4.87
596.817	4.9
597.154	4.97
597.491	4.96
597.828	4.94
598.165	4.92
598.502	4.9
598.839	4.9
599.176	4.89
599.512	4.91
599.849	4.88
600.186	4.86
600.523	4.87
600.859	4.9
601.196	4.92
601.532	4.89
601.869	4.92
602.205	4.87
602.542	4.82
602.878	4.83
603.215	4.85
603.551	4.86
603.887	4.83
604.223	4.8
604.56	4.82
604.896	4.87
605.232	4.84
605.568	4.86
605.904	4.84
606.24	4.84
606.576	4.84
606.912	4.8
607.248	4.83
607.583	4.85
607.919	4.81
608.255	4.79
608.591	4.85
608.926	4.83
609.262	4.85
609.597	4.86
609.933	4.86
610.268	4.9
610.604	4.87
610.939	4.9
611.275	4.89
611.61	4.87
611.945	4.82
612.281	4.87
612.616	4.88
612.951	4.92
613.286	4.92
613.621	4.96
613.956	5.05
614.291	5.04
614.626	5
614.961	5.06
615.296	5.04
615.631	5.02
615.966	4.97
616.3	4.98
616.635	4.98
616.97	5
617.304	4.97
617.639	4.99
617.973	4.99
618.308	5
618.642	4.97
618.977	4.94
619.311	4.97
619.646	5
619.98	5.03
620.314	5.07
620.648	5.04
620.983	5
621.317	5.02
621.651	5.06
621.985	5
622.319	5.05
622.653	5.02
622.987	5.06
623.321	5.07
623.655	5.07
623.988	5.1
624.322	5.08
624.656	5.11
624.99	5.14
625.323	5.11
625.657	5.16
625.99	5.25
626.324	5.21
626.657	5.19
626.991	5.16
627.324	5.11
627.658	5.12
627.991	5.15
628.324	5.13
628.657	5.11
628.991	5.11
629.324	5.11
629.657	5.1
629.99	5.12
630.323	5.11
630.656	5.13
630.989	5.05
631.322	5.06
631.655	5.05
631.987	4.98
632.32	5.02
632.653	4.98
632.986	4.94
633.318	4.96
633.651	5.04
633.984	5.06
634.316	5.04
634.649	5.03
634.981	5.07
635.313	5.09
635.646	5.11
635.978	5.16
636.31	5.13
636.643	5.14
636.975	5.16
637.307	5.18
637.639	5.16
637.971	5.22
638.303	5.24
638.635	5.28
638.967	5.27
639.299	5.27
639.631	5.33
639.963	5.3
640.295	5.24
640.626	5.11
640.958	5.07
641.29	5.08
641.621	5.01
641.953	4.92
642.285	4.86
642.616	4.87
642.948	4.85
643.279	4.86
643.61	4.85
643.942	4.86
644.273	4.87
644.604	4.88
644.936	4.9
645.267	4.88
645.598	4.9
645.929	4.93
646.26	4.97
646.591	4.89
646.922	4.97
647.253	4.98
647.584	5.02
647.915	5.04
648.245	5.05
648.576	5.14
648.907	5.18
649.238	5.2
649.568	5.19
649.899	5.21
650.229	5.27
650.56	5.24
650.89	5.23
651.221	5.16
651.551	5.16
651.882	5.14
652.212	5.14
652.542	5.14
652.872	5.21
653.203	5.21
653.533	5.35
653.863	5.28
654.193	5.34
654.523	5.31
654.853	5.34
655.183	5.32
655.513	5.34
655.843	5.34
656.172	5.35
656.502	5.28
656.832	5.2
657.162	5.17
657.491	5.31
657.821	5.25
658.15	5.3
658.48	5.38
658.809	5.38
659.139	5.38
659.468	5.36
659.798	5.34
660.127	5.33
660.456	5.25
660.785	5.25
661.115	5.33
661.444	5.39
661.773	5.49
662.102	5.56
662.431	5.56
662.76	5.61
663.089	5.62
663.418	5.65
663.747	5.78
664.076	5.74
664.404	5.67
664.733	5.74
665.062	5.72
665.39	5.64
665.719	5.67
666.048	5.67
666.376	5.7
666.705	5.68
667.033	5.69
667.362	5.68
667.69	5.72
668.018	5.62
668.347	5.6
668.675	5.42
669.003	5.39
669.331	5.41
669.659	5.41
669.987	5.4
670.315	5.43
670.643	5.41
670.971	5.44
671.299	5.44
671.627	5.38
671.955	5.33
672.283	5.36
672.61	5.28
672.938	5.37
673.266	5.34
673.593	5.4
673.921	5.34
674.249	5.42
674.576	5.44
674.904	5.4
675.231	5.39
675.558	5.51
675.886	5.48
676.213	5.39
676.54	5.42
676.867	5.42
677.195	5.4
677.522	5.36
677.849	5.37
678.176	5.42
678.503	5.51
678.83	5.59
679.157	5.57
679.484	5.61
679.81	5.56
680.137	5.63
680.464	5.62
680.791	5.68
681.117	5.68
681.444	5.6
681.771	5.67
682.097	5.73
682.424	5.68
682.75	5.77
683.077	5.82
683.403	5.92
683.729	5.99
684.056	5.98
684.382	6.02
684.708	6.04
685.034	6.13
685.36	6.07
685.686	6.01
686.012	6
686.339	5.96
686.664	5.94
686.99	5.81
687.316	5.72
687.642	5.7
687.968	5.72
688.294	5.72
688.619	5.63
688.945	5.57
689.271	5.55
689.596	5.52
689.922	5.49
690.247	5.39
690.573	5.32
690.898	5.36
691.224	5.35
691.549	5.42
691.874	5.36
692.2	5.3
692.525	5.37
692.85	5.45
693.175	5.49
693.5	5.55
693.825	5.64
694.15	5.77
694.475	5.78
694.8	5.71
695.125	5.8
695.45	5.81
695.775	5.73
696.099	5.78
696.424	5.84
696.749	5.92
697.073	5.89
697.398	5.94
697.723	5.97
698.047	5.97
698.372	5.89
698.696	5.85
699.02	5.93
699.345	5.99
699.669	5.97
699.993	5.91
700.318	5.9
700.642	5.86
700.966	5.83
701.29	5.79
701.614	5.81
701.938	5.76
702.262	5.74
702.586	5.93
702.91	6.02
703.234	5.88
703.557	5.83
703.881	5.93
704.205	5.95
704.529	6.04
704.852	5.96
705.176	6.13
705.499	6
705.823	5.87
706.146	5.82
706.47	5.86
706.793	5.97
707.117	6
707.44	6.01
707.763	6.02
708.086	6.11
708.409	6.18
708.733	6.24
709.056	6.34
709.379	6.25
709.702	6.1
710.025	6.26
710.348	6.25
710.671	6.13
710.993	6.04
711.316	6.04
711.639	6.13
711.962	6.06
712.284	6.2
712.607	6.34
712.93	6.32
713.252	6.31
713.575	6.29
713.897	6.12
714.22	6.15
714.542	6.14
714.864	6.14
715.187	5.97
715.509	5.94
715.831	6.03
716.153	6.15
716.475	6.22
716.798	6.15
717.12	6.22
717.442	6.17
717.764	6.34
718.085	6.25
718.407	6.27
718.729	6.12
719.051	5.88
719.373	5.96
719.695	5.92
720.016	6.06
720.338	6.21
720.659	6.27
720.981	6.17
721.302	6.16
721.624	6.06
721.945	6.31
722.267	6.37
722.588	6.26
722.909	6.26
723.231	6.21
723.552	6.22
723.873	6.13
724.194	6.2
724.515	6.13
724.836	6
725.157	6.02
725.478	6.1
725.799	6.3
726.12	6.2
726.441	6.32
726.762	6.16
727.083	6.17
727.403	6.3
727.724	6.44
728.045	6.58
728.365	6.73
728.686	6.56
729.006	6.67
729.327	6.58
729.647	6.42
729.967	6.54
730.288	6.54
730.608	6.71
730.928	6.7
731.249	6.68
731.569	6.78
731.889	6.68
732.209	6.79
732.529	6.91
732.849	7.1
733.169	7.03
733.489	6.87
733.809	6.74
734.129	6.71
734.448	6.7
734.768	6.57
735.088	6.45
735.408	6.56
735.727	6.31
736.047	6.3
736.366	6.24
736.686	6.09
737.005	6.3
737.325	6.21
737.644	6.07
737.963	6.15
738.283	6.22
738.602	6.4
738.921	6.35
739.24	6.33
739.56	6.26
739.879	6.31
740.198	6.24
740.517	6.37
740.836	6.5
741.155	6.4
741.473	6.56
741.792	6.59
742.111	6.61
742.43	6.69
742.748	6.78
743.067	6.93
743.386	7.06
743.704	6.94
744.023	7.03
744.341	7.36
744.66	7.21
744.978	7.24
745.297	7.05
745.615	6.73
745.933	6.84
746.252	7.07
746.57	7.13
746.888	7.53
747.206	7.64
747.524	7.64
747.842	7.91
748.16	7.79
748.478	7.99
748.796	8.2
749.114	8.48
749.432	8.49
749.749	8.29
750.067	8.22
750.385	8.07
750.703	7.9
751.02	7.91
751.338	7.76
751.655	7.85
751.973	7.91
752.29	8.12
752.608	7.77
752.925	7.41
753.242	7.57
753.56	7.36
753.877	7.05
754.194	7.21
754.511	7.04
754.828	6.87
755.145	6.78
755.462	6.3
755.779	6.12
756.096	6.25
756.413	6.53
756.73	6.61
757.047	6.51
757.364	6.79
757.68	6.81
757.997	7.21
758.314	7.21
758.63	7.13
758.947	7.29
759.264	7.55
759.58	7.57
759.896	7.39
760.213	7.47
760.529	7.32
760.846	6.85
761.162	6.73
761.478	6.81
761.794	6.97
762.11	7.16
762.426	6.96
762.743	6.95
763.059	6.99
763.375	7.05
763.69	7.26
764.006	7.11
764.322	7.16
764.638	7.01
764.954	6.99
765.27	7.23
765.585	7.18
765.901	7.15
766.216	7.02
766.532	6.88
766.848	6.85
767.163	7.06
767.478	7.14
767.794	7.35
768.109	7.47
768.424	7.39
768.74	7.21
769.055	7.54
769.37	7.36
769.685	7.22
770	6.97
770.315	6.97
770.63	6.85
770.945	6.72
771.26	6.72
771.575	6.54
771.89	6.4
772.205	6.17
772.52	6.21
772.834	6.25
773.149	6.42
773.464	6.25
773.778	6.42
774.093	6.79
774.407	6.73
774.722	7.22
775.036	7.09
775.351	7.49
775.665	7.61
775.979	8.01
776.293	7.96
776.608	8.17
776.922	8.23
777.236	8.41
777.55	8.38
777.864	8.55
778.178	8.52
778.492	8.46
778.806	9.12
779.12	8.8
779.434	8.97
779.747	8.95
780.061	9.26
780.375	9.14
780.689	9.04
781.002	8.9
781.316	8.57
781.629	8.79
781.943	8.67
782.256	8.49
782.57	8.23
782.883	8.66
783.196	8.68
783.51	8.65
783.823	8.78
784.136	8.73
784.449	8.36
784.762	8.8
785.075	8.87
785.388	8.6
785.701	8.73
786.014	8.76
786.327	9.01
786.64	9.17
786.953	8.91
787.266	9.2
787.578	9.31
787.891	9.02
788.204	8.66
788.516	8.53
788.829	8.49
789.141	8.53
789.454	8.38
789.766	8.61
790.079	8.64
790.391	8.46
790.703	8.66
791.016	8.83
791.328	8.66
791.64	8.82
791.952	8.65
792.264	8.52
792.576	8.91
792.888	8.79
793.2	8.41
793.512	8.25
793.824	8.18
794.136	8.42
794.448	8.5
794.76	9.22
795.071	9.2
795.383	8.86
795.695	9.21
796.006	8.97
796.318	8.7
796.629	8.23
796.941	8.52
797.252	8.12
797.564	8.64
797.875	8.23
798.186	8.47
798.497	8.81
798.809	9.34
799.12	8.77
799.431	8.83
799.742	9.33
800.053	10.04
800.364	9.8
800.675	9.45
800.986	9.11
801.297	8.67
801.608	8.62
801.918	9.37
802.229	9.14
802.54	9.4
802.851	9.51
803.161	9.94
803.472	9.74
803.782	10.03
804.093	9.35
804.403	9.74
804.714	9.37
805.024	9.5
805.334	9.43
805.645	9.58
805.955	9.79
806.265	9.79
806.575	9.77
806.885	10.37
807.195	10.75
807.505	10.96
807.815	10.66
808.125	10.58
808.435	10.64
808.745	10.83
809.055	11.09
809.365	11.04
809.674	10.82
809.984	10.61
810.294	10.34
810.603	10.22
810.913	9.83
811.222	9.39
811.532	9.5
811.841	10.07
812.151	10.13
812.46	9.94
812.769	9.26
813.079	9.32
813.388	8.75
813.697	8.31
814.006	9.08
814.315	9.33
814.624	9.92
814.933	9.08
815.242	8.68
815.551	8.32
815.86	8.79
816.169	8.32
816.478	8.88
816.786	9.11
817.095	9.33
817.404	9.91
817.712	10.62
818.021	10.39
818.33	9.3
818.638	9.55
818.947	9.51
819.255	10.08
819.563	9.81
819.872	9.56
820.18	9.88
820.488	9.73
820.796	9.79
821.105	9.7
821.413	10.02
821.721	9.88
822.029	9.93
822.337	9.75
822.645	9.82
822.953	9.84
823.26	9.89
823.568	9.83
823.876	9.83
824.184	9.64
824.491	9.71
824.799	9.82
825.107	9.8
825.414	9.86
825.722	9.68
826.029	9.56
826.337	9.8
826.644	9.73
826.951	9.63
827.259	9.75
827.566	9.72
827.873	9.55
828.18	9.6
828.488	9.59
828.795	9.77
829.102	9.78
829.409	9.34
829.716	9.5
830.023	9.65
830.329	9.75
830.636	9.95
830.943	9.63
831.25	9.69
831.557	9.42
831.863	9.38
832.17	9.79
832.476	9.91
832.783	9.59
833.089	9.39
833.396	9.36
833.702	8.82
834.009	9.14
834.315	9.04
834.621	9.33
834.928	9.01
835.234	8.68
835.54	8.55
835.846	9.25
836.152	8.96
836.458	8.6
836.764	8.37
837.07	8.45
837.376	8.19
837.682	8.05
837.988	8.16
838.293	8.37
838.599	8.09
838.905	8.6
839.211	9.13
839.516	9.48
839.822	10.32
840.127	10.6
840.433	10.58
840.738	10.76
841.044	10.96
841.349	11.13
841.654	12.07
841.959	12.82
842.265	12.38
842.57	12.43
842.875	13.29
843.18	13.33
843.485	13.23
843.79	14.2
844.095	14.5
844.4	15.19
844.705	15.11
845.01	15.51
845.315	15.02
845.619	13.76
845.924	13.03
846.229	12.01
846.533	11.96
846.838	10.71
847.142	10.02
847.447	8.62
847.751	8.91
848.056	8.64
848.36	8.55
848.664	8.23
848.969	6.9
849.273	5.72
849.577	6.11
849.881	5.36
850.185	3.88
850.489	3.2
850.794	3.69
851.097	2.54
851.401	1.52
851.705	0.57
852.009	-0.86
852.313	-0.95
852.617	1.09
852.92	2.83
853.224	4.97
853.528	7.04
853.831	7.26
854.135	7.73
854.438	5.51
854.742	5.07
855.045	2.3
855.349	2.73
855.652	4.13
855.955	4.02
856.259	4.75
856.562	6.23
856.865	6.77
857.168	6.24
857.471	7.64
857.774	9.35
858.077	10.6
858.38	14.04
858.683	15.15
858.986	13.89
859.289	11.54
859.592	11.29
859.894	9.77
860.197	8.86
860.5	9.79
860.802	10.94
861.105	11.78
861.407	13.5
861.71	13.49
862.012	14.65
862.315	15.55
862.617	16.7
862.919	16.86
863.222	16.47
863.524	14.53
863.826	12.28
864.128	10.86
864.43	12.12
864.732	10.89
865.034	10.21
865.336	9.95
865.638	9.6
865.94	8.25
866.242	10.64
866.544	13.94
866.846	13.63
867.147	16.5
867.449	17.8
867.751	20.93
868.052	20.91
868.354	21.23
868.655	20.92
868.957	19.17
869.258	18.86
869.56	18.87
869.861	19.04
870.162	20.81
870.463	21.74
870.765	21.36
871.066	21.23
871.367	19.83
871.668	17.07
871.969	20.51
872.27	22.57
872.571	22.64
872.872	18.48
873.173	16.98
873.473	11.56
873.774	10.82
874.075	10.07
874.376	9.04
874.676	8.77
874.977	9.32
875.277	11.4
875.578	11.25
875.878	12.02
876.179	13.81
876.479	13.21
876.78	12.02
877.08	10.98
877.38	10.15
877.68	12.51
877.981	15.62
878.281	12.6
878.581	10.13
