Data from MVZ_BU8942_Reflection_00010.txt Node
Date: Tue Nov 19 12:04:07 EST 2019
User: vgr7
Spectrometer: USB2G7710
Scans to average: 3
Trigger mode: 4
Integration Time (sec): 2.000000E-2
Electric dark correction enabled: true
Boxcar width: 10
XAxis mode: Wavelengths
Number of Pixels in Spectrum: 2048
>>>>>Begin Spectral Data<<<<<
177.721	-10.09
178.105	-75.32
178.488	-523.6
178.871	1085.71
179.254	-440
179.636	6.93
180.019	85.15
180.402	140.91
180.785	-20
181.168	-283.72
181.55	742.86
181.933	-90.68
182.316	-57.46
182.698	-37.32
183.081	-7.91
183.463	50.41
183.846	-7.88
184.228	-108.52
184.611	-24.48
184.993	-34.21
185.376	1.38
185.758	37.06
186.14	23.4
186.522	-52.54
186.904	-31.25
187.287	3.23
187.669	84.21
188.051	27.13
188.433	72.92
188.815	72.01
189.197	55.99
189.579	54.01
189.961	71.04
190.342	104.09
190.724	77.61
191.106	85.65
191.488	50.61
191.869	73.31
192.251	102.12
192.633	63.51
193.014	69.63
193.396	61.19
193.777	34.05
194.159	39.27
194.54	41.54
194.922	35.74
195.303	25.77
195.684	30.15
196.065	26.4
196.447	20.67
196.828	27.57
197.209	40.51
197.59	44.29
197.971	29.63
198.352	11.99
198.733	13.57
199.114	-21.14
199.495	18.92
199.876	-21.77
200.257	-57.89
200.638	-18.67
201.018	-94.66
201.399	-67.51
201.78	-15.93
202.16	-59.18
202.541	-61.59
202.922	-78.7
203.302	-25.62
203.683	-38.75
204.063	14.29
204.444	18.11
204.824	14.86
205.204	26.83
205.585	16.33
205.965	33.22
206.345	33.52
206.725	11.35
207.106	27.39
207.486	19.16
207.866	48.35
208.246	76.45
208.626	79.5
209.006	62.72
209.386	118.29
209.766	151.22
210.145	100
210.525	71.62
210.905	87.6
211.285	62.81
211.664	63.79
212.044	27.05
212.424	15.41
212.803	12.36
213.183	-2.53
213.562	-8.39
213.942	-1.83
214.321	-13.67
214.701	-34.1
215.08	-55.31
215.459	-28.66
215.838	-25.92
216.218	-67.89
216.597	-41.68
216.976	-39.77
217.355	-40.86
217.734	-35.74
218.113	-13.92
218.492	-15.01
218.871	-33.59
219.25	2.88
219.629	-39.36
220.008	-15.38
220.387	-14.71
220.766	-11.17
221.144	-0.85
221.523	23.29
221.902	26.83
222.28	30.77
222.659	44.61
223.037	39.28
223.416	31.9
223.794	25.67
224.173	26.81
224.551	17.45
224.929	11.01
225.308	15.8
225.686	9.64
226.064	7.01
226.442	7.27
226.821	9.67
227.199	7.84
227.577	11.32
227.955	11.42
228.333	10.88
228.711	12.8
229.089	11.79
229.467	5.76
229.845	1.99
230.222	3.76
230.6	0.42
230.978	0.93
231.356	2.51
231.733	3.05
232.111	5.85
232.488	8.47
232.866	11.07
233.243	7.02
233.621	7.37
233.998	9.65
234.376	10.24
234.753	8.53
235.13	5.91
235.508	6.53
235.885	5.27
236.262	5.66
236.639	4.52
237.016	3.85
237.393	5.05
237.77	6.9
238.147	5.01
238.524	5.21
238.901	4.57
239.278	4
239.655	3.83
240.032	3.39
240.409	3.41
240.785	3.12
241.162	3.58
241.539	3.68
241.915	3.15
242.292	3.43
242.668	4.05
243.045	4.58
243.421	4.5
243.798	4.99
244.174	4.9
244.551	4.77
244.927	4.45
245.303	4.31
245.679	3.88
246.056	3.92
246.432	3.71
246.808	3.9
247.184	3.83
247.56	3.86
247.936	3.79
248.312	3.63
248.688	3.72
249.064	3.33
249.44	3.3
249.815	3.22
250.191	3.06
250.567	2.8
250.943	2.66
251.318	2.72
251.694	2.07
252.069	2
252.445	1.99
252.82	2.42
253.196	2.26
253.571	2.54
253.947	2.8
254.322	2.8
254.697	2.92
255.073	3.03
255.448	2.77
255.823	2.77
256.198	2.63
256.573	2.41
256.948	2.67
257.323	2.85
257.698	2.92
258.073	2.82
258.448	2.9
258.823	2.75
259.198	2.71
259.573	2.91
259.948	3.02
260.322	3.15
260.697	3.06
261.072	3.12
261.446	3.07
261.821	2.84
262.195	2.92
262.57	2.83
262.944	2.81
263.319	2.85
263.693	2.85
264.067	2.96
264.442	3.03
264.816	3.04
265.19	2.96
265.564	2.88
265.938	2.97
266.313	2.82
266.687	2.81
267.061	2.77
267.435	2.86
267.809	2.62
268.183	2.31
268.556	2.29
268.93	2.31
269.304	2.32
269.678	2.52
270.051	2.51
270.425	2.47
270.799	2.41
271.172	2.58
271.546	2.81
271.919	2.73
272.293	2.82
272.666	2.81
273.04	2.72
273.413	2.88
273.787	2.9
274.16	2.99
274.533	3.21
274.906	3.22
275.279	3.05
275.653	3.31
276.026	3.51
276.399	3.51
276.772	3.62
277.145	3.71
277.518	3.75
277.891	3.81
278.263	3.96
278.636	4.09
279.009	4.02
279.382	3.91
279.755	3.9
280.127	3.91
280.5	4.03
280.872	4.19
281.245	4
281.617	3.99
281.99	3.83
282.362	3.7
282.735	3.83
283.107	3.92
283.479	3.76
283.852	3.76
284.224	3.81
284.596	3.69
284.968	3.61
285.34	3.44
285.713	3.49
286.085	3.48
286.457	3.44
286.829	3.3
287.201	3.31
287.572	3.43
287.944	3.6
288.316	3.48
288.688	3.46
289.06	3.57
289.431	3.58
289.803	3.9
290.175	3.87
290.546	3.7
290.918	3.65
291.289	3.58
291.661	3.54
292.032	3.47
292.403	3.5
292.775	3.65
293.146	3.81
293.517	3.54
293.889	3.6
294.26	3.62
294.631	3.83
295.002	3.71
295.373	3.53
295.744	3.34
296.115	3.39
296.486	3.42
296.857	3.53
297.228	3.55
297.599	3.32
297.97	3.43
298.34	3.57
298.711	3.76
299.082	3.99
299.452	3.96
299.823	4.06
300.194	4.1
300.564	4.02
300.935	4.03
301.305	4.33
301.676	4.18
302.046	4.17
302.416	4.16
302.787	4.23
303.157	4.32
303.527	4.41
303.897	4.45
304.267	4.39
304.637	4.29
305.008	4.36
305.378	4.49
305.748	4.49
306.117	4.47
306.487	4.27
306.857	4.19
307.227	4.39
307.597	4.33
307.967	4.43
308.336	4.43
308.706	4.51
309.076	4.6
309.445	4.8
309.815	4.99
310.184	5.01
310.554	5.18
310.923	5.11
311.293	5.09
311.662	5.17
312.031	5.3
312.401	5.29
312.77	5.28
313.139	5.38
313.508	5.33
313.877	5.39
314.246	5.54
314.616	5.63
314.985	5.62
315.353	5.75
315.722	5.72
316.091	5.82
316.46	5.82
316.829	5.74
317.198	5.82
317.567	5.73
317.935	5.69
318.304	5.69
318.672	6.03
319.041	5.96
319.41	6.05
319.778	6.12
320.147	6.29
320.515	6.41
320.883	6.38
321.252	6.62
321.62	6.5
321.988	6.52
322.357	6.5
322.725	6.47
323.093	6.53
323.461	6.67
323.829	6.71
324.197	6.67
324.565	6.79
324.933	6.73
325.301	6.64
325.669	6.66
326.037	6.71
326.405	6.66
326.772	6.82
327.14	6.77
327.508	6.72
327.875	6.74
328.243	6.6
328.61	6.53
328.978	6.41
329.346	6.67
329.713	6.72
330.08	6.76
330.448	6.65
330.815	6.62
331.182	6.58
331.55	6.64
331.917	6.63
332.284	6.6
332.651	6.61
333.018	6.69
333.385	6.76
333.752	6.85
334.119	6.95
334.486	6.85
334.853	6.89
335.22	6.98
335.587	6.89
335.954	6.97
336.32	7.05
336.687	7.1
337.054	7.02
337.42	7.02
337.787	6.98
338.153	7.22
338.52	7.19
338.886	7.25
339.253	7.12
339.619	7.24
339.986	7.31
340.352	7.3
340.718	7.35
341.084	7.41
341.451	7.41
341.817	7.39
342.183	7.46
342.549	7.5
342.915	7.56
343.281	7.78
343.647	7.89
344.013	7.92
344.379	8.05
344.745	8.04
345.11	8.01
345.476	8.19
345.842	8.19
346.208	8.27
346.573	8.34
346.939	8.39
347.304	8.39
347.67	8.34
348.035	8.3
348.401	8.29
348.766	8.33
349.132	8.36
349.497	8.34
349.862	8.4
350.228	8.4
350.593	8.25
350.958	8.12
351.323	8.06
351.688	8.01
352.053	7.87
352.418	7.98
352.783	7.93
353.148	7.78
353.513	7.7
353.878	7.67
354.243	7.48
354.608	7.53
354.972	7.55
355.337	7.63
355.702	7.68
356.066	7.72
356.431	7.64
356.795	7.64
357.16	7.7
357.524	7.8
357.889	7.76
358.253	7.77
358.618	7.73
358.982	7.7
359.346	7.74
359.71	7.74
360.075	7.72
360.439	7.81
360.803	7.86
361.167	7.89
361.531	7.8
361.895	7.88
362.259	7.92
362.623	7.9
362.987	7.83
363.351	7.74
363.714	7.71
364.078	7.71
364.442	7.62
364.806	7.61
365.169	7.41
365.533	7.38
365.896	7.45
366.26	7.51
366.623	7.49
366.987	7.45
367.35	7.47
367.714	7.47
368.077	7.45
368.44	7.38
368.803	7.36
369.167	7.39
369.53	7.34
369.893	7.23
370.256	7.19
370.619	7.16
370.982	7.16
371.345	7.13
371.708	7.07
372.071	7.01
372.434	6.91
372.797	6.97
373.159	6.98
373.522	6.9
373.885	6.8
374.247	6.78
374.61	6.72
374.973	6.67
375.335	6.52
375.698	6.38
376.06	6.39
376.423	6.36
376.785	6.33
377.147	6.33
377.51	6.33
377.872	6.3
378.234	6.33
378.596	6.39
378.958	6.33
379.321	6.34
379.683	6.33
380.045	6.33
380.407	6.34
380.769	6.27
381.13	6.17
381.492	6.15
381.854	6.14
382.216	6.15
382.578	6.12
382.939	6.12
383.301	6.13
383.663	6.09
384.024	6.09
384.386	6.06
384.747	6.01
385.109	6
385.47	5.96
385.832	5.86
386.193	5.78
386.554	5.74
386.916	5.7
387.277	5.64
387.638	5.62
387.999	5.59
388.36	5.54
388.721	5.59
389.082	5.59
389.443	5.57
389.804	5.57
390.165	5.56
390.526	5.57
390.887	5.55
391.248	5.47
391.609	5.43
391.969	5.37
392.33	5.33
392.691	5.28
393.051	5.25
393.412	5.23
393.772	5.18
394.133	5.2
394.493	5.16
394.854	5.13
395.214	5.1
395.574	5.03
395.935	5.02
396.295	4.98
396.655	4.88
397.015	4.83
397.376	4.77
397.736	4.73
398.096	4.66
398.456	4.6
398.816	4.61
399.176	4.54
399.535	4.53
399.895	4.5
400.255	4.42
400.615	4.42
400.975	4.44
401.334	4.41
401.694	4.34
402.054	4.37
402.413	4.37
402.773	4.32
403.132	4.31
403.492	4.32
403.851	4.3
404.211	4.26
404.57	4.23
404.929	4.22
405.288	4.17
405.648	4.17
406.007	4.19
406.366	4.17
406.725	4.16
407.084	4.16
407.443	4.17
407.802	4.18
408.161	4.18
408.52	4.14
408.879	4.13
409.238	4.13
409.596	4.12
409.955	4.13
410.314	4.13
410.673	4.13
411.031	4.09
411.39	4.08
411.748	4.15
412.107	4.16
412.465	4.17
412.824	4.16
413.182	4.15
413.54	4.16
413.899	4.13
414.257	4.13
414.615	4.11
414.974	4.11
415.332	4.1
415.69	4.07
416.048	4.07
416.406	4.08
416.764	4.1
417.122	4.05
417.48	4.03
417.838	4.04
418.195	4.03
418.553	4.01
418.911	4
419.269	3.99
419.626	3.98
419.984	3.96
420.342	3.95
420.699	3.93
421.057	3.91
421.414	3.89
421.772	3.88
422.129	3.87
422.486	3.85
422.844	3.84
423.201	3.82
423.558	3.82
423.915	3.81
424.273	3.8
424.63	3.81
424.987	3.8
425.344	3.8
425.701	3.79
426.058	3.79
426.415	3.78
426.772	3.75
427.128	3.74
427.485	3.72
427.842	3.73
428.199	3.73
428.555	3.71
428.912	3.71
429.269	3.68
429.625	3.66
429.982	3.66
430.338	3.66
430.695	3.68
431.051	3.67
431.407	3.64
431.764	3.63
432.12	3.63
432.476	3.63
432.832	3.6
433.189	3.58
433.545	3.59
433.901	3.6
434.257	3.61
434.613	3.59
434.969	3.6
435.325	3.61
435.681	3.59
436.036	3.6
436.392	3.6
436.748	3.62
437.104	3.6
437.459	3.6
437.815	3.62
438.171	3.62
438.526	3.62
438.882	3.63
439.237	3.62
439.593	3.64
439.948	3.63
440.304	3.63
440.659	3.64
441.014	3.64
441.369	3.65
441.725	3.65
442.08	3.67
442.435	3.66
442.79	3.63
443.145	3.64
443.5	3.64
443.855	3.64
444.21	3.65
444.565	3.66
444.92	3.66
445.275	3.64
445.629	3.63
445.984	3.63
446.339	3.63
446.693	3.61
447.048	3.59
447.403	3.58
447.757	3.59
448.112	3.57
448.466	3.55
448.82	3.54
449.175	3.53
449.529	3.53
449.883	3.52
450.238	3.53
450.592	3.54
450.946	3.54
451.3	3.55
451.654	3.54
452.008	3.53
452.362	3.54
452.716	3.54
453.07	3.54
453.424	3.52
453.778	3.51
454.132	3.5
454.486	3.52
454.839	3.53
455.193	3.53
455.547	3.54
455.9	3.54
456.254	3.54
456.607	3.55
456.961	3.52
457.314	3.53
457.668	3.54
458.021	3.53
458.375	3.51
458.728	3.49
459.081	3.49
459.434	3.5
459.787	3.5
460.141	3.51
460.494	3.53
460.847	3.55
461.2	3.54
461.553	3.57
461.906	3.56
462.259	3.54
462.611	3.54
462.964	3.54
463.317	3.56
463.67	3.58
464.022	3.56
464.375	3.56
464.728	3.59
465.08	3.6
465.433	3.61
465.785	3.62
466.138	3.64
466.49	3.65
466.843	3.66
467.195	3.67
467.547	3.65
467.899	3.67
468.252	3.65
468.604	3.67
468.956	3.67
469.308	3.68
469.66	3.71
470.012	3.72
470.364	3.73
470.716	3.72
471.068	3.7
471.42	3.76
471.772	3.78
472.123	3.77
472.475	3.77
472.827	3.76
473.178	3.78
473.53	3.78
473.882	3.82
474.233	3.8
474.585	3.8
474.936	3.82
475.288	3.81
475.639	3.83
475.99	3.82
476.342	3.82
476.693	3.84
477.044	3.85
477.395	3.84
477.746	3.84
478.097	3.84
478.448	3.83
478.8	3.81
479.15	3.8
479.501	3.79
479.852	3.79
480.203	3.8
480.554	3.79
480.905	3.8
481.255	3.79
481.606	3.8
481.957	3.81
482.307	3.79
482.658	3.8
483.009	3.8
483.359	3.81
483.709	3.81
484.06	3.81
484.41	3.81
484.761	3.81
485.111	3.82
485.461	3.81
485.811	3.83
486.162	3.83
486.512	3.83
486.862	3.83
487.212	3.82
487.562	3.82
487.912	3.83
488.262	3.82
488.612	3.82
488.961	3.81
489.311	3.81
489.661	3.81
490.011	3.8
490.36	3.8
490.71	3.8
491.06	3.79
491.409	3.79
491.759	3.8
492.108	3.81
492.458	3.81
492.807	3.82
493.157	3.81
493.506	3.82
493.855	3.82
494.204	3.83
494.554	3.84
494.903	3.87
495.252	3.89
495.601	3.93
495.95	3.94
496.299	3.98
496.648	4.01
496.997	4.06
497.346	4.11
497.695	4.14
498.043	4.18
498.392	4.23
498.741	4.25
499.09	4.28
499.438	4.31
499.787	4.34
500.135	4.4
500.484	4.43
500.832	4.49
501.181	4.57
501.529	4.62
501.878	4.68
502.226	4.72
502.574	4.75
502.923	4.78
503.271	4.84
503.619	4.88
503.967	4.89
504.315	4.95
504.663	5
505.011	5.05
505.359	5.08
505.707	5.12
506.055	5.2
506.403	5.26
506.751	5.32
507.098	5.4
507.446	5.46
507.794	5.55
508.141	5.61
508.489	5.66
508.837	5.73
509.184	5.83
509.531	5.91
509.879	5.98
510.226	6.06
510.574	6.15
510.921	6.22
511.268	6.33
511.616	6.41
511.963	6.5
512.31	6.58
512.657	6.72
513.004	6.83
513.351	6.93
513.698	7.03
514.045	7.15
514.392	7.27
514.739	7.38
515.086	7.5
515.432	7.61
515.779	7.72
516.126	7.87
516.473	7.97
516.819	8.07
517.166	8.19
517.512	8.31
517.859	8.43
518.205	8.54
518.552	8.65
518.898	8.74
519.245	8.84
519.591	8.96
519.937	9.03
520.283	9.15
520.629	9.29
520.976	9.44
521.322	9.57
521.668	9.67
522.014	9.82
522.36	9.95
522.706	10.11
523.052	10.28
523.398	10.4
523.743	10.53
524.089	10.72
524.435	10.86
524.781	11
525.126	11.13
525.472	11.27
525.817	11.37
526.163	11.51
526.509	11.63
526.854	11.71
527.199	11.83
527.545	11.93
527.89	12
528.235	12.09
528.581	12.19
528.926	12.3
529.271	12.39
529.616	12.49
529.961	12.59
530.306	12.68
530.651	12.79
530.996	12.92
531.341	13.05
531.686	13.17
532.031	13.3
532.376	13.43
532.721	13.56
533.065	13.72
533.41	13.85
533.755	13.97
534.099	14.15
534.444	14.26
534.788	14.39
535.133	14.54
535.477	14.68
535.822	14.83
536.166	14.97
536.51	15.14
536.855	15.32
537.199	15.51
537.543	15.71
537.887	15.92
538.231	16.12
538.576	16.29
538.92	16.49
539.264	16.64
539.608	16.82
539.951	16.98
540.295	17.15
540.639	17.29
540.983	17.46
541.327	17.62
541.671	17.8
542.014	17.99
542.358	18.12
542.701	18.3
543.045	18.45
543.389	18.63
543.732	18.82
544.075	19
544.419	19.19
544.762	19.4
545.105	19.59
545.449	19.78
545.792	20.01
546.135	20.25
546.478	20.51
546.821	20.76
547.165	21.02
547.508	21.26
547.851	21.54
548.194	21.81
548.536	22.1
548.879	22.38
549.222	22.61
549.565	22.88
549.908	23.12
550.25	23.41
550.593	23.7
550.936	23.94
551.278	24.21
551.621	24.47
551.963	24.72
552.306	24.99
552.648	25.24
552.991	25.46
553.333	25.74
553.675	26.04
554.017	26.32
554.36	26.61
554.702	26.85
555.044	27.08
555.386	27.34
555.728	27.56
556.07	27.78
556.412	28.08
556.754	28.4
557.096	28.72
557.438	28.98
557.78	29.26
558.121	29.59
558.463	29.86
558.805	30.19
559.147	30.47
559.488	30.74
559.83	31.08
560.171	31.39
560.513	31.64
560.854	31.86
561.196	32.13
561.537	32.36
561.878	32.66
562.22	32.93
562.561	33.21
562.902	33.48
563.243	33.77
563.584	34.01
563.925	34.3
564.266	34.54
564.607	34.76
564.948	34.99
565.289	35.22
565.63	35.47
565.971	35.59
566.312	35.81
566.653	36.01
566.993	36.21
567.334	36.47
567.675	36.65
568.015	36.91
568.356	37.1
568.696	37.36
569.037	37.56
569.377	37.86
569.718	38.08
570.058	38.29
570.398	38.52
570.739	38.75
571.079	38.97
571.419	39.21
571.759	39.44
572.099	39.64
572.439	39.83
572.779	40.01
573.119	40.3
573.459	40.47
573.799	40.69
574.139	40.89
574.479	41.09
574.819	41.21
575.158	41.38
575.498	41.6
575.838	41.72
576.177	41.87
576.517	42.02
576.856	42.21
577.196	42.39
577.535	42.52
577.875	42.68
578.214	42.8
578.553	42.89
578.893	43.06
579.232	43.24
579.571	43.43
579.91	43.64
580.25	43.81
580.589	43.92
580.928	44.03
581.267	44.16
581.606	44.25
581.945	44.5
582.283	44.68
582.622	44.79
582.961	45.01
583.3	45.24
583.639	45.4
583.977	45.62
584.316	45.77
584.654	45.96
584.993	46.05
585.332	46.29
585.67	46.45
586.008	46.54
586.347	46.6
586.685	46.73
587.024	46.79
587.362	46.87
587.7	47.07
588.038	47.18
588.376	47.3
588.715	47.41
589.053	47.58
589.391	47.65
589.729	47.78
590.067	47.85
590.404	47.93
590.742	47.94
591.08	48.01
591.418	48.15
591.756	48.18
592.093	48.3
592.431	48.41
592.769	48.57
593.106	48.74
593.444	48.94
593.781	49.04
594.119	49.17
594.456	49.26
594.793	49.39
595.131	49.5
595.468	49.62
595.805	49.72
596.143	49.71
596.48	49.86
596.817	49.98
597.154	50.07
597.491	50.06
597.828	50.24
598.165	50.27
598.502	50.29
598.839	50.44
599.176	50.61
599.512	50.65
599.849	50.68
600.186	50.73
600.523	50.82
600.859	50.96
601.196	51
601.532	51.02
601.869	51.04
602.205	51.11
602.542	51.12
602.878	51.22
603.215	51.34
603.551	51.39
603.887	51.4
604.223	51.51
604.56	51.66
604.896	51.6
605.232	51.66
605.568	51.83
605.904	51.84
606.24	51.85
606.576	51.91
606.912	52.03
607.248	52.11
607.583	52.12
607.919	52.17
608.255	52.25
608.591	52.4
608.926	52.52
609.262	52.6
609.597	52.69
609.933	52.72
610.268	52.73
610.604	52.78
610.939	52.85
611.275	52.85
611.61	52.86
611.945	53.01
612.281	53.07
612.616	53.02
612.951	53.12
613.286	53.23
613.621	53.25
613.956	53.28
614.291	53.29
614.626	53.26
614.961	53.19
615.296	53.27
615.631	53.28
615.966	53.33
616.3	53.47
616.635	53.52
616.97	53.58
617.304	53.72
617.639	53.72
617.973	53.79
618.308	53.79
618.642	53.85
618.977	53.85
619.311	53.84
619.646	53.91
619.98	53.93
620.314	53.91
620.648	53.95
620.983	53.9
621.317	54.07
621.651	54.28
621.985	54.42
622.319	54.41
622.653	54.39
622.987	54.41
623.321	54.33
623.655	54.31
623.988	54.34
624.322	54.29
624.656	54.25
624.99	54.18
625.323	54.23
625.657	54.19
625.99	54.33
626.324	54.43
626.657	54.46
626.991	54.52
627.324	54.58
627.658	54.57
627.991	54.62
628.324	54.52
628.657	54.45
628.991	54.4
629.324	54.44
629.657	54.55
629.99	54.53
630.323	54.58
630.656	54.62
630.989	54.72
631.322	54.71
631.655	54.77
631.987	54.79
632.32	54.91
632.653	55.02
632.986	54.85
633.318	54.89
633.651	54.93
633.984	54.91
634.316	54.86
634.649	54.9
634.981	54.99
635.313	55.02
635.646	55.1
635.978	55.17
636.31	55.18
636.643	55.21
636.975	55.33
637.307	55.45
637.639	55.47
637.971	55.44
638.303	55.63
638.635	55.65
638.967	55.75
639.299	55.68
639.631	55.66
639.963	55.75
640.295	55.7
640.626	55.58
640.958	55.58
641.29	55.69
641.621	55.79
641.953	55.8
642.285	55.9
642.616	55.86
642.948	55.91
643.279	55.93
643.61	55.93
643.942	55.96
644.273	55.96
644.604	56.04
644.936	56.12
645.267	56.05
645.598	56.16
645.929	56.22
646.26	56.29
646.591	56.27
646.922	56.45
647.253	56.53
647.584	56.57
647.915	56.57
648.245	56.62
648.576	56.63
648.907	56.57
649.238	56.47
649.568	56.56
649.899	56.48
650.229	56.58
650.56	56.52
650.89	56.39
651.221	56.28
651.551	56.3
651.882	56.22
652.212	56.34
652.542	56.25
652.872	56.21
653.203	56.24
653.533	56.25
653.863	56.21
654.193	56.18
654.523	56.13
654.853	56.22
655.183	56.15
655.513	56.25
655.843	56.36
656.172	56.44
656.502	56.43
656.832	56.54
657.162	56.47
657.491	56.62
657.821	56.76
658.15	56.87
658.48	56.8
658.809	56.84
659.139	56.8
659.468	56.87
659.798	56.96
660.127	57.01
660.456	57.01
660.785	57.03
661.115	57.04
661.444	57.09
661.773	57.13
662.102	57.22
662.431	57.17
662.76	57.2
663.089	57.23
663.418	57.25
663.747	57.34
664.076	57.46
664.404	57.27
664.733	57.25
665.062	57.32
665.39	57.42
665.719	57.4
666.048	57.52
666.376	57.7
666.705	57.67
667.033	57.56
667.362	57.6
667.69	57.64
668.018	57.67
668.347	57.78
668.675	57.82
669.003	57.73
669.331	57.76
669.659	57.71
669.987	57.7
670.315	57.7
670.643	57.78
670.971	57.78
671.299	57.91
671.627	57.82
671.955	57.7
672.283	57.77
672.61	57.78
672.938	57.75
673.266	57.55
673.593	57.54
673.921	57.5
674.249	57.46
674.576	57.36
674.904	57.54
675.231	57.49
675.558	57.41
675.886	57.42
676.213	57.34
676.54	57.31
676.867	57.39
677.195	57.51
677.522	57.4
677.849	57.53
678.176	57.57
678.503	57.68
678.83	57.82
679.157	57.87
679.484	57.75
679.81	57.7
680.137	57.68
680.464	57.63
680.791	57.83
681.117	57.93
681.444	58.02
681.771	57.86
682.097	57.89
682.424	57.88
682.75	57.9
683.077	57.89
683.403	57.95
683.729	58
684.056	57.91
684.382	57.94
684.708	57.86
685.034	57.79
685.36	57.67
685.686	57.72
686.012	57.62
686.339	57.75
686.664	57.73
686.99	57.81
687.316	57.89
687.642	57.77
687.968	57.79
688.294	57.77
688.619	57.88
688.945	57.91
689.271	58
689.596	58.09
689.922	58.15
690.247	58.17
690.573	58
690.898	58.01
691.224	58.02
691.549	57.9
691.874	57.91
692.2	57.91
692.525	57.85
692.85	57.76
693.175	57.93
693.5	57.94
693.825	58.06
694.15	58.06
694.475	58.17
694.8	58.2
695.125	58.21
695.45	58.12
695.775	58.23
696.099	58.24
696.424	58.26
696.749	58.37
697.073	58.38
697.398	58.48
697.723	58.47
698.047	58.6
698.372	58.58
698.696	58.77
699.02	58.78
699.345	58.88
699.669	58.89
699.993	58.93
700.318	59.03
700.642	58.9
700.966	58.99
701.29	58.96
701.614	58.9
701.938	58.87
702.262	59.05
702.586	58.88
702.91	59.09
703.234	59.17
703.557	59.22
703.881	59.25
704.205	59.16
704.529	59.28
704.852	58.95
705.176	59.18
705.499	59.02
705.823	59.18
706.146	59.05
706.47	59.22
706.793	58.93
707.117	58.91
707.44	59.02
707.763	59.08
708.086	59.06
708.409	59.19
708.733	59.26
709.056	59.12
709.379	59.27
709.702	59.07
710.025	59.08
710.348	59.04
710.671	59.09
710.993	59.01
711.316	58.93
711.639	59.22
711.962	58.94
712.284	58.88
712.607	58.91
712.93	58.78
713.252	58.53
713.575	58.72
713.897	58.79
714.22	58.76
714.542	58.76
714.864	58.68
715.187	58.68
715.509	58.65
715.831	58.73
716.153	58.88
716.475	58.59
716.798	58.64
717.12	58.57
717.442	58.73
717.764	59.15
718.085	59.2
718.407	59.16
718.729	59.36
719.051	59.33
719.373	59.45
719.695	59.63
720.016	60.02
720.338	60.09
720.659	60.08
720.981	59.98
721.302	59.91
721.624	59.9
721.945	59.79
722.267	59.87
722.588	59.62
722.909	59.36
723.231	59.78
723.552	59.42
723.873	59.35
724.194	59.22
724.515	58.95
724.836	59.04
725.157	58.81
725.478	58.78
725.799	58.72
726.12	58.66
726.441	58.74
726.762	59
727.083	59.14
727.403	58.89
727.724	59.2
728.045	59.19
728.365	59.34
728.686	59.51
729.006	59.55
729.327	60.05
729.647	60.09
729.967	59.93
730.288	60.33
730.608	60.43
730.928	60.45
731.249	60.67
731.569	60.43
731.889	60.59
732.209	60.6
732.529	60.74
732.849	60.82
733.169	60.82
733.489	60.65
733.809	60.3
734.129	60.55
734.448	60.24
734.768	60.14
735.088	60.27
735.408	60.2
735.727	60.03
736.047	60.09
736.366	60.27
736.686	60.29
737.005	60.02
737.325	59.78
737.644	59.47
737.963	59.17
738.283	59.52
738.602	59.41
738.921	59.55
739.24	59.68
739.56	59.51
739.879	59.63
740.198	59.57
740.517	59.59
740.836	59.28
741.155	59.45
741.473	59.48
741.792	59.32
742.111	59.52
742.43	59.9
742.748	59.89
743.067	59.79
743.386	59.88
743.704	60
744.023	60.49
744.341	60.74
744.66	60.96
744.978	60.66
745.297	61.1
745.615	61.08
745.933	61.03
746.252	61.22
746.57	60.73
746.888	60.55
747.206	60.86
747.524	61.29
747.842	61.17
748.16	61.59
748.478	61.48
748.796	61.14
749.114	61.16
749.432	60.44
749.749	60.23
750.067	60.08
750.385	60.23
750.703	60.26
751.02	60.42
751.338	60.39
751.655	60.65
751.973	60.4
752.29	60.64
752.608	60.36
752.925	60.11
753.242	60.61
753.56	60.79
753.877	60.8
754.194	60.62
754.511	60.84
754.828	60.58
755.145	60.8
755.462	61.13
755.779	60.9
756.096	61.28
756.413	61.58
756.73	61.84
757.047	61.51
757.364	61.32
757.68	61.12
757.997	61.46
758.314	61.32
758.63	61.42
758.947	61.1
759.264	61.44
759.58	61.43
759.896	60.96
760.213	60.62
760.529	60.66
760.846	60.75
761.162	60.81
761.478	60.92
761.794	60.94
762.11	60.8
762.426	60.9
762.743	60.9
763.059	60.97
763.375	60.92
763.69	60.89
764.006	60.92
764.322	60.87
764.638	60.73
764.954	60.68
765.27	60.82
765.585	60.9
765.901	60.56
766.216	60.61
766.532	60.74
766.848	61.29
767.163	61.14
767.478	61.34
767.794	61.26
768.109	61.08
768.424	61.1
768.74	61.48
769.055	61.36
769.37	61.04
769.685	60.82
770	61.11
770.315	61.51
770.63	61.07
770.945	61.23
771.26	61.15
771.575	61.2
771.89	61.31
772.205	61.36
772.52	61.89
772.834	62.23
773.149	61.94
773.464	61.5
773.778	61.48
774.093	60.89
774.407	60.74
774.722	61.19
775.036	60.8
775.351	60.25
775.665	60.1
775.979	60.91
776.293	60.79
776.608	60.09
776.922	59.47
777.236	60.14
777.55	59.97
777.864	60.17
778.178	60.28
778.492	59.8
778.806	59.72
779.12	59.62
779.434	59.2
779.747	59.88
780.061	59.96
780.375	60.14
780.689	60.55
781.002	60.62
781.316	60.51
781.629	60.9
781.943	60.86
782.256	60.64
782.57	60.46
782.883	60.62
783.196	61.49
783.51	62.11
783.823	61.97
784.136	62.24
784.449	62.33
784.762	62.86
785.075	62.78
785.388	62.76
785.701	62.62
786.014	62.3
786.327	62.15
786.64	62.29
786.953	61.84
787.266	61.29
787.578	61.16
787.891	61.15
788.204	61.03
788.516	61.56
788.829	62.06
789.141	62
789.454	62.07
789.766	61.37
790.079	60.5
790.391	60.45
790.703	60.3
791.016	60.12
791.328	59.89
791.64	59.74
791.952	59.79
792.264	59.96
792.576	60.3
792.888	60.25
793.2	60.2
793.512	60.47
793.824	61.19
794.136	61.69
794.448	61.4
794.76	61.63
795.071	60.87
795.383	61.47
795.695	61.16
796.006	61.69
796.318	61.97
796.629	62.67
796.941	62.79
797.252	63.13
797.564	63.42
797.875	62.84
798.186	62.89
798.497	62.99
798.809	62.75
799.12	62.8
799.431	62.7
799.742	62.53
800.053	62.93
800.364	63.06
800.675	62.96
800.986	62.77
801.297	62.73
801.608	62.87
801.918	62.35
802.229	62.38
802.54	61.62
802.851	61.71
803.161	61.41
803.472	61.39
803.782	61.44
804.093	60.65
804.403	60.6
804.714	61.09
805.024	61.5
805.334	61.21
805.645	61.73
805.955	61.23
806.265	61.2
806.575	60.91
806.885	60.65
807.195	61
807.505	61.72
807.815	61.82
808.125	62.24
808.435	62.66
808.745	63.42
809.055	63.38
809.365	63.35
809.674	63.97
809.984	63.19
810.294	63.26
810.603	62.59
810.913	63.17
811.222	62.96
811.532	62.72
811.841	63.46
812.151	62.67
812.46	63.38
812.769	62.87
813.079	62.83
813.388	63.12
813.697	62.58
814.006	61.57
814.315	61.5
814.624	62.1
814.933	61.22
815.242	60.95
815.551	61.83
815.86	62.04
816.169	61.26
816.478	62.32
816.786	62.57
817.095	63.5
817.404	63.57
817.712	63.32
818.021	62.57
818.33	62.63
818.638	63.4
818.947	63.75
819.255	63.55
819.563	64
819.872	63.48
820.18	63.36
820.488	63.44
820.796	63.25
821.105	62.96
821.413	63.17
821.721	63.16
822.029	62.92
822.337	62.73
822.645	62.95
822.953	62.75
823.26	62.8
823.568	62.92
823.876	62.99
824.184	63.09
824.491	63.19
824.799	63
825.107	62.67
825.414	62.47
825.722	62.54
826.029	62.32
826.337	62.26
826.644	62.46
826.951	62.58
827.259	62.53
827.566	62.61
827.873	62.71
828.18	62.55
828.488	62.61
828.795	62.88
829.102	62.73
829.409	62.67
829.716	62.7
830.023	62.41
830.329	62.13
830.636	61.91
830.943	61.83
831.25	62.11
831.557	62.23
831.863	62.38
832.17	62.34
832.476	61.84
832.783	61.77
833.089	61.41
833.396	60.67
833.702	61.03
834.009	61.02
834.315	60.5
834.621	60.48
834.928	60.5
835.234	60.24
835.54	60.02
835.846	60.49
836.152	60.52
836.458	60.62
836.764	60.32
837.07	60.63
837.376	60.86
837.682	60.97
837.988	62.03
838.293	62
838.599	62.83
838.905	63.95
839.211	64.84
839.516	64.98
839.822	65.71
840.127	65.24
840.433	66.03
840.738	66.22
841.044	66.78
841.349	66.43
841.654	65.71
841.959	66.13
842.265	64.47
842.57	64.22
842.875	64.56
843.18	65.18
843.485	65.66
843.79	65.02
844.095	63.84
844.4	61.83
844.705	63.08
845.01	62.48
845.315	62.11
845.619	62.17
845.924	62.95
846.229	63.16
846.533	61.93
846.838	59.63
847.142	59.23
847.447	58.22
847.751	60.18
848.056	62.46
848.36	64.2
848.664	67.1
848.969	65.95
849.273	66.52
849.577	64.42
849.881	62.08
850.185	63.03
850.489	64.02
850.794	63.99
851.097	62.23
851.401	58.61
851.705	58.47
852.009	59.26
852.313	56.1
852.617	58.21
852.92	60.98
853.224	63.21
853.528	64.13
853.831	66.59
854.135	64.96
854.438	65.72
854.742	63.45
855.045	61.95
855.349	61.45
855.652	60.25
855.955	64.06
856.259	62.3
856.562	63.77
856.865	64.95
857.168	64.54
857.471	63.16
857.774	66.52
858.077	64.88
858.38	63.07
858.683	64.66
858.986	61.67
859.289	61.25
859.592	58.32
859.894	57.12
860.197	53.82
860.5	54.48
860.802	53.87
861.105	56.27
861.407	58.36
861.71	58.73
862.012	58.52
862.315	58
862.617	61.72
862.919	58.9
863.222	56.91
863.524	57.49
863.826	58.79
864.128	57.41
864.43	58.74
864.732	58.05
865.034	56.74
865.336	59.48
865.638	60.68
865.94	63.12
866.242	61.84
866.544	64.08
866.846	62.91
867.147	62.09
867.449	60.25
867.751	61.61
868.052	63.21
868.354	65.7
868.655	64.62
868.957	64.47
869.258	67.54
869.56	68.71
869.861	68.45
870.162	69.66
870.463	72.25
870.765	72.32
871.066	73.17
871.367	72.9
871.668	71.26
871.969	69.77
872.27	70.01
872.571	71.49
872.872	70.84
873.173	71.57
873.473	71.59
873.774	72.06
874.075	68.8
874.376	66.22
874.676	66.9
874.977	68.22
875.277	67.52
875.578	64.39
875.878	64.39
876.179	64.84
876.479	63.37
876.78	61.87
877.08	61.92
877.38	61.89
877.68	64.83
877.981	65.72
878.281	67.11
878.581	65.57
