Data from MVZ_BU57658_Reflection_00013.txt Node
Date: Tue Nov 19 12:13:42 EST 2019
User: vgr7
Spectrometer: USB2G7710
Scans to average: 3
Trigger mode: 4
Integration Time (sec): 2.000000E-2
Electric dark correction enabled: true
Boxcar width: 10
XAxis mode: Wavelengths
Number of Pixels in Spectrum: 2048
>>>>>Begin Spectral Data<<<<<
177.721	1114.12
178.105	538.6
178.488	385.87
178.871	251.67
179.254	693.33
179.636	1384.31
180.019	-284.35
180.402	56.25
180.785	-65.04
181.168	-97.99
181.55	-23.79
181.933	-52.09
182.316	-2.71
182.698	16.08
183.081	2.18
183.463	24.48
183.846	26.97
184.228	35.72
184.611	19.52
184.993	-41.48
185.376	-61.52
185.758	-115.08
186.14	-89.92
186.522	-158.81
186.904	-693.33
187.287	-176.63
187.669	-90.67
188.051	5.19
188.433	185.59
188.815	-108.81
189.197	-187.55
189.579	-56.7
189.961	-96.04
190.342	-61.84
190.724	-52.57
191.106	-66.67
191.488	-58.51
191.869	-51.81
192.251	-35.07
192.633	-31.56
193.014	-47.91
193.396	-62.51
193.777	-65.48
194.159	-71.01
194.54	-75.7
194.922	-106.34
195.303	-144.32
195.684	-142.68
196.065	-175.49
196.447	-179.78
196.828	-204.48
197.209	-195.04
197.59	-246.64
197.971	-331.86
198.352	5674.07
198.733	-1158.87
199.114	679.81
199.495	-4733.33
199.876	-2540.35
200.257	-61066.67
200.638	3346.03
201.018	1942.34
201.399	652.43
201.78	660.61
202.16	2106.67
202.541	3698.04
202.922	-3835.9
203.302	-212.4
203.683	-135.11
204.063	-98.25
204.444	-101.43
204.824	-98.44
205.204	-77.4
205.585	-80.96
205.965	-105.79
206.345	-102.63
206.725	-84.84
207.106	-78.3
207.486	-63.77
207.866	-52.2
208.246	-35.52
208.626	-41.52
209.006	-38.81
209.386	-58.21
209.766	-116.05
210.145	-74.93
210.525	-48.89
210.905	-78.49
211.285	-143.27
211.664	-243.14
212.044	-260.7
212.424	1980.95
212.803	463.39
213.183	990.48
213.562	-153.09
213.942	-95.44
214.321	-108.71
214.701	-106.87
215.08	-68.87
215.459	-52.23
215.838	-99.83
216.218	-87.41
216.597	-46.65
216.976	-44.91
217.355	-47.55
217.734	-20.78
218.113	-13.29
218.492	-16.94
218.871	-5.51
219.25	7.18
219.629	8.24
220.008	6.53
220.387	-6.06
220.766	15.14
221.144	15.19
221.523	-5.89
221.902	0.7
222.28	11.95
222.659	30.12
223.037	45.33
223.416	21.53
223.794	17.96
224.173	14.44
224.551	16.93
224.929	15.91
225.308	9.66
225.686	-0.95
226.064	-1.29
226.442	3.52
226.821	4.28
227.199	5.22
227.577	9.19
227.955	9.52
228.333	11.06
228.711	8.48
229.089	6.22
229.467	6.65
229.845	2.13
230.222	2.86
230.6	1.03
230.978	-1.6
231.356	0.16
231.733	2.67
232.111	-0.18
232.488	-0.59
232.866	1.14
233.243	1.35
233.621	3.61
233.998	5.02
234.376	3.96
234.753	0.07
235.13	0.87
235.508	-0.09
235.885	-0.01
236.262	0.85
236.639	-0.77
237.016	-0.01
237.393	1
237.77	2.02
238.147	1.15
238.524	1.42
238.901	0.48
239.278	-0.22
239.655	-0.59
240.032	0.45
240.409	1.1
240.785	1.69
241.162	2.05
241.539	1.78
241.915	1.69
242.292	2.25
242.668	3.22
243.045	3.18
243.421	3.67
243.798	3.89
244.174	3.85
244.551	4.22
244.927	4.29
245.303	3.98
245.679	4.06
246.056	4.21
246.432	4.11
246.808	4.77
247.184	5.15
247.56	5.05
247.936	5.01
248.312	4.74
248.688	4.37
249.064	4.31
249.44	4.35
249.815	4.18
250.191	4.05
250.567	4.09
250.943	4.24
251.318	4.06
251.694	3.98
252.069	3.91
252.445	3.83
252.82	4
253.196	4.23
253.571	4.44
253.947	4.18
254.322	3.93
254.697	3.68
255.073	3.21
255.448	3.3
255.823	3.58
256.198	3.62
256.573	3.54
256.948	3.91
257.323	4.04
257.698	3.94
258.073	3.86
258.448	3.83
258.823	3.49
259.198	3.5
259.573	3.35
259.948	3.33
260.322	3.19
260.697	3.11
261.072	3.05
261.446	3.04
261.821	3.16
262.195	3.16
262.57	3.16
262.944	3.22
263.319	3.25
263.693	3.16
264.067	3.23
264.442	3.42
264.816	3.19
265.19	2.89
265.564	2.82
265.938	2.85
266.313	2.68
266.687	2.98
267.061	3.16
267.435	3.5
267.809	3.44
268.183	3.69
268.556	3.69
268.93	3.77
269.304	3.58
269.678	3.52
270.051	3.6
270.425	3.51
270.799	3.53
271.172	3.51
271.546	3.51
271.919	3.6
272.293	3.58
272.666	3.63
273.04	3.68
273.413	3.79
273.787	3.8
274.16	3.76
274.533	3.78
274.906	3.78
275.279	3.42
275.653	3.48
276.026	3.51
276.399	3.62
276.772	3.36
277.145	3.4
277.518	3.26
277.891	3.24
278.263	3.51
278.636	3.59
279.009	3.49
279.382	3.38
279.755	3.33
280.127	3.26
280.5	2.96
280.872	2.81
281.245	2.74
281.617	2.73
281.99	2.83
282.362	2.78
282.735	2.66
283.107	2.92
283.479	2.98
283.852	2.99
284.224	2.96
284.596	3.28
284.968	3.28
285.34	3.37
285.713	3.41
286.085	3.31
286.457	3.3
286.829	3.37
287.201	3.36
287.572	3.31
287.944	3.43
288.316	3.69
288.688	3.83
289.06	3.91
289.431	3.89
289.803	3.95
290.175	3.9
290.546	3.8
290.918	3.92
291.289	3.9
291.661	3.88
292.032	3.76
292.403	3.75
292.775	3.86
293.146	3.95
293.517	3.92
293.889	3.85
294.26	3.89
294.631	4
295.002	3.99
295.373	4.05
295.744	4.09
296.115	4.15
296.486	4.24
296.857	4.32
297.228	4.41
297.599	4.38
297.97	4.54
298.34	4.8
298.711	4.77
299.082	4.86
299.452	4.85
299.823	5.08
300.194	5.11
300.564	5.05
300.935	5.04
301.305	5.19
301.676	5.21
302.046	5.41
302.416	5.37
302.787	5.51
303.157	5.52
303.527	5.55
303.897	5.7
304.267	5.75
304.637	5.69
305.008	5.88
305.378	5.92
305.748	5.92
306.117	5.8
306.487	5.82
306.857	5.79
307.227	6
307.597	5.94
307.967	5.96
308.336	6.14
308.706	6.34
309.076	6.39
309.445	6.55
309.815	6.55
310.184	6.63
310.554	6.65
310.923	6.71
311.293	6.79
311.662	6.8
312.031	6.74
312.401	6.83
312.77	6.9
313.139	6.94
313.508	6.87
313.877	7.05
314.246	7.16
314.616	7.28
314.985	7.23
315.353	7.29
315.722	7.45
316.091	7.5
316.46	7.42
316.829	7.36
317.198	7.65
317.567	7.75
317.935	7.71
318.304	7.99
318.672	8.01
319.041	7.96
319.41	7.87
319.778	8.14
320.147	8.18
320.515	7.9
320.883	7.9
321.252	8.11
321.62	8.18
321.988	8.06
322.357	8
322.725	7.99
323.093	8.04
323.461	8.04
323.829	7.89
324.197	7.9
324.565	8.03
324.933	7.76
325.301	7.56
325.669	7.62
326.037	7.61
326.405	7.74
326.772	7.74
327.14	7.69
327.508	7.59
327.875	7.61
328.243	7.68
328.61	7.78
328.978	7.74
329.346	7.66
329.713	7.79
330.08	7.84
330.448	7.95
330.815	8.04
331.182	7.92
331.55	8.04
331.917	8.14
332.284	8.11
332.651	8.18
333.018	8.35
333.385	8.43
333.752	8.55
334.119	8.58
334.486	8.74
334.853	8.82
335.22	8.73
335.587	8.71
335.954	8.87
336.32	8.87
336.687	8.97
337.054	8.92
337.42	8.92
337.787	8.96
338.153	9.07
338.52	9.14
338.886	9.25
339.253	9.16
339.619	9.18
339.986	9.2
340.352	9.23
340.718	9.28
341.084	9.25
341.451	9.13
341.817	9.09
342.183	9.15
342.549	9.16
342.915	9.3
343.281	9.4
343.647	9.43
344.013	9.44
344.379	9.35
344.745	9.47
345.11	9.47
345.476	9.6
345.842	9.51
346.208	9.53
346.573	9.52
346.939	9.58
347.304	9.55
347.67	9.5
348.035	9.5
348.401	9.51
348.766	9.65
349.132	9.65
349.497	9.67
349.862	9.59
350.228	9.66
350.593	9.66
350.958	9.69
351.323	9.63
351.688	9.64
352.053	9.74
352.418	9.68
352.783	9.56
353.148	9.48
353.513	9.48
353.878	9.48
354.243	9.32
354.608	9.42
354.972	9.51
355.337	9.53
355.702	9.48
356.066	9.41
356.431	9.32
356.795	9.37
357.16	9.29
357.524	9.24
357.889	9.31
358.253	9.36
358.618	9.32
358.982	9.34
359.346	9.35
359.71	9.26
360.075	9.23
360.439	9.29
360.803	9.27
361.167	9.34
361.531	9.2
361.895	9.27
362.259	9.26
362.623	9.15
362.987	9.19
363.351	9.19
363.714	9.21
364.078	9.19
364.442	9.09
364.806	9.12
365.169	9.06
365.533	8.92
365.896	8.87
366.26	8.73
366.623	8.67
366.987	8.61
367.35	8.62
367.714	8.59
368.077	8.59
368.44	8.52
368.803	8.38
369.167	8.39
369.53	8.43
369.893	8.42
370.256	8.38
370.619	8.29
370.982	8.2
371.345	8.1
371.708	8.06
372.071	7.94
372.434	7.89
372.797	7.89
373.159	7.84
373.522	7.69
373.885	7.73
374.247	7.71
374.61	7.66
374.973	7.56
375.335	7.52
375.698	7.36
376.06	7.35
376.423	7.33
376.785	7.29
377.147	7.16
377.51	7.04
377.872	7.02
378.234	7.05
378.596	7.02
378.958	6.96
379.321	6.88
379.683	6.94
380.045	6.87
380.407	6.79
380.769	6.75
381.13	6.77
381.492	6.69
381.854	6.61
382.216	6.58
382.578	6.5
382.939	6.44
383.301	6.49
383.663	6.43
384.024	6.37
384.386	6.32
384.747	6.28
385.109	6.26
385.47	6.22
385.832	6.12
386.193	6.09
386.554	6.01
386.916	6.04
387.277	5.97
387.638	5.94
387.999	5.91
388.36	5.87
388.721	5.86
389.082	5.85
389.443	5.82
389.804	5.79
390.165	5.77
390.526	5.71
390.887	5.65
391.248	5.62
391.609	5.6
391.969	5.58
392.33	5.54
392.691	5.5
393.051	5.4
393.412	5.41
393.772	5.39
394.133	5.4
394.493	5.3
394.854	5.26
395.214	5.24
395.574	5.21
395.935	5.18
396.295	5.14
396.655	5.11
397.015	5.08
397.376	5.02
397.736	4.96
398.096	4.92
398.456	4.85
398.816	4.83
399.176	4.76
399.535	4.72
399.895	4.7
400.255	4.69
400.615	4.72
400.975	4.65
401.334	4.61
401.694	4.61
402.054	4.59
402.413	4.55
402.773	4.52
403.132	4.49
403.492	4.46
403.851	4.38
404.211	4.34
404.57	4.28
404.929	4.26
405.288	4.31
405.648	4.29
406.007	4.28
406.366	4.26
406.725	4.24
407.084	4.22
407.443	4.18
407.802	4.15
408.161	4.14
408.52	4.14
408.879	4.16
409.238	4.12
409.596	4.12
409.955	4.14
410.314	4.12
410.673	4.11
411.031	4.09
411.39	4.12
411.748	4.14
412.107	4.16
412.465	4.17
412.824	4.14
413.182	4.15
413.54	4.18
413.899	4.18
414.257	4.17
414.615	4.16
414.974	4.15
415.332	4.14
415.69	4.11
416.048	4.11
416.406	4.07
416.764	4.06
417.122	4.04
417.48	4.02
417.838	4
418.195	3.98
418.553	3.98
418.911	3.97
419.269	3.93
419.626	3.93
419.984	3.9
420.342	3.87
420.699	3.84
421.057	3.82
421.414	3.81
421.772	3.81
422.129	3.8
422.486	3.8
422.844	3.77
423.201	3.77
423.558	3.74
423.915	3.73
424.273	3.73
424.63	3.72
424.987	3.72
425.344	3.71
425.701	3.71
426.058	3.69
426.415	3.67
426.772	3.67
427.128	3.66
427.485	3.65
427.842	3.65
428.199	3.66
428.555	3.63
428.912	3.62
429.269	3.59
429.625	3.57
429.982	3.58
430.338	3.58
430.695	3.57
431.051	3.58
431.407	3.58
431.764	3.55
432.12	3.58
432.476	3.58
432.832	3.59
433.189	3.57
433.545	3.57
433.901	3.58
434.257	3.57
434.613	3.56
434.969	3.56
435.325	3.55
435.681	3.56
436.036	3.57
436.392	3.57
436.748	3.57
437.104	3.57
437.459	3.55
437.815	3.56
438.171	3.56
438.526	3.56
438.882	3.56
439.237	3.55
439.593	3.55
439.948	3.55
440.304	3.54
440.659	3.55
441.014	3.55
441.369	3.53
441.725	3.52
442.08	3.53
442.435	3.52
442.79	3.51
443.145	3.49
443.5	3.47
443.855	3.47
444.21	3.47
444.565	3.48
444.92	3.49
445.275	3.49
445.629	3.47
445.984	3.46
446.339	3.46
446.693	3.45
447.048	3.42
447.403	3.4
447.757	3.39
448.112	3.38
448.466	3.39
448.82	3.4
449.175	3.39
449.529	3.4
449.883	3.4
450.238	3.41
450.592	3.41
450.946	3.42
451.3	3.43
451.654	3.42
452.008	3.41
452.362	3.38
452.716	3.37
453.07	3.35
453.424	3.34
453.778	3.34
454.132	3.33
454.486	3.33
454.839	3.35
455.193	3.36
455.547	3.36
455.9	3.33
456.254	3.34
456.607	3.34
456.961	3.3
457.314	3.31
457.668	3.31
458.021	3.31
458.375	3.31
458.728	3.31
459.081	3.32
459.434	3.31
459.787	3.34
460.141	3.33
460.494	3.35
460.847	3.36
461.2	3.37
461.553	3.39
461.906	3.4
462.259	3.39
462.611	3.39
462.964	3.4
463.317	3.42
463.67	3.44
464.022	3.46
464.375	3.48
464.728	3.5
465.08	3.5
465.433	3.52
465.785	3.54
466.138	3.54
466.49	3.54
466.843	3.59
467.195	3.59
467.547	3.62
467.899	3.65
468.252	3.66
468.604	3.7
468.956	3.71
469.308	3.71
469.66	3.74
470.012	3.75
470.364	3.75
470.716	3.78
471.068	3.77
471.42	3.79
471.772	3.83
472.123	3.83
472.475	3.85
472.827	3.85
473.178	3.83
473.53	3.83
473.882	3.85
474.233	3.83
474.585	3.82
474.936	3.83
475.288	3.8
475.639	3.81
475.99	3.77
476.342	3.78
476.693	3.78
477.044	3.78
477.395	3.79
477.746	3.79
478.097	3.79
478.448	3.78
478.8	3.77
479.15	3.74
479.501	3.7
479.852	3.7
480.203	3.71
480.554	3.72
480.905	3.71
481.255	3.71
481.606	3.71
481.957	3.7
482.307	3.7
482.658	3.71
483.009	3.69
483.359	3.71
483.709	3.71
484.06	3.71
484.41	3.7
484.761	3.7
485.111	3.69
485.461	3.69
485.811	3.68
486.162	3.68
486.512	3.68
486.862	3.69
487.212	3.68
487.562	3.67
487.912	3.67
488.262	3.66
488.612	3.67
488.961	3.67
489.311	3.67
489.661	3.67
490.011	3.66
490.36	3.67
490.71	3.67
491.06	3.67
491.409	3.66
491.759	3.67
492.108	3.68
492.458	3.69
492.807	3.7
493.157	3.72
493.506	3.73
493.855	3.74
494.204	3.74
494.554	3.77
494.903	3.79
495.252	3.82
495.601	3.86
495.95	3.88
496.299	3.91
496.648	3.94
496.997	3.98
497.346	4.05
497.695	4.08
498.043	4.12
498.392	4.17
498.741	4.2
499.09	4.26
499.438	4.32
499.787	4.36
500.135	4.41
500.484	4.44
500.832	4.51
501.181	4.6
501.529	4.7
501.878	4.78
502.226	4.88
502.574	4.95
502.923	5.01
503.271	5.1
503.619	5.19
503.967	5.31
504.315	5.41
504.663	5.54
505.011	5.65
505.359	5.75
505.707	5.86
506.055	5.99
506.403	6.11
506.751	6.21
507.098	6.36
507.446	6.52
507.794	6.66
508.141	6.8
508.489	6.97
508.837	7.1
509.184	7.23
509.531	7.36
509.879	7.53
510.226	7.73
510.574	7.89
510.921	8.05
511.268	8.2
511.616	8.37
511.963	8.54
512.31	8.74
512.657	8.93
513.004	9.11
513.351	9.31
513.698	9.53
514.045	9.72
514.392	9.94
514.739	10.15
515.086	10.36
515.432	10.57
515.779	10.76
516.126	10.96
516.473	11.18
516.819	11.37
517.166	11.54
517.512	11.68
517.859	11.85
518.205	12.02
518.552	12.18
518.898	12.33
519.245	12.48
519.591	12.63
519.937	12.75
520.283	12.94
520.629	13.13
520.976	13.3
521.322	13.53
521.668	13.7
522.014	13.91
522.36	14.13
522.706	14.33
523.052	14.57
523.398	14.8
523.743	15.05
524.089	15.31
524.435	15.56
524.781	15.8
525.126	16.04
525.472	16.25
525.817	16.43
526.163	16.58
526.509	16.73
526.854	16.86
527.199	17.04
527.545	17.18
527.89	17.33
528.235	17.48
528.581	17.63
528.926	17.79
529.271	17.93
529.616	18.08
529.961	18.24
530.306	18.39
530.651	18.57
530.996	18.75
531.341	18.92
531.686	19.09
532.031	19.29
532.376	19.46
532.721	19.62
533.065	19.83
533.41	20.05
533.755	20.3
534.099	20.58
534.444	20.76
534.788	20.96
535.133	21.16
535.477	21.37
535.822	21.61
536.166	21.85
536.51	22.11
536.855	22.38
537.199	22.66
537.543	22.95
537.887	23.23
538.231	23.52
538.576	23.81
538.92	24.09
539.264	24.34
539.608	24.61
539.951	24.89
540.295	25.12
540.639	25.37
540.983	25.55
541.327	25.73
541.671	25.96
542.014	26.19
542.358	26.43
542.701	26.63
543.045	26.81
543.389	27.02
543.732	27.23
544.075	27.44
544.419	27.64
544.762	27.85
545.105	28.07
545.449	28.28
545.792	28.54
546.135	28.79
546.478	29.07
546.821	29.35
547.165	29.63
547.508	29.9
547.851	30.16
548.194	30.43
548.536	30.72
548.879	31.02
549.222	31.31
549.565	31.57
549.908	31.84
550.25	32.11
550.593	32.42
550.936	32.7
551.278	33.03
551.621	33.29
551.963	33.61
552.306	33.85
552.648	34.07
552.991	34.29
553.333	34.55
553.675	34.78
554.017	35.02
554.36	35.24
554.702	35.46
555.044	35.66
555.386	35.94
555.728	36.21
556.07	36.42
556.412	36.65
556.754	36.83
557.096	37.09
557.438	37.39
557.78	37.61
558.121	37.81
558.463	38.03
558.805	38.34
559.147	38.5
559.488	38.77
559.83	39.09
560.171	39.29
560.513	39.47
560.854	39.74
561.196	39.99
561.537	40.21
561.878	40.46
562.22	40.66
562.561	40.84
562.902	41.01
563.243	41.21
563.584	41.4
563.925	41.67
564.266	41.85
564.607	41.95
564.948	42.14
565.289	42.34
565.63	42.49
565.971	42.6
566.312	42.79
566.653	42.94
566.993	43.05
567.334	43.28
567.675	43.51
568.015	43.61
568.356	43.79
568.696	43.92
569.037	44.06
569.377	44.21
569.718	44.31
570.058	44.45
570.398	44.65
570.739	44.8
571.079	44.94
571.419	45.16
571.759	45.29
572.099	45.4
572.439	45.51
572.779	45.57
573.119	45.76
573.459	45.89
573.799	45.98
574.139	46.12
574.479	46.18
574.819	46.28
575.158	46.41
575.498	46.49
575.838	46.61
576.177	46.73
576.517	46.89
576.856	47
577.196	47.13
577.535	47.24
577.875	47.4
578.214	47.49
578.553	47.51
578.893	47.65
579.232	47.79
579.571	47.97
579.91	48.25
580.25	48.29
580.589	48.37
580.928	48.52
581.267	48.64
581.606	48.78
581.945	48.8
582.283	48.9
582.622	48.87
582.961	49.01
583.3	49.07
583.639	49.19
583.977	49.37
584.316	49.48
584.654	49.54
584.993	49.62
585.332	49.65
585.67	49.76
586.008	49.88
586.347	49.98
586.685	50.09
587.024	50.08
587.362	50.12
587.7	50.23
588.038	50.29
588.376	50.4
588.715	50.5
589.053	50.62
589.391	50.7
589.729	50.78
590.067	50.9
590.404	50.97
590.742	50.93
591.08	50.97
591.418	51.07
591.756	51.12
592.093	51.17
592.431	51.32
592.769	51.36
593.106	51.41
593.444	51.41
593.781	51.47
594.119	51.48
594.456	51.56
594.793	51.64
595.131	51.77
595.468	51.79
595.805	51.85
596.143	51.91
596.48	51.98
596.817	52.18
597.154	52.19
597.491	52.25
597.828	52.37
598.165	52.47
598.502	52.53
598.839	52.61
599.176	52.67
599.512	52.7
599.849	52.84
600.186	52.92
600.523	53.08
600.859	53.17
601.196	53.26
601.532	53.41
601.869	53.46
602.205	53.49
602.542	53.48
602.878	53.43
603.215	53.45
603.551	53.55
603.887	53.56
604.223	53.6
604.56	53.6
604.896	53.64
605.232	53.7
605.568	53.72
605.904	53.71
606.24	53.78
606.576	53.77
606.912	53.76
607.248	53.8
607.583	53.82
607.919	53.81
608.255	53.86
608.591	53.81
608.926	53.84
609.262	53.86
609.597	53.9
609.933	54.08
610.268	54.15
610.604	54.06
610.939	54.11
611.275	54.08
611.61	54.2
611.945	54.19
612.281	54.23
612.616	54.22
612.951	54.3
613.286	54.3
613.621	54.46
613.956	54.51
614.291	54.59
614.626	54.64
614.961	54.72
615.296	54.79
615.631	54.96
615.966	55.05
616.3	55.13
616.635	55.37
616.97	55.4
617.304	55.46
617.639	55.54
617.973	55.49
618.308	55.67
618.642	55.65
618.977	55.79
619.311	55.78
619.646	55.86
619.98	55.89
620.314	55.9
620.648	55.86
620.983	55.87
621.317	55.87
621.651	55.84
621.985	55.92
622.319	55.85
622.653	55.81
622.987	55.77
623.321	55.86
623.655	55.75
623.988	55.73
624.322	55.67
624.656	55.67
624.99	55.66
625.323	55.72
625.657	55.75
625.99	55.67
626.324	55.68
626.657	55.66
626.991	55.64
627.324	55.6
627.658	55.67
627.991	55.71
628.324	55.77
628.657	55.83
628.991	55.82
629.324	55.94
629.657	55.94
629.99	56.05
630.323	55.99
630.656	55.9
630.989	56
631.322	56.05
631.655	56.17
631.987	56.28
632.32	56.21
632.653	56.16
632.986	56.29
633.318	56.33
633.651	56.37
633.984	56.47
634.316	56.58
634.649	56.61
634.981	56.61
635.313	56.46
635.646	56.44
635.978	56.43
636.31	56.44
636.643	56.49
636.975	56.49
637.307	56.51
637.639	56.57
637.971	56.54
638.303	56.63
638.635	56.55
638.967	56.44
639.299	56.46
639.631	56.64
639.963	56.55
640.295	56.57
640.626	56.69
640.958	56.71
641.29	56.72
641.621	56.64
641.953	56.74
642.285	56.89
642.616	57.06
642.948	57.07
643.279	57.08
643.61	57.11
643.942	57.06
644.273	57.09
644.604	57.17
644.936	57.19
645.267	57.1
645.598	57.16
645.929	57.27
646.26	57.34
646.591	57.35
646.922	57.5
647.253	57.48
647.584	57.45
647.915	57.43
648.245	57.41
648.576	57.33
648.907	57.34
649.238	57.4
649.568	57.33
649.899	57.35
650.229	57.33
650.56	57.29
650.89	57.35
651.221	57.37
651.551	57.34
651.882	57.39
652.212	57.47
652.542	57.61
652.872	57.7
653.203	57.69
653.533	57.69
653.863	57.69
654.193	57.82
654.523	57.8
654.853	57.87
655.183	57.88
655.513	58
655.843	57.89
656.172	57.88
656.502	57.81
656.832	57.77
657.162	57.83
657.491	57.9
657.821	58.04
658.15	58.12
658.48	58.23
658.809	58.13
659.139	58.19
659.468	58.14
659.798	58.12
660.127	58.1
660.456	58.05
660.785	57.98
661.115	57.92
661.444	57.96
661.773	57.93
662.102	58.05
662.431	58.08
662.76	58.12
663.089	58.17
663.418	58.16
663.747	58.32
664.076	58.3
664.404	58.35
664.733	58.16
665.062	58.05
665.39	58.05
665.719	58.08
666.048	57.9
666.376	57.87
666.705	57.82
667.033	57.93
667.362	57.99
667.69	58.04
668.018	58.06
668.347	58.11
668.675	58.26
669.003	58.2
669.331	58.19
669.659	58.2
669.987	58.28
670.315	58.51
670.643	58.43
670.971	58.59
671.299	58.54
671.627	58.59
671.955	58.62
672.283	58.58
672.61	58.64
672.938	58.81
673.266	58.8
673.593	58.76
673.921	58.62
674.249	58.61
674.576	58.62
674.904	58.73
675.231	58.71
675.558	58.65
675.886	58.65
676.213	58.67
676.54	58.58
676.867	58.35
677.195	58.2
677.522	58.19
677.849	58.03
678.176	57.99
678.503	58
678.83	57.95
679.157	57.97
679.484	58.18
679.81	58.21
680.137	58.31
680.464	58.37
680.791	58.57
681.117	58.5
681.444	58.48
681.771	58.49
682.097	58.45
682.424	58.3
682.75	58.35
683.077	58.53
683.403	58.69
683.729	58.79
684.056	58.78
684.382	58.94
684.708	58.94
685.034	58.91
685.36	58.8
685.686	58.87
686.012	58.73
686.339	58.6
686.664	58.58
686.99	58.49
687.316	58.54
687.642	58.31
687.968	58.6
688.294	58.6
688.619	58.64
688.945	58.59
689.271	58.78
689.596	58.79
689.922	58.5
690.247	58.58
690.573	58.54
690.898	58.73
691.224	58.66
691.549	58.91
691.874	59.01
692.2	59.24
692.525	59.48
692.85	59.77
693.175	59.61
693.5	59.49
693.825	59.44
694.15	59.46
694.475	59.6
694.8	59.44
695.125	59.37
695.45	59.33
695.775	59.28
696.099	59.37
696.424	59.28
696.749	59.43
697.073	59.37
697.398	59.24
697.723	59.23
698.047	59.08
698.372	58.97
698.696	58.7
699.02	58.65
699.345	58.54
699.669	58.52
699.993	58.49
700.318	58.54
700.642	58.7
700.966	58.73
701.29	58.71
701.614	58.69
701.938	58.79
702.262	58.8
702.586	58.91
702.91	58.68
703.234	58.7
703.557	58.65
703.881	58.64
704.205	58.96
704.529	58.92
704.852	58.84
705.176	58.92
705.499	59.13
705.823	59.14
706.146	59.19
706.47	59.13
706.793	59.28
707.117	59.34
707.44	59.33
707.763	59.12
708.086	59.02
708.409	58.95
708.733	58.87
709.056	58.73
709.379	58.64
709.702	58.75
710.025	58.79
710.348	58.9
710.671	58.94
710.993	58.67
711.316	58.78
711.639	59.07
711.962	58.91
712.284	59.1
712.607	59.01
712.93	58.92
713.252	58.86
713.575	58.98
713.897	59.19
714.22	59.03
714.542	59.17
714.864	59.24
715.187	59.26
715.509	59.54
715.831	59.76
716.153	59.89
716.475	59.85
716.798	59.9
717.12	59.81
717.442	59.92
717.764	59.95
718.085	59.81
718.407	59.79
718.729	59.95
719.051	59.85
719.373	59.97
719.695	59.86
720.016	60.12
720.338	60.25
720.659	59.83
720.981	60.05
721.302	59.95
721.624	60.05
721.945	60.07
722.267	59.63
722.588	59.12
722.909	59.13
723.231	59.29
723.552	59.29
723.873	59.06
724.194	58.98
724.515	59.14
724.836	59.17
725.157	58.95
725.478	58.91
725.799	58.72
726.12	58.98
726.441	59.2
726.762	59.07
727.083	59.09
727.403	59.45
727.724	59.42
728.045	59.59
728.365	59.62
728.686	59.65
729.006	59.72
729.327	60.03
729.647	59.94
729.967	60.06
730.288	59.85
730.608	60.1
730.928	60.28
731.249	60.54
731.569	60.47
731.889	60.57
732.209	60.58
732.529	61.05
732.849	61
733.169	60.8
733.489	60.88
733.809	60.68
734.129	60.75
734.448	60.68
734.768	60.6
735.088	60.39
735.408	60.44
735.727	60.82
736.047	60.82
736.366	60.63
736.686	60.69
737.005	61.01
737.325	60.93
737.644	60.73
737.963	60.52
738.283	60.67
738.602	61.01
738.921	61.45
739.24	61.47
739.56	61.37
739.879	61.6
740.198	61.52
740.517	61.64
740.836	61.31
741.155	61.31
741.473	61.6
741.792	61.73
742.111	61.66
742.43	61.52
742.748	61.57
743.067	62.03
743.386	61.58
743.704	61.34
744.023	61.46
744.341	61.6
744.66	61.43
744.978	61.03
745.297	60.98
745.615	60.79
745.933	60.55
746.252	60.52
746.57	60.4
746.888	60.61
747.206	60.41
747.524	60.35
747.842	60.48
748.16	60.45
748.478	60.42
748.796	60.45
749.114	60.5
749.432	60.24
749.749	60.43
750.067	60.66
750.385	60.64
750.703	60.65
751.02	60.79
751.338	60.76
751.655	61.51
751.973	61.38
752.29	61.05
752.608	61
752.925	61.32
753.242	61.44
753.56	61.06
753.877	60.86
754.194	61.21
754.511	60.76
754.828	60.65
755.145	60.96
755.462	61.13
755.779	61.08
756.096	61.45
756.413	61.49
756.73	61.49
757.047	61.61
757.364	61.42
757.68	61.32
757.997	61.69
758.314	61.21
758.63	61.2
758.947	60.83
759.264	60.76
759.58	60.61
759.896	60.43
760.213	60.3
760.529	60.6
760.846	60.47
761.162	60.96
761.478	61
761.794	61.02
762.11	61.16
762.426	61.22
762.743	61.29
763.059	60.94
763.375	60.99
763.69	60.83
764.006	61.38
764.322	61.39
764.638	61.22
764.954	61.51
765.27	61.58
765.585	61.76
765.901	61.6
766.216	61.4
766.532	61.56
766.848	61.71
767.163	61.68
767.478	61.82
767.794	61.79
768.109	61.72
768.424	61.84
768.74	61.65
769.055	61.78
769.37	61.3
769.685	61.59
770	61.51
770.315	61.67
770.63	60.99
770.945	61.03
771.26	61
771.575	60.32
771.89	60
772.205	60.15
772.52	60.7
772.834	60.83
773.149	60.56
773.464	60.78
773.778	60.68
774.093	60.57
774.407	60.32
774.722	59.98
775.036	59.67
775.351	59.69
775.665	59.03
775.979	59.62
776.293	59.31
776.608	59.34
776.922	59.74
777.236	59.72
777.55	59.05
777.864	59.19
778.178	59.71
778.492	60.2
778.806	60.14
779.12	59.75
779.434	59.66
779.747	60.29
780.061	60
780.375	60.39
780.689	60.07
781.002	59.91
781.316	60.49
781.629	60.21
781.943	60.36
782.256	60.27
782.57	60.37
782.883	60.73
783.196	61.17
783.51	60.71
783.823	60.29
784.136	60.75
784.449	60.97
784.762	60.46
785.075	60.23
785.388	60.07
785.701	60.06
786.014	60.15
786.327	60
786.64	59.98
786.953	59.67
787.266	60.13
787.578	60.4
787.891	60.42
788.204	60.98
788.516	61.06
788.829	61.74
789.141	61.44
789.454	61.2
789.766	60.74
790.079	61.19
790.391	61.85
790.703	62.18
791.016	61.64
791.328	62.14
791.64	62.61
791.952	62.61
792.264	62.5
792.576	62.36
792.888	62.61
793.2	63.36
793.512	63.35
793.824	63.27
794.136	63.47
794.448	63.36
794.76	63.13
795.071	62.47
795.383	61.52
795.695	61.89
796.006	62.34
796.318	62.21
796.629	61.65
796.941	61.57
797.252	61.7
797.564	61.89
797.875	61.57
798.186	60.67
798.497	60.66
798.809	60.33
799.12	60.19
799.431	59.52
799.742	59.56
800.053	59.35
800.364	59.48
800.675	58.91
800.986	58.29
801.297	57.96
801.608	57.55
801.918	58.47
802.229	58.02
802.54	57.91
802.851	57.54
803.161	58.09
803.472	58.32
803.782	57.73
804.093	56.76
804.403	56.98
804.714	57.46
805.024	57.76
805.334	58.83
805.645	58.85
805.955	58.85
806.265	57.92
806.575	57.82
806.885	57.3
807.195	57.87
807.505	58.09
807.815	59.09
808.125	59.76
808.435	59.64
808.745	60.08
809.055	60.02
809.365	61.1
809.674	61.36
809.984	60.7
810.294	60.72
810.603	62.5
810.913	62.88
811.222	62.95
811.532	63.05
811.841	62.82
812.151	63.72
812.46	63.53
812.769	64.32
813.079	65.34
813.388	65.81
813.697	65.3
814.006	66.12
814.315	64.92
814.624	65.47
814.933	65.27
815.242	65.47
815.551	64.8
815.86	64.36
816.169	63.75
816.478	64.19
816.786	64.26
817.095	64.04
817.404	63.68
817.712	62.82
818.021	62.85
818.33	62.1
818.638	61.57
818.947	62.2
819.255	62.21
819.563	62.11
819.872	61.77
820.18	62.23
820.488	62.01
820.796	62.26
821.105	62.22
821.413	62.34
821.721	62.44
822.029	62.04
822.337	62.07
822.645	62.08
822.953	62.05
823.26	62.14
823.568	62.18
823.876	62.31
824.184	62.42
824.491	62.53
824.799	62.74
825.107	62.71
825.414	62.62
825.722	62.65
826.029	62.48
826.337	62.59
826.644	62.29
826.951	62.2
827.259	62.3
827.566	62.13
827.873	62.27
828.18	62.18
828.488	62.85
828.795	62.81
829.102	62.83
829.409	63.06
829.716	63.11
830.023	63.02
830.329	62.57
830.636	62.84
830.943	62.32
831.25	62.07
831.557	62.18
831.863	62.21
832.17	61.8
832.476	62.28
832.783	62.38
833.089	62.92
833.396	63.07
833.702	62.44
834.009	62.67
834.315	62.38
834.621	62.77
834.928	62.88
835.234	62.94
835.54	63.39
835.846	63.32
836.152	63.13
836.458	62.61
836.764	62.77
837.07	62.62
837.376	62.73
837.682	62.76
837.988	62.61
838.293	61.88
838.599	62.05
838.905	61.54
839.211	60.87
839.516	60.22
839.822	60.79
840.127	61.48
840.433	61.7
840.738	60.74
841.044	58.61
841.349	57.8
841.654	57.24
841.959	56.04
842.265	55.92
842.57	55.55
842.875	56.25
843.18	56.76
843.485	56.33
843.79	56.63
844.095	56.33
844.4	57.7
844.705	59.34
845.01	59.79
845.315	59.2
845.619	60.87
845.924	61.1
846.229	60.51
846.533	60.15
846.838	59.37
847.142	60.23
847.447	60.93
847.751	61.65
848.056	59.85
848.36	61.4
848.664	61.27
848.969	62.32
849.273	61.83
849.577	62.02
849.881	62.1
850.185	62.47
850.489	66.08
850.794	66.54
851.097	65.43
851.401	65.12
851.705	67.32
852.009	66.43
852.313	67.1
852.617	67.7
852.92	67.21
853.224	67.15
853.528	66.31
853.831	67.17
854.135	67.19
854.438	70.8
854.742	68.17
855.045	68.05
855.349	64.05
855.652	65.39
855.955	67.38
856.259	65.47
856.562	65
856.865	62.58
857.168	61.7
857.471	59.33
857.774	57.4
858.077	57.44
858.38	57.74
858.683	59.43
858.986	56.03
859.289	55.17
859.592	57.68
859.894	57.41
860.197	56.32
860.5	54.77
860.802	56.62
861.105	59.52
861.407	58.34
861.71	61.07
862.012	60.59
862.315	56.89
862.617	57.78
862.919	57.88
863.222	55.9
863.524	55.17
863.826	57.73
864.128	60.02
864.43	60.41
864.732	61.4
865.034	59.03
865.336	59.21
865.638	60.03
865.94	59.63
866.242	60.83
866.544	61.09
866.846	59.67
867.147	57.22
867.449	55.69
867.751	55.22
868.052	55.85
868.354	55.84
868.655	58.12
868.957	60.69
869.258	60.96
869.56	64.52
869.861	64.36
870.162	63.34
870.463	63.7
870.765	63.06
871.066	59.34
871.367	60.2
871.668	61.87
871.969	60.95
872.27	59.2
872.571	57.63
872.872	56.69
873.173	55.1
873.473	56.71
873.774	56.06
874.075	57.31
874.376	55.88
874.676	58.43
874.977	59.37
875.277	56.35
875.578	58.23
875.878	56.27
876.179	55.59
876.479	57.04
876.78	56.12
877.08	54.58
877.38	57.44
877.68	57.93
877.981	58.96
878.281	59.19
878.581	59.45
