Data from MVZ_BU26842_Reflection_00006.txt Node
Date: Tue Nov 19 12:18:21 EST 2019
User: vgr7
Spectrometer: USB2G7710
Scans to average: 3
Trigger mode: 4
Integration Time (sec): 2.000000E-2
Electric dark correction enabled: true
Boxcar width: 10
XAxis mode: Wavelengths
Number of Pixels in Spectrum: 2048
>>>>>Begin Spectral Data<<<<<
177.721	-109.15
178.105	-307.41
178.488	1280.56
178.871	39.51
179.254	166.67
179.636	-3511.11
180.019	359.26
180.402	100
180.785	-29.63
181.168	38.03
181.55	106.94
181.933	97.58
182.316	61.15
182.698	103.88
183.081	130.8
183.463	358.77
183.846	-670.11
184.228	-892.06
184.611	-161.9
184.993	-87.96
185.376	-79.97
185.758	-99.68
186.14	-163.1
186.522	-177.04
186.904	-223.61
187.287	-151.81
187.669	-126.67
188.051	-125.27
188.433	-159.45
188.815	-167.01
189.197	-155.38
189.579	-185.26
189.961	-156.26
190.342	-133.57
190.724	-172.41
191.106	-162.79
191.488	-252.64
191.869	-568.78
192.251	-573.16
192.633	-436.23
193.014	-643.39
193.396	-1058.91
193.777	-733.33
194.159	-303.19
194.54	-276.46
194.922	-315.9
195.303	-447.92
195.684	-1046.46
196.065	-487.96
196.447	-310.36
196.828	-286.82
197.209	-230.9
197.59	-131.4
197.971	-115.05
198.352	-100.85
198.733	-80.51
199.114	-109.47
199.495	-84
199.876	-54.01
200.257	-65.31
200.638	-63.18
201.018	-66.23
201.399	-54.79
201.78	-45.4
202.16	-32.38
202.541	-30.33
202.922	-42.18
203.302	-45.83
203.683	-45.83
204.063	-57.49
204.444	-47.91
204.824	-45.02
205.204	-45.32
205.585	-48.48
205.965	-47.56
206.345	-66.08
206.725	-63.75
207.106	-38.08
207.486	-45.1
207.866	-48.38
208.246	-24.89
208.626	-38.34
209.006	-36.55
209.386	-40.64
209.766	-51.11
210.145	-62.6
210.525	-68.82
210.905	-62.41
211.285	-34.12
211.664	-12.94
212.044	-0.66
212.424	10.26
212.803	19.31
213.183	9.7
213.562	25.64
213.942	26.31
214.321	32.78
214.701	20.53
215.08	4.76
215.459	20.52
215.838	11.73
216.218	-13.84
216.597	-2.12
216.976	-17.22
217.355	-18.66
217.734	-21.59
218.113	-20.08
218.492	-4.17
218.871	-21.01
219.25	-27.63
219.629	-70.29
220.008	-76.64
220.387	-99.21
220.766	-60.05
221.144	-72.94
221.523	-88.61
221.902	-79.82
222.28	-39.78
222.659	-7.84
223.037	5.15
223.416	6.19
223.794	24.21
224.173	31.09
224.551	32.16
224.929	25.36
225.308	22.54
225.686	17.01
226.064	11.83
226.442	5.05
226.821	12.14
227.199	5.24
227.577	9.77
227.955	18.09
228.333	14.84
228.711	12.41
229.089	12.28
229.467	12.14
229.845	11.14
230.222	7.55
230.6	3.85
230.978	2.12
231.356	-1.04
231.733	2.37
232.111	0.38
232.488	-1.43
232.866	2.53
233.243	4.55
233.621	4.42
233.998	6.39
234.376	8.03
234.753	9.13
235.13	9.78
235.508	8.45
235.885	6.84
236.262	6.74
236.639	6.36
237.016	6.65
237.393	7.42
237.77	7.81
238.147	6.37
238.524	6.24
238.901	6.84
239.278	6.25
239.655	4.2
240.032	4.88
240.409	5.59
240.785	4.31
241.162	3.69
241.539	3.67
241.915	3.23
242.292	3.15
242.668	2.82
243.045	3.17
243.421	3.63
243.798	3.56
244.174	3.81
244.551	3.78
244.927	3.92
245.303	3.59
245.679	3.56
246.056	3.84
246.432	3.85
246.808	3.75
247.184	4.05
247.56	3.97
247.936	3.77
248.312	3.54
248.688	3.68
249.064	3.69
249.44	3.53
249.815	3.79
250.191	3.64
250.567	3.69
250.943	3.61
251.318	3.17
251.694	3.15
252.069	3.51
252.445	3.57
252.82	3.33
253.196	3.54
253.571	3.49
253.947	3.23
254.322	3.17
254.697	3.15
255.073	2.89
255.448	3.12
255.823	3.15
256.198	3.05
256.573	2.85
256.948	2.71
257.323	2.88
257.698	2.76
258.073	2.71
258.448	2.7
258.823	2.76
259.198	2.9
259.573	2.64
259.948	2.54
260.322	2.37
260.697	2.4
261.072	2.39
261.446	2.27
261.821	2.26
262.195	2.14
262.57	2.28
262.944	2.41
263.319	2.33
263.693	2.34
264.067	2.39
264.442	2.47
264.816	2.51
265.19	2.54
265.564	2.46
265.938	2.61
266.313	2.45
266.687	2.32
267.061	2.21
267.435	2.42
267.809	2.25
268.183	2.36
268.556	2.35
268.93	2.38
269.304	2.42
269.678	2.36
270.051	2.6
270.425	2.45
270.799	2.36
271.172	2.16
271.546	2.25
271.919	2.27
272.293	2.36
272.666	2.35
273.04	2.35
273.413	2.44
273.787	2.52
274.16	2.53
274.533	2.69
274.906	2.68
275.279	2.69
275.653	2.75
276.026	2.76
276.399	2.73
276.772	2.81
277.145	2.97
277.518	3.03
277.891	3.01
278.263	3.18
278.636	3.2
279.009	3.54
279.382	3.41
279.755	3.35
280.127	3.38
280.5	3.39
280.872	3.33
281.245	3.44
281.617	3.27
281.99	3.23
282.362	3.18
282.735	3.38
283.107	3.31
283.479	3.27
283.852	3.31
284.224	3.26
284.596	3.17
284.968	3.22
285.34	3.23
285.713	3.13
286.085	2.88
286.457	2.83
286.829	2.77
287.201	2.79
287.572	2.89
287.944	2.76
288.316	2.84
288.688	2.87
289.06	2.75
289.431	2.96
289.803	3.09
290.175	2.96
290.546	2.75
290.918	2.74
291.289	2.66
291.661	2.64
292.032	2.67
292.403	2.68
292.775	2.59
293.146	2.64
293.517	2.69
293.889	2.94
294.26	2.97
294.631	3.11
295.002	3.13
295.373	2.99
295.744	3.04
296.115	3
296.486	2.87
296.857	2.92
297.228	2.79
297.599	2.74
297.97	2.75
298.34	2.78
298.711	2.77
299.082	2.87
299.452	2.8
299.823	2.73
300.194	2.82
300.564	2.78
300.935	2.85
301.305	2.68
301.676	2.46
302.046	2.39
302.416	2.16
302.787	2.01
303.157	2.08
303.527	2.2
303.897	2.17
304.267	2.43
304.637	2.33
305.008	2.38
305.378	2.38
305.748	2.4
306.117	2.44
306.487	2.63
306.857	2.62
307.227	2.78
307.597	2.85
307.967	2.8
308.336	2.95
308.706	2.76
309.076	2.91
309.445	2.98
309.815	2.99
310.184	3.13
310.554	3.21
310.923	3.23
311.293	3.16
311.662	3.15
312.031	3.1
312.401	3.18
312.77	3.09
313.139	3.21
313.508	3.3
313.877	3.29
314.246	3.13
314.616	3.16
314.985	3.07
315.353	3.03
315.722	2.91
316.091	2.76
316.46	2.8
316.829	2.76
317.198	2.91
317.567	2.97
317.935	2.87
318.304	3.04
318.672	3.03
319.041	3.02
319.41	3.02
319.778	2.95
320.147	2.82
320.515	2.94
320.883	2.7
321.252	2.63
321.62	2.6
321.988	2.67
322.357	2.59
322.725	2.58
323.093	2.61
323.461	2.72
323.829	2.82
324.197	2.95
324.565	3.03
324.933	2.88
325.301	2.75
325.669	2.74
326.037	2.61
326.405	2.65
326.772	2.62
327.14	2.52
327.508	2.57
327.875	2.71
328.243	2.63
328.61	2.78
328.978	2.76
329.346	2.77
329.713	2.82
330.08	2.99
330.448	3.06
330.815	3.21
331.182	3
331.55	2.97
331.917	2.75
332.284	2.82
332.651	2.79
333.018	2.96
333.385	2.91
333.752	2.87
334.119	2.9
334.486	2.92
334.853	3.1
335.22	3.01
335.587	2.94
335.954	2.89
336.32	2.83
336.687	2.99
337.054	2.99
337.42	2.9
337.787	2.67
338.153	2.65
338.52	2.7
338.886	2.85
339.253	2.7
339.619	2.82
339.986	2.67
340.352	2.73
340.718	2.61
341.084	2.65
341.451	2.71
341.817	2.63
342.183	2.7
342.549	2.71
342.915	2.73
343.281	2.77
343.647	2.9
344.013	2.78
344.379	2.67
344.745	2.67
345.11	2.65
345.476	2.78
345.842	2.83
346.208	2.75
346.573	2.69
346.939	2.64
347.304	2.72
347.67	2.78
348.035	2.76
348.401	2.89
348.766	2.88
349.132	2.8
349.497	2.82
349.862	2.8
350.228	2.74
350.593	2.74
350.958	2.79
351.323	2.73
351.688	2.91
352.053	2.91
352.418	2.95
352.783	3.03
353.148	3.07
353.513	2.95
353.878	2.95
354.243	2.89
354.608	3.08
354.972	3.04
355.337	3.04
355.702	3.06
356.066	3.03
356.431	3.11
356.795	3.15
357.16	3.13
357.524	3.08
357.889	3.02
358.253	3.01
358.618	2.97
358.982	2.92
359.346	2.88
359.71	2.93
360.075	2.96
360.439	3.02
360.803	3
361.167	3.05
361.531	3.03
361.895	3.11
362.259	3.13
362.623	3.03
362.987	3.06
363.351	3.09
363.714	3.08
364.078	3.04
364.442	2.99
364.806	3.05
365.169	3.05
365.533	3.11
365.896	3.13
366.26	3.07
366.623	3.1
366.987	3.09
367.35	3.05
367.714	2.97
368.077	2.94
368.44	2.89
368.803	2.83
369.167	2.75
369.53	2.73
369.893	2.67
370.256	2.79
370.619	2.77
370.982	2.68
371.345	2.71
371.708	2.69
372.071	2.74
372.434	2.68
372.797	2.73
373.159	2.66
373.522	2.63
373.885	2.67
374.247	2.75
374.61	2.74
374.973	2.74
375.335	2.76
375.698	2.73
376.06	2.7
376.423	2.78
376.785	2.86
377.147	2.88
377.51	2.88
377.872	2.82
378.234	2.84
378.596	2.9
378.958	2.88
379.321	2.89
379.683	2.89
380.045	2.92
380.407	2.94
380.769	2.99
381.13	2.98
381.492	3.01
381.854	2.95
382.216	2.99
382.578	2.98
382.939	2.98
383.301	2.99
383.663	3.07
384.024	3.03
384.386	3.08
384.747	3.1
385.109	3.06
385.47	3.09
385.832	3.08
386.193	3.03
386.554	3.02
386.916	3.01
387.277	2.98
387.638	3
387.999	2.92
388.36	2.87
388.721	2.89
389.082	2.85
389.443	2.85
389.804	2.87
390.165	2.88
390.526	2.91
390.887	2.9
391.248	2.86
391.609	2.89
391.969	2.86
392.33	2.84
392.691	2.87
393.051	2.85
393.412	2.86
393.772	2.9
394.133	2.88
394.493	2.84
394.854	2.86
395.214	2.84
395.574	2.86
395.935	2.92
396.295	2.92
396.655	2.92
397.015	2.94
397.376	2.89
397.736	2.91
398.096	2.89
398.456	2.92
398.816	2.91
399.176	2.89
399.535	2.86
399.895	2.84
400.255	2.82
400.615	2.83
400.975	2.82
401.334	2.78
401.694	2.78
402.054	2.8
402.413	2.77
402.773	2.79
403.132	2.81
403.492	2.82
403.851	2.84
404.211	2.87
404.57	2.88
404.929	2.9
405.288	2.89
405.648	2.91
406.007	2.88
406.366	2.89
406.725	2.88
407.084	2.92
407.443	2.95
407.802	2.96
408.161	2.99
408.52	2.99
408.879	3.03
409.238	3.07
409.596	3.1
409.955	3.14
410.314	3.13
410.673	3.14
411.031	3.13
411.39	3.11
411.748	3.12
412.107	3.05
412.465	3.05
412.824	3.02
413.182	3
413.54	3.01
413.899	3.02
414.257	3.03
414.615	2.99
414.974	3.01
415.332	3
415.69	2.95
416.048	2.97
416.406	2.96
416.764	2.96
417.122	2.98
417.48	3
417.838	3.01
418.195	2.99
418.553	2.99
418.911	3.01
419.269	3.01
419.626	3.05
419.984	3.07
420.342	3.07
420.699	3.09
421.057	3.1
421.414	3.11
421.772	3.11
422.129	3.12
422.486	3.12
422.844	3.12
423.201	3.15
423.558	3.15
423.915	3.16
424.273	3.16
424.63	3.16
424.987	3.15
425.344	3.16
425.701	3.16
426.058	3.19
426.415	3.18
426.772	3.18
427.128	3.18
427.485	3.18
427.842	3.18
428.199	3.18
428.555	3.16
428.912	3.16
429.269	3.17
429.625	3.16
429.982	3.15
430.338	3.17
430.695	3.16
431.051	3.16
431.407	3.16
431.764	3.16
432.12	3.15
432.476	3.16
432.832	3.16
433.189	3.17
433.545	3.14
433.901	3.14
434.257	3.13
434.613	3.13
434.969	3.14
435.325	3.13
435.681	3.14
436.036	3.16
436.392	3.15
436.748	3.16
437.104	3.18
437.459	3.2
437.815	3.2
438.171	3.22
438.526	3.22
438.882	3.22
439.237	3.22
439.593	3.23
439.948	3.23
440.304	3.21
440.659	3.26
441.014	3.26
441.369	3.28
441.725	3.28
442.08	3.28
442.435	3.27
442.79	3.28
443.145	3.28
443.5	3.27
443.855	3.27
444.21	3.28
444.565	3.27
444.92	3.26
445.275	3.25
445.629	3.23
445.984	3.24
446.339	3.22
446.693	3.21
447.048	3.19
447.403	3.19
447.757	3.19
448.112	3.14
448.466	3.15
448.82	3.15
449.175	3.17
449.529	3.17
449.883	3.17
450.238	3.18
450.592	3.16
450.946	3.16
451.3	3.17
451.654	3.16
452.008	3.15
452.362	3.17
452.716	3.16
453.07	3.17
453.424	3.19
453.778	3.2
454.132	3.2
454.486	3.23
454.839	3.25
455.193	3.26
455.547	3.27
455.9	3.26
456.254	3.26
456.607	3.25
456.961	3.23
457.314	3.22
457.668	3.22
458.021	3.22
458.375	3.21
458.728	3.2
459.081	3.21
459.434	3.19
459.787	3.19
460.141	3.19
460.494	3.19
460.847	3.16
461.2	3.18
461.553	3.18
461.906	3.17
462.259	3.13
462.611	3.15
462.964	3.16
463.317	3.15
463.67	3.14
464.022	3.14
464.375	3.15
464.728	3.17
465.08	3.17
465.433	3.2
465.785	3.22
466.138	3.23
466.49	3.24
466.843	3.28
467.195	3.29
467.547	3.3
467.899	3.31
468.252	3.31
468.604	3.32
468.956	3.33
469.308	3.34
469.66	3.37
470.012	3.36
470.364	3.33
470.716	3.32
471.068	3.34
471.42	3.36
471.772	3.39
472.123	3.4
472.475	3.4
472.827	3.38
473.178	3.38
473.53	3.38
473.882	3.38
474.233	3.34
474.585	3.32
474.936	3.31
475.288	3.29
475.639	3.31
475.99	3.3
476.342	3.31
476.693	3.32
477.044	3.32
477.395	3.33
477.746	3.35
478.097	3.37
478.448	3.36
478.8	3.34
479.15	3.3
479.501	3.29
479.852	3.29
480.203	3.3
480.554	3.31
480.905	3.31
481.255	3.33
481.606	3.34
481.957	3.35
482.307	3.36
482.658	3.38
483.009	3.37
483.359	3.37
483.709	3.37
484.06	3.38
484.41	3.39
484.761	3.39
485.111	3.4
485.461	3.4
485.811	3.41
486.162	3.42
486.512	3.44
486.862	3.44
487.212	3.45
487.562	3.45
487.912	3.45
488.262	3.45
488.612	3.45
488.961	3.45
489.311	3.46
489.661	3.46
490.011	3.44
490.36	3.44
490.71	3.46
491.06	3.45
491.409	3.44
491.759	3.41
492.108	3.41
492.458	3.4
492.807	3.38
493.157	3.39
493.506	3.37
493.855	3.37
494.204	3.37
494.554	3.35
494.903	3.36
495.252	3.37
495.601	3.36
495.95	3.35
496.299	3.37
496.648	3.37
496.997	3.36
497.346	3.4
497.695	3.4
498.043	3.4
498.392	3.41
498.741	3.44
499.09	3.46
499.438	3.49
499.787	3.49
500.135	3.5
500.484	3.49
500.832	3.51
501.181	3.5
501.529	3.51
501.878	3.52
502.226	3.53
502.574	3.53
502.923	3.53
503.271	3.54
503.619	3.56
503.967	3.54
504.315	3.54
504.663	3.54
505.011	3.55
505.359	3.52
505.707	3.51
506.055	3.51
506.403	3.51
506.751	3.5
507.098	3.52
507.446	3.53
507.794	3.53
508.141	3.54
508.489	3.56
508.837	3.56
509.184	3.57
509.531	3.56
509.879	3.56
510.226	3.58
510.574	3.59
510.921	3.56
511.268	3.57
511.616	3.58
511.963	3.56
512.31	3.57
512.657	3.6
513.004	3.58
513.351	3.58
513.698	3.58
514.045	3.58
514.392	3.57
514.739	3.57
515.086	3.58
515.432	3.56
515.779	3.54
516.126	3.54
516.473	3.53
516.819	3.56
517.166	3.57
517.512	3.57
517.859	3.55
518.205	3.55
518.552	3.56
518.898	3.55
519.245	3.57
519.591	3.56
519.937	3.56
520.283	3.57
520.629	3.58
520.976	3.61
521.322	3.61
521.668	3.61
522.014	3.63
522.36	3.63
522.706	3.66
523.052	3.69
523.398	3.69
523.743	3.71
524.089	3.71
524.435	3.69
524.781	3.71
525.126	3.71
525.472	3.72
525.817	3.71
526.163	3.72
526.509	3.72
526.854	3.73
527.199	3.73
527.545	3.74
527.89	3.72
528.235	3.73
528.581	3.72
528.926	3.71
529.271	3.7
529.616	3.71
529.961	3.7
530.306	3.69
530.651	3.69
530.996	3.69
531.341	3.7
531.686	3.7
532.031	3.69
532.376	3.7
532.721	3.71
533.065	3.72
533.41	3.72
533.755	3.72
534.099	3.73
534.444	3.74
534.788	3.74
535.133	3.75
535.477	3.74
535.822	3.75
536.166	3.79
536.51	3.77
536.855	3.76
537.199	3.77
537.543	3.79
537.887	3.79
538.231	3.77
538.576	3.76
538.92	3.77
539.264	3.77
539.608	3.78
539.951	3.77
540.295	3.77
540.639	3.78
540.983	3.78
541.327	3.78
541.671	3.78
542.014	3.8
542.358	3.8
542.701	3.81
543.045	3.81
543.389	3.81
543.732	3.82
544.075	3.84
544.419	3.83
544.762	3.82
545.105	3.83
545.449	3.84
545.792	3.85
546.135	3.85
546.478	3.85
546.821	3.86
547.165	3.87
547.508	3.88
547.851	3.89
548.194	3.89
548.536	3.9
548.879	3.91
549.222	3.9
549.565	3.91
549.908	3.89
550.25	3.91
550.593	3.91
550.936	3.91
551.278	3.89
551.621	3.91
551.963	3.94
552.306	3.92
552.648	3.94
552.991	3.95
553.333	3.94
553.675	3.95
554.017	3.95
554.36	3.96
554.702	3.93
555.044	3.97
555.386	3.96
555.728	3.97
556.07	3.95
556.412	3.92
556.754	3.91
557.096	3.89
557.438	3.86
557.78	3.88
558.121	3.87
558.463	3.88
558.805	3.88
559.147	3.87
559.488	3.88
559.83	3.86
560.171	3.83
560.513	3.84
560.854	3.83
561.196	3.81
561.537	3.8
561.878	3.83
562.22	3.8
562.561	3.82
562.902	3.77
563.243	3.76
563.584	3.8
563.925	3.82
564.266	3.86
564.607	3.89
564.948	3.88
565.289	3.88
565.63	3.87
565.971	3.87
566.312	3.89
566.653	3.91
566.993	3.91
567.334	3.93
567.675	3.94
568.015	3.92
568.356	3.94
568.696	3.96
569.037	3.94
569.377	3.93
569.718	3.92
570.058	3.96
570.398	3.98
570.739	3.96
571.079	3.96
571.419	3.93
571.759	3.92
572.099	3.91
572.439	3.94
572.779	3.93
573.119	3.94
573.459	3.91
573.799	3.87
574.139	3.89
574.479	3.9
574.819	3.9
575.158	3.92
575.498	3.9
575.838	3.88
576.177	3.86
576.517	3.87
576.856	3.87
577.196	3.87
577.535	3.88
577.875	3.88
578.214	3.86
578.553	3.87
578.893	3.89
579.232	3.95
579.571	3.92
579.91	3.96
580.25	3.94
580.589	3.98
580.928	4
581.267	3.99
581.606	4.02
581.945	4.02
582.283	4.02
582.622	4.04
582.961	4.05
583.3	4.06
583.639	4.03
583.977	4.05
584.316	4.01
584.654	3.99
584.993	3.98
585.332	3.97
585.67	3.98
586.008	3.98
586.347	3.93
586.685	3.95
587.024	3.89
587.362	3.92
587.7	3.97
588.038	4
588.376	4.02
588.715	3.96
589.053	3.94
589.391	3.96
589.729	4
590.067	3.99
590.404	4.01
590.742	4.05
591.08	4.01
591.418	4.04
591.756	4.07
592.093	4.11
592.431	4.17
592.769	4.23
593.106	4.23
593.444	4.26
593.781	4.3
594.119	4.34
594.456	4.31
594.793	4.25
595.131	4.26
595.468	4.27
595.805	4.28
596.143	4.31
596.48	4.32
596.817	4.29
597.154	4.32
597.491	4.34
597.828	4.32
598.165	4.33
598.502	4.3
598.839	4.29
599.176	4.29
599.512	4.28
599.849	4.21
600.186	4.19
600.523	4.22
600.859	4.21
601.196	4.2
601.532	4.21
601.869	4.24
602.205	4.2
602.542	4.2
602.878	4.25
603.215	4.23
603.551	4.23
603.887	4.22
604.223	4.22
604.56	4.26
604.896	4.26
605.232	4.29
605.568	4.31
605.904	4.32
606.24	4.31
606.576	4.31
606.912	4.33
607.248	4.32
607.583	4.29
607.919	4.28
608.255	4.28
608.591	4.31
608.926	4.31
609.262	4.32
609.597	4.34
609.933	4.26
610.268	4.29
610.604	4.29
610.939	4.32
611.275	4.32
611.61	4.25
611.945	4.23
612.281	4.19
612.616	4.21
612.951	4.23
613.286	4.22
613.621	4.19
613.956	4.21
614.291	4.25
614.626	4.25
614.961	4.28
615.296	4.32
615.631	4.31
615.966	4.34
616.3	4.36
616.635	4.34
616.97	4.39
617.304	4.42
617.639	4.43
617.973	4.39
618.308	4.38
618.642	4.41
618.977	4.43
619.311	4.47
619.646	4.42
619.98	4.42
620.314	4.45
620.648	4.53
620.983	4.53
621.317	4.58
621.651	4.55
621.985	4.52
622.319	4.48
622.653	4.53
622.987	4.46
623.321	4.49
623.655	4.55
623.988	4.59
624.322	4.53
624.656	4.53
624.99	4.52
625.323	4.54
625.657	4.53
625.99	4.53
626.324	4.5
626.657	4.51
626.991	4.5
627.324	4.42
627.658	4.36
627.991	4.38
628.324	4.32
628.657	4.36
628.991	4.35
629.324	4.38
629.657	4.3
629.99	4.36
630.323	4.34
630.656	4.33
630.989	4.32
631.322	4.34
631.655	4.32
631.987	4.37
632.32	4.38
632.653	4.36
632.986	4.42
633.318	4.46
633.651	4.44
633.984	4.41
634.316	4.53
634.649	4.55
634.981	4.52
635.313	4.54
635.646	4.51
635.978	4.52
636.31	4.54
636.643	4.56
636.975	4.51
637.307	4.5
637.639	4.44
637.971	4.42
638.303	4.48
638.635	4.47
638.967	4.41
639.299	4.38
639.631	4.39
639.963	4.31
640.295	4.39
640.626	4.43
640.958	4.43
641.29	4.39
641.621	4.4
641.953	4.31
642.285	4.35
642.616	4.44
642.948	4.47
643.279	4.44
643.61	4.45
643.942	4.49
644.273	4.52
644.604	4.53
644.936	4.54
645.267	4.52
645.598	4.59
645.929	4.61
646.26	4.55
646.591	4.66
646.922	4.7
647.253	4.65
647.584	4.64
647.915	4.67
648.245	4.69
648.576	4.72
648.907	4.79
649.238	4.68
649.568	4.58
649.899	4.56
650.229	4.6
650.56	4.65
650.89	4.62
651.221	4.66
651.551	4.68
651.882	4.65
652.212	4.66
652.542	4.68
652.872	4.67
653.203	4.74
653.533	4.71
653.863	4.69
654.193	4.6
654.523	4.62
654.853	4.72
655.183	4.72
655.513	4.72
655.843	4.75
656.172	4.92
656.502	4.89
656.832	4.86
657.162	4.8
657.491	4.78
657.821	4.73
658.15	4.69
658.48	4.73
658.809	4.68
659.139	4.7
659.468	4.67
659.798	4.72
660.127	4.79
660.456	4.75
660.785	4.77
661.115	4.88
661.444	4.93
661.773	4.91
662.102	4.88
662.431	4.85
662.76	4.89
663.089	4.83
663.418	4.84
663.747	4.88
664.076	4.86
664.404	4.91
664.733	4.97
665.062	4.95
665.39	4.86
665.719	4.95
666.048	4.95
666.376	4.97
666.705	4.98
667.033	5.04
667.362	5.02
667.69	5.03
668.018	5
668.347	4.93
668.675	4.88
669.003	4.91
669.331	4.98
669.659	4.9
669.987	4.85
670.315	5.06
670.643	5.08
670.971	5.12
671.299	5.04
671.627	5.08
671.955	5.07
672.283	5.11
672.61	5.14
672.938	5.14
673.266	5.14
673.593	5.09
673.921	4.97
674.249	5.02
674.576	5.05
674.904	4.98
675.231	4.98
675.558	4.97
675.886	5
676.213	4.89
676.54	4.98
676.867	4.96
677.195	4.87
677.522	4.81
677.849	4.93
678.176	5
678.503	4.93
678.83	5.03
679.157	5.12
679.484	5.16
679.81	5.19
680.137	5.23
680.464	5.23
680.791	5.25
681.117	5.37
681.444	5.34
681.771	5.5
682.097	5.54
682.424	5.54
682.75	5.58
683.077	5.73
683.403	5.76
683.729	5.83
684.056	5.91
684.382	5.97
684.708	5.98
685.034	6.01
685.36	6.07
685.686	6.06
686.012	6.09
686.339	6.08
686.664	6.07
686.99	6.02
687.316	6.01
687.642	6.05
687.968	6.04
688.294	6.01
688.619	5.97
688.945	6.03
689.271	6.06
689.596	6.07
689.922	5.89
690.247	5.88
690.573	5.76
690.898	5.68
691.224	5.68
691.549	5.69
691.874	5.67
692.2	5.65
692.525	5.56
692.85	5.46
693.175	5.42
693.5	5.36
693.825	5.45
694.15	5.46
694.475	5.39
694.8	5.25
695.125	5.27
695.45	5.18
695.775	5.1
696.099	5.12
696.424	5.14
696.749	5.23
697.073	5.19
697.398	5.4
697.723	5.34
698.047	5.4
698.372	5.42
698.696	5.4
699.02	5.54
699.345	5.69
699.669	5.74
699.993	5.75
700.318	5.88
700.642	5.82
700.966	5.94
701.29	6.03
701.614	6.09
701.938	6.15
702.262	6.18
702.586	6.27
702.91	6.34
703.234	6.22
703.557	6.2
703.881	6.35
704.205	6.27
704.529	6.35
704.852	6.29
705.176	6.32
705.499	6.25
705.823	6.21
706.146	6.15
706.47	6.09
706.793	6.07
707.117	5.96
707.44	5.9
707.763	5.84
708.086	5.84
708.409	5.82
708.733	5.81
709.056	5.83
709.379	5.78
709.702	5.74
710.025	5.95
710.348	5.98
710.671	5.96
710.993	5.83
711.316	5.88
711.639	5.86
711.962	5.73
712.284	5.9
712.607	5.96
712.93	5.88
713.252	5.95
713.575	6.15
713.897	6.18
714.22	6.41
714.542	6.5
714.864	6.47
715.187	6.39
715.509	6.35
715.831	6.42
716.153	6.47
716.475	6.41
716.798	6.37
717.12	6.41
717.442	6.34
717.764	6.61
718.085	6.55
718.407	6.57
718.729	6.61
719.051	6.5
719.373	6.51
719.695	6.6
720.016	6.59
720.338	6.55
720.659	6.58
720.981	6.33
721.302	6.5
721.624	6.47
721.945	6.68
722.267	6.83
722.588	6.83
722.909	6.82
723.231	6.86
723.552	6.72
723.873	6.73
724.194	6.8
724.515	6.58
724.836	6.49
725.157	6.63
725.478	6.58
725.799	6.52
726.12	6.38
726.441	6.47
726.762	6.3
727.083	6.18
727.403	6.21
727.724	6.22
728.045	5.93
728.365	6
728.686	5.93
729.006	5.76
729.327	5.9
729.647	5.96
729.967	6.07
730.288	6.1
730.608	6.29
730.928	6.42
731.249	6.45
731.569	6.72
731.889	6.54
732.209	6.68
732.529	6.69
732.849	6.73
733.169	6.52
733.489	6.79
733.809	6.84
734.129	6.75
734.448	6.88
734.768	6.95
735.088	6.83
735.408	6.67
735.727	6.67
736.047	6.48
736.366	6.4
736.686	6.31
737.005	6.36
737.325	6.27
737.644	6.06
737.963	6.17
738.283	6.03
738.602	6.09
738.921	6.02
739.24	6.29
739.56	6.19
739.879	6.45
740.198	6.25
740.517	6.25
740.836	6.22
741.155	6.14
741.473	6.11
741.792	6.26
742.111	6.49
742.43	6.93
742.748	7.06
743.067	6.97
743.386	6.97
743.704	6.87
744.023	6.68
744.341	6.75
744.66	6.71
744.978	6.59
745.297	6.57
745.615	6.57
745.933	6.51
746.252	6.59
746.57	6.53
746.888	6.44
747.206	6.37
747.524	6.45
747.842	6.26
748.16	6.32
748.478	6.11
748.796	6.23
749.114	5.99
749.432	5.98
749.749	6.02
750.067	6.19
750.385	6.32
750.703	6.57
751.02	6.61
751.338	6.51
751.655	6.64
751.973	6.65
752.29	6.81
752.608	6.39
752.925	6.3
753.242	6.42
753.56	6.44
753.877	6.39
754.194	6.48
754.511	6.73
754.828	6.63
755.145	6.6
755.462	6.83
755.779	6.63
756.096	6.85
756.413	6.9
756.73	6.81
757.047	6.94
757.364	6.84
757.68	6.99
757.997	7.01
758.314	7.11
758.63	7.43
758.947	7.19
759.264	7.59
759.58	7.8
759.896	7.85
760.213	8.11
760.529	8.16
760.846	8.03
761.162	8
761.478	8.03
761.794	8.33
762.11	8.13
762.426	8.23
762.743	7.86
763.059	7.93
763.375	7.98
763.69	8.05
764.006	7.96
764.322	7.9
764.638	8.11
764.954	8.02
765.27	8.01
765.585	8.14
765.901	8.02
766.216	7.91
766.532	7.84
766.848	7.89
767.163	8.06
767.478	8.09
767.794	7.99
768.109	8.13
768.424	8.02
768.74	7.9
769.055	7.91
769.37	8.13
769.685	8.18
770	7.93
770.315	7.67
770.63	8.09
770.945	8.23
771.26	8.09
771.575	8.11
771.89	7.85
772.205	7.74
772.52	7.73
772.834	7.72
773.149	7.45
773.464	7.14
773.778	7.02
774.093	6.84
774.407	7.02
774.722	7.01
775.036	7.33
775.351	7.33
775.665	7.39
775.979	7.16
776.293	7.46
776.608	7.83
776.922	7.85
777.236	7.48
777.55	7.55
777.864	7.7
778.178	7.78
778.492	7.89
778.806	7.91
779.12	7.85
779.434	8.03
779.747	8.42
780.061	8.52
780.375	8.49
780.689	8.89
781.002	8.35
781.316	8.5
781.629	8.12
781.943	8
782.256	7.84
782.57	8.02
782.883	7.74
783.196	8.19
783.51	8.58
783.823	8.94
784.136	8.21
784.449	7.56
784.762	7.69
785.075	7.56
785.388	8.02
785.701	8.24
786.014	8.17
786.327	7.99
786.64	7.91
786.953	8.01
787.266	8.05
787.578	8.61
787.891	8.49
788.204	8.45
788.516	8.69
788.829	8.7
789.141	9.21
789.454	9.07
789.766	8.36
790.079	8.19
790.391	7.93
790.703	8.21
791.016	8.64
791.328	8.33
791.64	8.42
791.952	8.75
792.264	8.66
792.576	9
792.888	8.91
793.2	8.7
793.512	8.97
793.824	8.76
794.136	8.81
794.448	8.97
794.76	9.31
795.071	9.37
795.383	9.77
795.695	9.41
796.006	9.5
796.318	9.5
796.629	9.49
796.941	9.67
797.252	9.46
797.564	9.88
797.875	9.99
798.186	10.4
798.497	9.94
798.809	9.52
799.12	9.02
799.431	8.91
799.742	9.72
800.053	8.57
800.364	8.98
800.675	9.38
800.986	8.67
801.297	8.04
801.608	7.41
801.918	6.98
802.229	6.95
802.54	6.83
802.851	7.46
803.161	7
803.472	6.62
803.782	7.14
804.093	6.98
804.403	7.3
804.714	6.99
805.024	7.06
805.334	7.41
805.645	7.37
805.955	7.79
806.265	7.49
806.575	8.15
806.885	7.48
807.195	7.66
807.505	8.18
807.815	8.99
808.125	9.47
808.435	9.2
808.745	9.56
809.055	10.16
809.365	9.74
809.674	10.43
809.984	11.3
810.294	11.19
810.603	11.01
810.913	10.56
811.222	10.61
811.532	10.18
811.841	10.75
812.151	10.7
812.46	11.07
812.769	10.46
813.079	11.17
813.388	11.5
813.697	9.97
814.006	9.86
814.315	9.62
814.624	10.15
814.933	10.6
815.242	9.81
815.551	9.42
815.86	9.67
816.169	9.11
816.478	9.03
816.786	8.85
817.095	8.74
817.404	8.88
817.712	8.83
818.021	9.38
818.33	9
818.638	10.05
818.947	9.99
819.255	10.47
819.563	10.13
819.872	10.44
820.18	10.99
820.488	11.29
820.796	11.11
821.105	11.07
821.413	11.02
821.721	10.97
822.029	10.94
822.337	10.82
822.645	10.76
822.953	10.6
823.26	10.67
823.568	10.73
823.876	10.79
824.184	10.85
824.491	10.76
824.799	11.08
825.107	10.93
825.414	10.74
825.722	10.52
826.029	10.76
826.337	10.7
826.644	10.69
826.951	10.3
827.259	10.36
827.566	10.2
827.873	10.36
828.18	10.42
828.488	10.38
828.795	10.41
829.102	10.54
829.409	10.46
829.716	10.3
830.023	10.32
830.329	10.29
830.636	9.97
830.943	9.85
831.25	9.44
831.557	9.4
831.863	9.62
832.17	9.84
832.476	9.4
832.783	9.22
833.089	9.03
833.396	9.65
833.702	9.63
834.009	10
834.315	9.52
834.621	9.75
834.928	9.48
835.234	9.28
835.54	9.36
835.846	9.68
836.152	9.82
836.458	9.99
836.764	10.05
837.07	10.27
837.376	10.18
837.682	9.81
837.988	9.96
838.293	10.14
838.599	10.15
838.905	10.11
839.211	10.3
839.516	10.78
839.822	11.39
840.127	10.83
840.433	10.63
840.738	11.3
841.044	11.73
841.349	12.44
841.654	12.57
841.959	12.45
842.265	11.77
842.57	11.55
842.875	11.37
843.18	11.92
843.485	12.63
843.79	12.78
844.095	12.87
844.4	12.34
844.705	12.55
845.01	13.11
845.315	13.31
845.619	13.72
845.924	13.17
846.229	11.26
846.533	12.22
846.838	12.38
847.142	12.97
847.447	12.23
847.751	12.92
848.056	14.47
848.36	15.63
848.664	15.99
848.969	17.19
849.273	16.99
849.577	15.37
849.881	15.97
850.185	17.68
850.489	17.15
850.794	17.23
851.097	15.94
851.401	14.94
851.705	15.62
852.009	14.73
852.313	15.3
852.617	14.37
852.92	17.65
853.224	16.63
853.528	14.3
853.831	14.24
854.135	13.61
854.438	10
854.742	11.04
855.045	11.42
855.349	10.11
855.652	10.89
855.955	13.25
856.259	11.19
856.562	9.45
856.865	9.81
857.168	11.41
857.471	13.73
857.774	15.91
858.077	14.45
858.38	13.38
858.683	13.72
858.986	13.32
859.289	9.81
859.592	11.28
859.894	12.54
860.197	13.33
860.5	14.16
860.802	15.7
861.105	14.29
861.407	14.35
861.71	13.24
862.012	11.19
862.315	8.77
862.617	8.92
862.919	8.93
863.222	10.29
863.524	6.55
863.826	2.77
864.128	2.07
864.43	3.75
864.732	3.79
865.034	1.08
865.336	1.61
865.638	3.57
865.94	3.15
866.242	2.84
866.544	4.61
866.846	3.02
867.147	3.19
867.449	3.82
867.751	3.39
868.052	4.65
868.354	6.9
868.655	6.28
868.957	9.04
869.258	8.18
869.56	7.46
869.861	6.84
870.162	9.56
870.463	10.32
870.765	10.87
871.066	13.22
871.367	12.31
871.668	15.47
871.969	14.57
872.27	14.77
872.571	13.82
872.872	10.19
873.173	9.22
873.473	9.51
873.774	9.46
874.075	11.27
874.376	9.6
874.676	6.14
874.977	5.63
875.277	2.63
875.578	4.44
875.878	4.11
876.179	6.72
876.479	5.27
876.78	3.82
877.08	0.96
877.38	-0.74
877.68	1.96
877.981	-0.44
878.281	-2.06
878.581	-4.71
