Data from MVZ_BU8943_Reflection_00009.txt Node
Date: Tue Nov 19 12:09:16 EST 2019
User: vgr7
Spectrometer: USB2G7710
Scans to average: 3
Trigger mode: 4
Integration Time (sec): 2.000000E-2
Electric dark correction enabled: true
Boxcar width: 10
XAxis mode: Wavelengths
Number of Pixels in Spectrum: 2048
>>>>>Begin Spectral Data<<<<<
177.721	177.8
178.105	419.15
178.488	-169.3
178.871	-76.71
179.254	-288.24
179.636	-184.02
180.019	-159.03
180.402	290
180.785	115.58
181.168	172.34
181.55	87.04
181.933	100
182.316	144.67
182.698	72100
183.081	-839.76
183.463	641.35
183.846	537.09
184.228	935.44
184.611	-191.83
184.993	-62.91
185.376	-26.23
185.758	-26.02
186.14	-54.97
186.522	-20.58
186.904	-33.68
187.287	-31.06
187.669	-24.6
188.051	-13.42
188.433	-37.12
188.815	-12.24
189.197	1.18
189.579	-10.59
189.961	-23.36
190.342	-13.97
190.724	-17.62
191.106	-9.33
191.488	7.78
191.869	18.47
192.251	5.89
192.633	6.33
193.014	-6.24
193.396	-14.72
193.777	6.6
194.159	50.6
194.54	22.73
194.922	34.53
195.303	56.83
195.684	365.49
196.065	384.67
196.447	-65900
196.828	-592.31
197.209	3100
197.59	-273.96
197.971	-284.2
198.352	-208.01
198.733	-533.17
199.114	-779.7
199.495	550.87
199.876	351.5
200.257	94.37
200.638	63.14
201.018	17.93
201.399	32.46
201.78	-6.47
202.16	-105.06
202.541	-238.91
202.922	-378.99
203.302	-447.45
203.683	-418.92
204.063	-185.44
204.444	-142.69
204.824	-115.17
205.204	-174.69
205.585	-128.36
205.965	-168.36
206.345	-182.01
206.725	-195.49
207.106	-200.37
207.486	-217.2
207.866	-214.11
208.246	-141.04
208.626	-185.51
209.006	-213.23
209.386	-348.88
209.766	-289.01
210.145	-203.94
210.525	-302.99
210.905	-543.78
211.285	-446.8
211.664	-103.88
212.044	-553.47
212.424	-483.89
212.803	301.41
213.183	617.24
213.562	596.55
213.942	963.01
214.321	-491.13
214.701	2332.56
215.08	2906.45
215.459	-909.9
215.838	761.42
216.218	123.55
216.597	126.61
216.976	196.51
217.355	1083.61
217.734	-764.41
218.113	224.26
218.492	-2627.27
218.871	-13.51
219.25	-21.83
219.629	-252.94
220.008	-76.47
220.387	-37.58
220.766	-11.2
221.144	12.43
221.523	29.45
221.902	21.11
222.28	43.05
222.659	69.88
223.037	61.17
223.416	97.02
223.794	69.47
224.173	52.5
224.551	43.46
224.929	33.62
225.308	49.61
225.686	42.08
226.064	32.1
226.442	26.18
226.821	26.63
227.199	21.86
227.577	15.79
227.955	20.57
228.333	20.93
228.711	22.75
229.089	21.19
229.467	14.55
229.845	14.46
230.222	10.47
230.6	6.66
230.978	9.65
231.356	1.89
231.733	4.81
232.111	3.99
232.488	5.58
232.866	7.34
233.243	3.79
233.621	2.68
233.998	4.79
234.376	6.97
234.753	2.39
235.13	2.26
235.508	5.2
235.885	2.5
236.262	-0.48
236.639	-3.52
237.016	-3.61
237.393	-0.76
237.77	-0.42
238.147	2.04
238.524	4.02
238.901	1.98
239.278	2.81
239.655	2.98
240.032	3.48
240.409	3.56
240.785	3.8
241.162	4.36
241.539	4.58
241.915	3.92
242.292	3.43
242.668	3.98
243.045	4.31
243.421	3.86
243.798	4.59
244.174	4.81
244.551	4.82
244.927	4.84
245.303	4.5
245.679	4.32
246.056	4.14
246.432	3.91
246.808	4.04
247.184	4.11
247.56	3.8
247.936	3.96
248.312	4.21
248.688	4.14
249.064	4.05
249.44	4.06
249.815	4.24
250.191	4.49
250.567	4.59
250.943	4.57
251.318	4.69
251.694	4.37
252.069	4.33
252.445	4.45
252.82	4.55
253.196	4.66
253.571	5.08
253.947	5.02
254.322	4.98
254.697	4.9
255.073	4.81
255.448	4.81
255.823	4.41
256.198	4
256.573	3.99
256.948	4.16
257.323	4.21
257.698	4.09
258.073	3.69
258.448	3.6
258.823	3.44
259.198	3.32
259.573	3.23
259.948	3.24
260.322	3.28
260.697	3.47
261.072	3.45
261.446	3.42
261.821	3.35
262.195	3.26
262.57	3.47
262.944	3.47
263.319	3.5
263.693	3.35
264.067	3.25
264.442	3.16
264.816	2.89
265.19	2.75
265.564	2.79
265.938	3.04
266.313	2.93
266.687	2.87
267.061	3.05
267.435	3.37
267.809	3.43
268.183	3.41
268.556	2.97
268.93	3.33
269.304	3.07
269.678	3.11
270.051	3.16
270.425	2.91
270.799	2.85
271.172	2.76
271.546	3.07
271.919	3.13
272.293	3.26
272.666	3.34
273.04	3.38
273.413	3.3
273.787	3.18
274.16	3.13
274.533	3.34
274.906	3.27
275.279	3.15
275.653	3.19
276.026	3.29
276.399	3.43
276.772	3.22
277.145	3.31
277.518	3.32
277.891	3.48
278.263	3.5
278.636	3.65
279.009	3.94
279.382	3.75
279.755	3.75
280.127	3.64
280.5	3.58
280.872	3.62
281.245	3.71
281.617	3.86
281.99	3.97
282.362	3.89
282.735	4
283.107	3.96
283.479	3.88
283.852	3.69
284.224	3.76
284.596	3.56
284.968	3.64
285.34	3.79
285.713	3.77
286.085	3.82
286.457	3.81
286.829	3.59
287.201	3.53
287.572	3.65
287.944	3.73
288.316	3.83
288.688	3.85
289.06	3.98
289.431	3.99
289.803	4.04
290.175	4
290.546	3.85
290.918	3.85
291.289	3.77
291.661	3.94
292.032	4
292.403	4.19
292.775	4.16
293.146	4.04
293.517	3.94
293.889	3.93
294.26	3.82
294.631	3.98
295.002	4.02
295.373	3.87
295.744	3.78
296.115	3.85
296.486	3.6
296.857	3.64
297.228	3.57
297.599	3.41
297.97	3.41
298.34	3.59
298.711	3.75
299.082	3.87
299.452	3.72
299.823	3.61
300.194	3.6
300.564	3.47
300.935	3.61
301.305	3.65
301.676	3.62
302.046	3.74
302.416	3.64
302.787	3.75
303.157	3.91
303.527	4.08
303.897	4.05
304.267	4.36
304.637	4.2
305.008	4.29
305.378	4.59
305.748	4.63
306.117	4.51
306.487	4.46
306.857	4.56
307.227	4.87
307.597	4.9
307.967	4.97
308.336	5.11
308.706	5.02
309.076	5.04
309.445	5.29
309.815	5.29
310.184	5.34
310.554	5.26
310.923	5.14
311.293	5.11
311.662	5.07
312.031	5.14
312.401	5.15
312.77	5.03
313.139	5.05
313.508	5.08
313.877	5.2
314.246	5.24
314.616	5.32
314.985	5.41
315.353	5.47
315.722	5.48
316.091	5.51
316.46	5.62
316.829	5.59
317.198	5.49
317.567	5.78
317.935	5.87
318.304	6.17
318.672	6.38
319.041	6.43
319.41	6.44
319.778	6.56
320.147	6.57
320.515	6.8
320.883	6.85
321.252	6.88
321.62	6.76
321.988	6.71
322.357	6.69
322.725	6.56
323.093	6.53
323.461	6.54
323.829	6.67
324.197	6.52
324.565	6.66
324.933	6.68
325.301	6.52
325.669	6.5
326.037	6.41
326.405	6.41
326.772	6.42
327.14	6.47
327.508	6.33
327.875	6.41
328.243	6.36
328.61	6.46
328.978	6.39
329.346	6.48
329.713	6.56
330.08	6.55
330.448	6.56
330.815	6.71
331.182	6.64
331.55	6.59
331.917	6.69
332.284	6.68
332.651	6.76
333.018	6.6
333.385	6.72
333.752	6.71
334.119	6.78
334.486	6.97
334.853	6.96
335.22	7.01
335.587	7.04
335.954	7.11
336.32	7.01
336.687	7.17
337.054	7.23
337.42	7.29
337.787	7.32
338.153	7.27
338.52	7.35
338.886	7.49
339.253	7.43
339.619	7.51
339.986	7.46
340.352	7.47
340.718	7.61
341.084	7.67
341.451	7.74
341.817	7.71
342.183	7.5
342.549	7.66
342.915	7.66
343.281	7.68
343.647	7.69
344.013	7.73
344.379	7.68
344.745	7.75
345.11	7.72
345.476	7.74
345.842	7.79
346.208	7.82
346.573	7.8
346.939	7.84
347.304	7.8
347.67	7.87
348.035	7.86
348.401	7.95
348.766	7.87
349.132	7.93
349.497	8.12
349.862	8.13
350.228	8.06
350.593	8.08
350.958	8.15
351.323	8.16
351.688	8.27
352.053	8.43
352.418	8.44
352.783	8.41
353.148	8.43
353.513	8.42
353.878	8.45
354.243	8.38
354.608	8.52
354.972	8.52
355.337	8.56
355.702	8.51
356.066	8.48
356.431	8.48
356.795	8.43
357.16	8.31
357.524	8.42
357.889	8.42
358.253	8.49
358.618	8.44
358.982	8.48
359.346	8.34
359.71	8.22
360.075	8.12
360.439	8.13
360.803	8.16
361.167	8.17
361.531	8.08
361.895	8.17
362.259	8.16
362.623	8.17
362.987	8.07
363.351	8.16
363.714	8.12
364.078	8.11
364.442	8.09
364.806	8.13
365.169	8.12
365.533	8.22
365.896	8.18
366.26	8.1
366.623	8
366.987	8.02
367.35	8.07
367.714	8.07
368.077	8.02
368.44	7.97
368.803	7.86
369.167	7.77
369.53	7.77
369.893	7.74
370.256	7.71
370.619	7.74
370.982	7.57
371.345	7.59
371.708	7.54
372.071	7.49
372.434	7.43
372.797	7.37
373.159	7.21
373.522	7.21
373.885	7.32
374.247	7.31
374.61	7.29
374.973	7.29
375.335	7.3
375.698	7.32
376.06	7.29
376.423	7.3
376.785	7.39
377.147	7.3
377.51	7.17
377.872	7.15
378.234	7.16
378.596	7.18
378.958	7.09
379.321	7.14
379.683	7.12
380.045	7.03
380.407	6.98
380.769	7.01
381.13	6.92
381.492	6.85
381.854	6.85
382.216	6.83
382.578	6.76
382.939	6.74
383.301	6.7
383.663	6.68
384.024	6.64
384.386	6.6
384.747	6.59
385.109	6.55
385.47	6.49
385.832	6.42
386.193	6.33
386.554	6.31
386.916	6.24
387.277	6.19
387.638	6.2
387.999	6.19
388.36	6.14
388.721	6.11
389.082	6.09
389.443	6.06
389.804	6.02
390.165	5.98
390.526	5.98
390.887	5.94
391.248	5.86
391.609	5.88
391.969	5.84
392.33	5.8
392.691	5.79
393.051	5.8
393.412	5.81
393.772	5.86
394.133	5.84
394.493	5.76
394.854	5.8
395.214	5.76
395.574	5.71
395.935	5.67
396.295	5.63
396.655	5.61
397.015	5.54
397.376	5.47
397.736	5.47
398.096	5.45
398.456	5.4
398.816	5.42
399.176	5.35
399.535	5.3
399.895	5.28
400.255	5.28
400.615	5.21
400.975	5.15
401.334	5.11
401.694	5.08
402.054	5.07
402.413	4.99
402.773	4.97
403.132	4.93
403.492	4.92
403.851	4.91
404.211	4.84
404.57	4.85
404.929	4.87
405.288	4.85
405.648	4.79
406.007	4.82
406.366	4.79
406.725	4.79
407.084	4.78
407.443	4.77
407.802	4.73
408.161	4.73
408.52	4.73
408.879	4.72
409.238	4.76
409.596	4.77
409.955	4.73
410.314	4.73
410.673	4.73
411.031	4.76
411.39	4.77
411.748	4.77
412.107	4.77
412.465	4.71
412.824	4.71
413.182	4.7
413.54	4.68
413.899	4.69
414.257	4.67
414.615	4.63
414.974	4.65
415.332	4.64
415.69	4.63
416.048	4.64
416.406	4.58
416.764	4.53
417.122	4.48
417.48	4.52
417.838	4.5
418.195	4.51
418.553	4.47
418.911	4.44
419.269	4.44
419.626	4.42
419.984	4.43
420.342	4.42
420.699	4.41
421.057	4.39
421.414	4.36
421.772	4.35
422.129	4.35
422.486	4.33
422.844	4.32
423.201	4.32
423.558	4.29
423.915	4.3
424.273	4.3
424.63	4.32
424.987	4.29
425.344	4.26
425.701	4.23
426.058	4.22
426.415	4.23
426.772	4.23
427.128	4.23
427.485	4.19
427.842	4.17
428.199	4.15
428.555	4.14
428.912	4.13
429.269	4.11
429.625	4.12
429.982	4.11
430.338	4.09
430.695	4.06
431.051	4.07
431.407	4.06
431.764	4.05
432.12	4.04
432.476	4.03
432.832	4.05
433.189	4.05
433.545	4.07
433.901	4.05
434.257	4.02
434.613	4.02
434.969	4.03
435.325	4.03
435.681	4.03
436.036	4.01
436.392	4.02
436.748	4.03
437.104	4.02
437.459	4.01
437.815	4.03
438.171	4.03
438.526	4.01
438.882	4.01
439.237	4.01
439.593	4.01
439.948	4.02
440.304	4
440.659	3.99
441.014	3.97
441.369	3.97
441.725	3.98
442.08	3.97
442.435	3.97
442.79	3.96
443.145	3.97
443.5	3.98
443.855	3.98
444.21	3.96
444.565	3.95
444.92	3.96
445.275	3.95
445.629	3.94
445.984	3.95
446.339	3.96
446.693	3.94
447.048	3.94
447.403	3.95
447.757	3.94
448.112	3.94
448.466	3.94
448.82	3.94
449.175	3.93
449.529	3.92
449.883	3.92
450.238	3.92
450.592	3.92
450.946	3.92
451.3	3.92
451.654	3.9
452.008	3.9
452.362	3.88
452.716	3.88
453.07	3.87
453.424	3.85
453.778	3.85
454.132	3.87
454.486	3.86
454.839	3.84
455.193	3.87
455.547	3.88
455.9	3.88
456.254	3.87
456.607	3.87
456.961	3.87
457.314	3.86
457.668	3.89
458.021	3.89
458.375	3.88
458.728	3.88
459.081	3.89
459.434	3.91
459.787	3.92
460.141	3.93
460.494	3.94
460.847	3.96
461.2	3.95
461.553	3.93
461.906	3.93
462.259	3.92
462.611	3.9
462.964	3.89
463.317	3.91
463.67	3.92
464.022	3.95
464.375	3.96
464.728	3.97
465.08	3.96
465.433	3.95
465.785	3.96
466.138	3.93
466.49	3.97
466.843	3.99
467.195	4.02
467.547	4.02
467.899	4.03
468.252	4.03
468.604	4.06
468.956	4.09
469.308	4.11
469.66	4.16
470.012	4.18
470.364	4.2
470.716	4.21
471.068	4.23
471.42	4.25
471.772	4.28
472.123	4.29
472.475	4.33
472.827	4.36
473.178	4.38
473.53	4.41
473.882	4.4
474.233	4.4
474.585	4.41
474.936	4.42
475.288	4.44
475.639	4.45
475.99	4.43
476.342	4.43
476.693	4.44
477.044	4.42
477.395	4.42
477.746	4.41
478.097	4.39
478.448	4.39
478.8	4.38
479.15	4.36
479.501	4.35
479.852	4.32
480.203	4.31
480.554	4.32
480.905	4.32
481.255	4.31
481.606	4.3
481.957	4.28
482.307	4.27
482.658	4.26
483.009	4.27
483.359	4.27
483.709	4.26
484.06	4.26
484.41	4.25
484.761	4.26
485.111	4.26
485.461	4.28
485.811	4.27
486.162	4.26
486.512	4.27
486.862	4.28
487.212	4.28
487.562	4.28
487.912	4.28
488.262	4.27
488.612	4.26
488.961	4.26
489.311	4.27
489.661	4.28
490.011	4.29
490.36	4.26
490.71	4.27
491.06	4.26
491.409	4.25
491.759	4.27
492.108	4.27
492.458	4.27
492.807	4.27
493.157	4.28
493.506	4.28
493.855	4.26
494.204	4.26
494.554	4.28
494.903	4.3
495.252	4.31
495.601	4.34
495.95	4.38
496.299	4.4
496.648	4.4
496.997	4.45
497.346	4.47
497.695	4.53
498.043	4.58
498.392	4.61
498.741	4.68
499.09	4.73
499.438	4.79
499.787	4.83
500.135	4.86
500.484	4.89
500.832	4.96
501.181	5.03
501.529	5.13
501.878	5.2
502.226	5.25
502.574	5.3
502.923	5.36
503.271	5.4
503.619	5.5
503.967	5.57
504.315	5.63
504.663	5.71
505.011	5.78
505.359	5.82
505.707	5.94
506.055	6.01
506.403	6.11
506.751	6.17
507.098	6.28
507.446	6.35
507.794	6.47
508.141	6.56
508.489	6.65
508.837	6.72
509.184	6.76
509.531	6.85
509.879	6.96
510.226	7.06
510.574	7.16
510.921	7.24
511.268	7.36
511.616	7.45
511.963	7.55
512.31	7.63
512.657	7.76
513.004	7.84
513.351	7.97
513.698	8.06
514.045	8.18
514.392	8.3
514.739	8.45
515.086	8.59
515.432	8.72
515.779	8.86
516.126	9
516.473	9.17
516.819	9.31
517.166	9.42
517.512	9.55
517.859	9.67
518.205	9.8
518.552	9.94
518.898	10.07
519.245	10.21
519.591	10.36
519.937	10.51
520.283	10.66
520.629	10.78
520.976	10.94
521.322	11.13
521.668	11.29
522.014	11.45
522.36	11.62
522.706	11.79
523.052	11.98
523.398	12.16
523.743	12.36
524.089	12.55
524.435	12.74
524.781	12.92
525.126	13.09
525.472	13.25
525.817	13.35
526.163	13.49
526.509	13.62
526.854	13.76
527.199	13.87
527.545	13.98
527.89	14.11
528.235	14.23
528.581	14.36
528.926	14.47
529.271	14.6
529.616	14.72
529.961	14.85
530.306	14.97
530.651	15.1
530.996	15.23
531.341	15.39
531.686	15.54
532.031	15.7
532.376	15.88
532.721	16.04
533.065	16.25
533.41	16.43
533.755	16.59
534.099	16.76
534.444	16.93
534.788	17.13
535.133	17.31
535.477	17.48
535.822	17.66
536.166	17.86
536.51	18.08
536.855	18.33
537.199	18.55
537.543	18.81
537.887	19.08
538.231	19.36
538.576	19.6
538.92	19.88
539.264	20.13
539.608	20.36
539.951	20.61
540.295	20.81
540.639	21.02
540.983	21.24
541.327	21.46
541.671	21.69
542.014	21.88
542.358	22.1
542.701	22.27
543.045	22.5
543.389	22.72
543.732	22.93
544.075	23.13
544.419	23.39
544.762	23.59
545.105	23.83
545.449	24.05
545.792	24.33
546.135	24.54
546.478	24.83
546.821	25.14
547.165	25.45
547.508	25.74
547.851	26.04
548.194	26.36
548.536	26.66
548.879	26.96
549.222	27.22
549.565	27.5
549.908	27.85
550.25	28.12
550.593	28.43
550.936	28.74
551.278	29.07
551.621	29.3
551.963	29.66
552.306	29.92
552.648	30.21
552.991	30.45
553.333	30.73
553.675	30.99
554.017	31.22
554.36	31.43
554.702	31.68
555.044	31.9
555.386	32.11
555.728	32.35
556.07	32.57
556.412	32.88
556.754	33.17
557.096	33.43
557.438	33.74
557.78	33.98
558.121	34.24
558.463	34.48
558.805	34.83
559.147	35.05
559.488	35.35
559.83	35.58
560.171	35.87
560.513	36.14
560.854	36.41
561.196	36.64
561.537	36.91
561.878	37.19
562.22	37.42
562.561	37.64
562.902	37.85
563.243	38.16
563.584	38.36
563.925	38.54
564.266	38.74
564.607	38.92
564.948	39.09
565.289	39.29
565.63	39.42
565.971	39.58
566.312	39.72
566.653	39.96
566.993	40.13
567.334	40.32
567.675	40.54
568.015	40.68
568.356	40.89
568.696	41.06
569.037	41.24
569.377	41.44
569.718	41.64
570.058	41.84
570.398	41.93
570.739	42.12
571.079	42.25
571.419	42.42
571.759	42.56
572.099	42.73
572.439	42.84
572.779	43.03
573.119	43.09
573.459	43.26
573.799	43.3
574.139	43.41
574.479	43.47
574.819	43.59
575.158	43.67
575.498	43.74
575.838	43.87
576.177	43.98
576.517	44.13
576.856	44.26
577.196	44.37
577.535	44.45
577.875	44.56
578.214	44.72
578.553	44.86
578.893	45.01
579.232	45.2
579.571	45.33
579.91	45.49
580.25	45.64
580.589	45.73
580.928	45.91
581.267	46.06
581.606	46.19
581.945	46.24
582.283	46.39
582.622	46.47
582.961	46.57
583.3	46.62
583.639	46.66
583.977	46.7
584.316	46.82
584.654	46.99
584.993	47.09
585.332	47.17
585.67	47.23
586.008	47.27
586.347	47.31
586.685	47.35
587.024	47.43
587.362	47.5
587.7	47.6
588.038	47.63
588.376	47.74
588.715	47.87
589.053	48
589.391	48.06
589.729	48.21
590.067	48.24
590.404	48.34
590.742	48.37
591.08	48.52
591.418	48.58
591.756	48.65
592.093	48.64
592.431	48.71
592.769	48.73
593.106	48.77
593.444	48.83
593.781	48.98
594.119	49.03
594.456	49.12
594.793	49.24
595.131	49.31
595.468	49.35
595.805	49.54
596.143	49.56
596.48	49.62
596.817	49.67
597.154	49.74
597.491	49.72
597.828	49.85
598.165	49.84
598.502	49.86
598.839	49.94
599.176	50.04
599.512	50.01
599.849	50.1
600.186	50.25
600.523	50.26
600.859	50.27
601.196	50.32
601.532	50.38
601.869	50.46
602.205	50.56
602.542	50.62
602.878	50.55
603.215	50.56
603.551	50.6
603.887	50.6
604.223	50.59
604.56	50.68
604.896	50.65
605.232	50.72
605.568	50.78
605.904	50.81
606.24	50.8
606.576	50.93
606.912	51.03
607.248	51
607.583	51.08
607.919	51.1
608.255	51.16
608.591	51.12
608.926	51.06
609.262	51.05
609.597	51.03
609.933	51.02
610.268	51.06
610.604	51.13
610.939	51.22
611.275	51.27
611.61	51.35
611.945	51.39
612.281	51.4
612.616	51.38
612.951	51.42
613.286	51.55
613.621	51.53
613.956	51.43
614.291	51.52
614.626	51.5
614.961	51.53
615.296	51.5
615.631	51.59
615.966	51.68
616.3	51.7
616.635	51.76
616.97	51.77
617.304	51.83
617.639	51.74
617.973	51.69
618.308	51.76
618.642	51.66
618.977	51.78
619.311	51.79
619.646	51.88
619.98	51.91
620.314	51.87
620.648	51.98
620.983	52.04
621.317	51.98
621.651	52.11
621.985	52.19
622.319	52.26
622.653	52.34
622.987	52.31
623.321	52.33
623.655	52.32
623.988	52.43
624.322	52.42
624.656	52.61
624.99	52.62
625.323	52.67
625.657	52.76
625.99	52.73
626.324	52.79
626.657	52.82
626.991	52.79
627.324	52.8
627.658	52.81
627.991	52.89
628.324	52.84
628.657	52.86
628.991	52.92
629.324	52.93
629.657	52.99
629.99	53.02
630.323	53.1
630.656	53.16
630.989	53.18
631.322	53.22
631.655	53.13
631.987	53.19
632.32	53.22
632.653	53.19
632.986	53.23
633.318	53.27
633.651	53.23
633.984	53.4
634.316	53.42
634.649	53.4
634.981	53.4
635.313	53.51
635.646	53.4
635.978	53.35
636.31	53.31
636.643	53.25
636.975	53.23
637.307	53.14
637.639	53.18
637.971	53.09
638.303	53.13
638.635	53.22
638.967	53.2
639.299	53.18
639.631	53.3
639.963	53.32
640.295	53.16
640.626	53.21
640.958	53.04
641.29	53.09
641.621	53.21
641.953	53.19
642.285	53.29
642.616	53.36
642.948	53.35
643.279	53.4
643.61	53.39
643.942	53.52
644.273	53.67
644.604	53.66
644.936	53.79
645.267	53.79
645.598	53.82
645.929	53.93
646.26	53.9
646.591	53.89
646.922	54
647.253	54.16
647.584	54.1
647.915	54.09
648.245	53.92
648.576	53.82
648.907	53.91
649.238	53.92
649.568	53.93
649.899	53.91
650.229	53.95
650.56	54.09
650.89	54.19
651.221	54.15
651.551	54.24
651.882	54.16
652.212	54.17
652.542	54.01
652.872	53.99
653.203	54.08
653.533	54.08
653.863	54.03
654.193	54.03
654.523	54.1
654.853	54.25
655.183	54.54
655.513	54.54
655.843	54.47
656.172	54.43
656.502	54.55
656.832	54.6
657.162	54.6
657.491	54.56
657.821	54.5
658.15	54.4
658.48	54.45
658.809	54.46
659.139	54.41
659.468	54.61
659.798	54.61
660.127	54.61
660.456	54.58
660.785	54.61
661.115	54.72
661.444	54.65
661.773	54.52
662.102	54.49
662.431	54.51
662.76	54.58
663.089	54.51
663.418	54.37
663.747	54.52
664.076	54.52
664.404	54.57
664.733	54.47
665.062	54.54
665.39	54.48
665.719	54.51
666.048	54.47
666.376	54.39
666.705	54.52
667.033	54.6
667.362	54.68
667.69	54.56
668.018	54.53
668.347	54.62
668.675	54.83
669.003	54.69
669.331	54.78
669.659	54.78
669.987	54.95
670.315	55.08
670.643	54.99
670.971	55.02
671.299	54.9
671.627	54.99
671.955	55.07
672.283	55.07
672.61	55.11
672.938	55.23
673.266	55.2
673.593	55.01
673.921	54.84
674.249	54.72
674.576	54.77
674.904	54.79
675.231	54.8
675.558	54.82
675.886	55
676.213	54.95
676.54	54.85
676.867	54.72
677.195	54.65
677.522	54.56
677.849	54.66
678.176	54.79
678.503	54.84
678.83	54.87
679.157	54.93
679.484	55
679.81	55.01
680.137	55.09
680.464	55
680.791	55.21
681.117	55.22
681.444	55.21
681.771	55.18
682.097	55.26
682.424	55.18
682.75	55.17
683.077	55.27
683.403	55.44
683.729	55.54
684.056	55.56
684.382	55.74
684.708	55.69
685.034	55.71
685.36	55.7
685.686	55.87
686.012	55.93
686.339	55.9
686.664	55.89
686.99	55.91
687.316	56.11
687.642	56.05
687.968	56.13
688.294	56.17
688.619	56.12
688.945	56.08
689.271	56.2
689.596	56.13
689.922	56.01
690.247	55.94
690.573	55.88
690.898	55.87
691.224	55.71
691.549	55.65
691.874	55.65
692.2	55.68
692.525	55.52
692.85	55.42
693.175	55.4
693.5	55.52
693.825	55.42
694.15	55.47
694.475	55.47
694.8	55.52
695.125	55.45
695.45	55.67
695.775	55.57
696.099	55.52
696.424	55.58
696.749	55.77
697.073	55.77
697.398	56.01
697.723	56.09
698.047	56.2
698.372	56.28
698.696	56.26
699.02	56.15
699.345	56.14
699.669	56.23
699.993	56.19
700.318	56.01
700.642	56.04
700.966	56.17
701.29	56.19
701.614	56.1
701.938	56.23
702.262	56.01
702.586	56.16
702.91	56.04
703.234	56.05
703.557	55.83
703.881	55.84
704.205	55.66
704.529	55.52
704.852	55.42
705.176	55.36
705.499	55.31
705.823	55.38
706.146	55.39
706.47	55.31
706.793	55.28
707.117	55.57
707.44	55.76
707.763	55.66
708.086	55.45
708.409	55.58
708.733	55.47
709.056	55.72
709.379	55.92
709.702	55.94
710.025	56.01
710.348	56.09
710.671	56.18
710.993	56.17
711.316	56.43
711.639	56.54
711.962	56.55
712.284	56.46
712.607	56.64
712.93	56.64
713.252	56.62
713.575	56.68
713.897	56.76
714.22	56.45
714.542	56.31
714.864	56.42
715.187	56.51
715.509	56.56
715.831	56.59
716.153	56.48
716.475	56.75
716.798	56.65
717.12	56.57
717.442	56.45
717.764	56.45
718.085	56.39
718.407	56.4
718.729	56.54
719.051	56.57
719.373	56.38
719.695	56.23
720.016	56.2
720.338	56.35
720.659	56.12
720.981	56.35
721.302	56.47
721.624	56.49
721.945	56.38
722.267	56.65
722.588	56.47
722.909	56.45
723.231	56.44
723.552	56.35
723.873	56.56
724.194	56.8
724.515	56.86
724.836	56.78
725.157	56.78
725.478	56.8
725.799	57.24
726.12	57.05
726.441	57.45
726.762	57.64
727.083	57.58
727.403	57.8
727.724	58
728.045	58.15
728.365	57.96
728.686	57.75
729.006	57.66
729.327	57.76
729.647	57.65
729.967	57.69
730.288	57.84
730.608	57.72
730.928	57.64
731.249	57.61
731.569	57.69
731.889	57.54
732.209	57.43
732.529	57.07
732.849	57.5
733.169	57.11
733.489	57.03
733.809	57.17
734.129	56.86
734.448	56.85
734.768	56.82
735.088	56.91
735.408	56.88
735.727	56.98
736.047	56.82
736.366	56.89
736.686	56.4
737.005	56.47
737.325	56.52
737.644	56.29
737.963	56.47
738.283	56.37
738.602	56.79
738.921	56.64
739.24	56.85
739.56	56.64
739.879	56.78
740.198	56.73
740.517	56.49
740.836	56.86
741.155	56.82
741.473	56.48
741.792	56.6
742.111	56.85
742.43	56.77
742.748	56.79
743.067	56.78
743.386	57.07
743.704	57.09
744.023	56.9
744.341	57.02
744.66	56.59
744.978	56.61
745.297	56.21
745.615	56.2
745.933	56.29
746.252	56.38
746.57	56.48
746.888	56.59
747.206	56.71
747.524	56.56
747.842	56.09
748.16	56.24
748.478	56.59
748.796	56.55
749.114	56.35
749.432	56.35
749.749	56.02
750.067	56.04
750.385	55.88
750.703	56.16
751.02	56.11
751.338	56.36
751.655	56.89
751.973	57.02
752.29	57.36
752.608	57.19
752.925	56.99
753.242	56.83
753.56	56.76
753.877	56.49
754.194	56.61
754.511	56.92
754.828	56.98
755.145	56.7
755.462	56.73
755.779	56.96
756.096	57.21
756.413	57.56
756.73	57.71
757.047	57.73
757.364	58.15
757.68	58.42
757.997	58.65
758.314	58.35
758.63	58.28
758.947	58.35
759.264	58.64
759.58	59.07
759.896	59.2
760.213	59.63
760.529	59.99
760.846	59.97
761.162	59.74
761.478	59.73
761.794	59.68
762.11	59.68
762.426	59.56
762.743	59.8
763.059	59.96
763.375	59.86
763.69	59.9
764.006	59.93
764.322	59.89
764.638	59.82
764.954	59.54
765.27	59.78
765.585	59.36
765.901	59.4
766.216	59.36
766.532	59.24
766.848	58.87
767.163	58.69
767.478	58.7
767.794	58.7
768.109	58.45
768.424	58.66
768.74	58.49
769.055	58.55
769.37	58.02
769.685	57.66
770	57.95
770.315	57.82
770.63	57.74
770.945	57.91
771.26	57.84
771.575	57.87
771.89	57.87
772.205	58.34
772.52	58.19
772.834	57.91
773.149	58.42
773.464	58.18
773.778	58.71
774.093	58.55
774.407	59.24
774.722	59.59
775.036	59.53
775.351	59.98
775.665	59.84
775.979	60.18
776.293	60.69
776.608	60.64
776.922	60.65
777.236	60.25
777.55	59.76
777.864	59.51
778.178	59.53
778.492	59.72
778.806	59.87
779.12	59.84
779.434	59.98
779.747	59.99
780.061	59.73
780.375	59.32
780.689	59.57
781.002	59.37
781.316	59.55
781.629	58.87
781.943	59.17
782.256	58.85
782.57	58.38
782.883	58.2
783.196	57.62
783.51	57.38
783.823	57.46
784.136	57.09
784.449	56.95
784.762	57.15
785.075	56.57
785.388	55.67
785.701	55.23
786.014	55.51
786.327	55.31
786.64	56.06
786.953	56.04
787.266	55.38
787.578	55.14
787.891	54.86
788.204	55.31
788.516	54.7
788.829	54.93
789.141	55.15
789.454	54.72
789.766	55.27
790.079	55.94
790.391	55.49
790.703	56.31
791.016	56.39
791.328	56.94
791.64	56.78
791.952	57.39
792.264	57.78
792.576	57.34
792.888	57.4
793.2	57.74
793.512	57.12
793.824	57.91
794.136	58.1
794.448	58.12
794.76	58.78
795.071	58.94
795.383	58.87
795.695	59.01
796.006	59.07
796.318	58.6
796.629	57.87
796.941	58.67
797.252	58.42
797.564	58.93
797.875	58.67
798.186	59.74
798.497	59.5
798.809	59.28
799.12	59.32
799.431	58.75
799.742	58.45
800.053	59.62
800.364	59.29
800.675	59
800.986	59.41
801.297	58.84
801.608	58.79
801.918	59.4
802.229	59.31
802.54	59.54
802.851	59.42
803.161	60.12
803.472	59.78
803.782	59.96
804.093	59.26
804.403	58.5
804.714	57.29
805.024	56.98
805.334	56.96
805.645	57.14
805.955	57.57
806.265	56.6
806.575	56.05
806.885	56.2
807.195	56.66
807.505	56.05
807.815	56.15
808.125	55.66
808.435	55.46
808.745	55.74
809.055	56.23
809.365	56.41
809.674	56.02
809.984	55.27
810.294	55.21
810.603	55.12
810.913	55.96
811.222	56.12
811.532	57.09
811.841	57.28
812.151	57.12
812.46	57.7
812.769	57.22
813.079	57.24
813.388	56.49
813.697	55.63
814.006	56.72
814.315	56.73
814.624	57.51
814.933	57.35
815.242	56.83
815.551	56.41
815.86	56.75
816.169	57.04
816.478	57.4
816.786	57.52
817.095	58.07
817.404	58.27
817.712	58.69
818.021	59.63
818.33	59.33
818.638	59.35
818.947	59.07
819.255	60.47
819.563	60.42
819.872	60.74
820.18	60.93
820.488	60.95
820.796	60.85
821.105	61.03
821.413	61.19
821.721	61.28
822.029	61.22
822.337	61.29
822.645	61.1
822.953	61.25
823.26	61.2
823.568	60.96
823.876	60.64
824.184	60.52
824.491	60.38
824.799	60.43
825.107	60.56
825.414	60.53
825.722	60.55
826.029	60.68
826.337	60.77
826.644	60.74
826.951	60.64
827.259	60.6
827.566	60.56
827.873	60.43
828.18	60.37
828.488	60.39
828.795	60.39
829.102	60.61
829.409	60.55
829.716	60.88
830.023	61.37
830.329	61.78
830.636	62.32
830.943	62.25
831.25	62.83
831.557	62.38
831.863	62.39
832.17	61.98
832.476	62.07
832.783	62.01
833.089	61.71
833.396	61.01
833.702	61.01
834.009	61.19
834.315	61.19
834.621	61.19
834.928	61
835.234	60.84
835.54	60.58
835.846	60.79
836.152	60.36
836.458	60.44
836.764	60.19
837.07	59.59
837.376	59.63
837.682	59.04
837.988	59.22
838.293	59.26
838.599	59.67
838.905	59.5
839.211	59.53
839.516	60.57
839.822	61.94
840.127	61.98
840.433	61.36
840.738	60.75
841.044	61.15
841.349	60.63
841.654	61.08
841.959	61.82
842.265	60.9
842.57	60.45
842.875	61.07
843.18	60.64
843.485	60.56
843.79	60.64
844.095	60.92
844.4	61.51
844.705	62.98
845.01	61.59
845.315	61
845.619	60.87
845.924	60.61
846.229	59.66
846.533	60.36
846.838	60.93
847.142	62.77
847.447	62.7
847.751	64.54
848.056	63.2
848.36	62.46
848.664	63.43
848.969	63.27
849.273	61.92
849.577	62.38
849.881	62.9
850.185	63.35
850.489	60.72
850.794	61.99
851.097	59.67
851.401	61.74
851.705	63.29
852.009	62.77
852.313	61.63
852.617	61.69
852.92	61.52
853.224	60.22
853.528	59.82
853.831	59.34
854.135	58.2
854.438	59.6
854.742	61.4
855.045	61.83
855.349	60.59
855.652	61.33
855.955	60.87
856.259	59.27
856.562	60.55
856.865	62.74
857.168	58.95
857.471	59.98
857.774	59.86
858.077	60.19
858.38	60.13
858.683	61.79
858.986	63.24
859.289	63.12
859.592	66.16
859.894	66.49
860.197	67.07
860.5	69.21
860.802	69.21
861.105	66.59
861.407	66.14
861.71	67.35
862.012	65.09
862.315	69.34
862.617	69.26
862.919	67.29
863.222	68.31
863.524	69.69
863.826	69.88
864.128	69.71
864.43	68.72
864.732	69.37
865.034	67.45
865.336	68.18
865.638	68.85
865.94	64.75
866.242	64.19
866.544	63.82
866.846	63.46
867.147	63.57
867.449	64.48
867.751	63.95
868.052	64.83
868.354	68.42
868.655	66.22
868.957	68.19
869.258	66.99
869.56	67.88
869.861	69.16
870.162	71.6
870.463	69.76
870.765	69.52
871.066	67
871.367	69.06
871.668	66.31
871.969	65.91
872.27	66.89
872.571	67.75
872.872	68.58
873.173	67.24
873.473	65.56
873.774	67.12
874.075	70.2
874.376	68.12
874.676	64.07
874.977	65.12
875.277	64.46
875.578	63.89
875.878	62.18
876.179	61.48
876.479	57.96
876.78	59.14
877.08	58.7
877.38	61.44
877.68	60.56
877.981	60.9
878.281	60.91
878.581	62.13
