Data from MVZ_BU88648_Reflection_00013.txt Node
Date: Tue Nov 19 12:02:16 EST 2019
User: vgr7
Spectrometer: USB2G7710
Scans to average: 3
Trigger mode: 4
Integration Time (sec): 2.000000E-2
Electric dark correction enabled: true
Boxcar width: 10
XAxis mode: Wavelengths
Number of Pixels in Spectrum: 2048
>>>>>Begin Spectral Data<<<<<
177.721	1423.53
178.105	280.72
178.488	66.33
178.871	-3.85
179.254	30.77
179.636	39.19
180.019	-62.05
180.402	-50
180.785	16.28
181.168	-88.81
181.55	-248.21
181.933	475
182.316	-462.5
182.698	-464.94
183.081	-100.7
183.463	-170.1
183.846	-193.38
184.228	-162.4
184.611	-137.54
184.993	-97.87
185.376	-112.08
185.758	-98.48
186.14	-150.63
186.522	-103.06
186.904	-75.47
187.287	-98.8
187.669	-46.09
188.051	-46.02
188.433	-47.15
188.815	-58.91
189.197	-58.17
189.579	-41.93
189.961	-34.54
190.342	-25.24
190.724	-8.53
191.106	-8.64
191.488	24.6
191.869	28.04
192.251	20.49
192.633	17
193.014	54.04
193.396	39.87
193.777	55.07
194.159	52.29
194.54	49.9
194.922	53.54
195.303	30.1
195.684	-22.52
196.065	-1.17
196.447	33.7
196.828	62.81
197.209	8.36
197.59	-8.65
197.971	-14.74
198.352	-15.84
198.733	-24.12
199.114	-38.98
199.495	-76.11
199.876	-128.74
200.257	-167.52
200.638	-86.9
201.018	-112.16
201.399	-114.58
201.78	-124.89
202.16	-125
202.541	-118.53
202.922	-99.47
203.302	-108.76
203.683	-72.5
204.063	-52.26
204.444	-54.96
204.824	-42.4
205.204	-23.74
205.585	-10.54
205.965	1.95
206.345	4.9
206.725	18.15
207.106	16.82
207.486	30.97
207.866	24.22
208.246	27.47
208.626	24.08
209.006	31.32
209.386	29.02
209.766	34.05
210.145	40.74
210.525	43.93
210.905	29.67
211.285	40.65
211.664	40
212.044	35.05
212.424	30.28
212.803	27
213.183	36.95
213.562	23.6
213.942	21.3
214.321	14.11
214.701	13.8
215.08	20.31
215.459	16.46
215.838	23.17
216.218	22.28
216.597	23.91
216.976	30.59
217.355	29.5
217.734	16.78
218.113	11.36
218.492	12.22
218.871	18.71
219.25	14.5
219.629	5.82
220.008	2.8
220.387	0.52
220.766	-7.05
221.144	-16.88
221.523	-23.08
221.902	-30.43
222.28	-24.42
222.659	-8.32
223.037	-10.18
223.416	-9.81
223.794	-15.13
224.173	-9.35
224.551	-6.37
224.929	-4.15
225.308	4.58
225.686	7.28
226.064	1.76
226.442	2.25
226.821	-0.41
227.199	-4.59
227.577	-0.13
227.955	-0.74
228.333	-6.14
228.711	0.46
229.089	0.28
229.467	3.8
229.845	-0.37
230.222	-1.85
230.6	-7.01
230.978	-3.52
231.356	-4.7
231.733	-2.41
232.111	-3.52
232.488	-3.26
232.866	-2.41
233.243	-1.91
233.621	-0.51
233.998	1.37
234.376	2.95
234.753	4.1
235.13	4.26
235.508	2.22
235.885	0.92
236.262	1.76
236.639	0.94
237.016	1.27
237.393	1.86
237.77	4.64
238.147	5.21
238.524	5.85
238.901	4.95
239.278	5.17
239.655	4.77
240.032	4.92
240.409	4.97
240.785	4.5
241.162	4.21
241.539	4.13
241.915	4.29
242.292	3.81
242.668	4.09
243.045	4.5
243.421	4.65
243.798	5.45
244.174	5.91
244.551	5.49
244.927	5.31
245.303	4.94
245.679	4.94
246.056	4.99
246.432	5.12
246.808	5.01
247.184	5.25
247.56	5.11
247.936	5.22
248.312	5.18
248.688	5.19
249.064	5.08
249.44	5.03
249.815	5.06
250.191	5.07
250.567	4.67
250.943	4.52
251.318	4.48
251.694	3.96
252.069	3.87
252.445	4.37
252.82	4.53
253.196	4.53
253.571	4.31
253.947	4.45
254.322	4.13
254.697	4.41
255.073	4.04
255.448	4.06
255.823	3.91
256.198	3.83
256.573	3.8
256.948	4.03
257.323	4.35
257.698	4.23
258.073	4.24
258.448	4.37
258.823	4.41
259.198	4.53
259.573	4.48
259.948	4.4
260.322	4.02
260.697	3.93
261.072	3.99
261.446	4.16
261.821	3.85
262.195	4.08
262.57	4.07
262.944	4.04
263.319	4.13
263.693	4.1
264.067	4.06
264.442	3.93
264.816	4.04
265.19	3.99
265.564	3.86
265.938	3.94
266.313	3.94
266.687	3.94
267.061	3.93
267.435	4.24
267.809	4.11
268.183	4.18
268.556	4.2
268.93	4.3
269.304	3.94
269.678	4.18
270.051	3.91
270.425	3.7
270.799	3.65
271.172	3.59
271.546	3.65
271.919	3.62
272.293	3.94
272.666	3.7
273.04	3.53
273.413	3.73
273.787	3.5
274.16	3.46
274.533	3.49
274.906	3.46
275.279	3.18
275.653	3.22
276.026	3.16
276.399	3.08
276.772	2.91
277.145	3.09
277.518	3
277.891	3.1
278.263	3.29
278.636	3.39
279.009	3.18
279.382	3.23
279.755	3.4
280.127	3.19
280.5	3.11
280.872	3.15
281.245	3.06
281.617	3.31
281.99	3.38
282.362	3.36
282.735	3.22
283.107	3.31
283.479	3.56
283.852	3.74
284.224	3.71
284.596	3.75
284.968	3.7
285.34	3.69
285.713	3.84
286.085	3.79
286.457	3.73
286.829	3.88
287.201	3.81
287.572	3.74
287.944	3.86
288.316	3.96
288.688	4.05
289.06	4.02
289.431	4.03
289.803	4.08
290.175	4.1
290.546	4.18
290.918	4.28
291.289	4.05
291.661	3.97
292.032	4.1
292.403	4.1
292.775	4.22
293.146	4.36
293.517	4.33
293.889	4.38
294.26	4.34
294.631	4.41
295.002	4.49
295.373	4.53
295.744	4.37
296.115	4.26
296.486	4.22
296.857	4.31
297.228	4.34
297.599	4.24
297.97	4.37
298.34	4.29
298.711	4.39
299.082	4.44
299.452	4.51
299.823	4.56
300.194	4.69
300.564	4.57
300.935	4.52
301.305	4.48
301.676	4.38
302.046	4.52
302.416	4.57
302.787	4.44
303.157	4.44
303.527	4.85
303.897	4.88
304.267	4.91
304.637	4.8
305.008	4.75
305.378	4.84
305.748	4.73
306.117	4.85
306.487	4.76
306.857	4.65
307.227	4.6
307.597	4.53
307.967	4.37
308.336	4.51
308.706	4.51
309.076	4.61
309.445	4.73
309.815	4.67
310.184	4.64
310.554	4.51
310.923	4.46
311.293	4.16
311.662	4.27
312.031	4.38
312.401	4.36
312.77	4.4
313.139	4.44
313.508	4.4
313.877	4.45
314.246	4.41
314.616	4.6
314.985	4.53
315.353	4.59
315.722	4.76
316.091	4.73
316.46	4.76
316.829	4.67
317.198	4.71
317.567	4.87
317.935	4.94
318.304	5.3
318.672	5.29
319.041	5.39
319.41	5.33
319.778	5.28
320.147	5.42
320.515	5.51
320.883	5.44
321.252	5.53
321.62	5.57
321.988	5.64
322.357	5.47
322.725	5.5
323.093	5.41
323.461	5.41
323.829	5.41
324.197	5.43
324.565	5.45
324.933	5.48
325.301	5.31
325.669	5.2
326.037	5.13
326.405	5.27
326.772	5.27
327.14	5.31
327.508	5.36
327.875	5.31
328.243	5.1
328.61	5.05
328.978	5.02
329.346	4.97
329.713	5.01
330.08	5.13
330.448	5.2
330.815	5.31
331.182	5.24
331.55	5.32
331.917	5.23
332.284	5.25
332.651	5.16
333.018	5.11
333.385	5.13
333.752	5.25
334.119	5.2
334.486	5.28
334.853	5.24
335.22	5.14
335.587	5.2
335.954	5.24
336.32	5.35
336.687	5.36
337.054	5.36
337.42	5.36
337.787	5.37
338.153	5.54
338.52	5.58
338.886	5.58
339.253	5.59
339.619	5.81
339.986	5.75
340.352	5.75
340.718	6
341.084	6.08
341.451	6.02
341.817	5.93
342.183	5.86
342.549	5.92
342.915	5.97
343.281	6.04
343.647	6.04
344.013	6.02
344.379	6.03
344.745	6.12
345.11	6.11
345.476	6.1
345.842	5.98
346.208	5.92
346.573	5.98
346.939	6.03
347.304	5.87
347.67	5.86
348.035	5.76
348.401	5.67
348.766	5.58
349.132	5.66
349.497	5.83
349.862	5.79
350.228	5.83
350.593	5.79
350.958	5.68
351.323	5.71
351.688	5.79
352.053	5.87
352.418	5.82
352.783	5.76
353.148	5.79
353.513	5.82
353.878	5.79
354.243	5.67
354.608	5.62
354.972	5.59
355.337	5.61
355.702	5.71
356.066	5.72
356.431	5.83
356.795	5.74
357.16	5.68
357.524	5.74
357.889	5.77
358.253	5.8
358.618	5.88
358.982	5.91
359.346	5.88
359.71	5.85
360.075	5.86
360.439	5.9
360.803	5.93
361.167	5.93
361.531	5.97
361.895	6.07
362.259	6.1
362.623	6.15
362.987	6.07
363.351	6.07
363.714	6.09
364.078	6.03
364.442	6.01
364.806	5.99
365.169	5.96
365.533	5.89
365.896	5.85
366.26	5.74
366.623	5.66
366.987	5.54
367.35	5.48
367.714	5.42
368.077	5.38
368.44	5.24
368.803	5.11
369.167	5.03
369.53	4.94
369.893	4.84
370.256	4.84
370.619	4.88
370.982	4.77
371.345	4.69
371.708	4.67
372.071	4.67
372.434	4.67
372.797	4.66
373.159	4.64
373.522	4.62
373.885	4.66
374.247	4.68
374.61	4.8
374.973	4.85
375.335	4.85
375.698	4.81
376.06	4.87
376.423	4.89
376.785	4.88
377.147	4.87
377.51	4.83
377.872	4.74
378.234	4.71
378.596	4.77
378.958	4.72
379.321	4.69
379.683	4.69
380.045	4.66
380.407	4.67
380.769	4.62
381.13	4.62
381.492	4.58
381.854	4.59
382.216	4.53
382.578	4.44
382.939	4.45
383.301	4.4
383.663	4.36
384.024	4.37
384.386	4.34
384.747	4.32
385.109	4.34
385.47	4.37
385.832	4.35
386.193	4.31
386.554	4.3
386.916	4.32
387.277	4.3
387.638	4.3
387.999	4.27
388.36	4.26
388.721	4.22
389.082	4.21
389.443	4.21
389.804	4.18
390.165	4.2
390.526	4.15
390.887	4.18
391.248	4.17
391.609	4.14
391.969	4.17
392.33	4.13
392.691	4.13
393.051	4.07
393.412	4.05
393.772	4.06
394.133	4.05
394.493	3.99
394.854	3.97
395.214	3.94
395.574	3.94
395.935	3.92
396.295	3.9
396.655	3.86
397.015	3.84
397.376	3.82
397.736	3.8
398.096	3.76
398.456	3.72
398.816	3.7
399.176	3.73
399.535	3.68
399.895	3.69
400.255	3.67
400.615	3.7
400.975	3.73
401.334	3.69
401.694	3.68
402.054	3.71
402.413	3.68
402.773	3.68
403.132	3.63
403.492	3.66
403.851	3.67
404.211	3.67
404.57	3.64
404.929	3.66
405.288	3.65
405.648	3.67
406.007	3.66
406.366	3.66
406.725	3.64
407.084	3.63
407.443	3.62
407.802	3.62
408.161	3.64
408.52	3.6
408.879	3.6
409.238	3.59
409.596	3.6
409.955	3.61
410.314	3.6
410.673	3.61
411.031	3.58
411.39	3.59
411.748	3.63
412.107	3.64
412.465	3.62
412.824	3.63
413.182	3.63
413.54	3.65
413.899	3.63
414.257	3.64
414.615	3.66
414.974	3.68
415.332	3.63
415.69	3.6
416.048	3.63
416.406	3.62
416.764	3.61
417.122	3.6
417.48	3.59
417.838	3.6
418.195	3.59
418.553	3.6
418.911	3.58
419.269	3.56
419.626	3.55
419.984	3.55
420.342	3.54
420.699	3.52
421.057	3.52
421.414	3.52
421.772	3.49
422.129	3.47
422.486	3.44
422.844	3.45
423.201	3.46
423.558	3.44
423.915	3.45
424.273	3.45
424.63	3.46
424.987	3.46
425.344	3.45
425.701	3.43
426.058	3.43
426.415	3.44
426.772	3.44
427.128	3.44
427.485	3.44
427.842	3.44
428.199	3.44
428.555	3.43
428.912	3.42
429.269	3.43
429.625	3.45
429.982	3.47
430.338	3.47
430.695	3.46
431.051	3.47
431.407	3.43
431.764	3.41
432.12	3.4
432.476	3.41
432.832	3.42
433.189	3.43
433.545	3.41
433.901	3.39
434.257	3.4
434.613	3.38
434.969	3.36
435.325	3.37
435.681	3.39
436.036	3.39
436.392	3.43
436.748	3.44
437.104	3.46
437.459	3.44
437.815	3.46
438.171	3.46
438.526	3.46
438.882	3.47
439.237	3.5
439.593	3.47
439.948	3.48
440.304	3.47
440.659	3.47
441.014	3.46
441.369	3.48
441.725	3.49
442.08	3.49
442.435	3.5
442.79	3.5
443.145	3.49
443.5	3.49
443.855	3.46
444.21	3.45
444.565	3.43
444.92	3.45
445.275	3.44
445.629	3.43
445.984	3.43
446.339	3.43
446.693	3.41
447.048	3.4
447.403	3.38
447.757	3.37
448.112	3.38
448.466	3.39
448.82	3.37
449.175	3.37
449.529	3.39
449.883	3.38
450.238	3.39
450.592	3.39
450.946	3.37
451.3	3.4
451.654	3.38
452.008	3.36
452.362	3.37
452.716	3.38
453.07	3.39
453.424	3.4
453.778	3.38
454.132	3.4
454.486	3.43
454.839	3.44
455.193	3.44
455.547	3.42
455.9	3.41
456.254	3.43
456.607	3.42
456.961	3.39
457.314	3.39
457.668	3.38
458.021	3.37
458.375	3.37
458.728	3.36
459.081	3.38
459.434	3.37
459.787	3.36
460.141	3.35
460.494	3.34
460.847	3.35
461.2	3.36
461.553	3.36
461.906	3.36
462.259	3.36
462.611	3.37
462.964	3.38
463.317	3.39
463.67	3.39
464.022	3.38
464.375	3.39
464.728	3.4
465.08	3.4
465.433	3.41
465.785	3.43
466.138	3.44
466.49	3.42
466.843	3.45
467.195	3.44
467.547	3.45
467.899	3.46
468.252	3.47
468.604	3.45
468.956	3.47
469.308	3.46
469.66	3.46
470.012	3.46
470.364	3.47
470.716	3.45
471.068	3.46
471.42	3.47
471.772	3.49
472.123	3.51
472.475	3.51
472.827	3.52
473.178	3.52
473.53	3.52
473.882	3.52
474.233	3.52
474.585	3.54
474.936	3.53
475.288	3.53
475.639	3.53
475.99	3.54
476.342	3.54
476.693	3.54
477.044	3.56
477.395	3.56
477.746	3.55
478.097	3.56
478.448	3.55
478.8	3.55
479.15	3.53
479.501	3.52
479.852	3.51
480.203	3.52
480.554	3.53
480.905	3.52
481.255	3.53
481.606	3.53
481.957	3.51
482.307	3.52
482.658	3.51
483.009	3.51
483.359	3.53
483.709	3.52
484.06	3.53
484.41	3.53
484.761	3.53
485.111	3.54
485.461	3.54
485.811	3.54
486.162	3.54
486.512	3.53
486.862	3.53
487.212	3.52
487.562	3.52
487.912	3.52
488.262	3.53
488.612	3.52
488.961	3.52
489.311	3.53
489.661	3.52
490.011	3.52
490.36	3.5
490.71	3.5
491.06	3.5
491.409	3.49
491.759	3.49
492.108	3.48
492.458	3.48
492.807	3.47
493.157	3.47
493.506	3.48
493.855	3.5
494.204	3.5
494.554	3.52
494.903	3.52
495.252	3.53
495.601	3.55
495.95	3.57
496.299	3.59
496.648	3.62
496.997	3.64
497.346	3.66
497.695	3.7
498.043	3.7
498.392	3.72
498.741	3.74
499.09	3.76
499.438	3.79
499.787	3.81
500.135	3.84
500.484	3.87
500.832	3.89
501.181	3.9
501.529	3.93
501.878	3.94
502.226	3.95
502.574	3.96
502.923	3.97
503.271	3.99
503.619	4.01
503.967	4.01
504.315	4.04
504.663	4.05
505.011	4.07
505.359	4.08
505.707	4.1
506.055	4.12
506.403	4.15
506.751	4.17
507.098	4.2
507.446	4.23
507.794	4.24
508.141	4.26
508.489	4.32
508.837	4.37
509.184	4.43
509.531	4.47
509.879	4.51
510.226	4.55
510.574	4.59
510.921	4.61
511.268	4.64
511.616	4.69
511.963	4.75
512.31	4.81
512.657	4.88
513.004	4.93
513.351	4.98
513.698	5.02
514.045	5.09
514.392	5.16
514.739	5.22
515.086	5.31
515.432	5.39
515.779	5.43
516.126	5.52
516.473	5.57
516.819	5.65
517.166	5.73
517.512	5.78
517.859	5.85
518.205	5.93
518.552	6.02
518.898	6.08
519.245	6.13
519.591	6.18
519.937	6.26
520.283	6.37
520.629	6.45
520.976	6.52
521.322	6.59
521.668	6.68
522.014	6.76
522.36	6.83
522.706	6.9
523.052	7.01
523.398	7.07
523.743	7.16
524.089	7.25
524.435	7.33
524.781	7.44
525.126	7.53
525.472	7.61
525.817	7.69
526.163	7.75
526.509	7.82
526.854	7.88
527.199	7.93
527.545	7.97
527.89	8.04
528.235	8.11
528.581	8.18
528.926	8.24
529.271	8.3
529.616	8.35
529.961	8.43
530.306	8.48
530.651	8.55
530.996	8.64
531.341	8.72
531.686	8.82
532.031	8.9
532.376	8.98
532.721	9.07
533.065	9.13
533.41	9.23
533.755	9.32
534.099	9.43
534.444	9.52
534.788	9.62
535.133	9.7
535.477	9.79
535.822	9.89
536.166	10
536.51	10.13
536.855	10.28
537.199	10.41
537.543	10.57
537.887	10.73
538.231	10.85
538.576	11
538.92	11.15
539.264	11.26
539.608	11.41
539.951	11.54
540.295	11.69
540.639	11.83
540.983	11.95
541.327	12.09
541.671	12.24
542.014	12.36
542.358	12.48
542.701	12.64
543.045	12.77
543.389	12.93
543.732	13.05
544.075	13.19
544.419	13.33
544.762	13.46
545.105	13.63
545.449	13.82
545.792	14
546.135	14.17
546.478	14.38
546.821	14.56
547.165	14.78
547.508	14.99
547.851	15.21
548.194	15.4
548.536	15.62
548.879	15.83
549.222	16.07
549.565	16.34
549.908	16.55
550.25	16.8
550.593	16.99
550.936	17.2
551.278	17.43
551.621	17.7
551.963	18
552.306	18.22
552.648	18.43
552.991	18.64
553.333	18.88
553.675	19.1
554.017	19.3
554.36	19.52
554.702	19.78
555.044	20.02
555.386	20.28
555.728	20.56
556.07	20.82
556.412	21.12
556.754	21.38
557.096	21.68
557.438	21.95
557.78	22.24
558.121	22.57
558.463	22.86
558.805	23.12
559.147	23.4
559.488	23.66
559.83	23.94
560.171	24.26
560.513	24.53
560.854	24.77
561.196	25.09
561.537	25.39
561.878	25.67
562.22	25.92
562.561	26.18
562.902	26.44
563.243	26.65
563.584	26.85
563.925	27.13
564.266	27.35
564.607	27.62
564.948	27.85
565.289	28.09
565.63	28.34
565.971	28.57
566.312	28.77
566.653	29.01
566.993	29.19
567.334	29.39
567.675	29.6
568.015	29.89
568.356	30.1
568.696	30.34
569.037	30.53
569.377	30.78
569.718	31.07
570.058	31.28
570.398	31.5
570.739	31.69
571.079	31.86
571.419	32.08
571.759	32.24
572.099	32.47
572.439	32.68
572.779	32.87
573.119	33.07
573.459	33.28
573.799	33.44
574.139	33.61
574.479	33.83
574.819	34.03
575.158	34.19
575.498	34.4
575.838	34.57
576.177	34.74
576.517	34.92
576.856	35.04
577.196	35.2
577.535	35.39
577.875	35.63
578.214	35.87
578.553	35.97
578.893	36.2
579.232	36.39
579.571	36.55
579.91	36.75
580.25	36.95
580.589	37.14
580.928	37.34
581.267	37.6
581.606	37.77
581.945	37.95
582.283	38.09
582.622	38.2
582.961	38.37
583.3	38.51
583.639	38.7
583.977	38.91
584.316	39.02
584.654	39.21
584.993	39.36
585.332	39.41
585.67	39.63
586.008	39.74
586.347	39.8
586.685	39.95
587.024	40.03
587.362	40.16
587.7	40.29
588.038	40.42
588.376	40.53
588.715	40.63
589.053	40.73
589.391	40.88
589.729	41.02
590.067	41.14
590.404	41.31
590.742	41.33
591.08	41.45
591.418	41.59
591.756	41.76
592.093	41.87
592.431	42.04
592.769	42.14
593.106	42.27
593.444	42.38
593.781	42.5
594.119	42.64
594.456	42.73
594.793	42.8
595.131	42.97
595.468	43.09
595.805	43.18
596.143	43.29
596.48	43.4
596.817	43.43
597.154	43.51
597.491	43.64
597.828	43.72
598.165	43.71
598.502	43.87
598.839	43.95
599.176	43.98
599.512	44.01
599.849	44.14
600.186	44.22
600.523	44.35
600.859	44.45
601.196	44.56
601.532	44.66
601.869	44.74
602.205	44.69
602.542	44.74
602.878	44.83
603.215	44.88
603.551	44.92
603.887	44.99
604.223	45.03
604.56	44.96
604.896	45.09
605.232	45.19
605.568	45.15
605.904	45.19
606.24	45.35
606.576	45.49
606.912	45.51
607.248	45.61
607.583	45.66
607.919	45.7
608.255	45.75
608.591	45.86
608.926	45.92
609.262	46.07
609.597	46.17
609.933	46.24
610.268	46.3
610.604	46.32
610.939	46.42
611.275	46.55
611.61	46.78
611.945	46.76
612.281	46.84
612.616	46.99
612.951	47.03
613.286	47.01
613.621	47.05
613.956	47.02
614.291	47.08
614.626	47.15
614.961	47.15
615.296	47.24
615.631	47.19
615.966	47.32
616.3	47.34
616.635	47.35
616.97	47.3
617.304	47.37
617.639	47.47
617.973	47.5
618.308	47.42
618.642	47.41
618.977	47.53
619.311	47.54
619.646	47.62
619.98	47.7
620.314	47.75
620.648	47.74
620.983	47.82
621.317	47.88
621.651	47.95
621.985	48.16
622.319	48.13
622.653	48.18
622.987	48.15
623.321	48.23
623.655	48.18
623.988	48.25
624.322	48.27
624.656	48.38
624.99	48.43
625.323	48.56
625.657	48.62
625.99	48.62
626.324	48.7
626.657	48.66
626.991	48.65
627.324	48.71
627.658	48.8
627.991	48.85
628.324	48.84
628.657	48.87
628.991	48.82
629.324	48.82
629.657	48.81
629.99	48.83
630.323	48.78
630.656	48.85
630.989	48.98
631.322	49.07
631.655	49.11
631.987	49.12
632.32	49.15
632.653	49.03
632.986	49.1
633.318	49.11
633.651	49.23
633.984	49.26
634.316	49.34
634.649	49.41
634.981	49.54
635.313	49.56
635.646	49.67
635.978	49.74
636.31	49.83
636.643	49.91
636.975	50.03
637.307	50.2
637.639	50.27
637.971	50.29
638.303	50.26
638.635	50.23
638.967	50.33
639.299	50.37
639.631	50.45
639.963	50.45
640.295	50.58
640.626	50.53
640.958	50.55
641.29	50.6
641.621	50.52
641.953	50.44
642.285	50.44
642.616	50.4
642.948	50.36
643.279	50.32
643.61	50.38
643.942	50.26
644.273	50.2
644.604	50.11
644.936	50.08
645.267	50.14
645.598	50.1
645.929	50.13
646.26	50.12
646.591	50.24
646.922	50.32
647.253	50.17
647.584	50.11
647.915	50.16
648.245	50.12
648.576	50.11
648.907	50.15
649.238	50.23
649.568	50.29
649.899	50.25
650.229	50.48
650.56	50.4
650.89	50.53
651.221	50.57
651.551	50.69
651.882	50.7
652.212	50.72
652.542	50.87
652.872	50.88
653.203	50.86
653.533	50.89
653.863	50.96
654.193	51.03
654.523	51.06
654.853	51.06
655.183	51.15
655.513	51.3
655.843	51.39
656.172	51.51
656.502	51.46
656.832	51.51
657.162	51.43
657.491	51.52
657.821	51.56
658.15	51.59
658.48	51.61
658.809	51.64
659.139	51.66
659.468	51.69
659.798	51.75
660.127	51.73
660.456	51.74
660.785	51.72
661.115	51.75
661.444	51.81
661.773	51.91
662.102	51.81
662.431	51.91
662.76	51.87
663.089	51.79
663.418	51.91
663.747	51.99
664.076	51.91
664.404	52.01
664.733	52.07
665.062	52.1
665.39	52.22
665.719	52.21
666.048	52.21
666.376	52.27
666.705	52.15
667.033	52.17
667.362	52.18
667.69	52.23
668.018	52.31
668.347	52.37
668.675	52.32
669.003	52.37
669.331	52.31
669.659	52.36
669.987	52.39
670.315	52.36
670.643	52.28
670.971	52.38
671.299	52.4
671.627	52.35
671.955	52.36
672.283	52.37
672.61	52.6
672.938	52.55
673.266	52.52
673.593	52.6
673.921	52.73
674.249	52.83
674.576	52.81
674.904	52.71
675.231	52.81
675.558	52.81
675.886	52.92
676.213	52.84
676.54	52.85
676.867	52.95
677.195	52.89
677.522	52.98
677.849	53.01
678.176	52.9
678.503	52.98
678.83	53
679.157	52.95
679.484	52.88
679.81	52.82
680.137	52.9
680.464	52.91
680.791	52.93
681.117	52.87
681.444	52.9
681.771	53
682.097	52.96
682.424	53.08
682.75	53.06
683.077	53.14
683.403	53.26
683.729	53.11
684.056	53.09
684.382	53.14
684.708	53.15
685.034	53.15
685.36	52.88
685.686	52.88
686.012	52.96
686.339	52.76
686.664	52.97
686.99	52.84
687.316	53.05
687.642	53.12
687.968	53.21
688.294	53.14
688.619	53.18
688.945	53.11
689.271	53.03
689.596	52.96
689.922	53.07
690.247	52.94
690.573	53.02
690.898	53.06
691.224	53.13
691.549	52.97
691.874	53.07
692.2	53.29
692.525	53.23
692.85	53.11
693.175	53.29
693.5	53.27
693.825	53.33
694.15	53.19
694.475	53.13
694.8	53.14
695.125	53.36
695.45	53.29
695.775	53.41
696.099	53.57
696.424	53.55
696.749	53.58
697.073	53.59
697.398	53.51
697.723	53.5
698.047	53.48
698.372	53.55
698.696	53.39
699.02	53.45
699.345	53.54
699.669	53.52
699.993	53.6
700.318	53.64
700.642	53.62
700.966	53.57
701.29	53.56
701.614	53.46
701.938	53.41
702.262	53.31
702.586	53.27
702.91	53.17
703.234	53.18
703.557	52.8
703.881	52.81
704.205	53.02
704.529	53.18
704.852	53.02
705.176	52.95
705.499	53.24
705.823	53.28
706.146	53.23
706.47	53.36
706.793	53.31
707.117	53.3
707.44	53.31
707.763	53.47
708.086	53.54
708.409	53.58
708.733	53.37
709.056	53.6
709.379	53.54
709.702	53.37
710.025	53.53
710.348	53.74
710.671	53.84
710.993	53.89
711.316	53.69
711.639	53.78
711.962	53.95
712.284	53.77
712.607	53.81
712.93	53.94
713.252	53.94
713.575	54.05
713.897	54.19
714.22	54.24
714.542	54.23
714.864	54.14
715.187	54.13
715.509	54.27
715.831	54.05
716.153	54.16
716.475	54.35
716.798	54.33
717.12	54.23
717.442	54.18
717.764	54.16
718.085	54.51
718.407	54.8
718.729	54.84
719.051	55.02
719.373	54.86
719.695	54.83
720.016	54.81
720.338	54.67
720.659	54.56
720.981	54.52
721.302	54.46
721.624	54.67
721.945	54.69
722.267	54.65
722.588	54.98
722.909	55.11
723.231	54.92
723.552	55.13
723.873	55.36
724.194	55.29
724.515	55.19
724.836	55
725.157	54.92
725.478	54.99
725.799	55.13
726.12	55.35
726.441	55.23
726.762	55.27
727.083	55.19
727.403	55.11
727.724	55.21
728.045	55.51
728.365	55.38
728.686	55.26
729.006	55.33
729.327	55.34
729.647	55.07
729.967	55.24
730.288	55.01
730.608	54.93
730.928	55.13
731.249	55.15
731.569	55.21
731.889	54.97
732.209	54.88
732.529	54.76
732.849	54.67
733.169	54.68
733.489	54.69
733.809	54.63
734.129	54.69
734.448	54.77
734.768	54.49
735.088	54.36
735.408	54.67
735.727	54.74
736.047	54.65
736.366	54.66
736.686	54.62
737.005	54.77
737.325	54.78
737.644	54.62
737.963	54.83
738.283	54.99
738.602	55.03
738.921	55.14
739.24	55.14
739.56	55.16
739.879	55.11
740.198	55.04
740.517	55.21
740.836	55.31
741.155	55.13
741.473	54.93
741.792	55.38
742.111	55.16
742.43	54.99
742.748	54.88
743.067	55.09
743.386	54.81
743.704	54.61
744.023	54.9
744.341	55.07
744.66	54.64
744.978	54.64
745.297	54.47
745.615	54.34
745.933	54.12
746.252	54.19
746.57	54.46
746.888	54.54
747.206	54.77
747.524	54.65
747.842	54.84
748.16	54.89
748.478	54.6
748.796	54.72
749.114	54.74
749.432	54.79
749.749	54.63
750.067	54.89
750.385	54.97
750.703	54.59
751.02	54.16
751.338	54.18
751.655	53.75
751.973	54.08
752.29	53.98
752.608	54.29
752.925	54.37
753.242	54.21
753.56	54.14
753.877	53.99
754.194	53.98
754.511	53.98
754.828	54.02
755.145	54.12
755.462	53.93
755.779	53.8
756.096	53.87
756.413	54.11
756.73	54.5
757.047	54.54
757.364	54.71
757.68	54.89
757.997	55.02
758.314	55.43
758.63	55.38
758.947	55.34
759.264	55.51
759.58	55.25
759.896	55.23
760.213	55.45
760.529	55.74
760.846	56.01
761.162	55.61
761.478	55.8
761.794	55.83
762.11	55.69
762.426	56.13
762.743	56.15
763.059	56.05
763.375	56.19
763.69	56.21
764.006	56.21
764.322	56.35
764.638	56.34
764.954	56.08
765.27	56.03
765.585	56.21
765.901	56.07
766.216	56.22
766.532	56.24
766.848	56.44
767.163	55.88
767.478	55.68
767.794	56.05
768.109	55.93
768.424	55.93
768.74	56.11
769.055	55.77
769.37	55.64
769.685	55.77
770	55.27
770.315	55.47
770.63	55.48
770.945	55.35
771.26	55.27
771.575	55.31
771.89	55.48
772.205	55.26
772.52	55.35
772.834	55.33
773.149	55.53
773.464	55.33
773.778	55.75
774.093	55.92
774.407	55.83
774.722	55.87
775.036	55.74
775.351	55.68
775.665	55.96
775.979	56.04
776.293	56.17
776.608	56.07
776.922	55.78
777.236	56.28
777.55	56.22
777.864	56.3
778.178	56.1
778.492	55.84
778.806	55.95
779.12	55.86
779.434	56.41
779.747	56.5
780.061	56.64
780.375	56.45
780.689	56.71
781.002	56.61
781.316	56.64
781.629	56.32
781.943	56.59
782.256	56.25
782.57	56.15
782.883	55.79
783.196	55.46
783.51	55.96
783.823	55.42
784.136	55.51
784.449	55.79
784.762	56.54
785.075	56.95
785.388	56.52
785.701	56.44
786.014	55.98
786.327	55.98
786.64	55.86
786.953	55.89
787.266	55.71
787.578	55.64
787.891	55.66
788.204	55.8
788.516	55.74
788.829	56.12
789.141	56.38
789.454	56.62
789.766	57.5
790.079	56.98
790.391	57.63
790.703	57.54
791.016	57.4
791.328	56.41
791.64	56.03
791.952	56.64
792.264	56.55
792.576	56.6
792.888	56.29
793.2	55.8
793.512	55.74
793.824	55.77
794.136	55.79
794.448	55.9
794.76	56.13
795.071	56.58
795.383	56.18
795.695	56.17
796.006	55.59
796.318	55.04
796.629	55.15
796.941	54.78
797.252	55.63
797.564	55.46
797.875	56.09
798.186	56.39
798.497	56.29
798.809	56.04
799.12	55.51
799.431	56.07
799.742	56.31
800.053	56.87
800.364	56.62
800.675	57.12
800.986	57
801.297	57.15
801.608	57.28
801.918	56.86
802.229	57.38
802.54	58.33
802.851	59.07
803.161	59.34
803.472	59.13
803.782	58.6
804.093	58.97
804.403	58.63
804.714	58.75
805.024	59
805.334	59.33
805.645	60.13
805.955	59.64
806.265	59.43
806.575	58.68
806.885	58.55
807.195	58.5
807.505	58.25
807.815	58.02
808.125	57.45
808.435	58.14
808.745	57.5
809.055	57.48
809.365	56.99
809.674	56.41
809.984	56.31
810.294	56.05
810.603	55.71
810.913	55.67
811.222	55.53
811.532	55.97
811.841	56.54
812.151	56.22
812.46	56.48
812.769	56.72
813.079	57.02
813.388	56.55
813.697	55.34
814.006	55.63
814.315	56.07
814.624	56.11
814.933	56.18
815.242	56.31
815.551	55.69
815.86	56.01
816.169	56.14
816.478	56.8
816.786	56.85
817.095	57.06
817.404	56.68
817.712	56.62
818.021	55.84
818.33	55.11
818.638	55.09
818.947	53.96
819.255	54.28
819.563	54.49
819.872	54.86
820.18	55.41
820.488	55.26
820.796	55.5
821.105	55.42
821.413	55.56
821.721	55.61
822.029	55.68
822.337	55.69
822.645	55.91
822.953	55.69
823.26	55.8
823.568	55.86
823.876	56.12
824.184	56.15
824.491	56.35
824.799	56.38
825.107	56.54
825.414	56.72
825.722	56.82
826.029	56.95
826.337	56.75
826.644	56.75
826.951	57.12
827.259	56.87
827.566	57.11
827.873	57.05
828.18	56.99
828.488	57.15
828.795	57.09
829.102	56.82
829.409	56.82
829.716	56.69
830.023	56.39
830.329	56.47
830.636	56.33
830.943	56.12
831.25	56.2
831.557	55.59
831.863	56.02
832.17	55.85
832.476	55.78
832.783	56.31
833.089	55.82
833.396	55.48
833.702	55
834.009	54.78
834.315	54.68
834.621	54.73
834.928	54.81
835.234	54.45
835.54	54.47
835.846	54.73
836.152	54.95
836.458	55.41
836.764	55.12
837.07	55.18
837.376	55.01
837.682	54.92
837.988	55.32
838.293	55.21
838.599	55.27
838.905	54.49
839.211	54.36
839.516	55.26
839.822	55.48
840.127	56.54
840.433	56.81
840.738	56.73
841.044	56.71
841.349	56.16
841.654	56.14
841.959	56.21
842.265	56.05
842.57	54.74
842.875	53.72
843.18	53.6
843.485	53.86
843.79	54.33
844.095	54.05
844.4	53.34
844.705	52.79
845.01	52.23
845.315	53.61
845.619	53.54
845.924	53.18
846.229	53.06
846.533	52.87
846.838	52.34
847.142	51.82
847.447	52.89
847.751	54.2
848.056	56.03
848.36	56.03
848.664	56.83
848.969	58.41
849.273	58.08
849.577	60.05
849.881	60.91
850.185	62.15
850.489	65.66
850.794	67.05
851.097	66.25
851.401	67.16
851.705	65.48
852.009	63.95
852.313	63.57
852.617	62.8
852.92	63.2
853.224	62.46
853.528	61.22
853.831	61.08
854.135	57.82
854.438	57.03
854.742	57.17
855.045	55.68
855.349	56.55
855.652	58.8
855.955	58.04
856.259	57.26
856.562	53.97
856.865	52.53
857.168	51.4
857.471	52.06
857.774	52.45
858.077	52.06
858.38	56.41
858.683	57.92
858.986	57.64
859.289	56.39
859.592	56.71
859.894	59.71
860.197	59.18
860.5	60.07
860.802	59.69
861.105	60.73
861.407	60.27
861.71	58.62
862.012	59.75
862.315	58.43
862.617	56.26
862.919	58.38
863.222	57.55
863.524	57.07
863.826	57.87
864.128	57.8
864.43	60.22
864.732	57.67
865.034	57.01
865.336	58.84
865.638	61.34
865.94	62.89
866.242	63.46
866.544	63.25
866.846	64.98
867.147	63.27
867.449	62.07
867.751	63.81
868.052	66.51
868.354	62.43
868.655	62.29
868.957	66.52
869.258	65.4
869.56	66.47
869.861	67.83
870.162	65.67
870.463	62.98
870.765	62.43
871.066	61.93
871.367	59.4
871.668	57.61
871.969	54.26
872.27	52.03
872.571	51.47
872.872	50.38
873.173	49.46
873.473	49.24
873.774	49.73
874.075	48.61
874.376	45.74
874.676	48.41
874.977	51.05
875.277	50.97
875.578	51.96
875.878	50.99
876.179	50.97
876.479	52.56
876.78	54.6
877.08	53.65
877.38	53.49
877.68	55.55
877.981	56.07
878.281	59.57
878.581	61.08
