Data from MVZ_BU78245_Reflection_00009.txt Node
Date: Tue Nov 19 12:01:15 EST 2019
User: vgr7
Spectrometer: USB2G7710
Scans to average: 3
Trigger mode: 4
Integration Time (sec): 2.000000E-2
Electric dark correction enabled: true
Boxcar width: 10
XAxis mode: Wavelengths
Number of Pixels in Spectrum: 2048
>>>>>Begin Spectral Data<<<<<
177.721	429.55
178.105	44.44
178.488	-31.1
178.871	-2400
179.254	68.75
179.636	-16.82
180.019	-3.38
180.402	-12.5
180.785	42.19
181.168	46.72
181.55	-150
181.933	-384.37
182.316	86.11
182.698	294.44
183.081	84.37
183.463	109.74
183.846	49.56
184.228	61.4
184.611	50.51
184.993	43.75
185.376	47.27
185.758	76.5
186.14	56.82
186.522	108.72
186.904	102.08
187.287	58.05
187.669	31.82
188.051	36.38
188.433	56.7
188.815	79.81
189.197	51.88
189.579	60.3
189.961	64.59
190.342	55.94
190.724	59.43
191.106	39.24
191.488	32.6
191.869	41.24
192.251	44.33
192.633	47.2
193.014	59.03
193.396	41.69
193.777	45.11
194.159	45.86
194.54	43.38
194.922	34.7
195.303	36.42
195.684	32.77
196.065	31.56
196.447	19.67
196.828	13.96
197.209	16.88
197.59	22.1
197.971	39.83
198.352	32.84
198.733	29.81
199.114	26.5
199.495	37.37
199.876	45.24
200.257	63.85
200.638	64.63
201.018	60.27
201.399	76.76
201.78	74.31
202.16	68.84
202.541	67.25
202.922	83.51
203.302	97.9
203.683	100.67
204.063	106.34
204.444	130.06
204.824	126.81
205.204	152.84
205.585	152.51
205.965	151.08
206.345	171.56
206.725	151.57
207.106	181.54
207.486	159.09
207.866	123.09
208.246	91.54
208.626	87.96
209.006	84.5
209.386	66.98
209.766	66.98
210.145	57.43
210.525	56.15
210.905	45.59
211.285	49.05
211.664	59.62
212.044	45.2
212.424	43.93
212.803	40.19
213.183	31.06
213.562	32.54
213.942	43.38
214.321	40.44
214.701	42.88
215.08	31.57
215.459	38.61
215.838	39.66
216.218	46.32
216.597	50.96
216.976	69.75
217.355	81.32
217.734	78.09
218.113	117.96
218.492	117.63
218.871	145
219.25	101.37
219.629	72.4
220.008	80.77
220.387	52.22
220.766	46.36
221.144	30.25
221.523	20.55
221.902	14.73
222.28	18.75
222.659	35.83
223.037	30.07
223.416	29.69
223.794	41.59
224.173	30.93
224.551	24.09
224.929	24.66
225.308	30.87
225.686	31.47
226.064	25.28
226.442	23.72
226.821	18.33
227.199	13.75
227.577	16.95
227.955	24.49
228.333	22.18
228.711	19.75
229.089	24.02
229.467	21.71
229.845	19.08
230.222	19.23
230.6	15.71
230.978	17.36
231.356	14.07
231.733	15.24
232.111	16.14
232.488	20.06
232.866	19.52
233.243	18.94
233.621	19.28
233.998	19.89
234.376	20.08
234.753	20.45
235.13	21.86
235.508	18.59
235.885	15.87
236.262	13.92
236.639	12.53
237.016	11.33
237.393	11.44
237.77	11.51
238.147	10.82
238.524	9.51
238.901	8.56
239.278	8.01
239.655	6.51
240.032	6
240.409	4.58
240.785	3.71
241.162	3.4
241.539	2.29
241.915	1.61
242.292	2.28
242.668	2.69
243.045	2.87
243.421	3.65
243.798	3.53
244.174	3.89
244.551	4.1
244.927	4.21
245.303	4.16
245.679	4.37
246.056	4.1
246.432	3.99
246.808	4.14
247.184	4.38
247.56	4.08
247.936	4.23
248.312	4.61
248.688	4.54
249.064	4.6
249.44	4.84
249.815	5.16
250.191	4.86
250.567	4.53
250.943	4.28
251.318	4.04
251.694	3.86
252.069	4.05
252.445	4.24
252.82	4.33
253.196	4.34
253.571	4.17
253.947	4.23
254.322	4.2
254.697	4.58
255.073	4.52
255.448	4.29
255.823	4.37
256.198	4.05
256.573	4.28
256.948	3.9
257.323	3.9
257.698	3.59
258.073	3.64
258.448	3.65
258.823	3.56
259.198	3.52
259.573	3.52
259.948	3.46
260.322	3.38
260.697	3.3
261.072	3.27
261.446	3.34
261.821	3.27
262.195	3.31
262.57	2.95
262.944	2.89
263.319	3.23
263.693	3.12
264.067	3.17
264.442	3.01
264.816	3.05
265.19	2.98
265.564	3.09
265.938	3.11
266.313	3.17
266.687	3.25
267.061	3.26
267.435	3.34
267.809	3.18
268.183	3.01
268.556	2.71
268.93	2.65
269.304	2.51
269.678	2.62
270.051	2.67
270.425	2.67
270.799	2.63
271.172	2.52
271.546	2.5
271.919	2.32
272.293	2.52
272.666	2.59
273.04	2.7
273.413	2.76
273.787	2.69
274.16	2.61
274.533	2.66
274.906	2.57
275.279	2.73
275.653	2.96
276.026	3.16
276.399	3.25
276.772	3.33
277.145	3.31
277.518	3.17
277.891	3.23
278.263	3.37
278.636	3.39
279.009	3.47
279.382	3.37
279.755	3.55
280.127	3.58
280.5	3.33
280.872	3.24
281.245	3.17
281.617	3.1
281.99	3.12
282.362	3.14
282.735	3.27
283.107	3.23
283.479	3.21
283.852	3.13
284.224	3.29
284.596	3.25
284.968	3.35
285.34	3.44
285.713	3.28
286.085	3.22
286.457	3.36
286.829	3.25
287.201	3.17
287.572	3.25
287.944	3.22
288.316	3.41
288.688	3.45
289.06	3.48
289.431	3.63
289.803	3.81
290.175	3.64
290.546	3.55
290.918	3.46
291.289	3.2
291.661	3.15
292.032	3.13
292.403	3.11
292.775	3.07
293.146	3.1
293.517	3.04
293.889	2.98
294.26	2.95
294.631	3.09
295.002	3.24
295.373	2.98
295.744	2.98
296.115	3.02
296.486	3.01
296.857	3.07
297.228	3.09
297.599	2.98
297.97	3.08
298.34	3.25
298.711	3.23
299.082	3.44
299.452	3.54
299.823	3.42
300.194	3.46
300.564	3.32
300.935	3.42
301.305	3.57
301.676	3.62
302.046	3.6
302.416	3.63
302.787	3.61
303.157	3.75
303.527	3.71
303.897	3.57
304.267	3.51
304.637	3.46
305.008	3.28
305.378	3.31
305.748	3.41
306.117	3.19
306.487	3.22
306.857	3.15
307.227	3.46
307.597	3.53
307.967	3.64
308.336	3.78
308.706	3.71
309.076	3.91
309.445	4.15
309.815	4.04
310.184	3.99
310.554	3.87
310.923	4.01
311.293	4
311.662	4.11
312.031	4.27
312.401	4.2
312.77	4.3
313.139	4.22
313.508	4.3
313.877	4.42
314.246	4.41
314.616	4.35
314.985	4.06
315.353	4.13
315.722	4.15
316.091	4.43
316.46	4.32
316.829	4.32
317.198	4.22
317.567	4.42
317.935	4.38
318.304	4.72
318.672	4.67
319.041	4.78
319.41	4.78
319.778	4.64
320.147	4.74
320.515	4.76
320.883	4.77
321.252	4.8
321.62	4.87
321.988	5.05
322.357	5.33
322.725	5.49
323.093	5.41
323.461	5.36
323.829	5.19
324.197	5.27
324.565	5.24
324.933	5.19
325.301	5.16
325.669	5.29
326.037	5.2
326.405	5.28
326.772	5.36
327.14	5.33
327.508	5.34
327.875	5.46
328.243	5.51
328.61	5.61
328.978	5.64
329.346	5.61
329.713	5.65
330.08	5.58
330.448	5.51
330.815	5.56
331.182	5.67
331.55	5.62
331.917	5.62
332.284	5.6
332.651	5.63
333.018	5.59
333.385	5.6
333.752	5.68
334.119	5.52
334.486	5.58
334.853	5.6
335.22	5.61
335.587	5.47
335.954	5.48
336.32	5.5
336.687	5.46
337.054	5.52
337.42	5.53
337.787	5.53
338.153	5.58
338.52	5.66
338.886	5.64
339.253	5.72
339.619	5.7
339.986	5.77
340.352	5.79
340.718	5.85
341.084	5.83
341.451	5.9
341.817	6.04
342.183	5.96
342.549	5.95
342.915	5.98
343.281	6
343.647	5.99
344.013	5.96
344.379	6.07
344.745	6.15
345.11	6.23
345.476	6.2
345.842	6.14
346.208	6.19
346.573	6.13
346.939	6.11
347.304	6.19
347.67	6.18
348.035	6.1
348.401	6.12
348.766	6.17
349.132	6.06
349.497	6.02
349.862	6.09
350.228	6.16
350.593	6.12
350.958	6.24
351.323	6.37
351.688	6.44
352.053	6.34
352.418	6.29
352.783	6.16
353.148	6.19
353.513	6.21
353.878	6.08
354.243	6.03
354.608	6.14
354.972	6.1
355.337	5.99
355.702	6.02
356.066	6
356.431	5.91
356.795	5.93
357.16	6.01
357.524	5.98
357.889	5.92
358.253	5.97
358.618	5.95
358.982	5.83
359.346	5.83
359.71	5.83
360.075	5.93
360.439	5.93
360.803	5.9
361.167	5.91
361.531	5.9
361.895	5.95
362.259	5.91
362.623	5.89
362.987	5.93
363.351	5.92
363.714	5.92
364.078	5.96
364.442	5.9
364.806	5.85
365.169	5.87
365.533	5.91
365.896	5.95
366.26	5.9
366.623	5.9
366.987	5.82
367.35	5.76
367.714	5.62
368.077	5.61
368.44	5.61
368.803	5.57
369.167	5.54
369.53	5.45
369.893	5.36
370.256	5.38
370.619	5.32
370.982	5.26
371.345	5.29
371.708	5.24
372.071	5.21
372.434	5.17
372.797	5.03
373.159	4.95
373.522	4.86
373.885	4.85
374.247	4.84
374.61	4.84
374.973	4.81
375.335	4.82
375.698	4.8
376.06	4.76
376.423	4.72
376.785	4.65
377.147	4.68
377.51	4.64
377.872	4.54
378.234	4.54
378.596	4.55
378.958	4.48
379.321	4.43
379.683	4.38
380.045	4.34
380.407	4.31
380.769	4.28
381.13	4.25
381.492	4.18
381.854	4.17
382.216	4.18
382.578	4.16
382.939	4.09
383.301	4.05
383.663	4.05
384.024	4.07
384.386	4.1
384.747	4.1
385.109	4.09
385.47	4.13
385.832	4.08
386.193	4.06
386.554	3.94
386.916	3.91
387.277	3.93
387.638	3.92
387.999	3.92
388.36	3.89
388.721	3.86
389.082	3.89
389.443	3.87
389.804	3.83
390.165	3.83
390.526	3.82
390.887	3.79
391.248	3.75
391.609	3.73
391.969	3.74
392.33	3.68
392.691	3.69
393.051	3.65
393.412	3.62
393.772	3.56
394.133	3.61
394.493	3.59
394.854	3.57
395.214	3.54
395.574	3.51
395.935	3.47
396.295	3.47
396.655	3.44
397.015	3.42
397.376	3.41
397.736	3.36
398.096	3.34
398.456	3.32
398.816	3.27
399.176	3.2
399.535	3.16
399.895	3.14
400.255	3.12
400.615	3.11
400.975	3.11
401.334	3.11
401.694	3.06
402.054	3.07
402.413	3.02
402.773	3
403.132	2.99
403.492	3.03
403.851	2.99
404.211	2.98
404.57	2.94
404.929	2.89
405.288	2.87
405.648	2.83
406.007	2.82
406.366	2.84
406.725	2.82
407.084	2.85
407.443	2.88
407.802	2.87
408.161	2.86
408.52	2.82
408.879	2.84
409.238	2.87
409.596	2.82
409.955	2.87
410.314	2.84
410.673	2.83
411.031	2.82
411.39	2.82
411.748	2.83
412.107	2.84
412.465	2.85
412.824	2.86
413.182	2.88
413.54	2.88
413.899	2.87
414.257	2.93
414.615	2.9
414.974	2.87
415.332	2.85
415.69	2.82
416.048	2.86
416.406	2.84
416.764	2.83
417.122	2.84
417.48	2.8
417.838	2.82
418.195	2.8
418.553	2.78
418.911	2.76
419.269	2.74
419.626	2.74
419.984	2.71
420.342	2.71
420.699	2.7
421.057	2.7
421.414	2.68
421.772	2.64
422.129	2.63
422.486	2.62
422.844	2.61
423.201	2.61
423.558	2.59
423.915	2.59
424.273	2.59
424.63	2.59
424.987	2.6
425.344	2.58
425.701	2.59
426.058	2.61
426.415	2.61
426.772	2.61
427.128	2.59
427.485	2.63
427.842	2.63
428.199	2.65
428.555	2.64
428.912	2.64
429.269	2.64
429.625	2.64
429.982	2.66
430.338	2.65
430.695	2.65
431.051	2.66
431.407	2.63
431.764	2.63
432.12	2.64
432.476	2.65
432.832	2.65
433.189	2.64
433.545	2.62
433.901	2.6
434.257	2.59
434.613	2.61
434.969	2.59
435.325	2.6
435.681	2.57
436.036	2.55
436.392	2.57
436.748	2.59
437.104	2.59
437.459	2.58
437.815	2.6
438.171	2.62
438.526	2.61
438.882	2.6
439.237	2.58
439.593	2.58
439.948	2.56
440.304	2.57
440.659	2.57
441.014	2.58
441.369	2.59
441.725	2.59
442.08	2.58
442.435	2.59
442.79	2.57
443.145	2.58
443.5	2.58
443.855	2.57
444.21	2.56
444.565	2.56
444.92	2.55
445.275	2.54
445.629	2.52
445.984	2.53
446.339	2.55
446.693	2.55
447.048	2.52
447.403	2.53
447.757	2.5
448.112	2.52
448.466	2.51
448.82	2.51
449.175	2.51
449.529	2.51
449.883	2.51
450.238	2.51
450.592	2.51
450.946	2.51
451.3	2.51
451.654	2.5
452.008	2.49
452.362	2.48
452.716	2.48
453.07	2.47
453.424	2.46
453.778	2.46
454.132	2.44
454.486	2.45
454.839	2.42
455.193	2.44
455.547	2.44
455.9	2.43
456.254	2.43
456.607	2.41
456.961	2.41
457.314	2.42
457.668	2.43
458.021	2.42
458.375	2.4
458.728	2.41
459.081	2.42
459.434	2.44
459.787	2.44
460.141	2.44
460.494	2.44
460.847	2.44
461.2	2.43
461.553	2.47
461.906	2.47
462.259	2.47
462.611	2.47
462.964	2.45
463.317	2.47
463.67	2.47
464.022	2.5
464.375	2.49
464.728	2.49
465.08	2.47
465.433	2.49
465.785	2.53
466.138	2.51
466.49	2.52
466.843	2.51
467.195	2.54
467.547	2.54
467.899	2.57
468.252	2.59
468.604	2.61
468.956	2.62
469.308	2.62
469.66	2.65
470.012	2.67
470.364	2.68
470.716	2.69
471.068	2.7
471.42	2.68
471.772	2.7
472.123	2.7
472.475	2.72
472.827	2.73
473.178	2.72
473.53	2.73
473.882	2.72
474.233	2.71
474.585	2.69
474.936	2.71
475.288	2.69
475.639	2.68
475.99	2.66
476.342	2.64
476.693	2.65
477.044	2.63
477.395	2.62
477.746	2.6
478.097	2.59
478.448	2.58
478.8	2.56
479.15	2.55
479.501	2.54
479.852	2.53
480.203	2.52
480.554	2.53
480.905	2.53
481.255	2.53
481.606	2.55
481.957	2.55
482.307	2.55
482.658	2.55
483.009	2.54
483.359	2.55
483.709	2.55
484.06	2.55
484.41	2.57
484.761	2.56
485.111	2.57
485.461	2.57
485.811	2.56
486.162	2.58
486.512	2.58
486.862	2.59
487.212	2.61
487.562	2.61
487.912	2.61
488.262	2.61
488.612	2.62
488.961	2.61
489.311	2.61
489.661	2.61
490.011	2.62
490.36	2.62
490.71	2.63
491.06	2.62
491.409	2.64
491.759	2.64
492.108	2.64
492.458	2.64
492.807	2.65
493.157	2.67
493.506	2.67
493.855	2.66
494.204	2.67
494.554	2.66
494.903	2.67
495.252	2.68
495.601	2.7
495.95	2.71
496.299	2.74
496.648	2.77
496.997	2.79
497.346	2.8
497.695	2.83
498.043	2.84
498.392	2.84
498.741	2.85
499.09	2.86
499.438	2.89
499.787	2.95
500.135	2.96
500.484	2.99
500.832	3.02
501.181	3.06
501.529	3.08
501.878	3.13
502.226	3.17
502.574	3.22
502.923	3.24
503.271	3.27
503.619	3.31
503.967	3.3
504.315	3.34
504.663	3.37
505.011	3.4
505.359	3.45
505.707	3.51
506.055	3.56
506.403	3.62
506.751	3.65
507.098	3.68
507.446	3.75
507.794	3.8
508.141	3.86
508.489	3.93
508.837	3.99
509.184	4.05
509.531	4.1
509.879	4.14
510.226	4.21
510.574	4.27
510.921	4.33
511.268	4.41
511.616	4.48
511.963	4.55
512.31	4.63
512.657	4.68
513.004	4.72
513.351	4.79
513.698	4.85
514.045	4.93
514.392	5.01
514.739	5.07
515.086	5.17
515.432	5.24
515.779	5.3
516.126	5.37
516.473	5.42
516.819	5.49
517.166	5.56
517.512	5.62
517.859	5.7
518.205	5.74
518.552	5.81
518.898	5.87
519.245	5.94
519.591	6
519.937	6.1
520.283	6.19
520.629	6.24
520.976	6.32
521.322	6.41
521.668	6.47
522.014	6.58
522.36	6.63
522.706	6.69
523.052	6.8
523.398	6.89
523.743	6.99
524.089	7.09
524.435	7.18
524.781	7.28
525.126	7.35
525.472	7.44
525.817	7.52
526.163	7.59
526.509	7.65
526.854	7.71
527.199	7.77
527.545	7.84
527.89	7.92
528.235	7.99
528.581	8.06
528.926	8.14
529.271	8.2
529.616	8.26
529.961	8.36
530.306	8.42
530.651	8.5
530.996	8.59
531.341	8.69
531.686	8.77
532.031	8.85
532.376	8.95
532.721	9.06
533.065	9.16
533.41	9.27
533.755	9.4
534.099	9.51
534.444	9.61
534.788	9.72
535.133	9.83
535.477	9.94
535.822	10.06
536.166	10.19
536.51	10.33
536.855	10.5
537.199	10.65
537.543	10.82
537.887	11
538.231	11.17
538.576	11.33
538.92	11.51
539.264	11.67
539.608	11.8
539.951	11.96
540.295	12.1
540.639	12.24
540.983	12.37
541.327	12.53
541.671	12.69
542.014	12.84
542.358	12.97
542.701	13.11
543.045	13.28
543.389	13.43
543.732	13.58
544.075	13.72
544.419	13.88
544.762	14.05
545.105	14.21
545.449	14.38
545.792	14.57
546.135	14.77
546.478	14.98
546.821	15.22
547.165	15.46
547.508	15.71
547.851	15.97
548.194	16.2
548.536	16.41
548.879	16.6
549.222	16.82
549.565	17.03
549.908	17.24
550.25	17.43
550.593	17.63
550.936	17.84
551.278	18.09
551.621	18.28
551.963	18.49
552.306	18.72
552.648	18.97
552.991	19.24
553.333	19.45
553.675	19.7
554.017	19.9
554.36	20.08
554.702	20.25
555.044	20.4
555.386	20.58
555.728	20.79
556.07	21.02
556.412	21.24
556.754	21.44
557.096	21.67
557.438	21.88
557.78	22.09
558.121	22.31
558.463	22.54
558.805	22.81
559.147	23
559.488	23.15
559.83	23.27
560.171	23.43
560.513	23.63
560.854	23.82
561.196	24.01
561.537	24.2
561.878	24.43
562.22	24.62
562.561	24.8
562.902	24.99
563.243	25.16
563.584	25.34
563.925	25.55
564.266	25.72
564.607	25.92
564.948	26.09
565.289	26.29
565.63	26.41
565.971	26.56
566.312	26.7
566.653	26.94
566.993	27.11
567.334	27.22
567.675	27.34
568.015	27.42
568.356	27.6
568.696	27.76
569.037	27.86
569.377	27.98
569.718	28.12
570.058	28.21
570.398	28.37
570.739	28.5
571.079	28.64
571.419	28.74
571.759	28.83
572.099	28.89
572.439	28.96
572.779	29.06
573.119	29.19
573.459	29.34
573.799	29.35
574.139	29.45
574.479	29.59
574.819	29.69
575.158	29.8
575.498	29.86
575.838	29.95
576.177	30.07
576.517	30.21
576.856	30.32
577.196	30.49
577.535	30.56
577.875	30.67
578.214	30.74
578.553	30.85
578.893	30.99
579.232	31.16
579.571	31.3
579.91	31.39
580.25	31.49
580.589	31.54
580.928	31.69
581.267	31.82
581.606	31.94
581.945	32.1
582.283	32.27
582.622	32.3
582.961	32.3
583.3	32.33
583.639	32.42
583.977	32.49
584.316	32.53
584.654	32.63
584.993	32.67
585.332	32.69
585.67	32.79
586.008	32.82
586.347	32.87
586.685	32.95
587.024	33.01
587.362	33.03
587.7	33.15
588.038	33.28
588.376	33.34
588.715	33.38
589.053	33.39
589.391	33.34
589.729	33.43
590.067	33.49
590.404	33.64
590.742	33.66
591.08	33.73
591.418	33.82
591.756	33.78
592.093	33.85
592.431	33.97
592.769	34.01
593.106	34.08
593.444	34.21
593.781	34.3
594.119	34.37
594.456	34.43
594.793	34.44
595.131	34.4
595.468	34.52
595.805	34.58
596.143	34.61
596.48	34.69
596.817	34.78
597.154	34.88
597.491	34.83
597.828	34.89
598.165	34.93
598.502	34.96
598.839	35.07
599.176	35.12
599.512	35.15
599.849	35.18
600.186	35.28
600.523	35.3
600.859	35.32
601.196	35.4
601.532	35.43
601.869	35.51
602.205	35.59
602.542	35.56
602.878	35.58
603.215	35.65
603.551	35.69
603.887	35.74
604.223	35.75
604.56	35.84
604.896	35.91
605.232	35.95
605.568	35.94
605.904	35.97
606.24	35.99
606.576	36.01
606.912	36.03
607.248	36.02
607.583	36.04
607.919	36.05
608.255	36.02
608.591	36.07
608.926	36.04
609.262	36.07
609.597	36.08
609.933	36.13
610.268	36.15
610.604	36.14
610.939	36.23
611.275	36.27
611.61	36.27
611.945	36.29
612.281	36.33
612.616	36.39
612.951	36.4
613.286	36.39
613.621	36.46
613.956	36.5
614.291	36.56
614.626	36.61
614.961	36.57
615.296	36.58
615.631	36.53
615.966	36.57
616.3	36.64
616.635	36.64
616.97	36.68
617.304	36.65
617.639	36.77
617.973	36.62
618.308	36.6
618.642	36.56
618.977	36.56
619.311	36.54
619.646	36.57
619.98	36.66
620.314	36.75
620.648	36.75
620.983	36.74
621.317	36.73
621.651	36.78
621.985	36.82
622.319	36.9
622.653	37.03
622.987	37.01
623.321	37.05
623.655	37.14
623.988	37.15
624.322	37.18
624.656	37.19
624.99	37.25
625.323	37.25
625.657	37.33
625.99	37.36
626.324	37.35
626.657	37.4
626.991	37.38
627.324	37.35
627.658	37.4
627.991	37.5
628.324	37.43
628.657	37.37
628.991	37.38
629.324	37.41
629.657	37.3
629.99	37.28
630.323	37.21
630.656	37.18
630.989	37.14
631.322	37.12
631.655	37.01
631.987	37.11
632.32	37.11
632.653	37.11
632.986	37.1
633.318	37.05
633.651	37
633.984	36.99
634.316	37.05
634.649	37.03
634.981	37.05
635.313	37.06
635.646	37.14
635.978	37.23
636.31	37.26
636.643	37.32
636.975	37.42
637.307	37.5
637.639	37.4
637.971	37.39
638.303	37.49
638.635	37.57
638.967	37.53
639.299	37.53
639.631	37.53
639.963	37.49
640.295	37.6
640.626	37.55
640.958	37.6
641.29	37.59
641.621	37.51
641.953	37.43
642.285	37.5
642.616	37.46
642.948	37.44
643.279	37.28
643.61	37.42
643.942	37.42
644.273	37.48
644.604	37.72
644.936	37.76
645.267	37.72
645.598	37.67
645.929	37.6
646.26	37.58
646.591	37.74
646.922	37.86
647.253	37.81
647.584	37.83
647.915	37.91
648.245	37.99
648.576	38
648.907	38.05
649.238	38.07
649.568	38.05
649.899	38.08
650.229	38.2
650.56	38.05
650.89	38.07
651.221	38.03
651.551	38.04
651.882	38.08
652.212	38.11
652.542	38.26
652.872	38.29
653.203	38.41
653.533	38.35
653.863	38.25
654.193	38.24
654.523	38.32
654.853	38.29
655.183	38.27
655.513	38.37
655.843	38.44
656.172	38.48
656.502	38.43
656.832	38.4
657.162	38.34
657.491	38.5
657.821	38.44
658.15	38.45
658.48	38.45
658.809	38.41
659.139	38.37
659.468	38.35
659.798	38.44
660.127	38.39
660.456	38.39
660.785	38.32
661.115	38.41
661.444	38.4
661.773	38.39
662.102	38.47
662.431	38.43
662.76	38.39
663.089	38.47
663.418	38.57
663.747	38.64
664.076	38.71
664.404	38.6
664.733	38.8
665.062	38.75
665.39	38.6
665.719	38.77
666.048	38.9
666.376	38.84
666.705	38.71
667.033	38.62
667.362	38.53
667.69	38.7
668.018	38.71
668.347	38.75
668.675	38.66
669.003	38.54
669.331	38.57
669.659	38.6
669.987	38.58
670.315	38.46
670.643	38.48
670.971	38.5
671.299	38.49
671.627	38.33
671.955	38.34
672.283	38.4
672.61	38.21
672.938	38.17
673.266	38.27
673.593	38.29
673.921	38.46
674.249	38.54
674.576	38.56
674.904	38.62
675.231	38.73
675.558	38.82
675.886	38.78
676.213	38.82
676.54	38.9
676.867	39.03
677.195	39.16
677.522	39.09
677.849	39.14
678.176	39.15
678.503	39.08
678.83	39.01
679.157	39.01
679.484	39.15
679.81	39.02
680.137	38.99
680.464	39.08
680.791	39.04
681.117	39.04
681.444	39.09
681.771	39.09
682.097	39.06
682.424	39
682.75	39
683.077	38.98
683.403	38.88
683.729	38.79
684.056	38.77
684.382	38.93
684.708	38.9
685.034	38.98
685.36	39.24
685.686	39.26
686.012	39.33
686.339	39.18
686.664	39.23
686.99	39.19
687.316	39.19
687.642	39.14
687.968	39.24
688.294	39.2
688.619	39.19
688.945	39.04
689.271	39.14
689.596	39.29
689.922	39.29
690.247	39.47
690.573	39.33
690.898	39.25
691.224	39.11
691.549	39.1
691.874	39.09
692.2	38.96
692.525	38.94
692.85	38.87
693.175	38.96
693.5	39.04
693.825	39.05
694.15	38.95
694.475	38.85
694.8	38.71
695.125	38.68
695.45	38.65
695.775	38.69
696.099	38.61
696.424	38.56
696.749	38.55
697.073	38.38
697.398	38.49
697.723	38.61
698.047	38.7
698.372	38.69
698.696	38.68
699.02	38.59
699.345	38.83
699.669	38.8
699.993	38.83
700.318	38.82
700.642	38.8
700.966	38.98
701.29	39.12
701.614	39.2
701.938	39.21
702.262	39.23
702.586	39.24
702.91	39.31
703.234	39.3
703.557	39.29
703.881	39.47
704.205	39.56
704.529	39.47
704.852	39.4
705.176	39.42
705.499	39.32
705.823	39.52
706.146	39.4
706.47	39.52
706.793	39.53
707.117	39.58
707.44	39.63
707.763	39.48
708.086	39.5
708.409	39.44
708.733	39.34
709.056	39.4
709.379	39.43
709.702	39.63
710.025	39.68
710.348	39.7
710.671	39.62
710.993	39.52
711.316	39.61
711.639	39.38
711.962	39.42
712.284	39.44
712.607	39.43
712.93	39.36
713.252	39.42
713.575	39.32
713.897	39.3
714.22	39.33
714.542	39.33
714.864	39.33
715.187	39.16
715.509	39.31
715.831	39.43
716.153	39.61
716.475	39.4
716.798	39.34
717.12	39.44
717.442	39.52
717.764	39.58
718.085	39.63
718.407	40.03
718.729	39.84
719.051	40.06
719.373	39.95
719.695	40.06
720.016	40.05
720.338	40.03
720.659	40.05
720.981	39.95
721.302	40.02
721.624	40.01
721.945	40.22
722.267	40.21
722.588	40.13
722.909	39.91
723.231	39.97
723.552	40.02
723.873	39.91
724.194	39.98
724.515	39.9
724.836	39.89
725.157	39.66
725.478	39.78
725.799	39.52
726.12	39.63
726.441	39.63
726.762	39.76
727.083	40.02
727.403	40.18
727.724	40.31
728.045	40.26
728.365	40.18
728.686	40.46
729.006	40.37
729.327	40.25
729.647	40.28
729.967	40.28
730.288	40.31
730.608	40.38
730.928	40.26
731.249	40.24
731.569	40.19
731.889	40.14
732.209	40.21
732.529	40.19
732.849	40.4
733.169	40.28
733.489	40.1
733.809	40.05
734.129	39.94
734.448	39.96
734.768	39.83
735.088	39.75
735.408	39.46
735.727	39.33
736.047	39.14
736.366	39.21
736.686	39.19
737.005	39.18
737.325	39.2
737.644	38.96
737.963	39.16
738.283	39.33
738.602	39.45
738.921	39.64
739.24	39.7
739.56	39.59
739.879	39.62
740.198	39.45
740.517	39.31
740.836	39.07
741.155	38.86
741.473	39.01
741.792	39.41
742.111	39.68
742.43	39.75
742.748	39.91
743.067	39.84
743.386	39.72
743.704	39.64
744.023	39.62
744.341	39.84
744.66	39.71
744.978	39.57
745.297	39.53
745.615	39.22
745.933	39.27
746.252	39.34
746.57	39.44
746.888	39.61
747.206	39.93
747.524	40.14
747.842	40.16
748.16	40.41
748.478	40.23
748.796	40.1
749.114	40.17
749.432	40.27
749.749	40.4
750.067	40.77
750.385	40.8
750.703	40.57
751.02	40.53
751.338	40.43
751.655	40.3
751.973	40.45
752.29	40.7
752.608	41.05
752.925	40.77
753.242	40.77
753.56	40.83
753.877	40.63
754.194	40.67
754.511	40.6
754.828	40.45
755.145	40.74
755.462	40.89
755.779	40.8
756.096	40.64
756.413	40.55
756.73	40.37
757.047	40.39
757.364	40.71
757.68	41.07
757.997	41.17
758.314	41.36
758.63	40.82
758.947	40.86
759.264	40.79
759.58	40.38
759.896	40.28
760.213	40.61
760.529	40.68
760.846	40.61
761.162	40.71
761.478	40.69
761.794	40.58
762.11	40.59
762.426	40.87
762.743	40.88
763.059	40.86
763.375	40.92
763.69	40.95
764.006	40.8
764.322	40.77
764.638	40.79
764.954	40.7
765.27	41.4
765.585	41.46
765.901	41.27
766.216	41.72
766.532	41.75
766.848	41.46
767.163	41.32
767.478	41.12
767.794	41.37
768.109	41.49
768.424	41.35
768.74	41.04
769.055	40.95
769.37	41.19
769.685	41.44
770	41.17
770.315	41.04
770.63	41.37
770.945	41.13
771.26	41.1
771.575	41.22
771.89	40.76
772.205	40.39
772.52	40.41
772.834	40.3
773.149	40.24
773.464	40.44
773.778	40.42
774.093	40.98
774.407	41.08
774.722	41.06
775.036	41.04
775.351	41.35
775.665	41.27
775.979	41.34
776.293	41.02
776.608	41.16
776.922	41.48
777.236	41.19
777.55	41.11
777.864	40.84
778.178	40.65
778.492	40.79
778.806	41.14
779.12	40.89
779.434	40.87
779.747	40.89
780.061	40.22
780.375	40.31
780.689	40.15
781.002	39.91
781.316	39.39
781.629	39.64
781.943	39.6
782.256	39.48
782.57	39.56
782.883	40.08
783.196	39.84
783.51	39.91
783.823	39.35
784.136	39.34
784.449	39.41
784.762	39.87
785.075	39.91
785.388	39.91
785.701	40.68
786.014	40.32
786.327	40.4
786.64	41.35
786.953	41.51
787.266	41.41
787.578	41.45
787.891	41.5
788.204	41.35
788.516	41.31
788.829	41.16
789.141	41
789.454	40.55
789.766	41.04
790.079	40.73
790.391	40.77
790.703	41.17
791.016	41.48
791.328	41.23
791.64	41.05
791.952	40.67
792.264	39.98
792.576	40.16
792.888	40.65
793.2	40.3
793.512	40.14
793.824	40.18
794.136	40.34
794.448	40.76
794.76	41.19
795.071	41.14
795.383	41.49
795.695	41.36
796.006	41.25
796.318	41.2
796.629	41.99
796.941	42.48
797.252	41.97
797.564	41.71
797.875	41.26
798.186	41.36
798.497	41.54
798.809	42.53
799.12	42.86
799.431	42.36
799.742	42.04
800.053	41.8
800.364	42.55
800.675	42.39
800.986	41.62
801.297	41.2
801.608	41.25
801.918	41.08
802.229	41.16
802.54	41.38
802.851	41.14
803.161	40.42
803.472	40.73
803.782	40.62
804.093	40.54
804.403	41.07
804.714	40.88
805.024	41.04
805.334	40.58
805.645	40.32
805.955	40.54
806.265	40.71
806.575	41
806.885	40.91
807.195	40.96
807.505	41.53
807.815	41.32
808.125	41.58
808.435	41.41
808.745	41.46
809.055	41.87
809.365	42.1
809.674	41.97
809.984	42.03
810.294	41.91
810.603	41.95
810.913	41.72
811.222	41.45
811.532	41.44
811.841	41.61
812.151	41.4
812.46	40.77
812.769	40.45
813.079	40.75
813.388	40.34
813.697	40.24
814.006	40.34
814.315	41.44
814.624	41.31
814.933	41.22
815.242	40.83
815.551	40.9
815.86	41.05
816.169	41.49
816.478	41.06
816.786	41.97
817.095	42.5
817.404	43.37
817.712	43.63
818.021	43.27
818.33	43.1
818.638	42.87
818.947	43.16
819.255	42.54
819.563	42.7
819.872	42.26
820.18	42.06
820.488	41.5
820.796	40.95
821.105	40.87
821.413	40.68
821.721	40.42
822.029	39.98
822.337	40.21
822.645	40.35
822.953	40.36
823.26	40.22
823.568	40.25
823.876	40.07
824.184	39.98
824.491	39.91
824.799	39.76
825.107	39.79
825.414	39.62
825.722	39.66
826.029	39.44
826.337	39.48
826.644	39.53
826.951	39.83
827.259	39.87
827.566	39.99
827.873	40.24
828.18	40.61
828.488	40.86
828.795	40.8
829.102	40.33
829.409	40.17
829.716	40.63
830.023	40.38
830.329	40.27
830.636	40.5
830.943	40.68
831.25	40.69
831.557	40.8
831.863	41.42
832.17	41.37
832.476	41.08
832.783	40.8
833.089	40.46
833.396	39.78
833.702	39.99
834.009	40.24
834.315	39.71
834.621	39.81
834.928	39.8
835.234	39.45
835.54	39.68
835.846	40.24
836.152	39.83
836.458	39.83
836.764	39.8
837.07	39.59
837.376	39.49
837.682	39.5
837.988	39.58
838.293	39.29
838.599	40.02
838.905	40.71
839.211	41.16
839.516	41.42
839.822	42.44
840.127	42.91
840.433	41.66
840.738	42.37
841.044	41.79
841.349	42.36
841.654	42.65
841.959	43.34
842.265	42.16
842.57	42.46
842.875	43.02
843.18	43.28
843.485	44.72
843.79	44.57
844.095	44.25
844.4	44.08
844.705	43.62
845.01	43.22
845.315	42.8
845.619	42.44
845.924	42
846.229	41.14
846.533	39.03
846.838	39.62
847.142	40.08
847.447	40.6
847.751	39.05
848.056	39.53
848.36	38.3
848.664	37.87
848.969	37.07
849.273	36.47
849.577	35.44
849.881	32.86
850.185	34.53
850.489	35.16
850.794	35.82
851.097	35.88
851.401	35.56
851.705	35.06
852.009	36.65
852.313	37.16
852.617	37.18
852.92	39.19
853.224	38.98
853.528	39.21
853.831	41.25
854.135	42.29
854.438	39.26
854.742	37.95
855.045	39.72
855.349	37.65
855.652	36.95
855.955	37.91
856.259	38.69
856.562	36.7
856.865	36.55
857.168	35.19
857.471	34.62
857.774	34.24
858.077	34.14
858.38	33.86
858.683	34.11
858.986	34.69
859.289	34.1
859.592	33.86
859.894	32.49
860.197	30.04
860.5	30.98
860.802	32.71
861.105	33.91
861.407	35.15
861.71	37.91
862.012	36.39
862.315	36.74
862.617	37.69
862.919	38.72
863.222	41.11
863.524	40.98
863.826	40.72
864.128	41.31
864.43	42.07
864.732	41.44
865.034	42.13
865.336	43.75
865.638	43.85
865.94	46.65
866.242	48.2
866.544	47.45
866.846	46.95
867.147	47.73
867.449	48.42
867.751	47.12
868.052	44.39
868.354	49.41
868.655	49.92
868.957	48.86
869.258	50.19
869.56	47.65
869.861	48.36
870.162	46.96
870.463	46.24
870.765	46.11
871.066	45.78
871.367	44.26
871.668	42.99
871.969	42.68
872.27	41.73
872.571	39.24
872.872	41.38
873.173	40.87
873.473	41.24
873.774	40.5
874.075	39.4
874.376	40.32
874.676	39.82
874.977	40.99
875.277	40.97
875.578	38.77
875.878	39.38
876.179	39.65
876.479	41.97
876.78	43.61
877.08	44.04
877.38	43.98
877.68	45.61
877.981	45.86
878.281	46.74
878.581	44.32
