Data from MVZ_BU163026_Reflection_00014.txt Node
Date: Tue Nov 19 12:06:15 EST 2019
User: vgr7
Spectrometer: USB2G7710
Scans to average: 3
Trigger mode: 4
Integration Time (sec): 2.000000E-2
Electric dark correction enabled: true
Boxcar width: 10
XAxis mode: Wavelengths
Number of Pixels in Spectrum: 2048
>>>>>Begin Spectral Data<<<<<
177.721	-41.28
178.105	-318.92
178.488	-138.91
178.871	-64.18
179.254	20
179.636	7.58
180.019	-84.34
180.402	333.33
180.785	827.27
181.168	21.88
181.55	-8.37
181.933	-79.78
182.316	15.43
182.698	67.21
183.081	27.23
183.463	11.18
183.846	41.85
184.228	56.15
184.611	80.67
184.993	92
185.376	71.82
185.758	33.97
186.14	12.34
186.522	14.84
186.904	11.46
187.287	11.34
187.669	25.76
188.051	59.54
188.433	28.69
188.815	41.18
189.197	24.68
189.579	32.71
189.961	36.79
190.342	32.2
190.724	45.09
191.106	55.16
191.488	52.01
191.869	27.73
192.251	39.61
192.633	90.31
193.014	97.12
193.396	77.85
193.777	157.45
194.159	453.16
194.54	1372.73
194.922	-6005.26
195.303	644
195.684	292.89
196.065	65.52
196.447	-121.11
196.828	2736.36
197.209	330.09
197.59	587.8
197.971	397.87
198.352	2.72
198.733	-3.68
199.114	6.4
199.495	-53.85
199.876	-33.17
200.257	-71.8
200.638	-174.84
201.018	-171.82
201.399	-1120.78
201.78	-2069.01
202.16	-292.23
202.541	-192.1
202.922	-214.46
203.302	-160.61
203.683	-92.05
204.063	-42.25
204.444	-101.82
204.824	-191.76
205.204	-1390.57
205.585	-2046.34
205.965	-759.15
206.345	116.19
206.725	102.22
207.106	45.67
207.486	29.73
207.866	46.07
208.246	-11.01
208.626	-43.7
209.006	-67.62
209.386	-123.3
209.766	-282.02
210.145	-147.96
210.525	-208.43
210.905	-176.16
211.285	-54.28
211.664	8.04
212.044	14.16
212.424	-1.82
212.803	-13.62
213.183	-25.99
213.562	-38.2
213.942	-11.26
214.321	5.71
214.701	4.32
215.08	9.09
215.459	10.15
215.838	-6.29
216.218	-17.59
216.597	10.01
216.976	-1.79
217.355	23.51
217.734	7.68
218.113	-15.98
218.492	5.18
218.871	20.95
219.25	17.01
219.629	-18.41
220.008	-11.04
220.387	-30.68
220.766	-15.74
221.144	-6.37
221.523	-4.81
221.902	-24.68
222.28	-25.99
222.659	-10.15
223.037	1.57
223.416	1.92
223.794	4.53
224.173	19.41
224.551	13.66
224.929	18.25
225.308	17.38
225.686	19.65
226.064	21.47
226.442	10.31
226.821	2.32
227.199	-6.03
227.577	0.78
227.955	3.93
228.333	6.22
228.711	2.87
229.089	4.09
229.467	0.5
229.845	-0.42
230.222	-0.58
230.6	-2.57
230.978	0.23
231.356	0.67
231.733	3.86
232.111	1.57
232.488	2.16
232.866	2.59
233.243	3.43
233.621	2.16
233.998	3.34
234.376	4.16
234.753	3.97
235.13	6.8
235.508	4.56
235.885	2.68
236.262	2.94
236.639	3.66
237.016	2.82
237.393	4.52
237.77	6.2
238.147	5.2
238.524	6.28
238.901	3.97
239.278	2.24
239.655	2.03
240.032	2.78
240.409	2.77
240.785	2.41
241.162	2.53
241.539	2.63
241.915	2.6
242.292	2.62
242.668	3
243.045	2.79
243.421	3.07
243.798	3.05
244.174	2.91
244.551	2.91
244.927	3.09
245.303	2.81
245.679	2.74
246.056	2.58
246.432	2.45
246.808	2.82
247.184	3.5
247.56	3.29
247.936	3.42
248.312	3.46
248.688	3.57
249.064	3.45
249.44	3.32
249.815	3.13
250.191	3.07
250.567	3.05
250.943	3.16
251.318	2.96
251.694	3.03
252.069	3.22
252.445	3.24
252.82	3.2
253.196	3.42
253.571	3.47
253.947	3.91
254.322	3.95
254.697	4.09
255.073	3.61
255.448	3.61
255.823	3.17
256.198	2.72
256.573	2.82
256.948	2.76
257.323	2.98
257.698	3.17
258.073	3.05
258.448	3.1
258.823	3.12
259.198	3.16
259.573	2.95
259.948	2.99
260.322	2.81
260.697	2.88
261.072	2.93
261.446	2.89
261.821	2.64
262.195	2.73
262.57	2.56
262.944	2.58
263.319	2.66
263.693	2.78
264.067	3
264.442	2.84
264.816	2.91
265.19	2.81
265.564	2.6
265.938	2.9
266.313	2.62
266.687	2.49
267.061	2.48
267.435	2.77
267.809	2.6
268.183	2.84
268.556	2.73
268.93	2.69
269.304	2.58
269.678	2.85
270.051	2.73
270.425	2.88
270.799	2.78
271.172	2.65
271.546	2.61
271.919	2.61
272.293	2.7
272.666	2.62
273.04	2.82
273.413	2.88
273.787	2.62
274.16	2.73
274.533	2.85
274.906	2.87
275.279	2.64
275.653	2.69
276.026	2.69
276.399	2.66
276.772	2.66
277.145	2.62
277.518	2.58
277.891	2.51
278.263	2.54
278.636	2.57
279.009	2.73
279.382	2.6
279.755	2.55
280.127	2.63
280.5	2.8
280.872	2.97
281.245	3.02
281.617	3.34
281.99	3.5
282.362	3.4
282.735	3.5
283.107	3.6
283.479	3.59
283.852	3.65
284.224	3.66
284.596	3.61
284.968	3.62
285.34	3.74
285.713	3.86
286.085	3.72
286.457	3.72
286.829	3.58
287.201	3.73
287.572	3.74
287.944	3.6
288.316	3.59
288.688	3.39
289.06	3.45
289.431	3.47
289.803	3.45
290.175	3.44
290.546	3.33
290.918	3.43
291.289	3.37
291.661	3.49
292.032	3.52
292.403	3.47
292.775	3.56
293.146	3.6
293.517	3.54
293.889	3.6
294.26	3.59
294.631	3.75
295.002	3.91
295.373	3.95
295.744	4.03
296.115	3.95
296.486	3.98
296.857	4.05
297.228	3.92
297.599	3.95
297.97	4.04
298.34	4.13
298.711	4.03
299.082	4.14
299.452	3.99
299.823	3.98
300.194	4.04
300.564	3.89
300.935	3.76
301.305	3.81
301.676	3.8
302.046	3.97
302.416	4.01
302.787	3.75
303.157	3.78
303.527	3.95
303.897	3.94
304.267	3.95
304.637	4
305.008	4.09
305.378	4.05
305.748	4.08
306.117	4.02
306.487	4.28
306.857	4.4
307.227	4.57
307.597	4.63
307.967	4.72
308.336	4.87
308.706	5.11
309.076	5.12
309.445	5.26
309.815	5.27
310.184	5.4
310.554	5.52
310.923	5.55
311.293	5.5
311.662	5.68
312.031	5.74
312.401	5.69
312.77	5.72
313.139	5.76
313.508	5.84
313.877	5.91
314.246	5.91
314.616	5.88
314.985	5.88
315.353	5.99
315.722	6.2
316.091	6.37
316.46	6.27
316.829	6.32
317.198	6.29
317.567	6.25
317.935	6.31
318.304	6.46
318.672	6.57
319.041	6.64
319.41	6.73
319.778	6.83
320.147	6.93
320.515	6.91
320.883	6.83
321.252	6.84
321.62	6.92
321.988	7.07
322.357	7.11
322.725	7.28
323.093	7.32
323.461	7.25
323.829	7.21
324.197	7.41
324.565	7.46
324.933	7.57
325.301	7.65
325.669	7.48
326.037	7.27
326.405	7.29
326.772	7.23
327.14	7.22
327.508	7.07
327.875	7
328.243	6.97
328.61	7.14
328.978	7.11
329.346	7.03
329.713	6.89
330.08	6.97
330.448	6.84
330.815	6.76
331.182	6.77
331.55	6.77
331.917	6.67
332.284	6.79
332.651	6.91
333.018	6.78
333.385	6.73
333.752	6.91
334.119	6.91
334.486	6.94
334.853	6.75
335.22	6.97
335.587	7.06
335.954	7.18
336.32	7.14
336.687	7.27
337.054	7.32
337.42	7.48
337.787	7.4
338.153	7.43
338.52	7.53
338.886	7.31
339.253	7.33
339.619	7.33
339.986	7.29
340.352	7.11
340.718	7.22
341.084	7.32
341.451	7.41
341.817	7.36
342.183	7.45
342.549	7.63
342.915	7.6
343.281	7.47
343.647	7.58
344.013	7.59
344.379	7.56
344.745	7.62
345.11	7.49
345.476	7.65
345.842	7.58
346.208	7.53
346.573	7.64
346.939	7.76
347.304	7.75
347.67	7.68
348.035	7.72
348.401	7.67
348.766	7.62
349.132	7.67
349.497	7.74
349.862	7.64
350.228	7.6
350.593	7.61
350.958	7.66
351.323	7.55
351.688	7.66
352.053	7.64
352.418	7.55
352.783	7.62
353.148	7.44
353.513	7.42
353.878	7.46
354.243	7.49
354.608	7.39
354.972	7.36
355.337	7.43
355.702	7.46
356.066	7.51
356.431	7.54
356.795	7.48
357.16	7.5
357.524	7.48
357.889	7.41
358.253	7.38
358.618	7.43
358.982	7.47
359.346	7.39
359.71	7.32
360.075	7.38
360.439	7.33
360.803	7.42
361.167	7.42
361.531	7.35
361.895	7.33
362.259	7.35
362.623	7.34
362.987	7.33
363.351	7.35
363.714	7.35
364.078	7.33
364.442	7.16
364.806	7.18
365.169	7.22
365.533	7.25
365.896	7.23
366.26	7.15
366.623	7.04
366.987	7
367.35	7.04
367.714	6.99
368.077	6.99
368.44	6.96
368.803	6.93
369.167	6.86
369.53	6.87
369.893	6.85
370.256	6.76
370.619	6.62
370.982	6.49
371.345	6.42
371.708	6.35
372.071	6.43
372.434	6.24
372.797	6.19
373.159	6.06
373.522	5.99
373.885	5.98
374.247	5.96
374.61	5.95
374.973	5.94
375.335	5.91
375.698	5.83
376.06	5.76
376.423	5.65
376.785	5.68
377.147	5.64
377.51	5.59
377.872	5.63
378.234	5.71
378.596	5.69
378.958	5.69
379.321	5.62
379.683	5.55
380.045	5.51
380.407	5.44
380.769	5.39
381.13	5.33
381.492	5.23
381.854	5.26
382.216	5.24
382.578	5.2
382.939	5.15
383.301	5.11
383.663	5.04
384.024	5.12
384.386	5.08
384.747	5.02
385.109	4.98
385.47	4.92
385.832	4.82
386.193	4.75
386.554	4.67
386.916	4.69
387.277	4.7
387.638	4.76
387.999	4.79
388.36	4.81
388.721	4.8
389.082	4.77
389.443	4.71
389.804	4.68
390.165	4.58
390.526	4.56
390.887	4.56
391.248	4.57
391.609	4.52
391.969	4.5
392.33	4.5
392.691	4.45
393.051	4.42
393.412	4.4
393.772	4.47
394.133	4.47
394.493	4.43
394.854	4.41
395.214	4.33
395.574	4.26
395.935	4.22
396.295	4.22
396.655	4.21
397.015	4.17
397.376	4.11
397.736	4.11
398.096	4.1
398.456	4.02
398.816	3.97
399.176	3.91
399.535	3.84
399.895	3.79
400.255	3.8
400.615	3.79
400.975	3.78
401.334	3.7
401.694	3.67
402.054	3.65
402.413	3.61
402.773	3.58
403.132	3.58
403.492	3.6
403.851	3.54
404.211	3.55
404.57	3.56
404.929	3.52
405.288	3.55
405.648	3.54
406.007	3.57
406.366	3.54
406.725	3.53
407.084	3.57
407.443	3.55
407.802	3.52
408.161	3.49
408.52	3.45
408.879	3.48
409.238	3.48
409.596	3.49
409.955	3.49
410.314	3.51
410.673	3.49
411.031	3.44
411.39	3.47
411.748	3.47
412.107	3.45
412.465	3.48
412.824	3.43
413.182	3.42
413.54	3.43
413.899	3.41
414.257	3.43
414.615	3.42
414.974	3.41
415.332	3.42
415.69	3.45
416.048	3.42
416.406	3.38
416.764	3.37
417.122	3.36
417.48	3.36
417.838	3.36
418.195	3.33
418.553	3.32
418.911	3.31
419.269	3.3
419.626	3.28
419.984	3.26
420.342	3.26
420.699	3.25
421.057	3.24
421.414	3.24
421.772	3.23
422.129	3.19
422.486	3.19
422.844	3.17
423.201	3.16
423.558	3.16
423.915	3.16
424.273	3.16
424.63	3.16
424.987	3.14
425.344	3.12
425.701	3.13
426.058	3.14
426.415	3.13
426.772	3.11
427.128	3.12
427.485	3.11
427.842	3.09
428.199	3.07
428.555	3.05
428.912	3.04
429.269	3.04
429.625	3.05
429.982	3.04
430.338	3.03
430.695	3.03
431.051	3.05
431.407	3.02
431.764	2.98
432.12	2.97
432.476	3
432.832	3
433.189	3.01
433.545	3
433.901	3.01
434.257	3.01
434.613	3.01
434.969	3.02
435.325	3.02
435.681	3.05
436.036	3.06
436.392	3.07
436.748	3.06
437.104	3.08
437.459	3.07
437.815	3.07
438.171	3.08
438.526	3.08
438.882	3.08
439.237	3.1
439.593	3.1
439.948	3.08
440.304	3.08
440.659	3.08
441.014	3.09
441.369	3.09
441.725	3.09
442.08	3.09
442.435	3.09
442.79	3.09
443.145	3.08
443.5	3.06
443.855	3.04
444.21	3.04
444.565	3.04
444.92	3.05
445.275	3.06
445.629	3.05
445.984	3.04
446.339	3.04
446.693	3.02
447.048	3.01
447.403	2.99
447.757	2.99
448.112	2.98
448.466	2.95
448.82	2.94
449.175	2.93
449.529	2.9
449.883	2.89
450.238	2.88
450.592	2.87
450.946	2.86
451.3	2.86
451.654	2.85
452.008	2.84
452.362	2.82
452.716	2.81
453.07	2.79
453.424	2.8
453.778	2.8
454.132	2.81
454.486	2.82
454.839	2.82
455.193	2.82
455.547	2.83
455.9	2.83
456.254	2.83
456.607	2.83
456.961	2.84
457.314	2.83
457.668	2.84
458.021	2.84
458.375	2.83
458.728	2.82
459.081	2.82
459.434	2.84
459.787	2.84
460.141	2.84
460.494	2.85
460.847	2.85
461.2	2.84
461.553	2.85
461.906	2.84
462.259	2.83
462.611	2.84
462.964	2.83
463.317	2.84
463.67	2.86
464.022	2.89
464.375	2.88
464.728	2.9
465.08	2.9
465.433	2.93
465.785	2.95
466.138	2.98
466.49	3
466.843	3.01
467.195	3.04
467.547	3.03
467.899	3.05
468.252	3.06
468.604	3.08
468.956	3.09
469.308	3.1
469.66	3.13
470.012	3.15
470.364	3.16
470.716	3.16
471.068	3.16
471.42	3.13
471.772	3.15
472.123	3.16
472.475	3.16
472.827	3.16
473.178	3.15
473.53	3.14
473.882	3.13
474.233	3.12
474.585	3.11
474.936	3.11
475.288	3.1
475.639	3.1
475.99	3.09
476.342	3.09
476.693	3.1
477.044	3.08
477.395	3.05
477.746	3.04
478.097	3.03
478.448	3.05
478.8	3.05
479.15	3.05
479.501	3.06
479.852	3.08
480.203	3.06
480.554	3.08
480.905	3.09
481.255	3.09
481.606	3.09
481.957	3.1
482.307	3.1
482.658	3.11
483.009	3.1
483.359	3.1
483.709	3.1
484.06	3.1
484.41	3.1
484.761	3.1
485.111	3.11
485.461	3.12
485.811	3.12
486.162	3.12
486.512	3.12
486.862	3.13
487.212	3.12
487.562	3.12
487.912	3.13
488.262	3.12
488.612	3.13
488.961	3.13
489.311	3.12
489.661	3.12
490.011	3.1
490.36	3.11
490.71	3.11
491.06	3.11
491.409	3.11
491.759	3.12
492.108	3.11
492.458	3.1
492.807	3.09
493.157	3.09
493.506	3.1
493.855	3.11
494.204	3.11
494.554	3.13
494.903	3.18
495.252	3.16
495.601	3.18
495.95	3.18
496.299	3.21
496.648	3.22
496.997	3.25
497.346	3.28
497.695	3.31
498.043	3.35
498.392	3.37
498.741	3.42
499.09	3.45
499.438	3.52
499.787	3.56
500.135	3.59
500.484	3.64
500.832	3.68
501.181	3.72
501.529	3.76
501.878	3.79
502.226	3.82
502.574	3.87
502.923	3.93
503.271	3.99
503.619	4.03
503.967	4.1
504.315	4.18
504.663	4.24
505.011	4.3
505.359	4.35
505.707	4.42
506.055	4.48
506.403	4.55
506.751	4.57
507.098	4.65
507.446	4.77
507.794	4.83
508.141	4.91
508.489	4.99
508.837	5.06
509.184	5.16
509.531	5.23
509.879	5.3
510.226	5.4
510.574	5.5
510.921	5.58
511.268	5.68
511.616	5.77
511.963	5.85
512.31	5.97
512.657	6.06
513.004	6.14
513.351	6.23
513.698	6.34
514.045	6.48
514.392	6.58
514.739	6.65
515.086	6.76
515.432	6.88
515.779	6.98
516.126	7.12
516.473	7.19
516.819	7.29
517.166	7.39
517.512	7.46
517.859	7.55
518.205	7.65
518.552	7.72
518.898	7.8
519.245	7.89
519.591	7.94
519.937	8.04
520.283	8.14
520.629	8.23
520.976	8.33
521.322	8.43
521.668	8.55
522.014	8.66
522.36	8.76
522.706	8.87
523.052	8.99
523.398	9.09
523.743	9.24
524.089	9.38
524.435	9.53
524.781	9.66
525.126	9.78
525.472	9.89
525.817	9.99
526.163	10.09
526.509	10.17
526.854	10.28
527.199	10.37
527.545	10.46
527.89	10.55
528.235	10.63
528.581	10.72
528.926	10.81
529.271	10.91
529.616	11.01
529.961	11.11
530.306	11.21
530.651	11.34
530.996	11.45
531.341	11.59
531.686	11.72
532.031	11.87
532.376	11.99
532.721	12.12
533.065	12.27
533.41	12.42
533.755	12.58
534.099	12.75
534.444	12.92
534.788	13.1
535.133	13.26
535.477	13.44
535.822	13.62
536.166	13.83
536.51	14.05
536.855	14.28
537.199	14.5
537.543	14.73
537.887	14.94
538.231	15.2
538.576	15.42
538.92	15.65
539.264	15.87
539.608	16.12
539.951	16.35
540.295	16.55
540.639	16.75
540.983	16.95
541.327	17.15
541.671	17.33
542.014	17.5
542.358	17.71
542.701	17.92
543.045	18.1
543.389	18.29
543.732	18.49
544.075	18.72
544.419	18.94
544.762	19.18
545.105	19.43
545.449	19.64
545.792	19.92
546.135	20.17
546.478	20.44
546.821	20.71
547.165	20.99
547.508	21.34
547.851	21.65
548.194	21.95
548.536	22.28
548.879	22.62
549.222	22.97
549.565	23.27
549.908	23.57
550.25	23.93
550.593	24.27
550.936	24.64
551.278	24.94
551.621	25.29
551.963	25.6
552.306	25.93
552.648	26.25
552.991	26.57
553.333	26.92
553.675	27.26
554.017	27.6
554.36	27.92
554.702	28.16
555.044	28.45
555.386	28.75
555.728	29
556.07	29.26
556.412	29.54
556.754	29.84
557.096	30.2
557.438	30.45
557.78	30.77
558.121	31.09
558.463	31.41
558.805	31.74
559.147	32.13
559.488	32.44
559.83	32.71
560.171	32.99
560.513	33.27
560.854	33.57
561.196	33.88
561.537	34.23
561.878	34.63
562.22	34.94
562.561	35.24
562.902	35.58
563.243	35.92
563.584	36.27
563.925	36.63
564.266	36.8
564.607	37.12
564.948	37.33
565.289	37.56
565.63	37.8
565.971	38.09
566.312	38.3
566.653	38.56
566.993	38.83
567.334	39.06
567.675	39.29
568.015	39.49
568.356	39.66
568.696	39.85
569.037	40.07
569.377	40.29
569.718	40.47
570.058	40.65
570.398	40.87
570.739	41.06
571.079	41.24
571.419	41.54
571.759	41.74
572.099	41.99
572.439	42.2
572.779	42.38
573.119	42.52
573.459	42.7
573.799	42.89
574.139	43.02
574.479	43.21
574.819	43.38
575.158	43.54
575.498	43.72
575.838	43.93
576.177	44.07
576.517	44.29
576.856	44.55
577.196	44.72
577.535	44.85
577.875	44.95
578.214	45.14
578.553	45.32
578.893	45.56
579.232	45.76
579.571	45.91
579.91	46.13
580.25	46.26
580.589	46.39
580.928	46.46
581.267	46.67
581.606	46.78
581.945	46.88
582.283	47.07
582.622	47.27
582.961	47.36
583.3	47.44
583.639	47.56
583.977	47.64
584.316	47.83
584.654	48.01
584.993	48.14
585.332	48.26
585.67	48.38
586.008	48.48
586.347	48.51
586.685	48.62
587.024	48.71
587.362	48.88
587.7	49.07
588.038	49.26
588.376	49.41
588.715	49.55
589.053	49.7
589.391	49.81
589.729	49.83
590.067	50.02
590.404	50.15
590.742	50.23
591.08	50.33
591.418	50.45
591.756	50.54
592.093	50.79
592.431	50.81
592.769	50.83
593.106	50.86
593.444	50.98
593.781	51.11
594.119	51.2
594.456	51.29
594.793	51.23
595.131	51.36
595.468	51.4
595.805	51.44
596.143	51.54
596.48	51.63
596.817	51.77
597.154	51.76
597.491	51.85
597.828	51.97
598.165	51.99
598.502	52.07
598.839	52.1
599.176	52.1
599.512	52.17
599.849	52.34
600.186	52.42
600.523	52.52
600.859	52.52
601.196	52.53
601.532	52.6
601.869	52.78
602.205	52.83
602.542	52.9
602.878	53.1
603.215	53.15
603.551	53.16
603.887	53.16
604.223	53.24
604.56	53.23
604.896	53.28
605.232	53.41
605.568	53.43
605.904	53.52
606.24	53.66
606.576	53.77
606.912	53.77
607.248	53.92
607.583	53.97
607.919	54.09
608.255	54.15
608.591	54.24
608.926	54.26
609.262	54.27
609.597	54.31
609.933	54.32
610.268	54.33
610.604	54.36
610.939	54.48
611.275	54.48
611.61	54.66
611.945	54.69
612.281	54.82
612.616	54.82
612.951	54.79
613.286	54.73
613.621	54.8
613.956	54.83
614.291	54.83
614.626	54.79
614.961	54.86
615.296	54.98
615.631	54.98
615.966	55.07
616.3	55.08
616.635	55.16
616.97	55.17
617.304	55.29
617.639	55.39
617.973	55.45
618.308	55.54
618.642	55.53
618.977	55.5
619.311	55.48
619.646	55.61
619.98	55.74
620.314	55.74
620.648	55.79
620.983	55.85
621.317	55.87
621.651	55.99
621.985	56.08
622.319	56.07
622.653	56.06
622.987	56.05
623.321	56.03
623.655	56.05
623.988	55.97
624.322	55.92
624.656	56.07
624.99	56
625.323	56.02
625.657	55.97
625.99	56.09
626.324	56.08
626.657	56.05
626.991	56.19
627.324	56.23
627.658	56.25
627.991	56.25
628.324	56.22
628.657	56.25
628.991	56.29
629.324	56.3
629.657	56.28
629.99	56.34
630.323	56.46
630.656	56.44
630.989	56.5
631.322	56.53
631.655	56.44
631.987	56.43
632.32	56.52
632.653	56.57
632.986	56.53
633.318	56.59
633.651	56.62
633.984	56.57
634.316	56.63
634.649	56.63
634.981	56.62
635.313	56.68
635.646	56.67
635.978	56.6
636.31	56.67
636.643	56.74
636.975	56.7
637.307	56.7
637.639	56.8
637.971	56.9
638.303	56.97
638.635	57
638.967	57.1
639.299	57.07
639.631	57.1
639.963	57.23
640.295	57.14
640.626	57.22
640.958	57.21
641.29	57.29
641.621	57.25
641.953	57.32
642.285	57.36
642.616	57.35
642.948	57.4
643.279	57.48
643.61	57.6
643.942	57.56
644.273	57.7
644.604	57.63
644.936	57.67
645.267	57.72
645.598	57.74
645.929	57.7
646.26	57.65
646.591	57.72
646.922	57.65
647.253	57.76
647.584	57.8
647.915	57.8
648.245	57.85
648.576	57.88
648.907	57.86
649.238	57.87
649.568	57.89
649.899	57.89
650.229	57.92
650.56	57.88
650.89	57.95
651.221	57.86
651.551	57.92
651.882	57.88
652.212	57.94
652.542	57.89
652.872	57.95
653.203	58.06
653.533	58.09
653.863	58.25
654.193	58.2
654.523	58.1
654.853	58.07
655.183	58
655.513	57.9
655.843	58.01
656.172	58.13
656.502	58.12
656.832	58.03
657.162	57.99
657.491	58.02
657.821	58.14
658.15	58.1
658.48	58.14
658.809	58.17
659.139	58.17
659.468	58.3
659.798	58.26
660.127	58.25
660.456	58.24
660.785	58.12
661.115	58.15
661.444	58.21
661.773	58.26
662.102	58.1
662.431	58.29
662.76	58.23
663.089	58.13
663.418	58.23
663.747	58.27
664.076	58.2
664.404	58.2
664.733	58.14
665.062	58.29
665.39	58.25
665.719	58.27
666.048	58.2
666.376	58.18
666.705	58.25
667.033	58.23
667.362	58.25
667.69	58.25
668.018	58.26
668.347	58.15
668.675	58.07
669.003	58.32
669.331	58.33
669.659	58.35
669.987	58.37
670.315	58.32
670.643	58.34
670.971	58.48
671.299	58.48
671.627	58.39
671.955	58.39
672.283	58.45
672.61	58.55
672.938	58.67
673.266	58.64
673.593	58.63
673.921	58.6
674.249	58.7
674.576	58.69
674.904	58.82
675.231	59.03
675.558	59.2
675.886	59.24
676.213	59.2
676.54	59.2
676.867	59.1
677.195	59.18
677.522	59.18
677.849	59.2
678.176	59.16
678.503	59.29
678.83	59.07
679.157	58.92
679.484	58.94
679.81	58.84
680.137	58.87
680.464	59.06
680.791	59.17
681.117	58.95
681.444	58.91
681.771	58.79
682.097	58.75
682.424	58.75
682.75	58.63
683.077	58.81
683.403	58.91
683.729	59.01
684.056	58.9
684.382	58.89
684.708	58.77
685.034	58.91
685.36	59.04
685.686	59.25
686.012	59.37
686.339	59.42
686.664	59.49
686.99	59.5
687.316	59.32
687.642	59.22
687.968	59.3
688.294	59.48
688.619	59.62
688.945	59.66
689.271	59.52
689.596	59.6
689.922	59.48
690.247	59.34
690.573	59.48
690.898	59.56
691.224	59.71
691.549	59.73
691.874	59.75
692.2	59.62
692.525	59.61
692.85	59.85
693.175	59.73
693.5	59.76
693.825	59.7
694.15	59.77
694.475	59.92
694.8	60
695.125	60
695.45	59.94
695.775	60.01
696.099	60.23
696.424	60.28
696.749	60.26
697.073	60.44
697.398	60.4
697.723	60.36
698.047	60.33
698.372	60.5
698.696	60.43
699.02	60.45
699.345	60.49
699.669	60.19
699.993	60.27
700.318	60.41
700.642	60.53
700.966	60.51
701.29	60.47
701.614	60.51
701.938	60.5
702.262	60.58
702.586	60.57
702.91	60.48
703.234	60.43
703.557	60.41
703.881	60.26
704.205	60.25
704.529	60.36
704.852	60.12
705.176	59.96
705.499	59.96
705.823	60.01
706.146	60.03
706.47	60.36
706.793	60.25
707.117	60.16
707.44	59.95
707.763	60.04
708.086	60
708.409	59.74
708.733	59.63
709.056	59.64
709.379	59.72
709.702	59.73
710.025	59.8
710.348	59.78
710.671	59.72
710.993	59.68
711.316	59.8
711.639	60
711.962	60.11
712.284	60.17
712.607	60.12
712.93	60.09
713.252	60.15
713.575	60.09
713.897	59.95
714.22	60.08
714.542	60.11
714.864	60.24
715.187	60.44
715.509	60.55
715.831	60.28
716.153	60.19
716.475	60.23
716.798	60.28
717.12	60.43
717.442	60.65
717.764	60.82
718.085	60.78
718.407	60.82
718.729	60.81
719.051	60.73
719.373	60.76
719.695	60.74
720.016	60.46
720.338	60.58
720.659	60.65
720.981	60.81
721.302	60.84
721.624	60.64
721.945	60.64
722.267	60.65
722.588	60.87
722.909	60.82
723.231	60.57
723.552	60.23
723.873	60
724.194	59.94
724.515	59.83
724.836	59.77
725.157	59.76
725.478	59.88
725.799	59.96
726.12	59.84
726.441	60.02
726.762	60.11
727.083	59.93
727.403	60
727.724	59.95
728.045	59.82
728.365	60.05
728.686	60.08
729.006	60.08
729.327	60.35
729.647	60.53
729.967	60.67
730.288	61.03
730.608	61.15
730.928	61.2
731.249	61.11
731.569	60.98
731.889	61.13
732.209	60.92
732.529	60.44
732.849	60.5
733.169	60.44
733.489	60.52
733.809	60.68
734.129	60.66
734.448	60.67
734.768	60.57
735.088	60.45
735.408	60.64
735.727	60.63
736.047	60.4
736.366	60.31
736.686	60.22
737.005	59.81
737.325	59.87
737.644	59.64
737.963	59.57
738.283	59.66
738.602	59.63
738.921	59.67
739.24	60.18
739.56	60.43
739.879	60.37
740.198	60.49
740.517	60.64
740.836	60.62
741.155	60.65
741.473	60.95
741.792	60.98
742.111	60.93
742.43	61.12
742.748	61.01
743.067	61.08
743.386	61.28
743.704	61.87
744.023	61.78
744.341	61.95
744.66	62.48
744.978	62.58
745.297	62.52
745.615	62.67
745.933	62.97
746.252	62.73
746.57	62.73
746.888	62.55
747.206	62.69
747.524	62.83
747.842	62.89
748.16	62.85
748.478	62.74
748.796	62.52
749.114	62.07
749.432	62.11
749.749	61.96
750.067	61.77
750.385	61.72
750.703	61.61
751.02	61.8
751.338	61.51
751.655	61.4
751.973	61.51
752.29	61.23
752.608	60.97
752.925	61.26
753.242	61.28
753.56	61.43
753.877	61.4
754.194	61.3
754.511	61.02
754.828	61.32
755.145	61.5
755.462	61.94
755.779	61.83
756.096	62.17
756.413	62.21
756.73	62.03
757.047	61.8
757.364	62.43
757.68	62.3
757.997	62.2
758.314	62.16
758.63	62.09
758.947	62.27
759.264	62.53
759.58	62.57
759.896	62.6
760.213	62.55
760.529	62.33
760.846	62.55
761.162	62.39
761.478	61.69
761.794	61.64
762.11	61.59
762.426	61.81
762.743	61.64
763.059	61.97
763.375	62.06
763.69	61.81
764.006	61.82
764.322	61.92
764.638	61.96
764.954	62.04
765.27	62.01
765.585	62.13
765.901	61.89
766.216	61.67
766.532	61.72
766.848	61.9
767.163	61.75
767.478	61.42
767.794	61.86
768.109	62.51
768.424	62.54
768.74	62.51
769.055	62.75
769.37	62.89
769.685	62.64
770	62.97
770.315	63.49
770.63	63.24
770.945	63.76
771.26	64
771.575	64.12
771.89	63.92
772.205	63.94
772.52	63.95
772.834	63.64
773.149	63.8
773.464	63.02
773.778	62.9
774.093	63.28
774.407	63.32
774.722	62.7
775.036	62.64
775.351	62.78
775.665	63.3
775.979	62.83
776.293	62.54
776.608	62.16
776.922	62.05
777.236	61.88
777.55	61.6
777.864	61.35
778.178	61.35
778.492	61.44
778.806	61.32
779.12	61.76
779.434	62.22
779.747	61.8
780.061	62.69
780.375	63.14
780.689	62.97
781.002	62.55
781.316	62.86
781.629	62.78
781.943	62.58
782.256	61.65
782.57	61.9
782.883	61.79
783.196	62.17
783.51	62.31
783.823	62.08
784.136	61.42
784.449	61.6
784.762	61.52
785.075	62.41
785.388	62.1
785.701	62.03
786.014	62.2
786.327	62.71
786.64	62.45
786.953	62.34
787.266	63.09
787.578	63.28
787.891	63.52
788.204	63.62
788.516	63.39
788.829	63.12
789.141	63.53
789.454	64.08
789.766	64.46
790.079	63.91
790.391	64.22
790.703	64.84
791.016	64.39
791.328	64.1
791.64	63.7
791.952	64.57
792.264	64.41
792.576	64.45
792.888	63.97
793.2	63.88
793.512	64.31
793.824	63.29
794.136	62.97
794.448	62.72
794.76	62.76
795.071	62.42
795.383	62.94
795.695	63.32
796.006	63.5
796.318	63.24
796.629	63.55
796.941	63.06
797.252	62.53
797.564	62.87
797.875	63.36
798.186	62.85
798.497	62.35
798.809	62.86
799.12	62.5
799.431	63.73
799.742	64.26
800.053	64.29
800.364	64.07
800.675	64.32
800.986	63.54
801.297	63.84
801.608	64.08
801.918	64.3
802.229	64.11
802.54	63.6
802.851	63.51
803.161	64.05
803.472	64.18
803.782	64.8
804.093	64.8
804.403	64.35
804.714	64.76
805.024	64.72
805.334	63.61
805.645	63.98
805.955	62.64
806.265	61.93
806.575	61.76
806.885	62.44
807.195	62.22
807.505	63.1
807.815	62.87
808.125	62.92
808.435	63.45
808.745	62.92
809.055	63.08
809.365	63.65
809.674	63.61
809.984	64.54
810.294	63.46
810.603	62.91
810.913	63.48
811.222	63.5
811.532	64
811.841	64.44
812.151	64.46
812.46	63.77
812.769	64.25
813.079	64.26
813.388	64.4
813.697	65.35
814.006	65.51
814.315	64.7
814.624	65.16
814.933	64.47
815.242	64.63
815.551	64.23
815.86	63.44
816.169	62.09
816.478	60.8
816.786	61.23
817.095	62.69
817.404	62.34
817.712	61.82
818.021	60.88
818.33	60.85
818.638	60.74
818.947	61.18
819.255	60.59
819.563	60.97
819.872	60.17
820.18	60.25
820.488	59.55
820.796	59.95
821.105	59.77
821.413	59.73
821.721	60.01
822.029	60.45
822.337	60.8
822.645	61.13
822.953	61.4
823.26	61.21
823.568	61.11
823.876	60.98
824.184	61.16
824.491	61.45
824.799	61.29
825.107	61.23
825.414	61.16
825.722	61.17
826.029	60.8
826.337	61.14
826.644	61.13
826.951	61.6
827.259	61.6
827.566	61.74
827.873	61.91
828.18	61.9
828.488	61.58
828.795	61.47
829.102	61.42
829.409	61.33
829.716	61.84
830.023	62
830.329	62.21
830.636	61.91
830.943	61.07
831.25	61.58
831.557	61.66
831.863	62.2
832.17	62.1
832.476	62.96
832.783	63.47
833.089	63.16
833.396	63.29
833.702	63.37
834.009	63.54
834.315	63.48
834.621	63.1
834.928	63.28
835.234	62.8
835.54	62.59
835.846	62.97
836.152	62.55
836.458	62.23
836.764	62.9
837.07	63.27
837.376	64.32
837.682	63.94
837.988	64.04
838.293	63.92
838.599	64.46
838.905	63.72
839.211	62.7
839.516	62.77
839.822	62.99
840.127	63.42
840.433	64.09
840.738	64.42
841.044	65.66
841.349	66.02
841.654	65.42
841.959	66.43
842.265	65.73
842.57	66.36
842.875	66.37
843.18	65.27
843.485	65.82
843.79	65.24
844.095	66.86
844.4	67.86
844.705	68.03
845.01	69.26
845.315	70.12
845.619	72.02
845.924	71.87
846.229	72.46
846.533	73.39
846.838	74.02
847.142	73.47
847.447	73.11
847.751	74.14
848.056	74.96
848.36	75.73
848.664	76.31
848.969	77.54
849.273	77.29
849.577	77.99
849.881	79.25
850.185	81.01
850.489	80.41
850.794	82.22
851.097	82.59
851.401	83.52
851.705	84.63
852.009	82.38
852.313	82.04
852.617	78.16
852.92	76.58
853.224	79.55
853.528	81.13
853.831	79.36
854.135	79.31
854.438	79.6
854.742	77.14
855.045	77.71
855.349	76.26
855.652	77.44
855.955	78.63
856.259	77.79
856.562	78.1
856.865	76.39
857.168	72.22
857.471	73.85
857.774	73.73
858.077	71.56
858.38	72.01
858.683	73.95
858.986	75.47
859.289	74.85
859.592	69.3
859.894	68.37
860.197	69.59
860.5	69.06
860.802	70.84
861.105	71.45
861.407	72.86
861.71	74.57
862.012	74.05
862.315	76.18
862.617	75.22
862.919	74.59
863.222	77.34
863.524	77.63
863.826	74.69
864.128	70.95
864.43	75.73
864.732	76.92
865.034	78.06
865.336	82.48
865.638	82.88
865.94	84.17
866.242	85.35
866.544	87.46
866.846	87.69
867.147	86.5
867.449	88.94
867.751	86.56
868.052	85.22
868.354	87.49
868.655	86.67
868.957	88.64
869.258	90.59
869.56	89.81
869.861	89.27
870.162	87.1
870.463	93.21
870.765	89.86
871.066	89.9
871.367	89.4
871.668	86.21
871.969	86.68
872.27	88.98
872.571	87.25
872.872	86.78
873.173	89.49
873.473	91.75
873.774	90.18
874.075	86.28
874.376	89.18
874.676	86.25
874.977	84.72
875.277	82.91
875.578	79.16
875.878	79.24
876.179	81.71
876.479	86.96
876.78	84.33
877.08	84.76
877.38	83.76
877.68	83.8
877.981	85.4
878.281	86.99
878.581	83.76
