Data from MVZ_BU78245_Reflection_00007.txt Node
Date: Tue Nov 19 12:01:11 EST 2019
User: vgr7
Spectrometer: USB2G7710
Scans to average: 3
Trigger mode: 4
Integration Time (sec): 2.000000E-2
Electric dark correction enabled: true
Boxcar width: 10
XAxis mode: Wavelengths
Number of Pixels in Spectrum: 2048
>>>>>Begin Spectral Data<<<<<
177.721	664.39
178.105	303.7
178.488	-10.77
178.871	2066.67
179.254	85.42
179.636	159.19
180.019	95.61
180.402	-75
180.785	2.6
181.168	-20.22
181.55	-269.05
181.933	-186.46
182.316	187.96
182.698	-187.04
183.081	-47.57
183.463	-50.43
183.846	-36.7
184.228	-10.91
184.611	10.74
184.993	4.58
185.376	-21.74
185.758	-37.46
186.14	-73.48
186.522	-104.46
186.904	-146.53
187.287	-54.92
187.669	-18.69
188.051	-29.84
188.433	-59.68
188.815	-71.33
189.197	-76.45
189.579	-65.59
189.961	-76.32
190.342	-101.16
190.724	-117.47
191.106	-99.54
191.488	-116.09
191.869	-71.3
192.251	-60.26
192.633	-44.76
193.014	-32.7
193.396	-31.26
193.777	-28.53
194.159	-29.16
194.54	-31.26
194.922	-20.27
195.303	-24.9
195.684	-45.13
196.065	-35.69
196.447	-33.89
196.828	-34.37
197.209	-10.17
197.59	-11.31
197.971	-0.7
198.352	10.65
198.733	7
199.114	-0.89
199.495	3.55
199.876	-5.27
200.257	-1.92
200.638	-16.51
201.018	-21.23
201.399	-9.51
201.78	-9.23
202.16	-19.08
202.541	-21.88
202.922	-26.87
203.302	-40.29
203.683	-26.89
204.063	-46.71
204.444	-58.6
204.824	-66.91
205.204	-70.61
205.585	-58.57
205.965	-93.85
206.345	-102.61
206.725	-69.87
207.106	-52.63
207.486	-56.67
207.866	-48.35
208.246	-40.84
208.626	-53.21
209.006	-44.43
209.386	-44.43
209.766	-51.26
210.145	-33.38
210.525	-24.87
210.905	-10.42
211.285	-4.85
211.664	-7.91
212.044	-1.19
212.424	-0.48
212.803	4.35
213.183	-12.37
213.562	-9.79
213.942	7.38
214.321	-9.34
214.701	-42.66
215.08	-51.76
215.459	-58.66
215.838	-99.92
216.218	-130.57
216.597	-82.22
216.976	-120.28
217.355	-136.11
217.734	-129.81
218.113	-96.59
218.492	-153.74
218.871	-170.56
219.25	-133.97
219.629	-144.05
220.008	-110.55
220.387	-53.7
220.766	-35.96
221.144	-20.95
221.523	-18.32
221.902	-11.56
222.28	10.04
222.659	29.5
223.037	16.12
223.416	27.95
223.794	38.16
224.173	33.01
224.551	34.68
224.929	21.16
225.308	28.13
225.686	20.74
226.064	10.13
226.442	13.69
226.821	11.35
227.199	8.53
227.577	7.75
227.955	10.05
228.333	6.95
228.711	6.66
229.089	7.74
229.467	4.59
229.845	1.92
230.222	3.29
230.6	0.52
230.978	3.12
231.356	3.19
231.733	2.1
232.111	2.32
232.488	-2.05
232.866	2.99
233.243	1.21
233.621	2.1
233.998	5.74
234.376	5.11
234.753	4.25
235.13	5.2
235.508	6.7
235.885	6.43
236.262	6.44
236.639	6.39
237.016	5.39
237.393	4.97
237.77	6.25
238.147	4.56
238.524	5.69
238.901	4.73
239.278	3.64
239.655	3.31
240.032	3.93
240.409	4.83
240.785	4.32
241.162	4.8
241.539	4.32
241.915	3.34
242.292	3.54
242.668	4.07
243.045	4.15
243.421	4.02
243.798	3.5
244.174	3.79
244.551	3.79
244.927	4.02
245.303	4.04
245.679	3.74
246.056	3.93
246.432	3.75
246.808	4.15
247.184	4.06
247.56	3.73
247.936	3.64
248.312	3.68
248.688	3.89
249.064	3.87
249.44	3.98
249.815	4.28
250.191	4.26
250.567	3.98
250.943	4.02
251.318	3.88
251.694	3.79
252.069	3.63
252.445	3.62
252.82	3.53
253.196	3.55
253.571	3.95
253.947	3.76
254.322	3.93
254.697	3.94
255.073	4.23
255.448	4.33
255.823	4.51
256.198	4.72
256.573	4.5
256.948	4.29
257.323	4.24
257.698	4.15
258.073	4.15
258.448	4.28
258.823	4.05
259.198	4.07
259.573	4.02
259.948	3.92
260.322	3.95
260.697	3.83
261.072	3.77
261.446	3.53
261.821	3.38
262.195	3.33
262.57	3.18
262.944	3.28
263.319	3.4
263.693	3.2
264.067	3.16
264.442	3.13
264.816	3.07
265.19	2.95
265.564	2.73
265.938	2.56
266.313	2.47
266.687	2.46
267.061	2.32
267.435	2.48
267.809	2.59
268.183	2.35
268.556	2.53
268.93	2.77
269.304	2.9
269.678	3.11
270.051	3.21
270.425	3.26
270.799	2.91
271.172	2.89
271.546	2.93
271.919	2.83
272.293	3.02
272.666	3.2
273.04	3.24
273.413	3.35
273.787	3.49
274.16	3.4
274.533	3.56
274.906	3.59
275.279	3.6
275.653	3.72
276.026	3.81
276.399	3.56
276.772	3.53
277.145	3.37
277.518	3.17
277.891	3.05
278.263	3.26
278.636	3.54
279.009	3.76
279.382	3.69
279.755	3.46
280.127	3.24
280.5	3.12
280.872	3.1
281.245	3.14
281.617	3.06
281.99	3.26
282.362	3.34
282.735	3.42
283.107	3.53
283.479	3.43
283.852	3.42
284.224	3.61
284.596	3.48
284.968	3.52
285.34	3.57
285.713	3.53
286.085	3.38
286.457	3.38
286.829	3.21
287.201	3.31
287.572	3.45
287.944	3.44
288.316	3.51
288.688	3.64
289.06	3.58
289.431	3.73
289.803	3.77
290.175	3.7
290.546	3.52
290.918	3.45
291.289	3.37
291.661	3.49
292.032	3.46
292.403	3.69
292.775	3.8
293.146	3.77
293.517	3.75
293.889	3.71
294.26	3.69
294.631	3.7
295.002	3.64
295.373	3.64
295.744	3.69
296.115	3.58
296.486	3.67
296.857	3.62
297.228	3.58
297.599	3.46
297.97	3.49
298.34	3.62
298.711	3.69
299.082	3.77
299.452	3.71
299.823	3.69
300.194	3.61
300.564	3.53
300.935	3.63
301.305	3.75
301.676	3.7
302.046	3.74
302.416	3.83
302.787	3.91
303.157	3.99
303.527	4.2
303.897	4.36
304.267	4.25
304.637	4.43
305.008	4.5
305.378	4.66
305.748	4.67
306.117	4.75
306.487	4.66
306.857	4.83
307.227	4.86
307.597	4.94
307.967	4.91
308.336	5.07
308.706	5.18
309.076	5.22
309.445	5.52
309.815	5.53
310.184	5.52
310.554	5.38
310.923	5.4
311.293	5.33
311.662	5.31
312.031	5.38
312.401	5.42
312.77	5.38
313.139	5.38
313.508	5.42
313.877	5.41
314.246	5.48
314.616	5.39
314.985	5.42
315.353	5.47
315.722	5.64
316.091	5.67
316.46	5.48
316.829	5.46
317.198	5.34
317.567	5.45
317.935	5.51
318.304	5.86
318.672	5.89
319.041	5.95
319.41	6.1
319.778	6.06
320.147	6.12
320.515	6.08
320.883	6.02
321.252	6.05
321.62	6.08
321.988	6.15
322.357	6.21
322.725	6.27
323.093	6.37
323.461	6.42
323.829	6.34
324.197	6.54
324.565	6.69
324.933	6.64
325.301	6.54
325.669	6.67
326.037	6.6
326.405	6.55
326.772	6.45
327.14	6.16
327.508	6.2
327.875	6.07
328.243	6.21
328.61	6.22
328.978	6.27
329.346	6.31
329.713	6.37
330.08	6.55
330.448	6.64
330.815	6.56
331.182	6.3
331.55	6.36
331.917	6.24
332.284	6.23
332.651	6.32
333.018	6.32
333.385	6.41
333.752	6.51
334.119	6.74
334.486	6.76
334.853	7.1
335.22	7.03
335.587	7.03
335.954	6.94
336.32	6.94
336.687	6.89
337.054	6.87
337.42	6.85
337.787	6.61
338.153	6.46
338.52	6.61
338.886	6.67
339.253	6.58
339.619	6.67
339.986	6.49
340.352	6.42
340.718	6.59
341.084	6.61
341.451	6.54
341.817	6.46
342.183	6.41
342.549	6.31
342.915	6.4
343.281	6.48
343.647	6.5
344.013	6.53
344.379	6.54
344.745	6.64
345.11	6.67
345.476	6.75
345.842	6.84
346.208	6.91
346.573	7.05
346.939	7.17
347.304	7.13
347.67	7.11
348.035	7.23
348.401	7.12
348.766	7.05
349.132	7.04
349.497	7.08
349.862	7.24
350.228	7.39
350.593	7.51
350.958	7.57
351.323	7.58
351.688	7.62
352.053	7.7
352.418	7.68
352.783	7.67
353.148	7.65
353.513	7.59
353.878	7.43
354.243	7.33
354.608	7.31
354.972	7.39
355.337	7.44
355.702	7.34
356.066	7.32
356.431	7.3
356.795	7.31
357.16	7.27
357.524	7.18
357.889	7.04
358.253	6.93
358.618	6.89
358.982	6.92
359.346	6.91
359.71	6.91
360.075	6.91
360.439	6.96
360.803	6.96
361.167	6.93
361.531	6.95
361.895	6.94
362.259	6.98
362.623	7.01
362.987	7.03
363.351	6.99
363.714	7.03
364.078	6.97
364.442	6.94
364.806	6.98
365.169	6.91
365.533	6.93
365.896	6.92
366.26	6.91
366.623	6.85
366.987	6.87
367.35	6.81
367.714	6.71
368.077	6.63
368.44	6.56
368.803	6.5
369.167	6.48
369.53	6.42
369.893	6.3
370.256	6.23
370.619	6.13
370.982	6.08
371.345	6.08
371.708	6.07
372.071	6.03
372.434	5.91
372.797	5.94
373.159	5.85
373.522	5.79
373.885	5.7
374.247	5.66
374.61	5.54
374.973	5.53
375.335	5.52
375.698	5.43
376.06	5.47
376.423	5.51
376.785	5.49
377.147	5.46
377.51	5.4
377.872	5.3
378.234	5.4
378.596	5.39
378.958	5.29
379.321	5.23
379.683	5.25
380.045	5.24
380.407	5.2
380.769	5.2
381.13	5.12
381.492	5.12
381.854	5.13
382.216	5.15
382.578	5.09
382.939	5
383.301	4.95
383.663	4.89
384.024	4.82
384.386	4.77
384.747	4.77
385.109	4.76
385.47	4.82
385.832	4.69
386.193	4.62
386.554	4.57
386.916	4.59
387.277	4.5
387.638	4.49
387.999	4.49
388.36	4.49
388.721	4.55
389.082	4.54
389.443	4.47
389.804	4.44
390.165	4.45
390.526	4.47
390.887	4.43
391.248	4.39
391.609	4.42
391.969	4.39
392.33	4.38
392.691	4.38
393.051	4.32
393.412	4.31
393.772	4.35
394.133	4.37
394.493	4.32
394.854	4.35
395.214	4.3
395.574	4.22
395.935	4.22
396.295	4.17
396.655	4.13
397.015	4.13
397.376	4.11
397.736	4.06
398.096	4.04
398.456	4.05
398.816	4.04
399.176	3.97
399.535	3.91
399.895	3.89
400.255	3.82
400.615	3.81
400.975	3.76
401.334	3.74
401.694	3.71
402.054	3.68
402.413	3.64
402.773	3.64
403.132	3.69
403.492	3.67
403.851	3.6
404.211	3.63
404.57	3.6
404.929	3.58
405.288	3.59
405.648	3.57
406.007	3.55
406.366	3.54
406.725	3.56
407.084	3.6
407.443	3.58
407.802	3.59
408.161	3.59
408.52	3.64
408.879	3.61
409.238	3.59
409.596	3.6
409.955	3.57
410.314	3.57
410.673	3.52
411.031	3.49
411.39	3.51
411.748	3.5
412.107	3.46
412.465	3.43
412.824	3.41
413.182	3.44
413.54	3.44
413.899	3.45
414.257	3.42
414.615	3.39
414.974	3.37
415.332	3.38
415.69	3.36
416.048	3.34
416.406	3.34
416.764	3.33
417.122	3.33
417.48	3.34
417.838	3.32
418.195	3.33
418.553	3.32
418.911	3.29
419.269	3.28
419.626	3.27
419.984	3.28
420.342	3.27
420.699	3.25
421.057	3.25
421.414	3.25
421.772	3.24
422.129	3.24
422.486	3.25
422.844	3.24
423.201	3.25
423.558	3.25
423.915	3.26
424.273	3.26
424.63	3.25
424.987	3.24
425.344	3.24
425.701	3.23
426.058	3.22
426.415	3.25
426.772	3.25
427.128	3.26
427.485	3.26
427.842	3.25
428.199	3.25
428.555	3.23
428.912	3.21
429.269	3.22
429.625	3.21
429.982	3.21
430.338	3.2
430.695	3.18
431.051	3.18
431.407	3.16
431.764	3.16
432.12	3.16
432.476	3.15
432.832	3.15
433.189	3.15
433.545	3.15
433.901	3.11
434.257	3.09
434.613	3.1
434.969	3.11
435.325	3.1
435.681	3.12
436.036	3.11
436.392	3.12
436.748	3.12
437.104	3.11
437.459	3.09
437.815	3.09
438.171	3.1
438.526	3.07
438.882	3.07
439.237	3.04
439.593	3.07
439.948	3.08
440.304	3.09
440.659	3.09
441.014	3.1
441.369	3.13
441.725	3.12
442.08	3.11
442.435	3.1
442.79	3.1
443.145	3.08
443.5	3.06
443.855	3.05
444.21	3.05
444.565	3.07
444.92	3.09
445.275	3.1
445.629	3.08
445.984	3.07
446.339	3.08
446.693	3.09
447.048	3.05
447.403	3.04
447.757	3.01
448.112	2.99
448.466	2.97
448.82	2.95
449.175	2.96
449.529	2.95
449.883	2.96
450.238	2.96
450.592	2.95
450.946	2.96
451.3	2.96
451.654	2.94
452.008	2.91
452.362	2.89
452.716	2.9
453.07	2.92
453.424	2.91
453.778	2.9
454.132	2.88
454.486	2.89
454.839	2.89
455.193	2.92
455.547	2.94
455.9	2.94
456.254	2.93
456.607	2.93
456.961	2.95
457.314	2.93
457.668	2.93
458.021	2.94
458.375	2.93
458.728	2.94
459.081	2.95
459.434	2.93
459.787	2.93
460.141	2.92
460.494	2.94
460.847	2.96
461.2	2.96
461.553	3
461.906	3.01
462.259	3
462.611	2.99
462.964	3
463.317	3.01
463.67	3.05
464.022	3.05
464.375	3.04
464.728	3.06
465.08	3.08
465.433	3.08
465.785	3.12
466.138	3.14
466.49	3.15
466.843	3.19
467.195	3.21
467.547	3.18
467.899	3.17
468.252	3.16
468.604	3.14
468.956	3.12
469.308	3.12
469.66	3.15
470.012	3.16
470.364	3.16
470.716	3.14
471.068	3.14
471.42	3.13
471.772	3.15
472.123	3.16
472.475	3.17
472.827	3.2
473.178	3.2
473.53	3.2
473.882	3.21
474.233	3.19
474.585	3.18
474.936	3.2
475.288	3.19
475.639	3.22
475.99	3.22
476.342	3.25
476.693	3.24
477.044	3.23
477.395	3.23
477.746	3.21
478.097	3.22
478.448	3.2
478.8	3.19
479.15	3.18
479.501	3.16
479.852	3.13
480.203	3.13
480.554	3.11
480.905	3.09
481.255	3.1
481.606	3.1
481.957	3.11
482.307	3.1
482.658	3.11
483.009	3.1
483.359	3.11
483.709	3.11
484.06	3.12
484.41	3.12
484.761	3.12
485.111	3.13
485.461	3.13
485.811	3.13
486.162	3.13
486.512	3.13
486.862	3.12
487.212	3.13
487.562	3.12
487.912	3.12
488.262	3.13
488.612	3.13
488.961	3.13
489.311	3.13
489.661	3.13
490.011	3.13
490.36	3.13
490.71	3.13
491.06	3.13
491.409	3.12
491.759	3.13
492.108	3.14
492.458	3.13
492.807	3.14
493.157	3.15
493.506	3.18
493.855	3.19
494.204	3.2
494.554	3.22
494.903	3.26
495.252	3.28
495.601	3.28
495.95	3.31
496.299	3.32
496.648	3.33
496.997	3.37
497.346	3.4
497.695	3.43
498.043	3.44
498.392	3.47
498.741	3.5
499.09	3.5
499.438	3.53
499.787	3.55
500.135	3.59
500.484	3.64
500.832	3.64
501.181	3.68
501.529	3.75
501.878	3.77
502.226	3.79
502.574	3.83
502.923	3.87
503.271	3.91
503.619	3.94
503.967	3.98
504.315	4.04
504.663	4.08
505.011	4.13
505.359	4.18
505.707	4.22
506.055	4.26
506.403	4.31
506.751	4.35
507.098	4.42
507.446	4.49
507.794	4.53
508.141	4.59
508.489	4.65
508.837	4.68
509.184	4.75
509.531	4.82
509.879	4.88
510.226	4.96
510.574	5.01
510.921	5.08
511.268	5.15
511.616	5.22
511.963	5.31
512.31	5.36
512.657	5.43
513.004	5.49
513.351	5.54
513.698	5.67
514.045	5.76
514.392	5.84
514.739	5.91
515.086	6
515.432	6.13
515.779	6.22
516.126	6.31
516.473	6.39
516.819	6.48
517.166	6.55
517.512	6.61
517.859	6.7
518.205	6.79
518.552	6.86
518.898	6.91
519.245	6.96
519.591	7.06
519.937	7.15
520.283	7.25
520.629	7.35
520.976	7.4
521.322	7.5
521.668	7.6
522.014	7.7
522.36	7.8
522.706	7.88
523.052	7.98
523.398	8.1
523.743	8.21
524.089	8.34
524.435	8.45
524.781	8.58
525.126	8.67
525.472	8.78
525.817	8.86
526.163	8.97
526.509	9.07
526.854	9.15
527.199	9.23
527.545	9.32
527.89	9.39
528.235	9.46
528.581	9.53
528.926	9.61
529.271	9.69
529.616	9.78
529.961	9.86
530.306	9.93
530.651	10.01
530.996	10.11
531.341	10.21
531.686	10.32
532.031	10.42
532.376	10.54
532.721	10.65
533.065	10.79
533.41	10.9
533.755	11.03
534.099	11.13
534.444	11.27
534.788	11.39
535.133	11.53
535.477	11.68
535.822	11.83
536.166	11.99
536.51	12.14
536.855	12.3
537.199	12.48
537.543	12.69
537.887	12.91
538.231	13.12
538.576	13.3
538.92	13.5
539.264	13.73
539.608	13.9
539.951	14.06
540.295	14.21
540.639	14.39
540.983	14.54
541.327	14.72
541.671	14.88
542.014	15.06
542.358	15.24
542.701	15.4
543.045	15.59
543.389	15.77
543.732	15.95
544.075	16.15
544.419	16.32
544.762	16.53
545.105	16.73
545.449	16.93
545.792	17.17
546.135	17.42
546.478	17.62
546.821	17.88
547.165	18.14
547.508	18.4
547.851	18.66
548.194	18.92
548.536	19.19
548.879	19.45
549.222	19.68
549.565	19.93
549.908	20.17
550.25	20.39
550.593	20.66
550.936	20.93
551.278	21.17
551.621	21.47
551.963	21.76
552.306	22
552.648	22.26
552.991	22.5
553.333	22.7
553.675	22.93
554.017	23.14
554.36	23.39
554.702	23.6
555.044	23.82
555.386	24.08
555.728	24.33
556.07	24.58
556.412	24.88
556.754	25.08
557.096	25.37
557.438	25.62
557.78	25.84
558.121	26.1
558.463	26.36
558.805	26.56
559.147	26.75
559.488	26.99
559.83	27.24
560.171	27.45
560.513	27.7
560.854	27.94
561.196	28.23
561.537	28.48
561.878	28.73
562.22	28.93
562.561	29.16
562.902	29.39
563.243	29.6
563.584	29.79
563.925	30.07
564.266	30.27
564.607	30.43
564.948	30.66
565.289	30.89
565.63	31.1
565.971	31.3
566.312	31.4
566.653	31.56
566.993	31.7
567.334	31.9
567.675	32.11
568.015	32.21
568.356	32.37
568.696	32.56
569.037	32.72
569.377	32.9
569.718	33.01
570.058	33.12
570.398	33.28
570.739	33.42
571.079	33.51
571.419	33.68
571.759	33.88
572.099	34
572.439	34.1
572.779	34.23
573.119	34.4
573.459	34.59
573.799	34.78
574.139	34.94
574.479	35.05
574.819	35.2
575.158	35.39
575.498	35.43
575.838	35.51
576.177	35.64
576.517	35.8
576.856	35.99
577.196	36.2
577.535	36.3
577.875	36.4
578.214	36.58
578.553	36.66
578.893	36.78
579.232	36.89
579.571	36.99
579.91	37.09
580.25	37.16
580.589	37.28
580.928	37.36
581.267	37.48
581.606	37.55
581.945	37.61
582.283	37.75
582.622	37.9
582.961	38
583.3	38.04
583.639	38.13
583.977	38.16
584.316	38.13
584.654	38.27
584.993	38.37
585.332	38.43
585.67	38.58
586.008	38.63
586.347	38.71
586.685	38.83
587.024	38.92
587.362	39.03
587.7	39.11
588.038	39.16
588.376	39.27
588.715	39.38
589.053	39.4
589.391	39.38
589.729	39.44
590.067	39.47
590.404	39.61
590.742	39.65
591.08	39.74
591.418	39.82
591.756	39.87
592.093	39.9
592.431	39.94
592.769	39.97
593.106	40.05
593.444	40.07
593.781	40.12
594.119	40.21
594.456	40.22
594.793	40.25
595.131	40.24
595.468	40.26
595.805	40.33
596.143	40.39
596.48	40.51
596.817	40.62
597.154	40.73
597.491	40.68
597.828	40.67
598.165	40.73
598.502	40.83
598.839	40.84
599.176	40.88
599.512	40.99
599.849	41.03
600.186	41.08
600.523	41.17
600.859	41.3
601.196	41.35
601.532	41.44
601.869	41.49
602.205	41.6
602.542	41.68
602.878	41.72
603.215	41.75
603.551	41.78
603.887	41.78
604.223	41.78
604.56	41.92
604.896	42.02
605.232	42.08
605.568	42.01
605.904	42.09
606.24	42.21
606.576	42.21
606.912	42.25
607.248	42.29
607.583	42.29
607.919	42.28
608.255	42.25
608.591	42.28
608.926	42.33
609.262	42.39
609.597	42.39
609.933	42.43
610.268	42.52
610.604	42.55
610.939	42.67
611.275	42.7
611.61	42.72
611.945	42.66
612.281	42.69
612.616	42.75
612.951	42.77
613.286	42.77
613.621	42.82
613.956	42.88
614.291	42.94
614.626	43.09
614.961	43.09
615.296	43.12
615.631	43.08
615.966	43.11
616.3	43.11
616.635	43.13
616.97	43.15
617.304	43.14
617.639	43.19
617.973	43.18
618.308	43.24
618.642	43.17
618.977	43.25
619.311	43.24
619.646	43.37
619.98	43.41
620.314	43.45
620.648	43.48
620.983	43.41
621.317	43.42
621.651	43.39
621.985	43.33
622.319	43.38
622.653	43.52
622.987	43.64
623.321	43.66
623.655	43.7
623.988	43.81
624.322	43.85
624.656	43.91
624.99	43.86
625.323	43.86
625.657	43.95
625.99	44.04
626.324	43.98
626.657	43.94
626.991	43.99
627.324	43.92
627.658	43.98
627.991	44.1
628.324	44.1
628.657	44.06
628.991	44.1
629.324	44.16
629.657	44.09
629.99	44.01
630.323	44.01
630.656	43.96
630.989	43.91
631.322	43.85
631.655	43.81
631.987	43.85
632.32	43.9
632.653	43.93
632.986	43.9
633.318	43.91
633.651	43.94
633.984	43.98
634.316	44.04
634.649	43.97
634.981	43.94
635.313	43.96
635.646	44.02
635.978	44.09
636.31	44.06
636.643	44.12
636.975	44.15
637.307	44.19
637.639	44.23
637.971	44.2
638.303	44.26
638.635	44.25
638.967	44.18
639.299	44.13
639.631	44.08
639.963	44.11
640.295	44.19
640.626	44.17
640.958	44.15
641.29	44.19
641.621	44.25
641.953	44.25
642.285	44.2
642.616	44.18
642.948	44.13
643.279	44.06
643.61	44.05
643.942	44.1
644.273	44.16
644.604	44.18
644.936	44.25
645.267	44.2
645.598	44.13
645.929	44.21
646.26	44.26
646.591	44.29
646.922	44.35
647.253	44.34
647.584	44.42
647.915	44.31
648.245	44.29
648.576	44.27
648.907	44.31
649.238	44.32
649.568	44.4
649.899	44.45
650.229	44.67
650.56	44.6
650.89	44.59
651.221	44.56
651.551	44.57
651.882	44.42
652.212	44.55
652.542	44.67
652.872	44.7
653.203	44.75
653.533	44.79
653.863	44.7
654.193	44.76
654.523	44.76
654.853	44.96
655.183	45.08
655.513	45.18
655.843	45.11
656.172	45.17
656.502	45.08
656.832	45.07
657.162	44.97
657.491	45.06
657.821	45.06
658.15	45.03
658.48	45.13
658.809	45.26
659.139	45.33
659.468	45.4
659.798	45.44
660.127	45.34
660.456	45.33
660.785	45.36
661.115	45.33
661.444	45.25
661.773	45.24
662.102	45.25
662.431	45.22
662.76	45.24
663.089	45.18
663.418	45.29
663.747	45.44
664.076	45.45
664.404	45.49
664.733	45.52
665.062	45.53
665.39	45.42
665.719	45.45
666.048	45.29
666.376	45.2
666.705	45.1
667.033	45.21
667.362	45.23
667.69	45.3
668.018	45.34
668.347	45.36
668.675	45.17
669.003	45.03
669.331	45.13
669.659	45.22
669.987	45.27
670.315	45.26
670.643	45.21
670.971	45.14
671.299	45
671.627	45.14
671.955	45.27
672.283	45.28
672.61	45.19
672.938	45.25
673.266	45.32
673.593	45.3
673.921	45.22
674.249	45.06
674.576	45.17
674.904	45.19
675.231	45.28
675.558	45.38
675.886	45.3
676.213	45.26
676.54	45.28
676.867	45.33
677.195	45.38
677.522	45.3
677.849	45.43
678.176	45.43
678.503	45.34
678.83	45.17
679.157	45.19
679.484	45.18
679.81	45.2
680.137	45.17
680.464	45.28
680.791	45.27
681.117	45.44
681.444	45.35
681.771	45.39
682.097	45.48
682.424	45.45
682.75	45.59
683.077	45.44
683.403	45.54
683.729	45.69
684.056	45.61
684.382	45.68
684.708	45.67
685.034	45.77
685.36	45.7
685.686	45.78
686.012	45.82
686.339	45.92
686.664	45.79
686.99	45.84
687.316	45.86
687.642	45.99
687.968	46.03
688.294	46.02
688.619	45.99
688.945	45.88
689.271	45.9
689.596	45.98
689.922	45.97
690.247	45.76
690.573	45.63
690.898	45.64
691.224	45.59
691.549	45.67
691.874	45.78
692.2	45.92
692.525	46
692.85	46.01
693.175	46.07
693.5	46.15
693.825	46.21
694.15	46.1
694.475	46.07
694.8	46
695.125	46.04
695.45	45.97
695.775	45.96
696.099	46.14
696.424	46.11
696.749	46.26
697.073	46.36
697.398	46.4
697.723	46.44
698.047	46.54
698.372	46.39
698.696	46.37
699.02	46.27
699.345	46.32
699.669	46.31
699.993	46.26
700.318	46.32
700.642	46.27
700.966	46.28
701.29	46.28
701.614	46.23
701.938	46.06
702.262	46
702.586	46.01
702.91	45.89
703.234	45.84
703.557	45.71
703.881	45.78
704.205	45.72
704.529	45.65
704.852	45.47
705.176	45.66
705.499	45.4
705.823	45.58
706.146	45.4
706.47	45.33
706.793	45.35
707.117	45.43
707.44	45.41
707.763	45.37
708.086	45.42
708.409	45.48
708.733	45.56
709.056	45.85
709.379	45.97
709.702	46.13
710.025	46.25
710.348	46.35
710.671	46.35
710.993	46.45
711.316	46.52
711.639	46.55
711.962	46.54
712.284	46.61
712.607	46.51
712.93	46.52
713.252	46.54
713.575	46.49
713.897	46.4
714.22	46.47
714.542	46.62
714.864	46.59
715.187	46.58
715.509	46.54
715.831	46.39
716.153	46.26
716.475	46.16
716.798	45.88
717.12	45.81
717.442	45.81
717.764	45.64
718.085	45.71
718.407	45.63
718.729	45.51
719.051	45.6
719.373	45.63
719.695	45.67
720.016	45.63
720.338	45.56
720.659	45.6
720.981	45.39
721.302	45.27
721.624	45.41
721.945	45.52
722.267	45.7
722.588	45.65
722.909	45.62
723.231	45.61
723.552	45.76
723.873	45.79
724.194	45.86
724.515	45.74
724.836	45.66
725.157	45.69
725.478	45.76
725.799	45.92
726.12	46.04
726.441	46.15
726.762	46.33
727.083	46.52
727.403	46.59
727.724	46.7
728.045	46.69
728.365	46.58
728.686	46.64
729.006	46.77
729.327	46.74
729.647	46.81
729.967	46.74
730.288	46.79
730.608	46.93
730.928	46.77
731.249	47.06
731.569	47.05
731.889	47.27
732.209	47.27
732.529	47.27
732.849	47.35
733.169	47.23
733.489	47.16
733.809	47.1
734.129	46.91
734.448	46.74
734.768	46.82
735.088	46.85
735.408	46.69
735.727	46.51
736.047	46.33
736.366	46.38
736.686	46.26
737.005	46.42
737.325	46.29
737.644	46.22
737.963	46.17
738.283	46.36
738.602	46.17
738.921	46.1
739.24	45.91
739.56	45.64
739.879	45.68
740.198	45.58
740.517	45.69
740.836	45.72
741.155	45.77
741.473	45.53
741.792	45.76
742.111	46.11
742.43	46.22
742.748	46.44
743.067	46.53
743.386	46.59
743.704	46.49
744.023	46.69
744.341	47.02
744.66	46.92
744.978	46.67
745.297	46.71
745.615	46.78
745.933	47.08
746.252	47.39
746.57	47.24
746.888	47.34
747.206	47.1
747.524	47.19
747.842	47.36
748.16	47.61
748.478	47.25
748.796	46.92
749.114	47.22
749.432	47.67
749.749	47.24
750.067	47.51
750.385	47.3
750.703	46.73
751.02	46.32
751.338	45.95
751.655	45.84
751.973	46.17
752.29	46.16
752.608	45.89
752.925	45.83
753.242	46.05
753.56	45.75
753.877	46.17
754.194	46.31
754.511	46.26
754.828	46.17
755.145	46.2
755.462	46.27
755.779	45.73
756.096	45.39
756.413	45.98
756.73	45.88
757.047	45.98
757.364	46.6
757.68	46.68
757.997	47.31
758.314	47.7
758.63	47.33
758.947	47.58
759.264	47.83
759.58	47.26
759.896	46.9
760.213	47.37
760.529	47.3
760.846	47.01
761.162	47.13
761.478	47.39
761.794	47.68
762.11	47.68
762.426	47.8
762.743	47.92
763.059	47.92
763.375	47.68
763.69	47.69
764.006	47.59
764.322	47.62
764.638	47.62
764.954	47.36
765.27	47.62
765.585	47.28
765.901	47.24
766.216	47.43
766.532	47.72
766.848	47.45
767.163	47.43
767.478	47.63
767.794	47.48
768.109	47.47
768.424	46.98
768.74	47.03
769.055	47.09
769.37	46.9
769.685	46.22
770	46.13
770.315	45.89
770.63	46.27
770.945	46.24
771.26	45.93
771.575	45.87
771.89	45.36
772.205	45.32
772.52	45.05
772.834	45.11
773.149	44.89
773.464	45.14
773.778	45.08
774.093	45.16
774.407	45.41
774.722	44.99
775.036	45.34
775.351	45.45
775.665	45.29
775.979	45.47
776.293	45.99
776.608	46.44
776.922	46.81
777.236	46.53
777.55	46.34
777.864	46.5
778.178	46.39
778.492	46.83
778.806	47.6
779.12	47.53
779.434	47.2
779.747	47.57
780.061	47.3
780.375	47.5
780.689	47.42
781.002	47.53
781.316	47.74
781.629	47.23
781.943	47.42
782.256	47.24
782.57	47.26
782.883	47.5
783.196	47.55
783.51	47.95
783.823	47.61
784.136	47.82
784.449	48.05
784.762	48.84
785.075	48.57
785.388	48.16
785.701	48.51
786.014	49.14
786.327	48.77
786.64	48.81
786.953	48.23
787.266	48.22
787.578	48.3
787.891	48.13
788.204	48.55
788.516	48.25
788.829	47.84
789.141	47.87
789.454	47.89
789.766	47.79
790.079	46.95
790.391	46.83
790.703	46.95
791.016	46.67
791.328	46.26
791.64	46.47
791.952	46.74
792.264	47.03
792.576	47.08
792.888	47.11
793.2	47.66
793.512	47.63
793.824	48.01
794.136	47.92
794.448	48.38
794.76	48.36
795.071	47.78
795.383	48.92
795.695	48.66
796.006	47.98
796.318	48.07
796.629	47.99
796.941	48.47
797.252	48.13
797.564	48.21
797.875	47.94
798.186	47.89
798.497	47.35
798.809	46.67
799.12	46.04
799.431	45.68
799.742	45.21
800.053	45.22
800.364	45.09
800.675	45.15
800.986	44.96
801.297	44.89
801.608	45.79
801.918	45.36
802.229	45.48
802.54	45.66
802.851	46.48
803.161	47.19
803.472	47.05
803.782	47.07
804.093	47.15
804.403	46.95
804.714	46.98
805.024	47.2
805.334	47.29
805.645	47.63
805.955	48.11
806.265	48.56
806.575	48.73
806.885	48.82
807.195	48.39
807.505	48.86
807.815	48.82
808.125	48.14
808.435	48.14
808.745	48.46
809.055	48.5
809.365	47.66
809.674	46.8
809.984	45.96
810.294	45.94
810.603	45.44
810.913	45.22
811.222	45.3
811.532	45.34
811.841	45.75
812.151	46.25
812.46	46.06
812.769	45.89
813.079	45.66
813.388	45.75
813.697	45.66
814.006	44.98
814.315	44.93
814.624	44.94
814.933	45.73
815.242	45.4
815.551	45.77
815.86	46.17
816.169	46.47
816.478	47.63
816.786	47.85
817.095	47.96
817.404	48.78
817.712	48.08
818.021	48.41
818.33	48.27
818.638	48.01
818.947	48.34
819.255	47.91
819.563	48.44
819.872	48.18
820.18	48.51
820.488	48.5
820.796	48.73
821.105	48.71
821.413	48.65
821.721	48.57
822.029	48.67
822.337	48.65
822.645	48.94
822.953	48.95
823.26	48.84
823.568	48.83
823.876	48.69
824.184	48.61
824.491	48.57
824.799	48.49
825.107	48.5
825.414	48.35
825.722	48.52
826.029	48.42
826.337	48.5
826.644	48.43
826.951	48.41
827.259	48.52
827.566	48.71
827.873	48.66
828.18	48.75
828.488	48.52
828.795	48.43
829.102	48.09
829.409	47.81
829.716	48.37
830.023	48.18
830.329	48.14
830.636	48.6
830.943	48.76
831.25	48.55
831.557	48.53
831.863	49.05
832.17	48.75
832.476	48.82
832.783	48.68
833.089	48.55
833.396	48.32
833.702	47.87
834.009	48
834.315	47.74
834.621	48.01
834.928	48.52
835.234	48.79
835.54	48.54
835.846	49
836.152	48.66
836.458	48.61
836.764	49.5
837.07	49.85
837.376	49.54
837.682	49.87
837.988	49.85
838.293	49.5
838.599	50.06
838.905	49.99
839.211	49.83
839.516	50.03
839.822	50.84
840.127	51.37
840.433	50.84
840.738	50.9
841.044	50.29
841.349	50.03
841.654	49.07
841.959	50.35
842.265	49.12
842.57	48.53
842.875	50.07
843.18	49.64
843.485	49.46
843.79	48.79
844.095	47.54
844.4	47.92
844.705	49.2
845.01	48.92
845.315	48.44
845.619	48.47
845.924	47.91
846.229	46.8
846.533	46.37
846.838	47.03
847.142	47.94
847.447	47.37
847.751	45.22
848.056	45.54
848.36	43.2
848.664	43.94
848.969	43.12
849.273	40.87
849.577	39.53
849.881	38.54
850.185	38.35
850.489	41.34
850.794	41.61
851.097	41.41
851.401	41.92
851.705	43.23
852.009	44.59
852.313	44.23
852.617	45.19
852.92	44.68
853.224	43.04
853.528	42.2
853.831	42.59
854.135	45.38
854.438	45.63
854.742	48.73
855.045	46.92
855.349	48.57
855.652	50.45
855.955	50.68
856.259	51.53
856.562	54.17
856.865	50.46
857.168	50.41
857.471	47.97
857.774	47.24
858.077	47.05
858.38	45.19
858.683	46.69
858.986	45.43
859.289	43.85
859.592	44.19
859.894	44.37
860.197	44.23
860.5	43.57
860.802	43.47
861.105	43.61
861.407	46.04
861.71	45.98
862.012	46.85
862.315	46.72
862.617	44.69
862.919	42.05
863.222	44.86
863.524	43.18
863.826	43.68
864.128	43.09
864.43	43.84
864.732	42.81
865.034	40.87
865.336	41.34
865.638	41.97
865.94	43.95
866.242	44.43
866.544	44.72
866.846	46.22
867.147	47.2
867.449	46.15
867.751	46.59
868.052	44.65
868.354	42.99
868.655	44.84
868.957	46.08
869.258	47.33
869.56	47.09
869.861	48.86
870.162	49.16
870.463	48.21
870.765	47.25
871.066	48.9
871.367	50.44
871.668	51.19
871.969	50.3
872.27	49.83
872.571	49.5
872.872	53.02
873.173	51.25
873.473	50.1
873.774	49.07
874.075	48.35
874.376	50.28
874.676	52.14
874.977	49.48
875.277	47.59
875.578	46.86
875.878	47.13
876.179	46.35
876.479	46.72
876.78	48.26
877.08	47.62
877.38	48.22
877.68	48.55
877.981	49.81
878.281	53.24
878.581	51.87
