Data from MVZ_BU28167_Reflection_00009.txt Node
Date: Tue Nov 19 12:17:35 EST 2019
User: vgr7
Spectrometer: USB2G7710
Scans to average: 3
Trigger mode: 4
Integration Time (sec): 2.000000E-2
Electric dark correction enabled: true
Boxcar width: 10
XAxis mode: Wavelengths
Number of Pixels in Spectrum: 2048
>>>>>Begin Spectral Data<<<<<
177.721	205.86
178.105	-1122.22
178.488	160.02
178.871	163.54
179.254	427.78
179.636	234.2
180.019	98.86
180.402	-30
180.785	-48.33
181.168	118.94
181.55	58.84
181.933	88.58
182.316	97.59
182.698	78.56
183.081	81.95
183.463	90.07
183.846	83.04
184.228	114.11
184.611	126.11
184.993	132.99
185.376	132
185.758	104.2
186.14	87.16
186.522	96.39
186.904	106.88
187.287	90.91
187.669	113.39
188.051	115.84
188.433	110.72
188.815	126.33
189.197	115.52
189.579	142.18
189.961	163.82
190.342	184.99
190.724	418.54
191.106	614.64
191.488	580.05
191.869	1984.92
192.251	-2199.02
192.633	4485.42
193.014	17391.67
193.396	1243.23
193.777	17891.67
194.159	8120.83
194.54	-993.43
194.922	-1247.7
195.303	-1236.11
195.684	-4597.92
196.065	-3406.94
196.447	-2870.24
196.828	-2441.67
197.209	-735.32
197.59	-617.8
197.971	-1571.3
198.352	417.25
198.733	172.13
199.114	197.99
199.495	238.07
199.876	260.04
200.257	228.27
200.638	549.65
201.018	421.04
201.399	3040.48
201.78	4113.89
202.16	-802.38
202.541	-1382.64
202.922	4947.22
203.302	-346.14
203.683	-286.51
204.063	-232.67
204.444	-154.6
204.824	-200.56
205.204	-202.81
205.585	-246.2
205.965	-220.02
206.345	-191.43
206.725	-217.29
207.106	-176.34
207.486	-143.33
207.866	-128.3
208.246	-87.6
208.626	-157.85
209.006	-132.34
209.386	-280.05
209.766	-368.52
210.145	-188.81
210.525	-147.44
210.905	-115.14
211.285	-151.07
211.664	-129.76
212.044	-55.35
212.424	-67.87
212.803	-61.46
213.183	-78.21
213.562	-116.67
213.942	-144.21
214.321	-162.15
214.701	-117.66
215.08	-248.87
215.459	-232.16
215.838	-401.57
216.218	-678.51
216.597	-182.21
216.976	-208.06
217.355	-160.74
217.734	-169.47
218.113	-171.95
218.492	-210.74
218.871	-203.65
219.25	-165.02
219.629	-167.82
220.008	-235.13
220.387	-245.4
220.766	-239.36
221.144	-173.13
221.523	-171.35
221.902	-151.51
222.28	-131.09
222.659	-98.38
223.037	-82.62
223.416	-77.18
223.794	-58.66
224.173	-54.87
224.551	-43.69
224.929	-59.6
225.308	-45.94
225.686	-34.98
226.064	-33.8
226.442	-22.92
226.821	-19.46
227.199	-23.37
227.577	-20.05
227.955	-11.73
228.333	-7.26
228.711	-2.14
229.089	-1.3
229.467	-0.4
229.845	-2.56
230.222	-5.29
230.6	-6.86
230.978	-5.17
231.356	-5.27
231.733	-2.86
232.111	-2.29
232.488	-5
232.866	2.16
233.243	0.07
233.621	-0.78
233.998	-0.59
234.376	-0.44
234.753	-2.25
235.13	-0.82
235.508	-0.75
235.885	-1.58
236.262	-1.06
236.639	-2.88
237.016	-1.98
237.393	-1.06
237.77	-0.19
238.147	0.93
238.524	1.88
238.901	1.63
239.278	0.97
239.655	0.1
240.032	0.34
240.409	0.76
240.785	-0.28
241.162	-0.51
241.539	0.11
241.915	0.05
242.292	0.32
242.668	1.21
243.045	1.21
243.421	1.56
243.798	1.47
244.174	1.36
244.551	1.65
244.927	1.82
245.303	1.68
245.679	1.88
246.056	2.01
246.432	2.1
246.808	2.12
247.184	2.15
247.56	2.05
247.936	1.8
248.312	1.91
248.688	2.07
249.064	2.25
249.44	2.19
249.815	2.49
250.191	2.65
250.567	2.45
250.943	2.5
251.318	2.34
251.694	2.3
252.069	2.46
252.445	2.44
252.82	2.55
253.196	2.49
253.571	2.28
253.947	2.1
254.322	1.71
254.697	1.84
255.073	2.02
255.448	2.36
255.823	2.59
256.198	2.41
256.573	2.45
256.948	2.66
257.323	2.75
257.698	2.89
258.073	2.76
258.448	2.91
258.823	2.92
259.198	3.09
259.573	3.04
259.948	3.15
260.322	3.12
260.697	3.14
261.072	3.17
261.446	3.24
261.821	3.05
262.195	3.18
262.57	3.27
262.944	3.18
263.319	3.21
263.693	3.15
264.067	3.29
264.442	3.32
264.816	3.31
265.19	3.23
265.564	3.2
265.938	3.26
266.313	3.18
266.687	3.09
267.061	2.86
267.435	3.01
267.809	2.68
268.183	2.81
268.556	2.8
268.93	2.89
269.304	2.7
269.678	2.75
270.051	2.69
270.425	2.45
270.799	2.36
271.172	2.26
271.546	2.43
271.919	2.18
272.293	2.14
272.666	2.15
273.04	2.14
273.413	1.87
273.787	1.89
274.16	1.9
274.533	1.88
274.906	2.13
275.279	1.88
275.653	2.19
276.026	2.09
276.399	2.06
276.772	2.07
277.145	2.17
277.518	2.18
277.891	2.3
278.263	2.52
278.636	2.79
279.009	2.81
279.382	2.83
279.755	3.01
280.127	3.06
280.5	3
280.872	3.09
281.245	3.27
281.617	3.14
281.99	3.15
282.362	3.25
282.735	2.99
283.107	3.02
283.479	2.81
283.852	2.9
284.224	2.89
284.596	2.87
284.968	2.85
285.34	2.93
285.713	2.97
286.085	2.86
286.457	2.86
286.829	2.88
287.201	2.91
287.572	2.84
287.944	2.96
288.316	2.96
288.688	3.07
289.06	3.08
289.431	3.25
289.803	3.21
290.175	3.22
290.546	3.34
290.918	3.5
291.289	3.45
291.661	3.5
292.032	3.48
292.403	3.55
292.775	3.75
293.146	3.81
293.517	3.76
293.889	3.85
294.26	3.86
294.631	4
295.002	3.98
295.373	4.25
295.744	4.19
296.115	4.42
296.486	4.29
296.857	4.4
297.228	4.37
297.599	4.42
297.97	4.48
298.34	4.72
298.711	4.84
299.082	5.04
299.452	5.04
299.823	5.13
300.194	5.25
300.564	5.16
300.935	5.28
301.305	5.31
301.676	5.37
302.046	5.5
302.416	5.38
302.787	5.47
303.157	5.55
303.527	5.56
303.897	5.45
304.267	5.48
304.637	5.52
305.008	5.51
305.378	5.69
305.748	5.68
306.117	5.6
306.487	5.67
306.857	5.65
307.227	5.59
307.597	5.64
307.967	5.51
308.336	5.59
308.706	5.6
309.076	6
309.445	6.13
309.815	6.11
310.184	6.15
310.554	6.14
310.923	5.83
311.293	5.94
311.662	5.96
312.031	6.12
312.401	6.1
312.77	6.14
313.139	6.09
313.508	6.13
313.877	6.06
314.246	6.06
314.616	6.1
314.985	6.3
315.353	6.41
315.722	6.62
316.091	6.79
316.46	6.85
316.829	6.62
317.198	6.72
317.567	6.91
317.935	7.06
318.304	7.21
318.672	7.65
319.041	7.75
319.41	7.84
319.778	7.95
320.147	7.97
320.515	8.17
320.883	8.21
321.252	8.35
321.62	8.58
321.988	8.71
322.357	8.93
322.725	8.81
323.093	8.87
323.461	8.75
323.829	8.67
324.197	8.75
324.565	8.76
324.933	8.75
325.301	8.45
325.669	8.53
326.037	8.66
326.405	8.64
326.772	8.77
327.14	8.82
327.508	8.73
327.875	8.79
328.243	8.64
328.61	8.64
328.978	8.6
329.346	8.61
329.713	8.72
330.08	8.7
330.448	8.72
330.815	8.84
331.182	8.98
331.55	9.01
331.917	8.98
332.284	9.03
332.651	8.98
333.018	9.09
333.385	9.18
333.752	9.16
334.119	9.17
334.486	9.11
334.853	9.15
335.22	9.17
335.587	9.26
335.954	9.42
336.32	9.66
336.687	9.86
337.054	9.89
337.42	9.74
337.787	9.76
338.153	9.91
338.52	9.85
338.886	9.97
339.253	10.15
339.619	10.17
339.986	10.27
340.352	10.27
340.718	10.57
341.084	10.68
341.451	10.6
341.817	10.6
342.183	10.6
342.549	10.66
342.915	10.67
343.281	10.68
343.647	10.61
344.013	10.5
344.379	10.51
344.745	10.53
345.11	10.71
345.476	10.73
345.842	10.71
346.208	10.75
346.573	10.67
346.939	10.66
347.304	10.8
347.67	10.78
348.035	10.79
348.401	10.65
348.766	10.49
349.132	10.57
349.497	10.61
349.862	10.66
350.228	10.73
350.593	10.82
350.958	10.88
351.323	10.93
351.688	10.99
352.053	10.94
352.418	10.95
352.783	10.9
353.148	10.92
353.513	11.07
353.878	10.99
354.243	11.03
354.608	11.15
354.972	11.11
355.337	11.22
355.702	11.24
356.066	11.31
356.431	11.45
356.795	11.53
357.16	11.47
357.524	11.49
357.889	11.37
358.253	11.4
358.618	11.39
358.982	11.46
359.346	11.44
359.71	11.42
360.075	11.45
360.439	11.54
360.803	11.54
361.167	11.41
361.531	11.43
361.895	11.37
362.259	11.34
362.623	11.24
362.987	11.16
363.351	11.1
363.714	11.08
364.078	10.99
364.442	10.88
364.806	10.91
365.169	10.82
365.533	10.84
365.896	10.83
366.26	10.67
366.623	10.6
366.987	10.51
367.35	10.48
367.714	10.39
368.077	10.26
368.44	10.17
368.803	10.17
369.167	10.12
369.53	10.07
369.893	9.98
370.256	10.01
370.619	9.98
370.982	9.98
371.345	9.9
371.708	9.85
372.071	9.8
372.434	9.68
372.797	9.63
373.159	9.54
373.522	9.48
373.885	9.53
374.247	9.43
374.61	9.45
374.973	9.45
375.335	9.34
375.698	9.23
376.06	9.21
376.423	9.19
376.785	9.13
377.147	9.09
377.51	9.01
377.872	8.91
378.234	8.79
378.596	8.79
378.958	8.75
379.321	8.64
379.683	8.6
380.045	8.57
380.407	8.53
380.769	8.48
381.13	8.37
381.492	8.28
381.854	8.28
382.216	8.19
382.578	8.1
382.939	8.07
383.301	8.03
383.663	7.92
384.024	7.79
384.386	7.75
384.747	7.69
385.109	7.66
385.47	7.67
385.832	7.66
386.193	7.56
386.554	7.51
386.916	7.48
387.277	7.41
387.638	7.38
387.999	7.35
388.36	7.33
388.721	7.31
389.082	7.33
389.443	7.23
389.804	7.21
390.165	7.18
390.526	7.16
390.887	7.12
391.248	7.11
391.609	7.12
391.969	7.01
392.33	6.97
392.691	6.88
393.051	6.8
393.412	6.77
393.772	6.75
394.133	6.67
394.493	6.65
394.854	6.61
395.214	6.56
395.574	6.5
395.935	6.44
396.295	6.38
396.655	6.28
397.015	6.27
397.376	6.2
397.736	6.06
398.096	5.98
398.456	5.9
398.816	5.86
399.176	5.78
399.535	5.78
399.895	5.72
400.255	5.69
400.615	5.65
400.975	5.62
401.334	5.57
401.694	5.56
402.054	5.5
402.413	5.48
402.773	5.43
403.132	5.4
403.492	5.37
403.851	5.34
404.211	5.3
404.57	5.27
404.929	5.25
405.288	5.29
405.648	5.26
406.007	5.23
406.366	5.2
406.725	5.19
407.084	5.14
407.443	5.13
407.802	5.11
408.161	5.1
408.52	5.06
408.879	5.04
409.238	5.05
409.596	5.03
409.955	4.98
410.314	4.99
410.673	4.97
411.031	4.95
411.39	4.92
411.748	4.93
412.107	4.94
412.465	4.9
412.824	4.89
413.182	4.91
413.54	4.91
413.899	4.88
414.257	4.86
414.615	4.86
414.974	4.87
415.332	4.87
415.69	4.82
416.048	4.8
416.406	4.78
416.764	4.75
417.122	4.73
417.48	4.72
417.838	4.7
418.195	4.66
418.553	4.65
418.911	4.64
419.269	4.61
419.626	4.57
419.984	4.56
420.342	4.53
420.699	4.5
421.057	4.48
421.414	4.48
421.772	4.48
422.129	4.44
422.486	4.43
422.844	4.4
423.201	4.38
423.558	4.37
423.915	4.36
424.273	4.33
424.63	4.32
424.987	4.3
425.344	4.29
425.701	4.28
426.058	4.26
426.415	4.23
426.772	4.2
427.128	4.2
427.485	4.19
427.842	4.15
428.199	4.1
428.555	4.07
428.912	4.04
429.269	4
429.625	4
429.982	3.98
430.338	3.96
430.695	3.96
431.051	3.92
431.407	3.9
431.764	3.9
432.12	3.9
432.476	3.93
432.832	3.91
433.189	3.9
433.545	3.91
433.901	3.94
434.257	3.93
434.613	3.93
434.969	3.91
435.325	3.95
435.681	3.97
436.036	3.98
436.392	3.99
436.748	4.02
437.104	4.02
437.459	4.02
437.815	4.03
438.171	4.04
438.526	4.06
438.882	4.09
439.237	4.06
439.593	4.05
439.948	4.04
440.304	4.05
440.659	4.07
441.014	4.06
441.369	4.03
441.725	4.04
442.08	4.03
442.435	4.04
442.79	4.04
443.145	4.05
443.5	4.04
443.855	4.05
444.21	4.02
444.565	4.02
444.92	4.02
445.275	4.04
445.629	4.03
445.984	4.02
446.339	4
446.693	4
447.048	3.99
447.403	3.96
447.757	3.93
448.112	3.91
448.466	3.9
448.82	3.91
449.175	3.9
449.529	3.91
449.883	3.9
450.238	3.89
450.592	3.88
450.946	3.86
451.3	3.85
451.654	3.86
452.008	3.84
452.362	3.81
452.716	3.79
453.07	3.79
453.424	3.77
453.778	3.76
454.132	3.77
454.486	3.75
454.839	3.79
455.193	3.79
455.547	3.82
455.9	3.81
456.254	3.82
456.607	3.82
456.961	3.83
457.314	3.82
457.668	3.81
458.021	3.79
458.375	3.8
458.728	3.8
459.081	3.79
459.434	3.8
459.787	3.82
460.141	3.81
460.494	3.81
460.847	3.81
461.2	3.83
461.553	3.83
461.906	3.86
462.259	3.86
462.611	3.89
462.964	3.9
463.317	3.9
463.67	3.92
464.022	3.93
464.375	3.92
464.728	3.92
465.08	3.96
465.433	4
465.785	4.02
466.138	4.05
466.49	4.08
466.843	4.1
467.195	4.12
467.547	4.14
467.899	4.17
468.252	4.19
468.604	4.21
468.956	4.22
469.308	4.23
469.66	4.26
470.012	4.27
470.364	4.29
470.716	4.32
471.068	4.33
471.42	4.34
471.772	4.37
472.123	4.41
472.475	4.42
472.827	4.43
473.178	4.46
473.53	4.45
473.882	4.46
474.233	4.44
474.585	4.47
474.936	4.48
475.288	4.47
475.639	4.5
475.99	4.49
476.342	4.51
476.693	4.53
477.044	4.52
477.395	4.5
477.746	4.47
478.097	4.46
478.448	4.44
478.8	4.43
479.15	4.4
479.501	4.4
479.852	4.38
480.203	4.37
480.554	4.34
480.905	4.33
481.255	4.3
481.606	4.32
481.957	4.31
482.307	4.3
482.658	4.29
483.009	4.27
483.359	4.27
483.709	4.25
484.06	4.24
484.41	4.22
484.761	4.23
485.111	4.24
485.461	4.23
485.811	4.22
486.162	4.22
486.512	4.22
486.862	4.21
487.212	4.2
487.562	4.18
487.912	4.18
488.262	4.18
488.612	4.2
488.961	4.17
489.311	4.17
489.661	4.18
490.011	4.17
490.36	4.17
490.71	4.18
491.06	4.19
491.409	4.2
491.759	4.22
492.108	4.22
492.458	4.24
492.807	4.27
493.157	4.3
493.506	4.32
493.855	4.36
494.204	4.39
494.554	4.44
494.903	4.49
495.252	4.53
495.601	4.57
495.95	4.59
496.299	4.66
496.648	4.71
496.997	4.77
497.346	4.86
497.695	4.92
498.043	5.01
498.392	5.07
498.741	5.13
499.09	5.23
499.438	5.31
499.787	5.37
500.135	5.44
500.484	5.53
500.832	5.6
501.181	5.7
501.529	5.83
501.878	5.93
502.226	6.09
502.574	6.24
502.923	6.4
503.271	6.59
503.619	6.75
503.967	6.93
504.315	7.1
504.663	7.25
505.011	7.45
505.359	7.63
505.707	7.82
506.055	8.03
506.403	8.21
506.751	8.43
507.098	8.69
507.446	8.93
507.794	9.19
508.141	9.45
508.489	9.69
508.837	9.94
509.184	10.21
509.531	10.42
509.879	10.66
510.226	10.91
510.574	11.14
510.921	11.39
511.268	11.65
511.616	11.95
511.963	12.24
512.31	12.53
512.657	12.84
513.004	13.15
513.351	13.5
513.698	13.84
514.045	14.19
514.392	14.54
514.739	14.88
515.086	15.24
515.432	15.6
515.779	15.95
516.126	16.28
516.473	16.61
516.819	16.94
517.166	17.28
517.512	17.6
517.859	17.89
518.205	18.15
518.552	18.44
518.898	18.69
519.245	18.97
519.591	19.26
519.937	19.5
520.283	19.8
520.629	20.07
520.976	20.4
521.322	20.71
521.668	21.03
522.014	21.35
522.36	21.66
522.706	21.99
523.052	22.35
523.398	22.74
523.743	23.15
524.089	23.57
524.435	23.94
524.781	24.29
525.126	24.65
525.472	25.01
525.817	25.32
526.163	25.63
526.509	25.89
526.854	26.12
527.199	26.36
527.545	26.59
527.89	26.81
528.235	27.03
528.581	27.25
528.926	27.45
529.271	27.68
529.616	27.9
529.961	28.14
530.306	28.38
530.651	28.63
530.996	28.86
531.341	29.12
531.686	29.37
532.031	29.65
532.376	29.92
532.721	30.16
533.065	30.45
533.41	30.69
533.755	30.98
534.099	31.27
534.444	31.57
534.788	31.83
535.133	32.1
535.477	32.41
535.822	32.74
536.166	33.06
536.51	33.4
536.855	33.78
537.199	34.11
537.543	34.45
537.887	34.8
538.231	35.12
538.576	35.43
538.92	35.79
539.264	36.12
539.608	36.43
539.951	36.72
540.295	36.92
540.639	37.2
540.983	37.44
541.327	37.7
541.671	37.95
542.014	38.2
542.358	38.44
542.701	38.61
543.045	38.81
543.389	39.02
543.732	39.22
544.075	39.43
544.419	39.68
544.762	39.9
545.105	40.1
545.449	40.36
545.792	40.65
546.135	40.84
546.478	41.07
546.821	41.34
547.165	41.61
547.508	41.9
547.851	42.14
548.194	42.42
548.536	42.61
548.879	42.88
549.222	43.13
549.565	43.36
549.908	43.66
550.25	43.9
550.593	44.12
550.936	44.36
551.278	44.57
551.621	44.74
551.963	44.92
552.306	45.15
552.648	45.39
552.991	45.55
553.333	45.76
553.675	45.96
554.017	46.08
554.36	46.24
554.702	46.44
555.044	46.66
555.386	46.81
555.728	47.01
556.07	47.15
556.412	47.36
556.754	47.54
557.096	47.67
557.438	47.8
557.78	48.02
558.121	48.18
558.463	48.32
558.805	48.64
559.147	48.84
559.488	48.99
559.83	49.12
560.171	49.3
560.513	49.43
560.854	49.52
561.196	49.7
561.537	49.9
561.878	50.07
562.22	50.23
562.561	50.32
562.902	50.48
563.243	50.57
563.584	50.69
563.925	50.89
564.266	50.97
564.607	51.03
564.948	51.19
565.289	51.3
565.63	51.39
565.971	51.42
566.312	51.55
566.653	51.62
566.993	51.72
567.334	51.88
567.675	52.03
568.015	52.17
568.356	52.25
568.696	52.33
569.037	52.43
569.377	52.49
569.718	52.58
570.058	52.68
570.398	52.78
570.739	52.85
571.079	52.84
571.419	52.91
571.759	53.06
572.099	53.12
572.439	53.23
572.779	53.33
573.119	53.43
573.459	53.46
573.799	53.57
574.139	53.71
574.479	53.7
574.819	53.79
575.158	53.89
575.498	53.97
575.838	53.95
576.177	54.08
576.517	54.24
576.856	54.39
577.196	54.48
577.535	54.54
577.875	54.59
578.214	54.75
578.553	54.88
578.893	54.98
579.232	55.04
579.571	55.07
579.91	55.17
580.25	55.24
580.589	55.29
580.928	55.37
581.267	55.44
581.606	55.54
581.945	55.56
582.283	55.6
582.622	55.7
582.961	55.89
583.3	55.88
583.639	55.9
583.977	55.98
584.316	56.01
584.654	56.16
584.993	56.23
585.332	56.28
585.67	56.35
586.008	56.35
586.347	56.47
586.685	56.53
587.024	56.67
587.362	56.66
587.7	56.79
588.038	56.81
588.376	56.82
588.715	56.89
589.053	57.03
589.391	57.05
589.729	57.12
590.067	57.12
590.404	57.13
590.742	57.14
591.08	57.21
591.418	57.25
591.756	57.2
592.093	57.31
592.431	57.35
592.769	57.4
593.106	57.47
593.444	57.46
593.781	57.5
594.119	57.46
594.456	57.55
594.793	57.61
595.131	57.68
595.468	57.7
595.805	57.66
596.143	57.69
596.48	57.83
596.817	57.82
597.154	57.89
597.491	57.92
597.828	57.94
598.165	58.03
598.502	58.12
598.839	58.2
599.176	58.17
599.512	58.17
599.849	58.21
600.186	58.25
600.523	58.36
600.859	58.38
601.196	58.49
601.532	58.49
601.869	58.49
602.205	58.48
602.542	58.52
602.878	58.6
603.215	58.64
603.551	58.66
603.887	58.67
604.223	58.63
604.56	58.68
604.896	58.66
605.232	58.61
605.568	58.63
605.904	58.69
606.24	58.72
606.576	58.67
606.912	58.73
607.248	58.73
607.583	58.67
607.919	58.75
608.255	58.74
608.591	58.79
608.926	58.81
609.262	58.85
609.597	58.9
609.933	58.91
610.268	58.84
610.604	58.8
610.939	58.87
611.275	58.91
611.61	58.94
611.945	58.93
612.281	58.94
612.616	58.9
612.951	58.95
613.286	59.02
613.621	59.16
613.956	59.05
614.291	59.05
614.626	59.18
614.961	59.15
615.296	59.15
615.631	59.22
615.966	59.28
616.3	59.29
616.635	59.24
616.97	59.23
617.304	59.27
617.639	59.26
617.973	59.2
618.308	59.38
618.642	59.41
618.977	59.58
619.311	59.69
619.646	59.66
619.98	59.61
620.314	59.69
620.648	59.69
620.983	59.72
621.317	59.77
621.651	59.78
621.985	59.85
622.319	59.92
622.653	59.89
622.987	59.86
623.321	59.93
623.655	59.9
623.988	59.89
624.322	59.85
624.656	59.95
624.99	60.05
625.323	60
625.657	59.91
625.99	59.89
626.324	59.8
626.657	59.86
626.991	59.9
627.324	59.77
627.658	59.7
627.991	59.86
628.324	59.95
628.657	59.91
628.991	59.87
629.324	59.71
629.657	59.69
629.99	59.71
630.323	59.73
630.656	59.82
630.989	59.82
631.322	59.93
631.655	59.92
631.987	59.9
632.32	59.84
632.653	59.94
632.986	60.03
633.318	60.1
633.651	60.21
633.984	60.21
634.316	60.28
634.649	60.38
634.981	60.32
635.313	60.28
635.646	60.27
635.978	60.27
636.31	60.41
636.643	60.49
636.975	60.59
637.307	60.57
637.639	60.56
637.971	60.61
638.303	60.53
638.635	60.47
638.967	60.51
639.299	60.45
639.631	60.47
639.963	60.36
640.295	60.27
640.626	60.14
640.958	60.17
641.29	60.18
641.621	60.25
641.953	60.27
642.285	60.25
642.616	60.26
642.948	60.38
643.279	60.3
643.61	60.25
643.942	60.11
644.273	60.11
644.604	60.14
644.936	60.3
645.267	60.41
645.598	60.38
645.929	60.36
646.26	60.47
646.591	60.54
646.922	60.52
647.253	60.48
647.584	60.67
647.915	60.67
648.245	60.73
648.576	60.67
648.907	60.56
649.238	60.6
649.568	60.6
649.899	60.58
650.229	60.7
650.56	60.74
650.89	60.78
651.221	60.65
651.551	60.61
651.882	60.58
652.212	60.6
652.542	60.8
652.872	60.77
653.203	60.86
653.533	60.85
653.863	60.97
654.193	61.11
654.523	61.12
654.853	61.11
655.183	61.25
655.513	61.28
655.843	61.32
656.172	61.23
656.502	61.27
656.832	61.14
657.162	61.13
657.491	61.11
657.821	61.15
658.15	61.28
658.48	61.27
658.809	61.19
659.139	61.04
659.468	60.93
659.798	60.9
660.127	60.8
660.456	60.8
660.785	60.7
661.115	60.84
661.444	60.67
661.773	60.76
662.102	60.56
662.431	60.51
662.76	60.53
663.089	60.66
663.418	60.73
663.747	60.9
664.076	60.83
664.404	60.87
664.733	60.82
665.062	60.89
665.39	60.98
665.719	61
666.048	61.18
666.376	61.15
666.705	61.14
667.033	61.38
667.362	61.37
667.69	61.4
668.018	61.14
668.347	61.02
668.675	61.07
669.003	61.01
669.331	61.31
669.659	61.23
669.987	61.3
670.315	61.26
670.643	61.18
670.971	61.3
671.299	61.21
671.627	61.28
671.955	61.28
672.283	61.26
672.61	61.21
672.938	61.2
673.266	61.49
673.593	61.61
673.921	61.41
674.249	61.25
674.576	61.26
674.904	61.32
675.231	61.48
675.558	61.37
675.886	61.6
676.213	61.39
676.54	61.61
676.867	61.37
677.195	61.52
677.522	61.6
677.849	61.71
678.176	61.79
678.503	61.74
678.83	61.78
679.157	61.77
679.484	61.93
679.81	61.89
680.137	61.68
680.464	61.86
680.791	61.92
681.117	61.98
681.444	62.12
681.771	62.08
682.097	62.26
682.424	62.41
682.75	62.36
683.077	62.4
683.403	62.22
683.729	62.24
684.056	62.06
684.382	62.1
684.708	61.96
685.034	61.99
685.36	62.05
685.686	61.93
686.012	61.96
686.339	61.98
686.664	62.02
686.99	62.03
687.316	61.89
687.642	61.9
687.968	62.13
688.294	62.04
688.619	62.17
688.945	62.13
689.271	61.96
689.596	61.94
689.922	61.92
690.247	62.07
690.573	62.25
690.898	62.22
691.224	62.22
691.549	62.04
691.874	62.08
692.2	62.12
692.525	62.35
692.85	62.29
693.175	62.01
693.5	61.91
693.825	62.04
694.15	61.89
694.475	61.98
694.8	61.89
695.125	62.12
695.45	62.1
695.775	62.18
696.099	62.31
696.424	62.5
696.749	62.55
697.073	62.61
697.398	62.62
697.723	62.67
698.047	62.81
698.372	62.88
698.696	63.07
699.02	62.98
699.345	62.91
699.669	62.88
699.993	63.02
700.318	63.32
700.642	63.29
700.966	63.46
701.29	63.42
701.614	63.3
701.938	63.11
702.262	63.14
702.586	63.07
702.91	62.92
703.234	62.79
703.557	62.85
703.881	62.89
704.205	62.73
704.529	62.84
704.852	62.43
705.176	62.61
705.499	62.2
705.823	62.22
706.146	62.02
706.47	62.2
706.793	62.09
707.117	61.88
707.44	61.57
707.763	61.39
708.086	61.25
708.409	61.18
708.733	61.34
709.056	61.42
709.379	61.22
709.702	61.46
710.025	61.31
710.348	61.25
710.671	60.97
710.993	61.07
711.316	61.12
711.639	61.32
711.962	61.27
712.284	61.37
712.607	61.5
712.93	61.5
713.252	61.58
713.575	61.59
713.897	61.71
714.22	62.07
714.542	62.3
714.864	62.39
715.187	62.66
715.509	62.36
715.831	62.24
716.153	62.34
716.475	62.11
716.798	62.23
717.12	62.1
717.442	62.31
717.764	62.38
718.085	62.38
718.407	62.32
718.729	62.32
719.051	62.34
719.373	62.41
719.695	62.61
720.016	62.51
720.338	62.59
720.659	62.35
720.981	62.16
721.302	62.12
721.624	62.02
721.945	61.89
722.267	61.98
722.588	61.98
722.909	62.08
723.231	62.28
723.552	62.24
723.873	62.54
724.194	62.61
724.515	62.76
724.836	62.46
725.157	62.55
725.478	62.71
725.799	62.83
726.12	62.52
726.441	62.4
726.762	62.28
727.083	62.41
727.403	62.47
727.724	62.42
728.045	62.57
728.365	62.65
728.686	62.56
729.006	62.73
729.327	62.89
729.647	62.7
729.967	62.65
730.288	62.59
730.608	62.51
730.928	62.52
731.249	62.45
731.569	62.52
731.889	62.51
732.209	62.42
732.529	62.24
732.849	62.4
733.169	62.2
733.489	62.18
733.809	61.89
734.129	62.06
734.448	62.18
734.768	61.82
735.088	61.92
735.408	61.81
735.727	61.7
736.047	61.67
736.366	61.91
736.686	62.09
737.005	62.38
737.325	62.36
737.644	62.05
737.963	61.82
738.283	61.9
738.602	62.08
738.921	62.32
739.24	62.22
739.56	62.06
739.879	62.35
740.198	62.5
740.517	62.45
740.836	62.17
741.155	62
741.473	61.9
741.792	61.8
742.111	61.95
742.43	62.11
742.748	62.22
743.067	62.1
743.386	61.96
743.704	61.53
744.023	61.26
744.341	61.53
744.66	61.17
744.978	61.09
745.297	60.99
745.615	60.67
745.933	60.91
746.252	60.87
746.57	60.86
746.888	60.76
747.206	61.18
747.524	61.24
747.842	61.17
748.16	61.56
748.478	61.67
748.796	61.71
749.114	61.51
749.432	61.25
749.749	61.6
750.067	61.23
750.385	61.21
750.703	60.91
751.02	61.21
751.338	61.47
751.655	61.26
751.973	61.05
752.29	61.43
752.608	61.21
752.925	61.5
753.242	61.53
753.56	61.22
753.877	61.08
754.194	60.84
754.511	61.07
754.828	60.95
755.145	60.71
755.462	60.62
755.779	60.66
756.096	60.66
756.413	60.35
756.73	60.65
757.047	60.6
757.364	61.48
757.68	61.04
757.997	61.23
758.314	61.22
758.63	61.18
758.947	61.06
759.264	61.52
759.58	61.6
759.896	61.37
760.213	61.68
760.529	61.44
760.846	61.83
761.162	62.06
761.478	61.71
761.794	61.71
762.11	61.82
762.426	61.88
762.743	61.95
763.059	61.85
763.375	61.69
763.69	62.06
764.006	61.68
764.322	61.85
764.638	62.33
764.954	62.66
765.27	62.69
765.585	62.53
765.901	62.29
766.216	62.5
766.532	62.55
766.848	62.53
767.163	62.91
767.478	62.56
767.794	62.4
768.109	62.87
768.424	63.04
768.74	63.14
769.055	63.33
769.37	63.2
769.685	63.41
770	63.7
770.315	63.71
770.63	63.61
770.945	63.88
771.26	63.31
771.575	63.39
771.89	63.66
772.205	63.46
772.52	63.64
772.834	63.01
773.149	62.84
773.464	63.19
773.778	63.12
774.093	63.76
774.407	63.76
774.722	63.58
775.036	63.54
775.351	63.43
775.665	63.08
775.979	63.02
776.293	62.96
776.608	62.35
776.922	61.96
777.236	61.96
777.55	60.88
777.864	60.86
778.178	60.33
778.492	60.35
778.806	60.79
779.12	60.33
779.434	60.46
779.747	60.58
780.061	60.27
780.375	59.91
780.689	59.79
781.002	59.27
781.316	58.96
781.629	59.38
781.943	59.43
782.256	59.43
782.57	59.49
782.883	59.59
783.196	60.26
783.51	60.37
783.823	60.83
784.136	61.94
784.449	62.18
784.762	62.08
785.075	61.8
785.388	61.48
785.701	61.53
786.014	60.92
786.327	60.91
786.64	60.92
786.953	61.93
787.266	61.44
787.578	62.22
787.891	62.7
788.204	61.99
788.516	62.39
788.829	62.57
789.141	62.34
789.454	62.56
789.766	62.65
790.079	62.58
790.391	62.14
790.703	61.31
791.016	60.64
791.328	61.09
791.64	60.93
791.952	60.86
792.264	61.78
792.576	62.01
792.888	62.32
793.2	62.4
793.512	61.84
793.824	62.08
794.136	62.11
794.448	61.54
794.76	61.39
795.071	61.37
795.383	61.23
795.695	61.7
796.006	61.03
796.318	60.79
796.629	60.51
796.941	61.19
797.252	61.58
797.564	62.6
797.875	62.35
798.186	62.63
798.497	62.72
798.809	61.86
799.12	62.21
799.431	62.28
799.742	61.62
800.053	61.65
800.364	61.07
800.675	60.77
800.986	61.19
801.297	61.63
801.608	61.21
801.918	61.5
802.229	62.01
802.54	61.99
802.851	61.85
803.161	62.26
803.472	62.17
803.782	62.74
804.093	61.4
804.403	61.36
804.714	61.66
805.024	62.26
805.334	62.26
805.645	62.47
805.955	62.07
806.265	62.93
806.575	62.53
806.885	63.01
807.195	62.82
807.505	62.58
807.815	62.74
808.125	63.03
808.435	61.98
808.745	60.36
809.055	61.02
809.365	61.41
809.674	61.65
809.984	61.07
810.294	59.45
810.603	60.42
810.913	59.74
811.222	58.83
811.532	58.02
811.841	58.18
812.151	57.8
812.46	58.18
812.769	57.96
813.079	57.99
813.388	58.12
813.697	58.36
814.006	58.59
814.315	58.52
814.624	57.87
814.933	59.27
815.242	59.73
815.551	58.98
815.86	58.66
816.169	59.01
816.478	59.13
816.786	59.51
817.095	59.61
817.404	60.39
817.712	61.03
818.021	62.02
818.33	62.25
818.638	62.26
818.947	61.81
819.255	61.82
819.563	62.39
819.872	62.54
820.18	62.74
820.488	62.61
820.796	62.71
821.105	62.68
821.413	62.81
821.721	62.99
822.029	63.26
822.337	63.59
822.645	63.66
822.953	63.97
823.26	64.04
823.568	64.15
823.876	64.08
824.184	63.96
824.491	63.95
824.799	63.87
825.107	63.88
825.414	64.43
825.722	64.43
826.029	64.32
826.337	64.36
826.644	64.5
826.951	64.71
827.259	64.74
827.566	65.03
827.873	65.13
828.18	65.36
828.488	65.49
828.795	65.29
829.102	64.84
829.409	64.63
829.716	64.71
830.023	64.64
830.329	64.9
830.636	65.35
830.943	65.31
831.25	65.42
831.557	65.44
831.863	64.46
832.17	65.01
832.476	65.54
832.783	65.73
833.089	65.41
833.396	65.39
833.702	65.56
834.009	65.43
834.315	65.44
834.621	65.68
834.928	65.51
835.234	65.37
835.54	65.38
835.846	65.2
836.152	65.69
836.458	65.21
836.764	65.27
837.07	65.09
837.376	64.74
837.682	65.14
837.988	65.88
838.293	66.43
838.599	66.26
838.905	65.58
839.211	65.67
839.516	65.26
839.822	65.31
840.127	65.67
840.433	65.8
840.738	64.54
841.044	64.38
841.349	63.69
841.654	63.72
841.959	64.43
842.265	64.81
842.57	63.89
842.875	63.72
843.18	62.39
843.485	61.96
843.79	60.95
844.095	61.86
844.4	60.8
844.705	60.2
845.01	59.59
845.315	59.12
845.619	59.09
845.924	60.32
846.229	59.88
846.533	57.45
846.838	57.62
847.142	59
847.447	58.36
847.751	57.34
848.056	58.88
848.36	57.83
848.664	57.57
848.969	58.17
849.273	58.23
849.577	60.26
849.881	62.78
850.185	64.12
850.489	61.46
850.794	62.56
851.097	61.97
851.401	62.45
851.705	61.74
852.009	60.63
852.313	58.52
852.617	57.29
852.92	57.8
853.224	59.41
853.528	58.64
853.831	60.32
854.135	61.39
854.438	57.41
854.742	60.41
855.045	60.42
855.349	57.47
855.652	58.35
855.955	58.31
856.259	55.18
856.562	53.87
856.865	55.2
857.168	52.48
857.471	53.36
857.774	53.66
858.077	55.99
858.38	56.83
858.683	57.81
858.986	60.07
859.289	62.12
859.592	58.54
859.894	58.65
860.197	58.04
860.5	61.26
860.802	64.63
861.105	62.34
861.407	61.75
861.71	67.16
862.012	66.62
862.315	67.14
862.617	66.3
862.919	66.15
863.222	67.51
863.524	68.52
863.826	66.71
864.128	65.69
864.43	64.14
864.732	62.48
865.034	61.89
865.336	59.86
865.638	57.26
865.94	56.71
866.242	58.16
866.544	55.8
866.846	54
867.147	56.57
867.449	56.51
867.751	57.37
868.052	54.57
868.354	57.12
868.655	53.4
868.957	55.46
869.258	55.95
869.56	54
869.861	54.81
870.162	56.07
870.463	55.42
870.765	58.62
871.066	60.24
871.367	60.1
871.668	60.45
871.969	63.66
872.27	64.37
872.571	62.67
872.872	64.79
873.173	62.82
873.473	56.59
873.774	56.22
874.075	54.79
874.376	52.92
874.676	51.75
874.977	52.66
875.277	53.21
875.578	54.69
875.878	53.67
876.179	53.55
876.479	54.11
876.78	53.89
877.08	49.85
877.38	47.77
877.68	49.54
877.981	50.34
878.281	48.98
878.581	48.91
