Data from MVZ_BU88648_Reflection_00008.txt Node
Date: Tue Nov 19 12:02:06 EST 2019
User: vgr7
Spectrometer: USB2G7710
Scans to average: 3
Trigger mode: 4
Integration Time (sec): 2.000000E-2
Electric dark correction enabled: true
Boxcar width: 10
XAxis mode: Wavelengths
Number of Pixels in Spectrum: 2048
>>>>>Begin Spectral Data<<<<<
177.721	-363.24
178.105	-134.94
178.488	-85.16
178.871	-488.46
179.254	-182.69
179.636	-1055.41
180.019	-118.14
180.402	175
180.785	-77.91
181.168	-167.48
181.55	-502.68
181.933	460.58
182.316	-529.46
182.698	-279.87
183.081	-29.4
183.463	-32.64
183.846	-39.59
184.228	-23.37
184.611	5.43
184.993	5.85
185.376	1.67
185.758	-15.51
186.14	3.16
186.522	-6.44
186.904	13.68
187.287	39.01
187.669	23.04
188.051	-4.54
188.433	-29.35
188.815	-33.63
189.197	-17.31
189.579	9.55
189.961	-4.48
190.342	1.8
190.724	-18.27
191.106	-41.94
191.488	-44.08
191.869	-23.15
192.251	-31.18
192.633	-70.45
193.014	-90.11
193.396	-28.62
193.777	-19.24
194.159	-5.86
194.54	10.75
194.922	-27.77
195.303	-50
195.684	-76.36
196.065	-91.35
196.447	-88.54
196.828	-76.65
197.209	-61.58
197.59	-52.41
197.971	-26.22
198.352	-14.86
198.733	-10.45
199.114	-6.63
199.495	-16.9
199.876	-60.56
200.257	-55.25
200.638	-11.42
201.018	-24.12
201.399	-27.72
201.78	-49.58
202.16	-81.99
202.541	-87.77
202.922	-60.57
203.302	-61.4
203.683	-50.94
204.063	-34.92
204.444	-12.35
204.824	-25.12
205.204	-27.18
205.585	-18.99
205.965	-33.31
206.345	-26.5
206.725	-25.13
207.106	-29.62
207.486	-29.42
207.866	-20.89
208.246	-7.74
208.626	-7.55
209.006	-7.32
209.386	-20.07
209.766	-15.73
210.145	-6.01
210.525	3.97
210.905	-6.18
211.285	7.49
211.664	-1.25
212.044	-9.1
212.424	-14.48
212.803	-11.45
213.183	-18.47
213.562	-10.4
213.942	-8.21
214.321	-17.33
214.701	-23.2
215.08	-27.61
215.459	-9.36
215.838	-11.23
216.218	-14.15
216.597	-16.52
216.976	-20.02
217.355	-19.94
217.734	-25.35
218.113	-19.67
218.492	-29.23
218.871	-27.26
219.25	-28.25
219.629	-19.7
220.008	-13.62
220.387	-25.13
220.766	-9.05
221.144	-1.66
221.523	-17
221.902	-21.22
222.28	-1.61
222.659	16.99
223.037	23.68
223.416	19.06
223.794	17.53
224.173	6.66
224.551	8.29
224.929	8.01
225.308	0.56
225.686	1.67
226.064	-3.9
226.442	1.91
226.821	4.8
227.199	5.44
227.577	4.12
227.955	4.38
228.333	2.74
228.711	0.66
229.089	0.09
229.467	0.37
229.845	0.15
230.222	-2.99
230.6	-8.13
230.978	-6.29
231.356	-4.27
231.733	-3.09
232.111	-5.19
232.488	-5.35
232.866	-3.7
233.243	0.51
233.621	2.09
233.998	5.58
234.376	3.69
234.753	2.38
235.13	0.77
235.508	0.39
235.885	0.83
236.262	0.04
236.639	-0.16
237.016	-0.57
237.393	0.15
237.77	1.33
238.147	0.92
238.524	2.93
238.901	2.02
239.278	1.3
239.655	0.82
240.032	2.18
240.409	2.8
240.785	2.17
241.162	1.25
241.539	0.7
241.915	0.42
242.292	0.95
242.668	1.32
243.045	1.71
243.421	2.07
243.798	2.6
244.174	3.16
244.551	3.57
244.927	3.89
245.303	3.56
245.679	3.43
246.056	3.45
246.432	3.28
246.808	3.64
247.184	3.7
247.56	3.61
247.936	3.55
248.312	3.66
248.688	3.68
249.064	3.77
249.44	3.94
249.815	3.87
250.191	3.9
250.567	4.16
250.943	3.94
251.318	3.95
251.694	3.66
252.069	3.27
252.445	2.85
252.82	3.03
253.196	3.08
253.571	3.14
253.947	3.42
254.322	3.25
254.697	3.08
255.073	2.82
255.448	3.22
255.823	3.74
256.198	3.62
256.573	3.75
256.948	3.91
257.323	3.82
257.698	3.78
258.073	3.77
258.448	3.77
258.823	3.87
259.198	4.11
259.573	3.88
259.948	4.18
260.322	4.07
260.697	4.02
261.072	4.12
261.446	4.09
261.821	4.05
262.195	4.17
262.57	4.09
262.944	4.1
263.319	4.1
263.693	3.7
264.067	3.74
264.442	3.73
264.816	3.7
265.19	3.66
265.564	3.81
265.938	3.68
266.313	3.52
266.687	3.37
267.061	3.04
267.435	3.26
267.809	2.75
268.183	2.83
268.556	2.73
268.93	2.81
269.304	2.72
269.678	2.58
270.051	2.44
270.425	2.48
270.799	2.36
271.172	2.36
271.546	2.47
271.919	2.47
272.293	2.62
272.666	2.56
273.04	2.58
273.413	2.49
273.787	2.47
274.16	2.43
274.533	2.59
274.906	2.65
275.279	2.63
275.653	2.8
276.026	2.87
276.399	2.91
276.772	2.79
277.145	2.99
277.518	2.99
277.891	2.93
278.263	3.07
278.636	3.34
279.009	3.32
279.382	3.28
279.755	3.21
280.127	3.05
280.5	3.19
280.872	3.26
281.245	3.14
281.617	3.28
281.99	3.44
282.362	3.35
282.735	3.34
283.107	3.2
283.479	3.26
283.852	3.28
284.224	3.37
284.596	3.32
284.968	3.2
285.34	3.21
285.713	3.46
286.085	3.27
286.457	3.19
286.829	3.18
287.201	3.28
287.572	3.32
287.944	3.46
288.316	3.35
288.688	3.37
289.06	3.48
289.431	3.55
289.803	3.52
290.175	3.55
290.546	3.51
290.918	3.65
291.289	3.61
291.661	3.67
292.032	3.54
292.403	3.62
292.775	3.74
293.146	3.82
293.517	3.79
293.889	3.72
294.26	3.72
294.631	3.67
295.002	3.71
295.373	3.55
295.744	3.53
296.115	3.61
296.486	3.68
296.857	3.64
297.228	3.53
297.599	3.42
297.97	3.46
298.34	3.47
298.711	3.56
299.082	3.62
299.452	3.7
299.823	3.85
300.194	3.93
300.564	3.9
300.935	3.95
301.305	3.99
301.676	4.16
302.046	4.21
302.416	4.35
302.787	4.24
303.157	4.35
303.527	4.32
303.897	4.24
304.267	4.14
304.637	4.29
305.008	4.27
305.378	4.29
305.748	4.35
306.117	4.37
306.487	4.34
306.857	4.46
307.227	4.57
307.597	4.43
307.967	4.5
308.336	4.49
308.706	4.48
309.076	4.57
309.445	4.69
309.815	4.68
310.184	4.66
310.554	4.66
310.923	4.61
311.293	4.56
311.662	4.66
312.031	4.63
312.401	4.54
312.77	4.78
313.139	4.87
313.508	4.88
313.877	4.89
314.246	4.96
314.616	4.96
314.985	4.8
315.353	4.84
315.722	5.04
316.091	4.99
316.46	5.03
316.829	4.9
317.198	4.9
317.567	5.05
317.935	5.07
318.304	5.35
318.672	5.58
319.041	5.71
319.41	5.71
319.778	5.76
320.147	5.82
320.515	5.71
320.883	5.67
321.252	5.58
321.62	5.56
321.988	5.44
322.357	5.48
322.725	5.46
323.093	5.37
323.461	4.99
323.829	5.06
324.197	5.08
324.565	5.03
324.933	4.98
325.301	4.75
325.669	4.67
326.037	4.44
326.405	4.47
326.772	4.34
327.14	4.36
327.508	4.44
327.875	4.46
328.243	4.46
328.61	4.5
328.978	4.6
329.346	4.67
329.713	4.74
330.08	4.86
330.448	4.89
330.815	4.98
331.182	5.07
331.55	5.2
331.917	5.16
332.284	5.22
332.651	5.28
333.018	5.43
333.385	5.59
333.752	5.79
334.119	5.79
334.486	6.03
334.853	5.98
335.22	6.05
335.587	5.94
335.954	5.84
336.32	5.96
336.687	5.82
337.054	5.9
337.42	5.91
337.787	5.59
338.153	5.63
338.52	5.74
338.886	5.72
339.253	5.56
339.619	5.73
339.986	5.78
340.352	5.91
340.718	6.07
341.084	6.06
341.451	5.98
341.817	5.99
342.183	5.87
342.549	5.98
342.915	5.95
343.281	5.98
343.647	6.1
344.013	5.94
344.379	5.97
344.745	5.96
345.11	5.91
345.476	6.14
345.842	6.19
346.208	6.18
346.573	6.23
346.939	6.24
347.304	6.04
347.67	5.93
348.035	5.8
348.401	5.8
348.766	5.72
349.132	5.85
349.497	5.8
349.862	5.9
350.228	5.84
350.593	5.75
350.958	5.96
351.323	5.97
351.688	6
352.053	5.99
352.418	6
352.783	6.08
353.148	6.05
353.513	6.04
353.878	5.98
354.243	5.97
354.608	6.05
354.972	6.07
355.337	6.2
355.702	6.21
356.066	6.23
356.431	6.25
356.795	6.09
357.16	6.06
357.524	6.07
357.889	6.09
358.253	6.09
358.618	6.02
358.982	5.96
359.346	6.07
359.71	6.16
360.075	6.22
360.439	6.18
360.803	6.11
361.167	6.12
361.531	6.15
361.895	6.15
362.259	6.16
362.623	6.21
362.987	6.16
363.351	6.12
363.714	6.08
364.078	6.08
364.442	6.09
364.806	6.18
365.169	6.18
365.533	6.16
365.896	6.25
366.26	6.2
366.623	6.24
366.987	6.2
367.35	6.21
367.714	6.07
368.077	6.06
368.44	6.14
368.803	6.05
369.167	5.95
369.53	5.88
369.893	5.82
370.256	5.75
370.619	5.73
370.982	5.74
371.345	5.77
371.708	5.73
372.071	5.7
372.434	5.57
372.797	5.47
373.159	5.41
373.522	5.34
373.885	5.29
374.247	5.25
374.61	5.22
374.973	5.18
375.335	5.2
375.698	5.15
376.06	5.06
376.423	5.1
376.785	5.19
377.147	5.16
377.51	5.2
377.872	5.24
378.234	5.19
378.596	5.21
378.958	5.15
379.321	5.13
379.683	5.24
380.045	5.22
380.407	5.22
380.769	5.2
381.13	5.14
381.492	5.1
381.854	5.1
382.216	5.09
382.578	5.1
382.939	5.07
383.301	5.04
383.663	5.07
384.024	5.03
384.386	4.95
384.747	4.97
385.109	4.9
385.47	4.83
385.832	4.81
386.193	4.74
386.554	4.69
386.916	4.65
387.277	4.58
387.638	4.63
387.999	4.62
388.36	4.61
388.721	4.63
389.082	4.64
389.443	4.63
389.804	4.62
390.165	4.58
390.526	4.58
390.887	4.57
391.248	4.56
391.609	4.54
391.969	4.55
392.33	4.54
392.691	4.55
393.051	4.55
393.412	4.55
393.772	4.56
394.133	4.56
394.493	4.58
394.854	4.57
395.214	4.52
395.574	4.51
395.935	4.47
396.295	4.44
396.655	4.5
397.015	4.51
397.376	4.45
397.736	4.4
398.096	4.38
398.456	4.32
398.816	4.28
399.176	4.23
399.535	4.2
399.895	4.19
400.255	4.15
400.615	4.13
400.975	4.13
401.334	4.11
401.694	4.11
402.054	4.06
402.413	4.04
402.773	4.07
403.132	4.03
403.492	4.07
403.851	4.06
404.211	3.98
404.57	3.99
404.929	4.02
405.288	4.04
405.648	4.04
406.007	4.1
406.366	4.11
406.725	4.14
407.084	4.16
407.443	4.16
407.802	4.21
408.161	4.21
408.52	4.21
408.879	4.21
409.238	4.18
409.596	4.22
409.955	4.2
410.314	4.14
410.673	4.14
411.031	4.11
411.39	4.13
411.748	4.13
412.107	4.08
412.465	4.09
412.824	4.07
413.182	4.06
413.54	4.03
413.899	4.01
414.257	4.01
414.615	3.98
414.974	3.97
415.332	3.94
415.69	3.93
416.048	3.93
416.406	3.91
416.764	3.92
417.122	3.88
417.48	3.88
417.838	3.9
418.195	3.9
418.553	3.91
418.911	3.88
419.269	3.88
419.626	3.88
419.984	3.85
420.342	3.84
420.699	3.82
421.057	3.81
421.414	3.81
421.772	3.81
422.129	3.81
422.486	3.8
422.844	3.8
423.201	3.79
423.558	3.78
423.915	3.78
424.273	3.75
424.63	3.77
424.987	3.76
425.344	3.76
425.701	3.73
426.058	3.72
426.415	3.72
426.772	3.72
427.128	3.73
427.485	3.72
427.842	3.73
428.199	3.74
428.555	3.73
428.912	3.71
429.269	3.68
429.625	3.67
429.982	3.66
430.338	3.65
430.695	3.64
431.051	3.67
431.407	3.67
431.764	3.68
432.12	3.69
432.476	3.71
432.832	3.72
433.189	3.73
433.545	3.74
433.901	3.75
434.257	3.74
434.613	3.72
434.969	3.71
435.325	3.72
435.681	3.71
436.036	3.72
436.392	3.73
436.748	3.77
437.104	3.75
437.459	3.74
437.815	3.74
438.171	3.75
438.526	3.72
438.882	3.71
439.237	3.7
439.593	3.68
439.948	3.66
440.304	3.66
440.659	3.66
441.014	3.65
441.369	3.66
441.725	3.67
442.08	3.66
442.435	3.67
442.79	3.68
443.145	3.69
443.5	3.7
443.855	3.67
444.21	3.66
444.565	3.67
444.92	3.69
445.275	3.7
445.629	3.69
445.984	3.68
446.339	3.69
446.693	3.7
447.048	3.69
447.403	3.69
447.757	3.69
448.112	3.71
448.466	3.7
448.82	3.69
449.175	3.69
449.529	3.69
449.883	3.67
450.238	3.66
450.592	3.66
450.946	3.64
451.3	3.65
451.654	3.65
452.008	3.64
452.362	3.63
452.716	3.63
453.07	3.63
453.424	3.64
453.778	3.64
454.132	3.64
454.486	3.66
454.839	3.67
455.193	3.65
455.547	3.65
455.9	3.68
456.254	3.66
456.607	3.66
456.961	3.67
457.314	3.66
457.668	3.67
458.021	3.64
458.375	3.65
458.728	3.67
459.081	3.66
459.434	3.68
459.787	3.67
460.141	3.67
460.494	3.68
460.847	3.69
461.2	3.68
461.553	3.68
461.906	3.69
462.259	3.7
462.611	3.72
462.964	3.71
463.317	3.7
463.67	3.72
464.022	3.73
464.375	3.72
464.728	3.75
465.08	3.73
465.433	3.79
465.785	3.79
466.138	3.8
466.49	3.81
466.843	3.82
467.195	3.85
467.547	3.85
467.899	3.86
468.252	3.86
468.604	3.88
468.956	3.89
469.308	3.89
469.66	3.89
470.012	3.89
470.364	3.91
470.716	3.91
471.068	3.92
471.42	3.93
471.772	3.96
472.123	3.95
472.475	3.98
472.827	3.95
473.178	3.96
473.53	3.94
473.882	3.93
474.233	3.92
474.585	3.9
474.936	3.9
475.288	3.89
475.639	3.9
475.99	3.88
476.342	3.87
476.693	3.88
477.044	3.89
477.395	3.88
477.746	3.85
478.097	3.86
478.448	3.85
478.8	3.85
479.15	3.82
479.501	3.81
479.852	3.81
480.203	3.81
480.554	3.81
480.905	3.83
481.255	3.81
481.606	3.83
481.957	3.83
482.307	3.84
482.658	3.85
483.009	3.85
483.359	3.86
483.709	3.86
484.06	3.86
484.41	3.85
484.761	3.87
485.111	3.88
485.461	3.88
485.811	3.89
486.162	3.89
486.512	3.89
486.862	3.91
487.212	3.91
487.562	3.91
487.912	3.92
488.262	3.91
488.612	3.92
488.961	3.91
489.311	3.9
489.661	3.91
490.011	3.9
490.36	3.89
490.71	3.9
491.06	3.9
491.409	3.88
491.759	3.89
492.108	3.89
492.458	3.88
492.807	3.87
493.157	3.85
493.506	3.86
493.855	3.85
494.204	3.86
494.554	3.86
494.903	3.87
495.252	3.87
495.601	3.9
495.95	3.91
496.299	3.94
496.648	3.97
496.997	3.98
497.346	4.01
497.695	4.04
498.043	4.08
498.392	4.11
498.741	4.15
499.09	4.19
499.438	4.18
499.787	4.21
500.135	4.23
500.484	4.28
500.832	4.32
501.181	4.35
501.529	4.38
501.878	4.39
502.226	4.44
502.574	4.48
502.923	4.48
503.271	4.5
503.619	4.53
503.967	4.56
504.315	4.58
504.663	4.6
505.011	4.64
505.359	4.63
505.707	4.66
506.055	4.69
506.403	4.75
506.751	4.82
507.098	4.9
507.446	4.97
507.794	5.02
508.141	5.07
508.489	5.15
508.837	5.19
509.184	5.26
509.531	5.32
509.879	5.37
510.226	5.43
510.574	5.52
510.921	5.57
511.268	5.63
511.616	5.71
511.963	5.81
512.31	5.88
512.657	5.98
513.004	6.07
513.351	6.16
513.698	6.24
514.045	6.32
514.392	6.38
514.739	6.47
515.086	6.58
515.432	6.68
515.779	6.75
516.126	6.88
516.473	6.96
516.819	7.05
517.166	7.15
517.512	7.23
517.859	7.32
518.205	7.41
518.552	7.49
518.898	7.58
519.245	7.67
519.591	7.75
519.937	7.85
520.283	7.92
520.629	8.02
520.976	8.11
521.322	8.22
521.668	8.36
522.014	8.48
522.36	8.59
522.706	8.71
523.052	8.86
523.398	8.99
523.743	9.12
524.089	9.26
524.435	9.39
524.781	9.53
525.126	9.66
525.472	9.78
525.817	9.88
526.163	9.96
526.509	10.06
526.854	10.15
527.199	10.24
527.545	10.34
527.89	10.41
528.235	10.48
528.581	10.56
528.926	10.63
529.271	10.69
529.616	10.77
529.961	10.86
530.306	10.94
530.651	11.01
530.996	11.1
531.341	11.22
531.686	11.31
532.031	11.42
532.376	11.52
532.721	11.63
533.065	11.74
533.41	11.87
533.755	11.98
534.099	12.1
534.444	12.22
534.788	12.3
535.133	12.44
535.477	12.56
535.822	12.69
536.166	12.83
536.51	12.98
536.855	13.14
537.199	13.3
537.543	13.47
537.887	13.67
538.231	13.84
538.576	14.01
538.92	14.19
539.264	14.35
539.608	14.52
539.951	14.66
540.295	14.79
540.639	14.93
540.983	15.08
541.327	15.24
541.671	15.38
542.014	15.55
542.358	15.67
542.701	15.82
543.045	15.96
543.389	16.11
543.732	16.25
544.075	16.41
544.419	16.55
544.762	16.72
545.105	16.88
545.449	17.07
545.792	17.25
546.135	17.42
546.478	17.61
546.821	17.8
547.165	18.03
547.508	18.26
547.851	18.47
548.194	18.68
548.536	18.88
548.879	19.11
549.222	19.33
549.565	19.57
549.908	19.8
550.25	20.06
550.593	20.31
550.936	20.55
551.278	20.79
551.621	21.07
551.963	21.31
552.306	21.51
552.648	21.74
552.991	21.96
553.333	22.21
553.675	22.46
554.017	22.65
554.36	22.89
554.702	23.11
555.044	23.35
555.386	23.6
555.728	23.83
556.07	24.01
556.412	24.26
556.754	24.5
557.096	24.75
557.438	24.99
557.78	25.21
558.121	25.44
558.463	25.61
558.805	25.85
559.147	26.03
559.488	26.3
559.83	26.46
560.171	26.7
560.513	26.93
560.854	27.17
561.196	27.47
561.537	27.63
561.878	27.88
562.22	28.07
562.561	28.3
562.902	28.48
563.243	28.68
563.584	28.85
563.925	29.09
564.266	29.24
564.607	29.4
564.948	29.6
565.289	29.8
565.63	30.05
565.971	30.2
566.312	30.39
566.653	30.54
566.993	30.72
567.334	30.87
567.675	31.01
568.015	31.19
568.356	31.31
568.696	31.53
569.037	31.67
569.377	31.83
569.718	31.97
570.058	32.15
570.398	32.35
570.739	32.47
571.079	32.56
571.419	32.76
571.759	32.91
572.099	33.09
572.439	33.25
572.779	33.39
573.119	33.53
573.459	33.63
573.799	33.76
574.139	33.92
574.479	34.11
574.819	34.29
575.158	34.4
575.498	34.61
575.838	34.71
576.177	34.8
576.517	34.95
576.856	35.18
577.196	35.3
577.535	35.46
577.875	35.64
578.214	35.76
578.553	35.82
578.893	36.03
579.232	36.1
579.571	36.21
579.91	36.32
580.25	36.52
580.589	36.69
580.928	36.81
581.267	36.96
581.606	37.04
581.945	37.11
582.283	37.22
582.622	37.26
582.961	37.41
583.3	37.58
583.639	37.68
583.977	37.66
584.316	37.74
584.654	37.78
584.993	37.84
585.332	38.02
585.67	38.21
586.008	38.26
586.347	38.39
586.685	38.48
587.024	38.57
587.362	38.63
587.7	38.77
588.038	38.93
588.376	38.99
588.715	39.06
589.053	39.19
589.391	39.3
589.729	39.38
590.067	39.43
590.404	39.49
590.742	39.57
591.08	39.64
591.418	39.72
591.756	39.81
592.093	39.97
592.431	40.02
592.769	40.09
593.106	40.13
593.444	40.18
593.781	40.29
594.119	40.31
594.456	40.41
594.793	40.44
595.131	40.54
595.468	40.66
595.805	40.77
596.143	40.81
596.48	40.85
596.817	40.88
597.154	40.86
597.491	40.94
597.828	41
598.165	41.07
598.502	41.18
598.839	41.24
599.176	41.24
599.512	41.17
599.849	41.26
600.186	41.32
600.523	41.39
600.859	41.4
601.196	41.5
601.532	41.46
601.869	41.52
602.205	41.48
602.542	41.53
602.878	41.56
603.215	41.63
603.551	41.7
603.887	41.77
604.223	41.85
604.56	41.84
604.896	41.91
605.232	41.96
605.568	41.91
605.904	41.92
606.24	41.95
606.576	42.13
606.912	42.17
607.248	42.25
607.583	42.32
607.919	42.33
608.255	42.37
608.591	42.46
608.926	42.51
609.262	42.59
609.597	42.54
609.933	42.49
610.268	42.44
610.604	42.46
610.939	42.47
611.275	42.56
611.61	42.65
611.945	42.66
612.281	42.75
612.616	42.88
612.951	42.93
613.286	42.96
613.621	42.96
613.956	42.93
614.291	42.97
614.626	43.01
614.961	43.16
615.296	43.25
615.631	43.3
615.966	43.32
616.3	43.34
616.635	43.43
616.97	43.44
617.304	43.47
617.639	43.45
617.973	43.44
618.308	43.48
618.642	43.53
618.977	43.59
619.311	43.51
619.646	43.6
619.98	43.68
620.314	43.74
620.648	43.75
620.983	43.82
621.317	43.88
621.651	43.86
621.985	43.77
622.319	43.78
622.653	43.77
622.987	43.9
623.321	43.96
623.655	44.02
623.988	44.08
624.322	44.11
624.656	44.14
624.99	44.2
625.323	44.18
625.657	44.14
625.99	44.11
626.324	44.15
626.657	44.13
626.991	44.13
627.324	44.12
627.658	44.17
627.991	44.13
628.324	44.06
628.657	44.05
628.991	44.16
629.324	44.11
629.657	44.15
629.99	44.03
630.323	44.1
630.656	44.12
630.989	44.2
631.322	44.26
631.655	44.31
631.987	44.32
632.32	44.4
632.653	44.45
632.986	44.51
633.318	44.56
633.651	44.58
633.984	44.58
634.316	44.69
634.649	44.65
634.981	44.82
635.313	44.9
635.646	44.92
635.978	44.93
636.31	45.11
636.643	45.07
636.975	45.02
637.307	44.95
637.639	44.94
637.971	44.9
638.303	44.83
638.635	44.9
638.967	44.93
639.299	44.86
639.631	44.81
639.963	44.76
640.295	44.81
640.626	44.75
640.958	44.76
641.29	44.76
641.621	44.79
641.953	44.61
642.285	44.63
642.616	44.67
642.948	44.71
643.279	44.51
643.61	44.59
643.942	44.69
644.273	44.73
644.604	44.66
644.936	44.64
645.267	44.76
645.598	44.66
645.929	44.63
646.26	44.63
646.591	44.72
646.922	44.76
647.253	44.58
647.584	44.67
647.915	44.77
648.245	44.8
648.576	44.88
648.907	44.99
649.238	45.03
649.568	45.1
649.899	45.01
650.229	45.09
650.56	45.15
650.89	45.18
651.221	45.16
651.551	45.27
651.882	45.33
652.212	45.4
652.542	45.56
652.872	45.54
653.203	45.51
653.533	45.4
653.863	45.46
654.193	45.54
654.523	45.54
654.853	45.58
655.183	45.54
655.513	45.55
655.843	45.44
656.172	45.54
656.502	45.44
656.832	45.5
657.162	45.5
657.491	45.52
657.821	45.59
658.15	45.66
658.48	45.7
658.809	45.65
659.139	45.6
659.468	45.56
659.798	45.68
660.127	45.8
660.456	45.84
660.785	45.79
661.115	45.8
661.444	45.81
661.773	45.75
662.102	45.77
662.431	45.77
662.76	45.92
663.089	45.83
663.418	45.95
663.747	45.95
664.076	45.98
664.404	46
664.733	46.04
665.062	46.02
665.39	45.98
665.719	46.06
666.048	46.06
666.376	46.15
666.705	46.06
667.033	46
667.362	46.04
667.69	46.1
668.018	46.24
668.347	46.32
668.675	46.33
669.003	46.33
669.331	46.41
669.659	46.39
669.987	46.42
670.315	46.48
670.643	46.41
670.971	46.53
671.299	46.58
671.627	46.5
671.955	46.52
672.283	46.48
672.61	46.46
672.938	46.44
673.266	46.4
673.593	46.45
673.921	46.6
674.249	46.71
674.576	46.65
674.904	46.61
675.231	46.56
675.558	46.57
675.886	46.58
676.213	46.57
676.54	46.67
676.867	46.68
677.195	46.61
677.522	46.63
677.849	46.58
678.176	46.58
678.503	46.52
678.83	46.49
679.157	46.58
679.484	46.62
679.81	46.61
680.137	46.58
680.464	46.69
680.791	46.53
681.117	46.54
681.444	46.55
681.771	46.56
682.097	46.55
682.424	46.6
682.75	46.61
683.077	46.53
683.403	46.55
683.729	46.45
684.056	46.33
684.382	46.32
684.708	46.21
685.034	46.06
685.36	46.07
685.686	46.17
686.012	46.15
686.339	46.1
686.664	46.15
686.99	46.15
687.316	46.11
687.642	46.4
687.968	46.33
688.294	46.32
688.619	46.32
688.945	46.28
689.271	46.23
689.596	46.23
689.922	46.34
690.247	46.14
690.573	46.27
690.898	46.36
691.224	46.42
691.549	46.5
691.874	46.57
692.2	46.67
692.525	46.57
692.85	46.57
693.175	46.63
693.5	46.65
693.825	46.64
694.15	46.56
694.475	46.35
694.8	46.46
695.125	46.63
695.45	46.75
695.775	46.91
696.099	46.98
696.424	47.04
696.749	46.99
697.073	47.13
697.398	47.15
697.723	47.13
698.047	47.02
698.372	47.12
698.696	47.05
699.02	47.07
699.345	47.13
699.669	47.07
699.993	47.03
700.318	46.96
700.642	46.99
700.966	47.04
701.29	47.16
701.614	47.16
701.938	47.17
702.262	47.02
702.586	46.94
702.91	46.98
703.234	46.98
703.557	46.91
703.881	46.77
704.205	46.61
704.529	46.85
704.852	47.02
705.176	46.78
705.499	46.88
705.823	46.92
706.146	46.95
706.47	47.04
706.793	47.05
707.117	47.39
707.44	47.31
707.763	47.26
708.086	47.26
708.409	47.09
708.733	46.86
709.056	46.97
709.379	46.88
709.702	46.77
710.025	46.64
710.348	46.7
710.671	46.77
710.993	46.92
711.316	46.63
711.639	46.62
711.962	46.7
712.284	46.58
712.607	46.51
712.93	46.5
713.252	46.44
713.575	46.56
713.897	46.29
714.22	46.28
714.542	46.16
714.864	45.98
715.187	46.02
715.509	46.18
715.831	46.23
716.153	46.37
716.475	46.42
716.798	46.5
717.12	46.49
717.442	46.47
717.764	46.3
718.085	46.38
718.407	46.59
718.729	46.64
719.051	46.8
719.373	46.82
719.695	46.94
720.016	47.19
720.338	47.22
720.659	47.38
720.981	47.35
721.302	47.66
721.624	47.98
721.945	48.17
722.267	48.05
722.588	47.86
722.909	47.65
723.231	47.48
723.552	47.41
723.873	47.57
724.194	47.63
724.515	47.76
724.836	47.91
725.157	47.94
725.478	47.97
725.799	47.9
726.12	47.79
726.441	47.73
726.762	47.64
727.083	47.3
727.403	47.16
727.724	47.36
728.045	47.26
728.365	46.99
728.686	46.83
729.006	46.83
729.327	46.96
729.647	47
729.967	47.07
730.288	47.11
730.608	46.99
730.928	47.11
731.249	46.95
731.569	46.78
731.889	46.49
732.209	46.19
732.529	46.15
732.849	46.29
733.169	46.11
733.489	45.99
733.809	46.13
734.129	46.28
734.448	46.19
734.768	46.06
735.088	46.01
735.408	45.89
735.727	45.94
736.047	45.82
736.366	45.63
736.686	45.56
737.005	45.65
737.325	45.85
737.644	45.54
737.963	45.93
738.283	45.93
738.602	46.18
738.921	46.44
739.24	46.65
739.56	46.73
739.879	46.62
740.198	46.56
740.517	46.55
740.836	46.62
741.155	46.71
741.473	46.79
741.792	47.09
742.111	47.31
742.43	47.47
742.748	47.34
743.067	47.69
743.386	47.76
743.704	47.56
744.023	47.55
744.341	47.59
744.66	46.99
744.978	47.14
745.297	46.8
745.615	46.76
745.933	46.72
746.252	46.76
746.57	46.94
746.888	47.26
747.206	47.49
747.524	47.27
747.842	47.31
748.16	47.2
748.478	47
748.796	46.94
749.114	46.83
749.432	46.87
749.749	46.82
750.067	46.71
750.385	46.94
750.703	46.76
751.02	46.91
751.338	46.94
751.655	46.64
751.973	46.78
752.29	46.77
752.608	46.55
752.925	46.76
753.242	46.83
753.56	46.74
753.877	46.36
754.194	46.63
754.511	46.45
754.828	46.57
755.145	46.61
755.462	46.39
755.779	46.38
756.096	46.48
756.413	46.53
756.73	46.7
757.047	46.5
757.364	46.36
757.68	46.64
757.997	47.2
758.314	47.87
758.63	47.61
758.947	47.62
759.264	47.91
759.58	47.44
759.896	47.24
760.213	47.42
760.529	47.73
760.846	47.59
761.162	47.59
761.478	47.62
761.794	47.55
762.11	47.38
762.426	47.29
762.743	47.18
763.059	47.05
763.375	47.18
763.69	47.14
764.006	47.37
764.322	47.16
764.638	47.26
764.954	47.07
765.27	47.46
765.585	47.61
765.901	47.22
766.216	47.21
766.532	47.25
766.848	47.02
767.163	46.84
767.478	46.48
767.794	46.29
768.109	46.28
768.424	46.39
768.74	46.89
769.055	46.96
769.37	47.3
769.685	47.44
770	47.35
770.315	47.61
770.63	47.19
770.945	47.42
771.26	46.93
771.575	46.87
771.89	46.74
772.205	46.4
772.52	46.91
772.834	46.99
773.149	47.33
773.464	47.18
773.778	47.55
774.093	47.86
774.407	47.77
774.722	47.85
775.036	47.84
775.351	47.78
775.665	48.05
775.979	47.84
776.293	47.92
776.608	47.71
776.922	47.18
777.236	47.55
777.55	47.2
777.864	47.18
778.178	46.79
778.492	46.96
778.806	47.26
779.12	47.04
779.434	46.89
779.747	46.91
780.061	47.24
780.375	46.67
780.689	47.03
781.002	47.13
781.316	47.14
781.629	47.3
781.943	47.38
782.256	46.82
782.57	46.49
782.883	46.61
783.196	47.01
783.51	47.63
783.823	47.55
784.136	47.44
784.449	47.47
784.762	48.02
785.075	47.62
785.388	47.81
785.701	47.44
786.014	47.89
786.327	47.48
786.64	47.55
786.953	48.33
787.266	48.03
787.578	48.07
787.891	47.91
788.204	47.83
788.516	47.77
788.829	47.97
789.141	48.22
789.454	48.25
789.766	47.99
790.079	47.38
790.391	47.18
790.703	47.52
791.016	47.39
791.328	46.93
791.64	46.82
791.952	46.58
792.264	47.45
792.576	46.54
792.888	46.87
793.2	46.31
793.512	45.69
793.824	45.69
794.136	45.55
794.448	45.57
794.76	45.41
795.071	45.24
795.383	45.23
795.695	44.72
796.006	44.05
796.318	44.3
796.629	44.49
796.941	44.43
797.252	44.7
797.564	45.03
797.875	45.39
798.186	45.85
798.497	45.94
798.809	45.66
799.12	46.27
799.431	46.12
799.742	46.59
800.053	46.31
800.364	46.41
800.675	47.18
800.986	47.42
801.297	47.15
801.608	47.5
801.918	47.7
802.229	48.46
802.54	48.6
802.851	48.24
803.161	48.41
803.472	48.66
803.782	48.33
804.093	48.46
804.403	48.7
804.714	48.57
805.024	48.54
805.334	48.44
805.645	48.87
805.955	48.53
806.265	48.95
806.575	48.97
806.885	48.64
807.195	48.36
807.505	48.23
807.815	48.95
808.125	48.51
808.435	47.53
808.745	47.39
809.055	47.6
809.365	48.15
809.674	48.21
809.984	48.1
810.294	48.29
810.603	48.14
810.913	47.48
811.222	47.5
811.532	47.74
811.841	47.94
812.151	47.86
812.46	47.74
812.769	46.86
813.079	47.26
813.388	47.34
813.697	47.1
814.006	46.78
814.315	45.83
814.624	45.82
814.933	46.42
815.242	46.55
815.551	46.97
815.86	47.08
816.169	46.3
816.478	46.29
816.786	45.52
817.095	45.69
817.404	45.92
817.712	46.04
818.021	46.27
818.33	46.62
818.638	46.17
818.947	46.51
819.255	46.57
819.563	47.33
819.872	47.95
820.18	47.97
820.488	47.89
820.796	48.45
821.105	48.66
821.413	49.13
821.721	49.06
822.029	49.04
822.337	48.96
822.645	49.3
822.953	49.5
823.26	49.51
823.568	49.39
823.876	49.57
824.184	49.52
824.491	49.49
824.799	49.42
825.107	49.63
825.414	49.84
825.722	49.99
826.029	49.75
826.337	49.41
826.644	49.52
826.951	49.78
827.259	49.48
827.566	49.48
827.873	49.2
828.18	49.4
828.488	49.3
828.795	49.19
829.102	48.86
829.409	48.67
829.716	48.87
830.023	49.09
830.329	49.02
830.636	48.62
830.943	48.6
831.25	48.56
831.557	47.82
831.863	47.71
832.17	47.86
832.476	48
832.783	48.41
833.089	48.09
833.396	47.7
833.702	47.99
834.009	48.22
834.315	48.5
834.621	48.15
834.928	48.36
835.234	47.95
835.54	48.19
835.846	47.76
836.152	47.82
836.458	47.58
836.764	47.09
837.07	47.69
837.376	47.64
837.682	47.29
837.988	47.83
838.293	47.33
838.599	47.49
838.905	47.29
839.211	47.13
839.516	47.45
839.822	47.63
840.127	47.32
840.433	46.64
840.738	46.67
841.044	46.55
841.349	45.91
841.654	46.28
841.959	45.76
842.265	46.51
842.57	46.3
842.875	46.69
843.18	46.86
843.485	46.69
843.79	45.93
844.095	46.43
844.4	46.77
844.705	47.13
845.01	45.75
845.315	45.79
845.619	44.96
845.924	45.49
846.229	45.08
846.533	45.6
846.838	44.67
847.142	42.43
847.447	42.5
847.751	42
848.056	42.04
848.36	44.06
848.664	44.85
848.969	43.54
849.273	41.23
849.577	40.32
849.881	40.03
850.185	40.8
850.489	41.61
850.794	41.07
851.097	40.98
851.401	39.95
851.705	41.05
852.009	41.76
852.313	38.79
852.617	37.83
852.92	37.27
853.224	38.23
853.528	38.55
853.831	40.08
854.135	40.33
854.438	42.24
854.742	41.69
855.045	40.14
855.349	41.47
855.652	41.93
855.955	41.81
856.259	42.98
856.562	43.48
856.865	43.61
857.168	44.57
857.471	44.07
857.774	46.64
858.077	45.14
858.38	44.26
858.683	48.1
858.986	48.41
859.289	47.99
859.592	49.75
859.894	52.02
860.197	49.86
860.5	51.48
860.802	49.12
861.105	47.21
861.407	48
861.71	45.43
862.012	46.44
862.315	47.98
862.617	46.7
862.919	44.27
863.222	42.9
863.524	41.13
863.826	41.69
864.128	41.59
864.43	41.67
864.732	43.66
865.034	42.16
865.336	42.53
865.638	42.43
865.94	42.29
866.242	40.44
866.544	42.11
866.846	42.81
867.147	42.67
867.449	45.82
867.751	44.87
868.052	46.44
868.354	45.82
868.655	44.9
868.957	46.6
869.258	46.06
869.56	47.55
869.861	48.41
870.162	47.94
870.463	47.61
870.765	47.97
871.066	46.36
871.367	44.65
871.668	46.17
871.969	45.71
872.27	46.76
872.571	46.88
872.872	45.08
873.173	44.75
873.473	45.36
873.774	42.67
874.075	44.27
874.376	45.86
874.676	48.3
874.977	48.58
875.277	47.35
875.578	48.33
875.878	46.86
876.179	47.52
876.479	47.93
876.78	46.79
877.08	47.16
877.38	48.3
877.68	50.49
877.981	49.33
878.281	52.07
878.581	47.73
