Data from MVZ_BU57658_Reflection_00002.txt Node
Date: Tue Nov 19 12:13:16 EST 2019
User: vgr7
Spectrometer: USB2G7710
Scans to average: 3
Trigger mode: 4
Integration Time (sec): 2.000000E-2
Electric dark correction enabled: true
Boxcar width: 10
XAxis mode: Wavelengths
Number of Pixels in Spectrum: 2048
>>>>>Begin Spectral Data<<<<<
177.721	-682.49
178.105	-514.04
178.488	-322.74
178.871	-128.33
179.254	-346.67
179.636	266.67
180.019	-19.05
180.402	-25
180.785	-133.33
181.168	-79.2
181.55	-56.98
181.933	-8.38
182.316	-17.47
182.698	-5
183.081	-20.31
183.463	-19.43
183.846	6.01
184.228	28.79
184.611	47.56
184.993	7.41
185.376	54.31
185.758	63.35
186.14	96.12
186.522	150.14
186.904	66.67
187.287	60.48
187.669	-10.67
188.051	59.08
188.433	212.61
188.815	-304.21
189.197	-308.42
189.579	-136.43
189.961	-145.85
190.342	-61.84
190.724	-54.26
191.106	-52.54
191.488	-45.46
191.869	-22.09
192.251	-11.04
192.633	-13.35
193.014	-28.22
193.396	-13.82
193.777	-13.16
194.159	-14.95
194.54	-27.2
194.922	-40.62
195.303	-41.03
195.684	-33.41
196.065	-8.4
196.447	12.41
196.828	53.47
197.209	57.39
197.59	84.16
197.971	137.75
198.352	-1437.04
198.733	287.94
199.114	-94.84
199.495	993.94
199.876	512.28
200.257	10933.33
200.638	-892.06
201.018	-598.2
201.399	-280.15
201.78	-300.43
202.16	-893.33
202.541	-1713.73
202.922	1625.64
203.302	79.06
203.683	35.56
204.063	23.86
204.444	2.86
204.824	-3.12
205.204	1.31
205.585	4.82
205.965	27.39
206.345	30.31
206.725	32.56
207.106	33.39
207.486	35.36
207.866	38.22
208.246	44
208.626	36.33
209.006	18.83
209.386	28.09
209.766	69.14
210.145	82.09
210.525	124.44
210.905	134.28
211.285	204.55
211.664	462.75
212.044	560.2
212.424	-4019.05
212.803	-438.25
213.183	-695.24
213.562	202.47
213.942	141.97
214.321	152.55
214.701	48.91
215.08	-19.36
215.459	-37.79
215.838	-104.81
216.218	-112.31
216.597	-67.54
216.976	-70.55
217.355	-64.75
217.734	-68.58
218.113	-68.24
218.492	-53.87
218.871	-62.66
219.25	-74.76
219.629	-89.67
220.008	-86.68
220.387	-63.91
220.766	-38.46
221.144	-38.02
221.523	-50.75
221.902	-45.53
222.28	-31.98
222.659	-10.53
223.037	-2.48
223.416	5.38
223.794	15.89
224.173	14.44
224.551	16.93
224.929	28.04
225.308	24.4
225.686	15.6
226.064	18.79
226.442	12.76
226.821	17.1
227.199	21.09
227.577	24.75
227.955	26.39
228.333	21.62
228.711	22.39
229.089	20.46
229.467	23.33
229.845	23.35
230.222	22.76
230.6	21.01
230.978	22.12
231.356	20.06
231.733	19.32
232.111	20.29
232.488	18.28
232.866	17.29
233.243	17.78
233.621	19.67
233.998	20.74
234.376	20.69
234.753	19.38
235.13	16.75
235.508	14.92
235.885	14.22
236.262	13.65
236.639	10.79
237.016	10.66
237.393	10.81
237.77	11.32
238.147	10.46
238.524	9.51
238.901	8.19
239.278	7.39
239.655	7.12
240.032	6.17
240.409	6.13
240.785	5.87
241.162	5.61
241.539	5.46
241.915	5.52
242.292	5.9
242.668	5.53
243.045	5.35
243.421	5.26
243.798	5.1
244.174	4.94
244.551	5.37
244.927	5.14
245.303	4.52
245.679	4.09
246.056	4.15
246.432	3.68
246.808	3.93
247.184	3.96
247.56	3.69
247.936	3.94
248.312	3.86
248.688	3.79
249.064	3.78
249.44	3.72
249.815	3.5
250.191	3.32
250.567	3.16
250.943	3.39
251.318	2.94
251.694	2.77
252.069	2.83
252.445	2.38
252.82	2.55
253.196	2.63
253.571	2.86
253.947	2.6
254.322	2.97
254.697	2.89
255.073	2.94
255.448	3.2
255.823	3.31
256.198	3.42
256.573	3.49
256.948	3.48
257.323	3.28
257.698	3.17
258.073	3.13
258.448	3.34
258.823	3.11
259.198	3.36
259.573	3.46
259.948	3.37
260.322	3.41
260.697	3.34
261.072	3.39
261.446	3.49
261.821	3.32
262.195	3.42
262.57	3.43
262.944	3.43
263.319	3.34
263.693	3.34
264.067	3.4
264.442	3.36
264.816	3.42
265.19	3.52
265.564	3.62
265.938	3.52
266.313	3.32
266.687	3.2
267.061	3.14
267.435	2.98
267.809	3.18
268.183	3.06
268.556	3.12
268.93	3.37
269.304	3.09
269.678	3.15
270.051	2.96
270.425	3.05
270.799	2.88
271.172	2.92
271.546	3
271.919	2.85
272.293	2.93
272.666	2.87
273.04	2.92
273.413	3.03
273.787	3.11
274.16	3.26
274.533	3.49
274.906	3.49
275.279	3.49
275.653	3.42
276.026	3.45
276.399	3.46
276.772	3.28
277.145	3.38
277.518	3.5
277.891	3.57
278.263	3.55
278.636	3.84
279.009	3.85
279.382	3.75
279.755	3.75
280.127	3.78
280.5	3.84
280.872	3.78
281.245	3.58
281.617	3.55
281.99	3.45
282.362	3.43
282.735	3.47
283.107	3.35
283.479	3.3
283.852	3.36
284.224	3.31
284.596	3.34
284.968	3.15
285.34	3.15
285.713	3.27
286.085	3.17
286.457	3.16
286.829	3.16
287.201	3.16
287.572	3.27
287.944	3.11
288.316	3.1
288.688	3.2
289.06	3.33
289.431	3.37
289.803	3.43
290.175	3.4
290.546	3.33
290.918	3.44
291.289	3.29
291.661	3.35
292.032	3.4
292.403	3.21
292.775	3.26
293.146	3.3
293.517	3.25
293.889	3.25
294.26	3.13
294.631	3.2
295.002	3.18
295.373	3.22
295.744	3.48
296.115	3.48
296.486	3.44
296.857	3.38
297.228	3.3
297.599	3.29
297.97	3.32
298.34	3.45
298.711	3.51
299.082	3.73
299.452	3.51
299.823	3.53
300.194	3.74
300.564	3.87
300.935	3.93
301.305	3.85
301.676	3.73
302.046	3.79
302.416	3.6
302.787	3.62
303.157	3.6
303.527	3.54
303.897	3.5
304.267	3.43
304.637	3.45
305.008	3.61
305.378	3.42
305.748	3.33
306.117	3.36
306.487	3.44
306.857	3.32
307.227	3.49
307.597	3.47
307.967	3.37
308.336	3.32
308.706	3.27
309.076	3.39
309.445	3.65
309.815	3.64
310.184	3.72
310.554	3.63
310.923	3.35
311.293	3.23
311.662	3.33
312.031	3.4
312.401	3.26
312.77	3.19
313.139	3.34
313.508	3.4
313.877	3.29
314.246	3.19
314.616	3.3
314.985	3.29
315.353	3.34
315.722	3.33
316.091	3.35
316.46	3.31
316.829	3.31
317.198	3.24
317.567	3.39
317.935	3.49
318.304	3.69
318.672	3.95
319.041	4.1
319.41	4.02
319.778	3.95
320.147	4.15
320.515	4.15
320.883	4.22
321.252	4.16
321.62	4.21
321.988	4.13
322.357	3.89
322.725	3.85
323.093	3.8
323.461	3.89
323.829	3.82
324.197	3.71
324.565	3.64
324.933	3.61
325.301	3.34
325.669	3.36
326.037	3.25
326.405	3.31
326.772	3.21
327.14	3.12
327.508	3.03
327.875	2.9
328.243	2.73
328.61	2.7
328.978	2.59
329.346	2.63
329.713	2.82
330.08	2.91
330.448	2.86
330.815	2.87
331.182	2.87
331.55	2.93
331.917	3.1
332.284	3.23
332.651	3.24
333.018	3.41
333.385	3.28
333.752	3.15
334.119	3.06
334.486	3.05
334.853	3.14
335.22	3.2
335.587	3.27
335.954	3.44
336.32	3.4
336.687	3.52
337.054	3.49
337.42	3.39
337.787	3.34
338.153	3.43
338.52	3.48
338.886	3.46
339.253	3.42
339.619	3.34
339.986	3.12
340.352	3.12
340.718	2.98
341.084	2.95
341.451	3.03
341.817	3.11
342.183	3
342.549	3.05
342.915	3.08
343.281	3.05
343.647	3.06
344.013	3.11
344.379	3.12
344.745	3.16
345.11	3.1
345.476	3.22
345.842	3.26
346.208	3.22
346.573	3.2
346.939	3.21
347.304	3.27
347.67	3.38
348.035	3.35
348.401	3.58
348.766	3.63
349.132	3.68
349.497	3.67
349.862	3.7
350.228	3.69
350.593	3.63
350.958	3.74
351.323	3.68
351.688	3.63
352.053	3.59
352.418	3.61
352.783	3.63
353.148	3.55
353.513	3.51
353.878	3.43
354.243	3.36
354.608	3.3
354.972	3.17
355.337	3.24
355.702	3.22
356.066	3.13
356.431	3.07
356.795	3.02
357.16	2.99
357.524	3.01
357.889	2.92
358.253	2.97
358.618	2.99
358.982	2.98
359.346	2.98
359.71	2.99
360.075	2.97
360.439	3.01
360.803	3.03
361.167	2.99
361.531	3.02
361.895	3.05
362.259	3.11
362.623	3.15
362.987	3.1
363.351	3.05
363.714	3.09
364.078	3.19
364.442	3.22
364.806	3.25
365.169	3.24
365.533	3.28
365.896	3.32
366.26	3.22
366.623	3.19
366.987	3.21
367.35	3.23
367.714	3.23
368.077	3.22
368.44	3.27
368.803	3.3
369.167	3.24
369.53	3.25
369.893	3.2
370.256	3.17
370.619	3.12
370.982	3.19
371.345	3.16
371.708	3.12
372.071	3.05
372.434	3.02
372.797	3.04
373.159	3.05
373.522	2.99
373.885	3.1
374.247	3.14
374.61	3.09
374.973	3.05
375.335	3.06
375.698	2.99
376.06	2.95
376.423	2.96
376.785	3.02
377.147	3.07
377.51	3.1
377.872	3.18
378.234	3.28
378.596	3.32
378.958	3.34
379.321	3.37
379.683	3.46
380.045	3.49
380.407	3.45
380.769	3.38
381.13	3.43
381.492	3.35
381.854	3.41
382.216	3.49
382.578	3.49
382.939	3.5
383.301	3.52
383.663	3.64
384.024	3.61
384.386	3.56
384.747	3.48
385.109	3.49
385.47	3.51
385.832	3.46
386.193	3.41
386.554	3.32
386.916	3.32
387.277	3.28
387.638	3.3
387.999	3.32
388.36	3.39
388.721	3.38
389.082	3.4
389.443	3.41
389.804	3.4
390.165	3.37
390.526	3.34
390.887	3.36
391.248	3.26
391.609	3.25
391.969	3.29
392.33	3.32
392.691	3.3
393.051	3.25
393.412	3.26
393.772	3.31
394.133	3.36
394.493	3.3
394.854	3.32
395.214	3.3
395.574	3.26
395.935	3.29
396.295	3.24
396.655	3.19
397.015	3.14
397.376	3.1
397.736	3.12
398.096	3.15
398.456	3.13
398.816	3.11
399.176	3.08
399.535	3.09
399.895	3.07
400.255	3.05
400.615	3.07
400.975	3.05
401.334	2.98
401.694	2.94
402.054	2.96
402.413	2.93
402.773	2.93
403.132	2.95
403.492	2.89
403.851	2.92
404.211	2.95
404.57	2.97
404.929	2.98
405.288	3
405.648	3.01
406.007	3.01
406.366	3.06
406.725	3.09
407.084	3.06
407.443	3.08
407.802	3.09
408.161	3.1
408.52	3.12
408.879	3.14
409.238	3.16
409.596	3.14
409.955	3.17
410.314	3.2
410.673	3.17
411.031	3.19
411.39	3.18
411.748	3.19
412.107	3.19
412.465	3.17
412.824	3.14
413.182	3.1
413.54	3.12
413.899	3.12
414.257	3.1
414.615	3.13
414.974	3.1
415.332	3.12
415.69	3.12
416.048	3.1
416.406	3.11
416.764	3.13
417.122	3.13
417.48	3.12
417.838	3.11
418.195	3.14
418.553	3.15
418.911	3.14
419.269	3.13
419.626	3.12
419.984	3.12
420.342	3.14
420.699	3.15
421.057	3.14
421.414	3.13
421.772	3.14
422.129	3.14
422.486	3.16
422.844	3.15
423.201	3.15
423.558	3.16
423.915	3.16
424.273	3.15
424.63	3.18
424.987	3.18
425.344	3.17
425.701	3.15
426.058	3.16
426.415	3.17
426.772	3.16
427.128	3.17
427.485	3.18
427.842	3.18
428.199	3.19
428.555	3.21
428.912	3.2
429.269	3.19
429.625	3.19
429.982	3.2
430.338	3.2
430.695	3.16
431.051	3.17
431.407	3.19
431.764	3.16
432.12	3.17
432.476	3.17
432.832	3.19
433.189	3.19
433.545	3.17
433.901	3.16
434.257	3.19
434.613	3.17
434.969	3.16
435.325	3.16
435.681	3.15
436.036	3.16
436.392	3.19
436.748	3.19
437.104	3.18
437.459	3.17
437.815	3.19
438.171	3.23
438.526	3.22
438.882	3.2
439.237	3.19
439.593	3.18
439.948	3.17
440.304	3.16
440.659	3.19
441.014	3.18
441.369	3.18
441.725	3.17
442.08	3.18
442.435	3.2
442.79	3.19
443.145	3.19
443.5	3.18
443.855	3.16
444.21	3.18
444.565	3.18
444.92	3.19
445.275	3.18
445.629	3.17
445.984	3.17
446.339	3.18
446.693	3.21
447.048	3.2
447.403	3.21
447.757	3.21
448.112	3.2
448.466	3.21
448.82	3.2
449.175	3.21
449.529	3.22
449.883	3.22
450.238	3.23
450.592	3.21
450.946	3.2
451.3	3.22
451.654	3.19
452.008	3.19
452.362	3.18
452.716	3.19
453.07	3.18
453.424	3.21
453.778	3.21
454.132	3.21
454.486	3.24
454.839	3.24
455.193	3.26
455.547	3.27
455.9	3.26
456.254	3.27
456.607	3.27
456.961	3.28
457.314	3.26
457.668	3.27
458.021	3.29
458.375	3.29
458.728	3.29
459.081	3.31
459.434	3.31
459.787	3.3
460.141	3.3
460.494	3.31
460.847	3.3
461.2	3.26
461.553	3.27
461.906	3.23
462.259	3.22
462.611	3.19
462.964	3.2
463.317	3.21
463.67	3.22
464.022	3.2
464.375	3.19
464.728	3.21
465.08	3.2
465.433	3.2
465.785	3.21
466.138	3.22
466.49	3.22
466.843	3.24
467.195	3.28
467.547	3.28
467.899	3.28
468.252	3.28
468.604	3.3
468.956	3.31
469.308	3.34
469.66	3.36
470.012	3.39
470.364	3.39
470.716	3.39
471.068	3.39
471.42	3.4
471.772	3.4
472.123	3.39
472.475	3.4
472.827	3.41
473.178	3.39
473.53	3.38
473.882	3.37
474.233	3.35
474.585	3.33
474.936	3.33
475.288	3.32
475.639	3.34
475.99	3.35
476.342	3.35
476.693	3.36
477.044	3.36
477.395	3.38
477.746	3.38
478.097	3.37
478.448	3.36
478.8	3.37
479.15	3.36
479.501	3.34
479.852	3.33
480.203	3.31
480.554	3.33
480.905	3.32
481.255	3.34
481.606	3.36
481.957	3.37
482.307	3.38
482.658	3.38
483.009	3.37
483.359	3.38
483.709	3.38
484.06	3.37
484.41	3.37
484.761	3.37
485.111	3.37
485.461	3.37
485.811	3.37
486.162	3.38
486.512	3.37
486.862	3.38
487.212	3.38
487.562	3.39
487.912	3.38
488.262	3.39
488.612	3.38
488.961	3.37
489.311	3.37
489.661	3.36
490.011	3.36
490.36	3.37
490.71	3.36
491.06	3.36
491.409	3.36
491.759	3.35
492.108	3.34
492.458	3.33
492.807	3.32
493.157	3.33
493.506	3.33
493.855	3.34
494.204	3.35
494.554	3.37
494.903	3.36
495.252	3.38
495.601	3.39
495.95	3.38
496.299	3.38
496.648	3.38
496.997	3.4
497.346	3.41
497.695	3.39
498.043	3.42
498.392	3.41
498.741	3.41
499.09	3.44
499.438	3.46
499.787	3.47
500.135	3.5
500.484	3.51
500.832	3.49
501.181	3.5
501.529	3.55
501.878	3.55
502.226	3.58
502.574	3.58
502.923	3.58
503.271	3.61
503.619	3.62
503.967	3.62
504.315	3.63
504.663	3.63
505.011	3.63
505.359	3.6
505.707	3.61
506.055	3.63
506.403	3.64
506.751	3.67
507.098	3.69
507.446	3.69
507.794	3.7
508.141	3.71
508.489	3.72
508.837	3.66
509.184	3.67
509.531	3.67
509.879	3.66
510.226	3.66
510.574	3.67
510.921	3.68
511.268	3.7
511.616	3.69
511.963	3.69
512.31	3.73
512.657	3.75
513.004	3.73
513.351	3.72
513.698	3.7
514.045	3.69
514.392	3.68
514.739	3.68
515.086	3.7
515.432	3.7
515.779	3.7
516.126	3.74
516.473	3.75
516.819	3.76
517.166	3.79
517.512	3.79
517.859	3.8
518.205	3.79
518.552	3.79
518.898	3.8
519.245	3.82
519.591	3.8
519.937	3.8
520.283	3.81
520.629	3.81
520.976	3.83
521.322	3.83
521.668	3.84
522.014	3.85
522.36	3.85
522.706	3.85
523.052	3.85
523.398	3.83
523.743	3.83
524.089	3.81
524.435	3.81
524.781	3.82
525.126	3.82
525.472	3.83
525.817	3.83
526.163	3.82
526.509	3.82
526.854	3.83
527.199	3.83
527.545	3.83
527.89	3.85
528.235	3.85
528.581	3.85
528.926	3.86
529.271	3.84
529.616	3.85
529.961	3.85
530.306	3.84
530.651	3.85
530.996	3.86
531.341	3.87
531.686	3.88
532.031	3.88
532.376	3.88
532.721	3.87
533.065	3.88
533.41	3.89
533.755	3.89
534.099	3.89
534.444	3.89
534.788	3.88
535.133	3.88
535.477	3.87
535.822	3.87
536.166	3.86
536.51	3.86
536.855	3.84
537.199	3.85
537.543	3.86
537.887	3.85
538.231	3.85
538.576	3.85
538.92	3.84
539.264	3.86
539.608	3.86
539.951	3.87
540.295	3.87
540.639	3.88
540.983	3.88
541.327	3.88
541.671	3.89
542.014	3.91
542.358	3.9
542.701	3.9
543.045	3.9
543.389	3.89
543.732	3.9
544.075	3.92
544.419	3.92
544.762	3.92
545.105	3.94
545.449	3.96
545.792	3.97
546.135	3.97
546.478	3.95
546.821	3.96
547.165	3.95
547.508	3.95
547.851	3.96
548.194	3.96
548.536	3.94
548.879	3.94
549.222	3.95
549.565	3.95
549.908	3.96
550.25	3.94
550.593	3.95
550.936	3.96
551.278	3.96
551.621	3.93
551.963	3.95
552.306	3.94
552.648	3.91
552.991	3.91
553.333	3.94
553.675	3.94
554.017	3.95
554.36	3.94
554.702	3.92
555.044	3.9
555.386	3.89
555.728	3.92
556.07	3.92
556.412	3.89
556.754	3.89
557.096	3.91
557.438	3.92
557.78	3.92
558.121	3.93
558.463	3.93
558.805	3.97
559.147	3.94
559.488	3.93
559.83	3.97
560.171	3.93
560.513	3.91
560.854	3.93
561.196	3.95
561.537	4
561.878	4.03
562.22	4.04
562.561	4.08
562.902	4.11
563.243	4.11
563.584	4.13
563.925	4.16
564.266	4.15
564.607	4.16
564.948	4.17
565.289	4.23
565.63	4.23
565.971	4.21
566.312	4.2
566.653	4.21
566.993	4.15
567.334	4.19
567.675	4.17
568.015	4.14
568.356	4.09
568.696	4.06
569.037	4.02
569.377	4.02
569.718	3.99
570.058	3.98
570.398	3.97
570.739	3.96
571.079	3.95
571.419	3.94
571.759	3.95
572.099	3.97
572.439	3.95
572.779	3.94
573.119	3.94
573.459	3.99
573.799	3.98
574.139	4.03
574.479	4.02
574.819	4.04
575.158	4.07
575.498	4.08
575.838	4.11
576.177	4.13
576.517	4.14
576.856	4.19
577.196	4.2
577.535	4.21
577.875	4.22
578.214	4.24
578.553	4.28
578.893	4.29
579.232	4.27
579.571	4.28
579.91	4.26
580.25	4.27
580.589	4.26
580.928	4.26
581.267	4.28
581.606	4.23
581.945	4.22
582.283	4.25
582.622	4.28
582.961	4.24
583.3	4.27
583.639	4.25
583.977	4.19
584.316	4.19
584.654	4.19
584.993	4.21
585.332	4.19
585.67	4.17
586.008	4.16
586.347	4.16
586.685	4.11
587.024	4.13
587.362	4.13
587.7	4.14
588.038	4.18
588.376	4.15
588.715	4.25
589.053	4.31
589.391	4.34
589.729	4.32
590.067	4.37
590.404	4.35
590.742	4.36
591.08	4.41
591.418	4.42
591.756	4.44
592.093	4.4
592.431	4.39
592.769	4.36
593.106	4.4
593.444	4.39
593.781	4.4
594.119	4.38
594.456	4.38
594.793	4.36
595.131	4.37
595.468	4.39
595.805	4.32
596.143	4.27
596.48	4.25
596.817	4.27
597.154	4.28
597.491	4.26
597.828	4.25
598.165	4.21
598.502	4.17
598.839	4.2
599.176	4.22
599.512	4.22
599.849	4.25
600.186	4.2
600.523	4.2
600.859	4.21
601.196	4.24
601.532	4.26
601.869	4.23
602.205	4.2
602.542	4.16
602.878	4.18
603.215	4.18
603.551	4.19
603.887	4.2
604.223	4.18
604.56	4.22
604.896	4.27
605.232	4.27
605.568	4.31
605.904	4.29
606.24	4.3
606.576	4.33
606.912	4.3
607.248	4.35
607.583	4.33
607.919	4.31
608.255	4.33
608.591	4.31
608.926	4.36
609.262	4.37
609.597	4.42
609.933	4.43
610.268	4.48
610.604	4.45
610.939	4.47
611.275	4.45
611.61	4.41
611.945	4.38
612.281	4.4
612.616	4.39
612.951	4.41
613.286	4.4
613.621	4.38
613.956	4.45
614.291	4.4
614.626	4.41
614.961	4.46
615.296	4.45
615.631	4.51
615.966	4.5
616.3	4.55
616.635	4.46
616.97	4.47
617.304	4.44
617.639	4.47
617.973	4.4
618.308	4.42
618.642	4.45
618.977	4.39
619.311	4.37
619.646	4.37
619.98	4.39
620.314	4.38
620.648	4.4
620.983	4.43
621.317	4.44
621.651	4.54
621.985	4.53
622.319	4.55
622.653	4.56
622.987	4.53
623.321	4.51
623.655	4.56
623.988	4.57
624.322	4.57
624.656	4.55
624.99	4.54
625.323	4.57
625.657	4.59
625.99	4.7
626.324	4.67
626.657	4.67
626.991	4.64
627.324	4.64
627.658	4.65
627.991	4.62
628.324	4.6
628.657	4.54
628.991	4.5
629.324	4.49
629.657	4.48
629.99	4.54
630.323	4.53
630.656	4.53
630.989	4.52
631.322	4.49
631.655	4.49
631.987	4.55
632.32	4.57
632.653	4.58
632.986	4.47
633.318	4.52
633.651	4.54
633.984	4.54
634.316	4.59
634.649	4.59
634.981	4.53
635.313	4.62
635.646	4.64
635.978	4.7
636.31	4.67
636.643	4.63
636.975	4.58
637.307	4.53
637.639	4.52
637.971	4.53
638.303	4.55
638.635	4.61
638.967	4.57
639.299	4.5
639.631	4.45
639.963	4.47
640.295	4.53
640.626	4.47
640.958	4.52
641.29	4.48
641.621	4.5
641.953	4.51
642.285	4.49
642.616	4.47
642.948	4.42
643.279	4.41
643.61	4.43
643.942	4.47
644.273	4.54
644.604	4.55
644.936	4.48
645.267	4.45
645.598	4.41
645.929	4.35
646.26	4.39
646.591	4.46
646.922	4.46
647.253	4.37
647.584	4.41
647.915	4.4
648.245	4.44
648.576	4.43
648.907	4.45
649.238	4.4
649.568	4.42
649.899	4.47
650.229	4.53
650.56	4.56
650.89	4.58
651.221	4.58
651.551	4.65
651.882	4.69
652.212	4.72
652.542	4.74
652.872	4.81
653.203	4.78
653.533	4.73
653.863	4.81
654.193	4.86
654.523	4.88
654.853	4.92
655.183	4.87
655.513	4.91
655.843	4.9
656.172	4.96
656.502	4.95
656.832	4.9
657.162	4.84
657.491	4.82
657.821	4.77
658.15	4.78
658.48	4.8
658.809	4.81
659.139	4.81
659.468	4.8
659.798	4.84
660.127	4.88
660.456	4.85
660.785	4.75
661.115	4.7
661.444	4.71
661.773	4.66
662.102	4.68
662.431	4.69
662.76	4.77
663.089	4.72
663.418	4.73
663.747	4.74
664.076	4.87
664.404	4.89
664.733	4.87
665.062	4.84
665.39	4.75
665.719	4.73
666.048	4.72
666.376	4.7
666.705	4.68
667.033	4.67
667.362	4.67
667.69	4.83
668.018	4.81
668.347	4.88
668.675	4.84
669.003	4.86
669.331	4.76
669.659	4.75
669.987	4.72
670.315	4.76
670.643	4.84
670.971	4.79
671.299	4.83
671.627	4.91
671.955	4.91
672.283	5.02
672.61	4.98
672.938	5.07
673.266	5.05
673.593	4.92
673.921	4.89
674.249	5
674.576	4.82
674.904	4.81
675.231	4.71
675.558	4.79
675.886	4.82
676.213	4.84
676.54	4.83
676.867	4.9
677.195	4.88
677.522	4.89
677.849	4.86
678.176	4.87
678.503	4.87
678.83	4.9
679.157	4.83
679.484	4.87
679.81	4.86
680.137	4.92
680.464	5
680.791	4.99
681.117	4.96
681.444	5.01
681.771	5.07
682.097	5.12
682.424	5.01
682.75	5.02
683.077	5.12
683.403	5.08
683.729	5.06
684.056	5.08
684.382	5.14
684.708	5.13
685.034	5.06
685.36	4.94
685.686	4.94
686.012	4.98
686.339	5.04
686.664	5.02
686.99	4.97
687.316	4.93
687.642	4.91
687.968	4.92
688.294	4.86
688.619	4.81
688.945	4.78
689.271	4.91
689.596	4.8
689.922	4.79
690.247	4.79
690.573	4.78
690.898	4.81
691.224	4.74
691.549	4.79
691.874	4.79
692.2	4.98
692.525	5.08
692.85	5.04
693.175	5.05
693.5	4.97
693.825	5.07
694.15	5.16
694.475	5.17
694.8	5.21
695.125	5.34
695.45	5.39
695.775	5.37
696.099	5.32
696.424	5.44
696.749	5.4
697.073	5.43
697.398	5.58
697.723	5.52
698.047	5.48
698.372	5.46
698.696	5.49
699.02	5.47
699.345	5.36
699.669	5.45
699.993	5.45
700.318	5.58
700.642	5.58
700.966	5.59
701.29	5.63
701.614	5.69
701.938	5.7
702.262	5.71
702.586	5.8
702.91	5.85
703.234	5.77
703.557	5.76
703.881	5.77
704.205	5.62
704.529	5.7
704.852	5.69
705.176	5.71
705.499	5.68
705.823	5.66
706.146	5.77
706.47	5.52
706.793	5.6
707.117	5.59
707.44	5.58
707.763	5.55
708.086	5.73
708.409	5.66
708.733	5.53
709.056	5.5
709.379	5.5
709.702	5.45
710.025	5.56
710.348	5.61
710.671	5.72
710.993	5.7
711.316	5.73
711.639	5.73
711.962	5.81
712.284	5.83
712.607	5.83
712.93	5.7
713.252	5.78
713.575	5.77
713.897	5.68
714.22	5.68
714.542	5.78
714.864	5.67
715.187	5.66
715.509	5.87
715.831	5.97
716.153	5.93
716.475	5.97
716.798	5.91
717.12	5.84
717.442	5.73
717.764	5.7
718.085	5.61
718.407	5.84
718.729	5.75
719.051	5.59
719.373	5.58
719.695	5.75
720.016	6.01
720.338	6.08
720.659	6.25
720.981	6.12
721.302	6.11
721.624	6.09
721.945	6.15
722.267	6.06
722.588	6.09
722.909	6.04
723.231	6.05
723.552	6.01
723.873	6.29
724.194	6.29
724.515	6.43
724.836	6.57
725.157	6.31
725.478	6.26
725.799	6.29
726.12	6.33
726.441	6.09
726.762	5.94
727.083	5.92
727.403	5.82
727.724	6.02
728.045	5.96
728.365	6.05
728.686	6.18
729.006	6.15
729.327	6.25
729.647	6.27
729.967	6.16
730.288	6.29
730.608	6.12
730.928	6.21
731.249	6.04
731.569	5.9
731.889	5.88
732.209	5.96
732.529	6.23
732.849	6.22
733.169	6.31
733.489	6.29
733.809	6.08
734.129	6.03
734.448	5.98
734.768	5.8
735.088	5.73
735.408	5.55
735.727	5.45
736.047	5.53
736.366	5.53
736.686	5.68
737.005	5.53
737.325	5.48
737.644	5.21
737.963	5.27
738.283	5.33
738.602	5.61
738.921	5.72
739.24	5.61
739.56	5.74
739.879	5.77
740.198	5.85
740.517	6.07
740.836	6.19
741.155	6.29
741.473	6.65
741.792	6.54
742.111	6.72
742.43	6.92
742.748	6.6
743.067	6.59
743.386	6.59
743.704	6.74
744.023	6.89
744.341	7.35
744.66	7.39
744.978	7.57
745.297	7.25
745.615	7.27
745.933	7.43
746.252	7.41
746.57	7.38
746.888	7.5
747.206	7.09
747.524	7.1
747.842	6.88
748.16	6.56
748.478	6.65
748.796	6.51
749.114	6.53
749.432	6.83
749.749	6.54
750.067	6.77
750.385	7.07
750.703	7.18
751.02	7.14
751.338	7.17
751.655	6.98
751.973	7.27
752.29	7.01
752.608	6.84
752.925	6.89
753.242	7.01
753.56	6.66
753.877	6.75
754.194	6.83
754.511	6.81
754.828	6.99
755.145	7.22
755.462	7.3
755.779	7.49
756.096	7.33
756.413	7.78
756.73	7.88
757.047	7.6
757.364	7.41
757.68	7.23
757.997	7.37
758.314	7.61
758.63	7.53
758.947	7.56
759.264	7.92
759.58	7.85
759.896	8.04
760.213	8.29
760.529	8.42
760.846	8.26
761.162	8.23
761.478	8.17
761.794	8.13
762.11	8.04
762.426	7.78
762.743	7.91
763.059	8.1
763.375	7.82
763.69	7.64
764.006	7.51
764.322	7.56
764.638	7.77
764.954	7.69
765.27	7.73
765.585	7.84
765.901	7.52
766.216	7.46
766.532	7.35
766.848	7.5
767.163	7.77
767.478	7.74
767.794	7.9
768.109	8.11
768.424	8.08
768.74	8.42
769.055	8.65
769.37	8.41
769.685	8.17
770	8.22
770.315	8.17
770.63	8.16
770.945	8.25
771.26	7.9
771.575	8.13
771.89	8.43
772.205	8.28
772.52	8.78
772.834	8.95
773.149	8.59
773.464	8.36
773.778	7.9
774.093	8.02
774.407	8.25
774.722	7.8
775.036	7.76
775.351	7.26
775.665	7.33
775.979	7.52
776.293	7.65
776.608	7.27
776.922	7.69
777.236	7.94
777.55	7.84
777.864	7.9
778.178	7.67
778.492	7.52
778.806	7.63
779.12	7.11
779.434	7.13
779.747	7.75
780.061	7.75
780.375	8.23
780.689	8.43
781.002	8.12
781.316	8.33
781.629	8.29
781.943	8.5
782.256	8.26
782.57	8.73
782.883	8.62
783.196	9.21
783.51	9.34
783.823	9.38
784.136	8.98
784.449	8.9
784.762	9.29
785.075	9.37
785.388	9.72
785.701	9.99
786.014	9.69
786.327	9.27
786.64	9.44
786.953	9.28
787.266	8.62
787.578	8.69
787.891	9.21
788.204	9.19
788.516	9.34
788.829	9.82
789.141	9.65
789.454	9.45
789.766	9.77
790.079	9.2
790.391	9.05
790.703	9.47
791.016	9.72
791.328	9.65
791.64	9.86
791.952	9.81
792.264	9.43
792.576	9.75
792.888	9.89
793.2	10.26
793.512	9.89
793.824	10.94
794.136	11.34
794.448	10.96
794.76	11.46
795.071	11.56
795.383	11.12
795.695	11
796.006	11.21
796.318	11.04
796.629	11.54
796.941	11.99
797.252	12.07
797.564	11.88
797.875	11.57
798.186	10.94
798.497	10.8
798.809	10.63
799.12	10.13
799.431	10.39
799.742	9.74
800.053	9.92
800.364	9.84
800.675	9.39
800.986	9.66
801.297	9.51
801.608	9.09
801.918	9.38
802.229	9
802.54	9.32
802.851	8.84
803.161	8.65
803.472	8.72
803.782	9.39
804.093	9.32
804.403	9.11
804.714	9.4
805.024	9.12
805.334	10.15
805.645	10.78
805.955	10.58
806.265	10.41
806.575	10.41
806.885	10.3
807.195	10.41
807.505	10.39
807.815	10.75
808.125	10.97
808.435	10.31
808.745	10.47
809.055	10.35
809.365	10.83
809.674	11.53
809.984	11.18
810.294	10.7
810.603	10.93
810.913	11.01
811.222	10.29
811.532	11.17
811.841	10.65
812.151	10.53
812.46	10.86
812.769	11.51
813.079	12.36
813.388	12.48
813.697	12.34
814.006	11.15
814.315	10.57
814.624	11.13
814.933	11.02
815.242	11.26
815.551	10.82
815.86	10.88
816.169	10.1
816.478	10.42
816.786	9.82
817.095	10.29
817.404	10.29
817.712	10.84
818.021	10.41
818.33	10.4
818.638	10.6
818.947	10.66
819.255	10.18
819.563	9.45
819.872	9.25
820.18	9.22
820.488	9.66
820.796	9.67
821.105	9.44
821.413	9.64
821.721	9.48
822.029	9.54
822.337	9.42
822.645	9.47
822.953	9.43
823.26	9.61
823.568	9.39
823.876	9.46
824.184	9.5
824.491	9.53
824.799	9.52
825.107	9.46
825.414	9.32
825.722	9.31
826.029	9.54
826.337	9.57
826.644	9.9
826.951	9.86
827.259	10.01
827.566	10.18
827.873	10.18
828.18	10.47
828.488	10.64
828.795	10.77
829.102	10.7
829.409	10.69
829.716	10.64
830.023	11.02
830.329	11.23
830.636	11.24
830.943	11.02
831.25	11.17
831.557	11.19
831.863	11.4
832.17	11.62
832.476	11.65
832.783	11.46
833.089	10.79
833.396	11.05
833.702	10.99
834.009	10.87
834.315	10.79
834.621	10.04
834.928	10.15
835.234	9.94
835.54	9.98
835.846	10.51
836.152	10.53
836.458	10.31
836.764	10.35
837.07	9.86
837.376	10.1
837.682	10.6
837.988	10.77
838.293	10.12
838.599	10.19
838.905	10.63
839.211	11.46
839.516	12.47
839.822	12.74
840.127	12.59
840.433	12.46
840.738	12.16
841.044	12.71
841.349	12.34
841.654	12.8
841.959	13.2
842.265	13.28
842.57	13.52
842.875	13.3
843.18	12.92
843.485	13.74
843.79	14.14
844.095	12.8
844.4	12.21
844.705	14.19
845.01	14.73
845.315	13.73
845.619	12.72
845.924	12.21
846.229	11.45
846.533	12.11
846.838	11.55
847.142	12.87
847.447	14.51
847.751	15
848.056	14.28
848.36	14.79
848.664	13.99
848.969	13.88
849.273	15.82
849.577	17.08
849.881	18.13
850.185	17.92
850.489	17.45
850.794	20.55
851.097	20.48
851.401	20.42
851.705	21.38
852.009	22.9
852.313	21.95
852.617	24.89
852.92	24.66
853.224	28.77
853.528	29.01
853.831	28.04
854.135	31
854.438	31.26
854.742	30.74
855.045	30.72
855.349	29.69
855.652	28.78
855.955	28.23
856.259	27.76
856.562	27.26
856.865	32.03
857.168	32.32
857.471	33.31
857.774	32.21
858.077	32.47
858.38	30.8
858.683	32.11
858.986	28.98
859.289	30.38
859.592	28.77
859.894	28.46
860.197	29.43
860.5	27.06
860.802	28.22
861.105	27.55
861.407	26.76
861.71	28.07
862.012	28.76
862.315	27.97
862.617	29.05
862.919	30.85
863.222	28.43
863.524	26.28
863.826	24.57
864.128	24.5
864.43	23.31
864.732	25.14
865.034	22.23
865.336	23.34
865.638	20.1
865.94	20.17
866.242	19.24
866.544	18.29
866.846	17.8
867.147	19.48
867.449	21.94
867.751	22.82
868.052	21.93
868.354	21.29
868.655	22.64
868.957	20.72
869.258	18.56
869.56	16.19
869.861	16.73
870.162	15.66
870.463	17.44
870.765	18.99
871.066	18.73
871.367	20.44
871.668	21.54
871.969	21.45
872.27	19.92
872.571	20.21
872.872	20.46
873.173	20.9
873.473	17.99
873.774	15.9
874.075	16.69
874.376	15.81
874.676	15.9
874.977	14.09
875.277	14.45
875.578	16.26
875.878	18.03
876.179	17.32
876.479	18.62
876.78	16.93
877.08	15.18
877.38	13.83
877.68	14.25
877.981	11.95
878.281	13.88
878.581	14.23
