Data from MVZ_BU163026_Reflection_00004.txt Node
Date: Tue Nov 19 12:05:56 EST 2019
User: vgr7
Spectrometer: USB2G7710
Scans to average: 3
Trigger mode: 4
Integration Time (sec): 2.000000E-2
Electric dark correction enabled: true
Boxcar width: 10
XAxis mode: Wavelengths
Number of Pixels in Spectrum: 2048
>>>>>Begin Spectral Data<<<<<
177.721	156.43
178.105	775.68
178.488	419.11
178.871	208.96
179.254	89.23
179.636	46.4
180.019	-13.38
180.402	233.33
180.785	-345.45
181.168	-11.61
181.55	-30.54
181.933	173.03
182.316	18.6
182.698	-6.56
183.081	-23.59
183.463	-69.22
183.846	-47.28
184.228	-59.68
184.611	-82.6
184.993	-91.43
185.376	-105.75
185.758	-155.1
186.14	-96.17
186.522	-78.67
186.904	-75.1
187.287	-48.38
187.669	-54.15
188.051	-13.54
188.433	0.9
188.815	-10.67
189.197	13.58
189.579	27.34
189.961	15.6
190.342	14.81
190.724	40.34
191.106	31.7
191.488	24.86
191.869	25.76
192.251	-5.68
192.633	-7.75
193.014	40.92
193.396	49.74
193.777	30.88
194.159	68.4
194.54	106.49
194.922	73.68
195.303	-88
195.684	56.85
196.065	-74.88
196.447	203.02
196.828	-3400
197.209	-824.78
197.59	-2595.12
197.971	-2187.23
198.352	-376.65
198.733	-400
199.114	-400
199.495	-169.23
199.876	-116.71
200.257	-30.47
200.638	-0.42
201.018	-70.82
201.399	-477.92
201.78	-526.76
202.16	-85.44
202.541	-19.97
202.922	-19.97
203.302	-44.22
203.683	-30.46
204.063	-14.97
204.444	-44.92
204.824	-89.41
205.204	335.85
205.585	-326.83
205.965	-273.24
206.345	146.56
206.725	52.33
207.106	160.27
207.486	109.19
207.866	154.7
208.246	107.73
208.626	124.94
209.006	175.2
209.386	207.49
209.766	260.67
210.145	177.49
210.525	359.04
210.905	232.93
211.285	127.75
211.664	122.83
212.044	126.59
212.424	94.41
212.803	95.41
213.183	141.85
213.562	122.75
213.942	101.73
214.321	99.66
214.701	121.62
215.08	84.17
215.459	81.02
215.838	70.51
216.218	85.42
216.597	75.82
216.976	70.43
217.355	52.19
217.734	29.68
218.113	29.36
218.492	29.01
218.871	36.07
219.25	37.46
219.629	14.82
220.008	17.33
220.387	37.45
220.766	44.6
221.144	42.97
221.523	41.49
221.902	35.53
222.28	22.91
222.659	37.87
223.037	41.32
223.416	30.68
223.794	29.59
224.173	10.63
224.551	8.52
224.929	-3.67
225.308	-4.59
225.686	-7.35
226.064	-17.18
226.442	-19.98
226.821	-12.97
227.199	-13.02
227.577	-11.4
227.955	-7.86
228.333	-6.47
228.711	-5.17
229.089	-3.46
229.467	-6.96
229.845	-5.36
230.222	-3.29
230.6	-5.61
230.978	-4.68
231.356	-4.6
231.733	-5.95
232.111	-1.36
232.488	-0.49
232.866	3.45
233.243	6.13
233.621	9.72
233.998	13.81
234.376	14.68
234.753	13.47
235.13	12.2
235.508	11.78
235.885	12.1
236.262	12.08
236.639	9.69
237.016	8.46
237.393	9.21
237.77	8.94
238.147	8.66
238.524	7.4
238.901	6.87
239.278	6.37
239.655	6.78
240.032	6.52
240.409	6.13
240.785	5.98
241.162	5.15
241.539	4.64
241.915	4.31
242.292	4.44
242.668	4.22
243.045	4.75
243.421	4.52
243.798	4.02
244.174	3.81
244.551	4.16
244.927	4.23
245.303	4.19
245.679	4.26
246.056	4.27
246.432	4.35
246.808	4.47
247.184	4.53
247.56	4.52
247.936	4.51
248.312	4.62
248.688	4.59
249.064	4.73
249.44	4.63
249.815	4.71
250.191	4.55
250.567	4.67
250.943	4.4
251.318	4.59
251.694	4.47
252.069	4.41
252.445	4.07
252.82	4.12
253.196	4.16
253.571	4
253.947	3.82
254.322	3.84
254.697	3.71
255.073	3.4
255.448	3.25
255.823	3.47
256.198	3.2
256.573	2.76
256.948	2.75
257.323	2.95
257.698	2.88
258.073	2.96
258.448	2.75
258.823	2.66
259.198	2.75
259.573	2.74
259.948	3.07
260.322	3.24
260.697	3.3
261.072	3.25
261.446	3.27
261.821	3.26
262.195	3.3
262.57	3.28
262.944	3.29
263.319	3.4
263.693	3.26
264.067	3.22
264.442	3.4
264.816	3.43
265.19	3.38
265.564	3.3
265.938	3.21
266.313	3.25
266.687	3.35
267.061	3.27
267.435	3.34
267.809	2.93
268.183	2.97
268.556	2.95
268.93	3.05
269.304	3.01
269.678	3.04
270.051	3.05
270.425	3.13
270.799	3.03
271.172	2.91
271.546	3.06
271.919	3.08
272.293	3.2
272.666	3.13
273.04	3.04
273.413	3.11
273.787	3.12
274.16	3.1
274.533	3.16
274.906	3.18
275.279	3.08
275.653	3.13
276.026	3.08
276.399	2.9
276.772	2.85
277.145	2.83
277.518	2.97
277.891	2.98
278.263	2.98
278.636	3.33
279.009	3.53
279.382	3.13
279.755	3.26
280.127	3.06
280.5	3.01
280.872	3.18
281.245	3.24
281.617	3.3
281.99	3.35
282.362	3.3
282.735	3.15
283.107	3.1
283.479	3.05
283.852	3.14
284.224	3.21
284.596	3.23
284.968	3.25
285.34	3.11
285.713	2.91
286.085	2.83
286.457	2.8
286.829	2.65
287.201	2.81
287.572	2.77
287.944	2.84
288.316	2.83
288.688	2.97
289.06	2.9
289.431	3
289.803	3
290.175	2.94
290.546	3.05
290.918	3.28
291.289	3.2
291.661	3.09
292.032	3.23
292.403	3.21
292.775	3.21
293.146	3.32
293.517	3.38
293.889	3.44
294.26	3.19
294.631	3.24
295.002	3.32
295.373	3.32
295.744	3.38
296.115	3.43
296.486	3.24
296.857	3.15
297.228	3.02
297.599	2.97
297.97	3.07
298.34	3.15
298.711	3.09
299.082	3.24
299.452	3.27
299.823	3.19
300.194	3.22
300.564	3.21
300.935	3.18
301.305	3.12
301.676	3.05
302.046	3.2
302.416	3.2
302.787	3.1
303.157	3.15
303.527	3.17
303.897	3.02
304.267	3.05
304.637	3.07
305.008	3.12
305.378	3.23
305.748	3.13
306.117	3.02
306.487	3.21
306.857	3.19
307.227	3.27
307.597	3.16
307.967	3.1
308.336	3.05
308.706	3.04
309.076	3.28
309.445	3.33
309.815	3.3
310.184	3.27
310.554	3.37
310.923	3.24
311.293	3.18
311.662	3.35
312.031	3.18
312.401	3.08
312.77	3.1
313.139	3.02
313.508	3.04
313.877	2.91
314.246	2.71
314.616	2.81
314.985	2.68
315.353	2.82
315.722	2.95
316.091	2.94
316.46	2.77
316.829	2.71
317.198	2.67
317.567	2.84
317.935	2.84
318.304	2.91
318.672	3.04
319.041	3.06
319.41	2.97
319.778	3.2
320.147	3.48
320.515	3.29
320.883	3.18
321.252	3.29
321.62	3.48
321.988	3.38
322.357	3.43
322.725	3.49
323.093	3.45
323.461	3.22
323.829	3.43
324.197	3.64
324.565	3.6
324.933	3.58
325.301	3.29
325.669	3.23
326.037	3.01
326.405	2.92
326.772	2.85
327.14	2.76
327.508	2.75
327.875	2.68
328.243	2.81
328.61	2.95
328.978	2.97
329.346	2.81
329.713	2.9
330.08	2.86
330.448	2.8
330.815	2.71
331.182	2.75
331.55	2.65
331.917	2.63
332.284	2.55
332.651	2.62
333.018	2.77
333.385	2.8
333.752	2.82
334.119	2.89
334.486	2.87
334.853	3.02
335.22	2.98
335.587	2.92
335.954	2.9
336.32	2.9
336.687	2.93
337.054	3.04
337.42	3.02
337.787	2.92
338.153	3.06
338.52	3.1
338.886	3.07
339.253	2.99
339.619	2.97
339.986	3
340.352	3.04
340.718	2.97
341.084	3.01
341.451	2.97
341.817	3.05
342.183	3.12
342.549	3.04
342.915	3.03
343.281	3.14
343.647	3.08
344.013	3.16
344.379	3.1
344.745	3.17
345.11	3.16
345.476	3.22
345.842	3.06
346.208	3.21
346.573	3.27
346.939	3.31
347.304	3.29
347.67	3.29
348.035	3.25
348.401	3.3
348.766	3.27
349.132	3.37
349.497	3.27
349.862	3.3
350.228	3.31
350.593	3.32
350.958	3.28
351.323	3.37
351.688	3.33
352.053	3.31
352.418	3.28
352.783	3.36
353.148	3.35
353.513	3.42
353.878	3.19
354.243	3.13
354.608	3.25
354.972	3.2
355.337	3.19
355.702	3.16
356.066	3.15
356.431	3.13
356.795	3.22
357.16	3.23
357.524	3.19
357.889	3.19
358.253	3.16
358.618	3.15
358.982	3.18
359.346	3.22
359.71	3.2
360.075	3.22
360.439	3.18
360.803	3.2
361.167	3.12
361.531	3.12
361.895	3.14
362.259	3.07
362.623	3.16
362.987	3.14
363.351	3.12
363.714	3.12
364.078	3.11
364.442	2.96
364.806	3.01
365.169	2.97
365.533	3.05
365.896	3.07
366.26	3.04
366.623	3.01
366.987	2.96
367.35	3.09
367.714	2.98
368.077	2.93
368.44	2.99
368.803	3.01
369.167	3.05
369.53	3.11
369.893	3.11
370.256	3.04
370.619	3
370.982	2.97
371.345	3.03
371.708	3.1
372.071	3.14
372.434	3.09
372.797	3.15
373.159	3.03
373.522	3.06
373.885	3.13
374.247	3.15
374.61	3.14
374.973	3.07
375.335	3.12
375.698	3.15
376.06	3.02
376.423	3.08
376.785	3.2
377.147	3.13
377.51	3.15
377.872	3.15
378.234	3.23
378.596	3.29
378.958	3.19
379.321	3.19
379.683	3.24
380.045	3.23
380.407	3.2
380.769	3.24
381.13	3.27
381.492	3.25
381.854	3.23
382.216	3.25
382.578	3.27
382.939	3.22
383.301	3.18
383.663	3.23
384.024	3.18
384.386	3.16
384.747	3.16
385.109	3.14
385.47	3.15
385.832	3.09
386.193	3.07
386.554	3.1
386.916	3.1
387.277	3.05
387.638	3.08
387.999	3.09
388.36	3.1
388.721	3.05
389.082	3.04
389.443	3.02
389.804	3.05
390.165	3.03
390.526	3.1
390.887	3.12
391.248	3.08
391.609	3.13
391.969	3.15
392.33	3.17
392.691	3.14
393.051	3.14
393.412	3.18
393.772	3.21
394.133	3.21
394.493	3.19
394.854	3.22
395.214	3.19
395.574	3.19
395.935	3.19
396.295	3.22
396.655	3.21
397.015	3.24
397.376	3.2
397.736	3.17
398.096	3.15
398.456	3.12
398.816	3.16
399.176	3.08
399.535	3.03
399.895	3.04
400.255	3.06
400.615	3.09
400.975	3.12
401.334	3.06
401.694	3.11
402.054	3.14
402.413	3.1
402.773	3.11
403.132	3.11
403.492	3.1
403.851	3.08
404.211	3.1
404.57	3.08
404.929	3.04
405.288	3.06
405.648	3.06
406.007	3.11
406.366	3.1
406.725	3.12
407.084	3.13
407.443	3.12
407.802	3.13
408.161	3.12
408.52	3.1
408.879	3.13
409.238	3.1
409.596	3.09
409.955	3.11
410.314	3.13
410.673	3.1
411.031	3.08
411.39	3.1
411.748	3.1
412.107	3.07
412.465	3.09
412.824	3.07
413.182	3.06
413.54	3.04
413.899	3.06
414.257	3.07
414.615	3.08
414.974	3.09
415.332	3.07
415.69	3.06
416.048	3.07
416.406	3.05
416.764	3.05
417.122	3.04
417.48	3.04
417.838	3.03
418.195	3.02
418.553	3.01
418.911	2.98
419.269	2.98
419.626	2.98
419.984	2.97
420.342	2.99
420.699	2.99
421.057	2.97
421.414	2.97
421.772	2.97
422.129	2.96
422.486	2.98
422.844	2.97
423.201	2.97
423.558	2.95
423.915	2.97
424.273	2.96
424.63	2.97
424.987	2.96
425.344	2.96
425.701	2.98
426.058	2.99
426.415	3.03
426.772	3.03
427.128	3.04
427.485	3.05
427.842	3.04
428.199	3.09
428.555	3.11
428.912	3.09
429.269	3.05
429.625	3.06
429.982	3.05
430.338	3.06
430.695	3.06
431.051	3.07
431.407	3.06
431.764	3.08
432.12	3.09
432.476	3.11
432.832	3.12
433.189	3.1
433.545	3.08
433.901	3.07
434.257	3.08
434.613	3.08
434.969	3.07
435.325	3.07
435.681	3
436.036	3
436.392	3.01
436.748	3.05
437.104	3.05
437.459	3.05
437.815	3.05
438.171	3.07
438.526	3.06
438.882	3.06
439.237	3.03
439.593	3.01
439.948	3.02
440.304	3.01
440.659	3.02
441.014	3.03
441.369	3.03
441.725	3.03
442.08	3.03
442.435	3.04
442.79	3.02
443.145	3.05
443.5	3.05
443.855	3.05
444.21	3.03
444.565	3.01
444.92	3.01
445.275	2.99
445.629	2.98
445.984	2.97
446.339	2.97
446.693	2.98
447.048	2.97
447.403	2.96
447.757	2.96
448.112	2.94
448.466	2.94
448.82	2.95
449.175	2.96
449.529	2.96
449.883	2.95
450.238	2.96
450.592	2.95
450.946	2.94
451.3	2.93
451.654	2.92
452.008	2.96
452.362	2.95
452.716	2.97
453.07	2.98
453.424	3
453.778	2.99
454.132	3
454.486	3.05
454.839	3.05
455.193	3.05
455.547	3.06
455.9	3.06
456.254	3.05
456.607	3.03
456.961	3.02
457.314	3.02
457.668	3.01
458.021	3
458.375	3.02
458.728	3.02
459.081	3.04
459.434	3.01
459.787	3
460.141	3.01
460.494	3.01
460.847	3
461.2	3.02
461.553	3.02
461.906	3
462.259	3
462.611	3
462.964	3.02
463.317	3.01
463.67	3.03
464.022	3.02
464.375	3.02
464.728	3.04
465.08	3.05
465.433	3.06
465.785	3.05
466.138	3.08
466.49	3.08
466.843	3.1
467.195	3.14
467.547	3.13
467.899	3.18
468.252	3.18
468.604	3.15
468.956	3.15
469.308	3.13
469.66	3.15
470.012	3.17
470.364	3.15
470.716	3.15
471.068	3.14
471.42	3.16
471.772	3.17
472.123	3.16
472.475	3.16
472.827	3.18
473.178	3.17
473.53	3.14
473.882	3.15
474.233	3.13
474.585	3.11
474.936	3.11
475.288	3.07
475.639	3.1
475.99	3.1
476.342	3.09
476.693	3.12
477.044	3.12
477.395	3.11
477.746	3.1
478.097	3.1
478.448	3.09
478.8	3.1
479.15	3.1
479.501	3.08
479.852	3.06
480.203	3.06
480.554	3.06
480.905	3.08
481.255	3.08
481.606	3.09
481.957	3.09
482.307	3.11
482.658	3.11
483.009	3.09
483.359	3.11
483.709	3.11
484.06	3.12
484.41	3.12
484.761	3.13
485.111	3.13
485.461	3.14
485.811	3.13
486.162	3.13
486.512	3.12
486.862	3.13
487.212	3.15
487.562	3.15
487.912	3.16
488.262	3.16
488.612	3.16
488.961	3.16
489.311	3.16
489.661	3.16
490.011	3.16
490.36	3.17
490.71	3.16
491.06	3.16
491.409	3.16
491.759	3.15
492.108	3.15
492.458	3.14
492.807	3.15
493.157	3.15
493.506	3.17
493.855	3.17
494.204	3.18
494.554	3.17
494.903	3.18
495.252	3.19
495.601	3.19
495.95	3.21
496.299	3.22
496.648	3.25
496.997	3.25
497.346	3.24
497.695	3.25
498.043	3.27
498.392	3.29
498.741	3.3
499.09	3.31
499.438	3.33
499.787	3.36
500.135	3.36
500.484	3.38
500.832	3.39
501.181	3.45
501.529	3.47
501.878	3.49
502.226	3.48
502.574	3.48
502.923	3.48
503.271	3.45
503.619	3.46
503.967	3.43
504.315	3.45
504.663	3.46
505.011	3.45
505.359	3.43
505.707	3.41
506.055	3.43
506.403	3.42
506.751	3.43
507.098	3.45
507.446	3.45
507.794	3.45
508.141	3.45
508.489	3.42
508.837	3.41
509.184	3.4
509.531	3.41
509.879	3.42
510.226	3.42
510.574	3.45
510.921	3.45
511.268	3.45
511.616	3.46
511.963	3.48
512.31	3.48
512.657	3.5
513.004	3.52
513.351	3.52
513.698	3.54
514.045	3.53
514.392	3.53
514.739	3.54
515.086	3.55
515.432	3.59
515.779	3.6
516.126	3.6
516.473	3.6
516.819	3.61
517.166	3.62
517.512	3.64
517.859	3.64
518.205	3.64
518.552	3.66
518.898	3.65
519.245	3.66
519.591	3.69
519.937	3.7
520.283	3.69
520.629	3.69
520.976	3.68
521.322	3.69
521.668	3.71
522.014	3.7
522.36	3.69
522.706	3.67
523.052	3.66
523.398	3.65
523.743	3.68
524.089	3.69
524.435	3.68
524.781	3.69
525.126	3.68
525.472	3.69
525.817	3.7
526.163	3.71
526.509	3.71
526.854	3.71
527.199	3.71
527.545	3.73
527.89	3.73
528.235	3.72
528.581	3.72
528.926	3.71
529.271	3.71
529.616	3.72
529.961	3.74
530.306	3.75
530.651	3.77
530.996	3.76
531.341	3.77
531.686	3.77
532.031	3.77
532.376	3.79
532.721	3.8
533.065	3.79
533.41	3.8
533.755	3.79
534.099	3.8
534.444	3.81
534.788	3.79
535.133	3.8
535.477	3.82
535.822	3.83
536.166	3.84
536.51	3.85
536.855	3.86
537.199	3.85
537.543	3.85
537.887	3.84
538.231	3.84
538.576	3.84
538.92	3.84
539.264	3.85
539.608	3.85
539.951	3.84
540.295	3.86
540.639	3.86
540.983	3.88
541.327	3.88
541.671	3.88
542.014	3.89
542.358	3.9
542.701	3.91
543.045	3.91
543.389	3.93
543.732	3.94
544.075	3.93
544.419	3.94
544.762	3.94
545.105	3.96
545.449	3.98
545.792	3.98
546.135	3.99
546.478	4
546.821	4.04
547.165	4.06
547.508	4.07
547.851	4.06
548.194	4.04
548.536	4.04
548.879	4.03
549.222	4.03
549.565	4.04
549.908	4.01
550.25	4.03
550.593	4.04
550.936	4.01
551.278	4.05
551.621	4.05
551.963	4.08
552.306	4.07
552.648	4.08
552.991	4.09
553.333	4.12
553.675	4.1
554.017	4.06
554.36	4.04
554.702	4.03
555.044	4.01
555.386	4.01
555.728	3.99
556.07	4.01
556.412	4.03
556.754	4
557.096	4
557.438	4.01
557.78	3.96
558.121	3.98
558.463	3.98
558.805	4.01
559.147	4
559.488	3.96
559.83	3.95
560.171	3.93
560.513	3.93
560.854	3.94
561.196	3.93
561.537	3.94
561.878	3.96
562.22	4.01
562.561	4.05
562.902	4.04
563.243	4.04
563.584	4.04
563.925	4.07
564.266	4.08
564.607	4.06
564.948	4.08
565.289	4.11
565.63	4.09
565.971	4.08
566.312	4.06
566.653	4.1
566.993	4.1
567.334	4.11
567.675	4.09
568.015	4.07
568.356	4.09
568.696	4.09
569.037	4.1
569.377	4.11
569.718	4.09
570.058	4.09
570.398	4.1
570.739	4.07
571.079	4.04
571.419	4.01
571.759	4.01
572.099	4.01
572.439	3.98
572.779	3.95
573.119	3.94
573.459	3.93
573.799	3.92
574.139	3.91
574.479	3.93
574.819	3.96
575.158	3.99
575.498	3.99
575.838	3.98
576.177	3.96
576.517	3.94
576.856	3.93
577.196	3.96
577.535	3.93
577.875	3.92
578.214	3.95
578.553	3.98
578.893	4.01
579.232	3.99
579.571	4.03
579.91	4.06
580.25	4.09
580.589	4.07
580.928	4.07
581.267	4.08
581.606	4.04
581.945	3.97
582.283	3.96
582.622	3.97
582.961	4.02
583.3	4.02
583.639	4.01
583.977	4.06
584.316	4.05
584.654	4.11
584.993	4.13
585.332	4.17
585.67	4.18
586.008	4.17
586.347	4.2
586.685	4.15
587.024	4.16
587.362	4.17
587.7	4.23
588.038	4.3
588.376	4.31
588.715	4.34
589.053	4.4
589.391	4.37
589.729	4.3
590.067	4.31
590.404	4.3
590.742	4.29
591.08	4.26
591.418	4.26
591.756	4.25
592.093	4.22
592.431	4.15
592.769	4.19
593.106	4.16
593.444	4.21
593.781	4.19
594.119	4.2
594.456	4.19
594.793	4.18
595.131	4.15
595.468	4.17
595.805	4.17
596.143	4.17
596.48	4.18
596.817	4.25
597.154	4.21
597.491	4.2
597.828	4.23
598.165	4.21
598.502	4.21
598.839	4.21
599.176	4.26
599.512	4.29
599.849	4.27
600.186	4.33
600.523	4.3
600.859	4.29
601.196	4.29
601.532	4.25
601.869	4.28
602.205	4.27
602.542	4.27
602.878	4.27
603.215	4.25
603.551	4.22
603.887	4.2
604.223	4.21
604.56	4.26
604.896	4.29
605.232	4.33
605.568	4.34
605.904	4.32
606.24	4.29
606.576	4.33
606.912	4.31
607.248	4.31
607.583	4.33
607.919	4.34
608.255	4.35
608.591	4.4
608.926	4.38
609.262	4.37
609.597	4.33
609.933	4.34
610.268	4.35
610.604	4.38
610.939	4.4
611.275	4.39
611.61	4.36
611.945	4.31
612.281	4.29
612.616	4.29
612.951	4.31
613.286	4.31
613.621	4.27
613.956	4.26
614.291	4.22
614.626	4.14
614.961	4.21
615.296	4.2
615.631	4.19
615.966	4.2
616.3	4.31
616.635	4.36
616.97	4.33
617.304	4.31
617.639	4.32
617.973	4.32
618.308	4.4
618.642	4.38
618.977	4.38
619.311	4.4
619.646	4.45
619.98	4.45
620.314	4.46
620.648	4.51
620.983	4.52
621.317	4.54
621.651	4.62
621.985	4.58
622.319	4.58
622.653	4.57
622.987	4.53
623.321	4.46
623.655	4.43
623.988	4.51
624.322	4.52
624.656	4.53
624.99	4.51
625.323	4.46
625.657	4.52
625.99	4.54
626.324	4.52
626.657	4.44
626.991	4.47
627.324	4.46
627.658	4.45
627.991	4.48
628.324	4.46
628.657	4.45
628.991	4.48
629.324	4.46
629.657	4.44
629.99	4.48
630.323	4.48
630.656	4.47
630.989	4.41
631.322	4.37
631.655	4.34
631.987	4.33
632.32	4.34
632.653	4.29
632.986	4.29
633.318	4.35
633.651	4.4
633.984	4.38
634.316	4.43
634.649	4.43
634.981	4.39
635.313	4.39
635.646	4.38
635.978	4.37
636.31	4.38
636.643	4.42
636.975	4.41
637.307	4.41
637.639	4.45
637.971	4.48
638.303	4.53
638.635	4.6
638.967	4.69
639.299	4.7
639.631	4.67
639.963	4.67
640.295	4.63
640.626	4.55
640.958	4.56
641.29	4.57
641.621	4.56
641.953	4.56
642.285	4.61
642.616	4.6
642.948	4.56
643.279	4.57
643.61	4.54
643.942	4.54
644.273	4.56
644.604	4.58
644.936	4.58
645.267	4.61
645.598	4.52
645.929	4.38
646.26	4.37
646.591	4.39
646.922	4.49
647.253	4.51
647.584	4.57
647.915	4.55
648.245	4.55
648.576	4.47
648.907	4.5
649.238	4.45
649.568	4.5
649.899	4.5
650.229	4.52
650.56	4.59
650.89	4.64
651.221	4.66
651.551	4.65
651.882	4.66
652.212	4.62
652.542	4.69
652.872	4.77
653.203	4.82
653.533	4.84
653.863	4.78
654.193	4.78
654.523	4.69
654.853	4.79
655.183	4.75
655.513	4.85
655.843	4.85
656.172	4.9
656.502	4.89
656.832	4.88
657.162	4.89
657.491	4.85
657.821	4.81
658.15	4.78
658.48	4.78
658.809	4.76
659.139	4.82
659.468	4.78
659.798	4.81
660.127	4.79
660.456	4.82
660.785	4.89
661.115	4.92
661.444	4.96
661.773	4.98
662.102	4.98
662.431	5.03
662.76	5
663.089	5.04
663.418	5
663.747	4.99
664.076	4.99
664.404	5.03
664.733	5.07
665.062	5.08
665.39	5.12
665.719	5.12
666.048	5.09
666.376	5.19
666.705	5.21
667.033	5.24
667.362	5.14
667.69	5.12
668.018	5.2
668.347	5.18
668.675	5.17
669.003	5.08
669.331	5.01
669.659	5.01
669.987	5.04
670.315	5
670.643	5.06
670.971	5.1
671.299	4.98
671.627	4.93
671.955	4.89
672.283	4.78
672.61	4.8
672.938	4.88
673.266	4.86
673.593	4.78
673.921	4.74
674.249	4.82
674.576	4.83
674.904	4.7
675.231	4.77
675.558	4.74
675.886	4.83
676.213	4.84
676.54	4.9
676.867	4.79
677.195	4.95
677.522	4.89
677.849	5
678.176	5.04
678.503	5.09
678.83	5.16
679.157	5.26
679.484	5.27
679.81	5.26
680.137	5.22
680.464	5.29
680.791	5.34
681.117	5.41
681.444	5.4
681.771	5.46
682.097	5.48
682.424	5.38
682.75	5.44
683.077	5.44
683.403	5.55
683.729	5.66
684.056	5.62
684.382	5.71
684.708	5.6
685.034	5.57
685.36	5.6
685.686	5.64
686.012	5.65
686.339	5.69
686.664	5.68
686.99	5.62
687.316	5.62
687.642	5.6
687.968	5.68
688.294	5.66
688.619	5.66
688.945	5.57
689.271	5.61
689.596	5.57
689.922	5.52
690.247	5.42
690.573	5.27
690.898	5.41
691.224	5.38
691.549	5.45
691.874	5.54
692.2	5.49
692.525	5.47
692.85	5.55
693.175	5.57
693.5	5.44
693.825	5.56
694.15	5.52
694.475	5.48
694.8	5.45
695.125	5.38
695.45	5.32
695.775	5.33
696.099	5.39
696.424	5.49
696.749	5.57
697.073	5.55
697.398	5.72
697.723	5.66
698.047	5.67
698.372	5.65
698.696	5.69
699.02	5.7
699.345	5.69
699.669	5.53
699.993	5.46
700.318	5.56
700.642	5.47
700.966	5.61
701.29	5.63
701.614	5.65
701.938	5.68
702.262	5.72
702.586	5.88
702.91	5.87
703.234	5.87
703.557	5.89
703.881	5.94
704.205	5.87
704.529	5.79
704.852	5.71
705.176	5.68
705.499	5.65
705.823	5.53
706.146	5.52
706.47	5.68
706.793	5.7
707.117	5.55
707.44	5.62
707.763	5.52
708.086	5.58
708.409	5.27
708.733	5.29
709.056	5.37
709.379	5.39
709.702	5.46
710.025	5.36
710.348	5.25
710.671	5.24
710.993	5.2
711.316	5.35
711.639	5.55
711.962	5.57
712.284	5.54
712.607	5.64
712.93	5.52
713.252	5.41
713.575	5.45
713.897	5.64
714.22	5.62
714.542	5.65
714.864	5.57
715.187	5.69
715.509	5.7
715.831	5.66
716.153	5.56
716.475	5.63
716.798	5.58
717.12	5.7
717.442	5.71
717.764	5.72
718.085	5.66
718.407	5.7
718.729	5.7
719.051	5.78
719.373	5.83
719.695	5.98
720.016	6.02
720.338	6
720.659	6.06
720.981	6.06
721.302	6.08
721.624	6.07
721.945	6.26
722.267	6.33
722.588	6.46
722.909	6.41
723.231	6.43
723.552	6.31
723.873	6.21
724.194	6.16
724.515	6.12
724.836	5.93
725.157	5.72
725.478	5.78
725.799	5.64
726.12	5.73
726.441	5.84
726.762	5.83
727.083	5.92
727.403	5.76
727.724	5.74
728.045	5.71
728.365	5.72
728.686	5.67
729.006	5.64
729.327	5.58
729.647	5.58
729.967	5.43
730.288	5.59
730.608	5.74
730.928	5.97
731.249	6.02
731.569	6.11
731.889	6.15
732.209	6.1
732.529	6.04
732.849	6.02
733.169	6.01
733.489	5.85
733.809	5.89
734.129	5.9
734.448	6.08
734.768	5.92
735.088	5.95
735.408	5.97
735.727	6.01
736.047	5.9
736.366	5.73
736.686	5.7
737.005	5.84
737.325	5.82
737.644	5.61
737.963	5.5
738.283	5.54
738.602	5.54
738.921	5.62
739.24	5.87
739.56	5.96
739.879	5.97
740.198	6.14
740.517	6.05
740.836	6.06
741.155	6.16
741.473	6.38
741.792	6.28
742.111	6.3
742.43	6.42
742.748	6.52
743.067	6.94
743.386	7.06
743.704	7.05
744.023	7.13
744.341	7.15
744.66	7.44
744.978	7.24
745.297	7.25
745.615	7.06
745.933	7.19
746.252	7.28
746.57	7.28
746.888	7.33
747.206	7.38
747.524	7.36
747.842	7.29
748.16	7.23
748.478	7.65
748.796	7.55
749.114	7.62
749.432	7.52
749.749	7.24
750.067	7.32
750.385	7.45
750.703	7.06
751.02	7.18
751.338	6.99
751.655	7.43
751.973	7.25
752.29	7.43
752.608	7.23
752.925	6.89
753.242	7.05
753.56	7.01
753.877	6.96
754.194	7.11
754.511	6.86
754.828	6.69
755.145	6.54
755.462	6.72
755.779	6.55
756.096	7.02
756.413	7.37
756.73	7.36
757.047	6.97
757.364	7.28
757.68	7.03
757.997	6.96
758.314	6.96
758.63	7.3
758.947	7.07
759.264	7.04
759.58	7.2
759.896	7.05
760.213	6.93
760.529	7.08
760.846	7.04
761.162	7.26
761.478	7.42
761.794	7.23
762.11	6.78
762.426	6.76
762.743	6.48
763.059	6.35
763.375	6.26
763.69	6.49
764.006	6.5
764.322	6.73
764.638	6.85
764.954	6.52
765.27	6.43
765.585	6.72
765.901	6.93
766.216	6.73
766.532	6.75
766.848	7.01
767.163	6.84
767.478	6.9
767.794	6.62
768.109	6.64
768.424	6.87
768.74	7.21
769.055	7.44
769.37	7.4
769.685	7.64
770	8.09
770.315	7.98
770.63	8.2
770.945	8.36
771.26	8.63
771.575	8.97
771.89	8.65
772.205	8.81
772.52	8.69
772.834	8.72
773.149	9.03
773.464	8.83
773.778	8.71
774.093	8.88
774.407	9.29
774.722	9.49
775.036	9.17
775.351	9.16
775.665	8.8
775.979	8.59
776.293	8.51
776.608	8.15
776.922	8
777.236	7.87
777.55	7.3
777.864	7.25
778.178	7.32
778.492	8
778.806	7.63
779.12	7.56
779.434	8
779.747	7.51
780.061	7.49
780.375	8.1
780.689	7.93
781.002	7.8
781.316	7.3
781.629	7.56
781.943	7.67
782.256	7.89
782.57	8.12
782.883	7.68
783.196	7.43
783.51	7.8
783.823	8.04
784.136	8.1
784.449	7.9
784.762	8.26
785.075	7.94
785.388	8.08
785.701	7.72
786.014	7.68
786.327	7.61
786.64	8.26
786.953	7.74
787.266	7.59
787.578	7.75
787.891	7.86
788.204	8.01
788.516	7.9
788.829	7.41
789.141	7.94
789.454	8.3
789.766	8.95
790.079	8.72
790.391	8.32
790.703	8.43
791.016	8.61
791.328	8.51
791.64	8.39
791.952	8.72
792.264	8.6
792.576	8.27
792.888	8.54
793.2	7.85
793.512	8
793.824	8.54
794.136	8.69
794.448	9.19
794.76	9.05
795.071	9.15
795.383	9.31
795.695	8.72
796.006	8.47
796.318	8.42
796.629	8.67
796.941	8.82
797.252	8.88
797.564	8.56
797.875	8.29
798.186	8.41
798.497	7.46
798.809	8.32
799.12	8.76
799.431	8.34
799.742	8.54
800.053	8.55
800.364	7.98
800.675	7.61
800.986	7.42
801.297	7.11
801.608	6.4
801.918	6.86
802.229	7.11
802.54	7.49
802.851	6.86
803.161	6.78
803.472	7.22
803.782	7.34
804.093	7.44
804.403	7.46
804.714	8.14
805.024	8.61
805.334	8.21
805.645	8.26
805.955	8.95
806.265	9.37
806.575	9.83
806.885	9.85
807.195	9.76
807.505	9.14
807.815	9.36
808.125	10.03
808.435	10.05
808.745	9.78
809.055	9.49
809.365	10.2
809.674	9.89
809.984	9.08
810.294	9.11
810.603	9.01
810.913	9.09
811.222	8.07
811.532	8.26
811.841	8.13
812.151	7.87
812.46	7.4
812.769	7.19
813.079	7.18
813.388	7.03
813.697	6.81
814.006	7.08
814.315	7.22
814.624	7.57
814.933	7.94
815.242	8.26
815.551	8.01
815.86	7.39
816.169	7.49
816.478	7.96
816.786	8.07
817.095	9
817.404	9.47
817.712	10.13
818.021	11.03
818.33	11.25
818.638	10.64
818.947	11.02
819.255	10.89
819.563	10.52
819.872	10.5
820.18	10.47
820.488	10.67
820.796	10.92
821.105	10.75
821.413	10.44
821.721	10.59
822.029	10.64
822.337	10.43
822.645	10.54
822.953	10.38
823.26	10.36
823.568	10.23
823.876	10.13
824.184	9.97
824.491	9.74
824.799	9.54
825.107	9.6
825.414	9.45
825.722	9.42
826.029	9.43
826.337	9.64
826.644	9.79
826.951	9.83
827.259	9.65
827.566	9.47
827.873	9.84
828.18	9.78
828.488	9.97
828.795	10.2
829.102	10.14
829.409	10.13
829.716	10.24
830.023	9.96
830.329	10
830.636	10.2
830.943	10.11
831.25	10.62
831.557	10.72
831.863	11.22
832.17	11.16
832.476	10.95
832.783	10.46
833.089	10.33
833.396	10.04
833.702	10.22
834.009	10.82
834.315	10.12
834.621	10.15
834.928	9.62
835.234	9.88
835.54	9.75
835.846	10.35
836.152	10.06
836.458	10.18
836.764	10.56
837.07	10.58
837.376	10.94
837.682	10.47
837.988	10.85
838.293	10.64
838.599	11.01
838.905	11.03
839.211	11.55
839.516	11.78
839.822	12.49
840.127	12.2
840.433	12.2
840.738	12.8
841.044	12.48
841.349	12.93
841.654	12.58
841.959	13.21
842.265	13.77
842.57	15
842.875	15.6
843.18	14.66
843.485	15.47
843.79	14.64
844.095	16.67
844.4	16.44
844.705	18.3
845.01	17.84
845.315	20.23
845.619	21.45
845.924	19.1
846.229	18.07
846.533	18.06
846.838	17.97
847.142	16.19
847.447	16.01
847.751	17.54
848.056	17.07
848.36	17.39
848.664	14.93
848.969	14.21
849.273	13.97
849.577	14.29
849.881	14.09
850.185	14.12
850.489	11.49
850.794	12.88
851.097	11.01
851.401	9.02
851.705	7.29
852.009	5.26
852.313	7.73
852.617	8.36
852.92	9.74
853.224	12.24
853.528	13.98
853.831	16.5
854.135	15.85
854.438	16.78
854.742	13.91
855.045	14.33
855.349	14.17
855.652	13.05
855.955	13.02
856.259	13.57
856.562	16.21
856.865	17.05
857.168	14.56
857.471	12.94
857.774	15.26
858.077	13.48
858.38	12.81
858.683	14.78
858.986	13.47
859.289	13.51
859.592	11.22
859.894	13.71
860.197	12.72
860.5	12.03
860.802	12.98
861.105	15.55
861.407	14.05
861.71	12.59
862.012	15.48
862.315	16.28
862.617	14.32
862.919	12.89
863.222	13.05
863.524	15.11
863.826	14.64
864.128	15.77
864.43	19.85
864.732	20
865.034	19.71
865.336	21.89
865.638	20.97
865.94	22.77
866.242	21.14
866.544	19.74
866.846	21.79
867.147	22.38
867.449	23.79
867.751	26.22
868.052	24.32
868.354	23.58
868.655	22.33
868.957	23.55
869.258	23.06
869.56	22.7
869.861	19.61
870.162	18.57
870.463	19.01
870.765	14.78
871.066	17.59
871.367	17.19
871.668	16.96
871.969	14.49
872.27	14.57
872.571	14.78
872.872	17.24
873.173	17.91
873.473	16.01
873.774	16.57
874.075	15.63
874.376	19.64
874.676	22.4
874.977	24.26
875.277	22.72
875.578	23.36
875.878	24.41
876.179	27.73
876.479	31.37
876.78	30.61
877.08	34.69
877.38	33.37
877.68	34.71
877.981	35.15
878.281	41.37
878.581	38.23
