Data from MVZ_BU65311_Reflection_00005.txt Node
Date: Tue Nov 19 12:20:09 EST 2019
User: vgr7
Spectrometer: USB2G7710
Scans to average: 3
Trigger mode: 4
Integration Time (sec): 2.000000E-2
Electric dark correction enabled: true
Boxcar width: 10
XAxis mode: Wavelengths
Number of Pixels in Spectrum: 2048
>>>>>Begin Spectral Data<<<<<
177.721	-9.79
178.105	711.11
178.488	-22.58
178.871	7.78
179.254	-12.96
179.636	11.88
180.019	-237.96
180.402	-158.33
180.785	77.16
181.168	371.6
181.55	-256.48
181.933	-629.17
182.316	547.92
182.698	-361.81
183.081	-367.26
183.463	-226.02
183.846	-97.26
184.228	-133.63
184.611	-34.88
184.993	-65.83
185.376	-36.73
185.758	-14.64
186.14	-33.76
186.522	-4.93
186.904	1.28
187.287	-5.36
187.669	-1.56
188.051	-5.47
188.433	-8.18
188.815	-16.13
189.197	-10.13
189.579	-14.34
189.961	-14.63
190.342	-7.17
190.724	-2.55
191.106	0.03
191.488	3.64
191.869	3.72
192.251	1.16
192.633	-2.48
193.014	0.38
193.396	-3.98
193.777	-3.11
194.159	-8.16
194.54	-4.69
194.922	-10.59
195.303	-16.92
195.684	-15.33
196.065	-12.94
196.447	-9.53
196.828	-14.26
197.209	-12.69
197.59	-6.36
197.971	3.31
198.352	-2.48
198.733	2.94
199.114	-1.83
199.495	-3.77
199.876	0.27
200.257	6.58
200.638	11.78
201.018	3.22
201.399	3.22
201.78	-0.52
202.16	3.99
202.541	-22.66
202.922	-22.02
203.302	-23.04
203.683	-25.3
204.063	-26.82
204.444	-16.82
204.824	-6.72
205.204	-9.61
205.585	-28.37
205.965	-49.95
206.345	-50.8
206.725	-45.96
207.106	-34.46
207.486	-35.95
207.866	-33.04
208.246	-18.47
208.626	-32.5
209.006	-29.45
209.386	-33.61
209.766	-19.51
210.145	-23.21
210.525	-6.93
210.905	4.84
211.285	17.01
211.664	14.26
212.044	17.12
212.424	17.72
212.803	16.98
213.183	16.49
213.562	30.91
213.942	33.76
214.321	41.43
214.701	28.4
215.08	27.97
215.459	34.87
215.838	25.73
216.218	17.29
216.597	16.67
216.976	4.87
217.355	11.9
217.734	4.89
218.113	15.73
218.492	18.82
218.871	9
219.25	13.31
219.629	-9.98
220.008	-15.12
220.387	-15.74
220.766	-12.08
221.144	-15.92
221.523	-29
221.902	-23.68
222.28	-15.19
222.659	-4.4
223.037	-4.3
223.416	-9.8
223.794	-11.25
224.173	-20.87
224.551	-12.51
224.929	-7.21
225.308	-8.36
225.686	-7.16
226.064	-8.47
226.442	-6.75
226.821	-6.47
227.199	-2.94
227.577	3.66
227.955	7.03
228.333	4.34
228.711	3.42
229.089	5.53
229.467	5.24
229.845	5.14
230.222	6.58
230.6	4.04
230.978	3.82
231.356	4.54
231.733	6.54
232.111	7.71
232.488	8.61
232.866	8.48
233.243	9.88
233.621	8.5
233.998	8.42
234.376	5.31
234.753	7.3
235.13	4.94
235.508	3.99
235.885	2.92
236.262	1.83
236.639	2.62
237.016	3.56
237.393	4.44
237.77	6.04
238.147	4.2
238.524	6.14
238.901	6.62
239.278	5.29
239.655	5.65
240.032	6.23
240.409	5.19
240.785	5.52
241.162	5.65
241.539	5.46
241.915	5.27
242.292	5.35
242.668	5.16
243.045	5.14
243.421	5.81
243.798	5.76
244.174	5.92
244.551	5.73
244.927	5.33
245.303	4.91
245.679	4.57
246.056	4.7
246.432	4.37
246.808	4.12
247.184	4.34
247.56	4.09
247.936	3.94
248.312	4.19
248.688	4.06
249.064	3.9
249.44	4.13
249.815	4.18
250.191	4.46
250.567	4.32
250.943	4.25
251.318	4.02
251.694	3.93
252.069	4.44
252.445	4.59
252.82	4.86
253.196	5.03
253.571	5.26
253.947	5.29
254.322	5.05
254.697	5.1
255.073	5.03
255.448	4.78
255.823	4.93
256.198	4.66
256.573	4.65
256.948	4.65
257.323	4.42
257.698	4.35
258.073	4.04
258.448	4.1
258.823	3.91
259.198	3.83
259.573	3.68
259.948	3.39
260.322	3.28
260.697	3.11
261.072	3.19
261.446	3.19
261.821	3.15
262.195	3.16
262.57	3.17
262.944	3.27
263.319	3.41
263.693	3.39
264.067	3.38
264.442	3.39
264.816	3.21
265.19	3.35
265.564	3.23
265.938	3.5
266.313	3.37
266.687	3.65
267.061	3.79
267.435	3.96
267.809	3.9
268.183	3.73
268.556	3.69
268.93	3.58
269.304	3.42
269.678	3.52
270.051	3.56
270.425	3.58
270.799	3.31
271.172	3.29
271.546	3.18
271.919	3.14
272.293	3.06
272.666	3.2
273.04	3.27
273.413	3.16
273.787	3.15
274.16	3.13
274.533	2.97
274.906	2.94
275.279	2.83
275.653	2.98
276.026	3.1
276.399	3.32
276.772	3.5
277.145	3.79
277.518	3.76
277.891	3.67
278.263	3.65
278.636	3.9
279.009	3.91
279.382	3.91
279.755	3.79
280.127	3.96
280.5	3.9
280.872	3.64
281.245	3.97
281.617	3.85
281.99	3.81
282.362	3.7
282.735	3.6
283.107	3.7
283.479	3.61
283.852	3.59
284.224	3.56
284.596	3.32
284.968	3.03
285.34	2.87
285.713	2.86
286.085	2.9
286.457	2.9
286.829	2.95
287.201	3.05
287.572	3.14
287.944	3.12
288.316	3.21
288.688	3.16
289.06	3.13
289.431	3.15
289.803	3.3
290.175	3.45
290.546	3.48
290.918	3.33
291.289	3.26
291.661	3.29
292.032	3.22
292.403	3.59
292.775	3.68
293.146	3.88
293.517	4.03
293.889	3.87
294.26	3.79
294.631	3.84
295.002	3.7
295.373	3.72
295.744	3.63
296.115	3.59
296.486	3.73
296.857	3.6
297.228	3.5
297.599	3.34
297.97	3.37
298.34	3.45
298.711	3.65
299.082	3.69
299.452	3.63
299.823	3.6
300.194	3.45
300.564	3.41
300.935	3.46
301.305	3.34
301.676	3.32
302.046	3.42
302.416	3.32
302.787	3.21
303.157	3.18
303.527	3.29
303.897	3.18
304.267	3.22
304.637	3.32
305.008	3.44
305.378	3.48
305.748	3.41
306.117	3.08
306.487	3.06
306.857	3.02
307.227	3.18
307.597	3.3
307.967	3.22
308.336	3.33
308.706	3.13
309.076	3.3
309.445	3.46
309.815	3.36
310.184	3.32
310.554	3.43
310.923	3.54
311.293	3.45
311.662	3.45
312.031	3.38
312.401	3.37
312.77	3.43
313.139	3.52
313.508	3.37
313.877	3.52
314.246	3.34
314.616	3.3
314.985	3.13
315.353	3.06
315.722	3.24
316.091	3.07
316.46	3.13
316.829	2.99
317.198	2.97
317.567	3.16
317.935	3.13
318.304	3.22
318.672	3.11
319.041	3.24
319.41	3.26
319.778	3.3
320.147	3.34
320.515	3.27
320.883	3.19
321.252	3.46
321.62	3.36
321.988	3.48
322.357	3.43
322.725	3.51
323.093	3.34
323.461	3.22
323.829	3.31
324.197	3.24
324.565	3.31
324.933	3.37
325.301	3.3
325.669	3.46
326.037	3.34
326.405	3.44
326.772	3.3
327.14	3.29
327.508	3.16
327.875	3.21
328.243	3.1
328.61	3.16
328.978	2.96
329.346	3.18
329.713	3.16
330.08	3.31
330.448	3.33
330.815	3.52
331.182	3.54
331.55	3.51
331.917	3.58
332.284	3.53
332.651	3.41
333.018	3.21
333.385	3.11
333.752	3.18
334.119	3.13
334.486	3.19
334.853	3.11
335.22	3.14
335.587	3.1
335.954	3.13
336.32	2.98
336.687	3.2
337.054	3.09
337.42	2.99
337.787	2.81
338.153	2.87
338.52	2.83
338.886	2.79
339.253	2.8
339.619	2.87
339.986	2.86
340.352	2.87
340.718	3
341.084	2.89
341.451	2.97
341.817	2.93
342.183	2.84
342.549	2.92
342.915	2.94
343.281	2.92
343.647	3.04
344.013	3.04
344.379	2.95
344.745	3.01
345.11	3
345.476	3.15
345.842	3.15
346.208	3.15
346.573	3.23
346.939	3.26
347.304	3.25
347.67	3.21
348.035	3.18
348.401	3.16
348.766	3.25
349.132	3.24
349.497	3.38
349.862	3.44
350.228	3.47
350.593	3.5
350.958	3.56
351.323	3.51
351.688	3.6
352.053	3.57
352.418	3.52
352.783	3.63
353.148	3.63
353.513	3.59
353.878	3.49
354.243	3.4
354.608	3.48
354.972	3.46
355.337	3.55
355.702	3.54
356.066	3.59
356.431	3.53
356.795	3.51
357.16	3.43
357.524	3.43
357.889	3.47
358.253	3.38
358.618	3.3
358.982	3.33
359.346	3.36
359.71	3.39
360.075	3.36
360.439	3.42
360.803	3.51
361.167	3.48
361.531	3.49
361.895	3.57
362.259	3.54
362.623	3.57
362.987	3.53
363.351	3.6
363.714	3.56
364.078	3.59
364.442	3.58
364.806	3.63
365.169	3.66
365.533	3.65
365.896	3.76
366.26	3.79
366.623	3.78
366.987	3.77
367.35	3.79
367.714	3.87
368.077	3.85
368.44	3.77
368.803	3.77
369.167	3.79
369.53	3.8
369.893	3.85
370.256	3.78
370.619	3.69
370.982	3.65
371.345	3.64
371.708	3.67
372.071	3.67
372.434	3.59
372.797	3.53
373.159	3.54
373.522	3.48
373.885	3.52
374.247	3.48
374.61	3.53
374.973	3.58
375.335	3.55
375.698	3.45
376.06	3.46
376.423	3.56
376.785	3.62
377.147	3.52
377.51	3.45
377.872	3.47
378.234	3.58
378.596	3.6
378.958	3.64
379.321	3.63
379.683	3.66
380.045	3.68
380.407	3.68
380.769	3.72
381.13	3.75
381.492	3.73
381.854	3.8
382.216	3.77
382.578	3.74
382.939	3.74
383.301	3.83
383.663	3.89
384.024	3.87
384.386	3.84
384.747	3.91
385.109	3.9
385.47	3.97
385.832	3.94
386.193	3.9
386.554	3.83
386.916	3.85
387.277	3.8
387.638	3.83
387.999	3.81
388.36	3.74
388.721	3.76
389.082	3.74
389.443	3.76
389.804	3.76
390.165	3.74
390.526	3.74
390.887	3.71
391.248	3.69
391.609	3.68
391.969	3.67
392.33	3.68
392.691	3.71
393.051	3.7
393.412	3.72
393.772	3.74
394.133	3.74
394.493	3.73
394.854	3.76
395.214	3.73
395.574	3.76
395.935	3.78
396.295	3.78
396.655	3.78
397.015	3.75
397.376	3.72
397.736	3.73
398.096	3.74
398.456	3.71
398.816	3.67
399.176	3.65
399.535	3.65
399.895	3.64
400.255	3.61
400.615	3.63
400.975	3.64
401.334	3.65
401.694	3.68
402.054	3.69
402.413	3.7
402.773	3.69
403.132	3.7
403.492	3.68
403.851	3.66
404.211	3.67
404.57	3.7
404.929	3.71
405.288	3.73
405.648	3.71
406.007	3.72
406.366	3.75
406.725	3.74
407.084	3.72
407.443	3.7
407.802	3.71
408.161	3.68
408.52	3.64
408.879	3.62
409.238	3.6
409.596	3.61
409.955	3.59
410.314	3.62
410.673	3.6
411.031	3.63
411.39	3.64
411.748	3.66
412.107	3.61
412.465	3.62
412.824	3.62
413.182	3.63
413.54	3.66
413.899	3.65
414.257	3.69
414.615	3.69
414.974	3.7
415.332	3.72
415.69	3.73
416.048	3.76
416.406	3.76
416.764	3.76
417.122	3.76
417.48	3.77
417.838	3.75
418.195	3.74
418.553	3.75
418.911	3.77
419.269	3.78
419.626	3.77
419.984	3.78
420.342	3.77
420.699	3.77
421.057	3.76
421.414	3.76
421.772	3.74
422.129	3.74
422.486	3.75
422.844	3.74
423.201	3.74
423.558	3.74
423.915	3.75
424.273	3.74
424.63	3.74
424.987	3.74
425.344	3.76
425.701	3.78
426.058	3.79
426.415	3.78
426.772	3.77
427.128	3.8
427.485	3.81
427.842	3.8
428.199	3.81
428.555	3.8
428.912	3.81
429.269	3.83
429.625	3.83
429.982	3.8
430.338	3.81
430.695	3.8
431.051	3.79
431.407	3.8
431.764	3.81
432.12	3.81
432.476	3.82
432.832	3.81
433.189	3.79
433.545	3.77
433.901	3.75
434.257	3.75
434.613	3.73
434.969	3.72
435.325	3.75
435.681	3.74
436.036	3.77
436.392	3.77
436.748	3.79
437.104	3.8
437.459	3.82
437.815	3.81
438.171	3.82
438.526	3.85
438.882	3.84
439.237	3.85
439.593	3.85
439.948	3.83
440.304	3.82
440.659	3.84
441.014	3.83
441.369	3.83
441.725	3.83
442.08	3.82
442.435	3.82
442.79	3.82
443.145	3.81
443.5	3.81
443.855	3.79
444.21	3.78
444.565	3.77
444.92	3.77
445.275	3.78
445.629	3.76
445.984	3.75
446.339	3.75
446.693	3.75
447.048	3.73
447.403	3.74
447.757	3.76
448.112	3.76
448.466	3.75
448.82	3.75
449.175	3.75
449.529	3.77
449.883	3.77
450.238	3.76
450.592	3.78
450.946	3.78
451.3	3.79
451.654	3.78
452.008	3.79
452.362	3.78
452.716	3.78
453.07	3.8
453.424	3.79
453.778	3.82
454.132	3.8
454.486	3.81
454.839	3.81
455.193	3.81
455.547	3.81
455.9	3.82
456.254	3.84
456.607	3.85
456.961	3.84
457.314	3.83
457.668	3.84
458.021	3.83
458.375	3.83
458.728	3.85
459.081	3.85
459.434	3.85
459.787	3.85
460.141	3.86
460.494	3.86
460.847	3.88
461.2	3.86
461.553	3.87
461.906	3.9
462.259	3.9
462.611	3.93
462.964	3.94
463.317	3.95
463.67	3.96
464.022	3.96
464.375	3.97
464.728	3.98
465.08	3.99
465.433	3.99
465.785	3.99
466.138	3.99
466.49	3.99
466.843	4.02
467.195	4.05
467.547	4.04
467.899	4.05
468.252	4.04
468.604	4.03
468.956	4.05
469.308	4.02
469.66	4.04
470.012	4.01
470.364	4
470.716	4
471.068	3.98
471.42	4.01
471.772	3.98
472.123	3.98
472.475	3.99
472.827	4
473.178	3.99
473.53	3.99
473.882	3.99
474.233	3.95
474.585	3.96
474.936	3.97
475.288	3.95
475.639	3.96
475.99	3.95
476.342	3.93
476.693	3.91
477.044	3.9
477.395	3.89
477.746	3.9
478.097	3.88
478.448	3.88
478.8	3.86
479.15	3.88
479.501	3.88
479.852	3.87
480.203	3.88
480.554	3.9
480.905	3.9
481.255	3.91
481.606	3.93
481.957	3.93
482.307	3.91
482.658	3.93
483.009	3.94
483.359	3.95
483.709	3.96
484.06	3.98
484.41	3.98
484.761	3.99
485.111	3.98
485.461	3.99
485.811	3.99
486.162	4
486.512	4.01
486.862	4.01
487.212	4.02
487.562	4.02
487.912	4.03
488.262	4.03
488.612	4.03
488.961	4.04
489.311	4.03
489.661	4.05
490.011	4.04
490.36	4.03
490.71	4.03
491.06	4.03
491.409	4.02
491.759	4.03
492.108	4.02
492.458	4.03
492.807	4.03
493.157	4.05
493.506	4.04
493.855	4.03
494.204	4.03
494.554	4.02
494.903	4.02
495.252	4.01
495.601	4.01
495.95	3.99
496.299	3.99
496.648	4
496.997	3.99
497.346	4.01
497.695	4.02
498.043	4.01
498.392	4.01
498.741	4.02
499.09	4.03
499.438	4.06
499.787	4.06
500.135	4.07
500.484	4.06
500.832	4.07
501.181	4.07
501.529	4.11
501.878	4.12
502.226	4.12
502.574	4.11
502.923	4.09
503.271	4.11
503.619	4.12
503.967	4.09
504.315	4.12
504.663	4.11
505.011	4.12
505.359	4.12
505.707	4.13
506.055	4.12
506.403	4.11
506.751	4.11
507.098	4.12
507.446	4.12
507.794	4.12
508.141	4.12
508.489	4.12
508.837	4.07
509.184	4.05
509.531	4.07
509.879	4.08
510.226	4.1
510.574	4.12
510.921	4.11
511.268	4.14
511.616	4.13
511.963	4.14
512.31	4.12
512.657	4.12
513.004	4.12
513.351	4.12
513.698	4.13
514.045	4.13
514.392	4.13
514.739	4.14
515.086	4.16
515.432	4.16
515.779	4.16
516.126	4.2
516.473	4.23
516.819	4.21
517.166	4.22
517.512	4.22
517.859	4.22
518.205	4.22
518.552	4.21
518.898	4.2
519.245	4.21
519.591	4.24
519.937	4.25
520.283	4.26
520.629	4.26
520.976	4.27
521.322	4.28
521.668	4.28
522.014	4.3
522.36	4.3
522.706	4.29
523.052	4.3
523.398	4.3
523.743	4.32
524.089	4.34
524.435	4.32
524.781	4.35
525.126	4.34
525.472	4.37
525.817	4.39
526.163	4.39
526.509	4.39
526.854	4.39
527.199	4.4
527.545	4.4
527.89	4.4
528.235	4.4
528.581	4.4
528.926	4.39
529.271	4.38
529.616	4.37
529.961	4.37
530.306	4.38
530.651	4.38
530.996	4.39
531.341	4.4
531.686	4.42
532.031	4.41
532.376	4.4
532.721	4.4
533.065	4.38
533.41	4.39
533.755	4.4
534.099	4.39
534.444	4.39
534.788	4.38
535.133	4.39
535.477	4.39
535.822	4.4
536.166	4.42
536.51	4.43
536.855	4.42
537.199	4.43
537.543	4.43
537.887	4.43
538.231	4.42
538.576	4.4
538.92	4.39
539.264	4.4
539.608	4.41
539.951	4.41
540.295	4.42
540.639	4.42
540.983	4.41
541.327	4.43
541.671	4.45
542.014	4.47
542.358	4.47
542.701	4.48
543.045	4.48
543.389	4.47
543.732	4.48
544.075	4.5
544.419	4.52
544.762	4.51
545.105	4.52
545.449	4.54
545.792	4.57
546.135	4.58
546.478	4.58
546.821	4.59
547.165	4.6
547.508	4.61
547.851	4.63
548.194	4.63
548.536	4.58
548.879	4.56
549.222	4.55
549.565	4.55
549.908	4.53
550.25	4.5
550.593	4.49
550.936	4.48
551.278	4.45
551.621	4.44
551.963	4.48
552.306	4.47
552.648	4.42
552.991	4.42
553.333	4.4
553.675	4.39
554.017	4.38
554.36	4.38
554.702	4.39
555.044	4.36
555.386	4.36
555.728	4.39
556.07	4.37
556.412	4.32
556.754	4.31
557.096	4.31
557.438	4.31
557.78	4.3
558.121	4.32
558.463	4.34
558.805	4.34
559.147	4.33
559.488	4.29
559.83	4.29
560.171	4.28
560.513	4.3
560.854	4.33
561.196	4.35
561.537	4.35
561.878	4.35
562.22	4.38
562.561	4.39
562.902	4.42
563.243	4.48
563.584	4.49
563.925	4.52
564.266	4.52
564.607	4.54
564.948	4.51
565.289	4.51
565.63	4.49
565.971	4.53
566.312	4.52
566.653	4.55
566.993	4.55
567.334	4.55
567.675	4.56
568.015	4.54
568.356	4.51
568.696	4.5
569.037	4.49
569.377	4.52
569.718	4.52
570.058	4.49
570.398	4.43
570.739	4.45
571.079	4.42
571.419	4.42
571.759	4.41
572.099	4.43
572.439	4.42
572.779	4.44
573.119	4.46
573.459	4.49
573.799	4.49
574.139	4.5
574.479	4.51
574.819	4.5
575.158	4.53
575.498	4.54
575.838	4.52
576.177	4.51
576.517	4.46
576.856	4.46
577.196	4.49
577.535	4.5
577.875	4.49
578.214	4.54
578.553	4.52
578.893	4.53
579.232	4.53
579.571	4.56
579.91	4.55
580.25	4.5
580.589	4.48
580.928	4.45
581.267	4.47
581.606	4.47
581.945	4.46
582.283	4.43
582.622	4.43
582.961	4.45
583.3	4.47
583.639	4.51
583.977	4.51
584.316	4.54
584.654	4.58
584.993	4.63
585.332	4.61
585.67	4.63
586.008	4.67
586.347	4.69
586.685	4.67
587.024	4.66
587.362	4.65
587.7	4.7
588.038	4.78
588.376	4.74
588.715	4.71
589.053	4.74
589.391	4.77
589.729	4.77
590.067	4.79
590.404	4.77
590.742	4.77
591.08	4.76
591.418	4.72
591.756	4.69
592.093	4.67
592.431	4.69
592.769	4.71
593.106	4.7
593.444	4.73
593.781	4.73
594.119	4.71
594.456	4.72
594.793	4.67
595.131	4.63
595.468	4.64
595.805	4.67
596.143	4.66
596.48	4.64
596.817	4.61
597.154	4.6
597.491	4.62
597.828	4.63
598.165	4.6
598.502	4.61
598.839	4.63
599.176	4.61
599.512	4.62
599.849	4.61
600.186	4.6
600.523	4.58
600.859	4.62
601.196	4.69
601.532	4.69
601.869	4.66
602.205	4.63
602.542	4.61
602.878	4.61
603.215	4.62
603.551	4.64
603.887	4.72
604.223	4.71
604.56	4.71
604.896	4.73
605.232	4.73
605.568	4.71
605.904	4.7
606.24	4.74
606.576	4.73
606.912	4.71
607.248	4.72
607.583	4.72
607.919	4.69
608.255	4.66
608.591	4.69
608.926	4.71
609.262	4.72
609.597	4.76
609.933	4.73
610.268	4.72
610.604	4.7
610.939	4.67
611.275	4.7
611.61	4.69
611.945	4.6
612.281	4.6
612.616	4.66
612.951	4.7
613.286	4.66
613.621	4.68
613.956	4.72
614.291	4.71
614.626	4.67
614.961	4.7
615.296	4.76
615.631	4.75
615.966	4.74
616.3	4.8
616.635	4.78
616.97	4.81
617.304	4.76
617.639	4.76
617.973	4.76
618.308	4.79
618.642	4.84
618.977	4.86
619.311	4.91
619.646	4.85
619.98	4.84
620.314	4.77
620.648	4.75
620.983	4.73
621.317	4.74
621.651	4.79
621.985	4.79
622.319	4.72
622.653	4.69
622.987	4.72
623.321	4.72
623.655	4.77
623.988	4.79
624.322	4.86
624.656	4.85
624.99	4.81
625.323	4.78
625.657	4.72
625.99	4.75
626.324	4.73
626.657	4.73
626.991	4.74
627.324	4.83
627.658	4.81
627.991	4.86
628.324	4.89
628.657	4.89
628.991	4.89
629.324	4.94
629.657	4.93
629.99	4.98
630.323	4.93
630.656	4.88
630.989	4.82
631.322	4.8
631.655	4.85
631.987	4.89
632.32	4.91
632.653	4.88
632.986	4.89
633.318	4.88
633.651	4.94
633.984	4.95
634.316	4.9
634.649	4.92
634.981	4.9
635.313	4.85
635.646	4.85
635.978	4.91
636.31	4.9
636.643	4.87
636.975	4.79
637.307	4.88
637.639	4.9
637.971	4.96
638.303	4.92
638.635	4.94
638.967	4.94
639.299	4.91
639.631	4.96
639.963	4.96
640.295	4.96
640.626	4.92
640.958	4.85
641.29	4.86
641.621	4.85
641.953	4.74
642.285	4.82
642.616	4.76
642.948	4.67
643.279	4.6
643.61	4.67
643.942	4.69
644.273	4.63
644.604	4.61
644.936	4.63
645.267	4.68
645.598	4.64
645.929	4.59
646.26	4.66
646.591	4.76
646.922	4.79
647.253	4.83
647.584	4.84
647.915	4.86
648.245	4.9
648.576	4.93
648.907	5.06
649.238	4.93
649.568	5
649.899	5.05
650.229	5.13
650.56	5.17
650.89	5.18
651.221	5.15
651.551	5.17
651.882	5.14
652.212	5.1
652.542	5.13
652.872	5.15
653.203	5.13
653.533	5.03
653.863	5.04
654.193	4.99
654.523	5.02
654.853	5.11
655.183	5.07
655.513	5.07
655.843	5.05
656.172	5.13
656.502	5.03
656.832	5
657.162	4.98
657.491	4.98
657.821	4.96
658.15	5.07
658.48	5.06
658.809	5.02
659.139	5.07
659.468	5.08
659.798	5.04
660.127	4.97
660.456	4.99
660.785	4.95
661.115	4.95
661.444	4.89
661.773	4.88
662.102	4.91
662.431	4.89
662.76	4.93
663.089	4.97
663.418	5.03
663.747	5.04
664.076	5.03
664.404	5.02
664.733	5.05
665.062	5.02
665.39	5.01
665.719	5.09
666.048	5
666.376	5.02
666.705	5.14
667.033	5.24
667.362	5.29
667.69	5.31
668.018	5.42
668.347	5.42
668.675	5.35
669.003	5.25
669.331	5.21
669.659	5.18
669.987	5.17
670.315	5.22
670.643	5.23
670.971	5.29
671.299	5.3
671.627	5.3
671.955	5.2
672.283	5.15
672.61	5.1
672.938	5.18
673.266	5.17
673.593	5.03
673.921	4.94
674.249	4.85
674.576	4.96
674.904	4.86
675.231	4.97
675.558	5.06
675.886	5.27
676.213	5.28
676.54	5.27
676.867	5.21
677.195	5.2
677.522	5.25
677.849	5.22
678.176	5.18
678.503	5.15
678.83	5.25
679.157	5.31
679.484	5.4
679.81	5.41
680.137	5.48
680.464	5.51
680.791	5.55
681.117	5.58
681.444	5.48
681.771	5.56
682.097	5.54
682.424	5.48
682.75	5.36
683.077	5.39
683.403	5.37
683.729	5.35
684.056	5.34
684.382	5.3
684.708	5.31
685.034	5.35
685.36	5.35
685.686	5.37
686.012	5.33
686.339	5.29
686.664	5.25
686.99	5.07
687.316	5.12
687.642	5.11
687.968	5.09
688.294	5.08
688.619	5.05
688.945	5.01
689.271	4.95
689.596	5
689.922	4.94
690.247	4.86
690.573	4.9
690.898	4.85
691.224	4.84
691.549	4.8
691.874	4.73
692.2	4.78
692.525	4.72
692.85	4.74
693.175	4.85
693.5	4.84
693.825	4.95
694.15	5.01
694.475	5
694.8	5
695.125	5.07
695.45	5.01
695.775	5.06
696.099	5.21
696.424	5.16
696.749	5.31
697.073	5.35
697.398	5.37
697.723	5.29
698.047	5.31
698.372	5.25
698.696	5.25
699.02	5.23
699.345	5.19
699.669	5.28
699.993	5.2
700.318	5.23
700.642	5.19
700.966	5.17
701.29	5.3
701.614	5.41
701.938	5.33
702.262	5.37
702.586	5.32
702.91	5.23
703.234	5.29
703.557	5.23
703.881	5.32
704.205	5.3
704.529	5.44
704.852	5.31
705.176	5.43
705.499	5.53
705.823	5.46
706.146	5.63
706.47	5.47
706.793	5.44
707.117	5.44
707.44	5.4
707.763	5.4
708.086	5.28
708.409	5.25
708.733	5.23
709.056	5.23
709.379	5.25
709.702	5.32
710.025	5.38
710.348	5.24
710.671	5.3
710.993	5.32
711.316	5.4
711.639	5.46
711.962	5.54
712.284	5.48
712.607	5.5
712.93	5.35
713.252	5.54
713.575	5.64
713.897	5.71
714.22	5.74
714.542	5.81
714.864	5.76
715.187	5.61
715.509	5.64
715.831	5.6
716.153	5.65
716.475	5.68
716.798	5.49
717.12	5.64
717.442	5.63
717.764	5.48
718.085	5.47
718.407	5.61
718.729	5.48
719.051	5.5
719.373	5.67
719.695	5.59
720.016	5.53
720.338	5.57
720.659	5.47
720.981	5.49
721.302	5.48
721.624	5.49
721.945	5.81
722.267	5.75
722.588	5.93
722.909	5.74
723.231	5.64
723.552	5.85
723.873	5.81
724.194	5.77
724.515	5.92
724.836	5.87
725.157	5.88
725.478	6.13
725.799	6
726.12	5.89
726.441	6.04
726.762	5.98
727.083	6.02
727.403	6.03
727.724	6.04
728.045	6
728.365	6.01
728.686	5.89
729.006	6.04
729.327	5.87
729.647	5.86
729.967	5.78
730.288	5.7
730.608	5.83
730.928	5.74
731.249	5.88
731.569	5.96
731.889	5.95
732.209	5.86
732.529	5.94
732.849	6.01
733.169	5.97
733.489	5.9
733.809	5.77
734.129	5.87
734.448	5.84
734.768	5.71
735.088	5.91
735.408	5.72
735.727	5.67
736.047	5.82
736.366	6.11
736.686	6.2
737.005	6.21
737.325	6.2
737.644	6.14
737.963	6.14
738.283	6.04
738.602	5.95
738.921	5.85
739.24	6.02
739.56	6.06
739.879	6.08
740.198	6.2
740.517	6.48
740.836	6.37
741.155	6.6
741.473	6.71
741.792	6.54
742.111	6.76
742.43	7.1
742.748	7.31
743.067	7.04
743.386	6.99
743.704	6.95
744.023	6.96
744.341	7.21
744.66	7.04
744.978	7.07
745.297	7.12
745.615	7.03
745.933	7.01
746.252	6.79
746.57	6.71
746.888	6.78
747.206	6.68
747.524	6.6
747.842	6.32
748.16	6.3
748.478	6.13
748.796	6.31
749.114	5.94
749.432	5.58
749.749	5.68
750.067	5.63
750.385	5.92
750.703	6
751.02	5.83
751.338	5.78
751.655	5.89
751.973	5.87
752.29	5.99
752.608	5.84
752.925	6.24
753.242	6.47
753.56	6.07
753.877	5.65
754.194	5.84
754.511	6.19
754.828	6.04
755.145	6.03
755.462	5.72
755.779	5.73
756.096	5.76
756.413	5.89
756.73	6.05
757.047	5.77
757.364	5.86
757.68	5.97
757.997	6.34
758.314	6.34
758.63	6.19
758.947	6.47
759.264	6.4
759.58	6.01
759.896	6.14
760.213	6.55
760.529	6.63
760.846	6.68
761.162	6.4
761.478	6.53
761.794	6.66
762.11	6.67
762.426	6.66
762.743	6.69
763.059	6.88
763.375	6.98
763.69	7.11
764.006	7.03
764.322	7
764.638	6.95
764.954	6.98
765.27	7.17
765.585	7.2
765.901	7.31
766.216	7.22
766.532	7.1
766.848	7.05
767.163	7.11
767.478	7.13
767.794	7.37
768.109	7.44
768.424	7.45
768.74	7.78
769.055	7.84
769.37	7.86
769.685	7.65
770	7.49
770.315	7.69
770.63	7.62
770.945	7.7
771.26	7.61
771.575	7.51
771.89	7.41
772.205	7.15
772.52	7.32
772.834	7.54
773.149	7.53
773.464	7.64
773.778	7.64
774.093	7.56
774.407	7.47
774.722	7.21
775.036	7.26
775.351	6.98
775.665	6.93
775.979	6.62
776.293	6.7
776.608	6.8
776.922	6.5
777.236	6.41
777.55	6.82
777.864	6.78
778.178	6.75
778.492	6.72
778.806	6.64
779.12	6.52
779.434	6.3
779.747	6.57
780.061	6.2
780.375	6.38
780.689	5.97
781.002	5.74
781.316	6.52
781.629	6.38
781.943	6.04
782.256	6.15
782.57	6.35
782.883	5.95
783.196	6.35
783.51	6.6
783.823	6.74
784.136	6.18
784.449	6.02
784.762	6.35
785.075	6.14
785.388	6.07
785.701	5.69
786.014	5.99
786.327	5.58
786.64	6.23
786.953	6.07
787.266	6.47
787.578	6.48
787.891	5.87
788.204	6.03
788.516	6.45
788.829	6.5
789.141	6.85
789.454	7.06
789.766	6.85
790.079	6.47
790.391	6.38
790.703	6.62
791.016	6.96
791.328	6.74
791.64	7.3
791.952	7.9
792.264	8.34
792.576	8.54
792.888	8.54
793.2	8.22
793.512	8.54
793.824	8.65
794.136	9.06
794.448	9.75
794.76	9.66
795.071	9.92
795.383	9.64
795.695	9.93
796.006	9.79
796.318	9.58
796.629	9.93
796.941	10.15
797.252	9.98
797.564	9.77
797.875	9.49
798.186	9.19
798.497	8.55
798.809	8.07
799.12	7.64
799.431	7.8
799.742	8.1
800.053	7.7
800.364	7.82
800.675	7.91
800.986	7.38
801.297	7.66
801.608	7.32
801.918	7.71
802.229	7.37
802.54	7.18
802.851	6.93
803.161	6.8
803.472	6.14
803.782	6.43
804.093	6.21
804.403	6.52
804.714	6.25
805.024	6.59
805.334	6.86
805.645	7.29
805.955	7.91
806.265	7.5
806.575	7.54
806.885	7.26
807.195	6.93
807.505	6.73
807.815	6.63
808.125	6.86
808.435	6.66
808.745	6.3
809.055	6.89
809.365	7.44
809.674	7.53
809.984	7.74
810.294	8.06
810.603	7.95
810.913	7.47
811.222	7.61
811.532	7.81
811.841	7.54
812.151	7.7
812.46	7.48
812.769	7.57
813.079	7.77
813.388	7.52
813.697	7.34
814.006	7.27
814.315	7.32
814.624	6.98
814.933	6.94
815.242	7.15
815.551	7.53
815.86	6.73
816.169	6.84
816.478	6.81
816.786	5.89
817.095	5.94
817.404	6.34
817.712	7.12
818.021	6.95
818.33	7.11
818.638	7.2
818.947	7.07
819.255	7.18
819.563	6.97
819.872	7.47
820.18	7.69
820.488	8.16
820.796	8.24
821.105	8.47
821.413	8.67
821.721	8.7
822.029	8.59
822.337	8.73
822.645	8.42
822.953	8.51
823.26	8.65
823.568	8.7
823.876	8.76
824.184	8.57
824.491	8.58
824.799	8.7
825.107	8.74
825.414	8.7
825.722	8.64
826.029	8.72
826.337	8.7
826.644	8.7
826.951	8.55
827.259	8.58
827.566	8.43
827.873	8.25
828.18	8.27
828.488	8.26
828.795	8.29
829.102	8.62
829.409	8.38
829.716	8.31
830.023	8.41
830.329	8.25
830.636	8.58
830.943	8.24
831.25	8.42
831.557	8.12
831.863	8.38
832.17	8.55
832.476	8.71
832.783	8.63
833.089	8.47
833.396	8.37
833.702	8.09
834.009	8.42
834.315	8.54
834.621	8.39
834.928	7.9
835.234	8.08
835.54	8.35
835.846	8.57
836.152	8.5
836.458	8.84
836.764	9.07
837.07	8.45
837.376	8.8
837.682	8.33
837.988	8.45
838.293	7.98
838.599	7.64
838.905	7.82
839.211	7.77
839.516	7.78
839.822	8.89
840.127	8.86
840.433	9.24
840.738	9.28
841.044	9.03
841.349	10.11
841.654	9.13
841.959	9.24
842.265	9.99
842.57	10.35
842.875	9.81
843.18	10.08
843.485	10.99
843.79	11.39
844.095	11.42
844.4	12.05
844.705	12.4
845.01	13.35
845.315	12.95
845.619	14.98
845.924	15.12
846.229	13.8
846.533	15.26
846.838	13.29
847.142	11.48
847.447	12.94
847.751	12.95
848.056	13.62
848.36	13.68
848.664	13.26
848.969	13.67
849.273	13.68
849.577	12.97
849.881	10.94
850.185	10.82
850.489	11.61
850.794	10.88
851.097	11.29
851.401	10.67
851.705	10.4
852.009	9.11
852.313	7.53
852.617	8.5
852.92	8.43
853.224	8.92
853.528	10.87
853.831	11.91
854.135	12.47
854.438	13.57
854.742	11.36
855.045	11.84
855.349	11.61
855.652	11.37
855.955	10.41
856.259	14.07
856.562	14.63
856.865	14.6
857.168	12.72
857.471	12.9
857.774	14.79
858.077	15.84
858.38	14.27
858.683	16.6
858.986	15.52
859.289	17.12
859.592	17.9
859.894	18.47
860.197	14.65
860.5	14.24
860.802	11.9
861.105	12.93
861.407	12.47
861.71	12.86
862.012	14.74
862.315	13.35
862.617	9.72
862.919	9.18
863.222	10.24
863.524	11.75
863.826	9
864.128	7.4
864.43	8.03
864.732	7.02
865.034	5.58
865.336	5.77
865.638	4.45
865.94	6.4
866.242	6.97
866.544	11.86
866.846	13.38
867.147	16.3
867.449	17.96
867.751	17.61
868.052	14.95
868.354	13.06
868.655	15.35
868.957	18.53
869.258	18.56
869.56	17.22
869.861	17.28
870.162	20.11
870.463	20.62
870.765	17.92
871.066	19.48
871.367	17.99
871.668	16.4
871.969	15.88
872.27	13.26
872.571	12.2
872.872	7.71
873.173	5.4
873.473	1.55
873.774	-1.33
874.075	-1.94
874.376	1.77
874.676	3.52
874.977	4.98
875.277	2.31
875.578	1.68
875.878	1.09
876.179	1.21
876.479	-0.05
876.78	-1.12
877.08	0.4
877.38	-0.2
877.68	3.74
877.981	4.32
878.281	3.17
878.581	3.49
