Data from MVZ_BU136690_Reflection_00012.txt Node
Date: Tue Nov 19 12:08:10 EST 2019
User: vgr7
Spectrometer: USB2G7710
Scans to average: 3
Trigger mode: 4
Integration Time (sec): 2.000000E-2
Electric dark correction enabled: true
Boxcar width: 10
XAxis mode: Wavelengths
Number of Pixels in Spectrum: 2048
>>>>>Begin Spectral Data<<<<<
177.721	242.48
178.105	103.65
178.488	985.59
178.871	380
179.254	50
179.636	50.59
180.019	-35.32
180.402	-9.09
180.785	-635.71
181.168	-77.57
181.55	16.34
181.933	31.87
182.316	93.84
182.698	66.73
183.081	393.6
183.463	344.4
183.846	284.63
184.228	439.67
184.611	-611.96
184.993	-198.08
185.376	715.85
185.758	-193.96
186.14	-112.86
186.522	-626.74
186.904	-568.75
187.287	-518.9
187.669	-191.46
188.051	-610.37
188.433	-903.05
188.815	-1628.45
189.197	-580.19
189.579	-203.66
189.961	-149.19
190.342	-125.61
190.724	-135.84
191.106	-137.28
191.488	-138.34
191.869	-103.62
192.251	-104.82
192.633	-127.92
193.014	-139.98
193.396	-179.18
193.777	-189.06
194.159	-260.36
194.54	-160.79
194.922	-155.74
195.303	-170.52
195.684	-175.23
196.065	-168.12
196.447	-140.25
196.828	-109.52
197.209	-146.97
197.59	-145.11
197.971	-128.78
198.352	-109.71
198.733	-139.4
199.114	-163.41
199.495	-204.09
199.876	-332.62
200.257	-403.07
200.638	-281.58
201.018	-275.34
201.399	-190.51
201.78	-165.54
202.16	-166.85
202.541	-240.97
202.922	-359.39
203.302	-336.35
203.683	-622.41
204.063	-622.41
204.444	-539.04
204.824	-876.09
205.204	-285.73
205.585	-493.75
205.965	-433.4
206.345	-417.77
206.725	-257.28
207.106	-163.85
207.486	-95.91
207.866	-79.4
208.246	-30.11
208.626	-20.66
209.006	-40.2
209.386	0.24
209.766	-59.62
210.145	-52.14
210.525	-58.51
210.905	-2.34
211.285	-33.84
211.664	-0.41
212.044	2.41
212.424	5.55
212.803	12.44
213.183	17.94
213.562	14.07
213.942	10.25
214.321	-21.71
214.701	-53.76
215.08	-81.22
215.459	-98.04
215.838	-98.71
216.218	-130.44
216.597	-124.13
216.976	-147.34
217.355	-150.34
217.734	-191.19
218.113	-159.95
218.492	-132.22
218.871	-137.25
219.25	-122.47
219.629	-173.53
220.008	-181.56
220.387	-176.07
220.766	-138.03
221.144	-162.74
221.523	-185.18
221.902	-160.45
222.28	-159.24
222.659	-86.07
223.037	-76.29
223.416	-61.96
223.794	-51.18
224.173	-40.82
224.551	-33.92
224.929	-32.1
225.308	-30.69
225.686	-19.96
226.064	-26.49
226.442	-22.97
226.821	-15.43
227.199	-13.76
227.577	-3.52
227.955	-3
228.333	-3.04
228.711	-4.48
229.089	-9.6
229.467	-6.85
229.845	-5.4
230.222	-3.35
230.6	-5.56
230.978	-1.94
231.356	-1.98
231.733	-2.02
232.111	-4.85
232.488	-3.18
232.866	-1.6
233.243	-3.61
233.621	-4.31
233.998	-4.13
234.376	-5.08
234.753	-6.83
235.13	-5.65
235.508	-7.76
235.885	-6.7
236.262	-5.33
236.639	-5.35
237.016	-4.19
237.393	-4.01
237.77	-4.2
238.147	-2.42
238.524	-1.46
238.901	-2.66
239.278	-2.31
239.655	-2.22
240.032	-1.08
240.409	-1.2
240.785	-1.29
241.162	-0.35
241.539	0.3
241.915	0.66
242.292	1.04
242.668	1.6
243.045	1.71
243.421	2.3
243.798	1.75
244.174	2.13
244.551	2.44
244.927	2.82
245.303	2.88
245.679	2.69
246.056	2.66
246.432	2.79
246.808	3.19
247.184	3
247.56	3.03
247.936	3.22
248.312	3.4
248.688	3.49
249.064	3.29
249.44	3
249.815	2.95
250.191	2.93
250.567	2.73
250.943	2.61
251.318	2.3
251.694	2.53
252.069	2.07
252.445	1.98
252.82	2.07
253.196	1.81
253.571	1.99
253.947	2.1
254.322	2.06
254.697	2.12
255.073	2.39
255.448	2.41
255.823	1.93
256.198	1.96
256.573	2.04
256.948	2.11
257.323	2.3
257.698	2.5
258.073	2.56
258.448	2.7
258.823	2.71
259.198	2.8
259.573	2.55
259.948	2.69
260.322	2.73
260.697	2.68
261.072	2.68
261.446	2.53
261.821	2.33
262.195	2.15
262.57	2.08
262.944	2.16
263.319	2.14
263.693	2.23
264.067	2.13
264.442	2.22
264.816	2.19
265.19	2.2
265.564	1.92
265.938	1.91
266.313	1.66
266.687	1.5
267.061	1.45
267.435	1.79
267.809	1.83
268.183	1.94
268.556	1.81
268.93	1.88
269.304	1.99
269.678	2
270.051	2.15
270.425	2.18
270.799	2.01
271.172	2.16
271.546	2.22
271.919	2.21
272.293	2.28
272.666	2.47
273.04	2.31
273.413	2.3
273.787	2.27
274.16	2.39
274.533	2.64
274.906	2.66
275.279	2.69
275.653	2.66
276.026	2.73
276.399	2.72
276.772	2.87
277.145	2.94
277.518	2.95
277.891	2.88
278.263	2.99
278.636	3.19
279.009	3.17
279.382	3.01
279.755	2.95
280.127	2.74
280.5	2.78
280.872	2.89
281.245	3
281.617	3.06
281.99	3
282.362	2.93
282.735	2.95
283.107	2.89
283.479	3.01
283.852	3
284.224	3.11
284.596	3.02
284.968	2.88
285.34	2.94
285.713	3.04
286.085	2.91
286.457	2.76
286.829	2.74
287.201	2.82
287.572	2.93
287.944	3.02
288.316	2.97
288.688	3.07
289.06	3.14
289.431	3.19
289.803	3.36
290.175	3.43
290.546	3.45
290.918	3.54
291.289	3.36
291.661	3.29
292.032	3.19
292.403	3.28
292.775	3.43
293.146	3.41
293.517	3.26
293.889	3.35
294.26	3.49
294.631	3.54
295.002	3.64
295.373	3.63
295.744	3.74
296.115	3.76
296.486	3.78
296.857	3.77
297.228	3.71
297.599	3.69
297.97	3.71
298.34	3.83
298.711	3.78
299.082	3.85
299.452	3.89
299.823	3.93
300.194	3.96
300.564	3.89
300.935	3.97
301.305	4.08
301.676	4.09
302.046	4.19
302.416	4.03
302.787	4.06
303.157	3.99
303.527	4.09
303.897	4.04
304.267	4.01
304.637	3.92
305.008	4.05
305.378	4.29
305.748	4.2
306.117	4.13
306.487	4.21
306.857	4.29
307.227	4.41
307.597	4.52
307.967	4.59
308.336	4.66
308.706	4.67
309.076	4.93
309.445	5.03
309.815	4.95
310.184	5.24
310.554	5.28
310.923	5.43
311.293	5.27
311.662	5.39
312.031	5.54
312.401	5.62
312.77	5.63
313.139	5.43
313.508	5.49
313.877	5.5
314.246	5.56
314.616	5.68
314.985	5.61
315.353	5.74
315.722	5.82
316.091	5.88
316.46	5.95
316.829	5.79
317.198	5.86
317.567	5.98
317.935	5.86
318.304	5.93
318.672	5.92
319.041	5.95
319.41	5.88
319.778	5.86
320.147	6.15
320.515	6.18
320.883	6.25
321.252	6.34
321.62	6.41
321.988	6.51
322.357	6.44
322.725	6.57
323.093	6.58
323.461	6.64
323.829	6.72
324.197	6.89
324.565	6.92
324.933	6.88
325.301	6.86
325.669	6.89
326.037	6.9
326.405	7.04
326.772	7.22
327.14	7.26
327.508	7.38
327.875	7.26
328.243	7.14
328.61	7.07
328.978	7.11
329.346	7.22
329.713	7.29
330.08	7.45
330.448	7.5
330.815	7.53
331.182	7.3
331.55	7.29
331.917	7.14
332.284	7.27
332.651	7.28
333.018	7.25
333.385	7.19
333.752	7.39
334.119	7.39
334.486	7.46
334.853	7.62
335.22	7.51
335.587	7.67
335.954	7.91
336.32	8.13
336.687	8.13
337.054	8.19
337.42	8.14
337.787	8.13
338.153	8.19
338.52	8.18
338.886	8.47
339.253	8.57
339.619	8.7
339.986	8.6
340.352	8.68
340.718	8.86
341.084	9.07
341.451	9
341.817	9.04
342.183	9.01
342.549	8.94
342.915	8.99
343.281	8.85
343.647	8.85
344.013	8.77
344.379	8.84
344.745	8.78
345.11	8.8
345.476	8.79
345.842	8.77
346.208	8.88
346.573	8.8
346.939	8.76
347.304	8.71
347.67	8.84
348.035	8.86
348.401	8.89
348.766	8.81
349.132	8.85
349.497	8.78
349.862	8.75
350.228	8.84
350.593	8.86
350.958	8.98
351.323	8.92
351.688	9.05
352.053	9.08
352.418	9.1
352.783	9.18
353.148	9.14
353.513	9.07
353.878	8.92
354.243	8.87
354.608	8.86
354.972	8.93
355.337	8.92
355.702	8.81
356.066	8.7
356.431	8.76
356.795	8.63
357.16	8.6
357.524	8.63
357.889	8.65
358.253	8.61
358.618	8.65
358.982	8.65
359.346	8.61
359.71	8.56
360.075	8.55
360.439	8.47
360.803	8.54
361.167	8.55
361.531	8.6
361.895	8.7
362.259	8.75
362.623	8.66
362.987	8.6
363.351	8.65
363.714	8.69
364.078	8.65
364.442	8.68
364.806	8.77
365.169	8.68
365.533	8.64
365.896	8.69
366.26	8.53
366.623	8.5
366.987	8.5
367.35	8.51
367.714	8.52
368.077	8.52
368.44	8.47
368.803	8.48
369.167	8.44
369.53	8.42
369.893	8.35
370.256	8.35
370.619	8.34
370.982	8.29
371.345	8.24
371.708	8.15
372.071	8.04
372.434	7.92
372.797	8
373.159	7.9
373.522	7.87
373.885	7.93
374.247	7.88
374.61	7.85
374.973	7.76
375.335	7.71
375.698	7.67
376.06	7.55
376.423	7.45
376.785	7.41
377.147	7.28
377.51	7.28
377.872	7.22
378.234	7.22
378.596	7.21
378.958	7.16
379.321	7.14
379.683	7.19
380.045	7.17
380.407	7.12
380.769	7.03
381.13	6.93
381.492	6.85
381.854	6.83
382.216	6.77
382.578	6.76
382.939	6.67
383.301	6.62
383.663	6.63
384.024	6.58
384.386	6.6
384.747	6.62
385.109	6.55
385.47	6.55
385.832	6.47
386.193	6.43
386.554	6.36
386.916	6.4
387.277	6.27
387.638	6.24
387.999	6.16
388.36	6.17
388.721	6.21
389.082	6.21
389.443	6.22
389.804	6.18
390.165	6.12
390.526	6.12
390.887	6.04
391.248	6.02
391.609	6.01
391.969	5.93
392.33	5.85
392.691	5.87
393.051	5.83
393.412	5.82
393.772	5.82
394.133	5.77
394.493	5.69
394.854	5.68
395.214	5.64
395.574	5.59
395.935	5.55
396.295	5.47
396.655	5.41
397.015	5.35
397.376	5.31
397.736	5.22
398.096	5.18
398.456	5.17
398.816	5.12
399.176	5.04
399.535	4.99
399.895	4.92
400.255	4.84
400.615	4.82
400.975	4.81
401.334	4.73
401.694	4.73
402.054	4.71
402.413	4.71
402.773	4.68
403.132	4.68
403.492	4.65
403.851	4.64
404.211	4.63
404.57	4.59
404.929	4.58
405.288	4.6
405.648	4.55
406.007	4.55
406.366	4.53
406.725	4.53
407.084	4.53
407.443	4.54
407.802	4.53
408.161	4.53
408.52	4.48
408.879	4.51
409.238	4.48
409.596	4.48
409.955	4.48
410.314	4.43
410.673	4.37
411.031	4.38
411.39	4.36
411.748	4.34
412.107	4.33
412.465	4.29
412.824	4.3
413.182	4.35
413.54	4.33
413.899	4.33
414.257	4.33
414.615	4.3
414.974	4.3
415.332	4.33
415.69	4.29
416.048	4.3
416.406	4.24
416.764	4.24
417.122	4.2
417.48	4.19
417.838	4.18
418.195	4.18
418.553	4.17
418.911	4.15
419.269	4.12
419.626	4.1
419.984	4.07
420.342	4.04
420.699	3.99
421.057	3.97
421.414	3.94
421.772	3.93
422.129	3.92
422.486	3.89
422.844	3.86
423.201	3.85
423.558	3.84
423.915	3.84
424.273	3.84
424.63	3.84
424.987	3.83
425.344	3.83
425.701	3.82
426.058	3.8
426.415	3.77
426.772	3.76
427.128	3.76
427.485	3.77
427.842	3.75
428.199	3.76
428.555	3.77
428.912	3.75
429.269	3.74
429.625	3.77
429.982	3.77
430.338	3.77
430.695	3.76
431.051	3.73
431.407	3.71
431.764	3.68
432.12	3.67
432.476	3.69
432.832	3.71
433.189	3.69
433.545	3.69
433.901	3.7
434.257	3.72
434.613	3.73
434.969	3.72
435.325	3.73
435.681	3.73
436.036	3.71
436.392	3.74
436.748	3.74
437.104	3.71
437.459	3.71
437.815	3.7
438.171	3.69
438.526	3.71
438.882	3.72
439.237	3.75
439.593	3.75
439.948	3.73
440.304	3.72
440.659	3.7
441.014	3.71
441.369	3.71
441.725	3.71
442.08	3.69
442.435	3.69
442.79	3.7
443.145	3.7
443.5	3.7
443.855	3.69
444.21	3.68
444.565	3.68
444.92	3.67
445.275	3.66
445.629	3.66
445.984	3.66
446.339	3.64
446.693	3.61
447.048	3.58
447.403	3.59
447.757	3.58
448.112	3.6
448.466	3.61
448.82	3.59
449.175	3.58
449.529	3.59
449.883	3.59
450.238	3.58
450.592	3.58
450.946	3.58
451.3	3.58
451.654	3.59
452.008	3.58
452.362	3.6
452.716	3.61
453.07	3.63
453.424	3.62
453.778	3.62
454.132	3.61
454.486	3.63
454.839	3.63
455.193	3.65
455.547	3.61
455.9	3.59
456.254	3.59
456.607	3.6
456.961	3.6
457.314	3.61
457.668	3.62
458.021	3.62
458.375	3.61
458.728	3.6
459.081	3.61
459.434	3.61
459.787	3.61
460.141	3.62
460.494	3.61
460.847	3.61
461.2	3.62
461.553	3.64
461.906	3.63
462.259	3.62
462.611	3.61
462.964	3.64
463.317	3.66
463.67	3.67
464.022	3.68
464.375	3.69
464.728	3.67
465.08	3.7
465.433	3.71
465.785	3.71
466.138	3.76
466.49	3.79
466.843	3.82
467.195	3.83
467.547	3.81
467.899	3.82
468.252	3.83
468.604	3.84
468.956	3.85
469.308	3.87
469.66	3.91
470.012	3.92
470.364	3.93
470.716	3.95
471.068	3.96
471.42	3.96
471.772	3.97
472.123	4
472.475	4.02
472.827	4.01
473.178	4.03
473.53	4.01
473.882	3.99
474.233	3.97
474.585	3.98
474.936	3.99
475.288	4.01
475.639	4.02
475.99	4.02
476.342	4.04
476.693	4.05
477.044	4.04
477.395	4.03
477.746	4.02
478.097	4.03
478.448	4.03
478.8	4.02
479.15	4
479.501	3.99
479.852	3.97
480.203	3.96
480.554	3.95
480.905	3.95
481.255	3.95
481.606	3.97
481.957	3.96
482.307	3.95
482.658	3.94
483.009	3.94
483.359	3.95
483.709	3.95
484.06	3.94
484.41	3.95
484.761	3.96
485.111	3.96
485.461	3.96
485.811	3.95
486.162	3.95
486.512	3.95
486.862	3.96
487.212	3.97
487.562	3.97
487.912	3.98
488.262	3.98
488.612	3.98
488.961	3.98
489.311	3.99
489.661	3.99
490.011	3.99
490.36	3.99
490.71	3.98
491.06	3.97
491.409	3.98
491.759	3.98
492.108	3.99
492.458	3.99
492.807	3.99
493.157	4.01
493.506	4.02
493.855	4.04
494.204	4.05
494.554	4.07
494.903	4.09
495.252	4.13
495.601	4.15
495.95	4.18
496.299	4.22
496.648	4.25
496.997	4.31
497.346	4.37
497.695	4.43
498.043	4.49
498.392	4.54
498.741	4.58
499.09	4.65
499.438	4.69
499.787	4.76
500.135	4.82
500.484	4.89
500.832	4.96
501.181	5.02
501.529	5.11
501.878	5.18
502.226	5.27
502.574	5.34
502.923	5.43
503.271	5.51
503.619	5.58
503.967	5.66
504.315	5.73
504.663	5.8
505.011	5.88
505.359	5.99
505.707	6.11
506.055	6.21
506.403	6.29
506.751	6.4
507.098	6.5
507.446	6.6
507.794	6.73
508.141	6.86
508.489	6.98
508.837	7.09
509.184	7.19
509.531	7.3
509.879	7.4
510.226	7.53
510.574	7.65
510.921	7.75
511.268	7.89
511.616	8.05
511.963	8.19
512.31	8.35
512.657	8.47
513.004	8.63
513.351	8.79
513.698	8.96
514.045	9.1
514.392	9.28
514.739	9.47
515.086	9.6
515.432	9.75
515.779	9.92
516.126	10.09
516.473	10.24
516.819	10.41
517.166	10.56
517.512	10.7
517.859	10.84
518.205	11
518.552	11.11
518.898	11.21
519.245	11.35
519.591	11.48
519.937	11.62
520.283	11.73
520.629	11.88
520.976	12.02
521.322	12.2
521.668	12.37
522.014	12.53
522.36	12.72
522.706	12.9
523.052	13.08
523.398	13.27
523.743	13.49
524.089	13.7
524.435	13.9
524.781	14.1
525.126	14.25
525.472	14.42
525.817	14.6
526.163	14.75
526.509	14.89
526.854	14.99
527.199	15.1
527.545	15.23
527.89	15.34
528.235	15.48
528.581	15.6
528.926	15.72
529.271	15.83
529.616	15.98
529.961	16.1
530.306	16.24
530.651	16.4
530.996	16.54
531.341	16.7
531.686	16.87
532.031	17.05
532.376	17.23
532.721	17.41
533.065	17.6
533.41	17.79
533.755	17.97
534.099	18.18
534.444	18.4
534.788	18.59
535.133	18.8
535.477	18.98
535.822	19.2
536.166	19.44
536.51	19.73
536.855	19.98
537.199	20.25
537.543	20.56
537.887	20.8
538.231	21.08
538.576	21.35
538.92	21.62
539.264	21.87
539.608	22.14
539.951	22.37
540.295	22.61
540.639	22.84
540.983	23.07
541.327	23.32
541.671	23.54
542.014	23.8
542.358	24.02
542.701	24.23
543.045	24.44
543.389	24.64
543.732	24.83
544.075	25.04
544.419	25.25
544.762	25.47
545.105	25.73
545.449	25.98
545.792	26.24
546.135	26.48
546.478	26.77
546.821	27.04
547.165	27.33
547.508	27.61
547.851	27.89
548.194	28.2
548.536	28.47
548.879	28.78
549.222	29.03
549.565	29.33
549.908	29.67
550.25	29.98
550.593	30.25
550.936	30.56
551.278	30.87
551.621	31.21
551.963	31.5
552.306	31.78
552.648	32.11
552.991	32.42
553.333	32.71
553.675	32.96
554.017	33.23
554.36	33.49
554.702	33.73
555.044	34.01
555.386	34.24
555.728	34.52
556.07	34.76
556.412	35.07
556.754	35.26
557.096	35.51
557.438	35.78
557.78	36.1
558.121	36.41
558.463	36.63
558.805	36.87
559.147	37.12
559.488	37.36
559.83	37.6
560.171	37.83
560.513	38.1
560.854	38.38
561.196	38.64
561.537	38.88
561.878	39.19
562.22	39.44
562.561	39.71
562.902	39.88
563.243	40.07
563.584	40.22
563.925	40.52
564.266	40.72
564.607	40.9
564.948	41.12
565.289	41.36
565.63	41.61
565.971	41.77
566.312	41.95
566.653	42.14
566.993	42.28
567.334	42.52
567.675	42.7
568.015	42.84
568.356	43
568.696	43.24
569.037	43.35
569.377	43.49
569.718	43.67
570.058	43.88
570.398	44.09
570.739	44.3
571.079	44.52
571.419	44.61
571.759	44.8
572.099	44.9
572.439	44.99
572.779	45.13
573.119	45.3
573.459	45.46
573.799	45.62
574.139	45.82
574.479	45.89
574.819	46.06
575.158	46.16
575.498	46.33
575.838	46.49
576.177	46.61
576.517	46.78
576.856	46.86
577.196	47.07
577.535	47.21
577.875	47.31
578.214	47.42
578.553	47.64
578.893	47.78
579.232	47.96
579.571	48.16
579.91	48.3
580.25	48.43
580.589	48.56
580.928	48.7
581.267	48.72
581.606	48.89
581.945	49
582.283	49.23
582.622	49.33
582.961	49.35
583.3	49.49
583.639	49.63
583.977	49.81
584.316	49.9
584.654	50
584.993	50.14
585.332	50.24
585.67	50.41
586.008	50.48
586.347	50.54
586.685	50.58
587.024	50.7
587.362	50.78
587.7	50.84
588.038	50.97
588.376	51.16
588.715	51.23
589.053	51.39
589.391	51.44
589.729	51.47
590.067	51.54
590.404	51.65
590.742	51.68
591.08	51.73
591.418	51.81
591.756	51.84
592.093	51.95
592.431	52.07
592.769	52.12
593.106	52.16
593.444	52.29
593.781	52.39
594.119	52.47
594.456	52.56
594.793	52.58
595.131	52.6
595.468	52.64
595.805	52.68
596.143	52.64
596.48	52.7
596.817	52.82
597.154	52.93
597.491	52.97
597.828	53.05
598.165	53.17
598.502	53.23
598.839	53.34
599.176	53.39
599.512	53.37
599.849	53.48
600.186	53.56
600.523	53.67
600.859	53.7
601.196	53.77
601.532	53.82
601.869	53.84
602.205	53.94
602.542	53.95
602.878	54.01
603.215	54.09
603.551	54.1
603.887	54.08
604.223	54.09
604.56	54.13
604.896	54.09
605.232	54.07
605.568	53.98
605.904	53.94
606.24	53.96
606.576	53.99
606.912	53.96
607.248	54.05
607.583	53.99
607.919	54.02
608.255	54.05
608.591	54.08
608.926	54.14
609.262	54.11
609.597	54.15
609.933	54.24
610.268	54.31
610.604	54.35
610.939	54.41
611.275	54.48
611.61	54.51
611.945	54.64
612.281	54.72
612.616	54.9
612.951	55.08
613.286	55.18
613.621	55.23
613.956	55.28
614.291	55.27
614.626	55.29
614.961	55.35
615.296	55.39
615.631	55.42
615.966	55.59
616.3	55.72
616.635	55.78
616.97	55.72
617.304	55.66
617.639	55.68
617.973	55.75
618.308	55.77
618.642	55.89
618.977	55.95
619.311	55.97
619.646	55.92
619.98	55.88
620.314	55.8
620.648	55.85
620.983	55.96
621.317	56.01
621.651	56
621.985	56.03
622.319	55.96
622.653	55.92
622.987	55.95
623.321	55.99
623.655	56.06
623.988	56.11
624.322	56.18
624.656	56.17
624.99	56.15
625.323	56.21
625.657	56.18
625.99	56.13
626.324	56.18
626.657	56.18
626.991	56.2
627.324	56.27
627.658	56.3
627.991	56.21
628.324	56.31
628.657	56.49
628.991	56.53
629.324	56.59
629.657	56.65
629.99	56.57
630.323	56.52
630.656	56.47
630.989	56.51
631.322	56.48
631.655	56.46
631.987	56.49
632.32	56.49
632.653	56.58
632.986	56.59
633.318	56.55
633.651	56.67
633.984	56.69
634.316	56.75
634.649	56.74
634.981	56.77
635.313	56.78
635.646	56.72
635.978	56.7
636.31	56.64
636.643	56.79
636.975	56.9
637.307	56.96
637.639	56.96
637.971	56.9
638.303	56.95
638.635	57.15
638.967	57.16
639.299	57.1
639.631	57.1
639.963	57.15
640.295	57.19
640.626	57.13
640.958	57.16
641.29	57
641.621	57.05
641.953	57.12
642.285	56.99
642.616	57.01
642.948	57
643.279	57.09
643.61	57.02
643.942	57.06
644.273	57.02
644.604	57.05
644.936	57.13
645.267	57.22
645.598	57.27
645.929	57.27
646.26	57.25
646.591	57.25
646.922	57.23
647.253	57.32
647.584	57.27
647.915	57.31
648.245	57.38
648.576	57.44
648.907	57.49
649.238	57.5
649.568	57.41
649.899	57.41
650.229	57.3
650.56	57.3
650.89	57.22
651.221	57.27
651.551	57.26
651.882	57.35
652.212	57.26
652.542	57.2
652.872	57.32
653.203	57.38
653.533	57.37
653.863	57.47
654.193	57.44
654.523	57.41
654.853	57.32
655.183	57.4
655.513	57.43
655.843	57.38
656.172	57.42
656.502	57.48
656.832	57.56
657.162	57.72
657.491	57.74
657.821	57.76
658.15	57.81
658.48	57.94
658.809	57.92
659.139	57.97
659.468	57.91
659.798	57.83
660.127	57.75
660.456	57.82
660.785	57.81
661.115	57.82
661.444	57.83
661.773	57.95
662.102	57.92
662.431	57.81
662.76	57.86
663.089	57.79
663.418	57.86
663.747	57.83
664.076	57.68
664.404	57.7
664.733	57.76
665.062	57.69
665.39	57.57
665.719	57.6
666.048	57.61
666.376	57.67
666.705	57.64
667.033	57.71
667.362	57.72
667.69	57.73
668.018	57.78
668.347	57.85
668.675	57.85
669.003	57.79
669.331	57.87
669.659	57.9
669.987	58.02
670.315	57.95
670.643	57.92
670.971	58.1
671.299	58.08
671.627	58.17
671.955	58.16
672.283	58.05
672.61	58.06
672.938	58.05
673.266	58
673.593	58.2
673.921	58.34
674.249	58.26
674.576	58.41
674.904	58.46
675.231	58.49
675.558	58.64
675.886	58.65
676.213	58.54
676.54	58.65
676.867	58.74
677.195	58.88
677.522	58.77
677.849	58.79
678.176	58.83
678.503	58.59
678.83	58.6
679.157	58.71
679.484	58.68
679.81	58.7
680.137	58.87
680.464	58.84
680.791	58.89
681.117	58.89
681.444	58.78
681.771	58.67
682.097	58.72
682.424	58.55
682.75	58.51
683.077	58.68
683.403	58.5
683.729	58.29
684.056	58.2
684.382	58.35
684.708	58.25
685.034	58.34
685.36	58.57
685.686	58.56
686.012	58.58
686.339	58.69
686.664	58.71
686.99	58.61
687.316	58.6
687.642	58.57
687.968	58.58
688.294	58.54
688.619	58.56
688.945	58.65
689.271	58.64
689.596	58.79
689.922	58.79
690.247	58.99
690.573	59.12
690.898	59.28
691.224	59.26
691.549	59.38
691.874	59.23
692.2	59.17
692.525	59.36
692.85	59.39
693.175	59.29
693.5	59.26
693.825	59.24
694.15	59.19
694.475	58.91
694.8	59.04
695.125	59.06
695.45	58.91
695.775	58.88
696.099	58.95
696.424	59.06
696.749	58.97
697.073	58.92
697.398	58.97
697.723	58.94
698.047	58.99
698.372	58.79
698.696	58.78
699.02	58.85
699.345	58.83
699.669	58.9
699.993	58.91
700.318	58.91
700.642	58.98
700.966	58.96
701.29	59.04
701.614	58.91
701.938	59
702.262	59.12
702.586	59
702.91	59.02
703.234	58.89
703.557	58.87
703.881	58.83
704.205	58.85
704.529	58.94
704.852	58.89
705.176	59.2
705.499	59.28
705.823	58.95
706.146	59.05
706.47	59.05
706.793	59.2
707.117	59.22
707.44	59.33
707.763	59.32
708.086	59.48
708.409	59.44
708.733	59.38
709.056	59.45
709.379	59.56
709.702	59.66
710.025	59.68
710.348	59.71
710.671	59.79
710.993	59.81
711.316	59.51
711.639	59.68
711.962	59.61
712.284	59.5
712.607	59.75
712.93	59.46
713.252	59.61
713.575	59.42
713.897	59.46
714.22	59.35
714.542	59.39
714.864	59.54
715.187	59.57
715.509	59.49
715.831	59.5
716.153	59.47
716.475	59.36
716.798	59.45
717.12	59.46
717.442	59.36
717.764	59.3
718.085	59.51
718.407	59.26
718.729	59.24
719.051	59.35
719.373	59.46
719.695	59.73
720.016	59.54
720.338	59.71
720.659	59.56
720.981	59.55
721.302	59.87
721.624	59.87
721.945	59.91
722.267	60.04
722.588	59.99
722.909	59.96
723.231	60.09
723.552	60.05
723.873	59.92
724.194	59.8
724.515	59.85
724.836	59.78
725.157	59.86
725.478	59.81
725.799	59.61
726.12	59.64
726.441	59.51
726.762	59.53
727.083	59.21
727.403	59.15
727.724	59.23
728.045	58.88
728.365	58.64
728.686	58.93
729.006	59.11
729.327	59.17
729.647	59.24
729.967	59.15
730.288	59.15
730.608	59.12
730.928	59.03
731.249	59.18
731.569	59.17
731.889	59.15
732.209	59.1
732.529	59.28
732.849	59.01
733.169	58.86
733.489	58.87
733.809	59.2
734.129	59.34
734.448	59.36
734.768	59.58
735.088	59.86
735.408	59.85
735.727	59.78
736.047	59.73
736.366	59.72
736.686	59.61
737.005	59.67
737.325	59.8
737.644	60.02
737.963	59.6
738.283	59.52
738.602	59.52
738.921	59.68
739.24	59.76
739.56	59.95
739.879	60.06
740.198	59.88
740.517	59.96
740.836	59.93
741.155	59.93
741.473	59.62
741.792	59.55
742.111	59.3
742.43	59.33
742.748	59.38
743.067	59.48
743.386	59.69
743.704	59.71
744.023	59.93
744.341	60.57
744.66	60.69
744.978	60.65
745.297	60.59
745.615	60.63
745.933	60.95
746.252	60.68
746.57	60.69
746.888	60.72
747.206	60.36
747.524	60.41
747.842	60.71
748.16	60.8
748.478	60.74
748.796	60.99
749.114	61.09
749.432	61.12
749.749	60.93
750.067	60.97
750.385	61.07
750.703	61.04
751.02	60.48
751.338	60.69
751.655	60.98
751.973	61.22
752.29	61.02
752.608	60.37
752.925	60.74
753.242	60.73
753.56	60.91
753.877	61.1
754.194	61.06
754.511	60.43
754.828	60.54
755.145	60.58
755.462	60.23
755.779	60.37
756.096	60.31
756.413	60.49
756.73	60.71
757.047	60.5
757.364	60.13
757.68	59.83
757.997	59.91
758.314	59.74
758.63	60.25
758.947	60.26
759.264	60.76
759.58	61.1
759.896	61.24
760.213	61.18
760.529	60.93
760.846	60.96
761.162	60.88
761.478	61
761.794	60.63
762.11	60.42
762.426	60.1
762.743	60.08
763.059	60.24
763.375	60.24
763.69	60.2
764.006	60.51
764.322	60.37
764.638	60.15
764.954	60.28
765.27	60.1
765.585	59.95
765.901	59.94
766.216	59.61
766.532	59.37
766.848	59.14
767.163	59.26
767.478	59.44
767.794	59.63
768.109	59.21
768.424	59.62
768.74	59.89
769.055	59.94
769.37	59.94
769.685	59.44
770	59.24
770.315	59.26
770.63	59.24
770.945	59.6
771.26	59.9
771.575	59.73
771.89	59.22
772.205	60.18
772.52	59.85
772.834	60.24
773.149	60.81
773.464	61.43
773.778	61.28
774.093	60.67
774.407	60.53
774.722	60.66
775.036	60.38
775.351	60.54
775.665	60.95
775.979	60.93
776.293	61.2
776.608	61.06
776.922	61.39
777.236	61.3
777.55	61.38
777.864	61.18
778.178	61.19
778.492	61.12
778.806	60.58
779.12	60.29
779.434	59.6
779.747	59.13
780.061	59.04
780.375	59.23
780.689	59.32
781.002	59.48
781.316	59.9
781.629	60.16
781.943	60.03
782.256	59.6
782.57	59.84
782.883	59.77
783.196	59.83
783.51	59.78
783.823	59.65
784.136	59.79
784.449	59.91
784.762	60.33
785.075	60.4
785.388	60.48
785.701	60.84
786.014	60.82
786.327	60.87
786.64	60.85
786.953	60.93
787.266	61.33
787.578	61
787.891	61.08
788.204	60.82
788.516	61.04
788.829	61.03
789.141	60.62
789.454	60.48
789.766	60.39
790.079	60.51
790.391	60.35
790.703	60.48
791.016	60.66
791.328	60.74
791.64	61.41
791.952	61.56
792.264	61.32
792.576	61.57
792.888	61.73
793.2	61.11
793.512	61.29
793.824	61.07
794.136	61.18
794.448	61.06
794.76	61.05
795.071	60.12
795.383	60.35
795.695	60.93
796.006	61.2
796.318	61.97
796.629	61.42
796.941	61.58
797.252	61.22
797.564	61.27
797.875	60.98
798.186	60.62
798.497	60.43
798.809	60.42
799.12	60.74
799.431	60.7
799.742	60.51
800.053	60.44
800.364	60.49
800.675	60.8
800.986	59.79
801.297	60.07
801.608	60.41
801.918	60
802.229	59.35
802.54	58.78
802.851	57.98
803.161	58.36
803.472	58.18
803.782	57.97
804.093	57.58
804.403	56.77
804.714	56.45
805.024	56.38
805.334	56.59
805.645	55.65
805.955	56.15
806.265	56.48
806.575	56.03
806.885	55.72
807.195	54.77
807.505	56.22
807.815	55.74
808.125	56.05
808.435	56.35
808.745	56.12
809.055	56.41
809.365	56.43
809.674	56.06
809.984	56.34
810.294	56.72
810.603	57.74
810.913	58.12
811.222	57.96
811.532	58
811.841	58.11
812.151	59.24
812.46	58.12
812.769	58.66
813.079	58.51
813.388	58.99
813.697	60.66
814.006	59.62
814.315	59.6
814.624	60.41
814.933	60.33
815.242	60.08
815.551	59.98
815.86	59.52
816.169	59.41
816.478	59.68
816.786	59.3
817.095	58.27
817.404	58.97
817.712	59.9
818.021	59.38
818.33	59.37
818.638	59.77
818.947	60.18
819.255	60.54
819.563	60.97
819.872	61.49
820.18	61.34
820.488	61.5
820.796	61.53
821.105	61.45
821.413	61.28
821.721	61.61
822.029	61.89
822.337	62.13
822.645	62.15
822.953	61.94
823.26	62.07
823.568	62.04
823.876	61.86
824.184	61.78
824.491	61.87
824.799	61.92
825.107	61.69
825.414	61.67
825.722	61.62
826.029	61.58
826.337	61.29
826.644	61.17
826.951	61.41
827.259	61.5
827.566	61.45
827.873	61.32
828.18	61.21
828.488	60.82
828.795	60.54
829.102	60.24
829.409	60.37
829.716	60.48
830.023	60.42
830.329	60.57
830.636	60.76
830.943	60.96
831.25	61.27
831.557	61.25
831.863	61.66
832.17	61.81
832.476	62.12
832.783	62.54
833.089	62.75
833.396	62.64
833.702	62.73
834.009	62.44
834.315	63.26
834.621	63.58
834.928	64.28
835.234	64.94
835.54	65.12
835.846	65.45
836.152	64.86
836.458	65.26
836.764	65.05
837.07	64.57
837.376	64.71
837.682	64.42
837.988	64.7
838.293	64.7
838.599	64.08
838.905	63.86
839.211	63.47
839.516	62.64
839.822	62.23
840.127	62.22
840.433	62.54
840.738	61.75
841.044	60.63
841.349	59.68
841.654	58.15
841.959	57.87
842.265	56.47
842.57	57.22
842.875	56.01
843.18	55.15
843.485	56.15
843.79	55.18
844.095	55.72
844.4	55.71
844.705	54.07
845.01	55.69
845.315	55.31
845.619	56.06
845.924	56.17
846.229	56.34
846.533	56.06
846.838	55.01
847.142	55.24
847.447	55.31
847.751	56.41
848.056	56.43
848.36	56.66
848.664	57.55
848.969	57.39
849.273	59.97
849.577	61.26
849.881	58.8
850.185	60.02
850.489	57.83
850.794	59.81
851.097	62.44
851.401	62.31
851.705	62.9
852.009	63.26
852.313	66.2
852.617	65.65
852.92	64.5
853.224	65.07
853.528	64.86
853.831	65.42
854.135	65.77
854.438	66.91
854.742	68.79
855.045	68.16
855.349	68.56
855.652	67.41
855.955	68.23
856.259	71
856.562	68.62
856.865	69.21
857.168	69.22
857.471	69.99
857.774	67.96
858.077	67.8
858.38	68.75
858.683	68.86
858.986	67.69
859.289	68.08
859.592	67.28
859.894	67.09
860.197	66.69
860.5	65.97
860.802	68.2
861.105	68.47
861.407	69.51
861.71	65.23
862.012	63.94
862.315	64.91
862.617	61.82
862.919	61.48
863.222	63.06
863.524	60.16
863.826	59.27
864.128	60.17
864.43	61
864.732	58.4
865.034	57.65
865.336	59.01
865.638	58.94
865.94	60.94
866.242	62.69
866.544	65.24
866.846	65.65
867.147	61.51
867.449	61.9
867.751	58.89
868.052	61.16
868.354	60.58
868.655	61.47
868.957	60.19
869.258	61.17
869.56	58.9
869.861	62.88
870.162	62.39
870.463	61.05
870.765	59.75
871.066	57.48
871.367	53.1
871.668	52.66
871.969	51.73
872.27	51.13
872.571	49.98
872.872	48.07
873.173	48.04
873.473	47.11
873.774	45.48
874.075	48.38
874.376	48.11
874.676	48.91
874.977	47.09
875.277	50.13
875.578	50.54
875.878	50.78
876.179	47.91
876.479	46.84
876.78	46.53
877.08	45.41
877.38	48.29
877.68	52.64
877.981	51.21
878.281	53.36
878.581	53.71
