Data from MVZ_BU5182_Reflection_00014.txt Node
Date: Tue Nov 19 12:19:30 EST 2019
User: vgr7
Spectrometer: USB2G7710
Scans to average: 3
Trigger mode: 4
Integration Time (sec): 2.000000E-2
Electric dark correction enabled: true
Boxcar width: 10
XAxis mode: Wavelengths
Number of Pixels in Spectrum: 2048
>>>>>Begin Spectral Data<<<<<
177.721	-25.53
178.105	-94.92
178.488	7.73
178.871	-3.57
179.254	-33.33
179.636	22.54
180.019	-23.22
180.402	181.82
180.785	65.52
181.168	-614.29
181.55	178.43
181.933	194.34
182.316	-207.69
182.698	-38.73
183.081	-8.03
183.463	-4.9
183.846	4.4
184.228	9.27
184.611	-0.17
184.993	10.64
185.376	16.81
185.758	31.03
186.14	9.24
186.522	22.85
186.904	19.33
187.287	5.97
187.669	2.44
188.051	-5.67
188.433	-3.38
188.815	4.08
189.197	27.59
189.579	23.56
189.961	18.17
190.342	20.37
190.724	10.32
191.106	8.28
191.488	9.49
191.869	24.95
192.251	9.63
192.633	6.3
193.014	-10.6
193.396	-16.52
193.777	-15.34
194.159	-15.06
194.54	-3.81
194.922	-3.17
195.303	1.64
195.684	-3.05
196.065	4.11
196.447	7.33
196.828	5.33
197.209	-3.6
197.59	9.42
197.971	10.77
198.352	-1.83
198.733	-4.7
199.114	-0.96
199.495	-3.68
199.876	-9.22
200.257	-0.94
200.638	6.87
201.018	15.51
201.399	11.36
201.78	-1.04
202.16	-0.84
202.541	-18.2
202.922	-17.86
203.302	-15.72
203.683	-6.19
204.063	-12.82
204.444	-19.18
204.824	-33.33
205.204	-20.46
205.585	-27.86
205.965	-20.06
206.345	2.64
206.725	0.95
207.106	-3.4
207.486	-7.1
207.866	-22.08
208.246	-24.36
208.626	-34.3
209.006	-40.23
209.386	-45.86
209.766	-38.38
210.145	-23.88
210.525	-17.87
210.905	-11.22
211.285	-12.51
211.664	-12.2
212.044	-17.89
212.424	-9.97
212.803	-7.73
213.183	-23.64
213.562	-19.21
213.942	-22.77
214.321	-34.83
214.701	-45.28
215.08	-44.8
215.459	-26
215.838	-21.88
216.218	-25.53
216.597	-12.54
216.976	-17.18
217.355	-12.68
217.734	-19.02
218.113	-22.03
218.492	-22.59
218.871	-26.07
219.25	-24.19
219.629	-21.85
220.008	-19.66
220.387	-26.32
220.766	-25.97
221.144	-22.38
221.523	-31.39
221.902	-23.18
222.28	-8.65
222.659	0.06
223.037	0.83
223.416	0.91
223.794	3.95
224.173	-1.9
224.551	-9.27
224.929	-1.19
225.308	0.16
225.686	5.11
226.064	4.58
226.442	8.13
226.821	6.92
227.199	6.82
227.577	3.29
227.955	2.97
228.333	3.18
228.711	2.45
229.089	4.56
229.467	5.94
229.845	-0.58
230.222	-2.51
230.6	-4.79
230.978	-3.54
231.356	-6.49
231.733	-1.5
232.111	1.94
232.488	3.69
232.866	3.07
233.243	2.96
233.621	2.15
233.998	-0.32
234.376	-2.31
234.753	-3.08
235.13	-5.8
235.508	-3.85
235.885	-1.35
236.262	-3.55
236.639	-2.34
237.016	-1.95
237.393	-1.42
237.77	0.35
238.147	-0.11
238.524	0.73
238.901	-0.03
239.278	0.57
239.655	-1.17
240.032	-1.44
240.409	-1.15
240.785	-0.95
241.162	-1.19
241.539	-1.01
241.915	-0.39
242.292	0.17
242.668	0.9
243.045	1.93
243.421	2.38
243.798	2.12
244.174	2.75
244.551	2.73
244.927	2.95
245.303	2.97
245.679	3
246.056	2.78
246.432	2.84
246.808	3.14
247.184	3.17
247.56	3.25
247.936	3.38
248.312	3.53
248.688	3.49
249.064	3.6
249.44	3.48
249.815	3.65
250.191	3.55
250.567	3.59
250.943	3.67
251.318	3.46
251.694	3.47
252.069	3.27
252.445	3.49
252.82	3.23
253.196	3.37
253.571	3.51
253.947	3.38
254.322	3.42
254.697	3.21
255.073	3
255.448	3.37
255.823	3.2
256.198	2.94
256.573	3.21
256.948	3.28
257.323	3.38
257.698	3.4
258.073	3.19
258.448	3.31
258.823	3.14
259.198	3.32
259.573	3.23
259.948	3.31
260.322	3.26
260.697	3.32
261.072	3.31
261.446	3.28
261.821	3.54
262.195	3.57
262.57	3.72
262.944	3.91
263.319	3.83
263.693	3.91
264.067	3.95
264.442	3.68
264.816	3.7
265.19	3.8
265.564	3.66
265.938	3.85
266.313	3.62
266.687	3.64
267.061	3.26
267.435	3.44
267.809	3.37
268.183	3.18
268.556	3.18
268.93	3.15
269.304	2.88
269.678	2.9
270.051	2.87
270.425	2.78
270.799	2.71
271.172	2.72
271.546	2.6
271.919	2.77
272.293	2.98
272.666	3.01
273.04	2.92
273.413	3.03
273.787	2.96
274.16	3.08
274.533	3.23
274.906	3.38
275.279	3.24
275.653	3.32
276.026	3.42
276.399	3.31
276.772	3.36
277.145	3.69
277.518	3.49
277.891	3.41
278.263	3.5
278.636	3.47
279.009	3.36
279.382	3.44
279.755	3.37
280.127	3.27
280.5	3.03
280.872	2.98
281.245	2.7
281.617	2.63
281.99	2.5
282.362	2.43
282.735	2.46
283.107	2.59
283.479	2.45
283.852	2.54
284.224	2.64
284.596	2.49
284.968	2.25
285.34	2.31
285.713	2.43
286.085	2.3
286.457	2.41
286.829	2.42
287.201	2.38
287.572	2.42
287.944	2.5
288.316	2.62
288.688	2.69
289.06	2.74
289.431	2.87
289.803	3.1
290.175	3.11
290.546	3.05
290.918	2.99
291.289	3.03
291.661	2.9
292.032	2.96
292.403	3
292.775	3.17
293.146	3.29
293.517	3.2
293.889	3.28
294.26	3.25
294.631	3.26
295.002	3.33
295.373	3.3
295.744	3.22
296.115	3.39
296.486	3.37
296.857	3.59
297.228	3.49
297.599	3.28
297.97	3.37
298.34	3.56
298.711	3.63
299.082	3.75
299.452	3.75
299.823	3.72
300.194	3.77
300.564	3.74
300.935	3.73
301.305	3.81
301.676	3.78
302.046	3.77
302.416	3.79
302.787	3.86
303.157	4.05
303.527	4.1
303.897	3.93
304.267	4
304.637	3.91
305.008	3.98
305.378	4.11
305.748	3.79
306.117	3.72
306.487	3.55
306.857	3.6
307.227	3.81
307.597	3.77
307.967	3.71
308.336	3.8
308.706	3.84
309.076	4.02
309.445	4.24
309.815	4.19
310.184	4.23
310.554	4.13
310.923	3.88
311.293	3.96
311.662	4.09
312.031	4.15
312.401	4.08
312.77	4.17
313.139	4.1
313.508	4.2
313.877	4.23
314.246	4.55
314.616	4.52
314.985	4.43
315.353	4.57
315.722	4.67
316.091	4.55
316.46	4.44
316.829	4.3
317.198	4.12
317.567	4.38
317.935	4.56
318.304	4.73
318.672	5
319.041	4.97
319.41	4.89
319.778	4.94
320.147	5.23
320.515	5.29
320.883	5.42
321.252	5.52
321.62	5.47
321.988	5.34
322.357	5.34
322.725	5.31
323.093	5.23
323.461	5.28
323.829	5.54
324.197	5.7
324.565	5.77
324.933	5.78
325.301	5.54
325.669	5.28
326.037	5.39
326.405	5.33
326.772	5.24
327.14	5.28
327.508	5.19
327.875	5.05
328.243	4.95
328.61	4.98
328.978	5.04
329.346	4.98
329.713	4.96
330.08	5.08
330.448	5.21
330.815	5.41
331.182	5.4
331.55	5.26
331.917	5.17
332.284	5.05
332.651	5.09
333.018	5.32
333.385	5.53
333.752	5.57
334.119	5.52
334.486	5.56
334.853	5.46
335.22	5.55
335.587	5.59
335.954	5.66
336.32	5.58
336.687	5.68
337.054	5.86
337.42	5.81
337.787	5.84
338.153	5.86
338.52	5.88
338.886	5.96
339.253	5.94
339.619	6.07
339.986	6.11
340.352	6.12
340.718	6.02
341.084	5.91
341.451	5.8
341.817	5.79
342.183	5.83
342.549	5.93
342.915	5.89
343.281	5.91
343.647	5.89
344.013	5.94
344.379	5.76
344.745	5.66
345.11	5.71
345.476	5.7
345.842	5.68
346.208	5.64
346.573	5.66
346.939	5.64
347.304	5.66
347.67	5.72
348.035	5.66
348.401	5.57
348.766	5.64
349.132	5.68
349.497	5.74
349.862	5.78
350.228	5.83
350.593	5.72
350.958	5.77
351.323	5.72
351.688	5.7
352.053	5.74
352.418	5.74
352.783	5.73
353.148	5.6
353.513	5.57
353.878	5.59
354.243	5.42
354.608	5.5
354.972	5.44
355.337	5.48
355.702	5.55
356.066	5.65
356.431	5.65
356.795	5.58
357.16	5.61
357.524	5.56
357.889	5.43
358.253	5.44
358.618	5.47
358.982	5.58
359.346	5.6
359.71	5.66
360.075	5.68
360.439	5.68
360.803	5.84
361.167	5.83
361.531	5.74
361.895	5.78
362.259	5.83
362.623	5.83
362.987	5.65
363.351	5.65
363.714	5.61
364.078	5.6
364.442	5.61
364.806	5.52
365.169	5.65
365.533	5.71
365.896	5.81
366.26	5.74
366.623	5.61
366.987	5.64
367.35	5.61
367.714	5.64
368.077	5.64
368.44	5.48
368.803	5.45
369.167	5.35
369.53	5.37
369.893	5.33
370.256	5.17
370.619	5.19
370.982	5.09
371.345	5.13
371.708	5.1
372.071	5.07
372.434	5.05
372.797	4.91
373.159	4.91
373.522	4.79
373.885	4.78
374.247	4.85
374.61	4.82
374.973	4.78
375.335	4.71
375.698	4.63
376.06	4.63
376.423	4.63
376.785	4.7
377.147	4.65
377.51	4.56
377.872	4.59
378.234	4.59
378.596	4.57
378.958	4.5
379.321	4.47
379.683	4.47
380.045	4.5
380.407	4.47
380.769	4.49
381.13	4.46
381.492	4.42
381.854	4.4
382.216	4.41
382.578	4.44
382.939	4.45
383.301	4.43
383.663	4.36
384.024	4.33
384.386	4.33
384.747	4.28
385.109	4.25
385.47	4.3
385.832	4.27
386.193	4.29
386.554	4.24
386.916	4.27
387.277	4.24
387.638	4.21
387.999	4.23
388.36	4.18
388.721	4.2
389.082	4.19
389.443	4.19
389.804	4.13
390.165	4.06
390.526	4.1
390.887	4.09
391.248	4.09
391.609	4.11
391.969	4.08
392.33	4.09
392.691	4.11
393.051	4.06
393.412	4.1
393.772	4.06
394.133	4.07
394.493	4.01
394.854	4.01
395.214	4
395.574	3.95
395.935	3.93
396.295	3.91
396.655	3.89
397.015	3.84
397.376	3.82
397.736	3.78
398.096	3.67
398.456	3.69
398.816	3.67
399.176	3.62
399.535	3.54
399.895	3.54
400.255	3.51
400.615	3.49
400.975	3.51
401.334	3.53
401.694	3.53
402.054	3.49
402.413	3.46
402.773	3.43
403.132	3.39
403.492	3.37
403.851	3.37
404.211	3.37
404.57	3.34
404.929	3.33
405.288	3.34
405.648	3.33
406.007	3.31
406.366	3.32
406.725	3.33
407.084	3.38
407.443	3.38
407.802	3.37
408.161	3.41
408.52	3.38
408.879	3.35
409.238	3.35
409.596	3.33
409.955	3.33
410.314	3.32
410.673	3.35
411.031	3.36
411.39	3.35
411.748	3.36
412.107	3.32
412.465	3.34
412.824	3.33
413.182	3.32
413.54	3.29
413.899	3.3
414.257	3.3
414.615	3.26
414.974	3.24
415.332	3.27
415.69	3.19
416.048	3.19
416.406	3.18
416.764	3.18
417.122	3.2
417.48	3.19
417.838	3.19
418.195	3.16
418.553	3.15
418.911	3.15
419.269	3.14
419.626	3.15
419.984	3.14
420.342	3.13
420.699	3.12
421.057	3.12
421.414	3.12
421.772	3.11
422.129	3.12
422.486	3.11
422.844	3.08
423.201	3.1
423.558	3.08
423.915	3.09
424.273	3.08
424.63	3.08
424.987	3.08
425.344	3.07
425.701	3.09
426.058	3.08
426.415	3.08
426.772	3.07
427.128	3.07
427.485	3.08
427.842	3.07
428.199	3.08
428.555	3.09
428.912	3.07
429.269	3.09
429.625	3.07
429.982	3.09
430.338	3.1
430.695	3.08
431.051	3.08
431.407	3.05
431.764	3.07
432.12	3.07
432.476	3.08
432.832	3.09
433.189	3.07
433.545	3.05
433.901	3.07
434.257	3.07
434.613	3.05
434.969	3.05
435.325	3.07
435.681	3.07
436.036	3.06
436.392	3.08
436.748	3.06
437.104	3.07
437.459	3.08
437.815	3.08
438.171	3.09
438.526	3.11
438.882	3.13
439.237	3.1
439.593	3.11
439.948	3.12
440.304	3.11
440.659	3.12
441.014	3.14
441.369	3.13
441.725	3.13
442.08	3.14
442.435	3.14
442.79	3.12
443.145	3.13
443.5	3.12
443.855	3.12
444.21	3.12
444.565	3.13
444.92	3.13
445.275	3.14
445.629	3.14
445.984	3.13
446.339	3.12
446.693	3.14
447.048	3.1
447.403	3.08
447.757	3.09
448.112	3.09
448.466	3.06
448.82	3.05
449.175	3.05
449.529	3.06
449.883	3.06
450.238	3.06
450.592	3.05
450.946	3.05
451.3	3.05
451.654	3.04
452.008	3.02
452.362	3.02
452.716	3.01
453.07	3.01
453.424	3.01
453.778	3.01
454.132	2.99
454.486	3.03
454.839	3.03
455.193	3.03
455.547	3.03
455.9	3.07
456.254	3.08
456.607	3.08
456.961	3.07
457.314	3.05
457.668	3.06
458.021	3.06
458.375	3.06
458.728	3.05
459.081	3.06
459.434	3.07
459.787	3.07
460.141	3.09
460.494	3.08
460.847	3.09
461.2	3.11
461.553	3.11
461.906	3.11
462.259	3.11
462.611	3.11
462.964	3.12
463.317	3.1
463.67	3.09
464.022	3.09
464.375	3.08
464.728	3.09
465.08	3.08
465.433	3.08
465.785	3.08
466.138	3.1
466.49	3.1
466.843	3.11
467.195	3.09
467.547	3.09
467.899	3.1
468.252	3.08
468.604	3.08
468.956	3.09
469.308	3.07
469.66	3.11
470.012	3.12
470.364	3.11
470.716	3.14
471.068	3.16
471.42	3.16
471.772	3.2
472.123	3.19
472.475	3.21
472.827	3.23
473.178	3.24
473.53	3.22
473.882	3.22
474.233	3.18
474.585	3.2
474.936	3.22
475.288	3.22
475.639	3.24
475.99	3.22
476.342	3.23
476.693	3.26
477.044	3.24
477.395	3.23
477.746	3.24
478.097	3.22
478.448	3.2
478.8	3.2
479.15	3.19
479.501	3.21
479.852	3.18
480.203	3.19
480.554	3.19
480.905	3.2
481.255	3.19
481.606	3.21
481.957	3.2
482.307	3.18
482.658	3.18
483.009	3.19
483.359	3.18
483.709	3.19
484.06	3.18
484.41	3.18
484.761	3.19
485.111	3.19
485.461	3.19
485.811	3.19
486.162	3.19
486.512	3.19
486.862	3.19
487.212	3.19
487.562	3.19
487.912	3.19
488.262	3.19
488.612	3.2
488.961	3.21
489.311	3.2
489.661	3.21
490.011	3.19
490.36	3.18
490.71	3.19
491.06	3.17
491.409	3.17
491.759	3.16
492.108	3.17
492.458	3.17
492.807	3.18
493.157	3.19
493.506	3.18
493.855	3.19
494.204	3.18
494.554	3.2
494.903	3.2
495.252	3.21
495.601	3.22
495.95	3.22
496.299	3.24
496.648	3.26
496.997	3.28
497.346	3.33
497.695	3.36
498.043	3.37
498.392	3.39
498.741	3.43
499.09	3.47
499.438	3.47
499.787	3.48
500.135	3.48
500.484	3.47
500.832	3.5
501.181	3.53
501.529	3.58
501.878	3.62
502.226	3.67
502.574	3.69
502.923	3.69
503.271	3.73
503.619	3.74
503.967	3.79
504.315	3.82
504.663	3.84
505.011	3.86
505.359	3.92
505.707	3.98
506.055	3.99
506.403	4.05
506.751	4.11
507.098	4.17
507.446	4.25
507.794	4.32
508.141	4.38
508.489	4.44
508.837	4.48
509.184	4.52
509.531	4.55
509.879	4.62
510.226	4.69
510.574	4.75
510.921	4.81
511.268	4.87
511.616	4.95
511.963	5.01
512.31	5.08
512.657	5.13
513.004	5.2
513.351	5.29
513.698	5.37
514.045	5.45
514.392	5.54
514.739	5.62
515.086	5.72
515.432	5.82
515.779	5.91
516.126	6.02
516.473	6.11
516.819	6.22
517.166	6.27
517.512	6.36
517.859	6.45
518.205	6.53
518.552	6.61
518.898	6.67
519.245	6.77
519.591	6.85
519.937	6.95
520.283	7.03
520.629	7.11
520.976	7.19
521.322	7.31
521.668	7.39
522.014	7.48
522.36	7.55
522.706	7.66
523.052	7.75
523.398	7.87
523.743	7.99
524.089	8.12
524.435	8.26
524.781	8.36
525.126	8.45
525.472	8.58
525.817	8.66
526.163	8.75
526.509	8.83
526.854	8.9
527.199	8.98
527.545	9.06
527.89	9.14
528.235	9.23
528.581	9.31
528.926	9.4
529.271	9.51
529.616	9.6
529.961	9.69
530.306	9.78
530.651	9.86
530.996	9.96
531.341	10.07
531.686	10.19
532.031	10.32
532.376	10.43
532.721	10.54
533.065	10.67
533.41	10.8
533.755	10.95
534.099	11.1
534.444	11.25
534.788	11.39
535.133	11.52
535.477	11.66
535.822	11.79
536.166	11.96
536.51	12.14
536.855	12.35
537.199	12.53
537.543	12.74
537.887	12.97
538.231	13.18
538.576	13.39
538.92	13.6
539.264	13.78
539.608	14
539.951	14.21
540.295	14.42
540.639	14.62
540.983	14.78
541.327	14.98
541.671	15.18
542.014	15.37
542.358	15.6
542.701	15.77
543.045	15.98
543.389	16.17
543.732	16.33
544.075	16.51
544.419	16.74
544.762	16.95
545.105	17.17
545.449	17.41
545.792	17.68
546.135	17.94
546.478	18.23
546.821	18.51
547.165	18.76
547.508	19.02
547.851	19.31
548.194	19.59
548.536	19.88
548.879	20.17
549.222	20.46
549.565	20.67
549.908	20.98
550.25	21.27
550.593	21.54
550.936	21.86
551.278	22.17
551.621	22.45
551.963	22.75
552.306	23.03
552.648	23.33
552.991	23.58
553.333	23.86
553.675	24.13
554.017	24.39
554.36	24.7
554.702	24.98
555.044	25.22
555.386	25.53
555.728	25.79
556.07	26.05
556.412	26.39
556.754	26.69
557.096	27.01
557.438	27.32
557.78	27.63
558.121	27.96
558.463	28.27
558.805	28.56
559.147	28.87
559.488	29.16
559.83	29.43
560.171	29.68
560.513	29.87
560.854	30.1
561.196	30.35
561.537	30.56
561.878	30.8
562.22	31.07
562.561	31.29
562.902	31.52
563.243	31.69
563.584	31.86
563.925	32.12
564.266	32.27
564.607	32.46
564.948	32.66
565.289	32.87
565.63	33
565.971	33.17
566.312	33.32
566.653	33.49
566.993	33.7
567.334	33.89
567.675	34.11
568.015	34.31
568.356	34.48
568.696	34.69
569.037	34.89
569.377	35.04
569.718	35.28
570.058	35.5
570.398	35.68
570.739	35.86
571.079	36.04
571.419	36.26
571.759	36.4
572.099	36.52
572.439	36.66
572.779	36.85
573.119	37.02
573.459	37.14
573.799	37.27
574.139	37.41
574.479	37.54
574.819	37.69
575.158	37.87
575.498	38
575.838	38.15
576.177	38.28
576.517	38.46
576.856	38.57
577.196	38.69
577.535	38.87
577.875	38.95
578.214	39.08
578.553	39.21
578.893	39.43
579.232	39.6
579.571	39.79
579.91	39.88
580.25	40.01
580.589	40.17
580.928	40.28
581.267	40.42
581.606	40.54
581.945	40.61
582.283	40.75
582.622	40.88
582.961	41.01
583.3	41.11
583.639	41.24
583.977	41.35
584.316	41.41
584.654	41.53
584.993	41.66
585.332	41.72
585.67	41.81
586.008	41.86
586.347	41.94
586.685	42.07
587.024	42.21
587.362	42.26
587.7	42.42
588.038	42.59
588.376	42.7
588.715	42.9
589.053	43.02
589.391	43.01
589.729	43.12
590.067	43.2
590.404	43.25
590.742	43.33
591.08	43.42
591.418	43.55
591.756	43.52
592.093	43.62
592.431	43.7
592.769	43.76
593.106	43.79
593.444	43.86
593.781	43.93
594.119	44.03
594.456	44.07
594.793	44.11
595.131	44.12
595.468	44.18
595.805	44.24
596.143	44.3
596.48	44.4
596.817	44.48
597.154	44.55
597.491	44.69
597.828	44.65
598.165	44.72
598.502	44.74
598.839	44.82
599.176	44.95
599.512	45.04
599.849	45.07
600.186	45.17
600.523	45.27
600.859	45.25
601.196	45.22
601.532	45.27
601.869	45.31
602.205	45.4
602.542	45.39
602.878	45.44
603.215	45.45
603.551	45.49
603.887	45.46
604.223	45.51
604.56	45.51
604.896	45.67
605.232	45.65
605.568	45.72
605.904	45.72
606.24	45.67
606.576	45.72
606.912	45.82
607.248	45.86
607.583	45.93
607.919	46.01
608.255	46.11
608.591	46.21
608.926	46.23
609.262	46.26
609.597	46.32
609.933	46.35
610.268	46.45
610.604	46.44
610.939	46.51
611.275	46.51
611.61	46.51
611.945	46.46
612.281	46.52
612.616	46.56
612.951	46.8
613.286	46.95
613.621	47.07
613.956	47.1
614.291	47.12
614.626	47.13
614.961	47.16
615.296	47.3
615.631	47.37
615.966	47.49
616.3	47.54
616.635	47.64
616.97	47.58
617.304	47.61
617.639	47.77
617.973	47.83
618.308	47.95
618.642	48.03
618.977	48.11
619.311	48.12
619.646	48.1
619.98	47.94
620.314	47.92
620.648	47.89
620.983	47.91
621.317	47.98
621.651	48.05
621.985	48.05
622.319	48.02
622.653	48.08
622.987	48.1
623.321	48.06
623.655	48.19
623.988	48.18
624.322	48.13
624.656	48.03
624.99	47.98
625.323	47.95
625.657	47.96
625.99	47.96
626.324	48.01
626.657	48.03
626.991	48.14
627.324	48.1
627.658	48.04
627.991	47.98
628.324	48
628.657	47.97
628.991	48.03
629.324	48.09
629.657	48.07
629.99	48.04
630.323	48.14
630.656	48.08
630.989	48.14
631.322	48.2
631.655	48.18
631.987	48.23
632.32	48.15
632.653	48.15
632.986	48.21
633.318	48.24
633.651	48.29
633.984	48.29
634.316	48.38
634.649	48.46
634.981	48.54
635.313	48.52
635.646	48.49
635.978	48.5
636.31	48.42
636.643	48.41
636.975	48.47
637.307	48.52
637.639	48.49
637.971	48.59
638.303	48.6
638.635	48.77
638.967	48.89
639.299	48.99
639.631	49.03
639.963	49.04
640.295	49.02
640.626	49.1
640.958	49.18
641.29	49.19
641.621	49.29
641.953	49.24
642.285	49.33
642.616	49.33
642.948	49.44
643.279	49.46
643.61	49.51
643.942	49.69
644.273	49.67
644.604	49.76
644.936	49.82
645.267	49.93
645.598	49.94
645.929	49.93
646.26	49.86
646.591	49.87
646.922	49.84
647.253	49.89
647.584	49.83
647.915	49.84
648.245	49.84
648.576	49.76
648.907	49.99
649.238	50
649.568	50.06
649.899	49.93
650.229	50.02
650.56	50
650.89	49.75
651.221	49.68
651.551	49.59
651.882	49.4
652.212	49.32
652.542	49.37
652.872	49.35
653.203	49.57
653.533	49.45
653.863	49.44
654.193	49.5
654.523	49.5
654.853	49.51
655.183	49.56
655.513	49.6
655.843	49.36
656.172	49.36
656.502	49.32
656.832	49.28
657.162	49.22
657.491	49.33
657.821	49.58
658.15	49.52
658.48	49.51
658.809	49.61
659.139	49.54
659.468	49.55
659.798	49.55
660.127	49.45
660.456	49.61
660.785	49.7
661.115	49.68
661.444	49.74
661.773	49.79
662.102	49.84
662.431	49.81
662.76	49.96
663.089	49.95
663.418	49.98
663.747	50.14
664.076	50.28
664.404	50.17
664.733	50.05
665.062	50.2
665.39	50.26
665.719	50.23
666.048	50.39
666.376	50.34
666.705	50.35
667.033	50.42
667.362	50.4
667.69	50.46
668.018	50.49
668.347	50.5
668.675	50.49
669.003	50.36
669.331	50.43
669.659	50.46
669.987	50.5
670.315	50.58
670.643	50.54
670.971	50.52
671.299	50.54
671.627	50.56
671.955	50.58
672.283	50.6
672.61	50.64
672.938	50.65
673.266	50.63
673.593	50.56
673.921	50.62
674.249	50.65
674.576	50.61
674.904	50.56
675.231	50.55
675.558	50.39
675.886	50.46
676.213	50.46
676.54	50.51
676.867	50.48
677.195	50.45
677.522	50.47
677.849	50.42
678.176	50.54
678.503	50.42
678.83	50.25
679.157	50.17
679.484	50.21
679.81	50.26
680.137	50.33
680.464	50.4
680.791	50.32
681.117	50.32
681.444	50.31
681.771	50.22
682.097	50.17
682.424	50.28
682.75	50.19
683.077	50.07
683.403	50.02
683.729	49.91
684.056	49.95
684.382	49.94
684.708	49.85
685.034	49.78
685.36	49.79
685.686	49.97
686.012	50.08
686.339	49.91
686.664	49.75
686.99	49.71
687.316	49.75
687.642	49.71
687.968	49.5
688.294	49.58
688.619	49.57
688.945	49.61
689.271	49.47
689.596	49.41
689.922	49.52
690.247	49.55
690.573	49.67
690.898	49.63
691.224	49.62
691.549	49.63
691.874	49.55
692.2	49.6
692.525	49.45
692.85	49.37
693.175	49.45
693.5	49.51
693.825	49.54
694.15	49.52
694.475	49.63
694.8	49.74
695.125	49.62
695.45	49.69
695.775	49.64
696.099	49.81
696.424	49.87
696.749	49.81
697.073	49.81
697.398	49.84
697.723	49.94
698.047	49.84
698.372	50.01
698.696	50.08
699.02	50.15
699.345	50.14
699.669	50.22
699.993	50.35
700.318	50.27
700.642	50.14
700.966	50.11
701.29	50.17
701.614	50.22
701.938	50.25
702.262	50.24
702.586	50.47
702.91	50.35
703.234	50.35
703.557	50.41
703.881	50.38
704.205	50.33
704.529	50.32
704.852	50.45
705.176	50.22
705.499	50.09
705.823	50.1
706.146	50.24
706.47	50.25
706.793	50.2
707.117	50.45
707.44	50.39
707.763	50.46
708.086	50.11
708.409	50.04
708.733	50.09
709.056	50.04
709.379	49.81
709.702	50
710.025	50.21
710.348	50.19
710.671	50.24
710.993	50.27
711.316	49.94
711.639	49.96
711.962	50.09
712.284	50.26
712.607	50.28
712.93	50.24
713.252	50.19
713.575	50.34
713.897	50.3
714.22	50.51
714.542	50.54
714.864	50.77
715.187	50.93
715.509	50.78
715.831	50.83
716.153	50.76
716.475	50.64
716.798	50.65
717.12	50.76
717.442	50.65
717.764	50.81
718.085	51.14
718.407	51.15
718.729	50.96
719.051	50.97
719.373	50.9
719.695	50.98
720.016	51.06
720.338	50.81
720.659	50.75
720.981	50.89
721.302	50.86
721.624	50.85
721.945	50.73
722.267	50.85
722.588	50.87
722.909	50.98
723.231	50.87
723.552	50.65
723.873	50.57
724.194	50.61
724.515	50.75
724.836	50.56
725.157	50.31
725.478	50.53
725.799	50.51
726.12	50.49
726.441	50.51
726.762	50.34
727.083	50.3
727.403	50.39
727.724	50.38
728.045	50.35
728.365	50.27
728.686	50.52
729.006	50.52
729.327	50.55
729.647	50.69
729.967	50.64
730.288	50.66
730.608	50.82
730.928	50.96
731.249	50.52
731.569	50.67
731.889	50.89
732.209	50.9
732.529	50.82
732.849	50.77
733.169	50.75
733.489	50.86
733.809	51.03
734.129	50.94
734.448	50.64
734.768	50.62
735.088	50.66
735.408	50.38
735.727	50.27
736.047	50.46
736.366	50.2
736.686	50.46
737.005	50.43
737.325	50.16
737.644	50.02
737.963	50.17
738.283	50.02
738.602	50.01
738.921	50.02
739.24	50.12
739.56	50.49
739.879	50.36
740.198	50.32
740.517	50.26
740.836	50.35
741.155	50.57
741.473	50.81
741.792	50.76
742.111	51
742.43	51.28
742.748	51.26
743.067	51.57
743.386	51.14
743.704	51.44
744.023	51.75
744.341	51.78
744.66	51.73
744.978	52.06
745.297	52.11
745.615	52.43
745.933	52.43
746.252	52.06
746.57	52.25
746.888	52.06
747.206	52.22
747.524	52.38
747.842	52.27
748.16	51.84
748.478	52.27
748.796	52.22
749.114	52.06
749.432	51.88
749.749	51.8
750.067	52.08
750.385	51.73
750.703	51.44
751.02	51.58
751.338	51.66
751.655	51.44
751.973	51.34
752.29	50.91
752.608	50.64
752.925	50.82
753.242	51
753.56	51.18
753.877	50.88
754.194	50.81
754.511	50.85
754.828	50.97
755.145	50.56
755.462	50.46
755.779	50.68
756.096	50.82
756.413	50.72
756.73	50.88
757.047	50.94
757.364	51.07
757.68	50.71
757.997	50.58
758.314	50.7
758.63	50.77
758.947	50.69
759.264	50.88
759.58	50.79
759.896	50.57
760.213	50.6
760.529	50.72
760.846	50.64
761.162	50.51
761.478	50.61
761.794	50.69
762.11	50.54
762.426	50.21
762.743	49.89
763.059	50.1
763.375	50.05
763.69	50.46
764.006	50.43
764.322	50.67
764.638	50.82
764.954	50.7
765.27	50.75
765.585	51.04
765.901	51.21
766.216	51.09
766.532	51.37
766.848	51.66
767.163	51.62
767.478	51.62
767.794	51.69
768.109	51.71
768.424	51.57
768.74	51.89
769.055	52.41
769.37	53.08
769.685	52.87
770	52.71
770.315	52.72
770.63	52.76
770.945	52.62
771.26	52.72
771.575	52.68
771.89	52.61
772.205	52.49
772.52	51.84
772.834	52.31
773.149	52.23
773.464	51.9
773.778	52.24
774.093	51.91
774.407	51.87
774.722	51.92
775.036	52.14
775.351	51.9
775.665	51.42
775.979	50.99
776.293	51.2
776.608	51.44
776.922	51.01
777.236	50.97
777.55	51.34
777.864	51.08
778.178	50.9
778.492	50.74
778.806	50.49
779.12	50.8
779.434	50.28
779.747	50.24
780.061	50.12
780.375	49.98
780.689	50.26
781.002	50.52
781.316	50.58
781.629	51.03
781.943	50.99
782.256	51.16
782.57	51.19
782.883	51.1
783.196	51.05
783.51	50.33
783.823	50.19
784.136	50.33
784.449	50.75
784.762	51.05
785.075	51.05
785.388	51.4
785.701	51.36
786.014	51.4
786.327	51.03
786.64	51.07
786.953	51.43
787.266	51.21
787.578	51.2
787.891	51.2
788.204	51.52
788.516	51.59
788.829	51.94
789.141	52.46
789.454	52.44
789.766	52.17
790.079	53.45
790.391	53.38
790.703	52.68
791.016	52.12
791.328	51.88
791.64	52.09
791.952	52.03
792.264	52.43
792.576	52.67
792.888	52.21
793.2	52.45
793.512	51.79
793.824	52.26
794.136	52.61
794.448	52.67
794.76	52.42
795.071	53.08
795.383	52.62
795.695	51.84
796.006	52.4
796.318	52.91
796.629	52.76
796.941	53.06
797.252	52.47
797.564	52.25
797.875	53.02
798.186	52.97
798.497	52.94
798.809	52.7
799.12	52.65
799.431	53.86
799.742	53.41
800.053	53.54
800.364	53.84
800.675	53.43
800.986	52.94
801.297	52.6
801.608	52.16
801.918	52.35
802.229	52.57
802.54	51.62
802.851	51.83
803.161	51.97
803.472	51.72
803.782	53.29
804.093	54.44
804.403	53.87
804.714	53.03
805.024	52.61
805.334	52.47
805.645	52.5
805.955	51.8
806.265	51.7
806.575	51.83
806.885	51.19
807.195	51.59
807.505	52.05
807.815	51.52
808.125	51.1
808.435	51.16
808.745	50.89
809.055	51.75
809.365	51.48
809.674	50.88
809.984	51.51
810.294	50.34
810.603	49.88
810.913	49.87
811.222	50.48
811.532	50.77
811.841	50.75
812.151	50.05
812.46	50.98
812.769	51.83
813.079	52.69
813.388	52.68
813.697	52.27
814.006	52.37
814.315	52.43
814.624	53.28
814.933	53.75
815.242	54.03
815.551	52.62
815.86	52.42
816.169	53.14
816.478	53.12
816.786	53.31
817.095	52.93
817.404	53.21
817.712	53.39
818.021	53.76
818.33	53.16
818.638	53.57
818.947	52.88
819.255	52.22
819.563	50.97
819.872	50.86
820.18	50.56
820.488	50.98
820.796	50.72
821.105	50.62
821.413	51.02
821.721	50.91
822.029	51.18
822.337	50.87
822.645	50.72
822.953	50.7
823.26	50.87
823.568	50.88
823.876	50.85
824.184	50.98
824.491	51
824.799	51.08
825.107	50.92
825.414	50.88
825.722	50.87
826.029	50.89
826.337	50.99
826.644	51.36
826.951	51.31
827.259	51.44
827.566	51.37
827.873	50.81
828.18	51.02
828.488	51.2
828.795	51.39
829.102	51.37
829.409	51.4
829.716	51.32
830.023	51.4
830.329	51.66
830.636	51.56
830.943	51.3
831.25	51.69
831.557	51.88
831.863	51.83
832.17	52.06
832.476	52.65
832.783	52.71
833.089	52.52
833.396	52.39
833.702	52.9
834.009	53.07
834.315	53.23
834.621	53.42
834.928	52.72
835.234	52.42
835.54	52.17
835.846	52.1
836.152	52.02
836.458	51.86
836.764	51.05
837.07	51.02
837.376	51.22
837.682	50.86
837.988	51.03
838.293	51.51
838.599	51.74
838.905	51.63
839.211	51.46
839.516	51.3
839.822	50.64
840.127	49.77
840.433	49.3
840.738	48.27
841.044	47.31
841.349	48.45
841.654	48.92
841.959	49.34
842.265	50.09
842.57	50.03
842.875	49.82
843.18	51.18
843.485	50.45
843.79	50.89
844.095	51.1
844.4	50.91
844.705	50.47
845.01	49.91
845.315	49.39
845.619	49.44
845.924	49.01
846.229	47.7
846.533	48.25
846.838	48.13
847.142	48.9
847.447	49.66
847.751	47.45
848.056	48.59
848.36	48.78
848.664	47.58
848.969	46.93
849.273	48.75
849.577	47.88
849.881	49.07
850.185	47.09
850.489	47.16
850.794	48.91
851.097	50.03
851.401	49.63
851.705	50.21
852.009	51.14
852.313	50.64
852.617	54.77
852.92	55.29
853.224	56.89
853.528	56.56
853.831	55.22
854.135	57.34
854.438	58.31
854.742	56.78
855.045	55.87
855.349	54.86
855.652	53.49
855.955	54.86
856.259	53.93
856.562	54.26
856.865	54.54
857.168	52.48
857.471	49.07
857.774	51.03
858.077	48.16
858.38	47.79
858.683	48.93
858.986	47.38
859.289	49.13
859.592	49.31
859.894	51.38
860.197	53.16
860.5	51.3
860.802	48.97
861.105	49.82
861.407	50.32
861.71	52.07
862.012	52.29
862.315	48.88
862.617	49.22
862.919	49.03
863.222	48.94
863.524	49.75
863.826	51.76
864.128	50.51
864.43	55.69
864.732	54.68
865.034	53.83
865.336	51.57
865.638	49.36
865.94	46.72
866.242	45.86
866.544	45.56
866.846	47.89
867.147	48.41
867.449	49.92
867.751	49.52
868.052	51.36
868.354	50.52
868.655	52.79
868.957	51.82
869.258	52.38
869.56	50.51
869.861	50.38
870.162	48.04
870.463	45.13
870.765	43.06
871.066	43.54
871.367	43.56
871.668	46.48
871.969	45.76
872.27	44.59
872.571	43.94
872.872	44.9
873.173	44.25
873.473	43.32
873.774	41.38
874.075	42.2
874.376	39.14
874.676	42.34
874.977	43.79
875.277	44.62
875.578	45.77
875.878	47.04
876.179	46.27
876.479	47.66
876.78	51.1
877.08	50.66
877.38	50.46
877.68	50.85
877.981	49.04
878.281	49.92
878.581	55.12
