Data from MVZ_BU65311_Reflection_00007.txt Node
Date: Tue Nov 19 12:20:13 EST 2019
User: vgr7
Spectrometer: USB2G7710
Scans to average: 3
Trigger mode: 4
Integration Time (sec): 2.000000E-2
Electric dark correction enabled: true
Boxcar width: 10
XAxis mode: Wavelengths
Number of Pixels in Spectrum: 2048
>>>>>Begin Spectral Data<<<<<
177.721	-115.61
178.105	-11.11
178.488	-23.79
178.871	48.89
179.254	12.96
179.636	-30.27
180.019	243.52
180.402	100
180.785	-47.53
181.168	-375.31
181.55	345.37
181.933	2579.17
182.316	1214.58
182.698	-438.19
183.081	-236.31
183.463	-73.98
183.846	-19.2
184.228	-139.58
184.611	-95.02
184.993	-84.17
185.376	-25.4
185.758	11.59
186.14	-9.83
186.522	5.59
186.904	18.72
187.287	14.28
187.669	16.22
188.051	32.54
188.433	28.23
188.815	35.53
189.197	31.64
189.579	29.35
189.961	31.89
190.342	29.15
190.724	21.64
191.106	16.35
191.488	26.02
191.869	20.42
192.251	33.43
192.633	34.62
193.014	32.08
193.396	36.45
193.777	34.7
194.159	39.58
194.54	36.06
194.922	35.93
195.303	32.19
195.684	26.85
196.065	16.51
196.447	14.68
196.828	19.13
197.209	21.96
197.59	30.2
197.971	37.42
198.352	45.14
198.733	42.99
199.114	56.6
199.495	44.15
199.876	52.74
200.257	42.09
200.638	32.61
201.018	12.18
201.399	-6.92
201.78	-15.58
202.16	-32.16
202.541	-33.97
202.922	-40.16
203.302	-62.15
203.683	-51.49
204.063	-23.18
204.444	-19.38
204.824	-28.76
205.204	-13.4
205.585	-12.58
205.965	-18.41
206.345	-26.18
206.725	-8.64
207.106	-8.9
207.486	3.1
207.866	-1.29
208.246	14.1
208.626	23.5
209.006	37.03
209.386	42.51
209.766	52.46
210.145	52.78
210.525	46.25
210.905	52.15
211.285	64.98
211.664	63.21
212.044	48.89
212.424	51.41
212.803	48.94
213.183	46.01
213.562	39.97
213.942	36.06
214.321	42.79
214.701	34.78
215.08	29.32
215.459	27.65
215.838	20.42
216.218	14.79
216.597	15.09
216.976	4.25
217.355	-0.03
217.734	-7.42
218.113	1.53
218.492	6.3
218.871	5.94
219.25	-13.55
219.629	-23.08
220.008	-9.82
220.387	-12.04
220.766	-1.47
221.144	-4.9
221.523	-11.17
221.902	5.3
222.28	3.69
222.659	12.45
223.037	9.59
223.416	13.3
223.794	20.66
224.173	17.31
224.551	11.56
224.929	17.11
225.308	23.13
225.686	20.42
226.064	16.85
226.442	11.51
226.821	11.95
227.199	11.12
227.577	10.92
227.955	9.39
228.333	7.46
228.711	4.6
229.089	8.71
229.467	10.9
229.845	5.56
230.222	6.98
230.6	4.73
230.978	5.05
231.356	3.83
231.733	4.59
232.111	4.29
232.488	4.67
232.866	7.85
233.243	6.07
233.621	7.71
233.998	9.55
234.376	11.23
234.753	11.64
235.13	11.56
235.508	9.17
235.885	7.52
236.262	7.44
236.639	7.22
237.016	6.11
237.393	5.26
237.77	5.67
238.147	6.06
238.524	5.59
238.901	4.49
239.278	3.73
239.655	3.68
240.032	4.03
240.409	4.26
240.785	3.66
241.162	3.41
241.539	3.01
241.915	2.33
242.292	2.65
242.668	2.37
243.045	3.09
243.421	3.52
243.798	4.3
244.174	4.24
244.551	4.32
244.927	4.14
245.303	4.25
245.679	4.55
246.056	4.43
246.432	4.5
246.808	4.74
247.184	4.98
247.56	5.17
247.936	4.94
248.312	4.79
248.688	4.77
249.064	4.85
249.44	4.93
249.815	5.31
250.191	5.1
250.567	5.15
250.943	5.24
251.318	5.29
251.694	5.21
252.069	5.4
252.445	5.61
252.82	5.83
253.196	5.79
253.571	5.8
253.947	5.27
254.322	5.21
254.697	5.48
255.073	5.21
255.448	4.69
255.823	4.62
256.198	4.52
256.573	4.38
256.948	4.44
257.323	4.46
257.698	4.06
258.073	3.96
258.448	4.04
258.823	3.75
259.198	3.75
259.573	3.59
259.948	3.87
260.322	3.56
260.697	3.68
261.072	3.74
261.446	3.68
261.821	3.76
262.195	3.82
262.57	3.48
262.944	3.39
263.319	3.51
263.693	3.78
264.067	3.74
264.442	3.69
264.816	3.58
265.19	3.42
265.564	3.36
265.938	3.53
266.313	3.29
266.687	3.35
267.061	3.57
267.435	3.72
267.809	3.2
268.183	3.22
268.556	2.89
268.93	2.84
269.304	2.73
269.678	2.73
270.051	2.65
270.425	2.73
270.799	2.66
271.172	2.54
271.546	2.23
271.919	2.23
272.293	2.23
272.666	2.24
273.04	2.24
273.413	2.25
273.787	2.25
274.16	2.28
274.533	2.39
274.906	2.15
275.279	1.9
275.653	2.14
276.026	2.46
276.399	2.41
276.772	2.34
277.145	2.52
277.518	2.44
277.891	2.4
278.263	2.4
278.636	2.7
279.009	2.8
279.382	3.05
279.755	3.28
280.127	3.55
280.5	3.47
280.872	3.54
281.245	3.68
281.617	3.71
281.99	3.81
282.362	3.67
282.735	3.59
283.107	3.7
283.479	3.65
283.852	3.56
284.224	3.65
284.596	3.69
284.968	3.53
285.34	3.55
285.713	3.63
286.085	3.68
286.457	3.59
286.829	3.55
287.201	3.51
287.572	3.51
287.944	3.47
288.316	3.83
288.688	3.83
289.06	3.83
289.431	3.78
289.803	3.78
290.175	3.81
290.546	3.82
290.918	3.9
291.289	3.83
291.661	3.89
292.032	3.94
292.403	3.96
292.775	4.01
293.146	4.08
293.517	4.11
293.889	4.02
294.26	4.08
294.631	4.03
295.002	3.9
295.373	3.78
295.744	3.72
296.115	3.42
296.486	3.46
296.857	3.53
297.228	3.4
297.599	3.3
297.97	3.36
298.34	3.48
298.711	3.43
299.082	3.53
299.452	3.36
299.823	3.31
300.194	3.48
300.564	3.51
300.935	3.55
301.305	3.29
301.676	3.3
302.046	3.34
302.416	3.5
302.787	3.62
303.157	3.79
303.527	3.95
303.897	3.99
304.267	3.86
304.637	3.76
305.008	4
305.378	4.12
305.748	4
306.117	4.04
306.487	4.06
306.857	3.96
307.227	4.27
307.597	4.32
307.967	4.21
308.336	4.26
308.706	4.3
309.076	4.59
309.445	4.81
309.815	4.82
310.184	4.75
310.554	4.73
310.923	4.62
311.293	4.42
311.662	4.44
312.031	4.59
312.401	4.63
312.77	4.58
313.139	4.59
313.508	4.68
313.877	4.65
314.246	4.77
314.616	5.04
314.985	4.87
315.353	4.95
315.722	5.17
316.091	5.32
316.46	5.22
316.829	5.16
317.198	5.11
317.567	4.99
317.935	4.98
318.304	4.92
318.672	5.01
319.041	5.22
319.41	5.28
319.778	5.24
320.147	5.32
320.515	5.28
320.883	5.3
321.252	5.33
321.62	5.39
321.988	5.28
322.357	5.25
322.725	5.39
323.093	5.38
323.461	5.04
323.829	4.91
324.197	5
324.565	5.01
324.933	4.94
325.301	4.88
325.669	4.97
326.037	5.1
326.405	5.1
326.772	5.05
327.14	4.97
327.508	4.93
327.875	4.85
328.243	5.01
328.61	5.06
328.978	5.08
329.346	5.05
329.713	5.23
330.08	5.3
330.448	5.23
330.815	5.26
331.182	5.32
331.55	5.44
331.917	5.64
332.284	5.56
332.651	5.77
333.018	5.83
333.385	5.94
333.752	5.87
334.119	5.88
334.486	6
334.853	6.02
335.22	6.13
335.587	6.22
335.954	6.15
336.32	6.03
336.687	6.07
337.054	6.11
337.42	6.02
337.787	5.77
338.153	5.77
338.52	5.8
338.886	5.94
339.253	5.91
339.619	5.74
339.986	5.8
340.352	5.71
340.718	5.82
341.084	5.73
341.451	5.79
341.817	5.82
342.183	5.78
342.549	5.92
342.915	5.98
343.281	5.9
343.647	5.95
344.013	5.87
344.379	5.79
344.745	5.7
345.11	5.71
345.476	5.86
345.842	5.85
346.208	5.89
346.573	5.79
346.939	5.76
347.304	5.88
347.67	5.97
348.035	5.91
348.401	5.96
348.766	5.96
349.132	6.03
349.497	6.01
349.862	6.05
350.228	6.05
350.593	6.03
350.958	6.12
351.323	6.04
351.688	6.18
352.053	6.27
352.418	6.38
352.783	6.46
353.148	6.4
353.513	6.56
353.878	6.51
354.243	6.52
354.608	6.62
354.972	6.49
355.337	6.51
355.702	6.58
356.066	6.53
356.431	6.55
356.795	6.48
357.16	6.49
357.524	6.39
357.889	6.34
358.253	6.28
358.618	6.25
358.982	6.35
359.346	6.36
359.71	6.36
360.075	6.31
360.439	6.24
360.803	6.32
361.167	6.23
361.531	6.23
361.895	6.21
362.259	6.17
362.623	6.28
362.987	6.29
363.351	6.28
363.714	6.29
364.078	6.25
364.442	6.24
364.806	6.27
365.169	6.35
365.533	6.28
365.896	6.33
366.26	6.25
366.623	6.13
366.987	6.27
367.35	6.29
367.714	6.38
368.077	6.37
368.44	6.35
368.803	6.38
369.167	6.28
369.53	6.31
369.893	6.27
370.256	6.17
370.619	6.15
370.982	6.1
371.345	6.12
371.708	6.08
372.071	6.07
372.434	6.04
372.797	5.98
373.159	6.01
373.522	5.95
373.885	5.99
374.247	6.04
374.61	5.93
374.973	5.93
375.335	5.89
375.698	5.87
376.06	5.82
376.423	5.79
376.785	5.88
377.147	5.84
377.51	5.76
377.872	5.79
378.234	5.79
378.596	5.79
378.958	5.79
379.321	5.79
379.683	5.85
380.045	5.81
380.407	5.84
380.769	5.91
381.13	5.9
381.492	5.88
381.854	5.88
382.216	5.9
382.578	5.87
382.939	5.77
383.301	5.73
383.663	5.76
384.024	5.72
384.386	5.68
384.747	5.67
385.109	5.7
385.47	5.66
385.832	5.64
386.193	5.59
386.554	5.53
386.916	5.53
387.277	5.48
387.638	5.5
387.999	5.46
388.36	5.41
388.721	5.38
389.082	5.41
389.443	5.38
389.804	5.31
390.165	5.31
390.526	5.37
390.887	5.39
391.248	5.34
391.609	5.35
391.969	5.32
392.33	5.31
392.691	5.31
393.051	5.29
393.412	5.25
393.772	5.2
394.133	5.19
394.493	5.14
394.854	5.14
395.214	5.1
395.574	5.06
395.935	5
396.295	5
396.655	4.9
397.015	4.85
397.376	4.89
397.736	4.86
398.096	4.85
398.456	4.82
398.816	4.8
399.176	4.74
399.535	4.7
399.895	4.67
400.255	4.65
400.615	4.66
400.975	4.69
401.334	4.72
401.694	4.71
402.054	4.71
402.413	4.67
402.773	4.64
403.132	4.66
403.492	4.69
403.851	4.67
404.211	4.71
404.57	4.73
404.929	4.69
405.288	4.69
405.648	4.67
406.007	4.64
406.366	4.62
406.725	4.61
407.084	4.62
407.443	4.63
407.802	4.62
408.161	4.6
408.52	4.59
408.879	4.61
409.238	4.61
409.596	4.63
409.955	4.58
410.314	4.59
410.673	4.6
411.031	4.55
411.39	4.57
411.748	4.57
412.107	4.56
412.465	4.55
412.824	4.5
413.182	4.47
413.54	4.46
413.899	4.46
414.257	4.47
414.615	4.42
414.974	4.42
415.332	4.38
415.69	4.38
416.048	4.36
416.406	4.33
416.764	4.32
417.122	4.27
417.48	4.28
417.838	4.28
418.195	4.25
418.553	4.24
418.911	4.23
419.269	4.2
419.626	4.18
419.984	4.17
420.342	4.18
420.699	4.18
421.057	4.17
421.414	4.16
421.772	4.16
422.129	4.15
422.486	4.15
422.844	4.15
423.201	4.14
423.558	4.13
423.915	4.12
424.273	4.11
424.63	4.11
424.987	4.12
425.344	4.1
425.701	4.08
426.058	4.09
426.415	4.07
426.772	4.08
427.128	4.09
427.485	4.07
427.842	4.04
428.199	4.01
428.555	4.02
428.912	4.01
429.269	3.98
429.625	3.99
429.982	3.97
430.338	3.94
430.695	3.94
431.051	3.91
431.407	3.9
431.764	3.92
432.12	3.94
432.476	3.92
432.832	3.91
433.189	3.9
433.545	3.91
433.901	3.91
434.257	3.91
434.613	3.88
434.969	3.9
435.325	3.93
435.681	3.94
436.036	3.94
436.392	3.95
436.748	3.97
437.104	3.97
437.459	3.97
437.815	3.99
438.171	4
438.526	4.02
438.882	4.02
439.237	4.01
439.593	3.99
439.948	3.98
440.304	4.01
440.659	4.02
441.014	4.03
441.369	4.02
441.725	4.01
442.08	4.02
442.435	4.02
442.79	3.99
443.145	3.98
443.5	3.97
443.855	3.97
444.21	3.96
444.565	3.95
444.92	3.97
445.275	3.95
445.629	3.95
445.984	3.95
446.339	3.94
446.693	3.94
447.048	3.91
447.403	3.93
447.757	3.9
448.112	3.88
448.466	3.87
448.82	3.87
449.175	3.88
449.529	3.86
449.883	3.86
450.238	3.88
450.592	3.89
450.946	3.89
451.3	3.88
451.654	3.88
452.008	3.88
452.362	3.88
452.716	3.88
453.07	3.87
453.424	3.87
453.778	3.87
454.132	3.86
454.486	3.9
454.839	3.88
455.193	3.91
455.547	3.93
455.9	3.94
456.254	3.95
456.607	3.93
456.961	3.95
457.314	3.95
457.668	3.94
458.021	3.94
458.375	3.92
458.728	3.93
459.081	3.93
459.434	3.94
459.787	3.93
460.141	3.93
460.494	3.95
460.847	3.96
461.2	3.97
461.553	4
461.906	4.01
462.259	4.01
462.611	4.01
462.964	4
463.317	4.01
463.67	4.02
464.022	4.01
464.375	4.02
464.728	4.04
465.08	4.05
465.433	4.06
465.785	4.08
466.138	4.1
466.49	4.12
466.843	4.16
467.195	4.17
467.547	4.17
467.899	4.18
468.252	4.19
468.604	4.19
468.956	4.21
469.308	4.18
469.66	4.23
470.012	4.23
470.364	4.27
470.716	4.28
471.068	4.31
471.42	4.33
471.772	4.32
472.123	4.33
472.475	4.34
472.827	4.34
473.178	4.36
473.53	4.35
473.882	4.35
474.233	4.33
474.585	4.34
474.936	4.35
475.288	4.34
475.639	4.35
475.99	4.34
476.342	4.34
476.693	4.36
477.044	4.33
477.395	4.35
477.746	4.31
478.097	4.32
478.448	4.29
478.8	4.29
479.15	4.28
479.501	4.27
479.852	4.27
480.203	4.26
480.554	4.27
480.905	4.27
481.255	4.27
481.606	4.27
481.957	4.27
482.307	4.25
482.658	4.25
483.009	4.24
483.359	4.25
483.709	4.24
484.06	4.25
484.41	4.25
484.761	4.24
485.111	4.25
485.461	4.25
485.811	4.25
486.162	4.25
486.512	4.26
486.862	4.27
487.212	4.27
487.562	4.27
487.912	4.27
488.262	4.29
488.612	4.29
488.961	4.3
489.311	4.31
489.661	4.34
490.011	4.35
490.36	4.37
490.71	4.37
491.06	4.38
491.409	4.38
491.759	4.4
492.108	4.41
492.458	4.42
492.807	4.44
493.157	4.46
493.506	4.49
493.855	4.49
494.204	4.51
494.554	4.53
494.903	4.56
495.252	4.59
495.601	4.62
495.95	4.65
496.299	4.67
496.648	4.7
496.997	4.74
497.346	4.78
497.695	4.81
498.043	4.85
498.392	4.91
498.741	4.95
499.09	5.01
499.438	5.06
499.787	5.07
500.135	5.12
500.484	5.17
500.832	5.23
501.181	5.32
501.529	5.4
501.878	5.48
502.226	5.55
502.574	5.6
502.923	5.66
503.271	5.75
503.619	5.84
503.967	5.94
504.315	6.02
504.663	6.1
505.011	6.19
505.359	6.28
505.707	6.38
506.055	6.49
506.403	6.58
506.751	6.71
507.098	6.88
507.446	6.99
507.794	7.08
508.141	7.22
508.489	7.34
508.837	7.45
509.184	7.58
509.531	7.68
509.879	7.83
510.226	7.98
510.574	8.12
510.921	8.26
511.268	8.39
511.616	8.54
511.963	8.68
512.31	8.83
512.657	9.01
513.004	9.18
513.351	9.36
513.698	9.58
514.045	9.77
514.392	9.95
514.739	10.15
515.086	10.39
515.432	10.62
515.779	10.81
516.126	11
516.473	11.21
516.819	11.42
517.166	11.63
517.512	11.81
517.859	11.98
518.205	12.17
518.552	12.37
518.898	12.57
519.245	12.77
519.591	12.99
519.937	13.2
520.283	13.4
520.629	13.64
520.976	13.86
521.322	14.12
521.668	14.37
522.014	14.63
522.36	14.9
522.706	15.18
523.052	15.51
523.398	15.84
523.743	16.17
524.089	16.49
524.435	16.78
524.781	17.09
525.126	17.35
525.472	17.62
525.817	17.83
526.163	18.06
526.509	18.26
526.854	18.44
527.199	18.61
527.545	18.79
527.89	18.95
528.235	19.12
528.581	19.27
528.926	19.44
529.271	19.62
529.616	19.78
529.961	19.95
530.306	20.11
530.651	20.28
530.996	20.45
531.341	20.64
531.686	20.86
532.031	21.05
532.376	21.27
532.721	21.47
533.065	21.71
533.41	21.92
533.755	22.14
534.099	22.39
534.444	22.62
534.788	22.84
535.133	23.04
535.477	23.26
535.822	23.47
536.166	23.7
536.51	23.94
536.855	24.21
537.199	24.45
537.543	24.71
537.887	24.96
538.231	25.26
538.576	25.52
538.92	25.76
539.264	26
539.608	26.23
539.951	26.41
540.295	26.64
540.639	26.83
540.983	27.03
541.327	27.2
541.671	27.39
542.014	27.56
542.358	27.79
542.701	27.96
543.045	28.13
543.389	28.3
543.732	28.48
544.075	28.65
544.419	28.8
544.762	29
545.105	29.23
545.449	29.41
545.792	29.64
546.135	29.82
546.478	30.04
546.821	30.24
547.165	30.53
547.508	30.73
547.851	30.97
548.194	31.2
548.536	31.39
548.879	31.6
549.222	31.81
549.565	32.01
549.908	32.22
550.25	32.45
550.593	32.66
550.936	32.86
551.278	33.05
551.621	33.29
551.963	33.51
552.306	33.74
552.648	33.97
552.991	34.13
553.333	34.39
553.675	34.55
554.017	34.73
554.36	34.87
554.702	34.98
555.044	35.14
555.386	35.35
555.728	35.52
556.07	35.7
556.412	35.88
556.754	36
557.096	36.18
557.438	36.4
557.78	36.57
558.121	36.76
558.463	36.92
558.805	37.11
559.147	37.2
559.488	37.34
559.83	37.48
560.171	37.66
560.513	37.71
560.854	37.87
561.196	38.04
561.537	38.2
561.878	38.39
562.22	38.57
562.561	38.71
562.902	38.91
563.243	39.09
563.584	39.24
563.925	39.45
564.266	39.59
564.607	39.69
564.948	39.84
565.289	40.04
565.63	40.2
565.971	40.3
566.312	40.47
566.653	40.58
566.993	40.78
567.334	40.89
567.675	41.01
568.015	41.14
568.356	41.26
568.696	41.38
569.037	41.47
569.377	41.59
569.718	41.64
570.058	41.7
570.398	41.76
570.739	41.88
571.079	41.95
571.419	42.11
571.759	42.24
572.099	42.36
572.439	42.4
572.779	42.52
573.119	42.62
573.459	42.73
573.799	42.84
574.139	42.91
574.479	43
574.819	43.09
575.158	43.2
575.498	43.3
575.838	43.38
576.177	43.5
576.517	43.61
576.856	43.75
577.196	43.88
577.535	44.02
577.875	44.14
578.214	44.21
578.553	44.28
578.893	44.4
579.232	44.47
579.571	44.66
579.91	44.7
580.25	44.81
580.589	44.91
580.928	45
581.267	44.98
581.606	45.06
581.945	45.15
582.283	45.19
582.622	45.25
582.961	45.36
583.3	45.43
583.639	45.5
583.977	45.62
584.316	45.71
584.654	45.75
584.993	45.78
585.332	45.94
585.67	46.08
586.008	46.18
586.347	46.27
586.685	46.26
587.024	46.3
587.362	46.39
587.7	46.52
588.038	46.62
588.376	46.76
588.715	46.82
589.053	46.94
589.391	47.05
589.729	47.06
590.067	47.19
590.404	47.27
590.742	47.33
591.08	47.38
591.418	47.44
591.756	47.5
592.093	47.63
592.431	47.64
592.769	47.62
593.106	47.7
593.444	47.81
593.781	47.86
594.119	47.91
594.456	47.94
594.793	47.94
595.131	47.94
595.468	47.92
595.805	47.96
596.143	48.04
596.48	48.09
596.817	48.2
597.154	48.25
597.491	48.2
597.828	48.27
598.165	48.28
598.502	48.33
598.839	48.39
599.176	48.43
599.512	48.51
599.849	48.61
600.186	48.64
600.523	48.63
600.859	48.73
601.196	48.81
601.532	48.8
601.869	48.87
602.205	48.94
602.542	49.01
602.878	49.06
603.215	49.1
603.551	49.16
603.887	49.21
604.223	49.17
604.56	49.24
604.896	49.28
605.232	49.31
605.568	49.33
605.904	49.38
606.24	49.36
606.576	49.39
606.912	49.38
607.248	49.41
607.583	49.53
607.919	49.56
608.255	49.64
608.591	49.76
608.926	49.79
609.262	49.81
609.597	49.85
609.933	49.93
610.268	49.92
610.604	49.97
610.939	50
611.275	50.06
611.61	50.18
611.945	50.15
612.281	50.17
612.616	50.26
612.951	50.37
613.286	50.44
613.621	50.46
613.956	50.5
614.291	50.47
614.626	50.5
614.961	50.47
615.296	50.45
615.631	50.56
615.966	50.56
616.3	50.68
616.635	50.82
616.97	50.83
617.304	50.94
617.639	50.93
617.973	50.95
618.308	51.05
618.642	51.04
618.977	51.11
619.311	51.2
619.646	51.21
619.98	51.15
620.314	51.17
620.648	51.25
620.983	51.33
621.317	51.39
621.651	51.4
621.985	51.39
622.319	51.53
622.653	51.53
622.987	51.62
623.321	51.55
623.655	51.58
623.988	51.69
624.322	51.63
624.656	51.66
624.99	51.66
625.323	51.53
625.657	51.61
625.99	51.69
626.324	51.68
626.657	51.76
626.991	51.8
627.324	51.79
627.658	51.75
627.991	51.74
628.324	51.78
628.657	51.82
628.991	51.97
629.324	51.95
629.657	51.95
629.99	51.93
630.323	51.97
630.656	51.83
630.989	51.76
631.322	51.78
631.655	51.83
631.987	51.88
632.32	52.05
632.653	52.03
632.986	52.06
633.318	52.09
633.651	52.1
633.984	52.08
634.316	52.19
634.649	52.29
634.981	52.38
635.313	52.41
635.646	52.35
635.978	52.33
636.31	52.34
636.643	52.33
636.975	52.38
637.307	52.45
637.639	52.57
637.971	52.51
638.303	52.64
638.635	52.69
638.967	52.7
639.299	52.74
639.631	52.76
639.963	52.65
640.295	52.62
640.626	52.69
640.958	52.79
641.29	52.77
641.621	52.71
641.953	52.7
642.285	52.77
642.616	52.83
642.948	52.92
643.279	52.87
643.61	52.92
643.942	52.97
644.273	52.94
644.604	53.01
644.936	53.03
645.267	52.91
645.598	52.83
645.929	52.79
646.26	52.79
646.591	52.91
646.922	52.95
647.253	53.05
647.584	52.97
647.915	52.93
648.245	53.08
648.576	53.15
648.907	53.13
649.238	53.11
649.568	53.12
649.899	53.1
650.229	53.26
650.56	53.21
650.89	53.2
651.221	53.22
651.551	53.34
651.882	53.47
652.212	53.59
652.542	53.69
652.872	53.72
653.203	53.63
653.533	53.53
653.863	53.55
654.193	53.47
654.523	53.5
654.853	53.51
655.183	53.39
655.513	53.37
655.843	53.34
656.172	53.38
656.502	53.38
656.832	53.28
657.162	53.28
657.491	53.58
657.821	53.64
658.15	53.63
658.48	53.56
658.809	53.54
659.139	53.58
659.468	53.49
659.798	53.53
660.127	53.62
660.456	53.72
660.785	53.75
661.115	53.82
661.444	53.92
661.773	54.06
662.102	54
662.431	54.07
662.76	54.22
663.089	54.26
663.418	54.3
663.747	54.5
664.076	54.41
664.404	54.08
664.733	54.19
665.062	54.34
665.39	54.52
665.719	54.62
666.048	54.66
666.376	54.68
666.705	54.68
667.033	54.71
667.362	54.67
667.69	54.76
668.018	54.82
668.347	54.78
668.675	54.84
669.003	55.01
669.331	55.03
669.659	54.91
669.987	54.9
670.315	54.89
670.643	54.78
670.971	54.93
671.299	55.07
671.627	54.92
671.955	54.71
672.283	54.57
672.61	54.52
672.938	54.47
673.266	54.61
673.593	54.69
673.921	54.68
674.249	54.64
674.576	54.62
674.904	54.7
675.231	54.69
675.558	54.48
675.886	54.49
676.213	54.49
676.54	54.5
676.867	54.57
677.195	54.62
677.522	54.75
677.849	54.9
678.176	54.85
678.503	54.88
678.83	54.95
679.157	54.81
679.484	54.88
679.81	54.98
680.137	54.98
680.464	55
680.791	54.98
681.117	54.98
681.444	54.97
681.771	54.93
682.097	54.91
682.424	54.97
682.75	55.03
683.077	55.13
683.403	55.23
683.729	55.19
684.056	55.24
684.382	55.06
684.708	54.84
685.034	54.79
685.36	54.81
685.686	54.89
686.012	55.12
686.339	55.05
686.664	55.1
686.99	55.04
687.316	55.12
687.642	55.31
687.968	55.46
688.294	55.52
688.619	55.53
688.945	55.69
689.271	55.79
689.596	55.68
689.922	55.61
690.247	55.53
690.573	55.62
690.898	55.66
691.224	55.75
691.549	56
691.874	56.12
692.2	56
692.525	56.13
692.85	56.04
693.175	56.06
693.5	55.88
693.825	56.13
694.15	56.14
694.475	55.98
694.8	55.94
695.125	55.96
695.45	55.92
695.775	55.88
696.099	55.84
696.424	55.96
696.749	56.1
697.073	56.27
697.398	56.19
697.723	56.31
698.047	56.31
698.372	56.27
698.696	56.29
699.02	56.59
699.345	56.45
699.669	56.44
699.993	56.5
700.318	56.53
700.642	56.38
700.966	56.35
701.29	56.5
701.614	56.54
701.938	56.66
702.262	56.78
702.586	56.8
702.91	56.89
703.234	56.86
703.557	56.79
703.881	56.9
704.205	56.95
704.529	56.98
704.852	57.15
705.176	57
705.499	57.1
705.823	56.86
706.146	56.98
706.47	57.16
706.793	57.17
707.117	57.37
707.44	57.56
707.763	57.57
708.086	57.35
708.409	57.27
708.733	57.01
709.056	56.99
709.379	56.92
709.702	56.75
710.025	56.79
710.348	56.91
710.671	56.87
710.993	56.95
711.316	56.91
711.639	56.88
711.962	56.92
712.284	56.9
712.607	56.82
712.93	56.99
713.252	57.01
713.575	56.98
713.897	57
714.22	56.94
714.542	56.84
714.864	56.98
715.187	56.95
715.509	57.1
715.831	56.95
716.153	57.05
716.475	57.2
716.798	57.28
717.12	57.25
717.442	56.98
717.764	57
718.085	56.73
718.407	56.68
718.729	56.79
719.051	56.8
719.373	56.93
719.695	56.88
720.016	56.81
720.338	56.95
720.659	57.07
720.981	56.89
721.302	57.01
721.624	57.1
721.945	57.25
722.267	57.45
722.588	57.72
722.909	57.56
723.231	57.59
723.552	57.72
723.873	57.78
724.194	57.92
724.515	57.85
724.836	57.8
725.157	57.89
725.478	58.18
725.799	58.14
726.12	57.75
726.441	57.72
726.762	57.66
727.083	57.43
727.403	57.22
727.724	57.34
728.045	57.1
728.365	56.73
728.686	56.84
729.006	56.71
729.327	56.46
729.647	56.3
729.967	56.2
730.288	56.15
730.608	56.03
730.928	56.05
731.249	56.05
731.569	56.34
731.889	56.15
732.209	55.89
732.529	56
732.849	56.46
733.169	56.49
733.489	56.6
733.809	56.9
734.129	56.68
734.448	56.86
734.768	56.89
735.088	57.35
735.408	57.25
735.727	57.23
736.047	57.62
736.366	58.04
736.686	57.96
737.005	57.69
737.325	57.79
737.644	57.73
737.963	57.83
738.283	58.06
738.602	58.31
738.921	58.47
739.24	58.35
739.56	58.12
739.879	58.16
740.198	58.05
740.517	57.78
740.836	57.92
741.155	57.94
741.473	58.27
741.792	57.91
742.111	57.85
742.43	57.81
742.748	57.73
743.067	57.62
743.386	57.87
743.704	58.18
744.023	58.22
744.341	58.46
744.66	58.31
744.978	58.01
745.297	57.95
745.615	57.61
745.933	58.01
746.252	58.26
746.57	57.93
746.888	58.14
747.206	58.45
747.524	58.19
747.842	57.94
748.16	58.18
748.478	58.56
748.796	58.56
749.114	58.72
749.432	58.48
749.749	58.52
750.067	58.52
750.385	58.44
750.703	58.73
751.02	58.71
751.338	58.74
751.655	58.82
751.973	58.63
752.29	58.62
752.608	58.25
752.925	58.2
753.242	58.57
753.56	58.57
753.877	58.35
754.194	58.85
754.511	59.27
754.828	58.69
755.145	58.38
755.462	58.34
755.779	58.21
756.096	58.19
756.413	58.31
756.73	58.15
757.047	57.86
757.364	57.48
757.68	57.49
757.997	57.37
758.314	57.46
758.63	57.39
758.947	57.58
759.264	57.89
759.58	57.94
759.896	57.53
760.213	57.48
760.529	57.58
760.846	57.89
761.162	57.8
761.478	58.09
761.794	58.31
762.11	58.49
762.426	58.55
762.743	58.85
763.059	58.8
763.375	58.94
763.69	59.62
764.006	59.44
764.322	59.36
764.638	59.67
764.954	59.51
765.27	59.7
765.585	59.87
765.901	59.71
766.216	59.67
766.532	59.85
766.848	59.87
767.163	59.99
767.478	59.57
767.794	59.45
768.109	59.55
768.424	59.69
768.74	59.86
769.055	59.88
769.37	59.82
769.685	60.06
770	60.09
770.315	59.49
770.63	59.56
770.945	59.93
771.26	59.71
771.575	60.02
771.89	60
772.205	59.82
772.52	59.94
772.834	60.2
773.149	60.49
773.464	60.48
773.778	60.81
774.093	61.3
774.407	61.79
774.722	61.12
775.036	60.73
775.351	60.67
775.665	60.73
775.979	60.64
776.293	59.89
776.608	59.76
776.922	59.86
777.236	60.58
777.55	59.75
777.864	59.69
778.178	59.09
778.492	59.72
778.806	59.26
779.12	59.31
779.434	59.16
779.747	59
780.061	59.45
780.375	59.11
780.689	58.89
781.002	58.37
781.316	58.76
781.629	59.16
781.943	59.15
782.256	59
782.57	58.78
782.883	59.27
783.196	59.53
783.51	59.43
783.823	59.13
784.136	59.69
784.449	59.87
784.762	60.58
785.075	60.01
785.388	60.25
785.701	60.09
786.014	60.17
786.327	59.77
786.64	59.61
786.953	59.15
787.266	58.99
787.578	59.18
787.891	59.42
788.204	59.28
788.516	59.26
788.829	59.23
789.141	59.49
789.454	59.36
789.766	59.5
790.079	59.87
790.391	59.53
790.703	59.41
791.016	59.86
791.328	59.76
791.64	60.53
791.952	60.48
792.264	59.69
792.576	59.07
792.888	58.95
793.2	58.79
793.512	59.25
793.824	59.89
794.136	59.41
794.448	59.25
794.76	58.99
795.071	58.34
795.383	58.57
795.695	58.29
796.006	58.74
796.318	58.56
796.629	58.31
796.941	58.81
797.252	58.95
797.564	58.46
797.875	58.21
798.186	57.25
798.497	57.02
798.809	58.05
799.12	58.21
799.431	58.22
799.742	58.68
800.053	58.23
800.364	57.6
800.675	57.52
800.986	57.22
801.297	57.36
801.608	58.01
801.918	57.72
802.229	58.12
802.54	58.22
802.851	57.8
803.161	57.31
803.472	56.64
803.782	56.54
804.093	56.2
804.403	56.09
804.714	56.21
805.024	56.85
805.334	56.84
805.645	57.11
805.955	58.46
806.265	57.82
806.575	57.91
806.885	57.9
807.195	58.28
807.505	59.08
807.815	59.03
808.125	59.18
808.435	59.47
808.745	58.73
809.055	58.4
809.365	58.52
809.674	59.75
809.984	60.18
810.294	60.51
810.603	60.66
810.913	61.09
811.222	61.65
811.532	61.11
811.841	60.94
812.151	61.18
812.46	60.11
812.769	60.09
813.079	60.26
813.388	60.18
813.697	59.99
814.006	59.42
814.315	59.33
814.624	59.14
814.933	59.13
815.242	59.41
815.551	59.28
815.86	59.5
816.169	58.92
816.478	59.44
816.786	59.2
817.095	58.43
817.404	58.43
817.712	57.59
818.021	58.46
818.33	58.11
818.638	57.73
818.947	58.36
819.255	59.02
819.563	58.88
819.872	58.99
820.18	58.78
820.488	58.92
820.796	59.2
821.105	58.7
821.413	58.95
821.721	59.12
822.029	59.01
822.337	59.17
822.645	59.04
822.953	58.98
823.26	59.04
823.568	59.29
823.876	59.36
824.184	59.7
824.491	59.61
824.799	59.72
825.107	59.96
825.414	59.77
825.722	59.69
826.029	59.62
826.337	59.94
826.644	59.83
826.951	59.76
827.259	59.58
827.566	59.97
827.873	59.64
828.18	59.83
828.488	60.26
828.795	60.26
829.102	60.11
829.409	60.09
829.716	60.14
830.023	60.05
830.329	59.61
830.636	59.21
830.943	58.98
831.25	59.15
831.557	59.08
831.863	59.13
832.17	58.63
832.476	59.24
832.783	59.08
833.089	59.61
833.396	59.8
833.702	59.84
834.009	60.19
834.315	60.46
834.621	60.38
834.928	60.24
835.234	60.52
835.54	61.27
835.846	61.19
836.152	60.99
836.458	61.2
836.764	61.36
837.07	60.76
837.376	60.81
837.682	60.15
837.988	59.89
838.293	59.32
838.599	59.73
838.905	59.92
839.211	59.82
839.516	60.31
839.822	60.77
840.127	61.14
840.433	60.47
840.738	61.3
841.044	61.53
841.349	60.87
841.654	59.86
841.959	59.09
842.265	57.37
842.57	57.5
842.875	57.83
843.18	57.91
843.485	59.31
843.79	59.92
844.095	61.51
844.4	61.96
844.705	63.48
845.01	63.15
845.315	63.25
845.619	62.34
845.924	61.78
846.229	62.16
846.533	61.06
846.838	61.32
847.142	60.96
847.447	60.77
847.751	60.3
848.056	59.4
848.36	60.82
848.664	64.79
848.969	64.29
849.273	63.74
849.577	63.25
849.881	63.02
850.185	63.43
850.489	61.01
850.794	57.88
851.097	58.78
851.401	56.81
851.705	54.48
852.009	54.51
852.313	56.09
852.617	54.12
852.92	55.65
853.224	55.8
853.528	55.22
853.831	54.69
854.135	55.83
854.438	55.05
854.742	54.3
855.045	52.66
855.349	53.74
855.652	52.93
855.955	53.84
856.259	55.23
856.562	54.93
856.865	54.69
857.168	58.32
857.471	56.6
857.774	60.01
858.077	59
858.38	58.25
858.683	55.42
858.986	55.58
859.289	56.53
859.592	57.84
859.894	56.22
860.197	56.54
860.5	55.92
860.802	58
861.105	56.2
861.407	56.08
861.71	56.58
862.012	56.51
862.315	55
862.617	53.82
862.919	53.95
863.222	57.21
863.524	57.78
863.826	58.23
864.128	58.98
864.43	61.95
864.732	63.34
865.034	61.83
865.336	64.29
865.638	62.16
865.94	61.91
866.242	61.12
866.544	58.58
866.846	59.93
867.147	57.8
867.449	58.74
867.751	58.95
868.052	58.42
868.354	57.94
868.655	58.71
868.957	56.96
869.258	55.51
869.56	55.46
869.861	54.6
870.162	52.12
870.463	52.35
870.765	52.39
871.066	51.86
871.367	54.15
871.668	51.07
871.969	50.65
872.27	48.3
872.571	49.09
872.872	48.57
873.173	49.62
873.473	53.26
873.774	55.87
874.075	56.4
874.376	54.42
874.676	54.16
874.977	55.22
875.277	55.1
875.578	57.19
875.878	55.4
876.179	54.87
876.479	58.42
876.78	55.6
877.08	54.33
877.38	53.5
877.68	53.23
877.981	55.03
878.281	56.37
878.581	58.79
