Data from MVZ_BU8942_Reflection_00009.txt Node
Date: Tue Nov 19 12:04:05 EST 2019
User: vgr7
Spectrometer: USB2G7710
Scans to average: 3
Trigger mode: 4
Integration Time (sec): 2.000000E-2
Electric dark correction enabled: true
Boxcar width: 10
XAxis mode: Wavelengths
Number of Pixels in Spectrum: 2048
>>>>>Begin Spectral Data<<<<<
177.721	-98.97
178.105	-10.39
178.488	-307.3
178.871	800
179.254	-850
179.636	136.5
180.019	305.45
180.402	-31.82
180.785	-1
181.168	-68.6
181.55	1153.57
181.933	-215.68
182.316	-163.81
182.698	-267.96
183.081	-243.53
183.463	-455.79
183.846	-207.36
184.228	-275.56
184.611	-172.82
184.993	-151.32
185.376	-85.99
185.758	-51.22
186.14	-13.83
186.522	-25
186.904	17.19
187.287	-2.53
187.669	-1.32
188.051	9.92
188.433	25.09
188.815	39.37
189.197	52.93
189.579	47.52
189.961	95.17
190.342	67.98
190.724	52.56
191.106	39.59
191.488	38.04
191.869	47.06
192.251	45.11
192.633	25.42
193.014	19.29
193.396	12.54
193.777	6.22
194.159	4.61
194.54	5.89
194.922	-6.38
195.303	-28.09
195.684	-21.94
196.065	-18.87
196.447	-0.66
196.828	-14.04
197.209	-22.88
197.59	11.62
197.971	5.89
198.352	12.31
198.733	11.25
199.114	11.52
199.495	43.05
199.876	34.5
200.257	16.94
200.638	10.6
201.018	20.8
201.399	9.26
201.78	-4.8
202.16	-0.51
202.541	-25.88
202.922	-45.31
203.302	4.56
203.683	6.88
204.063	22.73
204.444	11.29
204.824	39.86
205.204	44.01
205.585	22.81
205.965	39.21
206.345	25.9
206.725	25.74
207.106	38.31
207.486	32.04
207.866	55.16
208.246	67.43
208.626	97.15
209.006	45.98
209.386	87.04
209.766	174.39
210.145	112.53
210.525	112.84
210.905	109.81
211.285	106.71
211.664	87.5
212.044	50.23
212.424	52.89
212.803	39.2
213.183	16.77
213.562	20.97
213.942	27.87
214.321	25.24
214.701	16.32
215.08	14.85
215.459	-3.03
215.838	-29.97
216.218	-32.18
216.597	-39.06
216.976	-56.82
217.355	-47.86
217.734	-51.46
218.113	-70.43
218.492	-56.2
218.871	-63.67
219.25	-69.51
219.629	-61.74
220.008	-31.48
220.387	-40.88
220.766	-17.35
221.144	-18.2
221.523	-27.04
221.902	-25.4
222.28	-5.66
222.659	10.45
223.037	13.57
223.416	16.41
223.794	13.28
224.173	12.65
224.551	14.6
224.929	14.98
225.308	14.11
225.686	14.25
226.064	13.75
226.442	10.33
226.821	12.09
227.199	7.48
227.577	8.88
227.955	6.1
228.333	4.61
228.711	5.21
229.089	8.17
229.467	8.21
229.845	6.82
230.222	1.73
230.6	1.91
230.978	2.39
231.356	4.25
231.733	6.28
232.111	7.95
232.488	6.52
232.866	8.66
233.243	8.27
233.621	6.72
233.998	5.58
234.376	6.25
234.753	4.47
235.13	5.35
235.508	4.63
235.885	5.12
236.262	6.05
236.639	5.38
237.016	6.57
237.393	6.24
237.77	5.61
238.147	5.64
238.524	3.36
238.901	1.4
239.278	0.75
239.655	0.17
240.032	0.06
240.409	0.32
240.785	0.56
241.162	0.31
241.539	0.28
241.915	0.67
242.292	0.86
242.668	1.19
243.045	2.04
243.421	2.32
243.798	2.34
244.174	2.62
244.551	2.25
244.927	2.12
245.303	2.36
245.679	2.6
246.056	2.83
246.432	2.99
246.808	3.21
247.184	3.53
247.56	3.66
247.936	3.72
248.312	3.7
248.688	3.65
249.064	3.7
249.44	3.87
249.815	3.94
250.191	3.8
250.567	3.72
250.943	3.59
251.318	3.37
251.694	3.18
252.069	2.8
252.445	3.15
252.82	3.17
253.196	2.91
253.571	3.41
253.947	3.56
254.322	3.63
254.697	3.82
255.073	3.9
255.448	3.83
255.823	3.62
256.198	3.7
256.573	3.63
256.948	3.9
257.323	3.78
257.698	3.75
258.073	4.02
258.448	4.24
258.823	3.91
259.198	4.01
259.573	4.1
259.948	4.06
260.322	3.95
260.697	3.81
261.072	3.86
261.446	3.57
261.821	3.63
262.195	3.72
262.57	3.49
262.944	3.4
263.319	3.4
263.693	3.52
264.067	3.52
264.442	3.5
264.816	3.33
265.19	3.46
265.564	3.32
265.938	3.16
266.313	3.02
266.687	3.05
267.061	3.09
267.435	3.22
267.809	3.1
268.183	2.99
268.556	2.95
268.93	2.96
269.304	2.9
269.678	2.82
270.051	2.79
270.425	2.91
270.799	2.66
271.172	2.7
271.546	2.58
271.919	2.51
272.293	2.61
272.666	2.57
273.04	2.5
273.413	2.69
273.787	2.56
274.16	2.47
274.533	2.49
274.906	2.42
275.279	2.23
275.653	2.56
276.026	2.63
276.399	2.75
276.772	2.71
277.145	2.74
277.518	2.64
277.891	2.69
278.263	2.8
278.636	3.06
279.009	3.25
279.382	3.15
279.755	3.22
280.127	3.02
280.5	3.12
280.872	3.27
281.245	3.24
281.617	3.46
281.99	3.49
282.362	3.45
282.735	3.31
283.107	3.38
283.479	3.39
283.852	3.3
284.224	3.28
284.596	3.28
284.968	3.24
285.34	3.23
285.713	3.27
286.085	3.21
286.457	3.13
286.829	2.97
287.201	3.08
287.572	3.13
287.944	3.22
288.316	3.23
288.688	3.27
289.06	3.32
289.431	3.38
289.803	3.49
290.175	3.68
290.546	3.8
290.918	3.69
291.289	3.56
291.661	3.59
292.032	3.58
292.403	3.62
292.775	3.73
293.146	3.77
293.517	3.73
293.889	3.79
294.26	3.86
294.631	3.95
295.002	3.93
295.373	3.84
295.744	3.87
296.115	4.01
296.486	3.97
296.857	3.9
297.228	3.8
297.599	3.71
297.97	3.81
298.34	3.86
298.711	4.04
299.082	4.09
299.452	4.28
299.823	4.33
300.194	4.56
300.564	4.56
300.935	4.81
301.305	4.79
301.676	4.78
302.046	4.85
302.416	4.89
302.787	5.01
303.157	5.09
303.527	5.24
303.897	5.05
304.267	5.02
304.637	5.11
305.008	5.16
305.378	5.27
305.748	5.09
306.117	5.06
306.487	5.19
306.857	5.41
307.227	5.47
307.597	5.43
307.967	5.33
308.336	5.33
308.706	5.21
309.076	5.34
309.445	5.42
309.815	5.37
310.184	5.4
310.554	5.4
310.923	5.48
311.293	5.36
311.662	5.42
312.031	5.52
312.401	5.56
312.77	5.6
313.139	5.6
313.508	5.67
313.877	5.76
314.246	5.66
314.616	5.62
314.985	5.54
315.353	5.69
315.722	5.68
316.091	5.78
316.46	5.79
316.829	5.79
317.198	6.01
317.567	6.3
317.935	6.38
318.304	6.46
318.672	6.51
319.041	6.75
319.41	6.89
319.778	6.89
320.147	6.91
320.515	6.96
320.883	7.07
321.252	7.2
321.62	7.29
321.988	7.63
322.357	7.58
322.725	7.58
323.093	7.56
323.461	7.63
323.829	7.66
324.197	7.61
324.565	7.6
324.933	7.43
325.301	7.22
325.669	7.26
326.037	7.33
326.405	7.37
326.772	7.3
327.14	7.27
327.508	7.18
327.875	7.24
328.243	7.35
328.61	7.41
328.978	7.28
329.346	7.21
329.713	7.05
330.08	7.19
330.448	7.54
330.815	7.65
331.182	7.68
331.55	7.63
331.917	7.62
332.284	7.76
332.651	7.79
333.018	7.8
333.385	7.85
333.752	7.75
334.119	7.91
334.486	8
334.853	8.14
335.22	8.27
335.587	8.42
335.954	8.43
336.32	8.48
336.687	8.67
337.054	8.83
337.42	8.93
337.787	8.94
338.153	8.74
338.52	8.81
338.886	8.88
339.253	8.97
339.619	9.1
339.986	9.07
340.352	9.33
340.718	9.52
341.084	9.54
341.451	9.8
341.817	9.74
342.183	9.92
342.549	10.01
342.915	10.12
343.281	9.99
343.647	10.04
344.013	10
344.379	10.02
344.745	9.98
345.11	10.01
345.476	10.06
345.842	10.14
346.208	10.11
346.573	10.29
346.939	10.35
347.304	10.46
347.67	10.54
348.035	10.32
348.401	10.39
348.766	10.37
349.132	10.19
349.497	10.19
349.862	10.12
350.228	10
350.593	9.88
350.958	10.05
351.323	10.02
351.688	10.09
352.053	10.03
352.418	10.07
352.783	10.04
353.148	10.03
353.513	10
353.878	10.02
354.243	9.74
354.608	9.7
354.972	9.61
355.337	9.57
355.702	9.58
356.066	9.48
356.431	9.49
356.795	9.5
357.16	9.53
357.524	9.49
357.889	9.5
358.253	9.6
358.618	9.53
358.982	9.51
359.346	9.53
359.71	9.5
360.075	9.51
360.439	9.54
360.803	9.57
361.167	9.5
361.531	9.46
361.895	9.59
362.259	9.65
362.623	9.7
362.987	9.75
363.351	9.74
363.714	9.79
364.078	9.77
364.442	9.77
364.806	9.83
365.169	9.83
365.533	9.83
365.896	9.83
366.26	9.82
366.623	9.82
366.987	9.79
367.35	9.86
367.714	9.84
368.077	9.78
368.44	9.69
368.803	9.72
369.167	9.67
369.53	9.65
369.893	9.54
370.256	9.47
370.619	9.34
370.982	9.39
371.345	9.4
371.708	9.34
372.071	9.36
372.434	9.2
372.797	9.19
373.159	9.08
373.522	9.01
373.885	8.98
374.247	8.94
374.61	8.9
374.973	8.77
375.335	8.68
375.698	8.6
376.06	8.6
376.423	8.58
376.785	8.53
377.147	8.48
377.51	8.44
377.872	8.34
378.234	8.35
378.596	8.28
378.958	8.2
379.321	8.19
379.683	8.14
380.045	8.19
380.407	8.15
380.769	8.13
381.13	8.09
381.492	8.03
381.854	8.06
382.216	8.01
382.578	8
382.939	8.05
383.301	8.03
383.663	7.98
384.024	7.93
384.386	7.89
384.747	7.79
385.109	7.74
385.47	7.75
385.832	7.66
386.193	7.66
386.554	7.6
386.916	7.56
387.277	7.47
387.638	7.41
387.999	7.35
388.36	7.36
388.721	7.3
389.082	7.31
389.443	7.19
389.804	7.2
390.165	7.16
390.526	7.03
390.887	6.97
391.248	6.93
391.609	6.87
391.969	6.84
392.33	6.84
392.691	6.82
393.051	6.81
393.412	6.83
393.772	6.77
394.133	6.72
394.493	6.67
394.854	6.65
395.214	6.6
395.574	6.55
395.935	6.51
396.295	6.48
396.655	6.37
397.015	6.37
397.376	6.29
397.736	6.24
398.096	6.22
398.456	6.21
398.816	6.2
399.176	6.18
399.535	6.13
399.895	6.06
400.255	6.02
400.615	5.97
400.975	5.95
401.334	5.93
401.694	5.91
402.054	5.86
402.413	5.86
402.773	5.84
403.132	5.77
403.492	5.72
403.851	5.68
404.211	5.7
404.57	5.64
404.929	5.6
405.288	5.59
405.648	5.6
406.007	5.58
406.366	5.54
406.725	5.46
407.084	5.46
407.443	5.49
407.802	5.48
408.161	5.45
408.52	5.42
408.879	5.38
409.238	5.36
409.596	5.37
409.955	5.34
410.314	5.33
410.673	5.35
411.031	5.33
411.39	5.34
411.748	5.3
412.107	5.29
412.465	5.29
412.824	5.28
413.182	5.23
413.54	5.23
413.899	5.28
414.257	5.34
414.615	5.33
414.974	5.27
415.332	5.26
415.69	5.24
416.048	5.2
416.406	5.15
416.764	5.14
417.122	5.1
417.48	5.06
417.838	5.04
418.195	5.01
418.553	5.02
418.911	4.98
419.269	4.97
419.626	4.94
419.984	4.93
420.342	4.92
420.699	4.9
421.057	4.87
421.414	4.82
421.772	4.78
422.129	4.75
422.486	4.73
422.844	4.72
423.201	4.71
423.558	4.69
423.915	4.68
424.273	4.66
424.63	4.67
424.987	4.68
425.344	4.66
425.701	4.65
426.058	4.62
426.415	4.61
426.772	4.58
427.128	4.59
427.485	4.57
427.842	4.55
428.199	4.54
428.555	4.51
428.912	4.49
429.269	4.44
429.625	4.44
429.982	4.43
430.338	4.41
430.695	4.4
431.051	4.39
431.407	4.38
431.764	4.39
432.12	4.38
432.476	4.36
432.832	4.36
433.189	4.34
433.545	4.34
433.901	4.34
434.257	4.34
434.613	4.33
434.969	4.32
435.325	4.32
435.681	4.32
436.036	4.33
436.392	4.35
436.748	4.38
437.104	4.39
437.459	4.39
437.815	4.4
438.171	4.4
438.526	4.4
438.882	4.4
439.237	4.38
439.593	4.38
439.948	4.37
440.304	4.36
440.659	4.37
441.014	4.37
441.369	4.37
441.725	4.37
442.08	4.36
442.435	4.36
442.79	4.36
443.145	4.36
443.5	4.35
443.855	4.34
444.21	4.33
444.565	4.34
444.92	4.33
445.275	4.32
445.629	4.31
445.984	4.31
446.339	4.31
446.693	4.31
447.048	4.3
447.403	4.28
447.757	4.27
448.112	4.25
448.466	4.23
448.82	4.24
449.175	4.23
449.529	4.22
449.883	4.2
450.238	4.19
450.592	4.17
450.946	4.15
451.3	4.14
451.654	4.12
452.008	4.1
452.362	4.1
452.716	4.09
453.07	4.08
453.424	4.04
453.778	4.04
454.132	4.01
454.486	4.03
454.839	4.04
455.193	4.05
455.547	4.06
455.9	4.08
456.254	4.08
456.607	4.08
456.961	4.08
457.314	4.07
457.668	4.05
458.021	4.06
458.375	4.06
458.728	4.07
459.081	4.07
459.434	4.08
459.787	4.08
460.141	4.07
460.494	4.08
460.847	4.11
461.2	4.1
461.553	4.13
461.906	4.14
462.259	4.14
462.611	4.14
462.964	4.14
463.317	4.15
463.67	4.16
464.022	4.16
464.375	4.18
464.728	4.21
465.08	4.24
465.433	4.26
465.785	4.3
466.138	4.32
466.49	4.35
466.843	4.38
467.195	4.38
467.547	4.4
467.899	4.42
468.252	4.44
468.604	4.46
468.956	4.51
469.308	4.5
469.66	4.54
470.012	4.56
470.364	4.58
470.716	4.6
471.068	4.63
471.42	4.65
471.772	4.66
472.123	4.67
472.475	4.68
472.827	4.71
473.178	4.7
473.53	4.72
473.882	4.72
474.233	4.72
474.585	4.72
474.936	4.76
475.288	4.76
475.639	4.77
475.99	4.77
476.342	4.75
476.693	4.77
477.044	4.75
477.395	4.75
477.746	4.73
478.097	4.71
478.448	4.71
478.8	4.69
479.15	4.69
479.501	4.67
479.852	4.64
480.203	4.62
480.554	4.61
480.905	4.61
481.255	4.6
481.606	4.6
481.957	4.61
482.307	4.6
482.658	4.59
483.009	4.58
483.359	4.58
483.709	4.58
484.06	4.58
484.41	4.57
484.761	4.57
485.111	4.58
485.461	4.58
485.811	4.58
486.162	4.58
486.512	4.58
486.862	4.59
487.212	4.61
487.562	4.6
487.912	4.61
488.262	4.6
488.612	4.59
488.961	4.58
489.311	4.57
489.661	4.57
490.011	4.57
490.36	4.57
490.71	4.57
491.06	4.58
491.409	4.57
491.759	4.6
492.108	4.59
492.458	4.61
492.807	4.62
493.157	4.63
493.506	4.65
493.855	4.65
494.204	4.65
494.554	4.66
494.903	4.7
495.252	4.72
495.601	4.77
495.95	4.81
496.299	4.88
496.648	4.93
496.997	4.97
497.346	5.02
497.695	5.07
498.043	5.13
498.392	5.17
498.741	5.22
499.09	5.27
499.438	5.31
499.787	5.36
500.135	5.42
500.484	5.48
500.832	5.55
501.181	5.62
501.529	5.75
501.878	5.86
502.226	5.93
502.574	5.99
502.923	6.07
503.271	6.16
503.619	6.23
503.967	6.36
504.315	6.47
504.663	6.57
505.011	6.67
505.359	6.78
505.707	6.88
506.055	6.99
506.403	7.06
506.751	7.18
507.098	7.32
507.446	7.43
507.794	7.54
508.141	7.66
508.489	7.82
508.837	7.9
509.184	8.02
509.531	8.17
509.879	8.32
510.226	8.45
510.574	8.6
510.921	8.73
511.268	8.85
511.616	8.98
511.963	9.14
512.31	9.29
512.657	9.44
513.004	9.6
513.351	9.78
513.698	9.99
514.045	10.21
514.392	10.39
514.739	10.59
515.086	10.79
515.432	10.98
515.779	11.15
516.126	11.4
516.473	11.58
516.819	11.71
517.166	11.88
517.512	12.04
517.859	12.23
518.205	12.37
518.552	12.56
518.898	12.72
519.245	12.9
519.591	13.06
519.937	13.2
520.283	13.38
520.629	13.53
520.976	13.71
521.322	13.86
521.668	14.02
522.014	14.18
522.36	14.34
522.706	14.53
523.052	14.74
523.398	14.9
523.743	15.11
524.089	15.32
524.435	15.54
524.781	15.75
525.126	15.91
525.472	16.11
525.817	16.26
526.163	16.42
526.509	16.53
526.854	16.67
527.199	16.81
527.545	16.93
527.89	17.08
528.235	17.22
528.581	17.35
528.926	17.47
529.271	17.61
529.616	17.76
529.961	17.89
530.306	18.03
530.651	18.19
530.996	18.34
531.341	18.52
531.686	18.67
532.031	18.83
532.376	19.01
532.721	19.18
533.065	19.34
533.41	19.52
533.755	19.7
534.099	19.87
534.444	20.08
534.788	20.24
535.133	20.42
535.477	20.6
535.822	20.8
536.166	21.03
536.51	21.23
536.855	21.45
537.199	21.69
537.543	21.94
537.887	22.18
538.231	22.43
538.576	22.71
538.92	22.96
539.264	23.18
539.608	23.4
539.951	23.61
540.295	23.85
540.639	24.07
540.983	24.27
541.327	24.49
541.671	24.68
542.014	24.88
542.358	25.03
542.701	25.23
543.045	25.4
543.389	25.61
543.732	25.85
544.075	26.08
544.419	26.33
544.762	26.52
545.105	26.77
545.449	27
545.792	27.19
546.135	27.44
546.478	27.73
546.821	28.01
547.165	28.25
547.508	28.53
547.851	28.8
548.194	29.09
548.536	29.41
548.879	29.68
549.222	29.97
549.565	30.27
549.908	30.52
550.25	30.83
550.593	31.13
550.936	31.39
551.278	31.66
551.621	31.9
551.963	32.19
552.306	32.47
552.648	32.71
552.991	32.99
553.333	33.3
553.675	33.57
554.017	33.78
554.36	34.12
554.702	34.3
555.044	34.53
555.386	34.81
555.728	35.05
556.07	35.26
556.412	35.5
556.754	35.74
557.096	36.04
557.438	36.29
557.78	36.59
558.121	36.83
558.463	37.08
558.805	37.38
559.147	37.61
559.488	37.77
559.83	38.04
560.171	38.3
560.513	38.5
560.854	38.71
561.196	39.01
561.537	39.2
561.878	39.45
562.22	39.71
562.561	39.94
562.902	40.15
563.243	40.42
563.584	40.69
563.925	40.96
564.266	41.12
564.607	41.3
564.948	41.43
565.289	41.67
565.63	41.86
565.971	42
566.312	42.2
566.653	42.44
566.993	42.63
567.334	42.81
567.675	43.02
568.015	43.17
568.356	43.3
568.696	43.46
569.037	43.67
569.377	43.85
569.718	44
570.058	44.12
570.398	44.27
570.739	44.46
571.079	44.64
571.419	44.81
571.759	44.98
572.099	45.14
572.439	45.27
572.779	45.43
573.119	45.63
573.459	45.81
573.799	45.96
574.139	46.11
574.479	46.25
574.819	46.32
575.158	46.47
575.498	46.63
575.838	46.78
576.177	46.82
576.517	46.9
576.856	47.01
577.196	47.17
577.535	47.32
577.875	47.4
578.214	47.48
578.553	47.66
578.893	47.81
579.232	47.9
579.571	47.98
579.91	48.02
580.25	48.08
580.589	48.09
580.928	48.16
581.267	48.21
581.606	48.33
581.945	48.48
582.283	48.6
582.622	48.63
582.961	48.77
583.3	48.99
583.639	49.15
583.977	49.3
584.316	49.39
584.654	49.44
584.993	49.55
585.332	49.66
585.67	49.72
586.008	49.81
586.347	49.88
586.685	49.96
587.024	50.11
587.362	50.24
587.7	50.3
588.038	50.41
588.376	50.53
588.715	50.56
589.053	50.59
589.391	50.63
589.729	50.73
590.067	50.74
590.404	50.77
590.742	50.88
591.08	50.93
591.418	51.02
591.756	51.08
592.093	51.15
592.431	51.22
592.769	51.33
593.106	51.42
593.444	51.61
593.781	51.72
594.119	51.8
594.456	51.85
594.793	52.01
595.131	52.01
595.468	52.06
595.805	52.16
596.143	52.19
596.48	52.3
596.817	52.34
597.154	52.34
597.491	52.32
597.828	52.32
598.165	52.42
598.502	52.42
598.839	52.54
599.176	52.59
599.512	52.65
599.849	52.68
600.186	52.65
600.523	52.64
600.859	52.74
601.196	52.77
601.532	52.8
601.869	52.82
602.205	52.89
602.542	52.88
602.878	52.93
603.215	52.96
603.551	53.06
603.887	53.19
604.223	53.26
604.56	53.34
604.896	53.37
605.232	53.35
605.568	53.5
605.904	53.48
606.24	53.55
606.576	53.6
606.912	53.67
607.248	53.79
607.583	53.83
607.919	53.81
608.255	53.79
608.591	53.85
608.926	53.91
609.262	53.95
609.597	53.99
609.933	54.06
610.268	54.11
610.604	54.11
610.939	54.1
611.275	54.15
611.61	54.17
611.945	54.21
612.281	54.23
612.616	54.21
612.951	54.26
613.286	54.32
613.621	54.37
613.956	54.32
614.291	54.22
614.626	54.13
614.961	54.14
615.296	54.24
615.631	54.23
615.966	54.31
616.3	54.37
616.635	54.42
616.97	54.45
617.304	54.5
617.639	54.46
617.973	54.44
618.308	54.49
618.642	54.59
618.977	54.72
619.311	54.74
619.646	54.71
619.98	54.78
620.314	54.68
620.648	54.62
620.983	54.63
621.317	54.78
621.651	54.98
621.985	54.99
622.319	54.98
622.653	55.03
622.987	55.03
623.321	55.02
623.655	55.02
623.988	55.07
624.322	55.15
624.656	55.16
624.99	55.2
625.323	55.14
625.657	55.07
625.99	55.04
626.324	55.05
626.657	55.17
626.991	55.15
627.324	55.22
627.658	55.17
627.991	55.13
628.324	55.07
628.657	55.02
628.991	55.13
629.324	55.17
629.657	55.25
629.99	55.27
630.323	55.29
630.656	55.39
630.989	55.35
631.322	55.33
631.655	55.36
631.987	55.38
632.32	55.53
632.653	55.65
632.986	55.6
633.318	55.63
633.651	55.62
633.984	55.61
634.316	55.58
634.649	55.62
634.981	55.7
635.313	55.85
635.646	55.82
635.978	55.69
636.31	55.76
636.643	55.75
636.975	55.74
637.307	55.73
637.639	55.65
637.971	55.65
638.303	55.66
638.635	55.68
638.967	55.67
639.299	55.61
639.631	55.55
639.963	55.66
640.295	55.68
640.626	55.6
640.958	55.7
641.29	55.78
641.621	55.87
641.953	55.96
642.285	55.85
642.616	55.96
642.948	56.02
643.279	56.08
643.61	56.15
643.942	56.18
644.273	56.23
644.604	56.22
644.936	56.18
645.267	56.2
645.598	56.28
645.929	56.29
646.26	56.28
646.591	56.25
646.922	56.17
647.253	56.2
647.584	56.21
647.915	56.06
648.245	56.09
648.576	56.13
648.907	56.25
649.238	56.27
649.568	56.3
649.899	56.31
650.229	56.28
650.56	56.14
650.89	56.09
651.221	56.07
651.551	56.24
651.882	56.28
652.212	56.28
652.542	56.32
652.872	56.21
653.203	56.37
653.533	56.51
653.863	56.58
654.193	56.51
654.523	56.49
654.853	56.61
655.183	56.58
655.513	56.63
655.843	56.51
656.172	56.54
656.502	56.4
656.832	56.45
657.162	56.44
657.491	56.53
657.821	56.6
658.15	56.73
658.48	56.71
658.809	56.72
659.139	56.82
659.468	56.78
659.798	57.02
660.127	56.97
660.456	56.88
660.785	56.96
661.115	56.99
661.444	57.07
661.773	57.05
662.102	57.13
662.431	57.07
662.76	57.15
663.089	57.09
663.418	57.29
663.747	57.4
664.076	57.41
664.404	57.35
664.733	57.38
665.062	57.36
665.39	57.39
665.719	57.39
666.048	57.32
666.376	57.4
666.705	57.28
667.033	57.24
667.362	57.28
667.69	57.28
668.018	57.4
668.347	57.42
668.675	57.48
669.003	57.44
669.331	57.44
669.659	57.39
669.987	57.41
670.315	57.31
670.643	57.24
670.971	57.33
671.299	57.24
671.627	57.24
671.955	57.13
672.283	57.07
672.61	57.14
672.938	57.16
673.266	57.04
673.593	57.1
673.921	56.95
674.249	56.99
674.576	56.84
674.904	56.88
675.231	56.98
675.558	56.96
675.886	56.86
676.213	56.78
676.54	56.81
676.867	57.03
677.195	57.05
677.522	57.08
677.849	57.3
678.176	57.47
678.503	57.36
678.83	57.47
679.157	57.55
679.484	57.46
679.81	57.51
680.137	57.48
680.464	57.44
680.791	57.63
681.117	57.64
681.444	57.68
681.771	57.63
682.097	57.72
682.424	57.84
682.75	57.88
683.077	57.98
683.403	57.95
683.729	57.95
684.056	57.94
684.382	57.99
684.708	57.73
685.034	57.74
685.36	57.69
685.686	57.74
686.012	57.66
686.339	57.82
686.664	57.85
686.99	57.98
687.316	57.97
687.642	57.77
687.968	57.8
688.294	57.85
688.619	57.79
688.945	57.69
689.271	57.7
689.596	57.88
689.922	57.92
690.247	58.03
690.573	57.79
690.898	57.89
691.224	57.8
691.549	57.88
691.874	57.91
692.2	58.11
692.525	58.08
692.85	58.11
693.175	58.08
693.5	57.98
693.825	58.06
694.15	58.06
694.475	58.42
694.8	58.41
695.125	58.31
695.45	58.36
695.775	58.32
696.099	58.24
696.424	58.21
696.749	58.27
697.073	58.26
697.398	58.31
697.723	58.28
698.047	58.39
698.372	58.29
698.696	58.3
699.02	58.34
699.345	58.27
699.669	58.29
699.993	58.4
700.318	58.54
700.642	58.48
700.966	58.63
701.29	58.43
701.614	58.35
701.938	58.45
702.262	58.54
702.586	58.44
702.91	58.39
703.234	58.29
703.557	58.22
703.881	58.01
704.205	58.07
704.529	58.01
704.852	57.91
705.176	57.96
705.499	57.95
705.823	57.84
706.146	57.89
706.47	57.76
706.793	57.48
707.117	57.33
707.44	57.38
707.763	57.47
708.086	57.59
708.409	57.82
708.733	57.59
709.056	57.46
709.379	57.53
709.702	57.59
710.025	57.7
710.348	57.83
710.671	58.08
710.993	58.05
711.316	58.13
711.639	58.25
711.962	58.31
712.284	58.23
712.607	58.32
712.93	58.42
713.252	58.49
713.575	58.72
713.897	58.72
714.22	58.73
714.542	58.57
714.864	58.31
715.187	58.25
715.509	58.42
715.831	58.45
716.153	58.52
716.475	58.58
716.798	58.48
717.12	58.59
717.442	58.52
717.764	58.68
718.085	58.71
718.407	58.7
718.729	58.62
719.051	58.7
719.373	58.79
719.695	58.47
720.016	58.58
720.338	58.51
720.659	58.5
720.981	58.14
721.302	58.09
721.624	58.24
721.945	58.15
722.267	58.31
722.588	58.56
722.909	58.63
723.231	58.52
723.552	58.53
723.873	58.12
724.194	58.06
724.515	58.08
724.836	58.34
725.157	58.16
725.478	58.19
725.799	58.23
726.12	58.23
726.441	58.68
726.762	58.79
727.083	58.74
727.403	58.43
727.724	58.68
728.045	58.75
728.365	58.52
728.686	58.45
729.006	58.33
729.327	58.05
729.647	57.86
729.967	57.95
730.288	58.14
730.608	58.41
730.928	58.59
731.249	58.73
731.569	58.6
731.889	58.54
732.209	58.57
732.529	58.63
732.849	58.45
733.169	58.1
733.489	58.09
733.809	58.09
734.129	58.37
734.448	58.47
734.768	58.52
735.088	58.91
735.408	59.04
735.727	59.11
736.047	59.3
736.366	59.65
736.686	59.53
737.005	59.44
737.325	59.21
737.644	59.07
737.963	58.8
738.283	58.86
738.602	58.96
738.921	58.88
739.24	58.64
739.56	58.72
739.879	58.97
740.198	58.82
740.517	58.8
740.836	58.75
741.155	59.01
741.473	59.02
741.792	58.96
742.111	59.32
742.43	59.47
742.748	59.58
743.067	59.48
743.386	59.67
743.704	59.92
744.023	60.22
744.341	60.41
744.66	60.42
744.978	59.96
745.297	60.14
745.615	60.51
745.933	60.99
746.252	61.37
746.57	61.13
746.888	61.43
747.206	61.34
747.524	61.6
747.842	61.15
748.16	61.16
748.478	61.2
748.796	60.77
749.114	60.55
749.432	60.62
749.749	60.38
750.067	60.11
750.385	59.81
750.703	59.95
751.02	59.83
751.338	59.77
751.655	60.25
751.973	59.98
752.29	59.63
752.608	59.35
752.925	59.15
753.242	59.77
753.56	59.85
753.877	60.03
754.194	59.72
754.511	59.99
754.828	60.07
755.145	60.02
755.462	59.87
755.779	60.12
756.096	60.2
756.413	60.48
756.73	60.84
757.047	60.96
757.364	60.64
757.68	60.52
757.997	60.44
758.314	60.41
758.63	60.88
758.947	60.98
759.264	61.29
759.58	60.98
759.896	60.45
760.213	59.95
760.529	59.67
760.846	59.78
761.162	59.57
761.478	59.53
761.794	59.39
762.11	59.22
762.426	59.4
762.743	59.08
763.059	59.06
763.375	58.95
763.69	58.99
764.006	59.26
764.322	59.45
764.638	59.68
764.954	59.46
765.27	59.2
765.585	59.1
765.901	58.7
766.216	58.84
766.532	58.94
766.848	59.04
767.163	59.18
767.478	59.23
767.794	59.16
768.109	59.01
768.424	59.46
768.74	59.81
769.055	59.62
769.37	59.97
769.685	59.69
770	60.03
770.315	59.79
770.63	59.43
770.945	59.38
771.26	59.34
771.575	59.7
771.89	59.62
772.205	59.7
772.52	59.96
772.834	60.05
773.149	59.64
773.464	59.72
773.778	59.61
774.093	59.88
774.407	60.2
774.722	60.81
775.036	60.22
775.351	60.05
775.665	60.28
775.979	60.36
776.293	60.65
776.608	60.56
776.922	60.22
777.236	60.22
777.55	59.61
777.864	59.78
778.178	59.37
778.492	59.33
778.806	58.84
779.12	58.89
779.434	58.28
779.747	58.84
780.061	58.61
780.375	59.23
780.689	58.91
781.002	58.58
781.316	58.25
781.629	58.65
781.943	58.58
782.256	57.91
782.57	57.16
782.883	57
783.196	56.27
783.51	56.66
783.823	56.7
784.136	57.35
784.449	57.02
784.762	57.38
785.075	57.51
785.388	58.4
785.701	58.01
786.014	58.41
786.327	58.4
786.64	58.66
786.953	57.8
787.266	57.24
787.578	58.05
787.891	57.45
788.204	57.49
788.516	57.57
788.829	57.35
789.141	57.97
789.454	57.58
789.766	57.74
790.079	57.29
790.391	57.63
790.703	57.64
791.016	58.04
791.328	57.67
791.64	57.55
791.952	57.74
792.264	57.76
792.576	58.13
792.888	58.29
793.2	58.58
793.512	58.97
793.824	59.67
794.136	58.81
794.448	59.48
794.76	58.44
795.071	58.74
795.383	59.46
795.695	58.95
796.006	59.19
796.318	58.7
796.629	59.62
796.941	59.84
797.252	60.06
797.564	59.43
797.875	59.56
798.186	59.65
798.497	59.05
798.809	59.46
799.12	59.01
799.431	58.74
799.742	58.59
800.053	58.68
800.364	58.7
800.675	59.2
800.986	58.36
801.297	59.26
801.608	58.69
801.918	58.6
802.229	59.22
802.54	59.34
802.851	60.04
803.161	59.41
803.472	58.7
803.782	58.28
804.093	58.01
804.403	57.99
804.714	58.57
805.024	59.01
805.334	57.89
805.645	57.99
805.955	57.55
806.265	57.51
806.575	57.3
806.885	57.42
807.195	57.78
807.505	58.15
807.815	58.79
808.125	59.37
808.435	59.31
808.745	59.5
809.055	59.83
809.365	59.09
809.674	59.37
809.984	59.16
810.294	59.67
810.603	59.65
810.913	59.98
811.222	60.61
811.532	59.92
811.841	61.72
812.151	61.4
812.46	61.89
812.769	61.57
813.079	61.06
813.388	61
813.697	60.12
814.006	60.77
814.315	59.7
814.624	59.94
814.933	59.34
815.242	59.03
815.551	59.1
815.86	59.97
816.169	59.46
816.478	60.2
816.786	60.13
817.095	61.55
817.404	61.24
817.712	60.27
818.021	61.33
818.33	60.62
818.638	61.16
818.947	60.65
819.255	60.33
819.563	60.96
819.872	60.65
820.18	61.02
820.488	60.94
820.796	60.99
821.105	61.13
821.413	61.67
821.721	61.51
822.029	61.25
822.337	61.25
822.645	61.45
822.953	61.43
823.26	61.33
823.568	61.11
823.876	61.32
824.184	61.18
824.491	60.88
824.799	60.77
825.107	60.6
825.414	60.59
825.722	60.72
826.029	60.5
826.337	60.57
826.644	60.52
826.951	60.41
827.259	60.53
827.566	60.27
827.873	59.9
828.18	59.78
828.488	59.81
828.795	59.74
829.102	59.57
829.409	59.34
829.716	59.52
830.023	59.17
830.329	58.81
830.636	59.19
830.943	59.63
831.25	59.74
831.557	59.47
831.863	59.5
832.17	59.87
832.476	59.44
832.783	59.56
833.089	59.08
833.396	59.42
833.702	59.35
834.009	59.73
834.315	60.21
834.621	60.4
834.928	60.59
835.234	60.73
835.54	60.42
835.846	59.98
836.152	59.56
836.458	59.54
836.764	59.74
837.07	59.75
837.376	59.38
837.682	59.98
837.988	60.95
838.293	61.58
838.599	61.6
838.905	62.66
839.211	62.85
839.516	63.81
839.822	63.52
840.127	63.02
840.433	63.1
840.738	62.31
841.044	62.74
841.349	63.34
841.654	61.97
841.959	62.18
842.265	62.96
842.57	63.75
842.875	64.57
843.18	63.93
843.485	63.37
843.79	63.12
844.095	61.58
844.4	59.21
844.705	59.31
845.01	59.23
845.315	60.12
845.619	58.96
845.924	59.88
846.229	60
846.533	60.52
846.838	59.81
847.142	60.95
847.447	61.25
847.751	60.69
848.056	62.32
848.36	63.05
848.664	65.21
848.969	64.19
849.273	66.74
849.577	65.91
849.881	66.07
850.185	65.42
850.489	66.42
850.794	68.84
851.097	70.57
851.401	70.55
851.705	70.17
852.009	71.28
852.313	69.11
852.617	69.57
852.92	70.17
853.224	71.89
853.528	70.71
853.831	69.97
854.135	69.94
854.438	70.57
854.742	70.33
855.045	66.64
855.349	68.44
855.652	65.57
855.955	68.51
856.259	68.99
856.562	71.5
856.865	71.95
857.168	73.29
857.471	68.48
857.774	67.58
858.077	65.73
858.38	66.19
858.683	65.5
858.986	66.12
859.289	66.91
859.592	65
859.894	65.08
860.197	62.12
860.5	64.65
860.802	63.63
861.105	64.02
861.407	68.26
861.71	63.81
862.012	66.25
862.315	65.96
862.617	63.66
862.919	63.18
863.222	62.38
863.524	61.55
863.826	63.19
864.128	62.91
864.43	64.89
864.732	65.77
865.034	66.47
865.336	64.07
865.638	63.46
865.94	64.54
866.242	62.78
866.544	66.4
866.846	62.27
867.147	65.65
867.449	66.52
867.751	64.2
868.052	67.24
868.354	65.08
868.655	61.38
868.957	64.06
869.258	63.01
869.56	63.46
869.861	62.09
870.162	63.49
870.463	62.2
870.765	61.51
871.066	59.57
871.367	56.99
871.668	57.49
871.969	57.9
872.27	57.13
872.571	58.09
872.872	58.75
873.173	57.05
873.473	56.09
873.774	54.21
874.075	52.15
874.376	54.2
874.676	55.82
874.977	58.08
875.277	56.5
875.578	56.18
875.878	55.41
876.179	56.38
876.479	55.44
876.78	56.63
877.08	55.98
877.38	56.44
877.68	60.1
877.981	61.36
878.281	60.4
878.581	60.12
