Data from MVZ_BU163026_Reflection_00007.txt Node
Date: Tue Nov 19 12:06:01 EST 2019
User: vgr7
Spectrometer: USB2G7710
Scans to average: 3
Trigger mode: 4
Integration Time (sec): 2.000000E-2
Electric dark correction enabled: true
Boxcar width: 10
XAxis mode: Wavelengths
Number of Pixels in Spectrum: 2048
>>>>>Begin Spectral Data<<<<<
177.721	57.77
178.105	478.38
178.488	395.22
178.871	205.97
179.254	120
179.636	128.65
180.019	81.24
180.402	383.33
180.785	54.55
181.168	-190.18
181.55	-5.91
181.933	161.8
182.316	-27.91
182.698	-66.17
183.081	-58.72
183.463	-38.59
183.846	4.55
184.228	-23.45
184.611	-22.58
184.993	-13.71
185.376	-32.47
185.758	-41.06
186.14	-33.19
186.522	-40.04
186.904	-66.4
187.287	-49.14
187.669	-62.88
188.051	-19.32
188.433	5.39
188.815	-7.64
189.197	23
189.579	15.89
189.961	18.96
190.342	43.35
190.724	64.63
191.106	108.86
191.488	64.2
191.869	67.81
192.251	99.11
192.633	106.05
193.014	115.85
193.396	68.48
193.777	104.49
194.159	220.82
194.54	600
194.922	-3663.16
195.303	264
195.684	173.6
196.065	97.54
196.447	27.14
196.828	1145.45
197.209	-37.17
197.59	14.63
197.971	-165.96
198.352	-53.7
198.733	88.29
199.114	97.54
199.495	90.72
199.876	55.21
200.257	55.43
200.638	48.2
201.018	46.38
201.399	522.08
201.78	92.96
202.16	46.6
202.541	67.96
202.922	121.61
203.302	156.37
203.683	166.89
204.063	141.18
204.444	203.95
204.824	338.82
205.204	2298.11
205.585	2282.93
205.965	1064.79
206.345	-238.06
206.725	-25.28
207.106	39.73
207.486	16.22
207.866	68.41
208.246	51.32
208.626	14.2
209.006	4.13
209.386	38.28
209.766	60.67
210.145	71.45
210.525	122.89
210.905	121.44
211.285	46.85
211.664	55.95
212.044	59.96
212.424	54.38
212.803	64.36
213.183	50.22
213.562	43.78
213.942	23.64
214.321	23.95
214.701	9.38
215.08	-19
215.459	28.35
215.838	-12.44
216.218	-32.17
216.597	-14.17
216.976	-23.11
217.355	-37.8
217.734	-36.76
218.113	-14.44
218.492	-21.22
218.871	-12.73
219.25	-6.4
219.629	-32.54
220.008	-25.99
220.387	-31.08
220.766	-16.09
221.144	-23.51
221.523	-41.78
221.902	-48.16
222.28	-58.15
222.659	-23.44
223.037	-26.28
223.416	-60.82
223.794	-48.69
224.173	-55.11
224.551	-49.3
224.929	-42.52
225.308	-42.44
225.686	-48.51
226.064	-51.53
226.442	-35.71
226.821	-33.36
227.199	-32.02
227.577	-26.64
227.955	-24.06
228.333	-23.24
228.711	-22.34
229.089	-16.5
229.467	-15.93
229.845	-15.13
230.222	-13.7
230.6	-12.22
230.978	-9.33
231.356	-8.49
231.733	-3.93
232.111	-1.28
232.488	-1.16
232.866	0.34
233.243	1.51
233.621	4.83
233.998	4.41
234.376	4.12
234.753	3.28
235.13	4.44
235.508	4.32
235.885	3.81
236.262	2.72
236.639	3.45
237.016	2.79
237.393	3.72
237.77	3.23
238.147	3.87
238.524	3.77
238.901	3.08
239.278	3.72
239.655	2.55
240.032	2.27
240.409	2.75
240.785	2.11
241.162	2.52
241.539	1.97
241.915	1.38
242.292	1.43
242.668	1.85
243.045	2.07
243.421	2.15
243.798	2.01
244.174	2.21
244.551	2.19
244.927	2.12
245.303	2.19
245.679	2.45
246.056	2.58
246.432	2.47
246.808	2.66
247.184	3
247.56	2.69
247.936	2.7
248.312	2.37
248.688	2.71
249.064	2.64
249.44	2.46
249.815	2.85
250.191	2.8
250.567	2.87
250.943	2.82
251.318	2.46
251.694	2.62
252.069	2.71
252.445	2.54
252.82	2.62
253.196	2.67
253.571	2.5
253.947	2.21
254.322	2.17
254.697	2.03
255.073	1.71
255.448	2.15
255.823	2.26
256.198	2.28
256.573	2.18
256.948	2.37
257.323	2.71
257.698	2.69
258.073	2.6
258.448	2.47
258.823	2.21
259.198	2.39
259.573	2.21
259.948	2.1
260.322	2.17
260.697	2.34
261.072	2.2
261.446	2.21
261.821	2.23
262.195	2.12
262.57	2.18
262.944	2.03
263.319	1.81
263.693	1.69
264.067	1.79
264.442	1.72
264.816	1.45
265.19	1.45
265.564	1.34
265.938	1.36
266.313	1.3
266.687	1.37
267.061	1.29
267.435	1.63
267.809	1.75
268.183	1.66
268.556	1.44
268.93	1.54
269.304	1.46
269.678	1.33
270.051	1.33
270.425	1.45
270.799	1.33
271.172	1.48
271.546	1.61
271.919	1.68
272.293	1.76
272.666	1.88
273.04	1.71
273.413	1.56
273.787	1.64
274.16	1.71
274.533	1.94
274.906	2.13
275.279	2.14
275.653	2.11
276.026	2.23
276.399	2.27
276.772	2.33
277.145	2.41
277.518	2.37
277.891	2.44
278.263	2.34
278.636	2.64
279.009	2.72
279.382	2.72
279.755	2.68
280.127	2.52
280.5	2.36
280.872	2.57
281.245	2.7
281.617	2.7
281.99	2.48
282.362	2.3
282.735	2.1
283.107	1.88
283.479	1.84
283.852	1.9
284.224	2.16
284.596	2.07
284.968	2.11
285.34	2.17
285.713	2.13
286.085	2.03
286.457	1.96
286.829	1.95
287.201	1.96
287.572	2.08
287.944	2.24
288.316	2.32
288.688	2.35
289.06	2.35
289.431	2.34
289.803	2.58
290.175	2.56
290.546	2.67
290.918	2.73
291.289	2.74
291.661	2.76
292.032	2.57
292.403	2.64
292.775	2.82
293.146	2.94
293.517	3.04
293.889	3.02
294.26	3.06
294.631	3.13
295.002	3.22
295.373	3.16
295.744	3.05
296.115	3.13
296.486	2.99
296.857	2.98
297.228	2.71
297.599	2.64
297.97	2.81
298.34	2.89
298.711	3.05
299.082	3.06
299.452	2.98
299.823	2.99
300.194	3.03
300.564	2.89
300.935	2.82
301.305	2.66
301.676	2.58
302.046	2.66
302.416	2.57
302.787	2.55
303.157	2.62
303.527	2.94
303.897	2.84
304.267	2.88
304.637	2.94
305.008	3.33
305.378	3.36
305.748	3.28
306.117	3.33
306.487	3.17
306.857	3.28
307.227	3.47
307.597	3.57
307.967	3.64
308.336	3.7
308.706	3.77
309.076	4.01
309.445	4.32
309.815	4.32
310.184	4.46
310.554	4.33
310.923	4.3
311.293	4.14
311.662	4.21
312.031	4.32
312.401	4.38
312.77	4.26
313.139	4.33
313.508	4.29
313.877	4.18
314.246	4.28
314.616	4.33
314.985	4.15
315.353	4.24
315.722	4.32
316.091	4.33
316.46	4.43
316.829	4.36
317.198	4.44
317.567	4.4
317.935	4.29
318.304	4.67
318.672	4.65
319.041	4.66
319.41	4.71
319.778	4.81
320.147	4.8
320.515	4.93
320.883	4.86
321.252	5.21
321.62	5.35
321.988	5.34
322.357	5.28
322.725	5.42
323.093	5.23
323.461	5.17
323.829	5.27
324.197	5.25
324.565	5.39
324.933	5.27
325.301	5.28
325.669	5.25
326.037	5.03
326.405	5.11
326.772	5.29
327.14	5.27
327.508	5.09
327.875	5.18
328.243	5.14
328.61	5.2
328.978	5.01
329.346	4.9
329.713	4.92
330.08	4.98
330.448	5.01
330.815	5.08
331.182	5.16
331.55	5.17
331.917	5.17
332.284	5.02
332.651	5.12
333.018	5.18
333.385	5.29
333.752	5.41
334.119	5.41
334.486	5.2
334.853	5.2
335.22	5.32
335.587	5.27
335.954	5.34
336.32	5.41
336.687	5.57
337.054	5.76
337.42	5.83
337.787	5.89
338.153	5.96
338.52	6.09
338.886	5.94
339.253	5.94
339.619	5.91
339.986	5.96
340.352	5.96
340.718	6.02
341.084	6.03
341.451	6.14
341.817	6.1
342.183	6.17
342.549	6.34
342.915	6.26
343.281	6.27
343.647	6.29
344.013	6.35
344.379	6.25
344.745	6.22
345.11	6.17
345.476	6.13
345.842	6.01
346.208	6.06
346.573	6.13
346.939	6.12
347.304	6.25
347.67	6.19
348.035	6.14
348.401	6.07
348.766	5.95
349.132	5.92
349.497	6.04
349.862	6
350.228	5.93
350.593	5.98
350.958	6.04
351.323	5.95
351.688	5.87
352.053	5.8
352.418	5.75
352.783	5.83
353.148	5.84
353.513	5.9
353.878	5.86
354.243	5.86
354.608	5.94
354.972	5.79
355.337	5.87
355.702	5.95
356.066	5.97
356.431	6.03
356.795	6
357.16	5.95
357.524	6
357.889	5.88
358.253	5.83
358.618	5.77
358.982	5.83
359.346	5.85
359.71	5.89
360.075	5.98
360.439	5.9
360.803	5.95
361.167	5.9
361.531	5.85
361.895	5.83
362.259	5.83
362.623	5.91
362.987	5.9
363.351	5.83
363.714	5.8
364.078	5.83
364.442	5.76
364.806	5.73
365.169	5.73
365.533	5.79
365.896	5.9
366.26	5.89
366.623	5.89
366.987	5.85
367.35	5.79
367.714	5.71
368.077	5.68
368.44	5.64
368.803	5.62
369.167	5.61
369.53	5.6
369.893	5.53
370.256	5.43
370.619	5.33
370.982	5.28
371.345	5.25
371.708	5.19
372.071	5.17
372.434	5.09
372.797	5.07
373.159	4.98
373.522	4.83
373.885	4.9
374.247	4.91
374.61	4.88
374.973	4.89
375.335	4.85
375.698	4.83
376.06	4.78
376.423	4.8
376.785	4.82
377.147	4.71
377.51	4.68
377.872	4.69
378.234	4.77
378.596	4.8
378.958	4.82
379.321	4.81
379.683	4.81
380.045	4.82
380.407	4.79
380.769	4.82
381.13	4.78
381.492	4.63
381.854	4.5
382.216	4.54
382.578	4.51
382.939	4.5
383.301	4.44
383.663	4.35
384.024	4.25
384.386	4.22
384.747	4.28
385.109	4.22
385.47	4.21
385.832	4.15
386.193	4.1
386.554	4.07
386.916	4.06
387.277	3.97
387.638	3.96
387.999	3.93
388.36	3.9
388.721	4
389.082	4.04
389.443	4.06
389.804	4.02
390.165	4
390.526	3.93
390.887	3.98
391.248	4
391.609	4.03
391.969	3.95
392.33	3.92
392.691	3.92
393.051	3.9
393.412	3.87
393.772	3.85
394.133	3.78
394.493	3.75
394.854	3.79
395.214	3.8
395.574	3.75
395.935	3.77
396.295	3.69
396.655	3.64
397.015	3.59
397.376	3.56
397.736	3.52
398.096	3.55
398.456	3.5
398.816	3.48
399.176	3.4
399.535	3.38
399.895	3.31
400.255	3.31
400.615	3.31
400.975	3.3
401.334	3.22
401.694	3.27
402.054	3.22
402.413	3.22
402.773	3.15
403.132	3.14
403.492	3.08
403.851	3.06
404.211	3.07
404.57	3.08
404.929	3.05
405.288	3.05
405.648	3.02
406.007	3.02
406.366	3.02
406.725	3.01
407.084	3.01
407.443	3.06
407.802	3.02
408.161	3.01
408.52	3.02
408.879	3.08
409.238	3.05
409.596	3.06
409.955	3.02
410.314	3.05
410.673	3.04
411.031	3.05
411.39	3.05
411.748	3.03
412.107	3.01
412.465	3
412.824	3
413.182	3.01
413.54	3.02
413.899	3
414.257	3.05
414.615	3.04
414.974	3.03
415.332	3.02
415.69	3.01
416.048	2.99
416.406	2.95
416.764	2.94
417.122	2.93
417.48	2.95
417.838	2.91
418.195	2.9
418.553	2.91
418.911	2.9
419.269	2.88
419.626	2.86
419.984	2.87
420.342	2.86
420.699	2.85
421.057	2.84
421.414	2.84
421.772	2.82
422.129	2.8
422.486	2.79
422.844	2.79
423.201	2.77
423.558	2.76
423.915	2.76
424.273	2.76
424.63	2.76
424.987	2.75
425.344	2.76
425.701	2.76
426.058	2.75
426.415	2.73
426.772	2.75
427.128	2.75
427.485	2.74
427.842	2.74
428.199	2.74
428.555	2.74
428.912	2.73
429.269	2.72
429.625	2.72
429.982	2.73
430.338	2.73
430.695	2.74
431.051	2.73
431.407	2.74
431.764	2.72
432.12	2.74
432.476	2.73
432.832	2.74
433.189	2.73
433.545	2.72
433.901	2.75
434.257	2.73
434.613	2.73
434.969	2.73
435.325	2.75
435.681	2.74
436.036	2.74
436.392	2.74
436.748	2.76
437.104	2.77
437.459	2.76
437.815	2.77
438.171	2.77
438.526	2.78
438.882	2.76
439.237	2.77
439.593	2.76
439.948	2.76
440.304	2.75
440.659	2.76
441.014	2.78
441.369	2.78
441.725	2.77
442.08	2.78
442.435	2.78
442.79	2.76
443.145	2.76
443.5	2.75
443.855	2.73
444.21	2.72
444.565	2.73
444.92	2.71
445.275	2.7
445.629	2.69
445.984	2.69
446.339	2.71
446.693	2.7
447.048	2.68
447.403	2.69
447.757	2.68
448.112	2.67
448.466	2.65
448.82	2.63
449.175	2.64
449.529	2.64
449.883	2.63
450.238	2.63
450.592	2.61
450.946	2.62
451.3	2.65
451.654	2.65
452.008	2.61
452.362	2.63
452.716	2.66
453.07	2.66
453.424	2.64
453.778	2.63
454.132	2.63
454.486	2.64
454.839	2.64
455.193	2.65
455.547	2.66
455.9	2.68
456.254	2.69
456.607	2.66
456.961	2.65
457.314	2.66
457.668	2.68
458.021	2.69
458.375	2.67
458.728	2.65
459.081	2.64
459.434	2.68
459.787	2.68
460.141	2.67
460.494	2.67
460.847	2.68
461.2	2.68
461.553	2.69
461.906	2.69
462.259	2.67
462.611	2.7
462.964	2.71
463.317	2.71
463.67	2.71
464.022	2.72
464.375	2.73
464.728	2.73
465.08	2.74
465.433	2.74
465.785	2.74
466.138	2.78
466.49	2.81
466.843	2.81
467.195	2.8
467.547	2.81
467.899	2.82
468.252	2.82
468.604	2.81
468.956	2.79
469.308	2.8
469.66	2.83
470.012	2.82
470.364	2.82
470.716	2.81
471.068	2.85
471.42	2.87
471.772	2.89
472.123	2.9
472.475	2.89
472.827	2.89
473.178	2.88
473.53	2.86
473.882	2.85
474.233	2.84
474.585	2.85
474.936	2.84
475.288	2.86
475.639	2.88
475.99	2.86
476.342	2.88
476.693	2.88
477.044	2.86
477.395	2.85
477.746	2.85
478.097	2.85
478.448	2.8
478.8	2.8
479.15	2.78
479.501	2.78
479.852	2.78
480.203	2.77
480.554	2.78
480.905	2.79
481.255	2.8
481.606	2.8
481.957	2.81
482.307	2.82
482.658	2.81
483.009	2.79
483.359	2.81
483.709	2.81
484.06	2.82
484.41	2.83
484.761	2.84
485.111	2.85
485.461	2.85
485.811	2.85
486.162	2.84
486.512	2.83
486.862	2.83
487.212	2.83
487.562	2.83
487.912	2.85
488.262	2.83
488.612	2.83
488.961	2.83
489.311	2.83
489.661	2.84
490.011	2.83
490.36	2.83
490.71	2.82
491.06	2.82
491.409	2.81
491.759	2.81
492.108	2.79
492.458	2.78
492.807	2.77
493.157	2.81
493.506	2.84
493.855	2.85
494.204	2.86
494.554	2.89
494.903	2.91
495.252	2.9
495.601	2.94
495.95	2.95
496.299	2.96
496.648	2.98
496.997	2.99
497.346	3.03
497.695	3.06
498.043	3.09
498.392	3.11
498.741	3.15
499.09	3.18
499.438	3.23
499.787	3.25
500.135	3.28
500.484	3.28
500.832	3.3
501.181	3.35
501.529	3.38
501.878	3.42
502.226	3.43
502.574	3.48
502.923	3.51
503.271	3.55
503.619	3.6
503.967	3.63
504.315	3.68
504.663	3.71
505.011	3.76
505.359	3.79
505.707	3.84
506.055	3.89
506.403	3.94
506.751	3.99
507.098	4.06
507.446	4.14
507.794	4.21
508.141	4.3
508.489	4.37
508.837	4.41
509.184	4.47
509.531	4.53
509.879	4.58
510.226	4.65
510.574	4.73
510.921	4.78
511.268	4.85
511.616	4.91
511.963	5
512.31	5.08
512.657	5.14
513.004	5.23
513.351	5.3
513.698	5.39
514.045	5.47
514.392	5.57
514.739	5.67
515.086	5.75
515.432	5.82
515.779	5.88
516.126	5.99
516.473	6.07
516.819	6.16
517.166	6.27
517.512	6.34
517.859	6.43
518.205	6.5
518.552	6.59
518.898	6.66
519.245	6.76
519.591	6.85
519.937	6.94
520.283	7.03
520.629	7.11
520.976	7.17
521.322	7.27
521.668	7.34
522.014	7.43
522.36	7.51
522.706	7.63
523.052	7.75
523.398	7.89
523.743	8.02
524.089	8.16
524.435	8.3
524.781	8.44
525.126	8.54
525.472	8.68
525.817	8.78
526.163	8.87
526.509	8.95
526.854	9.03
527.199	9.12
527.545	9.2
527.89	9.29
528.235	9.39
528.581	9.48
528.926	9.58
529.271	9.68
529.616	9.8
529.961	9.91
530.306	9.99
530.651	10.08
530.996	10.2
531.341	10.32
531.686	10.43
532.031	10.55
532.376	10.69
532.721	10.79
533.065	10.94
533.41	11.1
533.755	11.25
534.099	11.39
534.444	11.56
534.788	11.72
535.133	11.89
535.477	12.06
535.822	12.24
536.166	12.43
536.51	12.61
536.855	12.82
537.199	13.04
537.543	13.3
537.887	13.55
538.231	13.78
538.576	14.02
538.92	14.24
539.264	14.47
539.608	14.68
539.951	14.89
540.295	15.09
540.639	15.27
540.983	15.47
541.327	15.7
541.671	15.86
542.014	16.06
542.358	16.24
542.701	16.44
543.045	16.63
543.389	16.85
543.732	17.05
544.075	17.28
544.419	17.47
544.762	17.68
545.105	17.91
545.449	18.15
545.792	18.38
546.135	18.64
546.478	18.91
546.821	19.2
547.165	19.53
547.508	19.84
547.851	20.17
548.194	20.49
548.536	20.78
548.879	21.15
549.222	21.49
549.565	21.83
549.908	22.14
550.25	22.47
550.593	22.78
550.936	23.16
551.278	23.45
551.621	23.78
551.963	24.13
552.306	24.47
552.648	24.73
552.991	25.08
553.333	25.41
553.675	25.75
554.017	26.06
554.36	26.37
554.702	26.65
555.044	26.97
555.386	27.24
555.728	27.55
556.07	27.81
556.412	28.09
556.754	28.36
557.096	28.68
557.438	29.01
557.78	29.31
558.121	29.63
558.463	29.98
558.805	30.32
559.147	30.63
559.488	30.92
559.83	31.29
560.171	31.56
560.513	31.91
560.854	32.16
561.196	32.47
561.537	32.78
561.878	33.08
562.22	33.38
562.561	33.74
562.902	34.06
563.243	34.38
563.584	34.66
563.925	34.95
564.266	35.14
564.607	35.42
564.948	35.58
565.289	35.78
565.63	35.97
565.971	36.21
566.312	36.47
566.653	36.69
566.993	36.91
567.334	37.16
567.675	37.32
568.015	37.55
568.356	37.75
568.696	37.9
569.037	38.11
569.377	38.25
569.718	38.45
570.058	38.62
570.398	38.77
570.739	38.94
571.079	39.12
571.419	39.33
571.759	39.5
572.099	39.76
572.439	39.95
572.779	40.16
573.119	40.34
573.459	40.46
573.799	40.57
574.139	40.7
574.479	40.8
574.819	40.97
575.158	41.15
575.498	41.29
575.838	41.5
576.177	41.63
576.517	41.84
576.856	41.99
577.196	42.13
577.535	42.28
577.875	42.41
578.214	42.6
578.553	42.81
578.893	43.01
579.232	43.14
579.571	43.26
579.91	43.4
580.25	43.56
580.589	43.67
580.928	43.8
581.267	44.04
581.606	44.23
581.945	44.34
582.283	44.46
582.622	44.51
582.961	44.59
583.3	44.7
583.639	44.85
583.977	44.89
584.316	45.02
584.654	45.22
584.993	45.37
585.332	45.49
585.67	45.6
586.008	45.67
586.347	45.8
586.685	45.8
587.024	45.9
587.362	46.04
587.7	46.28
588.038	46.43
588.376	46.49
588.715	46.58
589.053	46.78
589.391	46.9
589.729	47.07
590.067	47.23
590.404	47.37
590.742	47.44
591.08	47.61
591.418	47.74
591.756	47.77
592.093	47.82
592.431	47.87
592.769	47.97
593.106	48.06
593.444	48.2
593.781	48.37
594.119	48.4
594.456	48.45
594.793	48.45
595.131	48.54
595.468	48.61
595.805	48.68
596.143	48.64
596.48	48.71
596.817	48.78
597.154	48.78
597.491	48.83
597.828	48.93
598.165	48.96
598.502	49.01
598.839	49.07
599.176	49.21
599.512	49.27
599.849	49.35
600.186	49.41
600.523	49.46
600.859	49.54
601.196	49.67
601.532	49.71
601.869	49.86
602.205	49.88
602.542	49.9
602.878	50.07
603.215	50.17
603.551	50.23
603.887	50.24
604.223	50.38
604.56	50.38
604.896	50.44
605.232	50.47
605.568	50.55
605.904	50.63
606.24	50.68
606.576	50.74
606.912	50.75
607.248	50.83
607.583	50.9
607.919	51.03
608.255	51.07
608.591	51.14
608.926	51.12
609.262	51.24
609.597	51.33
609.933	51.3
610.268	51.31
610.604	51.36
610.939	51.45
611.275	51.42
611.61	51.54
611.945	51.44
612.281	51.55
612.616	51.55
612.951	51.62
613.286	51.69
613.621	51.8
613.956	51.87
614.291	51.88
614.626	51.91
614.961	51.96
615.296	52.01
615.631	51.96
615.966	51.99
616.3	51.99
616.635	52.01
616.97	51.99
617.304	52.06
617.639	52.09
617.973	52.11
618.308	52.14
618.642	52.1
618.977	52.22
619.311	52.24
619.646	52.29
619.98	52.26
620.314	52.2
620.648	52.18
620.983	52.1
621.317	52.06
621.651	52.02
621.985	52.03
622.319	52.03
622.653	52.13
622.987	52.21
623.321	52.21
623.655	52.23
623.988	52.29
624.322	52.37
624.656	52.41
624.99	52.41
625.323	52.39
625.657	52.35
625.99	52.36
626.324	52.42
626.657	52.31
626.991	52.42
627.324	52.43
627.658	52.44
627.991	52.47
628.324	52.6
628.657	52.63
628.991	52.61
629.324	52.7
629.657	52.7
629.99	52.62
630.323	52.69
630.656	52.7
630.989	52.73
631.322	52.77
631.655	52.7
631.987	52.67
632.32	52.77
632.653	52.83
632.986	52.89
633.318	52.87
633.651	53.02
633.984	52.98
634.316	53.07
634.649	52.97
634.981	53.06
635.313	52.99
635.646	52.95
635.978	52.92
636.31	52.81
636.643	52.79
636.975	52.9
637.307	52.97
637.639	53.08
637.971	53.03
638.303	52.96
638.635	52.95
638.967	53.11
639.299	53.05
639.631	53.1
639.963	53.09
640.295	53.11
640.626	53.13
640.958	53.18
641.29	53.13
641.621	53.27
641.953	53.31
642.285	53.42
642.616	53.52
642.948	53.68
643.279	53.83
643.61	53.93
643.942	53.88
644.273	53.77
644.604	53.75
644.936	53.86
645.267	53.95
645.598	54.02
645.929	54.02
646.26	54.1
646.591	54.18
646.922	54.23
647.253	54.17
647.584	54.15
647.915	54.11
648.245	54.14
648.576	54.07
648.907	54.02
649.238	53.94
649.568	53.96
649.899	53.89
650.229	53.91
650.56	53.89
650.89	53.89
651.221	54.01
651.551	53.96
651.882	53.85
652.212	53.86
652.542	53.89
652.872	53.83
653.203	53.85
653.533	53.86
653.863	53.98
654.193	54
654.523	54.1
654.853	54.14
655.183	54.23
655.513	54.37
655.843	54.57
656.172	54.68
656.502	54.62
656.832	54.56
657.162	54.39
657.491	54.48
657.821	54.56
658.15	54.57
658.48	54.67
658.809	54.71
659.139	54.67
659.468	54.66
659.798	54.7
660.127	54.65
660.456	54.71
660.785	54.55
661.115	54.62
661.444	54.51
661.773	54.63
662.102	54.6
662.431	54.55
662.76	54.37
663.089	54.3
663.418	54.27
663.747	54.33
664.076	54.43
664.404	54.31
664.733	54.2
665.062	54.13
665.39	54.27
665.719	54.29
666.048	54.22
666.376	54.21
666.705	54.16
667.033	54.18
667.362	54.18
667.69	54.23
668.018	54.16
668.347	54.15
668.675	54.04
669.003	54.1
669.331	54.2
669.659	54.32
669.987	54.23
670.315	54.36
670.643	54.34
670.971	54.34
671.299	54.5
671.627	54.51
671.955	54.53
672.283	54.42
672.61	54.46
672.938	54.63
673.266	54.69
673.593	54.74
673.921	54.78
674.249	54.65
674.576	54.76
674.904	54.87
675.231	54.96
675.558	54.98
675.886	54.95
676.213	54.9
676.54	54.9
676.867	54.88
677.195	54.88
677.522	54.99
677.849	55.02
678.176	54.98
678.503	55.01
678.83	55.05
679.157	55
679.484	55.02
679.81	55.03
680.137	55.14
680.464	55.25
680.791	55.35
681.117	55.35
681.444	55.26
681.771	55.27
682.097	55.29
682.424	55.31
682.75	55.3
683.077	55.44
683.403	55.49
683.729	55.63
684.056	55.83
684.382	55.83
684.708	55.89
685.034	55.89
685.36	56.12
685.686	56.14
686.012	56.11
686.339	56.23
686.664	56.11
686.99	56.07
687.316	56.07
687.642	56.14
687.968	56.34
688.294	56.38
688.619	56.34
688.945	56.36
689.271	56.27
689.596	56.32
689.922	56.31
690.247	56.26
690.573	56.38
690.898	56.19
691.224	56.15
691.549	56.1
691.874	56.11
692.2	56.02
692.525	56.17
692.85	56.32
693.175	56.21
693.5	56.28
693.825	56.26
694.15	56.17
694.475	56.05
694.8	55.93
695.125	55.93
695.45	55.99
695.775	55.99
696.099	56.22
696.424	56.23
696.749	56.01
697.073	56.02
697.398	55.92
697.723	55.95
698.047	55.93
698.372	55.99
698.696	56.08
699.02	56.06
699.345	55.99
699.669	55.88
699.993	55.99
700.318	56.15
700.642	56.13
700.966	56.09
701.29	56.09
701.614	56.18
701.938	56.26
702.262	56.19
702.586	56.25
702.91	56.02
703.234	56.1
703.557	56.29
703.881	56.26
704.205	56.28
704.529	56.08
704.852	55.95
705.176	55.92
705.499	55.66
705.823	55.71
706.146	55.84
706.47	55.92
706.793	55.75
707.117	55.69
707.44	55.6
707.763	55.86
708.086	56.03
708.409	56.03
708.733	56.04
709.056	55.85
709.379	55.86
709.702	56.12
710.025	56.05
710.348	56.07
710.671	56.26
710.993	56.41
711.316	56.55
711.639	56.95
711.962	56.98
712.284	57.17
712.607	57.04
712.93	56.89
713.252	56.89
713.575	56.87
713.897	56.89
714.22	56.9
714.542	56.91
714.864	56.82
715.187	56.64
715.509	56.72
715.831	56.85
716.153	56.91
716.475	56.74
716.798	56.87
717.12	56.8
717.442	56.65
717.764	56.45
718.085	56.69
718.407	56.44
718.729	56.6
719.051	56.7
719.373	56.78
719.695	56.85
720.016	56.7
720.338	56.9
720.659	56.81
720.981	56.97
721.302	57.03
721.624	56.93
721.945	57.23
722.267	57.08
722.588	57.23
722.909	57.15
723.231	57.12
723.552	57.02
723.873	57.03
724.194	56.96
724.515	57
724.836	56.77
725.157	56.78
725.478	56.56
725.799	56.72
726.12	56.83
726.441	56.9
726.762	57.3
727.083	57.19
727.403	57.31
727.724	57.51
728.045	57.48
728.365	57.62
728.686	57.37
729.006	57.49
729.327	57.67
729.647	57.63
729.967	57.47
730.288	57.51
730.608	57.55
730.928	57.73
731.249	57.8
731.569	58.02
731.889	58.25
732.209	58.33
732.529	58.05
732.849	57.82
733.169	57.6
733.489	57.37
733.809	57.4
734.129	57.11
734.448	57.04
734.768	57.02
735.088	57.08
735.408	57.41
735.727	57.28
736.047	57.06
736.366	56.9
736.686	57.21
737.005	57.05
737.325	57.09
737.644	57.04
737.963	57.06
738.283	56.76
738.602	56.36
738.921	56.45
739.24	56.52
739.56	56.51
739.879	56.55
740.198	56.58
740.517	56.51
740.836	56.81
741.155	56.75
741.473	56.54
741.792	56.27
742.111	55.94
742.43	55.92
742.748	55.7
743.067	55.73
743.386	55.8
743.704	55.92
744.023	55.81
744.341	55.84
744.66	56.08
744.978	56.31
745.297	56.51
745.615	56.86
745.933	57.07
746.252	57.31
746.57	57.5
746.888	57.44
747.206	57.69
747.524	57.8
747.842	57.75
748.16	57.9
748.478	57.93
748.796	57.75
749.114	57.64
749.432	57.78
749.749	57.87
750.067	57.54
750.385	57.45
750.703	57.56
751.02	57.49
751.338	57.14
751.655	57.18
751.973	57.24
752.29	56.84
752.608	56.53
752.925	56.32
753.242	55.98
753.56	56.16
753.877	56.05
754.194	55.88
754.511	55.69
754.828	55.93
755.145	56.3
755.462	56.47
755.779	56.62
756.096	56.68
756.413	56.79
756.73	56.68
757.047	56.86
757.364	57.16
757.68	57.52
757.997	57.15
758.314	56.9
758.63	57.01
758.947	56.66
759.264	56.99
759.58	57.54
759.896	58.14
760.213	58.17
760.529	57.96
760.846	57.94
761.162	58.39
761.478	57.97
761.794	57.98
762.11	58.31
762.426	58.42
762.743	58.47
763.059	58.58
763.375	58.79
763.69	58.87
764.006	58.91
764.322	58.63
764.638	59.02
764.954	59.37
765.27	59.39
765.585	59.47
765.901	59.33
766.216	58.89
766.532	58.59
766.848	58.6
767.163	58.73
767.478	58.73
767.794	58.74
768.109	58.87
768.424	58.61
768.74	58.52
769.055	58.46
769.37	58.94
769.685	58.94
770	58.9
770.315	58.73
770.63	58.74
770.945	59.29
771.26	59.34
771.575	58.8
771.89	58.68
772.205	58.84
772.52	58.85
772.834	58.89
773.149	59.23
773.464	58.89
773.778	58.32
774.093	58.04
774.407	57.66
774.722	57.86
775.036	57.7
775.351	57.57
775.665	57.66
775.979	56.86
776.293	56.6
776.608	56.65
776.922	56.66
777.236	56.08
777.55	55.78
777.864	56.07
778.178	56.31
778.492	56.26
778.806	56.87
779.12	57.31
779.434	57.74
779.747	57.7
780.061	58.63
780.375	59.45
780.689	59.75
781.002	59.48
781.316	59.09
781.629	59.47
781.943	59.84
782.256	59.97
782.57	60.59
782.883	61.05
783.196	60.74
783.51	60.92
783.823	60.89
784.136	60.89
784.449	60.53
784.762	60.9
785.075	60.82
785.388	60.17
785.701	59.58
786.014	59.53
786.327	59.82
786.64	59.35
786.953	59.07
787.266	59.88
787.578	60.16
787.891	60.57
788.204	60.32
788.516	60.23
788.829	60.11
789.141	60.04
789.454	59.89
789.766	60.4
790.079	60.06
790.391	60.27
790.703	60.2
791.016	60.18
791.328	59.9
791.64	60.11
791.952	60.46
792.264	60.46
792.576	60.34
792.888	60.45
793.2	60.11
793.512	60.64
793.824	60.14
794.136	59.99
794.448	59.91
794.76	59.89
795.071	59.27
795.383	59.31
795.695	59.63
796.006	60.03
796.318	60.29
796.629	60
796.941	60.14
797.252	59.91
797.564	59.91
797.875	60.03
798.186	60.2
798.497	60.09
798.809	60.39
799.12	60.66
799.431	60.71
799.742	61.16
800.053	61.12
800.364	61
800.675	61.22
800.986	61.56
801.297	61.52
801.608	61.68
801.918	62.35
802.229	62.19
802.54	61.85
802.851	61.64
803.161	62.05
803.472	61.39
803.782	61.38
804.093	60.72
804.403	60.4
804.714	60.25
805.024	60.06
805.334	59.78
805.645	59.89
805.955	58.87
806.265	58.09
806.575	57.34
806.885	57.02
807.195	56.63
807.505	55.35
807.815	55.64
808.125	56.28
808.435	56.28
808.745	55.51
809.055	54.73
809.365	54.84
809.674	54.87
809.984	56.1
810.294	55.84
810.603	56.21
810.913	56.64
811.222	56.3
811.532	56.48
811.841	56.41
812.151	55.72
812.46	55.94
812.769	56.03
813.079	56.7
813.388	57.15
813.697	57.49
814.006	58.47
814.315	57.67
814.624	58.24
814.933	57.83
815.242	58.29
815.551	58.36
815.86	57.79
816.169	57.13
816.478	56.4
816.786	56.37
817.095	57.22
817.404	56.86
817.712	56.54
818.021	56.35
818.33	56.31
818.638	56.63
818.947	56.65
819.255	57
819.563	57.51
819.872	57.29
820.18	57.26
820.488	57.31
820.796	57.92
821.105	57.72
821.413	57.73
821.721	57.9
822.029	58.4
822.337	58.83
822.645	59.1
822.953	59.3
823.26	59.6
823.568	59.57
823.876	59.46
824.184	59.72
824.491	59.74
824.799	59.93
825.107	60.08
825.414	60.05
825.722	60.04
826.029	59.73
826.337	59.82
826.644	60.23
826.951	60.46
827.259	60.47
827.566	60.45
827.873	60.62
828.18	60.54
828.488	60.39
828.795	60.17
829.102	60.22
829.409	59.86
829.716	59.58
830.023	59.71
830.329	60.33
830.636	59.67
830.943	59.9
831.25	59.99
831.557	59.55
831.863	59.76
832.17	59.8
832.476	60.55
832.783	60.89
833.089	60.57
833.396	60.46
833.702	60.4
834.009	60.91
834.315	60.26
834.621	60.33
834.928	60.28
835.234	60.45
835.54	60.57
835.846	61.11
836.152	61.27
836.458	61.25
836.764	61.19
837.07	61.95
837.376	61.61
837.682	60.73
837.988	61.13
838.293	61.78
838.599	62.56
838.905	62.6
839.211	63.02
839.516	63.37
839.822	63.92
840.127	64.32
840.433	64.15
840.738	64.23
841.044	65.38
841.349	66.19
841.654	64.73
841.959	65.13
842.265	64.8
842.57	64.88
842.875	65.39
843.18	63.6
843.485	63.07
843.79	62.69
844.095	64.8
844.4	65.12
844.705	64.45
845.01	63.1
845.315	63.64
845.619	63.74
845.924	62.18
846.229	60.73
846.533	59.51
846.838	59.8
847.142	60.87
847.447	59.37
847.751	57.89
848.056	59.68
848.36	58.91
848.664	56.72
848.969	54.81
849.273	51.02
849.577	52.93
849.881	53.69
850.185	55.63
850.489	56.58
850.794	55.9
851.097	57.14
851.401	59.17
851.705	57.72
852.009	55.7
852.313	56.43
852.617	57.26
852.92	60.28
853.224	61.51
853.528	62.36
853.831	60.08
854.135	60.87
854.438	58.01
854.742	56.13
855.045	58.45
855.349	59.46
855.652	62.69
855.955	60.79
856.259	60.52
856.562	59.78
856.865	56.53
857.168	54
857.471	54.26
857.774	54.87
858.077	52.12
858.38	54.39
858.683	53.09
858.986	51.8
859.289	51.07
859.592	50.5
859.894	51.51
860.197	54.05
860.5	53.64
860.802	56.93
861.105	58.71
861.407	60.08
861.71	62.16
862.012	59.97
862.315	62.88
862.617	63.12
862.919	61.43
863.222	63.24
863.524	68.19
863.826	66.53
864.128	63.75
864.43	67.9
864.732	63.67
865.034	63.59
865.336	66.4
865.638	65.9
865.94	64.24
866.242	64.12
866.544	65.59
866.846	68.78
867.147	66.09
867.449	67.13
867.751	63.97
868.052	63.79
868.354	65.66
868.655	63.47
868.957	67.83
869.258	70.69
869.56	67.53
869.861	65.42
870.162	62.67
870.463	63.71
870.765	61.06
871.066	63.96
871.367	65.98
871.668	64.92
871.969	65.34
872.27	68.78
872.571	68.07
872.872	66.29
873.173	65.95
873.473	68.62
873.774	69.95
874.075	73.71
874.376	76.14
874.676	73
874.977	73.99
875.277	69.1
875.578	65.94
875.878	69.38
876.179	70.68
876.479	74.31
876.78	75.66
877.08	77.53
877.38	78.16
877.68	78.81
877.981	80.03
878.281	78.38
878.581	73.4
