Data from MVZ_BU8942_Reflection_00005.txt Node
Date: Tue Nov 19 12:03:56 EST 2019
User: vgr7
Spectrometer: USB2G7710
Scans to average: 3
Trigger mode: 4
Integration Time (sec): 2.000000E-2
Electric dark correction enabled: true
Boxcar width: 10
XAxis mode: Wavelengths
Number of Pixels in Spectrum: 2048
>>>>>Begin Spectral Data<<<<<
177.721	114.91
178.105	35.06
178.488	296.63
178.871	-1200
179.254	660
179.636	-155.47
180.019	-68.32
180.402	127.27
180.785	24
181.168	129.07
181.55	-1007.14
181.933	-35.59
182.316	-87.85
182.698	-107.75
183.081	-133.81
183.463	-156.2
183.846	-52.4
184.228	-52.47
184.611	-16.18
184.993	47.37
185.376	18.69
185.758	59.79
186.14	-25.53
186.522	53.39
186.904	56.25
187.287	60.83
187.669	15.79
188.051	-74.09
188.433	-82.31
188.815	-144.4
189.197	-111.49
189.579	-132.31
189.961	-210.81
190.342	-90.74
190.724	-84.43
191.106	-56.7
191.488	-29.12
191.869	-24.56
192.251	-33.14
192.633	-8.83
193.014	-12.49
193.396	1.01
193.777	-0.56
194.159	9.41
194.54	11.43
194.922	18.7
195.303	4.64
195.684	15.02
196.065	37.5
196.447	42.91
196.828	62.52
197.209	79.46
197.59	84.18
197.971	102.29
198.352	81.51
198.733	103.72
199.114	86.94
199.495	136.68
199.876	162.73
200.257	160.86
200.638	153.8
201.018	159.16
201.399	89.85
201.78	80.09
202.16	58.16
202.541	-0.7
202.922	-44.4
203.302	-13.3
203.683	-18.75
204.063	-35.06
204.444	-32.75
204.824	8.11
205.204	41.24
205.585	17.33
205.965	-42.12
206.345	-2.49
206.725	26.13
207.106	22.67
207.486	32.34
207.866	27.55
208.246	39.56
208.626	8.88
209.006	14.91
209.386	-12.8
209.766	-51.22
210.145	-1.58
210.525	40.54
210.905	54.55
211.285	88.64
211.664	87.93
212.044	71.12
212.424	84.18
212.803	45.65
213.183	26.58
213.562	46.45
213.942	53.66
214.321	41.81
214.701	41.79
215.08	68.66
215.459	75.94
215.838	52.14
216.218	23.42
216.597	40.03
216.976	63.39
217.355	73.64
217.734	91.56
218.113	119.89
218.492	127.73
218.871	114.84
219.25	84.71
219.629	60.3
220.008	72.53
220.387	24.71
220.766	28.03
221.144	15.69
221.523	0.98
221.902	-10.82
222.28	-5.43
222.659	7.31
223.037	6.77
223.416	-1.84
223.794	-0.9
224.173	3.53
224.551	4.31
224.929	-6.84
225.308	-10.27
225.686	-12.2
226.064	-14.94
226.442	-9.42
226.821	-8.89
227.199	-3.42
227.577	0.59
227.955	2.31
228.333	3.09
228.711	3.75
229.089	8.97
229.467	12.02
229.845	13.24
230.222	15.45
230.6	13.22
230.978	13.51
231.356	15.88
231.733	16.42
232.111	17.28
232.488	16.27
232.866	16.07
233.243	19.42
233.621	19.63
233.998	18.59
234.376	17.74
234.753	19.03
235.13	19.73
235.508	16.81
235.885	13.72
236.262	12.44
236.639	11.46
237.016	8.35
237.393	7.71
237.77	7.99
238.147	8.21
238.524	8.44
238.901	7.4
239.278	5.75
239.655	4.44
240.032	3.96
240.409	4.01
240.785	4.7
241.162	3.92
241.539	3.4
241.915	3.57
242.292	3.08
242.668	3.05
243.045	3.34
243.421	4.1
243.798	4.13
244.174	4.77
244.551	5.11
244.927	5.2
245.303	4.9
245.679	4.75
246.056	4.6
246.432	4.5
246.808	4.52
247.184	4.77
247.56	5.1
247.936	5.01
248.312	5.25
248.688	5.11
249.064	5.15
249.44	5.03
249.815	4.99
250.191	5.26
250.567	5.17
250.943	4.96
251.318	4.8
251.694	4.9
252.069	4.56
252.445	4.51
252.82	4.75
253.196	5.06
253.571	5.04
253.947	4.99
254.322	4.99
254.697	4.91
255.073	4.62
255.448	4.34
255.823	4.75
256.198	4.07
256.573	3.86
256.948	3.93
257.323	4.26
257.698	4.23
258.073	3.82
258.448	3.85
258.823	3.75
259.198	3.75
259.573	3.54
259.948	3.72
260.322	3.68
260.697	3.63
261.072	3.5
261.446	3.75
261.821	3.59
262.195	3.49
262.57	3.58
262.944	3.53
263.319	3.68
263.693	3.53
264.067	3.76
264.442	3.94
264.816	4.08
265.19	4.15
265.564	4.05
265.938	4.26
266.313	4.17
266.687	4.09
267.061	4.23
267.435	4.5
267.809	4.33
268.183	4.36
268.556	4.16
268.93	4.19
269.304	3.87
269.678	3.93
270.051	4.06
270.425	4.18
270.799	4.21
271.172	4.05
271.546	4.05
271.919	4.16
272.293	4.22
272.666	4.02
273.04	3.96
273.413	3.95
273.787	3.94
274.16	3.86
274.533	4.05
274.906	3.95
275.279	3.98
275.653	4.02
276.026	3.91
276.399	3.98
276.772	4.19
277.145	4.22
277.518	4.21
277.891	4.18
278.263	4.16
278.636	4.25
279.009	4.27
279.382	4.04
279.755	3.94
280.127	3.88
280.5	4.09
280.872	4.16
281.245	4.28
281.617	4.17
281.99	4.39
282.362	4.32
282.735	4.15
283.107	4.01
283.479	3.98
283.852	4
284.224	4.06
284.596	3.76
284.968	3.77
285.34	3.83
285.713	3.74
286.085	3.6
286.457	3.42
286.829	3.33
287.201	3.38
287.572	3.39
287.944	3.36
288.316	3.36
288.688	3.23
289.06	3.11
289.431	3.26
289.803	3.18
290.175	3.13
290.546	3.13
290.918	3.23
291.289	3.13
291.661	3.14
292.032	3.18
292.403	3.14
292.775	3.23
293.146	3.17
293.517	3.36
293.889	3.54
294.26	3.79
294.631	3.96
295.002	4.14
295.373	4.06
295.744	4.09
296.115	3.95
296.486	3.89
296.857	4
297.228	3.95
297.599	3.93
297.97	4.01
298.34	4.07
298.711	4.05
299.082	4.27
299.452	4.35
299.823	4.28
300.194	4.42
300.564	4.28
300.935	4.45
301.305	4.36
301.676	4.16
302.046	3.98
302.416	3.94
302.787	3.91
303.157	3.94
303.527	4.07
303.897	4.02
304.267	4.01
304.637	3.98
305.008	3.95
305.378	4.03
305.748	4.02
306.117	4.05
306.487	4.09
306.857	4.03
307.227	4.09
307.597	4.09
307.967	4.12
308.336	4.2
308.706	4.02
309.076	4.12
309.445	4.25
309.815	4.25
310.184	4.17
310.554	4.04
310.923	4.08
311.293	3.97
311.662	4.11
312.031	4.22
312.401	4.19
312.77	4.27
313.139	4.18
313.508	4.14
313.877	4.16
314.246	4.02
314.616	4
314.985	3.88
315.353	3.83
315.722	4.03
316.091	4.11
316.46	4.22
316.829	4.03
317.198	4.06
317.567	4.34
317.935	4.46
318.304	4.65
318.672	4.63
319.041	4.71
319.41	4.61
319.778	4.57
320.147	4.63
320.515	4.45
320.883	4.51
321.252	4.57
321.62	4.61
321.988	4.64
322.357	4.55
322.725	4.59
323.093	4.65
323.461	4.39
323.829	4.39
324.197	4.4
324.565	4.38
324.933	4.26
325.301	4.01
325.669	3.9
326.037	3.81
326.405	3.67
326.772	3.57
327.14	3.63
327.508	3.58
327.875	3.52
328.243	3.58
328.61	3.64
328.978	3.62
329.346	3.52
329.713	3.73
330.08	3.85
330.448	3.74
330.815	3.73
331.182	3.69
331.55	3.65
331.917	3.52
332.284	3.68
332.651	3.63
333.018	3.73
333.385	3.83
333.752	3.84
334.119	3.97
334.486	4.03
334.853	4.04
335.22	4.02
335.587	3.95
335.954	4
336.32	3.99
336.687	4.01
337.054	4.1
337.42	4
337.787	3.81
338.153	3.86
338.52	3.97
338.886	4.08
339.253	4.07
339.619	4.17
339.986	4.14
340.352	4.29
340.718	4.27
341.084	4.3
341.451	4.31
341.817	4.44
342.183	4.43
342.549	4.58
342.915	4.71
343.281	4.78
343.647	4.7
344.013	4.68
344.379	4.61
344.745	4.6
345.11	4.56
345.476	4.64
345.842	4.66
346.208	4.67
346.573	4.63
346.939	4.59
347.304	4.59
347.67	4.54
348.035	4.39
348.401	4.5
348.766	4.44
349.132	4.44
349.497	4.37
349.862	4.46
350.228	4.28
350.593	4.25
350.958	4.23
351.323	4.21
351.688	4.17
352.053	4.19
352.418	4.2
352.783	4.22
353.148	4.31
353.513	4.31
353.878	4.21
354.243	4.16
354.608	4.3
354.972	4.3
355.337	4.2
355.702	4.19
356.066	4.2
356.431	4.25
356.795	4.31
357.16	4.25
357.524	4.13
357.889	4.16
358.253	4.1
358.618	4.11
358.982	4.15
359.346	4.17
359.71	4.2
360.075	4.21
360.439	4.25
360.803	4.18
361.167	4.16
361.531	4.21
361.895	4.24
362.259	4.17
362.623	4.19
362.987	4.31
363.351	4.39
363.714	4.28
364.078	4.25
364.442	4.22
364.806	4.23
365.169	4.25
365.533	4.29
365.896	4.4
366.26	4.4
366.623	4.4
366.987	4.41
367.35	4.44
367.714	4.4
368.077	4.37
368.44	4.41
368.803	4.42
369.167	4.3
369.53	4.39
369.893	4.38
370.256	4.32
370.619	4.25
370.982	4.19
371.345	4.28
371.708	4.32
372.071	4.3
372.434	4.27
372.797	4.28
373.159	4.23
373.522	4.11
373.885	4.14
374.247	4.17
374.61	4.17
374.973	4.15
375.335	4.22
375.698	4.23
376.06	4.21
376.423	4.24
376.785	4.26
377.147	4.16
377.51	4.18
377.872	4.21
378.234	4.26
378.596	4.29
378.958	4.27
379.321	4.24
379.683	4.28
380.045	4.35
380.407	4.36
380.769	4.34
381.13	4.39
381.492	4.36
381.854	4.34
382.216	4.43
382.578	4.47
382.939	4.4
383.301	4.43
383.663	4.46
384.024	4.43
384.386	4.45
384.747	4.42
385.109	4.41
385.47	4.43
385.832	4.41
386.193	4.38
386.554	4.37
386.916	4.34
387.277	4.33
387.638	4.31
387.999	4.31
388.36	4.37
388.721	4.36
389.082	4.39
389.443	4.4
389.804	4.33
390.165	4.31
390.526	4.35
390.887	4.33
391.248	4.34
391.609	4.35
391.969	4.35
392.33	4.4
392.691	4.42
393.051	4.37
393.412	4.42
393.772	4.46
394.133	4.47
394.493	4.49
394.854	4.5
395.214	4.5
395.574	4.49
395.935	4.45
396.295	4.44
396.655	4.42
397.015	4.42
397.376	4.43
397.736	4.42
398.096	4.4
398.456	4.39
398.816	4.38
399.176	4.36
399.535	4.37
399.895	4.4
400.255	4.39
400.615	4.39
400.975	4.33
401.334	4.34
401.694	4.34
402.054	4.33
402.413	4.33
402.773	4.31
403.132	4.31
403.492	4.35
403.851	4.35
404.211	4.38
404.57	4.36
404.929	4.31
405.288	4.32
405.648	4.31
406.007	4.34
406.366	4.31
406.725	4.32
407.084	4.32
407.443	4.31
407.802	4.31
408.161	4.35
408.52	4.38
408.879	4.38
409.238	4.39
409.596	4.37
409.955	4.37
410.314	4.38
410.673	4.41
411.031	4.38
411.39	4.39
411.748	4.36
412.107	4.36
412.465	4.38
412.824	4.37
413.182	4.37
413.54	4.35
413.899	4.36
414.257	4.36
414.615	4.36
414.974	4.32
415.332	4.33
415.69	4.35
416.048	4.34
416.406	4.3
416.764	4.31
417.122	4.33
417.48	4.32
417.838	4.32
418.195	4.31
418.553	4.32
418.911	4.31
419.269	4.32
419.626	4.34
419.984	4.33
420.342	4.33
420.699	4.34
421.057	4.34
421.414	4.36
421.772	4.36
422.129	4.35
422.486	4.37
422.844	4.36
423.201	4.35
423.558	4.34
423.915	4.36
424.273	4.37
424.63	4.36
424.987	4.35
425.344	4.37
425.701	4.35
426.058	4.35
426.415	4.36
426.772	4.35
427.128	4.35
427.485	4.36
427.842	4.37
428.199	4.35
428.555	4.35
428.912	4.34
429.269	4.36
429.625	4.37
429.982	4.37
430.338	4.38
430.695	4.37
431.051	4.36
431.407	4.35
431.764	4.34
432.12	4.35
432.476	4.36
432.832	4.36
433.189	4.37
433.545	4.37
433.901	4.38
434.257	4.38
434.613	4.39
434.969	4.36
435.325	4.39
435.681	4.41
436.036	4.41
436.392	4.4
436.748	4.39
437.104	4.4
437.459	4.38
437.815	4.38
438.171	4.38
438.526	4.39
438.882	4.39
439.237	4.39
439.593	4.41
439.948	4.41
440.304	4.39
440.659	4.39
441.014	4.39
441.369	4.38
441.725	4.38
442.08	4.36
442.435	4.37
442.79	4.33
443.145	4.33
443.5	4.33
443.855	4.32
444.21	4.32
444.565	4.32
444.92	4.33
445.275	4.33
445.629	4.32
445.984	4.33
446.339	4.35
446.693	4.33
447.048	4.3
447.403	4.32
447.757	4.32
448.112	4.32
448.466	4.31
448.82	4.33
449.175	4.33
449.529	4.34
449.883	4.35
450.238	4.37
450.592	4.37
450.946	4.37
451.3	4.4
451.654	4.39
452.008	4.41
452.362	4.4
452.716	4.4
453.07	4.43
453.424	4.44
453.778	4.43
454.132	4.45
454.486	4.46
454.839	4.46
455.193	4.47
455.547	4.47
455.9	4.49
456.254	4.48
456.607	4.5
456.961	4.49
457.314	4.48
457.668	4.5
458.021	4.51
458.375	4.48
458.728	4.47
459.081	4.47
459.434	4.48
459.787	4.48
460.141	4.48
460.494	4.47
460.847	4.45
461.2	4.46
461.553	4.47
461.906	4.48
462.259	4.45
462.611	4.46
462.964	4.44
463.317	4.46
463.67	4.49
464.022	4.51
464.375	4.49
464.728	4.5
465.08	4.48
465.433	4.48
465.785	4.51
466.138	4.51
466.49	4.54
466.843	4.54
467.195	4.53
467.547	4.53
467.899	4.51
468.252	4.52
468.604	4.52
468.956	4.5
469.308	4.5
469.66	4.55
470.012	4.53
470.364	4.55
470.716	4.52
471.068	4.5
471.42	4.5
471.772	4.52
472.123	4.53
472.475	4.54
472.827	4.54
473.178	4.54
473.53	4.54
473.882	4.53
474.233	4.51
474.585	4.51
474.936	4.52
475.288	4.54
475.639	4.53
475.99	4.5
476.342	4.52
476.693	4.55
477.044	4.53
477.395	4.53
477.746	4.54
478.097	4.55
478.448	4.53
478.8	4.52
479.15	4.53
479.501	4.53
479.852	4.53
480.203	4.54
480.554	4.56
480.905	4.55
481.255	4.57
481.606	4.58
481.957	4.59
482.307	4.59
482.658	4.61
483.009	4.61
483.359	4.61
483.709	4.61
484.06	4.6
484.41	4.61
484.761	4.62
485.111	4.62
485.461	4.61
485.811	4.61
486.162	4.6
486.512	4.61
486.862	4.62
487.212	4.62
487.562	4.61
487.912	4.61
488.262	4.63
488.612	4.62
488.961	4.62
489.311	4.62
489.661	4.61
490.011	4.59
490.36	4.6
490.71	4.6
491.06	4.6
491.409	4.61
491.759	4.6
492.108	4.58
492.458	4.58
492.807	4.6
493.157	4.62
493.506	4.62
493.855	4.61
494.204	4.6
494.554	4.59
494.903	4.6
495.252	4.6
495.601	4.58
495.95	4.59
496.299	4.57
496.648	4.57
496.997	4.59
497.346	4.62
497.695	4.61
498.043	4.64
498.392	4.65
498.741	4.67
499.09	4.68
499.438	4.69
499.787	4.7
500.135	4.69
500.484	4.69
500.832	4.69
501.181	4.7
501.529	4.75
501.878	4.75
502.226	4.79
502.574	4.77
502.923	4.78
503.271	4.77
503.619	4.81
503.967	4.8
504.315	4.8
504.663	4.79
505.011	4.8
505.359	4.78
505.707	4.75
506.055	4.75
506.403	4.75
506.751	4.75
507.098	4.76
507.446	4.79
507.794	4.8
508.141	4.82
508.489	4.83
508.837	4.8
509.184	4.83
509.531	4.83
509.879	4.85
510.226	4.83
510.574	4.84
510.921	4.82
511.268	4.84
511.616	4.86
511.963	4.87
512.31	4.9
512.657	4.92
513.004	4.94
513.351	4.95
513.698	4.96
514.045	4.97
514.392	4.96
514.739	4.95
515.086	4.96
515.432	4.98
515.779	4.95
516.126	4.98
516.473	4.96
516.819	4.95
517.166	4.95
517.512	4.97
517.859	4.97
518.205	4.99
518.552	4.99
518.898	4.98
519.245	4.97
519.591	4.97
519.937	4.98
520.283	4.98
520.629	4.97
520.976	4.97
521.322	4.99
521.668	4.97
522.014	4.97
522.36	4.97
522.706	4.95
523.052	4.98
523.398	4.97
523.743	5
524.089	5.02
524.435	5.01
524.781	5.02
525.126	5.02
525.472	5.05
525.817	5.05
526.163	5.05
526.509	5.07
526.854	5.05
527.199	5.04
527.545	5.04
527.89	5.05
528.235	5.05
528.581	5.03
528.926	5.05
529.271	5.05
529.616	5.06
529.961	5.07
530.306	5.05
530.651	5.04
530.996	5.03
531.341	5.03
531.686	5.04
532.031	5.04
532.376	5.03
532.721	5.02
533.065	5.02
533.41	5.02
533.755	5.01
534.099	5.01
534.444	5.02
534.788	5.02
535.133	5.02
535.477	5.02
535.822	5.04
536.166	5.03
536.51	5.05
536.855	5.05
537.199	5.05
537.543	5.08
537.887	5.09
538.231	5.09
538.576	5.1
538.92	5.11
539.264	5.11
539.608	5.13
539.951	5.14
540.295	5.14
540.639	5.14
540.983	5.15
541.327	5.16
541.671	5.17
542.014	5.17
542.358	5.17
542.701	5.17
543.045	5.16
543.389	5.18
543.732	5.16
544.075	5.17
544.419	5.15
544.762	5.14
545.105	5.12
545.449	5.13
545.792	5.13
546.135	5.12
546.478	5.11
546.821	5.13
547.165	5.1
547.508	5.1
547.851	5.13
548.194	5.13
548.536	5.14
548.879	5.11
549.222	5.12
549.565	5.13
549.908	5.13
550.25	5.14
550.593	5.12
550.936	5.11
551.278	5.08
551.621	5.12
551.963	5.17
552.306	5.18
552.648	5.17
552.991	5.16
553.333	5.15
553.675	5.2
554.017	5.17
554.36	5.18
554.702	5.16
555.044	5.13
555.386	5.15
555.728	5.17
556.07	5.16
556.412	5.16
556.754	5.13
557.096	5.13
557.438	5.11
557.78	5.14
558.121	5.16
558.463	5.19
558.805	5.18
559.147	5.16
559.488	5.16
559.83	5.15
560.171	5.14
560.513	5.11
560.854	5.09
561.196	5.13
561.537	5.18
561.878	5.22
562.22	5.23
562.561	5.21
562.902	5.19
563.243	5.23
563.584	5.19
563.925	5.22
564.266	5.21
564.607	5.22
564.948	5.19
565.289	5.2
565.63	5.18
565.971	5.18
566.312	5.18
566.653	5.2
566.993	5.24
567.334	5.25
567.675	5.3
568.015	5.28
568.356	5.23
568.696	5.22
569.037	5.21
569.377	5.2
569.718	5.22
570.058	5.21
570.398	5.18
570.739	5.17
571.079	5.19
571.419	5.18
571.759	5.19
572.099	5.18
572.439	5.16
572.779	5.19
573.119	5.21
573.459	5.22
573.799	5.21
574.139	5.18
574.479	5.19
574.819	5.17
575.158	5.17
575.498	5.21
575.838	5.19
576.177	5.2
576.517	5.21
576.856	5.2
577.196	5.18
577.535	5.18
577.875	5.21
578.214	5.2
578.553	5.21
578.893	5.2
579.232	5.24
579.571	5.27
579.91	5.27
580.25	5.24
580.589	5.21
580.928	5.2
581.267	5.17
581.606	5.15
581.945	5.11
582.283	5.12
582.622	5.07
582.961	5.08
583.3	5.06
583.639	5.01
583.977	5.01
584.316	5.03
584.654	5.07
584.993	5.04
585.332	5.05
585.67	5.09
586.008	5.15
586.347	5.11
586.685	5.06
587.024	5.03
587.362	5.07
587.7	5.09
588.038	5.13
588.376	5.21
588.715	5.25
589.053	5.29
589.391	5.3
589.729	5.32
590.067	5.29
590.404	5.34
590.742	5.38
591.08	5.4
591.418	5.42
591.756	5.37
592.093	5.45
592.431	5.43
592.769	5.39
593.106	5.33
593.444	5.39
593.781	5.46
594.119	5.52
594.456	5.45
594.793	5.46
595.131	5.44
595.468	5.43
595.805	5.41
596.143	5.43
596.48	5.42
596.817	5.43
597.154	5.43
597.491	5.41
597.828	5.38
598.165	5.39
598.502	5.36
598.839	5.43
599.176	5.4
599.512	5.41
599.849	5.42
600.186	5.42
600.523	5.4
600.859	5.4
601.196	5.36
601.532	5.37
601.869	5.38
602.205	5.37
602.542	5.39
602.878	5.4
603.215	5.42
603.551	5.4
603.887	5.41
604.223	5.42
604.56	5.4
604.896	5.46
605.232	5.42
605.568	5.45
605.904	5.43
606.24	5.45
606.576	5.46
606.912	5.48
607.248	5.52
607.583	5.53
607.919	5.5
608.255	5.51
608.591	5.55
608.926	5.52
609.262	5.52
609.597	5.52
609.933	5.5
610.268	5.5
610.604	5.59
610.939	5.62
611.275	5.63
611.61	5.63
611.945	5.58
612.281	5.64
612.616	5.65
612.951	5.66
613.286	5.66
613.621	5.67
613.956	5.66
614.291	5.64
614.626	5.62
614.961	5.64
615.296	5.65
615.631	5.66
615.966	5.71
616.3	5.78
616.635	5.78
616.97	5.77
617.304	5.76
617.639	5.71
617.973	5.66
618.308	5.7
618.642	5.71
618.977	5.74
619.311	5.73
619.646	5.78
619.98	5.76
620.314	5.77
620.648	5.76
620.983	5.75
621.317	5.77
621.651	5.79
621.985	5.74
622.319	5.67
622.653	5.67
622.987	5.63
623.321	5.62
623.655	5.61
623.988	5.63
624.322	5.64
624.656	5.65
624.99	5.64
625.323	5.62
625.657	5.67
625.99	5.67
626.324	5.66
626.657	5.61
626.991	5.63
627.324	5.59
627.658	5.58
627.991	5.64
628.324	5.63
628.657	5.62
628.991	5.67
629.324	5.7
629.657	5.7
629.99	5.73
630.323	5.73
630.656	5.68
630.989	5.69
631.322	5.67
631.655	5.61
631.987	5.69
632.32	5.7
632.653	5.68
632.986	5.64
633.318	5.69
633.651	5.71
633.984	5.68
634.316	5.73
634.649	5.72
634.981	5.64
635.313	5.67
635.646	5.64
635.978	5.67
636.31	5.69
636.643	5.67
636.975	5.68
637.307	5.63
637.639	5.69
637.971	5.71
638.303	5.65
638.635	5.67
638.967	5.62
639.299	5.61
639.631	5.57
639.963	5.61
640.295	5.55
640.626	5.5
640.958	5.55
641.29	5.53
641.621	5.62
641.953	5.63
642.285	5.61
642.616	5.68
642.948	5.62
643.279	5.63
643.61	5.66
643.942	5.66
644.273	5.74
644.604	5.76
644.936	5.8
645.267	5.87
645.598	5.94
645.929	5.87
646.26	5.88
646.591	5.93
646.922	5.94
647.253	5.99
647.584	6.05
647.915	5.92
648.245	5.98
648.576	5.92
648.907	5.96
649.238	5.95
649.568	5.94
649.899	5.9
650.229	5.94
650.56	5.95
650.89	5.97
651.221	5.97
651.551	5.9
651.882	5.83
652.212	5.85
652.542	5.86
652.872	5.97
653.203	6.01
653.533	6
653.863	5.99
654.193	5.95
654.523	5.89
654.853	6.03
655.183	6
655.513	6.06
655.843	6.06
656.172	6.15
656.502	6.07
656.832	6.09
657.162	6.06
657.491	6.09
657.821	6.06
658.15	6.05
658.48	6.11
658.809	6.16
659.139	6.21
659.468	6.2
659.798	6.22
660.127	6.15
660.456	6.08
660.785	6.1
661.115	6.18
661.444	6.26
661.773	6.31
662.102	6.3
662.431	6.28
662.76	6.25
663.089	6.16
663.418	6.31
663.747	6.39
664.076	6.39
664.404	6.41
664.733	6.43
665.062	6.43
665.39	6.41
665.719	6.38
666.048	6.35
666.376	6.33
666.705	6.3
667.033	6.41
667.362	6.48
667.69	6.53
668.018	6.46
668.347	6.44
668.675	6.35
669.003	6.39
669.331	6.37
669.659	6.34
669.987	6.37
670.315	6.38
670.643	6.36
670.971	6.39
671.299	6.36
671.627	6.38
671.955	6.33
672.283	6.41
672.61	6.37
672.938	6.35
673.266	6.43
673.593	6.37
673.921	6.28
674.249	6.31
674.576	6.26
674.904	6.26
675.231	6.22
675.558	6.33
675.886	6.29
676.213	6.25
676.54	6.26
676.867	6.22
677.195	6.23
677.522	6.2
677.849	6.26
678.176	6.28
678.503	6.23
678.83	6.28
679.157	6.23
679.484	6.33
679.81	6.3
680.137	6.31
680.464	6.36
680.791	6.38
681.117	6.35
681.444	6.34
681.771	6.36
682.097	6.44
682.424	6.35
682.75	6.43
683.077	6.41
683.403	6.49
683.729	6.52
684.056	6.47
684.382	6.59
684.708	6.54
685.034	6.53
685.36	6.58
685.686	6.66
686.012	6.71
686.339	6.63
686.664	6.65
686.99	6.56
687.316	6.6
687.642	6.6
687.968	6.58
688.294	6.58
688.619	6.43
688.945	6.46
689.271	6.5
689.596	6.43
689.922	6.42
690.247	6.49
690.573	6.42
690.898	6.38
691.224	6.24
691.549	6.34
691.874	6.33
692.2	6.27
692.525	6.12
692.85	6.07
693.175	6.18
693.5	6.16
693.825	6.22
694.15	6.14
694.475	6.24
694.8	6.39
695.125	6.42
695.45	6.45
695.775	6.36
696.099	6.38
696.424	6.45
696.749	6.58
697.073	6.49
697.398	6.47
697.723	6.54
698.047	6.64
698.372	6.58
698.696	6.57
699.02	6.57
699.345	6.69
699.669	6.67
699.993	6.61
700.318	6.78
700.642	6.8
700.966	6.87
701.29	6.84
701.614	6.79
701.938	6.81
702.262	6.88
702.586	6.92
702.91	6.94
703.234	6.88
703.557	6.86
703.881	6.95
704.205	7.02
704.529	6.97
704.852	6.95
705.176	7.01
705.499	7
705.823	6.99
706.146	7.11
706.47	7.23
706.793	7.19
707.117	7.1
707.44	7.09
707.763	6.98
708.086	7.09
708.409	7.03
708.733	7.02
709.056	7.09
709.379	7.19
709.702	7.26
710.025	7.31
710.348	7.19
710.671	7.25
710.993	7.35
711.316	7.41
711.639	7.35
711.962	7.36
712.284	7.39
712.607	7.33
712.93	7.27
713.252	7.26
713.575	7.26
713.897	7.23
714.22	7.2
714.542	7.28
714.864	7.19
715.187	7.25
715.509	7.35
715.831	7.35
716.153	7.33
716.475	7.34
716.798	7.3
717.12	7.32
717.442	7.22
717.764	7.26
718.085	7.21
718.407	7.34
718.729	7.28
719.051	7.17
719.373	7.47
719.695	7.47
720.016	7.37
720.338	7.4
720.659	7.39
720.981	7.42
721.302	7.35
721.624	7.29
721.945	7.37
722.267	7.48
722.588	7.31
722.909	7.32
723.231	7.14
723.552	7.18
723.873	7.37
724.194	7.43
724.515	7.41
724.836	7.41
725.157	7.31
725.478	7.3
725.799	7.45
726.12	7.48
726.441	7.47
726.762	7.61
727.083	7.8
727.403	7.83
727.724	7.9
728.045	7.98
728.365	8.14
728.686	8.07
729.006	7.93
729.327	8.17
729.647	8.07
729.967	8.1
730.288	8.18
730.608	8.28
730.928	8.3
731.249	8.18
731.569	8.13
731.889	8.09
732.209	8.04
732.529	8.15
732.849	7.94
733.169	8.01
733.489	7.82
733.809	7.7
734.129	7.59
734.448	7.61
734.768	7.46
735.088	7.28
735.408	7.09
735.727	7
736.047	6.83
736.366	6.71
736.686	6.69
737.005	6.72
737.325	6.35
737.644	6.11
737.963	6.07
738.283	6.27
738.602	6.32
738.921	6.44
739.24	6.42
739.56	6.55
739.879	6.33
740.198	6.72
740.517	6.62
740.836	6.76
741.155	6.71
741.473	6.68
741.792	6.84
742.111	7.23
742.43	7.32
742.748	7.39
743.067	7.57
743.386	7.53
743.704	7.44
744.023	7.52
744.341	7.66
744.66	7.73
744.978	7.75
745.297	7.65
745.615	7.62
745.933	7.76
746.252	7.83
746.57	7.87
746.888	7.57
747.206	7.83
747.524	7.79
747.842	7.49
748.16	7.91
748.478	7.88
748.796	7.9
749.114	7.69
749.432	7.77
749.749	7.69
750.067	7.67
750.385	7.74
750.703	7.85
751.02	8
751.338	8.09
751.655	8.2
751.973	8.17
752.29	8.2
752.608	7.94
752.925	7.78
753.242	7.79
753.56	7.7
753.877	7.42
754.194	7.3
754.511	7.59
754.828	7.48
755.145	7.3
755.462	7.04
755.779	7.28
756.096	7.32
756.413	7.43
756.73	7.62
757.047	7.38
757.364	7.52
757.68	7.57
757.997	7.55
758.314	7.36
758.63	7.44
758.947	7.55
759.264	7.85
759.58	8.02
759.896	8.01
760.213	7.97
760.529	8.22
760.846	8.77
761.162	8.66
761.478	8.51
761.794	8.64
762.11	8.4
762.426	8.1
762.743	8.22
763.059	8.25
763.375	8.25
763.69	8.37
764.006	8.35
764.322	8.34
764.638	8.42
764.954	8.59
765.27	8.92
765.585	8.74
765.901	8.48
766.216	8.46
766.532	8.42
766.848	8.52
767.163	8.38
767.478	7.73
767.794	7.83
768.109	7.93
768.424	7.97
768.74	8.2
769.055	8.83
769.37	8.58
769.685	8.45
770	8.54
770.315	8.46
770.63	8.37
770.945	8.36
771.26	8.24
771.575	7.94
771.89	7.34
772.205	7.49
772.52	7.54
772.834	7.29
773.149	7.06
773.464	7
773.778	7.02
774.093	7.1
774.407	6.8
774.722	6.7
775.036	6.82
775.351	7.03
775.665	6.31
775.979	6.24
776.293	6.61
776.608	6.59
776.922	6.85
777.236	7.1
777.55	6.78
777.864	7.04
778.178	7.07
778.492	7.33
778.806	7.2
779.12	7.39
779.434	7.61
779.747	8.2
780.061	8.24
780.375	8.58
780.689	9.3
781.002	9.73
781.316	10.02
781.629	9.53
781.943	9.29
782.256	9.43
782.57	9.66
782.883	9.64
783.196	9.54
783.51	9.41
783.823	9.29
784.136	9.62
784.449	8.86
784.762	8.93
785.075	8.21
785.388	8.77
785.701	8.44
786.014	8.52
786.327	8.21
786.64	8.12
786.953	7.7
787.266	7.54
787.578	7.7
787.891	7.6
788.204	8.42
788.516	8.46
788.829	8.66
789.141	8.96
789.454	8.83
789.766	8.91
790.079	8.53
790.391	8.74
790.703	8.52
791.016	9.25
791.328	9.21
791.64	9.95
791.952	9.85
792.264	9.85
792.576	9.69
792.888	10.22
793.2	10.4
793.512	10.85
793.824	10.93
794.136	10.6
794.448	10.61
794.76	9.96
795.071	9.68
795.383	10.03
795.695	9.27
796.006	10.05
796.318	9.82
796.629	10.05
796.941	9.57
797.252	9.73
797.564	10
797.875	10.02
798.186	10.05
798.497	9.76
798.809	10.55
799.12	10.48
799.431	10.28
799.742	10.9
800.053	10.76
800.364	10.6
800.675	10.45
800.986	10.41
801.297	10.52
801.608	10.98
801.918	10.54
802.229	11.17
802.54	10.25
802.851	10.67
803.161	10.94
803.472	11.19
803.782	11.54
804.093	10.82
804.403	10.92
804.714	11.43
805.024	11.98
805.334	11.81
805.645	12.24
805.955	12.07
806.265	11.32
806.575	11.49
806.885	11.5
807.195	11.84
807.505	11.79
807.815	11.99
808.125	12
808.435	11.8
808.745	11.19
809.055	11.94
809.365	11.94
809.674	12.03
809.984	12.65
810.294	12.44
810.603	11.85
810.913	11.93
811.222	10.76
811.532	10.33
811.841	9.96
812.151	9.86
812.46	9.84
812.769	9.8
813.079	10.37
813.388	10.41
813.697	10.04
814.006	10.97
814.315	10.71
814.624	10.82
814.933	11.94
815.242	12.17
815.551	11.64
815.86	11.76
816.169	11.35
816.478	10.97
816.786	10.81
817.095	12.09
817.404	11.77
817.712	12.41
818.021	12.4
818.33	12.08
818.638	12.16
818.947	12.34
819.255	12.07
819.563	11.57
819.872	11.43
820.18	11.8
820.488	11.49
820.796	11.22
821.105	11.43
821.413	11.16
821.721	11.21
822.029	11.03
822.337	10.85
822.645	10.85
822.953	10.83
823.26	10.74
823.568	10.6
823.876	10.6
824.184	10.53
824.491	10.33
824.799	10.46
825.107	10.45
825.414	10.22
825.722	10.22
826.029	10.22
826.337	10.18
826.644	10.17
826.951	9.99
827.259	10.26
827.566	9.88
827.873	10
828.18	10.03
828.488	10
828.795	10.07
829.102	9.98
829.409	9.68
829.716	9.92
830.023	10.05
830.329	10.04
830.636	10.38
830.943	10.63
831.25	10.91
831.557	10.61
831.863	11.01
832.17	11.17
832.476	10.8
832.783	11.06
833.089	11.08
833.396	11.55
833.702	11.33
834.009	11.75
834.315	11.63
834.621	11.57
834.928	11.69
835.234	11.67
835.54	12.04
835.846	12.36
836.152	12.21
836.458	11.9
836.764	12.11
837.07	11.12
837.376	11.54
837.682	10.6
837.988	10.96
838.293	10.94
838.599	10.96
838.905	11.5
839.211	10.9
839.516	10.41
839.822	10.47
840.127	10.67
840.433	11.13
840.738	10.64
841.044	10.78
841.349	10.67
841.654	10.29
841.959	10.06
842.265	10.73
842.57	11.95
842.875	11.93
843.18	11.56
843.485	12.99
843.79	12.65
844.095	12.66
844.4	13.13
844.705	13.66
845.01	14.45
845.315	15.08
845.619	16.11
845.924	16.11
846.229	15.7
846.533	16.34
846.838	15.79
847.142	16.8
847.447	15.54
847.751	16.6
848.056	16.65
848.36	15.4
848.664	14.41
848.969	12.87
849.273	14.27
849.577	14.12
849.881	13.62
850.185	13.26
850.489	12.57
850.794	12.07
851.097	12.24
851.401	10.28
851.705	8.19
852.009	6.59
852.313	6.15
852.617	6.72
852.92	6.69
853.224	5.79
853.528	5.94
853.831	8.69
854.135	8.59
854.438	10.06
854.742	12.12
855.045	12.11
855.349	10.65
855.652	10.57
855.955	10.12
856.259	13.18
856.562	12.02
856.865	14.18
857.168	14.22
857.471	13.96
857.774	15.45
858.077	16.04
858.38	17.19
858.683	18.15
858.986	15.57
859.289	14.13
859.592	15.5
859.894	15.73
860.197	12.95
860.5	12.54
860.802	11.13
861.105	9.82
861.407	11.75
861.71	12.26
862.012	14.11
862.315	15.21
862.617	14.42
862.919	17.46
863.222	18.07
863.524	16.54
863.826	14.17
864.128	15.55
864.43	15.37
864.732	14.63
865.034	14.46
865.336	16.07
865.638	18.01
865.94	20.1
866.242	20.14
866.544	22.97
866.846	22.97
867.147	23.81
867.449	24.02
867.751	22.44
868.052	24.29
868.354	24.01
868.655	24.5
868.957	24.09
869.258	21.21
869.56	19.79
869.861	19.16
870.162	20.78
870.463	17.75
870.765	18.64
871.066	20.28
871.367	18.54
871.668	19.51
871.969	17.18
872.27	14.72
872.571	13.4
872.872	13.3
873.173	13.39
873.473	13.4
873.774	15.05
874.075	16.88
874.376	15.88
874.676	15.03
874.977	15.43
875.277	14.92
875.578	15.89
875.878	16.83
876.179	18.59
876.479	18.81
876.78	20.81
877.08	20.97
877.38	20.98
877.68	24.13
877.981	23.48
878.281	24.91
878.581	24.64
