Data from MVZ_BU8943_Reflection_00006.txt Node
Date: Tue Nov 19 12:09:05 EST 2019
User: vgr7
Spectrometer: USB2G7710
Scans to average: 3
Trigger mode: 4
Integration Time (sec): 2.000000E-2
Electric dark correction enabled: true
Boxcar width: 10
XAxis mode: Wavelengths
Number of Pixels in Spectrum: 2048
>>>>>Begin Spectral Data<<<<<
177.721	23.01
178.105	-48.94
178.488	100.9
178.871	56.16
179.254	-47.06
179.636	-240.24
180.019	-18.52
180.402	300
180.785	-49.35
181.168	-0.25
181.55	-50.11
181.933	-51.72
182.316	16.87
182.698	14600
183.081	-363.86
183.463	254.14
183.846	374.83
184.228	815.19
184.611	-353.31
184.993	-78.15
185.376	-105.47
185.758	-81.45
186.14	-117.88
186.522	-104.02
186.904	-67.36
187.287	-44.96
187.669	-22.36
188.051	-48.63
188.433	-47.93
188.815	-40.83
189.197	-55.69
189.579	-57.95
189.961	-66.52
190.342	-50.49
190.724	-72.24
191.106	-72
191.488	-86.07
191.869	-51.64
192.251	-55.7
192.633	-35.17
193.014	-28.15
193.396	-34.99
193.777	-18.93
194.159	-21.3
194.54	-27.1
194.922	-57.25
195.303	-71.94
195.684	-426.55
196.065	-312.41
196.447	47600
196.828	589.01
197.209	-2164.71
197.59	81.99
197.971	74.11
198.352	117.45
198.733	218.09
199.114	479.7
199.495	-382.66
199.876	-615.57
200.257	-186.12
200.638	-208.35
201.018	-281.46
201.399	-203
201.78	-193.32
202.16	-248.1
202.541	-512.97
202.922	-1131.09
203.302	-1166.42
203.683	-951.35
204.063	-347.57
204.444	-291.57
204.824	-226.21
205.204	-259.96
205.585	-168.51
205.965	-219.76
206.345	-259
206.725	-190.7
207.106	-129.3
207.486	-121.02
207.866	-145.07
208.246	-103.34
208.626	-145.24
209.006	-267.75
209.386	-257.86
209.766	-307.69
210.145	-231.14
210.525	-408.96
210.905	-554.51
211.285	-444.33
211.664	-155.34
212.044	-1112.87
212.424	-661.74
212.803	564.66
213.183	1379.31
213.562	1337.93
213.942	2558.9
214.321	-917.24
214.701	5390.7
215.08	7729.03
215.459	-2538.61
215.838	2080.31
216.218	452.43
216.597	591.13
216.976	709.92
217.355	4370.49
217.734	-4416.95
218.113	1588.17
218.492	-22490.91
218.871	-1308.11
219.25	-1115.74
219.629	-1912.61
220.008	-318.92
220.387	-254.78
220.766	-111.88
221.144	-82.24
221.523	-121.16
221.902	-75.43
222.28	-74.58
222.659	-46.96
223.037	-41.61
223.416	-26.3
223.794	-11.35
224.173	-19.99
224.551	-18.15
224.929	-26.6
225.308	-18.99
225.686	-19.97
226.064	-21.98
226.442	-18.69
226.821	-17.52
227.199	-24.94
227.577	-16.96
227.955	-13.52
228.333	-18.32
228.711	-18.24
229.089	-17.96
229.467	-17.83
229.845	-17.68
230.222	-14.54
230.6	-17.42
230.978	-16.65
231.356	-15.26
231.733	-15.54
232.111	-12.29
232.488	-12.01
232.866	-7.26
233.243	-10.73
233.621	-8.94
233.998	-5.86
234.376	-4.86
234.753	-6.26
235.13	-4.82
235.508	-8.12
235.885	-8.3
236.262	-7.39
236.639	-8.4
237.016	-6.44
237.393	-3.53
237.77	-2.8
238.147	-1.39
238.524	0.65
238.901	0.29
239.278	-0.56
239.655	0.15
240.032	0.3
240.409	0.25
240.785	0.38
241.162	0.92
241.539	0.57
241.915	1.02
242.292	1.29
242.668	1.83
243.045	2.48
243.421	3.29
243.798	3.62
244.174	3.66
244.551	4.33
244.927	4.01
245.303	4.06
245.679	4.14
246.056	4.12
246.432	4.25
246.808	4.58
247.184	4.94
247.56	4.76
247.936	4.88
248.312	4.95
248.688	4.84
249.064	4.89
249.44	5.11
249.815	4.9
250.191	4.91
250.567	4.98
250.943	4.96
251.318	4.69
251.694	4.41
252.069	4.73
252.445	4.21
252.82	4.46
253.196	4.26
253.571	4.21
253.947	4.21
254.322	3.66
254.697	3.51
255.073	3.02
255.448	3.22
255.823	3.18
256.198	3.3
256.573	3.51
256.948	3.58
257.323	3.43
257.698	3.28
258.073	3.28
258.448	3.5
258.823	3.36
259.198	3.59
259.573	3.81
259.948	3.63
260.322	3.6
260.697	3.6
261.072	3.78
261.446	3.91
261.821	3.78
262.195	3.94
262.57	4.06
262.944	4.14
263.319	4.14
263.693	4.02
264.067	4.01
264.442	3.88
264.816	3.69
265.19	3.67
265.564	3.92
265.938	3.91
266.313	3.53
266.687	3.44
267.061	3.42
267.435	3.29
267.809	3.39
268.183	3.57
268.556	3.38
268.93	3.44
269.304	3.38
269.678	3.37
270.051	3.4
270.425	3.19
270.799	3.3
271.172	3.31
271.546	3.48
271.919	3.5
272.293	3.62
272.666	3.76
273.04	3.97
273.413	3.96
273.787	3.86
274.16	3.83
274.533	3.95
274.906	4.02
275.279	4.06
275.653	4.16
276.026	4.17
276.399	4.37
276.772	4.21
277.145	4.23
277.518	4.3
277.891	4.39
278.263	4.49
278.636	4.66
279.009	4.7
279.382	4.76
279.755	4.7
280.127	4.76
280.5	4.8
280.872	4.76
281.245	4.72
281.617	4.8
281.99	4.91
282.362	4.86
282.735	4.53
283.107	4.39
283.479	4.29
283.852	4.28
284.224	4.29
284.596	4.23
284.968	4
285.34	3.97
285.713	3.98
286.085	3.89
286.457	3.75
286.829	3.68
287.201	3.53
287.572	3.71
287.944	3.62
288.316	3.69
288.688	3.65
289.06	3.8
289.431	3.77
289.803	3.71
290.175	3.73
290.546	3.92
290.918	3.94
291.289	3.87
291.661	3.85
292.032	3.55
292.403	3.71
292.775	4.03
293.146	4.13
293.517	3.94
293.889	3.93
294.26	3.91
294.631	3.97
295.002	4.09
295.373	3.88
295.744	3.92
296.115	3.78
296.486	3.83
296.857	3.75
297.228	3.79
297.599	3.92
297.97	4.02
298.34	4.02
298.711	4.06
299.082	4.17
299.452	4.21
299.823	4.29
300.194	4.31
300.564	4.33
300.935	4.35
301.305	4.41
301.676	4.33
302.046	4.32
302.416	4.2
302.787	4.14
303.157	4.22
303.527	4.15
303.897	4.09
304.267	3.96
304.637	3.85
305.008	3.86
305.378	3.96
305.748	3.91
306.117	3.95
306.487	4.13
306.857	4.1
307.227	4.22
307.597	4.33
307.967	4.16
308.336	4.02
308.706	3.87
309.076	3.99
309.445	4.17
309.815	4.38
310.184	4.51
310.554	4.61
310.923	4.52
311.293	4.64
311.662	4.71
312.031	4.74
312.401	4.74
312.77	4.61
313.139	4.58
313.508	4.46
313.877	4.5
314.246	4.36
314.616	4.4
314.985	4.24
315.353	4.34
315.722	4.53
316.091	4.6
316.46	4.64
316.829	4.55
317.198	4.49
317.567	4.37
317.935	4.23
318.304	4.23
318.672	4.34
319.041	4.2
319.41	4.36
319.778	4.5
320.147	4.55
320.515	4.75
320.883	4.52
321.252	4.79
321.62	4.7
321.988	4.76
322.357	4.63
322.725	4.79
323.093	4.67
323.461	4.58
323.829	4.61
324.197	4.69
324.565	4.88
324.933	4.86
325.301	4.64
325.669	4.68
326.037	4.7
326.405	4.74
326.772	4.83
327.14	4.69
327.508	4.61
327.875	4.64
328.243	4.6
328.61	4.88
328.978	4.8
329.346	4.78
329.713	4.93
330.08	5.02
330.448	5.07
330.815	5.06
331.182	4.93
331.55	4.76
331.917	4.78
332.284	4.66
332.651	4.74
333.018	4.88
333.385	4.96
333.752	4.89
334.119	4.96
334.486	4.92
334.853	4.98
335.22	5
335.587	4.94
335.954	4.99
336.32	4.93
336.687	5.05
337.054	5.06
337.42	4.91
337.787	5.05
338.153	5
338.52	5.2
338.886	5.31
339.253	5.28
339.619	5.27
339.986	5.3
340.352	5.26
340.718	5.48
341.084	5.53
341.451	5.46
341.817	5.43
342.183	5.47
342.549	5.56
342.915	5.68
343.281	5.87
343.647	5.9
344.013	5.84
344.379	5.73
344.745	5.73
345.11	5.66
345.476	5.54
345.842	5.56
346.208	5.48
346.573	5.48
346.939	5.54
347.304	5.59
347.67	5.54
348.035	5.59
348.401	5.53
348.766	5.54
349.132	5.7
349.497	5.64
349.862	5.57
350.228	5.5
350.593	5.44
350.958	5.38
351.323	5.29
351.688	5.37
352.053	5.41
352.418	5.5
352.783	5.57
353.148	5.63
353.513	5.61
353.878	5.58
354.243	5.48
354.608	5.58
354.972	5.59
355.337	5.65
355.702	5.72
356.066	5.67
356.431	5.65
356.795	5.62
357.16	5.63
357.524	5.74
357.889	5.73
358.253	5.68
358.618	5.73
358.982	5.72
359.346	5.74
359.71	5.75
360.075	5.79
360.439	5.86
360.803	5.91
361.167	5.89
361.531	5.84
361.895	5.96
362.259	5.93
362.623	5.9
362.987	5.91
363.351	5.82
363.714	5.86
364.078	5.8
364.442	5.73
364.806	5.79
365.169	5.79
365.533	5.85
365.896	5.85
366.26	5.72
366.623	5.77
366.987	5.75
367.35	5.75
367.714	5.67
368.077	5.63
368.44	5.64
368.803	5.69
369.167	5.67
369.53	5.62
369.893	5.6
370.256	5.6
370.619	5.63
370.982	5.64
371.345	5.67
371.708	5.69
372.071	5.71
372.434	5.61
372.797	5.66
373.159	5.61
373.522	5.68
373.885	5.73
374.247	5.69
374.61	5.69
374.973	5.67
375.335	5.68
375.698	5.64
376.06	5.48
376.423	5.42
376.785	5.51
377.147	5.57
377.51	5.56
377.872	5.54
378.234	5.52
378.596	5.54
378.958	5.43
379.321	5.41
379.683	5.44
380.045	5.44
380.407	5.43
380.769	5.44
381.13	5.37
381.492	5.34
381.854	5.36
382.216	5.37
382.578	5.37
382.939	5.31
383.301	5.35
383.663	5.43
384.024	5.45
384.386	5.5
384.747	5.46
385.109	5.44
385.47	5.48
385.832	5.42
386.193	5.4
386.554	5.42
386.916	5.46
387.277	5.41
387.638	5.48
387.999	5.46
388.36	5.42
388.721	5.47
389.082	5.51
389.443	5.5
389.804	5.45
390.165	5.44
390.526	5.46
390.887	5.42
391.248	5.42
391.609	5.42
391.969	5.36
392.33	5.35
392.691	5.35
393.051	5.32
393.412	5.33
393.772	5.34
394.133	5.32
394.493	5.32
394.854	5.34
395.214	5.31
395.574	5.24
395.935	5.24
396.295	5.19
396.655	5.2
397.015	5.17
397.376	5.19
397.736	5.13
398.096	5.16
398.456	5.13
398.816	5.12
399.176	5.1
399.535	5.08
399.895	5.08
400.255	5.1
400.615	5.11
400.975	5.1
401.334	5.11
401.694	5.13
402.054	5.12
402.413	5.1
402.773	5.08
403.132	5.08
403.492	5.09
403.851	5.09
404.211	5.09
404.57	5.09
404.929	5.11
405.288	5.15
405.648	5.11
406.007	5.12
406.366	5.11
406.725	5.1
407.084	5.12
407.443	5.11
407.802	5.12
408.161	5.09
408.52	5.08
408.879	5.06
409.238	5.05
409.596	5.04
409.955	5.07
410.314	5.08
410.673	5.1
411.031	5.07
411.39	5.07
411.748	5.08
412.107	5.06
412.465	5.03
412.824	5.02
413.182	5.03
413.54	5.05
413.899	5.04
414.257	5.03
414.615	4.98
414.974	4.99
415.332	4.98
415.69	4.98
416.048	4.99
416.406	5
416.764	5
417.122	5
417.48	5
417.838	4.98
418.195	4.98
418.553	4.96
418.911	4.96
419.269	4.95
419.626	4.94
419.984	4.95
420.342	4.95
420.699	4.95
421.057	4.95
421.414	4.95
421.772	4.94
422.129	4.95
422.486	4.94
422.844	4.94
423.201	4.93
423.558	4.94
423.915	4.93
424.273	4.92
424.63	4.92
424.987	4.9
425.344	4.91
425.701	4.92
426.058	4.95
426.415	4.94
426.772	4.94
427.128	4.95
427.485	4.95
427.842	4.92
428.199	4.93
428.555	4.92
428.912	4.91
429.269	4.91
429.625	4.91
429.982	4.92
430.338	4.92
430.695	4.91
431.051	4.89
431.407	4.87
431.764	4.86
432.12	4.87
432.476	4.88
432.832	4.87
433.189	4.87
433.545	4.85
433.901	4.88
434.257	4.87
434.613	4.84
434.969	4.83
435.325	4.86
435.681	4.84
436.036	4.86
436.392	4.84
436.748	4.85
437.104	4.86
437.459	4.87
437.815	4.89
438.171	4.92
438.526	4.92
438.882	4.94
439.237	4.94
439.593	4.94
439.948	4.93
440.304	4.92
440.659	4.92
441.014	4.93
441.369	4.91
441.725	4.92
442.08	4.94
442.435	4.96
442.79	4.97
443.145	4.95
443.5	4.94
443.855	4.95
444.21	4.96
444.565	4.95
444.92	4.94
445.275	4.92
445.629	4.91
445.984	4.91
446.339	4.9
446.693	4.92
447.048	4.89
447.403	4.89
447.757	4.89
448.112	4.88
448.466	4.85
448.82	4.83
449.175	4.82
449.529	4.82
449.883	4.81
450.238	4.81
450.592	4.83
450.946	4.83
451.3	4.84
451.654	4.83
452.008	4.81
452.362	4.82
452.716	4.82
453.07	4.81
453.424	4.81
453.778	4.81
454.132	4.78
454.486	4.8
454.839	4.82
455.193	4.81
455.547	4.84
455.9	4.86
456.254	4.89
456.607	4.88
456.961	4.88
457.314	4.87
457.668	4.86
458.021	4.85
458.375	4.84
458.728	4.82
459.081	4.83
459.434	4.82
459.787	4.83
460.141	4.84
460.494	4.83
460.847	4.84
461.2	4.84
461.553	4.87
461.906	4.87
462.259	4.86
462.611	4.9
462.964	4.89
463.317	4.89
463.67	4.89
464.022	4.93
464.375	4.93
464.728	4.95
465.08	4.98
465.433	4.99
465.785	5.03
466.138	5.05
466.49	5.06
466.843	5.1
467.195	5.11
467.547	5.14
467.899	5.15
468.252	5.17
468.604	5.2
468.956	5.17
469.308	5.16
469.66	5.18
470.012	5.18
470.364	5.2
470.716	5.21
471.068	5.21
471.42	5.22
471.772	5.22
472.123	5.2
472.475	5.16
472.827	5.16
473.178	5.14
473.53	5.13
473.882	5.14
474.233	5.13
474.585	5.14
474.936	5.16
475.288	5.13
475.639	5.13
475.99	5.12
476.342	5.15
476.693	5.17
477.044	5.16
477.395	5.15
477.746	5.12
478.097	5.13
478.448	5.11
478.8	5.1
479.15	5.12
479.501	5.11
479.852	5.13
480.203	5.14
480.554	5.15
480.905	5.18
481.255	5.17
481.606	5.18
481.957	5.19
482.307	5.17
482.658	5.19
483.009	5.19
483.359	5.19
483.709	5.2
484.06	5.21
484.41	5.21
484.761	5.23
485.111	5.23
485.461	5.24
485.811	5.25
486.162	5.26
486.512	5.27
486.862	5.28
487.212	5.28
487.562	5.28
487.912	5.28
488.262	5.27
488.612	5.27
488.961	5.27
489.311	5.26
489.661	5.27
490.011	5.28
490.36	5.27
490.71	5.28
491.06	5.27
491.409	5.26
491.759	5.27
492.108	5.26
492.458	5.26
492.807	5.25
493.157	5.26
493.506	5.25
493.855	5.26
494.204	5.25
494.554	5.26
494.903	5.28
495.252	5.29
495.601	5.32
495.95	5.34
496.299	5.36
496.648	5.39
496.997	5.39
497.346	5.41
497.695	5.41
498.043	5.43
498.392	5.46
498.741	5.5
499.09	5.5
499.438	5.51
499.787	5.55
500.135	5.55
500.484	5.57
500.832	5.59
501.181	5.61
501.529	5.66
501.878	5.71
502.226	5.77
502.574	5.8
502.923	5.81
503.271	5.83
503.619	5.88
503.967	5.87
504.315	5.91
504.663	5.93
505.011	6.01
505.359	6.04
505.707	6.08
506.055	6.1
506.403	6.15
506.751	6.19
507.098	6.24
507.446	6.31
507.794	6.37
508.141	6.4
508.489	6.46
508.837	6.5
509.184	6.53
509.531	6.55
509.879	6.57
510.226	6.61
510.574	6.66
510.921	6.69
511.268	6.77
511.616	6.81
511.963	6.87
512.31	6.89
512.657	6.95
513.004	6.98
513.351	7.04
513.698	7.1
514.045	7.16
514.392	7.18
514.739	7.22
515.086	7.28
515.432	7.32
515.779	7.35
516.126	7.42
516.473	7.47
516.819	7.53
517.166	7.6
517.512	7.65
517.859	7.67
518.205	7.69
518.552	7.71
518.898	7.76
519.245	7.8
519.591	7.85
519.937	7.88
520.283	7.91
520.629	7.93
520.976	7.94
521.322	7.98
521.668	8.01
522.014	8.06
522.36	8.1
522.706	8.14
523.052	8.2
523.398	8.22
523.743	8.28
524.089	8.33
524.435	8.38
524.781	8.42
525.126	8.48
525.472	8.54
525.817	8.57
526.163	8.6
526.509	8.62
526.854	8.65
527.199	8.69
527.545	8.73
527.89	8.74
528.235	8.77
528.581	8.81
528.926	8.83
529.271	8.85
529.616	8.87
529.961	8.88
530.306	8.9
530.651	8.91
530.996	8.91
531.341	8.92
531.686	8.91
532.031	8.95
532.376	8.96
532.721	8.98
533.065	9
533.41	9.04
533.755	9.07
534.099	9.09
534.444	9.1
534.788	9.12
535.133	9.14
535.477	9.18
535.822	9.19
536.166	9.22
536.51	9.25
536.855	9.29
537.199	9.35
537.543	9.37
537.887	9.42
538.231	9.48
538.576	9.53
538.92	9.59
539.264	9.58
539.608	9.6
539.951	9.62
540.295	9.64
540.639	9.66
540.983	9.67
541.327	9.69
541.671	9.71
542.014	9.74
542.358	9.77
542.701	9.8
543.045	9.83
543.389	9.86
543.732	9.86
544.075	9.87
544.419	9.87
544.762	9.91
545.105	9.92
545.449	9.93
545.792	9.95
546.135	9.96
546.478	10
546.821	10.03
547.165	10.05
547.508	10.07
547.851	10.08
548.194	10.07
548.536	10.08
548.879	10.09
549.222	10.13
549.565	10.14
549.908	10.13
550.25	10.11
550.593	10.11
550.936	10.17
551.278	10.19
551.621	10.2
551.963	10.24
552.306	10.24
552.648	10.23
552.991	10.26
553.333	10.27
553.675	10.3
554.017	10.3
554.36	10.33
554.702	10.34
555.044	10.36
555.386	10.41
555.728	10.45
556.07	10.47
556.412	10.45
556.754	10.47
557.096	10.5
557.438	10.55
557.78	10.58
558.121	10.61
558.463	10.62
558.805	10.67
559.147	10.64
559.488	10.67
559.83	10.67
560.171	10.61
560.513	10.63
560.854	10.67
561.196	10.69
561.537	10.69
561.878	10.71
562.22	10.74
562.561	10.75
562.902	10.75
563.243	10.76
563.584	10.79
563.925	10.82
564.266	10.83
564.607	10.83
564.948	10.81
565.289	10.8
565.63	10.78
565.971	10.75
566.312	10.79
566.653	10.8
566.993	10.82
567.334	10.88
567.675	10.88
568.015	10.9
568.356	10.93
568.696	11
569.037	11.02
569.377	11.02
569.718	11.03
570.058	11.06
570.398	11.08
570.739	11.09
571.079	11.07
571.419	11.04
571.759	11.07
572.099	11.08
572.439	11.09
572.779	11.13
573.119	11.15
573.459	11.16
573.799	11.18
574.139	11.2
574.479	11.22
574.819	11.29
575.158	11.27
575.498	11.24
575.838	11.21
576.177	11.19
576.517	11.21
576.856	11.21
577.196	11.18
577.535	11.14
577.875	11.14
578.214	11.19
578.553	11.22
578.893	11.23
579.232	11.26
579.571	11.3
579.91	11.31
580.25	11.34
580.589	11.31
580.928	11.3
581.267	11.31
581.606	11.23
581.945	11.17
582.283	11.18
582.622	11.23
582.961	11.25
583.3	11.26
583.639	11.24
583.977	11.24
584.316	11.29
584.654	11.41
584.993	11.43
585.332	11.41
585.67	11.41
586.008	11.33
586.347	11.35
586.685	11.27
587.024	11.36
587.362	11.35
587.7	11.34
588.038	11.37
588.376	11.4
588.715	11.45
589.053	11.49
589.391	11.45
589.729	11.43
590.067	11.4
590.404	11.44
590.742	11.45
591.08	11.46
591.418	11.46
591.756	11.43
592.093	11.41
592.431	11.45
592.769	11.46
593.106	11.52
593.444	11.56
593.781	11.62
594.119	11.52
594.456	11.56
594.793	11.59
595.131	11.59
595.468	11.6
595.805	11.64
596.143	11.67
596.48	11.72
596.817	11.74
597.154	11.75
597.491	11.76
597.828	11.75
598.165	11.75
598.502	11.75
598.839	11.71
599.176	11.72
599.512	11.72
599.849	11.79
600.186	11.83
600.523	11.81
600.859	11.8
601.196	11.85
601.532	11.85
601.869	11.87
602.205	11.85
602.542	11.87
602.878	11.88
603.215	11.89
603.551	11.9
603.887	11.9
604.223	11.91
604.56	11.88
604.896	11.9
605.232	11.96
605.568	11.97
605.904	11.98
606.24	11.98
606.576	12.04
606.912	12
607.248	11.96
607.583	11.97
607.919	11.96
608.255	11.93
608.591	11.92
608.926	11.83
609.262	11.82
609.597	11.8
609.933	11.79
610.268	11.74
610.604	11.74
610.939	11.74
611.275	11.77
611.61	11.75
611.945	11.77
612.281	11.74
612.616	11.78
612.951	11.83
613.286	11.82
613.621	11.72
613.956	11.82
614.291	11.81
614.626	11.78
614.961	11.86
615.296	11.94
615.631	11.95
615.966	12.06
616.3	12.12
616.635	12.11
616.97	12.07
617.304	12.13
617.639	12.13
617.973	12.14
618.308	12.18
618.642	12.21
618.977	12.18
619.311	12.19
619.646	12.15
619.98	12.11
620.314	12.12
620.648	12.21
620.983	12.05
621.317	12.1
621.651	12.09
621.985	12.06
622.319	12.03
622.653	12.04
622.987	12.03
623.321	12.04
623.655	12.08
623.988	12.1
624.322	12.08
624.656	12.07
624.99	12.07
625.323	12.07
625.657	12.15
625.99	12.22
626.324	12.21
626.657	12.21
626.991	12.26
627.324	12.25
627.658	12.22
627.991	12.25
628.324	12.21
628.657	12.24
628.991	12.25
629.324	12.26
629.657	12.3
629.99	12.25
630.323	12.3
630.656	12.26
630.989	12.25
631.322	12.28
631.655	12.29
631.987	12.27
632.32	12.23
632.653	12.17
632.986	12.11
633.318	12.11
633.651	12.09
633.984	12.09
634.316	12.08
634.649	12.1
634.981	12.14
635.313	12.17
635.646	12.21
635.978	12.2
636.31	12.13
636.643	12.1
636.975	12.22
637.307	12.21
637.639	12.22
637.971	12.14
638.303	12.1
638.635	12.16
638.967	12.22
639.299	12.25
639.631	12.28
639.963	12.28
640.295	12.27
640.626	12.26
640.958	12.21
641.29	12.25
641.621	12.28
641.953	12.25
642.285	12.25
642.616	12.29
642.948	12.33
643.279	12.44
643.61	12.48
643.942	12.46
644.273	12.36
644.604	12.4
644.936	12.45
645.267	12.52
645.598	12.49
645.929	12.39
646.26	12.31
646.591	12.3
646.922	12.35
647.253	12.38
647.584	12.4
647.915	12.4
648.245	12.46
648.576	12.41
648.907	12.47
649.238	12.52
649.568	12.41
649.899	12.39
650.229	12.43
650.56	12.38
650.89	12.36
651.221	12.44
651.551	12.5
651.882	12.55
652.212	12.5
652.542	12.52
652.872	12.57
653.203	12.65
653.533	12.69
653.863	12.72
654.193	12.75
654.523	12.76
654.853	12.9
655.183	12.86
655.513	12.83
655.843	12.84
656.172	12.87
656.502	12.79
656.832	12.79
657.162	12.78
657.491	12.78
657.821	12.81
658.15	12.79
658.48	12.76
658.809	12.79
659.139	12.81
659.468	12.78
659.798	12.75
660.127	12.71
660.456	12.72
660.785	12.59
661.115	12.51
661.444	12.55
661.773	12.5
662.102	12.46
662.431	12.51
662.76	12.5
663.089	12.5
663.418	12.66
663.747	12.72
664.076	12.64
664.404	12.75
664.733	12.7
665.062	12.72
665.39	12.65
665.719	12.63
666.048	12.65
666.376	12.76
666.705	12.91
667.033	12.93
667.362	12.89
667.69	12.98
668.018	13.08
668.347	13.08
668.675	13.08
669.003	13.07
669.331	13.14
669.659	13.07
669.987	13.07
670.315	13
670.643	12.94
670.971	12.92
671.299	12.94
671.627	12.9
671.955	12.95
672.283	12.99
672.61	13.1
672.938	13.15
673.266	13.08
673.593	12.98
673.921	12.9
674.249	12.97
674.576	12.97
674.904	12.95
675.231	12.99
675.558	13.09
675.886	13.09
676.213	12.97
676.54	13.03
676.867	12.96
677.195	12.97
677.522	13.02
677.849	13.12
678.176	13.21
678.503	13.23
678.83	13.28
679.157	13.29
679.484	13.21
679.81	13.17
680.137	13.25
680.464	13.26
680.791	13.41
681.117	13.46
681.444	13.54
681.771	13.57
682.097	13.54
682.424	13.42
682.75	13.51
683.077	13.58
683.403	13.64
683.729	13.71
684.056	13.68
684.382	13.6
684.708	13.58
685.034	13.46
685.36	13.49
685.686	13.44
686.012	13.46
686.339	13.41
686.664	13.33
686.99	13.29
687.316	13.41
687.642	13.28
687.968	13.21
688.294	13.19
688.619	13.12
688.945	13.03
689.271	13.09
689.596	13.08
689.922	13.12
690.247	13.11
690.573	13.19
690.898	13.18
691.224	13.24
691.549	13.29
691.874	13.21
692.2	13.15
692.525	13.17
692.85	13.24
693.175	13.19
693.5	13.14
693.825	13.12
694.15	12.92
694.475	13.14
694.8	13.19
695.125	13.28
695.45	13.24
695.775	13.35
696.099	13.41
696.424	13.38
696.749	13.46
697.073	13.48
697.398	13.46
697.723	13.5
698.047	13.55
698.372	13.61
698.696	13.64
699.02	13.63
699.345	13.49
699.669	13.39
699.993	13.58
700.318	13.67
700.642	13.67
700.966	13.66
701.29	13.7
701.614	13.72
701.938	13.6
702.262	13.77
702.586	13.76
702.91	13.67
703.234	13.61
703.557	13.38
703.881	13.32
704.205	13.28
704.529	13.19
704.852	13.21
705.176	13.42
705.499	13.46
705.823	13.62
706.146	13.85
706.47	14.02
706.793	13.81
707.117	13.66
707.44	13.62
707.763	13.71
708.086	13.63
708.409	13.76
708.733	13.68
709.056	13.65
709.379	13.85
709.702	13.98
710.025	14.09
710.348	14.23
710.671	14.46
710.993	14.42
711.316	14.55
711.639	14.57
711.962	14.38
712.284	14.17
712.607	14.12
712.93	14.14
713.252	14.14
713.575	14.27
713.897	14.53
714.22	14.53
714.542	14.6
714.864	14.4
715.187	14.29
715.509	14.39
715.831	14.4
716.153	14.2
716.475	14.04
716.798	14.07
717.12	14.17
717.442	14.08
717.764	14.15
718.085	14.15
718.407	14.14
718.729	13.91
719.051	14.19
719.373	14.34
719.695	14.19
720.016	14.24
720.338	14.17
720.659	14.26
720.981	14.16
721.302	14.22
721.624	14.34
721.945	14.37
722.267	14.45
722.588	14.33
722.909	14.47
723.231	14.66
723.552	14.62
723.873	14.51
724.194	14.33
724.515	14.23
724.836	14.21
725.157	14.37
725.478	14.5
725.799	14.42
726.12	14.35
726.441	14.49
726.762	14.39
727.083	14.45
727.403	14.26
727.724	14.58
728.045	14.74
728.365	14.67
728.686	14.64
729.006	14.46
729.327	14.73
729.647	14.69
729.967	14.7
730.288	14.84
730.608	15.09
730.928	15.18
731.249	15.45
731.569	15.39
731.889	15.27
732.209	15.49
732.529	15.54
732.849	15.55
733.169	15.48
733.489	15.44
733.809	15.55
734.129	15.67
734.448	15.65
734.768	15.51
735.088	15.61
735.408	15.52
735.727	15.71
736.047	15.67
736.366	15.72
736.686	15.56
737.005	15.38
737.325	15.1
737.644	15.07
737.963	14.66
738.283	14.66
738.602	14.87
738.921	14.73
739.24	14.61
739.56	14.81
739.879	14.75
740.198	14.93
740.517	14.8
740.836	14.62
741.155	14.32
741.473	14.42
741.792	14.51
742.111	14.78
742.43	14.81
742.748	14.71
743.067	14.68
743.386	14.63
743.704	14.65
744.023	14.86
744.341	14.69
744.66	14.76
744.978	14.92
745.297	14.66
745.615	14.45
745.933	14.72
746.252	14.44
746.57	14.73
746.888	14.76
747.206	14.87
747.524	15.15
747.842	15.17
748.16	15.03
748.478	14.88
748.796	14.82
749.114	14.63
749.432	14.53
749.749	14.48
750.067	14.62
750.385	14.94
750.703	14.88
751.02	15.08
751.338	15.28
751.655	14.97
751.973	15.23
752.29	15.26
752.608	14.88
752.925	14.82
753.242	14.86
753.56	14.64
753.877	14.59
754.194	14.53
754.511	14.66
754.828	14.67
755.145	14.71
755.462	14.56
755.779	14.91
756.096	14.99
756.413	14.94
756.73	14.94
757.047	14.63
757.364	14.44
757.68	14.52
757.997	14.63
758.314	15.07
758.63	15.16
758.947	15.65
759.264	15.91
759.58	16.29
759.896	16.39
760.213	16.4
760.529	16.49
760.846	16.43
761.162	16.52
761.478	16.64
761.794	16.65
762.11	16.57
762.426	16.49
762.743	16.63
763.059	16.88
763.375	17.03
763.69	17
764.006	17.4
764.322	17.46
764.638	17.33
764.954	17.45
765.27	17.45
765.585	17.26
765.901	17.23
766.216	17
766.532	16.57
766.848	16.54
767.163	16.57
767.478	16.56
767.794	16.55
768.109	16.74
768.424	16.9
768.74	16.88
769.055	17.03
769.37	16.94
769.685	16.72
770	16.53
770.315	16.5
770.63	16.32
770.945	16.22
771.26	16.25
771.575	15.96
771.89	15.53
772.205	15.28
772.52	15.09
772.834	15.16
773.149	15.65
773.464	15.6
773.778	15.28
774.093	15.02
774.407	15.4
774.722	15.3
775.036	15.05
775.351	15.65
775.665	15.59
775.979	15.46
776.293	15.54
776.608	15.53
776.922	15.79
777.236	15.56
777.55	15.55
777.864	15.94
778.178	15.58
778.492	15.63
778.806	15.76
779.12	16.33
779.434	16.33
779.747	16.33
780.061	16.59
780.375	16.83
780.689	16.99
781.002	16.44
781.316	16.05
781.629	15.75
781.943	15.29
782.256	14.79
782.57	15.1
782.883	15.55
783.196	15.64
783.51	15.63
783.823	15.63
784.136	15.72
784.449	15.15
784.762	15.64
785.075	15.43
785.388	15.51
785.701	15.94
786.014	16.28
786.327	16.5
786.64	16.58
786.953	17.01
787.266	17.03
787.578	17.25
787.891	17.38
788.204	18.12
788.516	18.43
788.829	18.73
789.141	18.78
789.454	18.28
789.766	18.44
790.079	18.43
790.391	18.27
790.703	18.24
791.016	18.54
791.328	18.36
791.64	18.87
791.952	19.1
792.264	17.99
792.576	17.47
792.888	17.21
793.2	16.81
793.512	16.37
793.824	16.44
794.136	16.74
794.448	16.83
794.76	16.69
795.071	16.33
795.383	16.37
795.695	15.9
796.006	16.17
796.318	16.17
796.629	16.34
796.941	16.7
797.252	16.65
797.564	17.12
797.875	17.09
798.186	17.18
798.497	16.62
798.809	16.84
799.12	17.37
799.431	17.45
799.742	17.93
800.053	17.45
800.364	18.17
800.675	17.95
800.986	17.77
801.297	17.16
801.608	16.74
801.918	16.86
802.229	17.32
802.54	16.72
802.851	16.41
803.161	16.87
803.472	16.42
803.782	16.66
804.093	16.07
804.403	16.85
804.714	16.25
805.024	16.39
805.334	16.66
805.645	16.44
805.955	16.37
806.265	16.09
806.575	16.86
806.885	16.67
807.195	17
807.505	16.92
807.815	17.62
808.125	17.9
808.435	17.9
808.745	17.14
809.055	17.64
809.365	18.52
809.674	17.59
809.984	17.21
810.294	16.85
810.603	16.68
810.913	16.07
811.222	16.25
811.532	16.93
811.841	16.93
812.151	17.18
812.46	17.07
812.769	17.65
813.079	17.71
813.388	17.15
813.697	16.74
814.006	17.14
814.315	16.7
814.624	17.17
814.933	17.12
815.242	18
815.551	17.76
815.86	16.79
816.169	16.82
816.478	17.58
816.786	17.47
817.095	17.66
817.404	17.98
817.712	18.65
818.021	18.47
818.33	18.96
818.638	18.88
818.947	18.94
819.255	18.87
819.563	19.41
819.872	19.57
820.18	19.75
820.488	19.98
820.796	20.16
821.105	20.39
821.413	20.57
821.721	20.46
822.029	20.57
822.337	20.63
822.645	20.82
822.953	20.89
823.26	20.95
823.568	21.01
823.876	20.94
824.184	21.09
824.491	21.18
824.799	21.02
825.107	21.11
825.414	21.24
825.722	21.18
826.029	21.03
826.337	21.13
826.644	21.18
826.951	21.06
827.259	21.12
827.566	20.74
827.873	20.51
828.18	20.43
828.488	20.53
828.795	20.64
829.102	20.66
829.409	20.25
829.716	20.63
830.023	20.58
830.329	21.03
830.636	20.51
830.943	20.49
831.25	20.79
831.557	20.68
831.863	20.65
832.17	20.62
832.476	20.77
832.783	20.53
833.089	20.48
833.396	20.53
833.702	20.8
834.009	21.45
834.315	21.67
834.621	22.12
834.928	21.74
835.234	21.45
835.54	21.18
835.846	21.96
836.152	21.58
836.458	21.66
836.764	21.17
837.07	21.14
837.376	21.02
837.682	20.39
837.988	20.01
838.293	19.74
838.599	20.09
838.905	19.96
839.211	20
839.516	19.83
839.822	19.67
840.127	18.8
840.433	18.93
840.738	19.39
841.044	19.23
841.349	19.71
841.654	19.7
841.959	20.15
842.265	19.62
842.57	19.27
842.875	18.58
843.18	17.62
843.485	17.95
843.79	17.09
844.095	17.18
844.4	16.86
844.705	17.39
845.01	17.48
845.315	16.51
845.619	16.49
845.924	15.29
846.229	16.38
846.533	16.11
846.838	14.28
847.142	12.17
847.447	11.88
847.751	11.21
848.056	10.47
848.36	11.01
848.664	10.4
848.969	10
849.273	10.66
849.577	9.93
849.881	9.34
850.185	9.58
850.489	11.56
850.794	12.85
851.097	12.25
851.401	11.26
851.705	13.6
852.009	12.97
852.313	12.38
852.617	10.7
852.92	10.76
853.224	15.22
853.528	17.79
853.831	17.17
854.135	17.2
854.438	19.62
854.742	19.37
855.045	21.87
855.349	22.04
855.652	22.49
855.955	23.01
856.259	23.07
856.562	24.86
856.865	23.8
857.168	22.86
857.471	24.17
857.774	24.55
858.077	21.28
858.38	21.62
858.683	26
858.986	26.52
859.289	25.62
859.592	22.85
859.894	21.25
860.197	21.4
860.5	21.49
860.802	17.33
861.105	15
861.407	10.62
861.71	11.73
862.012	12.22
862.315	13.85
862.617	12.41
862.919	11.58
863.222	9.99
863.524	9.33
863.826	6.55
864.128	4.64
864.43	6.64
864.732	6.79
865.034	5.32
865.336	5.71
865.638	4.48
865.94	4.33
866.242	3.09
866.544	3.71
866.846	3.5
867.147	7.85
867.449	9.08
867.751	8.58
868.052	7.47
868.354	7.43
868.655	7.45
868.957	8.95
869.258	8.29
869.56	11.59
869.861	11.48
870.162	13.66
870.463	14.71
870.765	12.18
871.066	11.2
871.367	8.38
871.668	5.51
871.969	7.27
872.27	8.08
872.571	8.91
872.872	10.31
873.173	8.51
873.473	7.46
873.774	7.3
874.075	12.41
874.376	10.01
874.676	10.09
874.977	10.31
875.277	9.71
875.578	9.31
875.878	8.13
876.179	8.99
876.479	7.93
876.78	8.18
877.08	10.12
877.38	11.39
877.68	13.92
877.981	17.17
878.281	18.93
878.581	17.14
