Data from MVZ_BU62167_Reflection_00013.txt Node
Date: Tue Nov 19 12:14:43 EST 2019
User: vgr7
Spectrometer: USB2G7710
Scans to average: 3
Trigger mode: 4
Integration Time (sec): 2.000000E-2
Electric dark correction enabled: true
Boxcar width: 10
XAxis mode: Wavelengths
Number of Pixels in Spectrum: 2048
>>>>>Begin Spectral Data<<<<<
177.721	60.07
178.105	76.19
178.488	146.95
178.871	82.46
179.254	-33.33
179.636	106.87
180.019	-43.25
180.402	243.75
180.785	-593.33
181.168	635.09
181.55	-223.67
181.933	-271.65
182.316	-308.24
182.698	-651.94
183.081	2803.7
183.463	302.61
183.846	741.98
184.228	-860.78
184.611	-91.32
184.993	-29.94
185.376	-46.87
185.758	-40.35
186.14	-237.78
186.522	-225.67
186.904	-209.8
187.287	-397.72
187.669	-324.24
188.051	-377.99
188.433	-8677.78
188.815	-1566.67
189.197	-151.03
189.579	412.93
189.961	325.99
190.342	-170.44
190.724	-439.68
191.106	-99.58
191.488	-79.97
191.869	-78.61
192.251	-75.03
192.633	-113.4
193.014	-110.61
193.396	-120.45
193.777	-125.39
194.159	-85.81
194.54	-46.8
194.922	-60.1
195.303	-61.52
195.684	-65.21
196.065	-83.65
196.447	-84.19
196.828	-70.24
197.209	-89.59
197.59	-40.2
197.971	-33.13
198.352	-66.96
198.733	-59.08
199.114	-80.86
199.495	-94.98
199.876	-82.76
200.257	-76.22
200.638	-64.75
201.018	-62.84
201.399	-53.11
201.78	-50.55
202.16	-45.68
202.541	-57.15
202.922	-43.69
203.302	-30.64
203.683	-26.71
204.063	-21.98
204.444	-6.29
204.824	-7.63
205.204	-12.01
205.585	-21.14
205.965	-11.54
206.345	-6.97
206.725	-16.29
207.106	-1.14
207.486	-0.96
207.866	3.32
208.246	4.39
208.626	6.35
209.006	3.4
209.386	4.7
209.766	13.65
210.145	8.78
210.525	-4.7
210.905	-1.62
211.285	-1.62
211.664	-10.66
212.044	-26.64
212.424	-28.33
212.803	-25.55
213.183	-23.94
213.562	-18.74
213.942	-27.38
214.321	-20.01
214.701	-19.65
215.08	-22.19
215.459	-17.05
215.838	-28.32
216.218	-43.22
216.597	-41.66
216.976	-41.37
217.355	-50.42
217.734	-51.45
218.113	-52.31
218.492	-53.04
218.871	-54.75
219.25	-60.1
219.629	-65.75
220.008	-43.9
220.387	-49.59
220.766	-49.98
221.144	-50.79
221.523	-59.6
221.902	-70.67
222.28	-71.48
222.659	-53.32
223.037	-54.01
223.416	-51.41
223.794	-52.87
224.173	-53.8
224.551	-41.49
224.929	-42.4
225.308	-40.48
225.686	-33.41
226.064	-34.51
226.442	-27.4
226.821	-22.98
227.199	-18.86
227.577	-14.41
227.955	-14.74
228.333	-14.98
228.711	-14.28
229.089	-13.88
229.467	-14.12
229.845	-12.78
230.222	-11.33
230.6	-13.06
230.978	-11.9
231.356	-11.36
231.733	-9.68
232.111	-6.56
232.488	-6.07
232.866	-5.02
233.243	-4.12
233.621	-1.94
233.998	0.04
234.376	0.17
234.753	0.47
235.13	1.1
235.508	0.72
235.885	0.57
236.262	0.5
236.639	-1.02
237.016	-0.89
237.393	1.48
237.77	2.91
238.147	3.85
238.524	4.52
238.901	5.28
239.278	4.18
239.655	4.69
240.032	4.27
240.409	3.88
240.785	3.4
241.162	2.67
241.539	1.86
241.915	1.58
242.292	1.51
242.668	2.07
243.045	2.15
243.421	2.73
243.798	3.06
244.174	3.44
244.551	3.56
244.927	4.07
245.303	3.76
245.679	3.7
246.056	3.48
246.432	3.29
246.808	3.09
247.184	3.29
247.56	2.87
247.936	3.13
248.312	3.27
248.688	3.4
249.064	3.78
249.44	3.73
249.815	3.97
250.191	4.05
250.567	3.87
250.943	4.07
251.318	3.77
251.694	3.63
252.069	3.52
252.445	3.65
252.82	3.86
253.196	3.93
253.571	4.07
253.947	4.17
254.322	4.19
254.697	4.21
255.073	4.11
255.448	4.14
255.823	3.98
256.198	3.64
256.573	3.78
256.948	3.84
257.323	3.73
257.698	3.53
258.073	3.55
258.448	3.39
258.823	3.06
259.198	3.03
259.573	2.8
259.948	2.99
260.322	2.83
260.697	2.63
261.072	2.69
261.446	2.83
261.821	2.9
262.195	2.84
262.57	2.78
262.944	3.02
263.319	3.11
263.693	3.25
264.067	3.33
264.442	3.16
264.816	3.2
265.19	3.25
265.564	3.12
265.938	3.14
266.313	3.2
266.687	3.22
267.061	3.44
267.435	3.9
267.809	3.58
268.183	3.88
268.556	3.82
268.93	3.63
269.304	3.53
269.678	3.48
270.051	3.49
270.425	3.72
270.799	3.42
271.172	3.38
271.546	3.24
271.919	3.17
272.293	3.41
272.666	3.12
273.04	3.2
273.413	3.23
273.787	3.16
274.16	3.15
274.533	3.37
274.906	3.46
275.279	3.32
275.653	3.48
276.026	3.41
276.399	3.39
276.772	3.41
277.145	3.36
277.518	3.38
277.891	3.44
278.263	3.34
278.636	3.59
279.009	3.59
279.382	3.29
279.755	3.32
280.127	3.18
280.5	3.37
280.872	3.43
281.245	3.48
281.617	3.57
281.99	3.52
282.362	3.41
282.735	3.28
283.107	3.15
283.479	3.15
283.852	3.17
284.224	3.2
284.596	3.37
284.968	3.45
285.34	3.35
285.713	3.41
286.085	3.25
286.457	3.27
286.829	3.24
287.201	3.6
287.572	3.7
287.944	3.76
288.316	3.81
288.688	3.7
289.06	3.78
289.431	3.66
289.803	3.71
290.175	3.8
290.546	3.78
290.918	3.9
291.289	3.86
291.661	3.86
292.032	3.91
292.403	3.75
292.775	3.66
293.146	3.86
293.517	3.78
293.889	3.85
294.26	3.73
294.631	3.92
295.002	3.81
295.373	3.84
295.744	3.78
296.115	3.9
296.486	3.92
296.857	3.94
297.228	4.01
297.599	4.03
297.97	4.13
298.34	4.26
298.711	4.32
299.082	4.31
299.452	4.25
299.823	4.22
300.194	4.39
300.564	4.44
300.935	4.47
301.305	4.59
301.676	4.59
302.046	4.68
302.416	4.54
302.787	4.6
303.157	4.52
303.527	4.64
303.897	4.49
304.267	4.47
304.637	4.5
305.008	4.66
305.378	4.81
305.748	4.64
306.117	4.6
306.487	4.52
306.857	4.64
307.227	4.87
307.597	5.04
307.967	5.01
308.336	4.97
308.706	4.89
309.076	4.87
309.445	5.05
309.815	4.99
310.184	5.12
310.554	5.14
310.923	5.14
311.293	5.15
311.662	5.25
312.031	5.49
312.401	5.47
312.77	5.46
313.139	5.4
313.508	5.26
313.877	5.33
314.246	5.3
314.616	5.37
314.985	5.09
315.353	5.14
315.722	5.26
316.091	5.25
316.46	5.33
316.829	5.45
317.198	5.43
317.567	5.68
317.935	5.66
318.304	5.89
318.672	6
319.041	6.11
319.41	6.05
319.778	6.05
320.147	6.16
320.515	6.12
320.883	6.13
321.252	6.32
321.62	6.2
321.988	6.49
322.357	6.62
322.725	6.88
323.093	6.79
323.461	6.63
323.829	6.86
324.197	6.87
324.565	6.82
324.933	6.85
325.301	6.69
325.669	6.68
326.037	6.59
326.405	6.67
326.772	6.75
327.14	6.68
327.508	6.77
327.875	6.65
328.243	6.77
328.61	6.92
328.978	7.12
329.346	7.18
329.713	7.14
330.08	7.09
330.448	7.18
330.815	7.23
331.182	7.39
331.55	7.15
331.917	7.3
332.284	7.33
332.651	7.45
333.018	7.45
333.385	7.5
333.752	7.44
334.119	7.54
334.486	7.45
334.853	7.52
335.22	7.42
335.587	7.56
335.954	7.5
336.32	7.45
336.687	7.4
337.054	7.55
337.42	7.52
337.787	7.56
338.153	7.57
338.52	7.52
338.886	7.44
339.253	7.56
339.619	7.5
339.986	7.52
340.352	7.41
340.718	7.56
341.084	7.6
341.451	7.6
341.817	7.54
342.183	7.64
342.549	7.75
342.915	7.74
343.281	7.81
343.647	7.95
344.013	7.99
344.379	8.02
344.745	8.06
345.11	8.19
345.476	8.27
345.842	8.32
346.208	8.42
346.573	8.55
346.939	8.68
347.304	8.76
347.67	8.78
348.035	8.86
348.401	8.96
348.766	8.9
349.132	9.04
349.497	9.2
349.862	9.19
350.228	9.09
350.593	9.24
350.958	9.26
351.323	9.13
351.688	9.16
352.053	9.17
352.418	9.06
352.783	9.05
353.148	8.93
353.513	8.89
353.878	8.8
354.243	8.77
354.608	8.66
354.972	8.65
355.337	8.61
355.702	8.59
356.066	8.4
356.431	8.5
356.795	8.38
357.16	8.24
357.524	8.31
357.889	8.37
358.253	8.19
358.618	8.16
358.982	8.16
359.346	8.17
359.71	8.18
360.075	8.19
360.439	8.12
360.803	8.18
361.167	8.17
361.531	8.2
361.895	8.13
362.259	8.16
362.623	8.1
362.987	8.1
363.351	8.07
363.714	8.08
364.078	8.03
364.442	8.08
364.806	8.04
365.169	7.9
365.533	7.84
365.896	7.92
366.26	7.86
366.623	7.78
366.987	7.71
367.35	7.63
367.714	7.57
368.077	7.54
368.44	7.47
368.803	7.36
369.167	7.23
369.53	7.3
369.893	7.27
370.256	7.18
370.619	7.13
370.982	7.1
371.345	7.05
371.708	6.96
372.071	6.92
372.434	6.9
372.797	6.91
373.159	6.84
373.522	6.73
373.885	6.65
374.247	6.68
374.61	6.66
374.973	6.62
375.335	6.61
375.698	6.59
376.06	6.5
376.423	6.52
376.785	6.53
377.147	6.45
377.51	6.43
377.872	6.46
378.234	6.46
378.596	6.39
378.958	6.39
379.321	6.31
379.683	6.2
380.045	6.17
380.407	6.11
380.769	6.15
381.13	6.11
381.492	6.11
381.854	6.04
382.216	6.07
382.578	6.07
382.939	6.05
383.301	5.92
383.663	5.93
384.024	5.82
384.386	5.78
384.747	5.74
385.109	5.68
385.47	5.63
385.832	5.58
386.193	5.57
386.554	5.49
386.916	5.51
387.277	5.51
387.638	5.47
387.999	5.46
388.36	5.41
388.721	5.41
389.082	5.37
389.443	5.33
389.804	5.25
390.165	5.2
390.526	5.16
390.887	5.2
391.248	5.14
391.609	5.19
391.969	5.15
392.33	5.09
392.691	5.03
393.051	4.99
393.412	4.98
393.772	4.94
394.133	4.93
394.493	4.87
394.854	4.85
395.214	4.85
395.574	4.8
395.935	4.76
396.295	4.75
396.655	4.7
397.015	4.74
397.376	4.7
397.736	4.67
398.096	4.61
398.456	4.53
398.816	4.5
399.176	4.4
399.535	4.36
399.895	4.35
400.255	4.33
400.615	4.33
400.975	4.28
401.334	4.3
401.694	4.27
402.054	4.29
402.413	4.26
402.773	4.2
403.132	4.2
403.492	4.17
403.851	4.09
404.211	4.1
404.57	4.04
404.929	4.01
405.288	4
405.648	4
406.007	4.02
406.366	4.02
406.725	4.04
407.084	4.05
407.443	4.03
407.802	4.04
408.161	4.02
408.52	4.01
408.879	3.96
409.238	3.95
409.596	3.95
409.955	3.96
410.314	3.95
410.673	3.95
411.031	3.96
411.39	4.01
411.748	4
412.107	3.98
412.465	3.94
412.824	3.91
413.182	3.93
413.54	3.91
413.899	3.88
414.257	3.87
414.615	3.87
414.974	3.9
415.332	3.89
415.69	3.86
416.048	3.84
416.406	3.84
416.764	3.83
417.122	3.79
417.48	3.76
417.838	3.79
418.195	3.75
418.553	3.73
418.911	3.71
419.269	3.68
419.626	3.67
419.984	3.68
420.342	3.66
420.699	3.64
421.057	3.61
421.414	3.63
421.772	3.62
422.129	3.59
422.486	3.57
422.844	3.55
423.201	3.56
423.558	3.54
423.915	3.56
424.273	3.55
424.63	3.56
424.987	3.57
425.344	3.54
425.701	3.54
426.058	3.54
426.415	3.53
426.772	3.53
427.128	3.54
427.485	3.54
427.842	3.53
428.199	3.53
428.555	3.55
428.912	3.51
429.269	3.48
429.625	3.48
429.982	3.47
430.338	3.48
430.695	3.43
431.051	3.45
431.407	3.4
431.764	3.39
432.12	3.39
432.476	3.37
432.832	3.36
433.189	3.36
433.545	3.35
433.901	3.34
434.257	3.33
434.613	3.31
434.969	3.3
435.325	3.31
435.681	3.32
436.036	3.33
436.392	3.36
436.748	3.37
437.104	3.37
437.459	3.38
437.815	3.38
438.171	3.42
438.526	3.42
438.882	3.44
439.237	3.45
439.593	3.44
439.948	3.44
440.304	3.46
440.659	3.48
441.014	3.47
441.369	3.46
441.725	3.49
442.08	3.5
442.435	3.49
442.79	3.48
443.145	3.47
443.5	3.45
443.855	3.43
444.21	3.44
444.565	3.44
444.92	3.45
445.275	3.43
445.629	3.41
445.984	3.4
446.339	3.39
446.693	3.37
447.048	3.36
447.403	3.34
447.757	3.31
448.112	3.29
448.466	3.28
448.82	3.27
449.175	3.25
449.529	3.23
449.883	3.22
450.238	3.22
450.592	3.23
450.946	3.22
451.3	3.22
451.654	3.19
452.008	3.18
452.362	3.17
452.716	3.17
453.07	3.16
453.424	3.15
453.778	3.16
454.132	3.15
454.486	3.17
454.839	3.18
455.193	3.19
455.547	3.21
455.9	3.21
456.254	3.23
456.607	3.23
456.961	3.24
457.314	3.27
457.668	3.27
458.021	3.27
458.375	3.27
458.728	3.28
459.081	3.3
459.434	3.3
459.787	3.3
460.141	3.29
460.494	3.31
460.847	3.31
461.2	3.3
461.553	3.32
461.906	3.32
462.259	3.32
462.611	3.31
462.964	3.32
463.317	3.32
463.67	3.34
464.022	3.36
464.375	3.37
464.728	3.38
465.08	3.38
465.433	3.41
465.785	3.43
466.138	3.43
466.49	3.43
466.843	3.45
467.195	3.49
467.547	3.5
467.899	3.53
468.252	3.54
468.604	3.56
468.956	3.56
469.308	3.56
469.66	3.6
470.012	3.62
470.364	3.62
470.716	3.64
471.068	3.63
471.42	3.61
471.772	3.61
472.123	3.6
472.475	3.61
472.827	3.59
473.178	3.6
473.53	3.61
473.882	3.6
474.233	3.59
474.585	3.57
474.936	3.6
475.288	3.6
475.639	3.61
475.99	3.59
476.342	3.61
476.693	3.6
477.044	3.6
477.395	3.6
477.746	3.59
478.097	3.58
478.448	3.58
478.8	3.58
479.15	3.58
479.501	3.59
479.852	3.57
480.203	3.57
480.554	3.57
480.905	3.56
481.255	3.55
481.606	3.56
481.957	3.55
482.307	3.54
482.658	3.54
483.009	3.53
483.359	3.53
483.709	3.54
484.06	3.55
484.41	3.55
484.761	3.55
485.111	3.55
485.461	3.55
485.811	3.55
486.162	3.56
486.512	3.56
486.862	3.56
487.212	3.57
487.562	3.57
487.912	3.58
488.262	3.58
488.612	3.59
488.961	3.6
489.311	3.61
489.661	3.62
490.011	3.62
490.36	3.61
490.71	3.63
491.06	3.62
491.409	3.62
491.759	3.63
492.108	3.64
492.458	3.66
492.807	3.68
493.157	3.71
493.506	3.73
493.855	3.75
494.204	3.77
494.554	3.78
494.903	3.8
495.252	3.82
495.601	3.86
495.95	3.89
496.299	3.93
496.648	3.97
496.997	4.01
497.346	4.05
497.695	4.12
498.043	4.18
498.392	4.22
498.741	4.27
499.09	4.31
499.438	4.38
499.787	4.44
500.135	4.49
500.484	4.54
500.832	4.59
501.181	4.67
501.529	4.74
501.878	4.82
502.226	4.89
502.574	4.97
502.923	5.04
503.271	5.12
503.619	5.19
503.967	5.25
504.315	5.35
504.663	5.5
505.011	5.59
505.359	5.68
505.707	5.8
506.055	5.89
506.403	5.99
506.751	6.09
507.098	6.21
507.446	6.34
507.794	6.45
508.141	6.56
508.489	6.68
508.837	6.77
509.184	6.89
509.531	7.03
509.879	7.18
510.226	7.3
510.574	7.42
510.921	7.52
511.268	7.65
511.616	7.77
511.963	7.88
512.31	8.01
512.657	8.14
513.004	8.28
513.351	8.43
513.698	8.6
514.045	8.78
514.392	8.93
514.739	9.07
515.086	9.2
515.432	9.36
515.779	9.48
516.126	9.65
516.473	9.79
516.819	9.92
517.166	10.06
517.512	10.2
517.859	10.33
518.205	10.48
518.552	10.63
518.898	10.76
519.245	10.87
519.591	11
519.937	11.15
520.283	11.28
520.629	11.44
520.976	11.58
521.322	11.72
521.668	11.85
522.014	12.03
522.36	12.22
522.706	12.42
523.052	12.64
523.398	12.83
523.743	13.01
524.089	13.24
524.435	13.45
524.781	13.65
525.126	13.85
525.472	14.06
525.817	14.23
526.163	14.39
526.509	14.53
526.854	14.66
527.199	14.78
527.545	14.92
527.89	15.05
528.235	15.2
528.581	15.35
528.926	15.5
529.271	15.63
529.616	15.77
529.961	15.91
530.306	16.07
530.651	16.24
530.996	16.45
531.341	16.62
531.686	16.79
532.031	16.97
532.376	17.15
532.721	17.34
533.065	17.53
533.41	17.74
533.755	17.96
534.099	18.22
534.444	18.46
534.788	18.67
535.133	18.9
535.477	19.11
535.822	19.35
536.166	19.63
536.51	19.95
536.855	20.29
537.199	20.61
537.543	20.95
537.887	21.27
538.231	21.58
538.576	21.93
538.92	22.27
539.264	22.59
539.608	22.89
539.951	23.18
540.295	23.46
540.639	23.73
540.983	24.02
541.327	24.29
541.671	24.54
542.014	24.81
542.358	25.05
542.701	25.31
543.045	25.59
543.389	25.84
543.732	26.1
544.075	26.34
544.419	26.65
544.762	26.92
545.105	27.22
545.449	27.51
545.792	27.81
546.135	28.15
546.478	28.51
546.821	28.91
547.165	29.29
547.508	29.65
547.851	30.05
548.194	30.42
548.536	30.78
548.879	31.18
549.222	31.62
549.565	32.04
549.908	32.42
550.25	32.8
550.593	33.23
550.936	33.59
551.278	34.03
551.621	34.37
551.963	34.73
552.306	35.14
552.648	35.57
552.991	35.93
553.333	36.27
553.675	36.64
554.017	36.92
554.36	37.27
554.702	37.62
555.044	37.96
555.386	38.33
555.728	38.7
556.07	39.06
556.412	39.3
556.754	39.62
557.096	39.95
557.438	40.35
557.78	40.7
558.121	41.09
558.463	41.43
558.805	41.76
559.147	42.21
559.488	42.55
559.83	42.96
560.171	43.36
560.513	43.7
560.854	44.03
561.196	44.43
561.537	44.74
561.878	45.09
562.22	45.43
562.561	45.78
562.902	46.08
563.243	46.39
563.584	46.83
563.925	47.17
564.266	47.49
564.607	47.78
564.948	48.05
565.289	48.29
565.63	48.55
565.971	48.82
566.312	48.99
566.653	49.26
566.993	49.43
567.334	49.68
567.675	49.95
568.015	50.2
568.356	50.45
568.696	50.7
569.037	50.94
569.377	51.14
569.718	51.35
570.058	51.57
570.398	51.77
570.739	51.86
571.079	52.08
571.419	52.28
571.759	52.48
572.099	52.66
572.439	52.91
572.779	53.09
573.119	53.27
573.459	53.48
573.799	53.66
574.139	53.81
574.479	53.99
574.819	54.19
575.158	54.42
575.498	54.54
575.838	54.72
576.177	54.94
576.517	55.12
576.856	55.25
577.196	55.41
577.535	55.62
577.875	55.89
578.214	56.06
578.553	56.24
578.893	56.42
579.232	56.57
579.571	56.68
579.91	56.84
580.25	57.07
580.589	57.18
580.928	57.28
581.267	57.53
581.606	57.61
581.945	57.74
582.283	57.82
582.622	57.92
582.961	58.01
583.3	58.12
583.639	58.3
583.977	58.49
584.316	58.72
584.654	58.88
584.993	58.91
585.332	59.08
585.67	59.14
586.008	59.3
586.347	59.43
586.685	59.46
587.024	59.59
587.362	59.66
587.7	59.84
588.038	59.94
588.376	60.01
588.715	60.24
589.053	60.33
589.391	60.45
589.729	60.71
590.067	60.9
590.404	61.06
590.742	61.09
591.08	61.21
591.418	61.31
591.756	61.32
592.093	61.52
592.431	61.59
592.769	61.75
593.106	61.79
593.444	61.97
593.781	62.19
594.119	62.3
594.456	62.42
594.793	62.5
595.131	62.59
595.468	62.68
595.805	62.69
596.143	62.73
596.48	62.75
596.817	62.8
597.154	62.79
597.491	62.76
597.828	62.91
598.165	62.99
598.502	63.03
598.839	63.17
599.176	63.22
599.512	63.28
599.849	63.41
600.186	63.48
600.523	63.45
600.859	63.5
601.196	63.69
601.532	63.83
601.869	63.97
602.205	63.94
602.542	64
602.878	64.1
603.215	64.12
603.551	64.18
603.887	64.18
604.223	64.26
604.56	64.32
604.896	64.41
605.232	64.49
605.568	64.55
605.904	64.67
606.24	64.78
606.576	64.79
606.912	64.77
607.248	64.83
607.583	64.92
607.919	65.01
608.255	64.91
608.591	64.89
608.926	64.85
609.262	65.01
609.597	65.11
609.933	65.1
610.268	65.19
610.604	65.3
610.939	65.32
611.275	65.39
611.61	65.4
611.945	65.34
612.281	65.32
612.616	65.31
612.951	65.24
613.286	65.2
613.621	65.22
613.956	65.26
614.291	65.28
614.626	65.34
614.961	65.27
615.296	65.32
615.631	65.37
615.966	65.48
616.3	65.56
616.635	65.63
616.97	65.67
617.304	65.76
617.639	65.76
617.973	65.8
618.308	65.87
618.642	65.95
618.977	66.07
619.311	66.09
619.646	66.31
619.98	66.39
620.314	66.39
620.648	66.49
620.983	66.54
621.317	66.52
621.651	66.63
621.985	66.75
622.319	66.95
622.653	66.98
622.987	67.01
623.321	67.02
623.655	67.02
623.988	67.13
624.322	67.09
624.656	67.08
624.99	67.17
625.323	67.17
625.657	67.25
625.99	67.29
626.324	67.37
626.657	67.21
626.991	67.33
627.324	67.31
627.658	67.33
627.991	67.4
628.324	67.47
628.657	67.45
628.991	67.44
629.324	67.42
629.657	67.38
629.99	67.25
630.323	67.34
630.656	67.32
630.989	67.26
631.322	67.31
631.655	67.32
631.987	67.31
632.32	67.32
632.653	67.34
632.986	67.36
633.318	67.33
633.651	67.45
633.984	67.37
634.316	67.47
634.649	67.54
634.981	67.54
635.313	67.6
635.646	67.82
635.978	67.93
636.31	67.79
636.643	67.88
636.975	68.06
637.307	67.96
637.639	68.07
637.971	68.05
638.303	68.2
638.635	68.3
638.967	68.4
639.299	68.42
639.631	68.46
639.963	68.41
640.295	68.39
640.626	68.32
640.958	68.3
641.29	68.44
641.621	68.5
641.953	68.48
642.285	68.52
642.616	68.32
642.948	68.29
643.279	68.44
643.61	68.44
643.942	68.48
644.273	68.56
644.604	68.52
644.936	68.61
645.267	68.49
645.598	68.44
645.929	68.56
646.26	68.45
646.591	68.43
646.922	68.48
647.253	68.55
647.584	68.65
647.915	68.73
648.245	68.56
648.576	68.69
648.907	68.88
649.238	68.87
649.568	68.99
649.899	69.07
650.229	69.01
650.56	69.01
650.89	68.99
651.221	68.98
651.551	68.96
651.882	69.05
652.212	69.1
652.542	69.18
652.872	68.97
653.203	69.07
653.533	69.11
653.863	69.07
654.193	68.99
654.523	68.96
654.853	68.99
655.183	69.1
655.513	69.01
655.843	68.82
656.172	68.79
656.502	68.95
656.832	68.85
657.162	68.94
657.491	68.99
657.821	69.05
658.15	69.11
658.48	69.08
658.809	69.04
659.139	69.1
659.468	69.1
659.798	69.23
660.127	69.26
660.456	69.31
660.785	69.45
661.115	69.56
661.444	69.5
661.773	69.42
662.102	69.55
662.431	69.42
662.76	69.57
663.089	69.66
663.418	69.34
663.747	69.41
664.076	69.41
664.404	69.38
664.733	69.32
665.062	69.41
665.39	69.54
665.719	69.45
666.048	69.34
666.376	69.43
666.705	69.34
667.033	69.43
667.362	69.47
667.69	69.47
668.018	69.49
668.347	69.76
668.675	69.94
669.003	69.88
669.331	70.12
669.659	70.08
669.987	70
670.315	70.08
670.643	69.97
670.971	70.01
671.299	69.95
671.627	70.1
671.955	70.02
672.283	70.06
672.61	70.07
672.938	70.3
673.266	70.29
673.593	70.51
673.921	70.52
674.249	70.37
674.576	70.2
674.904	70.19
675.231	70.14
675.558	70.08
675.886	70.01
676.213	69.91
676.54	70.02
676.867	70.14
677.195	70.12
677.522	70.27
677.849	70.38
678.176	70.47
678.503	70.44
678.83	70.44
679.157	70.41
679.484	70.58
679.81	70.48
680.137	70.4
680.464	70.19
680.791	70.14
681.117	70.21
681.444	70.16
681.771	70.08
682.097	70.17
682.424	70.24
682.75	70.21
683.077	70.32
683.403	70.21
683.729	70.1
684.056	70.13
684.382	70.11
684.708	69.9
685.034	70.14
685.36	70.05
685.686	70.04
686.012	69.99
686.339	69.9
686.664	69.9
686.99	70
687.316	70.15
687.642	70.19
687.968	70.26
688.294	70.58
688.619	70.61
688.945	70.51
689.271	70.56
689.596	70.63
689.922	70.46
690.247	70.53
690.573	70.59
690.898	70.65
691.224	70.56
691.549	70.68
691.874	70.55
692.2	70.55
692.525	70.53
692.85	70.61
693.175	70.6
693.5	70.72
693.825	70.62
694.15	70.73
694.475	70.76
694.8	70.68
695.125	70.5
695.45	70.48
695.775	70.55
696.099	70.55
696.424	70.59
696.749	70.61
697.073	70.55
697.398	70.56
697.723	70.51
698.047	70.41
698.372	70.46
698.696	70.47
699.02	70.42
699.345	70.43
699.669	70.34
699.993	70.37
700.318	70.26
700.642	70.39
700.966	70.35
701.29	70.13
701.614	70.12
701.938	70.12
702.262	70.04
702.586	69.88
702.91	69.77
703.234	69.61
703.557	69.61
703.881	69.75
704.205	69.8
704.529	69.77
704.852	69.94
705.176	69.75
705.499	69.69
705.823	69.86
706.146	69.93
706.47	70.01
706.793	70
707.117	70.03
707.44	69.86
707.763	69.71
708.086	69.95
708.409	69.95
708.733	69.97
709.056	70.35
709.379	70.54
709.702	70.52
710.025	70.74
710.348	70.73
710.671	70.53
710.993	70.73
711.316	70.69
711.639	70.68
711.962	70.86
712.284	70.92
712.607	70.79
712.93	70.82
713.252	70.81
713.575	71.1
713.897	70.98
714.22	71.07
714.542	71.15
714.864	71.23
715.187	71.2
715.509	71.22
715.831	70.99
716.153	70.72
716.475	70.88
716.798	70.83
717.12	70.68
717.442	70.71
717.764	70.49
718.085	70.71
718.407	70.66
718.729	70.42
719.051	70.31
719.373	70.63
719.695	70.69
720.016	70.76
720.338	70.49
720.659	70.62
720.981	70.63
721.302	70.49
721.624	70.21
721.945	70.28
722.267	70.2
722.588	70.19
722.909	70.24
723.231	70
723.552	69.96
723.873	70.23
724.194	70.32
724.515	70.41
724.836	70.52
725.157	70.53
725.478	70.94
725.799	70.98
726.12	70.7
726.441	70.62
726.762	70.73
727.083	70.73
727.403	70.6
727.724	70.49
728.045	70.6
728.365	70.81
728.686	70.92
729.006	71
729.327	71.01
729.647	70.98
729.967	70.89
730.288	70.88
730.608	70.91
730.928	70.84
731.249	70.73
731.569	70.72
731.889	70.68
732.209	70.53
732.529	70.52
732.849	70.39
733.169	70.26
733.489	70.11
733.809	70.12
734.129	70.07
734.448	69.75
734.768	69.91
735.088	70.06
735.408	69.89
735.727	69.9
736.047	69.97
736.366	69.95
736.686	70.02
737.005	70.02
737.325	69.76
737.644	69.81
737.963	69.84
738.283	69.72
738.602	69.86
738.921	69.88
739.24	69.81
739.56	70.4
739.879	70.58
740.198	70.85
740.517	70.87
740.836	71.07
741.155	71.52
741.473	71.29
741.792	71.11
742.111	71.28
742.43	71.19
742.748	71.1
743.067	71.14
743.386	70.9
743.704	71.05
744.023	71.38
744.341	71.25
744.66	71.19
744.978	71.05
745.297	70.96
745.615	71.01
745.933	70.99
746.252	70.34
746.57	70.09
746.888	69.94
747.206	69.69
747.524	70
747.842	69.75
748.16	69.68
748.478	69.66
748.796	69.47
749.114	69.78
749.432	69.73
749.749	69.68
750.067	70.28
750.385	69.99
750.703	69.52
751.02	69.97
751.338	70.23
751.655	70.28
751.973	70.37
752.29	70.25
752.608	70.13
752.925	70.25
753.242	70.49
753.56	70.45
753.877	70.81
754.194	70.87
754.511	71.05
754.828	71.19
755.145	71
755.462	71.41
755.779	71.19
756.096	71.38
756.413	71.41
756.73	71.28
757.047	70.65
757.364	71.08
757.68	70.72
757.997	70.28
758.314	70.77
758.63	70.75
758.947	70.61
759.264	70.67
759.58	70.64
759.896	70.87
760.213	70.5
760.529	70.15
760.846	69.96
761.162	70.06
761.478	70.06
761.794	70.19
762.11	69.96
762.426	70.08
762.743	70.12
763.059	70.28
763.375	70.29
763.69	70.76
764.006	70.74
764.322	70.73
764.638	71.21
764.954	70.9
765.27	70.79
765.585	70.63
765.901	70.63
766.216	70.5
766.532	70.14
766.848	70.67
767.163	70.91
767.478	70.7
767.794	70.45
768.109	70.72
768.424	70.73
768.74	70.81
769.055	70.9
769.37	70.81
769.685	70.95
770	71.1
770.315	71.33
770.63	70.66
770.945	70.59
771.26	69.98
771.575	70.21
771.89	70.19
772.205	70.39
772.52	70.34
772.834	70.92
773.149	70.74
773.464	70.31
773.778	70.34
774.093	70.69
774.407	71.1
774.722	71.06
775.036	71.11
775.351	71.39
775.665	71.25
775.979	71.18
776.293	70.99
776.608	70.54
776.922	70.88
777.236	71.55
777.55	72.07
777.864	72.46
778.178	72.47
778.492	72.96
778.806	73.17
779.12	73.11
779.434	73.21
779.747	73.46
780.061	73.66
780.375	73.83
780.689	73.51
781.002	73.45
781.316	73.39
781.629	73.24
781.943	72.97
782.256	73.16
782.57	73.78
782.883	74.01
783.196	74.07
783.51	73.82
783.823	74.34
784.136	74.1
784.449	74.03
784.762	72.81
785.075	72.74
785.388	72.13
785.701	72.33
786.014	72.26
786.327	72.43
786.64	72.19
786.953	72.41
787.266	72.96
787.578	73.28
787.891	72.69
788.204	72.74
788.516	73.15
788.829	72.71
789.141	72.02
789.454	71.9
789.766	71.91
790.079	71.61
790.391	71.06
790.703	70.59
791.016	70.96
791.328	72.13
791.64	71.85
791.952	72.18
792.264	72.34
792.576	71.92
792.888	71.78
793.2	71.57
793.512	70.7
793.824	70
794.136	69.36
794.448	69.87
794.76	69.82
795.071	69.48
795.383	69.36
795.695	70.23
796.006	70.05
796.318	69.93
796.629	70.09
796.941	70.53
797.252	70.84
797.564	70.68
797.875	70.15
798.186	70.48
798.497	70.51
798.809	70.44
799.12	70.32
799.431	70.61
799.742	71.2
800.053	72.29
800.364	72.82
800.675	72.72
800.986	72.6
801.297	72.59
801.608	72.34
801.918	73.6
802.229	72.76
802.54	73.4
802.851	73.75
803.161	73.51
803.472	73.18
803.782	73.65
804.093	73.64
804.403	74.1
804.714	74.36
805.024	74.74
805.334	75.54
805.645	75.85
805.955	75.77
806.265	75.93
806.575	75
806.885	75.16
807.195	76.11
807.505	76.13
807.815	76.21
808.125	76.42
808.435	75.01
808.745	75.04
809.055	74.36
809.365	74.42
809.674	74.8
809.984	75.52
810.294	75.03
810.603	74.18
810.913	73.14
811.222	72.55
811.532	72.74
811.841	72.48
812.151	72.28
812.46	73.01
812.769	72.01
813.079	72.29
813.388	72.12
813.697	71.99
814.006	72.05
814.315	71.12
814.624	71.3
814.933	71.17
815.242	71.59
815.551	71.38
815.86	71.59
816.169	70.49
816.478	69.47
816.786	69.55
817.095	70.36
817.404	71.1
817.712	71.2
818.021	70.62
818.33	70.75
818.638	71.05
818.947	69.99
819.255	71.07
819.563	70.88
819.872	71.12
820.18	71.68
820.488	71.52
820.796	72.06
821.105	71.83
821.413	72.04
821.721	71.67
822.029	71.75
822.337	71.73
822.645	72.49
822.953	72.66
823.26	72.72
823.568	72.77
823.876	72.69
824.184	72.42
824.491	72.42
824.799	72.11
825.107	72
825.414	72.42
825.722	72.47
826.029	72.57
826.337	72.46
826.644	72.27
826.951	72.3
827.259	72.47
827.566	72.64
827.873	72.81
828.18	73.09
828.488	73.4
828.795	73.6
829.102	73.33
829.409	73.08
829.716	72.86
830.023	72.5
830.329	72.53
830.636	73.26
830.943	73.53
831.25	74.04
831.557	74.36
831.863	74.06
832.17	73.92
832.476	74.34
832.783	74.25
833.089	74.54
833.396	74.93
833.702	74.77
834.009	74.13
834.315	73.73
834.621	73.79
834.928	73.66
835.234	73.11
835.54	72.48
835.846	73.11
836.152	73.02
836.458	73.77
836.764	74.36
837.07	74.21
837.376	74.67
837.682	75.01
837.988	75.13
838.293	75.95
838.599	75.87
838.905	75.66
839.211	76.24
839.516	76.14
839.822	76.44
840.127	75.71
840.433	77.54
840.738	79.12
841.044	79.68
841.349	78.85
841.654	80.39
841.959	80.26
842.265	79.28
842.57	80.1
842.875	79.44
843.18	79.67
843.485	78.83
843.79	78.01
844.095	77.65
844.4	77.89
844.705	75.88
845.01	75.77
845.315	73.82
845.619	73.71
845.924	72.23
846.229	71.89
846.533	72.13
846.838	69.97
847.142	68.01
847.447	68.62
847.751	68.05
848.056	68.37
848.36	70.38
848.664	71.23
848.969	71.55
849.273	72.31
849.577	69.42
849.881	71.19
850.185	70.87
850.489	69.19
850.794	69.49
851.097	68.67
851.401	67.15
851.705	68.08
852.009	67.19
852.313	68.25
852.617	66.93
852.92	69.17
853.224	70.55
853.528	68.83
853.831	70.54
854.135	72.73
854.438	69.65
854.742	67.65
855.045	69
855.349	66.95
855.652	63.68
855.955	63.09
856.259	63.33
856.562	63.76
856.865	63.86
857.168	64.37
857.471	66.2
857.774	67.68
858.077	68.78
858.38	67.51
858.683	68.06
858.986	66.87
859.289	64.27
859.592	62.4
859.894	63.24
860.197	59.56
860.5	61.05
860.802	62.3
861.105	63.48
861.407	62.93
861.71	65.42
862.012	65.01
862.315	68.43
862.617	67.78
862.919	66.37
863.222	69.83
863.524	67.07
863.826	67.07
864.128	67.29
864.43	67.93
864.732	70.34
865.034	69.61
865.336	69.3
865.638	70.67
865.94	72.27
866.242	71.43
866.544	74.53
866.846	73.52
867.147	71.39
867.449	72.32
867.751	72.37
868.052	69.3
868.354	70.29
868.655	68.61
868.957	69.76
869.258	69.95
869.56	70.43
869.861	71.53
870.162	68.91
870.463	69.54
870.765	69.53
871.066	68.19
871.367	67.9
871.668	68.55
871.969	70.93
872.27	72.05
872.571	74.54
872.872	72.01
873.173	74.06
873.473	78.26
873.774	78.03
874.075	79.29
874.376	80.3
874.676	80.91
874.977	81.13
875.277	77.95
875.578	75.04
875.878	71.49
876.179	72.13
876.479	74.69
876.78	72.96
877.08	71.76
877.38	73.59
877.68	74.99
877.981	76.93
878.281	72.92
878.581	71.65
