Data from MVZ_BU26842_Reflection_00008.txt Node
Date: Tue Nov 19 12:18:26 EST 2019
User: vgr7
Spectrometer: USB2G7710
Scans to average: 3
Trigger mode: 4
Integration Time (sec): 2.000000E-2
Electric dark correction enabled: true
Boxcar width: 10
XAxis mode: Wavelengths
Number of Pixels in Spectrum: 2048
>>>>>Begin Spectral Data<<<<<
177.721	-12.75
178.105	-233.33
178.488	391.67
178.871	74.07
179.254	1300
179.636	3266.67
180.019	-705.56
180.402	254.55
180.785	44.44
181.168	-143.59
181.55	-45.83
181.933	-8.7
182.316	-20.3
182.698	-56.98
183.081	-25
183.463	-5.26
183.846	82.76
184.228	195.24
184.611	59.82
184.993	41.67
185.376	47.48
185.758	46.86
186.14	35.71
186.522	53.64
186.904	87.5
187.287	37.5
187.669	77.5
188.051	47.49
188.433	66.49
188.815	84.69
189.197	59.68
189.579	66.35
189.961	60.47
190.342	57.75
190.724	36.97
191.106	66.8
191.488	106.1
191.869	251.9
192.251	268.83
192.633	170.65
193.014	314.29
193.396	506.98
193.777	496.55
194.159	213.97
194.54	194.41
194.922	219.27
195.303	293.75
195.684	524.24
196.065	280.56
196.447	213.45
196.828	133.58
197.209	125.55
197.59	95.54
197.971	61.69
198.352	56.04
198.733	73.42
199.114	57.2
199.495	46.31
199.876	43.72
200.257	42.93
200.638	41.1
201.018	32.29
201.399	27.48
201.78	34.9
202.16	54.29
202.541	63.66
202.922	57.63
203.302	64.49
203.683	62.5
204.063	82.61
204.444	74.42
204.824	90.91
205.204	105.45
205.585	116.22
205.965	142.99
206.345	158.51
206.725	152.45
207.106	118.47
207.486	133.82
207.866	131.35
208.246	125.07
208.626	126.91
209.006	123.36
209.386	123.26
209.766	100
210.145	83.23
210.525	66.13
210.905	74.44
211.285	73.37
211.664	89.55
212.044	85.96
212.424	81.61
212.803	84.13
213.183	56.36
213.562	80.77
213.942	85.54
214.321	81.48
214.701	89.45
215.08	93.3
215.459	89.32
215.838	92.09
216.218	100
216.597	109.8
216.976	121.98
217.355	151.63
217.734	181.76
218.113	180.75
218.492	190.91
218.871	160.87
219.25	167.57
219.629	165.22
220.008	110.68
220.387	142.86
220.766	121.66
221.144	164.85
221.523	139.09
221.902	131.95
222.28	120.97
222.659	134.06
223.037	134.54
223.416	115.71
223.794	100
224.173	79.63
224.551	80.37
224.929	70.59
225.308	59.13
225.686	53.23
226.064	50.97
226.442	47.27
226.821	40.22
227.199	34.39
227.577	32.55
227.955	35.43
228.333	34.54
228.711	30.4
229.089	23.76
229.467	21.07
229.845	19.75
230.222	17.23
230.6	12.01
230.978	12.12
231.356	12.97
231.733	14.24
232.111	14.97
232.488	15.08
232.866	17.53
233.243	16.8
233.621	17.29
233.998	16.99
234.376	15.76
234.753	16.67
235.13	19.86
235.508	18.46
235.885	17.98
236.262	16.27
236.639	16.16
237.016	17.1
237.393	18.21
237.77	17.24
238.147	16.36
238.524	15
238.901	13.49
239.278	11.91
239.655	10.68
240.032	10.28
240.409	9.83
240.785	9.05
241.162	8.7
241.539	8.02
241.915	8.29
242.292	8.53
242.668	8.1
243.045	7.41
243.421	7.47
243.798	7.11
244.174	6.89
244.551	6.76
244.927	6.33
245.303	5.5
245.679	5.36
246.056	5.27
246.432	5.27
246.808	5.51
247.184	5.7
247.56	5.37
247.936	5.12
248.312	5.14
248.688	5.21
249.064	5.05
249.44	4.84
249.815	4.52
250.191	4.35
250.567	4.25
250.943	3.97
251.318	3.86
251.694	3.8
252.069	3.93
252.445	3.68
252.82	3.84
253.196	4.1
253.571	4.46
253.947	4.47
254.322	4.83
254.697	4.83
255.073	4.52
255.448	4.93
255.823	5.19
256.198	4.88
256.573	4.85
256.948	4.73
257.323	4.72
257.698	4.61
258.073	4.52
258.448	4.39
258.823	4.36
259.198	4.3
259.573	4.19
259.948	4.18
260.322	4.28
260.697	4.35
261.072	4.37
261.446	4.21
261.821	4.19
262.195	4.02
262.57	4.07
262.944	4.01
263.319	4.01
263.693	3.98
264.067	4.13
264.442	4.07
264.816	4.12
265.19	4.2
265.564	4.35
265.938	4.49
266.313	4.54
266.687	4.45
267.061	4.36
267.435	4.62
267.809	4.43
268.183	4.37
268.556	4.21
268.93	4.23
269.304	4.03
269.678	4.13
270.051	3.99
270.425	4.03
270.799	3.82
271.172	3.78
271.546	3.89
271.919	3.99
272.293	4.14
272.666	4.23
273.04	4.32
273.413	4.34
273.787	4.24
274.16	4.33
274.533	4.51
274.906	4.73
275.279	4.65
275.653	4.79
276.026	4.87
276.399	4.95
276.772	4.95
277.145	5.03
277.518	4.92
277.891	5.03
278.263	4.94
278.636	5.34
279.009	5.5
279.382	5.41
279.755	5.29
280.127	5.1
280.5	4.93
280.872	4.93
281.245	4.89
281.617	4.96
281.99	4.89
282.362	4.94
282.735	4.81
283.107	4.76
283.479	4.68
283.852	4.71
284.224	4.77
284.596	4.66
284.968	4.69
285.34	4.74
285.713	4.67
286.085	4.6
286.457	4.41
286.829	4.25
287.201	4.3
287.572	4.31
287.944	4.3
288.316	4.39
288.688	4.4
289.06	4.31
289.431	4.39
289.803	4.4
290.175	4.23
290.546	4.17
290.918	4.18
291.289	4.07
291.661	4.11
292.032	3.88
292.403	4.01
292.775	4.2
293.146	4.23
293.517	4.3
293.889	4.35
294.26	4.49
294.631	4.59
295.002	4.56
295.373	4.49
295.744	4.47
296.115	4.58
296.486	4.59
296.857	4.79
297.228	4.72
297.599	4.84
297.97	5.07
298.34	5.27
298.711	5.34
299.082	5.54
299.452	5.48
299.823	5.62
300.194	5.72
300.564	5.5
300.935	5.63
301.305	5.8
301.676	5.82
302.046	5.93
302.416	6.08
302.787	6.04
303.157	6.23
303.527	6.56
303.897	6.51
304.267	6.58
304.637	6.48
305.008	6.57
305.378	6.44
305.748	6.46
306.117	6.29
306.487	6.37
306.857	6.51
307.227	6.68
307.597	6.78
307.967	6.7
308.336	6.87
308.706	6.68
309.076	6.79
309.445	7.05
309.815	7.08
310.184	7.11
310.554	7.19
310.923	7.07
311.293	6.9
311.662	6.99
312.031	6.99
312.401	7.11
312.77	7.2
313.139	7.32
313.508	7.34
313.877	7.39
314.246	7.39
314.616	7.24
314.985	7.15
315.353	7.1
315.722	7.24
316.091	7.3
316.46	7.53
316.829	7.52
317.198	7.46
317.567	7.55
317.935	7.54
318.304	7.73
318.672	7.83
319.041	8.16
319.41	8.2
319.778	8.28
320.147	8.38
320.515	8.34
320.883	8.2
321.252	8.34
321.62	8.5
321.988	8.67
322.357	8.77
322.725	8.78
323.093	8.74
323.461	8.77
323.829	8.92
324.197	8.88
324.565	8.82
324.933	8.68
325.301	8.58
325.669	8.63
326.037	8.73
326.405	8.78
326.772	8.66
327.14	8.58
327.508	8.61
327.875	8.57
328.243	8.58
328.61	8.73
328.978	8.62
329.346	8.61
329.713	8.62
330.08	8.75
330.448	8.92
330.815	8.92
331.182	8.89
331.55	8.67
331.917	8.77
332.284	8.82
332.651	8.96
333.018	8.91
333.385	8.9
333.752	8.81
334.119	8.88
334.486	8.88
334.853	8.99
335.22	8.98
335.587	8.99
335.954	8.99
336.32	9.1
336.687	9.23
337.054	9.27
337.42	9.2
337.787	9.14
338.153	9.13
338.52	9.39
338.886	9.42
339.253	9.45
339.619	9.29
339.986	9.32
340.352	9.33
340.718	9.46
341.084	9.47
341.451	9.49
341.817	9.35
342.183	9.43
342.549	9.66
342.915	9.74
343.281	9.82
343.647	9.98
344.013	9.91
344.379	9.84
344.745	9.86
345.11	10.01
345.476	10.16
345.842	10.21
346.208	10.25
346.573	10.27
346.939	10.36
347.304	10.5
347.67	10.43
348.035	10.5
348.401	10.58
348.766	10.52
349.132	10.55
349.497	10.69
349.862	10.65
350.228	10.52
350.593	10.39
350.958	10.44
351.323	10.37
351.688	10.34
352.053	10.31
352.418	10.24
352.783	10.16
353.148	10.06
353.513	10.07
353.878	9.95
354.243	9.85
354.608	9.99
354.972	9.94
355.337	10.04
355.702	10.01
356.066	9.94
356.431	9.95
356.795	9.96
357.16	9.92
357.524	9.97
357.889	10.01
358.253	10.06
358.618	9.96
358.982	9.93
359.346	10
359.71	10
360.075	10.03
360.439	10.1
360.803	10.09
361.167	10.01
361.531	10.06
361.895	10.13
362.259	10
362.623	10.06
362.987	9.96
363.351	9.95
363.714	9.95
364.078	10
364.442	9.93
364.806	9.96
365.169	9.96
365.533	9.9
365.896	9.83
366.26	9.81
366.623	9.84
366.987	9.89
367.35	9.87
367.714	9.84
368.077	9.76
368.44	9.75
368.803	9.73
369.167	9.64
369.53	9.61
369.893	9.6
370.256	9.55
370.619	9.53
370.982	9.4
371.345	9.39
371.708	9.34
372.071	9.23
372.434	9.16
372.797	9.05
373.159	8.96
373.522	8.99
373.885	8.93
374.247	8.8
374.61	8.63
374.973	8.66
375.335	8.64
375.698	8.48
376.06	8.39
376.423	8.36
376.785	8.38
377.147	8.26
377.51	8.24
377.872	8.18
378.234	8.21
378.596	8.25
378.958	8.24
379.321	8.22
379.683	8.26
380.045	8.22
380.407	8.23
380.769	8.17
381.13	8.14
381.492	8.18
381.854	8.19
382.216	8.22
382.578	8.15
382.939	8.08
383.301	8.06
383.663	8.06
384.024	8.05
384.386	7.97
384.747	8
385.109	7.96
385.47	7.92
385.832	7.82
386.193	7.72
386.554	7.61
386.916	7.56
387.277	7.51
387.638	7.48
387.999	7.45
388.36	7.43
388.721	7.37
389.082	7.32
389.443	7.27
389.804	7.25
390.165	7.2
390.526	7.16
390.887	7.17
391.248	7.12
391.609	7.06
391.969	7.03
392.33	6.96
392.691	6.94
393.051	6.95
393.412	6.96
393.772	6.94
394.133	6.89
394.493	6.81
394.854	6.78
395.214	6.75
395.574	6.68
395.935	6.69
396.295	6.65
396.655	6.59
397.015	6.52
397.376	6.48
397.736	6.47
398.096	6.44
398.456	6.38
398.816	6.35
399.176	6.28
399.535	6.23
399.895	6.18
400.255	6.12
400.615	6.06
400.975	6
401.334	5.98
401.694	5.98
402.054	5.98
402.413	5.95
402.773	5.9
403.132	5.86
403.492	5.79
403.851	5.81
404.211	5.76
404.57	5.8
404.929	5.74
405.288	5.72
405.648	5.72
406.007	5.69
406.366	5.67
406.725	5.67
407.084	5.66
407.443	5.67
407.802	5.63
408.161	5.6
408.52	5.59
408.879	5.59
409.238	5.57
409.596	5.52
409.955	5.49
410.314	5.51
410.673	5.51
411.031	5.5
411.39	5.46
411.748	5.5
412.107	5.48
412.465	5.44
412.824	5.39
413.182	5.35
413.54	5.37
413.899	5.36
414.257	5.38
414.615	5.33
414.974	5.32
415.332	5.3
415.69	5.29
416.048	5.26
416.406	5.2
416.764	5.18
417.122	5.16
417.48	5.16
417.838	5.15
418.195	5.15
418.553	5.13
418.911	5.09
419.269	5.06
419.626	5.02
419.984	5.02
420.342	4.99
420.699	4.96
421.057	4.95
421.414	4.93
421.772	4.89
422.129	4.89
422.486	4.86
422.844	4.85
423.201	4.82
423.558	4.79
423.915	4.79
424.273	4.77
424.63	4.76
424.987	4.74
425.344	4.71
425.701	4.66
426.058	4.66
426.415	4.64
426.772	4.62
427.128	4.61
427.485	4.58
427.842	4.6
428.199	4.59
428.555	4.59
428.912	4.59
429.269	4.57
429.625	4.56
429.982	4.54
430.338	4.56
430.695	4.55
431.051	4.56
431.407	4.57
431.764	4.58
432.12	4.59
432.476	4.6
432.832	4.6
433.189	4.62
433.545	4.61
433.901	4.6
434.257	4.59
434.613	4.6
434.969	4.61
435.325	4.59
435.681	4.59
436.036	4.56
436.392	4.54
436.748	4.55
437.104	4.55
437.459	4.54
437.815	4.52
438.171	4.53
438.526	4.52
438.882	4.52
439.237	4.5
439.593	4.49
439.948	4.48
440.304	4.47
440.659	4.47
441.014	4.46
441.369	4.5
441.725	4.51
442.08	4.5
442.435	4.51
442.79	4.5
443.145	4.5
443.5	4.5
443.855	4.49
444.21	4.47
444.565	4.46
444.92	4.47
445.275	4.47
445.629	4.46
445.984	4.48
446.339	4.47
446.693	4.47
447.048	4.44
447.403	4.43
447.757	4.42
448.112	4.42
448.466	4.42
448.82	4.39
449.175	4.38
449.529	4.39
449.883	4.35
450.238	4.33
450.592	4.31
450.946	4.3
451.3	4.31
451.654	4.31
452.008	4.29
452.362	4.28
452.716	4.26
453.07	4.25
453.424	4.23
453.778	4.22
454.132	4.24
454.486	4.24
454.839	4.24
455.193	4.25
455.547	4.25
455.9	4.25
456.254	4.25
456.607	4.24
456.961	4.23
457.314	4.23
457.668	4.24
458.021	4.26
458.375	4.25
458.728	4.25
459.081	4.25
459.434	4.25
459.787	4.28
460.141	4.29
460.494	4.3
460.847	4.31
461.2	4.31
461.553	4.33
461.906	4.36
462.259	4.36
462.611	4.37
462.964	4.37
463.317	4.37
463.67	4.39
464.022	4.4
464.375	4.4
464.728	4.41
465.08	4.43
465.433	4.46
465.785	4.5
466.138	4.52
466.49	4.53
466.843	4.6
467.195	4.6
467.547	4.62
467.899	4.68
468.252	4.68
468.604	4.71
468.956	4.71
469.308	4.71
469.66	4.73
470.012	4.76
470.364	4.77
470.716	4.8
471.068	4.82
471.42	4.83
471.772	4.86
472.123	4.9
472.475	4.92
472.827	4.95
473.178	4.92
473.53	4.94
473.882	4.94
474.233	4.93
474.585	4.93
474.936	4.93
475.288	4.89
475.639	4.91
475.99	4.89
476.342	4.91
476.693	4.91
477.044	4.93
477.395	4.92
477.746	4.92
478.097	4.9
478.448	4.89
478.8	4.88
479.15	4.87
479.501	4.86
479.852	4.85
480.203	4.81
480.554	4.81
480.905	4.79
481.255	4.81
481.606	4.8
481.957	4.79
482.307	4.77
482.658	4.77
483.009	4.76
483.359	4.75
483.709	4.74
484.06	4.74
484.41	4.72
484.761	4.73
485.111	4.72
485.461	4.71
485.811	4.71
486.162	4.71
486.512	4.69
486.862	4.69
487.212	4.66
487.562	4.66
487.912	4.65
488.262	4.65
488.612	4.64
488.961	4.63
489.311	4.63
489.661	4.64
490.011	4.63
490.36	4.63
490.71	4.65
491.06	4.64
491.409	4.66
491.759	4.67
492.108	4.67
492.458	4.69
492.807	4.7
493.157	4.73
493.506	4.75
493.855	4.78
494.204	4.79
494.554	4.85
494.903	4.89
495.252	4.94
495.601	4.98
495.95	5.04
496.299	5.08
496.648	5.13
496.997	5.18
497.346	5.25
497.695	5.31
498.043	5.36
498.392	5.41
498.741	5.47
499.09	5.54
499.438	5.63
499.787	5.7
500.135	5.78
500.484	5.84
500.832	5.92
501.181	6.01
501.529	6.11
501.878	6.19
502.226	6.29
502.574	6.42
502.923	6.52
503.271	6.63
503.619	6.75
503.967	6.88
504.315	7
504.663	7.12
505.011	7.25
505.359	7.37
505.707	7.51
506.055	7.62
506.403	7.76
506.751	7.89
507.098	8.05
507.446	8.21
507.794	8.38
508.141	8.53
508.489	8.73
508.837	8.89
509.184	9.09
509.531	9.26
509.879	9.41
510.226	9.58
510.574	9.75
510.921	9.92
511.268	10.09
511.616	10.27
511.963	10.48
512.31	10.7
512.657	10.92
513.004	11.12
513.351	11.36
513.698	11.57
514.045	11.77
514.392	11.96
514.739	12.18
515.086	12.38
515.432	12.6
515.779	12.81
516.126	13.05
516.473	13.23
516.819	13.41
517.166	13.64
517.512	13.83
517.859	14.02
518.205	14.19
518.552	14.38
518.898	14.55
519.245	14.73
519.591	14.88
519.937	15.09
520.283	15.29
520.629	15.45
520.976	15.65
521.322	15.86
521.668	16.11
522.014	16.34
522.36	16.57
522.706	16.82
523.052	17.07
523.398	17.32
523.743	17.61
524.089	17.9
524.435	18.19
524.781	18.46
525.126	18.68
525.472	18.92
525.817	19.14
526.163	19.34
526.509	19.52
526.854	19.7
527.199	19.85
527.545	20.03
527.89	20.21
528.235	20.37
528.581	20.56
528.926	20.74
529.271	20.91
529.616	21.13
529.961	21.31
530.306	21.49
530.651	21.69
530.996	21.88
531.341	22.1
531.686	22.28
532.031	22.47
532.376	22.72
532.721	22.97
533.065	23.21
533.41	23.46
533.755	23.71
534.099	23.97
534.444	24.22
534.788	24.44
535.133	24.7
535.477	24.98
535.822	25.24
536.166	25.5
536.51	25.76
536.855	26.02
537.199	26.32
537.543	26.67
537.887	26.98
538.231	27.29
538.576	27.58
538.92	27.91
539.264	28.21
539.608	28.47
539.951	28.69
540.295	28.95
540.639	29.17
540.983	29.41
541.327	29.64
541.671	29.86
542.014	30.13
542.358	30.32
542.701	30.5
543.045	30.69
543.389	30.91
543.732	31.15
544.075	31.36
544.419	31.58
544.762	31.76
545.105	31.96
545.449	32.22
545.792	32.47
546.135	32.69
546.478	32.96
546.821	33.22
547.165	33.49
547.508	33.72
547.851	33.99
548.194	34.24
548.536	34.49
548.879	34.76
549.222	34.95
549.565	35.23
549.908	35.49
550.25	35.74
550.593	36.01
550.936	36.21
551.278	36.49
551.621	36.72
551.963	36.99
552.306	37.23
552.648	37.47
552.991	37.66
553.333	37.84
553.675	38.05
554.017	38.26
554.36	38.43
554.702	38.64
555.044	38.85
555.386	39.02
555.728	39.21
556.07	39.35
556.412	39.55
556.754	39.73
557.096	39.93
557.438	40.04
557.78	40.2
558.121	40.43
558.463	40.61
558.805	40.76
559.147	40.96
559.488	41.09
559.83	41.2
560.171	41.41
560.513	41.59
560.854	41.74
561.196	41.96
561.537	42.15
561.878	42.27
562.22	42.42
562.561	42.55
562.902	42.66
563.243	42.8
563.584	42.93
563.925	43.02
564.266	43.12
564.607	43.31
564.948	43.39
565.289	43.52
565.63	43.55
565.971	43.66
566.312	43.69
566.653	43.78
566.993	43.94
567.334	44.03
567.675	44.14
568.015	44.28
568.356	44.35
568.696	44.45
569.037	44.56
569.377	44.65
569.718	44.73
570.058	44.84
570.398	44.94
570.739	44.96
571.079	45.09
571.419	45.17
571.759	45.26
572.099	45.36
572.439	45.44
572.779	45.55
573.119	45.64
573.459	45.75
573.799	45.87
574.139	45.92
574.479	46.01
574.819	46.11
575.158	46.15
575.498	46.24
575.838	46.28
576.177	46.36
576.517	46.39
576.856	46.49
577.196	46.58
577.535	46.68
577.875	46.83
578.214	46.91
578.553	47.01
578.893	47.09
579.232	47.25
579.571	47.3
579.91	47.38
580.25	47.45
580.589	47.55
580.928	47.62
581.267	47.64
581.606	47.74
581.945	47.79
582.283	47.82
582.622	47.75
582.961	47.96
583.3	47.99
583.639	48.04
583.977	48.1
584.316	48.13
584.654	48.27
584.993	48.29
585.332	48.38
585.67	48.43
586.008	48.49
586.347	48.5
586.685	48.5
587.024	48.55
587.362	48.61
587.7	48.72
588.038	48.79
588.376	48.92
588.715	48.94
589.053	49.01
589.391	49.1
589.729	49.3
590.067	49.28
590.404	49.31
590.742	49.35
591.08	49.33
591.418	49.41
591.756	49.39
592.093	49.39
592.431	49.39
592.769	49.4
593.106	49.49
593.444	49.51
593.781	49.49
594.119	49.55
594.456	49.62
594.793	49.63
595.131	49.62
595.468	49.64
595.805	49.65
596.143	49.63
596.48	49.68
596.817	49.67
597.154	49.72
597.491	49.73
597.828	49.78
598.165	49.89
598.502	49.92
598.839	49.97
599.176	50.03
599.512	50.02
599.849	50.05
600.186	50.11
600.523	50.14
600.859	50.32
601.196	50.41
601.532	50.46
601.869	50.46
602.205	50.5
602.542	50.46
602.878	50.57
603.215	50.66
603.551	50.61
603.887	50.69
604.223	50.68
604.56	50.85
604.896	50.92
605.232	50.97
605.568	50.99
605.904	50.99
606.24	50.99
606.576	51.08
606.912	51.11
607.248	51.1
607.583	51.1
607.919	51.09
608.255	51.13
608.591	51.14
608.926	51.16
609.262	51.24
609.597	51.34
609.933	51.27
610.268	51.23
610.604	51.3
610.939	51.19
611.275	51.19
611.61	51.09
611.945	51.09
612.281	51.03
612.616	51.12
612.951	51.19
613.286	51.24
613.621	51.25
613.956	51.36
614.291	51.38
614.626	51.44
614.961	51.5
615.296	51.45
615.631	51.46
615.966	51.46
616.3	51.38
616.635	51.37
616.97	51.5
617.304	51.52
617.639	51.59
617.973	51.75
618.308	51.79
618.642	51.83
618.977	51.93
619.311	51.98
619.646	51.92
619.98	51.89
620.314	51.91
620.648	51.97
620.983	51.92
621.317	51.9
621.651	51.89
621.985	51.96
622.319	51.97
622.653	52.05
622.987	52.09
623.321	52.14
623.655	52.19
623.988	52.23
624.322	52.32
624.656	52.4
624.99	52.37
625.323	52.36
625.657	52.4
625.99	52.38
626.324	52.43
626.657	52.49
626.991	52.54
627.324	52.59
627.658	52.6
627.991	52.62
628.324	52.62
628.657	52.66
628.991	52.53
629.324	52.59
629.657	52.55
629.99	52.55
630.323	52.64
630.656	52.65
630.989	52.64
631.322	52.55
631.655	52.48
631.987	52.45
632.32	52.44
632.653	52.39
632.986	52.41
633.318	52.36
633.651	52.43
633.984	52.49
634.316	52.49
634.649	52.44
634.981	52.47
635.313	52.59
635.646	52.63
635.978	52.8
636.31	52.8
636.643	52.88
636.975	52.95
637.307	52.81
637.639	52.72
637.971	52.69
638.303	52.75
638.635	52.85
638.967	52.93
639.299	52.97
639.631	53.01
639.963	53.02
640.295	53.14
640.626	53.13
640.958	53.06
641.29	53.1
641.621	53.17
641.953	53.2
642.285	53.15
642.616	53.06
642.948	53.08
643.279	53.01
643.61	53.03
643.942	52.96
644.273	53.2
644.604	53.31
644.936	53.38
645.267	53.39
645.598	53.32
645.929	53.23
646.26	53.22
646.591	53.27
646.922	53.18
647.253	53.13
647.584	53.04
647.915	53.07
648.245	53.03
648.576	53.06
648.907	53.17
649.238	53.24
649.568	53.34
649.899	53.28
650.229	53.23
650.56	53.24
650.89	53.36
651.221	53.32
651.551	53.37
651.882	53.37
652.212	53.48
652.542	53.55
652.872	53.69
653.203	53.8
653.533	53.78
653.863	53.88
654.193	53.96
654.523	53.97
654.853	54.05
655.183	54.09
655.513	54.12
655.843	54.18
656.172	54.11
656.502	54.07
656.832	54.22
657.162	54.34
657.491	54.26
657.821	54.31
658.15	54.36
658.48	54.38
658.809	54.44
659.139	54.3
659.468	54.34
659.798	54.4
660.127	54.36
660.456	54.32
660.785	54.32
661.115	54.36
661.444	54.32
661.773	54.24
662.102	54.31
662.431	54.25
662.76	54.04
663.089	54.12
663.418	54.23
663.747	54.19
664.076	54.26
664.404	54.33
664.733	54.21
665.062	54.31
665.39	54.34
665.719	54.17
666.048	54.37
666.376	54.28
666.705	54.13
667.033	54.04
667.362	54.11
667.69	54.15
668.018	54.15
668.347	54.34
668.675	54.33
669.003	54.3
669.331	54.31
669.659	54.44
669.987	54.42
670.315	54.48
670.643	54.38
670.971	54.43
671.299	54.49
671.627	54.62
671.955	54.41
672.283	54.36
672.61	54.54
672.938	54.52
673.266	54.53
673.593	54.56
673.921	54.54
674.249	54.65
674.576	54.6
674.904	54.53
675.231	54.42
675.558	54.47
675.886	54.54
676.213	54.43
676.54	54.52
676.867	54.58
677.195	54.5
677.522	54.7
677.849	54.73
678.176	54.64
678.503	54.57
678.83	54.58
679.157	54.54
679.484	54.42
679.81	54.45
680.137	54.47
680.464	54.54
680.791	54.75
681.117	54.65
681.444	54.67
681.771	54.74
682.097	54.88
682.424	54.83
682.75	54.84
683.077	54.92
683.403	54.9
683.729	55.02
684.056	55.04
684.382	54.86
684.708	54.87
685.034	54.98
685.36	54.99
685.686	54.98
686.012	55.07
686.339	55.06
686.664	55.07
686.99	55.27
687.316	55.27
687.642	55.41
687.968	55.41
688.294	55.47
688.619	55.55
688.945	55.42
689.271	55.64
689.596	55.76
689.922	55.72
690.247	55.59
690.573	55.42
690.898	55.43
691.224	55.43
691.549	55.33
691.874	55.52
692.2	55.55
692.525	55.62
692.85	55.71
693.175	55.81
693.5	55.69
693.825	55.55
694.15	55.65
694.475	55.5
694.8	55.56
695.125	55.55
695.45	55.3
695.775	55.4
696.099	55.3
696.424	55.11
696.749	55.37
697.073	55.42
697.398	55.42
697.723	55.49
698.047	55.41
698.372	55.32
698.696	55.24
699.02	55.21
699.345	55.12
699.669	55.12
699.993	55.05
700.318	55.22
700.642	55.17
700.966	55.07
701.29	54.96
701.614	55.02
701.938	55.01
702.262	55.12
702.586	55.05
702.91	55.08
703.234	55.15
703.557	54.92
703.881	55.03
704.205	55.03
704.529	55.03
704.852	55.12
705.176	55.57
705.499	55.66
705.823	55.89
706.146	56.14
706.47	56.02
706.793	56.22
707.117	56.32
707.44	56.4
707.763	56.64
708.086	56.67
708.409	56.65
708.733	56.53
709.056	56.5
709.379	56.56
709.702	56.73
710.025	56.73
710.348	56.81
710.671	56.88
710.993	56.8
711.316	56.47
711.639	56.51
711.962	56.47
712.284	56.24
712.607	56.01
712.93	55.91
713.252	55.88
713.575	55.93
713.897	55.71
714.22	55.58
714.542	55.46
714.864	55.42
715.187	55.46
715.509	55.61
715.831	55.74
716.153	55.73
716.475	55.5
716.798	55.52
717.12	55.56
717.442	55.64
717.764	56
718.085	56.26
718.407	56.36
718.729	56.1
719.051	56.17
719.373	56.29
719.695	56.35
720.016	56.59
720.338	56.38
720.659	56.61
720.981	56.69
721.302	56.83
721.624	56.91
721.945	56.84
722.267	56.86
722.588	56.94
722.909	56.8
723.231	56.86
723.552	56.92
723.873	57.05
724.194	56.79
724.515	56.61
724.836	56.54
725.157	56.3
725.478	56.37
725.799	56.33
726.12	56.4
726.441	56.28
726.762	56.11
727.083	56.24
727.403	55.94
727.724	55.87
728.045	55.94
728.365	55.96
728.686	55.96
729.006	56.07
729.327	55.84
729.647	56.03
729.967	56.1
730.288	56.14
730.608	56.2
730.928	56.33
731.249	56.16
731.569	56.39
731.889	56.32
732.209	56.34
732.529	56.26
732.849	56.22
733.169	56.69
733.489	56.61
733.809	56.77
734.129	57
734.448	56.86
734.768	56.84
735.088	57
735.408	56.92
735.727	56.63
736.047	57.11
736.366	57.17
736.686	57.46
737.005	57.32
737.325	57.18
737.644	57.23
737.963	57.38
738.283	57.24
738.602	57.67
738.921	57.53
739.24	57.74
739.56	58.03
739.879	57.69
740.198	57.85
740.517	57.86
740.836	57.66
741.155	58.12
741.473	58.11
741.792	58.09
742.111	58.47
742.43	58.78
742.748	58.55
743.067	58.61
743.386	58.03
743.704	58.3
744.023	58.24
744.341	58.44
744.66	58.52
744.978	58.64
745.297	58.73
745.615	58.76
745.933	58.58
746.252	58.29
746.57	58.16
746.888	58.56
747.206	58.4
747.524	58.78
747.842	58.68
748.16	58.51
748.478	58.27
748.796	58.09
749.114	58.04
749.432	57.88
749.749	57.64
750.067	58.24
750.385	58.11
750.703	58.35
751.02	57.8
751.338	57.7
751.655	57.45
751.973	57.41
752.29	57.56
752.608	57.62
752.925	57.7
753.242	57.5
753.56	57.45
753.877	57.42
754.194	57.29
754.511	57.04
754.828	57.27
755.145	57.88
755.462	57.84
755.779	57.76
756.096	57.92
756.413	58.09
756.73	57.75
757.047	57.85
757.364	57.56
757.68	58.16
757.997	58
758.314	58.44
758.63	58.52
758.947	58.65
759.264	59.06
759.58	59.07
759.896	59.24
760.213	58.88
760.529	59.24
760.846	59.16
761.162	59.26
761.478	59.13
761.794	58.97
762.11	58.75
762.426	58.97
762.743	58.72
763.059	58.61
763.375	58.45
763.69	58.2
764.006	57.99
764.322	57.78
764.638	58.23
764.954	58
765.27	57.97
765.585	57.84
765.901	57.36
766.216	57.26
766.532	57.49
766.848	57.74
767.163	57.45
767.478	57.53
767.794	57.7
768.109	57.62
768.424	57.54
768.74	57.54
769.055	57.5
769.37	57.79
769.685	57.71
770	58.08
770.315	58.47
770.63	58.88
770.945	58.95
771.26	58.57
771.575	58.48
771.89	58.27
772.205	58.56
772.52	58.76
772.834	58.78
773.149	58.37
773.464	58.08
773.778	58.19
774.093	58.23
774.407	58.51
774.722	59.02
775.036	59.06
775.351	59.12
775.665	59.11
775.979	58.89
776.293	59.44
776.608	59.08
776.922	58.54
777.236	58.59
777.55	58.52
777.864	58.17
778.178	58.19
778.492	57.92
778.806	57.37
779.12	57.59
779.434	57.6
779.747	58.13
780.061	58.26
780.375	58.33
780.689	58.62
781.002	58.44
781.316	57.87
781.629	58.01
781.943	58.23
782.256	58.36
782.57	58.72
782.883	58.01
783.196	58.44
783.51	58.99
783.823	58.89
784.136	58.67
784.449	58.9
784.762	59.3
785.075	59.91
785.388	60.34
785.701	60.23
786.014	60.56
786.327	60.23
786.64	60.1
786.953	60.41
787.266	59.83
787.578	59.87
787.891	59.65
788.204	59.49
788.516	60.18
788.829	60.16
789.141	60.47
789.454	60.86
789.766	60.68
790.079	60.38
790.391	60.96
790.703	60.97
791.016	60.73
791.328	61.17
791.64	60.79
791.952	60.59
792.264	61.06
792.576	60.57
792.888	60.58
793.2	60.82
793.512	59.97
793.824	59.85
794.136	59.88
794.448	60.32
794.76	60.11
795.071	58.95
795.383	59.05
795.695	58.26
796.006	58.76
796.318	59.37
796.629	59.86
796.941	60.04
797.252	60.56
797.564	61.66
797.875	60.94
798.186	61.72
798.497	62.13
798.809	62.01
799.12	62.36
799.431	61.9
799.742	61.71
800.053	62.33
800.364	62.78
800.675	62.48
800.986	61.58
801.297	61.78
801.608	62.29
801.918	62.14
802.229	62.17
802.54	61.45
802.851	60.66
803.161	60.56
803.472	60.15
803.782	60.18
804.093	59.63
804.403	59.86
804.714	59.85
805.024	58.96
805.334	59.19
805.645	59.24
805.955	60.44
806.265	60.85
806.575	60.65
806.885	60.74
807.195	61.56
807.505	62.33
807.815	61.93
808.125	61.57
808.435	61.58
808.745	62.09
809.055	62.53
809.365	62.76
809.674	62.91
809.984	63.37
810.294	62.58
810.603	63.2
810.913	62.99
811.222	62.28
811.532	63.56
811.841	63.56
812.151	63.05
812.46	62.29
812.769	61.08
813.079	61.35
813.388	60.67
813.697	59.69
814.006	60.32
814.315	60.76
814.624	61.34
814.933	61.54
815.242	60.57
815.551	59.98
815.86	60.01
816.169	59.48
816.478	59.71
816.786	60.72
817.095	59.74
817.404	60.11
817.712	60.9
818.021	60.5
818.33	60.03
818.638	60.43
818.947	60.11
819.255	60.15
819.563	60.07
819.872	59.8
820.18	59.84
820.488	59.25
820.796	59.45
821.105	59.52
821.413	59.62
821.721	59.96
822.029	60.16
822.337	60.14
822.645	60.22
822.953	60.04
823.26	60.03
823.568	60.01
823.876	60.04
824.184	59.93
824.491	59.97
824.799	59.91
825.107	59.97
825.414	60.07
825.722	60.14
826.029	60
826.337	60.09
826.644	60.34
826.951	60.48
827.259	60.43
827.566	60.52
827.873	60.6
828.18	60.73
828.488	60.52
828.795	60.51
829.102	60.66
829.409	60.44
829.716	60.25
830.023	60.45
830.329	59.77
830.636	60.07
830.943	60.1
831.25	60.15
831.557	59.69
831.863	59.58
832.17	59.79
832.476	60.63
832.783	60.62
833.089	60.08
833.396	60.11
833.702	60.24
834.009	59.98
834.315	59.63
834.621	59.5
834.928	60.37
835.234	60.7
835.54	60.26
835.846	60.68
836.152	60.43
836.458	60.9
836.764	61.82
837.07	61.7
837.376	61.61
837.682	62.16
837.988	63.62
838.293	64.2
838.599	64.48
838.905	64.61
839.211	65.16
839.516	66.03
839.822	67.49
840.127	67.5
840.433	67.5
840.738	67.83
841.044	68.42
841.349	68.09
841.654	68.7
841.959	68.67
842.265	69.4
842.57	71.71
842.875	71.5
843.18	71.54
843.485	70.61
843.79	72
844.095	72.85
844.4	71.27
844.705	71
845.01	70.57
845.315	69.36
845.619	70.22
845.924	69.94
846.229	70.4
846.533	70.92
846.838	70.83
847.142	69.73
847.447	67.83
847.751	68.01
848.056	69.13
848.36	71.44
848.664	69.35
848.969	68.41
849.273	70.38
849.577	72.09
849.881	74.29
850.185	70.91
850.489	69.64
850.794	70.41
851.097	70.37
851.401	69.8
851.705	70.84
852.009	70.72
852.313	71.53
852.617	71.15
852.92	73.4
853.224	76.54
853.528	77.33
853.831	79.04
854.135	78.27
854.438	75.4
854.742	75.39
855.045	75.7
855.349	75.26
855.652	71.74
855.955	69.46
856.259	69.29
856.562	70.64
856.865	69.21
857.168	68.68
857.471	69.93
857.774	72.52
858.077	70.81
858.38	71.32
858.683	70.93
858.986	70.06
859.289	69.13
859.592	70.47
859.894	73.72
860.197	72.48
860.5	73.43
860.802	75.16
861.105	75.04
861.407	78.01
861.71	76.71
862.012	78.01
862.315	78.95
862.617	79.18
862.919	81.53
863.222	80.51
863.524	80.5
863.826	79.46
864.128	75.74
864.43	76.87
864.732	77.89
865.034	75.61
865.336	72.77
865.638	72.63
865.94	69.25
866.242	67.14
866.544	69.07
866.846	69.88
867.147	71.78
867.449	71.03
867.751	69.23
868.052	70.26
868.354	70.03
868.655	68.74
868.957	68.34
869.258	68.93
869.56	71.36
869.861	71.64
870.162	73.42
870.463	76.23
870.765	73.95
871.066	73.58
871.367	75.48
871.668	79.63
871.969	79.23
872.27	79.94
872.571	79.94
872.872	76.26
873.173	76.14
873.473	73.71
873.774	75.28
874.075	74.92
874.376	75.44
874.676	77.3
874.977	76.39
875.277	74.3
875.578	71.46
875.878	70.79
876.179	69.88
876.479	67.49
876.78	66.96
877.08	70.13
877.38	69.68
877.68	69.09
877.981	66.72
878.281	66.61
878.581	68.09
