Data from MVZ_BU147395_Reflection_00005.txt Node
Date: Tue Nov 19 12:04:58 EST 2019
User: vgr7
Spectrometer: USB2G7710
Scans to average: 3
Trigger mode: 4
Integration Time (sec): 2.000000E-2
Electric dark correction enabled: true
Boxcar width: 10
XAxis mode: Wavelengths
Number of Pixels in Spectrum: 2048
>>>>>Begin Spectral Data<<<<<
177.721	21.64
178.105	-7.29
178.488	45.73
178.871	53.77
179.254	50.5
179.636	45.09
180.019	1407.69
180.402	154.55
180.785	31.68
181.168	-6.94
181.55	-183.58
181.933	87.15
182.316	175.14
182.698	-4847.37
183.081	2291.49
183.463	1340.96
183.846	-1621.52
184.228	-1262.64
184.611	-264.82
184.993	-103.96
185.376	-41.52
185.758	-19.07
186.14	-33.89
186.522	3.27
186.904	-16.15
187.287	-12.32
187.669	-22.95
188.051	-24.63
188.433	-39.33
188.815	-57.72
189.197	-65.23
189.579	-63.15
189.961	-35.27
190.342	-41.82
190.724	-32.51
191.106	-37.07
191.488	-46.75
191.869	-39.83
192.251	-31.36
192.633	-41.86
193.014	-46.33
193.396	-41.26
193.777	-50.76
194.159	-56.64
194.54	-71.1
194.922	-79.15
195.303	-101.03
195.684	-102.14
196.065	-101.29
196.447	-86.27
196.828	-84.43
197.209	-83.42
197.59	-74.32
197.971	-75.09
198.352	-83.78
198.733	-93.86
199.114	-91.39
199.495	-83.63
199.876	-101.37
200.257	-109.59
200.638	-104.39
201.018	-150.52
201.399	-186.26
201.78	-193.84
202.16	-240.31
202.541	-331.66
202.922	-276.72
203.302	-306.59
203.683	-274.83
204.063	-242.51
204.444	-273.88
204.824	-265.16
205.204	-177.15
205.585	-201.41
205.965	-190.71
206.345	-157.7
206.725	-120.74
207.106	-112.17
207.486	-99.32
207.866	-94.21
208.246	-70.62
208.626	-87.32
209.006	-69.07
209.386	-63.4
209.766	-55.18
210.145	-52.68
210.525	-55.46
210.905	-50.89
211.285	-43.85
211.664	-36.77
212.044	-34.01
212.424	-24.75
212.803	-32.53
213.183	-44.96
213.562	-34.08
213.942	-58.28
214.321	-58.31
214.701	-87.7
215.08	-80.55
215.459	-77.53
215.838	-82.64
216.218	-85.2
216.597	-79.65
216.976	-109.14
217.355	-92.53
217.734	-113.96
218.113	-83.5
218.492	-78.46
218.871	-76.45
219.25	-69.65
219.629	-67.5
220.008	-62.88
220.387	-69.91
220.766	-56.98
221.144	-51.19
221.523	-66.03
221.902	-54.33
222.28	-51.26
222.659	-25.03
223.037	-25.71
223.416	-24.24
223.794	-19.46
224.173	-29.63
224.551	-22.34
224.929	-15.15
225.308	-19.27
225.686	-15.31
226.064	-21.63
226.442	-16.68
226.821	-16.23
227.199	-20.53
227.577	-21.49
227.955	-21.23
228.333	-15.53
228.711	-16.54
229.089	-16.49
229.467	-13.34
229.845	-12.14
230.222	-7.93
230.6	-10.96
230.978	-11.57
231.356	-11.42
231.733	-11.67
232.111	-8.43
232.488	-8.8
232.866	-7.73
233.243	-6.87
233.621	-7.06
233.998	-4.38
234.376	-3.69
234.753	-4.76
235.13	-3.95
235.508	-2.74
235.885	-4.34
236.262	-4.98
236.639	-4.05
237.016	-3.6
237.393	-2.08
237.77	-2.27
238.147	-2.41
238.524	-2.08
238.901	-1.35
239.278	-1.21
239.655	-0.32
240.032	-0.38
240.409	-0.06
240.785	-0.66
241.162	-0.14
241.539	-0.09
241.915	0.02
242.292	-0.04
242.668	0.65
243.045	1.5
243.421	1.59
243.798	2.4
244.174	2.31
244.551	2.63
244.927	2.93
245.303	2.79
245.679	3.04
246.056	3.18
246.432	3.28
246.808	3.39
247.184	3.63
247.56	3.33
247.936	3.44
248.312	3.61
248.688	3.87
249.064	3.66
249.44	3.82
249.815	3.89
250.191	4.15
250.567	4.1
250.943	4.02
251.318	3.99
251.694	3.88
252.069	4.03
252.445	3.96
252.82	3.91
253.196	4.04
253.571	3.78
253.947	3.72
254.322	3.77
254.697	3.68
255.073	3.62
255.448	3.63
255.823	3.8
256.198	3.26
256.573	3.26
256.948	3.32
257.323	3.3
257.698	3.33
258.073	3.33
258.448	3.39
258.823	3.43
259.198	3.52
259.573	3.33
259.948	3.39
260.322	3.19
260.697	3.21
261.072	3.2
261.446	3.26
261.821	3.16
262.195	3.17
262.57	3.15
262.944	3.22
263.319	3.35
263.693	3.15
264.067	3.31
264.442	3.24
264.816	3.3
265.19	3.18
265.564	3
265.938	2.75
266.313	2.56
266.687	2.3
267.061	2.35
267.435	2.52
267.809	2.45
268.183	2.65
268.556	2.48
268.93	2.52
269.304	2.54
269.678	2.68
270.051	2.74
270.425	2.72
270.799	2.47
271.172	2.59
271.546	2.71
271.919	2.84
272.293	2.91
272.666	3.01
273.04	3.02
273.413	3.12
273.787	3.2
274.16	3.23
274.533	3.33
274.906	3.36
275.279	3.29
275.653	3.37
276.026	3.3
276.399	3.52
276.772	3.54
277.145	3.56
277.518	3.46
277.891	3.33
278.263	3.54
278.636	3.75
279.009	3.7
279.382	3.69
279.755	3.59
280.127	3.48
280.5	3.49
280.872	3.61
281.245	3.59
281.617	3.68
281.99	3.71
282.362	3.7
282.735	3.49
283.107	3.5
283.479	3.49
283.852	3.54
284.224	3.51
284.596	3.51
284.968	3.5
285.34	3.47
285.713	3.63
286.085	3.42
286.457	3.35
286.829	3.38
287.201	3.28
287.572	3.3
287.944	3.46
288.316	3.32
288.688	3.42
289.06	3.39
289.431	3.4
289.803	3.47
290.175	3.49
290.546	3.58
290.918	3.57
291.289	3.37
291.661	3.41
292.032	3.43
292.403	3.39
292.775	3.44
293.146	3.51
293.517	3.41
293.889	3.53
294.26	3.54
294.631	3.65
295.002	3.8
295.373	3.77
295.744	3.77
296.115	3.85
296.486	3.8
296.857	3.92
297.228	3.74
297.599	3.72
297.97	3.69
298.34	3.7
298.711	3.89
299.082	3.94
299.452	3.86
299.823	3.91
300.194	3.94
300.564	3.85
300.935	3.92
301.305	3.95
301.676	3.87
302.046	3.72
302.416	3.59
302.787	3.59
303.157	3.51
303.527	3.5
303.897	3.48
304.267	3.48
304.637	3.35
305.008	3.43
305.378	3.48
305.748	3.46
306.117	3.43
306.487	3.3
306.857	3.38
307.227	3.51
307.597	3.48
307.967	3.52
308.336	3.6
308.706	3.5
309.076	3.48
309.445	3.58
309.815	3.71
310.184	3.66
310.554	3.69
310.923	3.78
311.293	3.73
311.662	3.81
312.031	3.8
312.401	3.79
312.77	3.87
313.139	3.82
313.508	3.77
313.877	3.79
314.246	3.75
314.616	3.89
314.985	3.77
315.353	3.71
315.722	3.69
316.091	3.64
316.46	3.57
316.829	3.63
317.198	3.6
317.567	3.71
317.935	3.75
318.304	3.71
318.672	3.76
319.041	3.73
319.41	3.57
319.778	3.57
320.147	3.6
320.515	3.55
320.883	3.52
321.252	3.64
321.62	3.62
321.988	3.6
322.357	3.42
322.725	3.51
323.093	3.37
323.461	3.38
323.829	3.53
324.197	3.66
324.565	3.66
324.933	3.56
325.301	3.43
325.669	3.34
326.037	3.28
326.405	3.27
326.772	3.38
327.14	3.4
327.508	3.37
327.875	3.42
328.243	3.43
328.61	3.43
328.978	3.39
329.346	3.49
329.713	3.56
330.08	3.62
330.448	3.71
330.815	3.87
331.182	3.74
331.55	3.69
331.917	3.64
332.284	3.61
332.651	3.76
333.018	3.8
333.385	3.78
333.752	3.84
334.119	3.9
334.486	3.84
334.853	3.89
335.22	3.98
335.587	4
335.954	4.04
336.32	4.1
336.687	4.18
337.054	4.08
337.42	4
337.787	4.1
338.153	4
338.52	4.04
338.886	4.17
339.253	4.1
339.619	4.14
339.986	4.09
340.352	3.99
340.718	3.99
341.084	4.1
341.451	4.07
341.817	4.01
342.183	3.97
342.549	3.95
342.915	3.85
343.281	3.81
343.647	3.92
344.013	3.9
344.379	3.83
344.745	3.8
345.11	3.79
345.476	3.8
345.842	3.87
346.208	3.82
346.573	3.87
346.939	3.86
347.304	3.83
347.67	3.9
348.035	3.99
348.401	4.07
348.766	4.1
349.132	4.12
349.497	4.09
349.862	4.13
350.228	4.21
350.593	4.22
350.958	4.33
351.323	4.2
351.688	4.26
352.053	4.31
352.418	4.39
352.783	4.43
353.148	4.37
353.513	4.27
353.878	4.27
354.243	4.15
354.608	4.21
354.972	4.23
355.337	4.19
355.702	4.12
356.066	4.15
356.431	4.13
356.795	4.14
357.16	4.14
357.524	4.12
357.889	4.03
358.253	4.05
358.618	3.99
358.982	3.98
359.346	3.95
359.71	3.95
360.075	3.95
360.439	4.01
360.803	3.97
361.167	4.02
361.531	4.09
361.895	4.13
362.259	4.11
362.623	4.1
362.987	4.15
363.351	4.16
363.714	4.08
364.078	4.12
364.442	4.1
364.806	4.08
365.169	4.09
365.533	4.14
365.896	4.16
366.26	4.13
366.623	4.12
366.987	4.13
367.35	4.19
367.714	4.16
368.077	4.17
368.44	4.26
368.803	4.28
369.167	4.17
369.53	4.18
369.893	4.23
370.256	4.25
370.619	4.21
370.982	4.19
371.345	4.2
371.708	4.13
372.071	4.15
372.434	4.18
372.797	4.17
373.159	4.1
373.522	4.06
373.885	4.08
374.247	4.1
374.61	4.1
374.973	4.02
375.335	4.07
375.698	3.98
376.06	3.92
376.423	3.9
376.785	3.94
377.147	3.85
377.51	3.82
377.872	3.85
378.234	3.9
378.596	3.93
378.958	3.96
379.321	3.96
379.683	4
380.045	4.01
380.407	3.99
380.769	4.06
381.13	4.04
381.492	4.03
381.854	4.01
382.216	4.01
382.578	4.06
382.939	4.04
383.301	4.06
383.663	4.06
384.024	4.07
384.386	4.05
384.747	4.11
385.109	4.11
385.47	4.1
385.832	4.05
386.193	4.05
386.554	4
386.916	3.99
387.277	3.93
387.638	3.92
387.999	3.97
388.36	3.95
388.721	3.98
389.082	4.03
389.443	4.05
389.804	4.07
390.165	4.07
390.526	4.05
390.887	4.02
391.248	4.01
391.609	4.04
391.969	4.06
392.33	4.01
392.691	4
393.051	3.99
393.412	3.99
393.772	4
394.133	4.03
394.493	4.05
394.854	4.1
395.214	4.09
395.574	4.07
395.935	4.07
396.295	4.06
396.655	3.99
397.015	4
397.376	3.99
397.736	3.97
398.096	3.98
398.456	4
398.816	4
399.176	3.92
399.535	3.93
399.895	3.95
400.255	3.97
400.615	3.96
400.975	3.97
401.334	3.96
401.694	3.95
402.054	3.94
402.413	3.91
402.773	3.91
403.132	3.92
403.492	3.94
403.851	3.92
404.211	3.93
404.57	3.95
404.929	3.95
405.288	3.98
405.648	3.97
406.007	3.97
406.366	3.99
406.725	4
407.084	4
407.443	4.03
407.802	4
408.161	4.03
408.52	4.03
408.879	4.01
409.238	4.01
409.596	4.05
409.955	4.05
410.314	4.06
410.673	4.08
411.031	4.03
411.39	4.05
411.748	4.07
412.107	4.03
412.465	4.01
412.824	3.97
413.182	3.96
413.54	3.98
413.899	3.96
414.257	3.98
414.615	3.97
414.974	3.95
415.332	3.98
415.69	3.95
416.048	3.93
416.406	3.9
416.764	3.91
417.122	3.89
417.48	3.91
417.838	3.92
418.195	3.91
418.553	3.93
418.911	3.95
419.269	3.95
419.626	3.96
419.984	3.97
420.342	3.98
420.699	3.99
421.057	3.98
421.414	4
421.772	4
422.129	3.98
422.486	3.97
422.844	3.98
423.201	3.99
423.558	4.01
423.915	4.02
424.273	4.03
424.63	4.02
424.987	4.01
425.344	4.02
425.701	4.01
426.058	4.01
426.415	4
426.772	4.01
427.128	4.01
427.485	3.99
427.842	3.98
428.199	3.98
428.555	3.97
428.912	3.95
429.269	3.95
429.625	3.96
429.982	3.98
430.338	3.95
430.695	3.92
431.051	3.93
431.407	3.94
431.764	3.94
432.12	3.95
432.476	3.95
432.832	3.93
433.189	3.92
433.545	3.93
433.901	3.94
434.257	3.94
434.613	3.94
434.969	3.94
435.325	3.96
435.681	3.97
436.036	3.98
436.392	3.99
436.748	4
437.104	4.02
437.459	4.01
437.815	4.02
438.171	4.03
438.526	4.03
438.882	4.04
439.237	4.04
439.593	4.04
439.948	4.04
440.304	4.05
440.659	4.06
441.014	4.06
441.369	4.06
441.725	4.05
442.08	4.03
442.435	4.03
442.79	4.02
443.145	4.01
443.5	3.99
443.855	3.99
444.21	3.99
444.565	3.99
444.92	3.99
445.275	4
445.629	4.01
445.984	3.99
446.339	3.99
446.693	3.99
447.048	3.98
447.403	3.96
447.757	3.96
448.112	3.96
448.466	3.97
448.82	3.98
449.175	3.99
449.529	4.01
449.883	4.01
450.238	4.02
450.592	4.03
450.946	4.04
451.3	4.05
451.654	4.02
452.008	4.01
452.362	4
452.716	4
453.07	3.96
453.424	3.96
453.778	3.93
454.132	3.92
454.486	3.92
454.839	3.93
455.193	3.94
455.547	3.94
455.9	3.91
456.254	3.88
456.607	3.89
456.961	3.89
457.314	3.88
457.668	3.88
458.021	3.86
458.375	3.86
458.728	3.87
459.081	3.89
459.434	3.9
459.787	3.9
460.141	3.9
460.494	3.91
460.847	3.9
461.2	3.94
461.553	3.94
461.906	3.96
462.259	3.96
462.611	3.95
462.964	3.95
463.317	3.97
463.67	3.97
464.022	3.96
464.375	3.96
464.728	3.95
465.08	3.96
465.433	3.98
465.785	3.98
466.138	3.98
466.49	3.96
466.843	3.97
467.195	3.98
467.547	3.98
467.899	4.03
468.252	4.05
468.604	4.03
468.956	4.04
469.308	4.04
469.66	4.06
470.012	4.06
470.364	4.06
470.716	4.09
471.068	4.13
471.42	4.15
471.772	4.15
472.123	4.17
472.475	4.16
472.827	4.16
473.178	4.18
473.53	4.19
473.882	4.2
474.233	4.19
474.585	4.19
474.936	4.19
475.288	4.15
475.639	4.16
475.99	4.17
476.342	4.16
476.693	4.17
477.044	4.16
477.395	4.16
477.746	4.16
478.097	4.14
478.448	4.13
478.8	4.13
479.15	4.15
479.501	4.15
479.852	4.17
480.203	4.19
480.554	4.19
480.905	4.18
481.255	4.18
481.606	4.2
481.957	4.2
482.307	4.21
482.658	4.21
483.009	4.21
483.359	4.21
483.709	4.22
484.06	4.22
484.41	4.22
484.761	4.24
485.111	4.23
485.461	4.22
485.811	4.23
486.162	4.23
486.512	4.22
486.862	4.23
487.212	4.22
487.562	4.21
487.912	4.21
488.262	4.22
488.612	4.21
488.961	4.2
489.311	4.2
489.661	4.2
490.011	4.2
490.36	4.19
490.71	4.18
491.06	4.17
491.409	4.16
491.759	4.16
492.108	4.13
492.458	4.14
492.807	4.15
493.157	4.13
493.506	4.13
493.855	4.13
494.204	4.11
494.554	4.1
494.903	4.1
495.252	4.1
495.601	4.1
495.95	4.1
496.299	4.11
496.648	4.11
496.997	4.1
497.346	4.12
497.695	4.13
498.043	4.15
498.392	4.17
498.741	4.19
499.09	4.22
499.438	4.24
499.787	4.25
500.135	4.24
500.484	4.26
500.832	4.26
501.181	4.27
501.529	4.29
501.878	4.32
502.226	4.35
502.574	4.36
502.923	4.36
503.271	4.39
503.619	4.39
503.967	4.4
504.315	4.43
504.663	4.41
505.011	4.41
505.359	4.39
505.707	4.39
506.055	4.39
506.403	4.39
506.751	4.39
507.098	4.41
507.446	4.42
507.794	4.45
508.141	4.45
508.489	4.44
508.837	4.44
509.184	4.45
509.531	4.44
509.879	4.42
510.226	4.4
510.574	4.4
510.921	4.42
511.268	4.44
511.616	4.45
511.963	4.45
512.31	4.47
512.657	4.49
513.004	4.49
513.351	4.49
513.698	4.49
514.045	4.49
514.392	4.51
514.739	4.53
515.086	4.51
515.432	4.53
515.779	4.54
516.126	4.57
516.473	4.57
516.819	4.6
517.166	4.62
517.512	4.64
517.859	4.66
518.205	4.65
518.552	4.63
518.898	4.63
519.245	4.63
519.591	4.62
519.937	4.63
520.283	4.64
520.629	4.64
520.976	4.65
521.322	4.65
521.668	4.64
522.014	4.66
522.36	4.68
522.706	4.69
523.052	4.71
523.398	4.71
523.743	4.74
524.089	4.74
524.435	4.76
524.781	4.77
525.126	4.78
525.472	4.79
525.817	4.8
526.163	4.81
526.509	4.8
526.854	4.82
527.199	4.83
527.545	4.83
527.89	4.84
528.235	4.85
528.581	4.87
528.926	4.86
529.271	4.85
529.616	4.86
529.961	4.85
530.306	4.84
530.651	4.83
530.996	4.83
531.341	4.84
531.686	4.84
532.031	4.83
532.376	4.82
532.721	4.81
533.065	4.82
533.41	4.82
533.755	4.83
534.099	4.83
534.444	4.82
534.788	4.82
535.133	4.81
535.477	4.81
535.822	4.8
536.166	4.82
536.51	4.83
536.855	4.82
537.199	4.83
537.543	4.85
537.887	4.86
538.231	4.85
538.576	4.84
538.92	4.86
539.264	4.86
539.608	4.86
539.951	4.88
540.295	4.87
540.639	4.88
540.983	4.89
541.327	4.88
541.671	4.9
542.014	4.92
542.358	4.92
542.701	4.92
543.045	4.92
543.389	4.94
543.732	4.93
544.075	4.94
544.419	4.94
544.762	4.94
545.105	4.94
545.449	4.94
545.792	4.94
546.135	4.94
546.478	4.95
546.821	4.96
547.165	4.95
547.508	4.96
547.851	4.94
548.194	4.93
548.536	4.92
548.879	4.89
549.222	4.86
549.565	4.84
549.908	4.83
550.25	4.83
550.593	4.81
550.936	4.81
551.278	4.81
551.621	4.8
551.963	4.81
552.306	4.82
552.648	4.82
552.991	4.81
553.333	4.8
553.675	4.82
554.017	4.8
554.36	4.82
554.702	4.82
555.044	4.84
555.386	4.86
555.728	4.88
556.07	4.91
556.412	4.92
556.754	4.9
557.096	4.9
557.438	4.87
557.78	4.87
558.121	4.89
558.463	4.88
558.805	4.85
559.147	4.84
559.488	4.8
559.83	4.84
560.171	4.87
560.513	4.88
560.854	4.87
561.196	4.92
561.537	4.92
561.878	4.95
562.22	4.93
562.561	4.92
562.902	4.9
563.243	4.91
563.584	4.92
563.925	4.97
564.266	4.98
564.607	5
564.948	4.99
565.289	4.96
565.63	4.95
565.971	4.99
566.312	4.96
566.653	4.98
566.993	4.96
567.334	4.96
567.675	4.94
568.015	4.92
568.356	4.88
568.696	4.89
569.037	4.87
569.377	4.87
569.718	4.87
570.058	4.88
570.398	4.84
570.739	4.83
571.079	4.82
571.419	4.81
571.759	4.82
572.099	4.8
572.439	4.81
572.779	4.83
573.119	4.83
573.459	4.83
573.799	4.84
574.139	4.83
574.479	4.83
574.819	4.85
575.158	4.89
575.498	4.9
575.838	4.87
576.177	4.85
576.517	4.87
576.856	4.86
577.196	4.85
577.535	4.9
577.875	4.94
578.214	4.96
578.553	4.97
578.893	4.97
579.232	4.99
579.571	5.03
579.91	5.04
580.25	5.03
580.589	5.06
580.928	5.02
581.267	5.01
581.606	5.02
581.945	5.01
582.283	4.95
582.622	4.93
582.961	4.94
583.3	4.97
583.639	4.98
583.977	5.04
584.316	5.1
584.654	5.07
584.993	5.01
585.332	5
585.67	5
586.008	5.01
586.347	5.05
586.685	5.01
587.024	4.98
587.362	5.01
587.7	5.01
588.038	5.07
588.376	5.06
588.715	5.05
589.053	5.05
589.391	5.05
589.729	5.1
590.067	5.11
590.404	5.12
590.742	5.09
591.08	5.06
591.418	5.05
591.756	5.07
592.093	5.09
592.431	5.09
592.769	5.13
593.106	5.13
593.444	5.13
593.781	5.16
594.119	5.18
594.456	5.18
594.793	5.15
595.131	5.15
595.468	5.18
595.805	5.2
596.143	5.19
596.48	5.2
596.817	5.2
597.154	5.2
597.491	5.22
597.828	5.22
598.165	5.24
598.502	5.22
598.839	5.2
599.176	5.23
599.512	5.17
599.849	5.13
600.186	5.1
600.523	5.09
600.859	5.11
601.196	5.11
601.532	5.07
601.869	5.1
602.205	5.09
602.542	5.09
602.878	5.09
603.215	5.09
603.551	5.08
603.887	5.11
604.223	5.1
604.56	5.1
604.896	5.14
605.232	5.14
605.568	5.13
605.904	5.16
606.24	5.14
606.576	5.22
606.912	5.24
607.248	5.28
607.583	5.28
607.919	5.26
608.255	5.26
608.591	5.31
608.926	5.32
609.262	5.33
609.597	5.29
609.933	5.29
610.268	5.3
610.604	5.33
610.939	5.33
611.275	5.36
611.61	5.34
611.945	5.28
612.281	5.29
612.616	5.33
612.951	5.35
613.286	5.4
613.621	5.33
613.956	5.34
614.291	5.31
614.626	5.31
614.961	5.31
615.296	5.34
615.631	5.33
615.966	5.32
616.3	5.32
616.635	5.38
616.97	5.36
617.304	5.35
617.639	5.37
617.973	5.36
618.308	5.3
618.642	5.29
618.977	5.28
619.311	5.25
619.646	5.23
619.98	5.2
620.314	5.19
620.648	5.22
620.983	5.21
621.317	5.22
621.651	5.19
621.985	5.15
622.319	5.1
622.653	5.07
622.987	5.08
623.321	5.09
623.655	5.09
623.988	5.11
624.322	5.14
624.656	5.17
624.99	5.18
625.323	5.14
625.657	5.2
625.99	5.22
626.324	5.22
626.657	5.19
626.991	5.21
627.324	5.21
627.658	5.2
627.991	5.21
628.324	5.24
628.657	5.26
628.991	5.31
629.324	5.32
629.657	5.31
629.99	5.34
630.323	5.33
630.656	5.36
630.989	5.34
631.322	5.33
631.655	5.27
631.987	5.28
632.32	5.3
632.653	5.23
632.986	5.19
633.318	5.24
633.651	5.24
633.984	5.26
634.316	5.23
634.649	5.25
634.981	5.23
635.313	5.26
635.646	5.27
635.978	5.3
636.31	5.34
636.643	5.35
636.975	5.33
637.307	5.33
637.639	5.29
637.971	5.28
638.303	5.24
638.635	5.29
638.967	5.23
639.299	5.25
639.631	5.26
639.963	5.37
640.295	5.36
640.626	5.37
640.958	5.35
641.29	5.38
641.621	5.38
641.953	5.34
642.285	5.24
642.616	5.26
642.948	5.19
643.279	5.16
643.61	5.2
643.942	5.13
644.273	5.14
644.604	5.17
644.936	5.2
645.267	5.19
645.598	5.21
645.929	5.2
646.26	5.22
646.591	5.28
646.922	5.26
647.253	5.3
647.584	5.24
647.915	5.26
648.245	5.19
648.576	5.19
648.907	5.23
649.238	5.28
649.568	5.22
649.899	5.26
650.229	5.27
650.56	5.29
650.89	5.31
651.221	5.35
651.551	5.34
651.882	5.34
652.212	5.41
652.542	5.39
652.872	5.4
653.203	5.45
653.533	5.46
653.863	5.49
654.193	5.44
654.523	5.45
654.853	5.49
655.183	5.55
655.513	5.53
655.843	5.53
656.172	5.58
656.502	5.56
656.832	5.55
657.162	5.55
657.491	5.51
657.821	5.52
658.15	5.53
658.48	5.55
658.809	5.56
659.139	5.54
659.468	5.54
659.798	5.58
660.127	5.52
660.456	5.47
660.785	5.37
661.115	5.38
661.444	5.39
661.773	5.38
662.102	5.34
662.431	5.38
662.76	5.41
663.089	5.4
663.418	5.5
663.747	5.46
664.076	5.5
664.404	5.56
664.733	5.6
665.062	5.59
665.39	5.54
665.719	5.56
666.048	5.61
666.376	5.58
666.705	5.52
667.033	5.59
667.362	5.63
667.69	5.74
668.018	5.78
668.347	5.77
668.675	5.73
669.003	5.74
669.331	5.71
669.659	5.73
669.987	5.76
670.315	5.74
670.643	5.77
670.971	5.8
671.299	5.8
671.627	5.8
671.955	5.76
672.283	5.79
672.61	5.71
672.938	5.7
673.266	5.8
673.593	5.84
673.921	5.84
674.249	5.79
674.576	5.81
674.904	5.75
675.231	5.73
675.558	5.78
675.886	5.82
676.213	5.75
676.54	5.74
676.867	5.67
677.195	5.63
677.522	5.66
677.849	5.57
678.176	5.47
678.503	5.4
678.83	5.41
679.157	5.46
679.484	5.56
679.81	5.59
680.137	5.58
680.464	5.59
680.791	5.52
681.117	5.58
681.444	5.51
681.771	5.59
682.097	5.68
682.424	5.65
682.75	5.66
683.077	5.68
683.403	5.65
683.729	5.62
684.056	5.69
684.382	5.7
684.708	5.72
685.034	5.77
685.36	5.76
685.686	5.77
686.012	5.72
686.339	5.68
686.664	5.57
686.99	5.45
687.316	5.5
687.642	5.52
687.968	5.55
688.294	5.58
688.619	5.45
688.945	5.44
689.271	5.4
689.596	5.44
689.922	5.56
690.247	5.56
690.573	5.54
690.898	5.5
691.224	5.53
691.549	5.73
691.874	5.79
692.2	5.85
692.525	5.89
692.85	5.91
693.175	5.94
693.5	6.05
693.825	6.24
694.15	6.32
694.475	6.31
694.8	6.3
695.125	6.3
695.45	6.32
695.775	6.33
696.099	6.46
696.424	6.46
696.749	6.44
697.073	6.39
697.398	6.42
697.723	6.42
698.047	6.38
698.372	6.28
698.696	6.18
699.02	6.23
699.345	6.18
699.669	6.21
699.993	6.13
700.318	6.21
700.642	6.18
700.966	6.11
701.29	6.16
701.614	6.24
701.938	6.3
702.262	6.3
702.586	6.28
702.91	6.23
703.234	6.23
703.557	6.3
703.881	6.39
704.205	6.46
704.529	6.47
704.852	6.4
705.176	6.44
705.499	6.58
705.823	6.65
706.146	6.78
706.47	6.88
706.793	6.98
707.117	6.77
707.44	6.73
707.763	6.63
708.086	6.63
708.409	6.55
708.733	6.42
709.056	6.46
709.379	6.6
709.702	6.56
710.025	6.61
710.348	6.47
710.671	6.54
710.993	6.51
711.316	6.53
711.639	6.55
711.962	6.56
712.284	6.5
712.607	6.51
712.93	6.33
713.252	6.2
713.575	6.27
713.897	6.37
714.22	6.36
714.542	6.43
714.864	6.33
715.187	6.4
715.509	6.51
715.831	6.55
716.153	6.42
716.475	6.37
716.798	6.29
717.12	6.37
717.442	6.21
717.764	6.17
718.085	6.18
718.407	6.22
718.729	6.16
719.051	6.16
719.373	6.11
719.695	6.25
720.016	6.34
720.338	6.26
720.659	6.33
720.981	6.23
721.302	6.32
721.624	6.4
721.945	6.27
722.267	6.21
722.588	6.12
722.909	6.16
723.231	6.21
723.552	6.19
723.873	6.17
724.194	6.35
724.515	6.5
724.836	6.41
725.157	6.5
725.478	6.56
725.799	6.67
726.12	6.56
726.441	6.55
726.762	6.46
727.083	6.46
727.403	6.45
727.724	6.63
728.045	6.66
728.365	6.73
728.686	6.73
729.006	6.66
729.327	6.82
729.647	6.87
729.967	6.85
730.288	6.85
730.608	6.94
730.928	6.93
731.249	6.97
731.569	6.96
731.889	7.01
732.209	6.93
732.529	6.89
732.849	6.79
733.169	6.89
733.489	6.95
733.809	6.89
734.129	6.85
734.448	6.93
734.768	6.65
735.088	6.67
735.408	6.7
735.727	6.84
736.047	6.74
736.366	6.66
736.686	6.69
737.005	6.82
737.325	6.74
737.644	6.7
737.963	6.7
738.283	6.77
738.602	6.72
738.921	6.95
739.24	7.13
739.56	7.36
739.879	7.12
740.198	7.14
740.517	7.14
740.836	7
741.155	6.97
741.473	7.16
741.792	7.1
742.111	7.11
742.43	7.4
742.748	7.43
743.067	7.57
743.386	7.48
743.704	7.5
744.023	7.66
744.341	7.63
744.66	7.44
744.978	7.33
745.297	7.48
745.615	7.16
745.933	6.97
746.252	6.86
746.57	6.98
746.888	6.95
747.206	7.15
747.524	7.28
747.842	6.95
748.16	7.16
748.478	7.04
748.796	7.11
749.114	6.91
749.432	7.1
749.749	6.89
750.067	6.96
750.385	6.82
750.703	6.65
751.02	7.02
751.338	7.13
751.655	7.18
751.973	6.94
752.29	6.98
752.608	6.95
752.925	7.08
753.242	7.19
753.56	7.25
753.877	7.27
754.194	7.31
754.511	7.42
754.828	7.15
755.145	7.4
755.462	7.33
755.779	7.22
756.096	7.1
756.413	7.16
756.73	7.12
757.047	7.02
757.364	7
757.68	6.65
757.997	6.73
758.314	6.73
758.63	6.82
758.947	6.83
759.264	6.95
759.58	6.93
759.896	7.03
760.213	7.14
760.529	7.04
760.846	7.26
761.162	7.21
761.478	7.27
761.794	7.35
762.11	7.31
762.426	7.16
762.743	7.02
763.059	7.14
763.375	7.03
763.69	7.24
764.006	7.26
764.322	7.42
764.638	7.49
764.954	7.65
765.27	7.76
765.585	7.85
765.901	7.52
766.216	7.35
766.532	7.3
766.848	6.97
767.163	6.78
767.478	6.53
767.794	6.52
768.109	6.51
768.424	6.25
768.74	6.22
769.055	6.48
769.37	6.46
769.685	6.34
770	6.57
770.315	6.51
770.63	6.67
770.945	6.42
771.26	6
771.575	5.7
771.89	5.36
772.205	5.1
772.52	5.71
772.834	6.08
773.149	6.39
773.464	6.66
773.778	7.04
774.093	7.33
774.407	7.46
774.722	7.25
775.036	7.62
775.351	7.72
775.665	7.6
775.979	7.46
776.293	7.28
776.608	7.1
776.922	6.89
777.236	6.71
777.55	6.63
777.864	7.04
778.178	7.31
778.492	7.49
778.806	7.86
779.12	7.9
779.434	7.92
779.747	7.8
780.061	8.03
780.375	8.04
780.689	7.99
781.002	8.3
781.316	8.36
781.629	7.84
781.943	7.57
782.256	7.32
782.57	7.61
782.883	7.88
783.196	8.19
783.51	8.43
783.823	8.86
784.136	9.07
784.449	8.76
784.762	8.83
785.075	9.1
785.388	9.13
785.701	9.23
786.014	9.26
786.327	8.61
786.64	8.04
786.953	7.79
787.266	7.64
787.578	7.44
787.891	7.4
788.204	7.56
788.516	7.85
788.829	7.76
789.141	7.93
789.454	8.05
789.766	7.93
790.079	7.44
790.391	7.02
790.703	6.79
791.016	6.87
791.328	6.86
791.64	6.43
791.952	6.2
792.264	6.43
792.576	6.53
792.888	7.05
793.2	7.6
793.512	7.92
793.824	8.5
794.136	8.8
794.448	9.65
794.76	10.12
795.071	10.58
795.383	10.85
795.695	10.64
796.006	10.26
796.318	10.5
796.629	10.94
796.941	11.3
797.252	11.3
797.564	11.23
797.875	11.06
798.186	11.32
798.497	11.21
798.809	10.47
799.12	10.22
799.431	9.68
799.742	9.15
800.053	8.44
800.364	7.49
800.675	6.97
800.986	6.24
801.297	5.81
801.608	4.97
801.918	5.09
802.229	4.67
802.54	4.9
802.851	4.91
803.161	5.26
803.472	4.52
803.782	4.73
804.093	4.67
804.403	4.58
804.714	4.29
805.024	4
805.334	4.27
805.645	4
805.955	4.54
806.265	4.92
806.575	5.3
806.885	5.77
807.195	5.97
807.505	5.89
807.815	6.11
808.125	6.72
808.435	6.61
808.745	6.87
809.055	6.54
809.365	6.55
809.674	6.06
809.984	6.7
810.294	6.55
810.603	6.56
810.913	6.53
811.222	6.62
811.532	7.31
811.841	7.58
812.151	8.21
812.46	8.06
812.769	8.39
813.079	8.75
813.388	8.62
813.697	8.46
814.006	8.96
814.315	9.15
814.624	8.85
814.933	9
815.242	9.05
815.551	9.41
815.86	9.48
816.169	9.46
816.478	9.29
816.786	9.53
817.095	8.97
817.404	9.03
817.712	9.21
818.021	9.26
818.33	9.02
818.638	9.11
818.947	9.7
819.255	10.08
819.563	9.84
819.872	9.71
820.18	10.25
820.488	10.39
820.796	10.13
821.105	10.44
821.413	10.34
821.721	10.46
822.029	10.41
822.337	10.22
822.645	10.32
822.953	10.21
823.26	10.33
823.568	10.48
823.876	10.37
824.184	10.31
824.491	10.25
824.799	10.22
825.107	10.26
825.414	10.04
825.722	9.76
826.029	9.99
826.337	10.02
826.644	9.83
826.951	9.74
827.259	9.84
827.566	9.56
827.873	9.52
828.18	9.52
828.488	9.51
828.795	9.65
829.102	9.48
829.409	9.47
829.716	9.28
830.023	9.61
830.329	9.75
830.636	9.84
830.943	9.43
831.25	9.6
831.557	9.25
831.863	9.51
832.17	9.64
832.476	9.27
832.783	9.4
833.089	9.41
833.396	9.31
833.702	9.46
834.009	9.62
834.315	9.81
834.621	9.55
834.928	9.58
835.234	9.56
835.54	9.66
835.846	9.87
836.152	9.56
836.458	9.35
836.764	9.21
837.07	8.8
837.376	9.5
837.682	9.05
837.988	8.83
838.293	8.95
838.599	8.7
838.905	8.93
839.211	8.37
839.516	7.33
839.822	7.54
840.127	7.02
840.433	7.28
840.738	7.36
841.044	7.24
841.349	7.08
841.654	6.67
841.959	6.02
842.265	5.76
842.57	5.43
842.875	5.14
843.18	6.04
843.485	7.16
843.79	6.62
844.095	6.16
844.4	6.23
844.705	6.01
845.01	7.02
845.315	5.84
845.619	7.19
845.924	9.48
846.229	8.88
846.533	9.86
846.838	8.7
847.142	8.78
847.447	8.76
847.751	9.14
848.056	9.37
848.36	10.9
848.664	11.05
848.969	12.76
849.273	11.98
849.577	10.65
849.881	10.86
850.185	11.24
850.489	11.53
850.794	12.4
851.097	12.8
851.401	10.14
851.705	10.52
852.009	9.19
852.313	6.75
852.617	5.53
852.92	5.07
853.224	4.43
853.528	1.71
853.831	3.17
854.135	2.49
854.438	3.22
854.742	2.13
855.045	1.08
855.349	0.93
855.652	1
855.955	1.96
856.259	2.3
856.562	2.81
856.865	4.42
857.168	4.96
857.471	2.21
857.774	3.72
858.077	4.32
858.38	5.41
858.683	7.81
858.986	9.66
859.289	9.61
859.592	10.8
859.894	13.04
860.197	11.63
860.5	13.06
860.802	11.38
861.105	11.15
861.407	14.69
861.71	13.85
862.012	13.29
862.315	15.29
862.617	13.56
862.919	14.82
863.222	14.67
863.524	12.66
863.826	12.71
864.128	15.2
864.43	16.77
864.732	15.82
865.034	14.28
865.336	13.45
865.638	10.91
865.94	10.98
866.242	9.17
866.544	11.09
866.846	10.63
867.147	13.42
867.449	16.33
867.751	12.97
868.052	13.14
868.354	14.28
868.655	12.31
868.957	13.98
869.258	12.1
869.56	12.42
869.861	12.52
870.162	13.18
870.463	11.5
870.765	7.76
871.066	6.92
871.367	5.97
871.668	7.02
871.969	7.48
872.27	6.51
872.571	6.95
872.872	5.7
873.173	3.95
873.473	-0.06
873.774	-1.71
874.075	0.28
874.376	2.61
874.676	3.31
874.977	2.73
875.277	2.89
875.578	3.69
875.878	2.83
876.179	3.89
876.479	4.62
876.78	3.75
877.08	5.78
877.38	7.51
877.68	10.05
877.981	9.72
878.281	12.03
878.581	13.49
