Data from MVZ_BU62167_Reflection_00010.txt Node
Date: Tue Nov 19 12:14:36 EST 2019
User: vgr7
Spectrometer: USB2G7710
Scans to average: 3
Trigger mode: 4
Integration Time (sec): 2.000000E-2
Electric dark correction enabled: true
Boxcar width: 10
XAxis mode: Wavelengths
Number of Pixels in Spectrum: 2048
>>>>>Begin Spectral Data<<<<<
177.721	-58.52
178.105	-173.81
178.488	-57.28
178.871	-38.6
179.254	-50.98
179.636	101.72
180.019	27
180.402	81.25
180.785	346.67
181.168	16.67
181.55	73.43
181.933	78.93
182.316	11.99
182.698	313.18
183.081	-1474.07
183.463	-138.56
183.846	241.98
184.228	-301.96
184.611	-46.94
184.993	-55.37
185.376	-125.42
185.758	-143.22
186.14	-471.11
186.522	-300.38
186.904	-356.86
187.287	-431.96
187.669	-478.79
188.051	-670.44
188.433	-13844.44
188.815	-3007.84
189.197	-613.99
189.579	1219.05
189.961	1046.33
190.342	-1104.4
190.724	-3511.11
191.106	-478.56
191.488	-306.21
191.869	-237.32
192.251	-316.34
192.633	-396.47
193.014	-302.16
193.396	-178.22
193.777	-159.19
194.159	-90.01
194.54	-116.14
194.922	-91.06
195.303	-83.47
195.684	-88.85
196.065	-91.42
196.447	-85.15
196.828	-59.52
197.209	-55.79
197.59	-37.58
197.971	-35.47
198.352	-34.56
198.733	-15.91
199.114	-36.62
199.495	-22.3
199.876	-41.77
200.257	-29.08
200.638	-37.66
201.018	-52.88
201.399	-48.12
201.78	-46.95
202.16	-83.46
202.541	-77.54
202.922	-81.21
203.302	-70.18
203.683	-55.79
204.063	-49.38
204.444	-51.74
204.824	-52.72
205.204	-55.16
205.585	-56.9
205.965	-64.54
206.345	-79.5
206.725	-81.4
207.106	-62.61
207.486	-70.91
207.866	-64.43
208.246	-45.99
208.626	-58.23
209.006	-63.32
209.386	-60.16
209.766	-68.9
210.145	-47.64
210.525	-50.72
210.905	-48.27
211.285	-56.15
211.664	-42.63
212.044	-43.6
212.424	-28.95
212.803	-33.29
213.183	-28.64
213.562	-25.25
213.942	-22.53
214.321	-16.37
214.701	-9.03
215.08	-13.88
215.459	14.03
215.838	13.77
216.218	1.36
216.597	-0.58
216.976	0.07
217.355	0.51
217.734	-1.61
218.113	8.98
218.492	23.85
218.871	14.16
219.25	8.59
219.629	-2.77
220.008	6.45
220.387	-0.33
220.766	3.95
221.144	0.42
221.523	4.96
221.902	20.76
222.28	16.58
222.659	16.44
223.037	13.24
223.416	0.59
223.794	-1.24
224.173	-4.55
224.551	-1.78
224.929	-8.93
225.308	-13.17
225.686	-10.21
226.064	-14.27
226.442	-14.93
226.821	-10.98
227.199	-8.08
227.577	-6.3
227.955	-8.48
228.333	-8.06
228.711	-6.96
229.089	-6.12
229.467	-8.95
229.845	-12.62
230.222	-12.47
230.6	-14.17
230.978	-8.79
231.356	-7.31
231.733	-6.32
232.111	-4.32
232.488	-3.87
232.866	-0.23
233.243	0.25
233.621	2.09
233.998	3.07
234.376	1.85
234.753	3.16
235.13	3.12
235.508	2.95
235.885	1.29
236.262	-0.77
236.639	-2.56
237.016	-2.34
237.393	-1.6
237.77	-1.06
238.147	-1
238.524	0.41
238.901	0.31
239.278	-0.6
239.655	-0.56
240.032	-0.71
240.409	-0.3
240.785	-0.22
241.162	0.82
241.539	1.09
241.915	1.05
242.292	1.78
242.668	1.39
243.045	1.77
243.421	2.25
243.798	2.58
244.174	3.53
244.551	3.58
244.927	3.51
245.303	3.45
245.679	3.43
246.056	3.61
246.432	3.83
246.808	3.9
247.184	3.98
247.56	4.17
247.936	4.38
248.312	4.13
248.688	4.09
249.064	3.5
249.44	3.43
249.815	3.61
250.191	3.59
250.567	3.7
250.943	3.68
251.318	3.45
251.694	3.22
252.069	2.8
252.445	2.87
252.82	3.25
253.196	3.53
253.571	3.55
253.947	3.56
254.322	3.4
254.697	3.15
255.073	3.09
255.448	3.22
255.823	3.19
256.198	3.74
256.573	3.68
256.948	4.06
257.323	3.89
257.698	3.94
258.073	3.76
258.448	3.84
258.823	3.78
259.198	4.02
259.573	4.13
259.948	4.2
260.322	4.21
260.697	4.06
261.072	3.94
261.446	3.97
261.821	3.9
262.195	3.83
262.57	4.03
262.944	4.14
263.319	4.15
263.693	4.34
264.067	4.19
264.442	4.3
264.816	4.4
265.19	4.63
265.564	4.4
265.938	4.57
266.313	4.5
266.687	4.56
267.061	4.36
267.435	4.49
267.809	4.53
268.183	4.36
268.556	4.28
268.93	4.46
269.304	4.48
269.678	4.6
270.051	4.49
270.425	4.34
270.799	4.15
271.172	4.14
271.546	4.01
271.919	3.98
272.293	3.92
272.666	3.73
273.04	3.67
273.413	3.84
273.787	3.78
274.16	3.68
274.533	3.73
274.906	3.61
275.279	3.4
275.653	3.35
276.026	3.29
276.399	3.34
276.772	3.22
277.145	3.29
277.518	3.22
277.891	3.18
278.263	3.18
278.636	3.29
279.009	3.13
279.382	3.04
279.755	2.94
280.127	3
280.5	3.31
280.872	3.32
281.245	3.23
281.617	3.12
281.99	3.21
282.362	3.22
282.735	3.35
283.107	3.54
283.479	3.54
283.852	3.63
284.224	3.67
284.596	3.63
284.968	3.49
285.34	3.43
285.713	3.51
286.085	3.37
286.457	3.41
286.829	3.5
287.201	3.47
287.572	3.73
287.944	3.77
288.316	3.8
288.688	3.84
289.06	3.83
289.431	3.93
289.803	4.04
290.175	4.11
290.546	4.1
290.918	4.02
291.289	4.07
291.661	4.16
292.032	4.09
292.403	4.17
292.775	4.37
293.146	4.55
293.517	4.62
293.889	4.66
294.26	4.76
294.631	4.9
295.002	5.04
295.373	4.97
295.744	4.95
296.115	4.81
296.486	4.86
296.857	4.94
297.228	4.99
297.599	4.94
297.97	5.11
298.34	5.23
298.711	5.34
299.082	5.37
299.452	5.29
299.823	5.25
300.194	5.27
300.564	5.07
300.935	5.11
301.305	5.07
301.676	5.08
302.046	5.1
302.416	4.93
302.787	4.85
303.157	4.96
303.527	5.03
303.897	5
304.267	4.96
304.637	4.98
305.008	4.99
305.378	5.13
305.748	4.79
306.117	4.81
306.487	4.87
306.857	4.88
307.227	5.18
307.597	5.33
307.967	5.47
308.336	5.6
308.706	5.68
309.076	5.95
309.445	6.25
309.815	6.18
310.184	6.18
310.554	6.2
310.923	6.01
311.293	6.01
311.662	6.14
312.031	6.29
312.401	6.23
312.77	6.32
313.139	6.37
313.508	6.46
313.877	6.47
314.246	6.44
314.616	6.47
314.985	6.35
315.353	6.37
315.722	6.35
316.091	6.28
316.46	6.32
316.829	6.14
317.198	6.1
317.567	6.43
317.935	6.69
318.304	6.94
318.672	7.1
319.041	7.15
319.41	7.14
319.778	7.15
320.147	7.29
320.515	7.26
320.883	7.17
321.252	7.24
321.62	7.39
321.988	7.5
322.357	7.67
322.725	7.71
323.093	7.66
323.461	7.88
323.829	8.11
324.197	8.11
324.565	8.15
324.933	8.09
325.301	7.8
325.669	7.63
326.037	7.51
326.405	7.5
326.772	7.49
327.14	7.57
327.508	7.47
327.875	7.64
328.243	7.68
328.61	7.67
328.978	7.63
329.346	7.65
329.713	7.71
330.08	7.66
330.448	7.8
330.815	7.76
331.182	7.69
331.55	7.59
331.917	7.57
332.284	7.69
332.651	7.82
333.018	8.03
333.385	8.28
333.752	8.36
334.119	8.53
334.486	8.67
334.853	8.7
335.22	8.8
335.587	8.77
335.954	8.83
336.32	8.94
336.687	9.1
337.054	9.05
337.42	9.04
337.787	8.87
338.153	8.81
338.52	9.02
338.886	8.93
339.253	9
339.619	9.14
339.986	9.02
340.352	9.1
340.718	9.1
341.084	8.96
341.451	8.89
341.817	8.92
342.183	8.91
342.549	8.82
342.915	8.97
343.281	8.92
343.647	8.91
344.013	9.09
344.379	9.01
344.745	9.1
345.11	9.07
345.476	9.26
345.842	9.25
346.208	9.2
346.573	9.23
346.939	9.31
347.304	9.24
347.67	9.23
348.035	9.09
348.401	9.04
348.766	9.09
349.132	9.21
349.497	9.21
349.862	9.27
350.228	9.3
350.593	9.07
350.958	9.27
351.323	9.12
351.688	9.11
352.053	9.15
352.418	9.1
352.783	9.24
353.148	9.24
353.513	9.32
353.878	9.38
354.243	9.39
354.608	9.4
354.972	9.4
355.337	9.53
355.702	9.49
356.066	9.54
356.431	9.58
356.795	9.52
357.16	9.58
357.524	9.6
357.889	9.74
358.253	9.76
358.618	9.64
358.982	9.77
359.346	9.71
359.71	9.71
360.075	9.72
360.439	9.59
360.803	9.65
361.167	9.64
361.531	9.63
361.895	9.62
362.259	9.61
362.623	9.62
362.987	9.57
363.351	9.57
363.714	9.5
364.078	9.46
364.442	9.38
364.806	9.27
365.169	9.14
365.533	9.04
365.896	9.11
366.26	9.07
366.623	8.98
366.987	8.94
367.35	8.96
367.714	8.91
368.077	8.99
368.44	8.91
368.803	8.83
369.167	8.64
369.53	8.57
369.893	8.53
370.256	8.44
370.619	8.41
370.982	8.37
371.345	8.38
371.708	8.4
372.071	8.47
372.434	8.36
372.797	8.39
373.159	8.29
373.522	8.13
373.885	8.01
374.247	7.93
374.61	7.89
374.973	7.78
375.335	7.76
375.698	7.64
376.06	7.53
376.423	7.46
376.785	7.51
377.147	7.47
377.51	7.34
377.872	7.26
378.234	7.2
378.596	7.22
378.958	7.14
379.321	7.04
379.683	7.01
380.045	6.95
380.407	6.87
380.769	6.84
381.13	6.8
381.492	6.77
381.854	6.76
382.216	6.7
382.578	6.63
382.939	6.48
383.301	6.43
383.663	6.41
384.024	6.39
384.386	6.28
384.747	6.28
385.109	6.23
385.47	6.27
385.832	6.18
386.193	6.11
386.554	6.07
386.916	6.03
387.277	5.92
387.638	5.94
387.999	5.9
388.36	5.85
388.721	5.8
389.082	5.76
389.443	5.76
389.804	5.72
390.165	5.75
390.526	5.75
390.887	5.73
391.248	5.7
391.609	5.66
391.969	5.68
392.33	5.62
392.691	5.64
393.051	5.53
393.412	5.52
393.772	5.5
394.133	5.45
394.493	5.39
394.854	5.36
395.214	5.3
395.574	5.25
395.935	5.2
396.295	5.18
396.655	5.16
397.015	5.1
397.376	5.06
397.736	4.99
398.096	4.93
398.456	4.86
398.816	4.78
399.176	4.72
399.535	4.69
399.895	4.66
400.255	4.57
400.615	4.58
400.975	4.53
401.334	4.47
401.694	4.46
402.054	4.48
402.413	4.45
402.773	4.42
403.132	4.4
403.492	4.38
403.851	4.35
404.211	4.32
404.57	4.28
404.929	4.24
405.288	4.19
405.648	4.18
406.007	4.16
406.366	4.17
406.725	4.15
407.084	4.14
407.443	4.14
407.802	4.14
408.161	4.13
408.52	4.14
408.879	4.15
409.238	4.16
409.596	4.14
409.955	4.12
410.314	4.1
410.673	4.1
411.031	4.05
411.39	4.07
411.748	4.1
412.107	4.08
412.465	4.08
412.824	4.08
413.182	4.07
413.54	4.06
413.899	4.04
414.257	4.06
414.615	4.01
414.974	3.97
415.332	3.96
415.69	3.93
416.048	3.89
416.406	3.84
416.764	3.83
417.122	3.8
417.48	3.83
417.838	3.83
418.195	3.83
418.553	3.86
418.911	3.81
419.269	3.79
419.626	3.77
419.984	3.76
420.342	3.74
420.699	3.74
421.057	3.72
421.414	3.7
421.772	3.68
422.129	3.69
422.486	3.68
422.844	3.67
423.201	3.66
423.558	3.67
423.915	3.66
424.273	3.63
424.63	3.63
424.987	3.62
425.344	3.61
425.701	3.6
426.058	3.57
426.415	3.57
426.772	3.54
427.128	3.54
427.485	3.52
427.842	3.51
428.199	3.48
428.555	3.49
428.912	3.49
429.269	3.47
429.625	3.46
429.982	3.44
430.338	3.45
430.695	3.44
431.051	3.44
431.407	3.45
431.764	3.45
432.12	3.47
432.476	3.46
432.832	3.46
433.189	3.43
433.545	3.46
433.901	3.45
434.257	3.45
434.613	3.46
434.969	3.48
435.325	3.47
435.681	3.48
436.036	3.47
436.392	3.49
436.748	3.49
437.104	3.49
437.459	3.47
437.815	3.47
438.171	3.47
438.526	3.47
438.882	3.46
439.237	3.45
439.593	3.42
439.948	3.41
440.304	3.38
440.659	3.4
441.014	3.4
441.369	3.43
441.725	3.43
442.08	3.43
442.435	3.4
442.79	3.42
443.145	3.41
443.5	3.42
443.855	3.4
444.21	3.41
444.565	3.39
444.92	3.39
445.275	3.4
445.629	3.39
445.984	3.36
446.339	3.37
446.693	3.37
447.048	3.37
447.403	3.36
447.757	3.37
448.112	3.35
448.466	3.34
448.82	3.29
449.175	3.3
449.529	3.28
449.883	3.29
450.238	3.29
450.592	3.29
450.946	3.27
451.3	3.25
451.654	3.22
452.008	3.22
452.362	3.22
452.716	3.22
453.07	3.22
453.424	3.21
453.778	3.19
454.132	3.19
454.486	3.19
454.839	3.19
455.193	3.21
455.547	3.22
455.9	3.2
456.254	3.22
456.607	3.23
456.961	3.25
457.314	3.26
457.668	3.25
458.021	3.26
458.375	3.28
458.728	3.3
459.081	3.33
459.434	3.34
459.787	3.35
460.141	3.35
460.494	3.36
460.847	3.39
461.2	3.4
461.553	3.42
461.906	3.43
462.259	3.42
462.611	3.42
462.964	3.44
463.317	3.48
463.67	3.49
464.022	3.49
464.375	3.51
464.728	3.51
465.08	3.51
465.433	3.5
465.785	3.51
466.138	3.51
466.49	3.48
466.843	3.48
467.195	3.49
467.547	3.51
467.899	3.53
468.252	3.53
468.604	3.55
468.956	3.54
469.308	3.54
469.66	3.6
470.012	3.6
470.364	3.58
470.716	3.59
471.068	3.6
471.42	3.61
471.772	3.62
472.123	3.65
472.475	3.69
472.827	3.71
473.178	3.72
473.53	3.73
473.882	3.75
474.233	3.76
474.585	3.76
474.936	3.76
475.288	3.73
475.639	3.75
475.99	3.72
476.342	3.71
476.693	3.71
477.044	3.69
477.395	3.69
477.746	3.68
478.097	3.68
478.448	3.66
478.8	3.64
479.15	3.62
479.501	3.59
479.852	3.57
480.203	3.57
480.554	3.56
480.905	3.55
481.255	3.55
481.606	3.55
481.957	3.56
482.307	3.56
482.658	3.57
483.009	3.54
483.359	3.54
483.709	3.55
484.06	3.55
484.41	3.55
484.761	3.56
485.111	3.57
485.461	3.56
485.811	3.56
486.162	3.56
486.512	3.56
486.862	3.56
487.212	3.57
487.562	3.57
487.912	3.58
488.262	3.59
488.612	3.58
488.961	3.58
489.311	3.58
489.661	3.58
490.011	3.57
490.36	3.58
490.71	3.59
491.06	3.6
491.409	3.61
491.759	3.62
492.108	3.62
492.458	3.63
492.807	3.65
493.157	3.67
493.506	3.7
493.855	3.72
494.204	3.75
494.554	3.78
494.903	3.8
495.252	3.82
495.601	3.85
495.95	3.89
496.299	3.94
496.648	3.99
496.997	4.03
497.346	4.11
497.695	4.15
498.043	4.22
498.392	4.28
498.741	4.29
499.09	4.34
499.438	4.39
499.787	4.44
500.135	4.5
500.484	4.55
500.832	4.61
501.181	4.67
501.529	4.78
501.878	4.85
502.226	4.96
502.574	5.05
502.923	5.13
503.271	5.22
503.619	5.34
503.967	5.43
504.315	5.55
504.663	5.63
505.011	5.76
505.359	5.87
505.707	5.98
506.055	6.14
506.403	6.26
506.751	6.37
507.098	6.52
507.446	6.63
507.794	6.74
508.141	6.89
508.489	7.05
508.837	7.16
509.184	7.29
509.531	7.4
509.879	7.51
510.226	7.65
510.574	7.76
510.921	7.88
511.268	8.02
511.616	8.17
511.963	8.33
512.31	8.47
512.657	8.63
513.004	8.79
513.351	8.91
513.698	9.1
514.045	9.3
514.392	9.47
514.739	9.65
515.086	9.86
515.432	10.01
515.779	10.15
516.126	10.34
516.473	10.48
516.819	10.62
517.166	10.79
517.512	10.93
517.859	11.09
518.205	11.23
518.552	11.35
518.898	11.46
519.245	11.61
519.591	11.73
519.937	11.84
520.283	11.97
520.629	12.12
520.976	12.24
521.322	12.39
521.668	12.52
522.014	12.68
522.36	12.84
522.706	13.05
523.052	13.27
523.398	13.43
523.743	13.65
524.089	13.89
524.435	14.08
524.781	14.29
525.126	14.48
525.472	14.65
525.817	14.86
526.163	15
526.509	15.13
526.854	15.26
527.199	15.41
527.545	15.56
527.89	15.68
528.235	15.82
528.581	15.96
528.926	16.11
529.271	16.26
529.616	16.42
529.961	16.55
530.306	16.67
530.651	16.84
530.996	17.01
531.341	17.18
531.686	17.37
532.031	17.55
532.376	17.75
532.721	17.97
533.065	18.13
533.41	18.35
533.755	18.59
534.099	18.8
534.444	19.02
534.788	19.23
535.133	19.48
535.477	19.73
535.822	19.97
536.166	20.25
536.51	20.53
536.855	20.78
537.199	21.1
537.543	21.44
537.887	21.73
538.231	22.03
538.576	22.35
538.92	22.67
539.264	22.98
539.608	23.22
539.951	23.47
540.295	23.76
540.639	23.99
540.983	24.28
541.327	24.56
541.671	24.83
542.014	25.07
542.358	25.28
542.701	25.54
543.045	25.77
543.389	26.02
543.732	26.25
544.075	26.53
544.419	26.8
544.762	27.08
545.105	27.4
545.449	27.71
545.792	28.03
546.135	28.3
546.478	28.62
546.821	28.99
547.165	29.38
547.508	29.7
547.851	30.06
548.194	30.35
548.536	30.7
548.879	31.04
549.222	31.44
549.565	31.86
549.908	32.16
550.25	32.56
550.593	32.89
550.936	33.26
551.278	33.64
551.621	34.01
551.963	34.4
552.306	34.71
552.648	35.1
552.991	35.41
553.333	35.77
553.675	36.16
554.017	36.49
554.36	36.75
554.702	37.08
555.044	37.45
555.386	37.78
555.728	38.09
556.07	38.38
556.412	38.66
556.754	38.93
557.096	39.28
557.438	39.61
557.78	39.9
558.121	40.2
558.463	40.51
558.805	40.84
559.147	41.12
559.488	41.4
559.83	41.69
560.171	41.98
560.513	42.22
560.854	42.5
561.196	42.76
561.537	43.09
561.878	43.28
562.22	43.53
562.561	43.82
562.902	44.12
563.243	44.4
563.584	44.67
563.925	44.96
564.266	45.19
564.607	45.39
564.948	45.66
565.289	45.87
565.63	46.08
565.971	46.26
566.312	46.44
566.653	46.69
566.993	46.92
567.334	47.16
567.675	47.43
568.015	47.63
568.356	47.87
568.696	48.02
569.037	48.27
569.377	48.42
569.718	48.61
570.058	48.75
570.398	48.87
570.739	49
571.079	49.16
571.419	49.29
571.759	49.51
572.099	49.64
572.439	49.81
572.779	49.95
573.119	50.12
573.459	50.24
573.799	50.4
574.139	50.51
574.479	50.64
574.819	50.76
575.158	50.95
575.498	51.03
575.838	51.22
576.177	51.4
576.517	51.63
576.856	51.74
577.196	51.95
577.535	52.14
577.875	52.32
578.214	52.47
578.553	52.69
578.893	52.81
579.232	53.03
579.571	53.22
579.91	53.41
580.25	53.47
580.589	53.62
580.928	53.71
581.267	53.81
581.606	53.95
581.945	54.08
582.283	54.13
582.622	54.29
582.961	54.27
583.3	54.37
583.639	54.38
583.977	54.51
584.316	54.59
584.654	54.72
584.993	54.79
585.332	54.94
585.67	54.98
586.008	55.1
586.347	55.14
586.685	55.15
587.024	55.23
587.362	55.4
587.7	55.46
588.038	55.58
588.376	55.71
588.715	55.81
589.053	55.81
589.391	55.93
589.729	56.06
590.067	56.27
590.404	56.39
590.742	56.51
591.08	56.63
591.418	56.68
591.756	56.7
592.093	56.83
592.431	56.88
592.769	56.95
593.106	56.91
593.444	57.03
593.781	57.19
594.119	57.22
594.456	57.27
594.793	57.45
595.131	57.5
595.468	57.58
595.805	57.57
596.143	57.63
596.48	57.64
596.817	57.64
597.154	57.69
597.491	57.72
597.828	57.87
598.165	57.83
598.502	57.93
598.839	58.05
599.176	58.07
599.512	58.08
599.849	58.14
600.186	58.3
600.523	58.28
600.859	58.31
601.196	58.46
601.532	58.56
601.869	58.56
602.205	58.62
602.542	58.68
602.878	58.77
603.215	58.86
603.551	58.9
603.887	58.92
604.223	58.91
604.56	58.91
604.896	58.9
605.232	59
605.568	58.98
605.904	58.98
606.24	59.08
606.576	59.19
606.912	59.17
607.248	59.23
607.583	59.29
607.919	59.33
608.255	59.29
608.591	59.32
608.926	59.35
609.262	59.4
609.597	59.43
609.933	59.46
610.268	59.45
610.604	59.48
610.939	59.52
611.275	59.6
611.61	59.66
611.945	59.68
612.281	59.75
612.616	59.78
612.951	59.78
613.286	59.73
613.621	59.69
613.956	59.77
614.291	59.81
614.626	59.85
614.961	59.81
615.296	59.86
615.631	59.82
615.966	59.86
616.3	59.94
616.635	59.97
616.97	60
617.304	60.08
617.639	60.19
617.973	60.2
618.308	60.23
618.642	60.25
618.977	60.26
619.311	60.24
619.646	60.39
619.98	60.46
620.314	60.55
620.648	60.6
620.983	60.69
621.317	60.66
621.651	60.7
621.985	60.82
622.319	60.96
622.653	61.1
622.987	61.12
623.321	61.1
623.655	61.1
623.988	61.18
624.322	61.32
624.656	61.31
624.99	61.38
625.323	61.42
625.657	61.43
625.99	61.48
626.324	61.6
626.657	61.55
626.991	61.65
627.324	61.72
627.658	61.77
627.991	61.75
628.324	61.74
628.657	61.81
628.991	61.86
629.324	61.79
629.657	61.72
629.99	61.74
630.323	61.78
630.656	61.8
630.989	61.7
631.322	61.62
631.655	61.57
631.987	61.59
632.32	61.52
632.653	61.61
632.986	61.64
633.318	61.51
633.651	61.61
633.984	61.45
634.316	61.39
634.649	61.41
634.981	61.47
635.313	61.57
635.646	61.61
635.978	61.62
636.31	61.65
636.643	61.75
636.975	61.82
637.307	61.84
637.639	61.78
637.971	61.88
638.303	62.06
638.635	62.11
638.967	62.18
639.299	62.27
639.631	62.28
639.963	62.31
640.295	62.39
640.626	62.27
640.958	62.37
641.29	62.45
641.621	62.53
641.953	62.51
642.285	62.52
642.616	62.54
642.948	62.47
643.279	62.46
643.61	62.41
643.942	62.41
644.273	62.51
644.604	62.67
644.936	62.72
645.267	62.52
645.598	62.61
645.929	62.64
646.26	62.59
646.591	62.68
646.922	62.73
647.253	62.67
647.584	62.66
647.915	62.74
648.245	62.74
648.576	62.72
648.907	62.72
649.238	62.68
649.568	62.75
649.899	62.79
650.229	62.8
650.56	62.76
650.89	62.78
651.221	62.57
651.551	62.55
651.882	62.61
652.212	62.64
652.542	62.65
652.872	62.6
653.203	62.58
653.533	62.45
653.863	62.27
654.193	62.28
654.523	62.36
654.853	62.5
655.183	62.48
655.513	62.47
655.843	62.47
656.172	62.48
656.502	62.55
656.832	62.55
657.162	62.7
657.491	62.85
657.821	62.69
658.15	62.72
658.48	62.79
658.809	62.7
659.139	62.79
659.468	62.81
659.798	62.84
660.127	62.88
660.456	62.95
660.785	63.18
661.115	63.3
661.444	63.3
661.773	63.13
662.102	63.07
662.431	63.1
662.76	63.21
663.089	63.33
663.418	63.11
663.747	63.09
664.076	62.95
664.404	62.87
664.733	62.96
665.062	63.04
665.39	62.96
665.719	62.99
666.048	62.9
666.376	62.79
666.705	62.79
667.033	62.88
667.362	62.9
667.69	62.74
668.018	62.65
668.347	62.79
668.675	62.88
669.003	63.01
669.331	63.08
669.659	62.98
669.987	62.84
670.315	62.96
670.643	63.02
670.971	63.13
671.299	63.09
671.627	63.34
671.955	63.41
672.283	63.56
672.61	63.52
672.938	63.68
673.266	63.92
673.593	64
673.921	63.99
674.249	63.86
674.576	63.85
674.904	63.92
675.231	63.92
675.558	63.87
675.886	63.8
676.213	63.78
676.54	63.88
676.867	63.99
677.195	64.18
677.522	64.24
677.849	64.26
678.176	64.32
678.503	64.33
678.83	64.26
679.157	64.15
679.484	64.23
679.81	64.11
680.137	64.1
680.464	64.1
680.791	64.11
681.117	64.28
681.444	64.44
681.771	64.31
682.097	64.3
682.424	64.27
682.75	64.21
683.077	64.38
683.403	64.36
683.729	64.38
684.056	64.08
684.382	64.12
684.708	64.03
685.034	64.03
685.36	63.92
685.686	64.06
686.012	64.24
686.339	64.3
686.664	64.32
686.99	64.25
687.316	64.31
687.642	64.28
687.968	64.33
688.294	64.31
688.619	64.39
688.945	64.54
689.271	64.58
689.596	64.61
689.922	64.3
690.247	64.34
690.573	64.25
690.898	64.39
691.224	64.23
691.549	64.36
691.874	64.35
692.2	64.22
692.525	64.04
692.85	63.77
693.175	63.62
693.5	63.54
693.825	63.49
694.15	63.41
694.475	63.47
694.8	63.38
695.125	63.35
695.45	63.38
695.775	63.23
696.099	63.31
696.424	63.42
696.749	63.61
697.073	63.57
697.398	63.51
697.723	63.44
698.047	63.57
698.372	63.35
698.696	63.32
699.02	63.28
699.345	63.29
699.669	63.27
699.993	63.34
700.318	63.53
700.642	63.62
700.966	63.69
701.29	63.57
701.614	63.48
701.938	63.41
702.262	63.35
702.586	63.37
702.91	63.39
703.234	63.37
703.557	63.27
703.881	63.22
704.205	63.34
704.529	63.36
704.852	63.3
705.176	63.25
705.499	63.25
705.823	63.47
706.146	63.77
706.47	63.83
706.793	63.75
707.117	63.46
707.44	63.37
707.763	63.36
708.086	63.53
708.409	63.64
708.733	63.74
709.056	64
709.379	64.04
709.702	64.13
710.025	64.33
710.348	64.42
710.671	64.68
710.993	64.75
711.316	64.96
711.639	65.05
711.962	65.26
712.284	65.28
712.607	65.05
712.93	64.75
713.252	64.89
713.575	65.26
713.897	65.34
714.22	65.1
714.542	64.95
714.864	64.82
715.187	64.82
715.509	64.65
715.831	64.54
716.153	64.38
716.475	64.44
716.798	64.39
717.12	64.14
717.442	63.97
717.764	63.93
718.085	63.81
718.407	63.8
718.729	63.69
719.051	63.75
719.373	64.04
719.695	64.25
720.016	64.24
720.338	63.95
720.659	63.99
720.981	64.26
721.302	64.39
721.624	64.45
721.945	64.64
722.267	64.77
722.588	64.79
722.909	64.85
723.231	64.4
723.552	64.37
723.873	64.55
724.194	64.54
724.515	64.45
724.836	64.48
725.157	64.42
725.478	64.71
725.799	64.78
726.12	64.6
726.441	64.53
726.762	64.7
727.083	64.67
727.403	64.7
727.724	64.84
728.045	65.13
728.365	65.01
728.686	65.07
729.006	65.16
729.327	65.12
729.647	65.12
729.967	65.22
730.288	65.01
730.608	65.02
730.928	65.11
731.249	65.24
731.569	65.37
731.889	65.2
732.209	65.03
732.529	64.82
732.849	64.76
733.169	64.7
733.489	64.37
733.809	64.54
734.129	64.6
734.448	64.48
734.768	64.14
735.088	64.23
735.408	64.07
735.727	63.9
736.047	63.84
736.366	63.61
736.686	63.48
737.005	63.61
737.325	63.65
737.644	63.64
737.963	63.67
738.283	63.37
738.602	63.62
738.921	63.69
739.24	63.87
739.56	64.14
739.879	64.46
740.198	64.56
740.517	64.33
740.836	64.13
741.155	63.92
741.473	64.41
741.792	64.18
742.111	64.18
742.43	64.18
742.748	64.12
743.067	64.28
743.386	64.25
743.704	64.34
744.023	64.47
744.341	64.3
744.66	63.98
744.978	64.28
745.297	64.4
745.615	64.27
745.933	64.41
746.252	64.35
746.57	64.08
746.888	64.02
747.206	63.92
747.524	64.06
747.842	63.8
748.16	63.42
748.478	63.65
748.796	63.61
749.114	64.12
749.432	63.98
749.749	64.02
750.067	64.76
750.385	64.54
750.703	64.5
751.02	64.7
751.338	64.66
751.655	64.42
751.973	63.81
752.29	64.14
752.608	63.95
752.925	63.87
753.242	64.04
753.56	64.19
753.877	64.58
754.194	64.79
754.511	65.08
754.828	64.82
755.145	65
755.462	64.71
755.779	64.32
756.096	64.45
756.413	64.7
756.73	64.32
757.047	64
757.364	63.7
757.68	63.6
757.997	63.87
758.314	64.31
758.63	64.4
758.947	64.35
759.264	64.2
759.58	64.1
759.896	64.31
760.213	64.09
760.529	63.87
760.846	63.85
761.162	64.38
761.478	64.54
761.794	64.72
762.11	65.12
762.426	65.36
762.743	65.73
763.059	65.56
763.375	65.72
763.69	66.03
764.006	66.28
764.322	65.93
764.638	66.03
764.954	65.94
765.27	66.07
765.585	65.83
765.901	66.13
766.216	66.32
766.532	66.19
766.848	66.48
767.163	66.83
767.478	66.7
767.794	66.28
768.109	66.48
768.424	66.07
768.74	65.73
769.055	65.16
769.37	64.49
769.685	64.29
770	64.12
770.315	64.29
770.63	63.94
770.945	64.64
771.26	64.11
771.575	64.12
771.89	64.04
772.205	64.07
772.52	64.06
772.834	64.15
773.149	63.16
773.464	63.14
773.778	62.64
774.093	63.08
774.407	62.88
774.722	62.72
775.036	63.32
775.351	63.14
775.665	64.04
775.979	64.19
776.293	64.81
776.608	64.35
776.922	64.45
777.236	64.52
777.55	63.99
777.864	64.2
778.178	63.86
778.492	64.28
778.806	64.56
779.12	64.13
779.434	64.02
779.747	64.89
780.061	65.08
780.375	65.47
780.689	64.9
781.002	65.21
781.316	65.53
781.629	65.04
781.943	65.45
782.256	65.04
782.57	66.01
782.883	65.85
783.196	65.67
783.51	65.18
783.823	65.1
784.136	65.2
784.449	65.73
784.762	65.63
785.075	65.19
785.388	65.08
785.701	65.61
786.014	66.07
786.327	66.46
786.64	65.91
786.953	66.08
787.266	66.6
787.578	66.13
787.891	65.95
788.204	65.93
788.516	66.41
788.829	66.37
789.141	65.99
789.454	65.92
789.766	66.37
790.079	66.42
790.391	66.53
790.703	65.77
791.016	65.34
791.328	65.55
791.64	65.48
791.952	65.73
792.264	65.17
792.576	65.12
792.888	65
793.2	64.64
793.512	64.47
793.824	63.76
794.136	64.01
794.448	63.63
794.76	64.1
795.071	63.75
795.383	64.02
795.695	64.12
796.006	64.71
796.318	64.54
796.629	64.41
796.941	64.6
797.252	65.22
797.564	65.48
797.875	65.02
798.186	65.29
798.497	64.95
798.809	65.07
799.12	64.32
799.431	64.06
799.742	64.05
800.053	63.89
800.364	64.65
800.675	65.22
800.986	65.56
801.297	65.68
801.608	65.36
801.918	65.54
802.229	65.31
802.54	64.57
802.851	64.56
803.161	64.89
803.472	65.04
803.782	65.55
804.093	65.14
804.403	65.48
804.714	66.14
805.024	66.39
805.334	66.77
805.645	66.97
805.955	66.93
806.265	67.9
806.575	68.23
806.885	67.51
807.195	67.56
807.505	67.46
807.815	67.27
808.125	67.51
808.435	66.89
808.745	66.48
809.055	66.77
809.365	67.21
809.674	66.87
809.984	66.91
810.294	66.89
810.603	67.27
810.913	67.67
811.222	66.79
811.532	67.05
811.841	66.78
812.151	67.2
812.46	67.66
812.769	67.16
813.079	66.35
813.388	66.32
813.697	66.25
814.006	66.4
814.315	65.38
814.624	65.52
814.933	65.21
815.242	65.17
815.551	64.28
815.86	64.85
816.169	64.62
816.478	64.72
816.786	63.97
817.095	63.36
817.404	63
817.712	62.97
818.021	62.92
818.33	63.19
818.638	63.61
818.947	63.08
819.255	63.8
819.563	65.22
819.872	65.7
820.18	65.78
820.488	65.87
820.796	66.26
821.105	66.54
821.413	66.66
821.721	66.28
822.029	66.73
822.337	66.61
822.645	67.1
822.953	67.17
823.26	67.36
823.568	67.4
823.876	67.48
824.184	67.62
824.491	67.49
824.799	67.57
825.107	67.56
825.414	67.74
825.722	67.83
826.029	67.34
826.337	67.2
826.644	67.19
826.951	67.23
827.259	67.41
827.566	67.47
827.873	67.63
828.18	68.06
828.488	68.16
828.795	68.39
829.102	68.2
829.409	67.81
829.716	67.87
830.023	68.12
830.329	67.85
830.636	67.68
830.943	67.85
831.25	67.92
831.557	67.72
831.863	68.3
832.17	67.99
832.476	68.01
832.783	68.42
833.089	68.79
833.396	68.74
833.702	68.83
834.009	68.14
834.315	67.29
834.621	67.34
834.928	67.07
835.234	66.47
835.54	66.2
835.846	65.96
836.152	65.38
836.458	66.54
836.764	67.43
837.07	67.46
837.376	67.58
837.682	67.28
837.988	67.36
838.293	66.65
838.599	66.75
838.905	66.71
839.211	66.3
839.516	65.75
839.822	66.37
840.127	65.21
840.433	65.94
840.738	67.39
841.044	68.13
841.349	66.52
841.654	66.7
841.959	66.7
842.265	67.76
842.57	68.45
842.875	65.58
843.18	64.44
843.485	64.12
843.79	63.28
844.095	63.96
844.4	63.65
844.705	63.95
845.01	64.22
845.315	64.1
845.619	64.36
845.924	63.44
846.229	63.52
846.533	64.15
846.838	62.79
847.142	62.4
847.447	63.52
847.751	63.93
848.056	65.4
848.36	64.67
848.664	64.65
848.969	65.1
849.273	64.48
849.577	64.61
849.881	65.56
850.185	66.68
850.489	64.63
850.794	65.3
851.097	63.34
851.401	59.91
851.705	60.78
852.009	59.92
852.313	60.73
852.617	57.05
852.92	57.84
853.224	57.41
853.528	57.81
853.831	56.88
854.135	57.56
854.438	53.99
854.742	54.96
855.045	57.14
855.349	56.95
855.652	59.05
855.955	57.23
856.259	55.62
856.562	54.37
856.865	54.79
857.168	53.91
857.471	54.44
857.774	58.27
858.077	58.71
858.38	60.02
858.683	59.95
858.986	61.96
859.289	61.85
859.592	64.06
859.894	63.34
860.197	60.44
860.5	62.34
860.802	66.05
861.105	65.22
861.407	63.85
861.71	63.48
862.012	64.5
862.315	67.29
862.617	67.46
862.919	68.19
863.222	70.59
863.524	71.05
863.826	73.53
864.128	73.02
864.43	73.55
864.732	72.18
865.034	73.18
865.336	70.5
865.638	69.88
865.94	68.33
866.242	67.5
866.544	71.11
866.846	71.64
867.147	69.77
867.449	67.94
867.751	66.54
868.052	63.87
868.354	62.2
868.655	60.93
868.957	60.02
869.258	59.64
869.56	57.25
869.861	56.05
870.162	54.24
870.463	53.82
870.765	53.68
871.066	54.41
871.367	52
871.668	56.37
871.969	57
872.27	56.98
872.571	59.11
872.872	57.82
873.173	56.86
873.473	56.97
873.774	61.49
874.075	63.57
874.376	67.18
874.676	68.2
874.977	69.63
875.277	69.72
875.578	69.38
875.878	70.08
876.179	70.98
876.479	72.04
876.78	72.06
877.08	71.21
877.38	72.7
877.68	77.18
877.981	72.75
878.281	71.66
878.581	72.19
