Data from MVZ_BU78245_Reflection_00015.txt Node
Date: Tue Nov 19 12:01:28 EST 2019
User: vgr7
Spectrometer: USB2G7710
Scans to average: 3
Trigger mode: 4
Integration Time (sec): 2.000000E-2
Electric dark correction enabled: true
Boxcar width: 10
XAxis mode: Wavelengths
Number of Pixels in Spectrum: 2048
>>>>>Begin Spectral Data<<<<<
177.721	-384.85
178.105	-548.15
178.488	378.46
178.871	6033.33
179.254	-229.17
179.636	-234.89
180.019	-130.58
180.402	-412.5
180.785	-26.04
181.168	-70.77
181.55	4.76
181.933	-97.92
182.316	25.93
182.698	25.93
183.081	-59.72
183.463	-19.05
183.846	-11.11
184.228	17.89
184.611	0.17
184.993	-0.83
185.376	-14.58
185.758	-29.63
186.14	-24.24
186.522	-58.91
186.904	-34.72
187.287	-18.57
187.669	-28.28
188.051	-19.05
188.433	6.89
188.815	24.43
189.197	45.23
189.579	26.32
189.961	34.91
190.342	21.45
190.724	-14.77
191.106	-6.24
191.488	-13.56
191.869	-13.96
192.251	-20.11
192.633	-19.25
193.014	-26.75
193.396	-12.35
193.777	-11.55
194.159	-22.06
194.54	-21.29
194.922	-20.49
195.303	-36.21
195.684	-24.46
196.065	-17.2
196.447	-19.97
196.828	-19.69
197.209	-26.09
197.59	-27.21
197.971	-34.41
198.352	-21.14
198.733	-3.63
199.114	-11.5
199.495	-16.29
199.876	-17.63
200.257	-30.31
200.638	-31.1
201.018	-32.44
201.399	-34.84
201.78	-19.47
202.16	-17.87
202.541	-31.46
202.922	-37.64
203.302	-27.92
203.683	-39.11
204.063	-48.36
204.444	-50.05
204.824	-41.06
205.204	-61.41
205.585	-50.99
205.965	-74.43
206.345	-102.93
206.725	-110.37
207.106	-99.52
207.486	-87.88
207.866	-67.73
208.246	-41.06
208.626	-46.36
209.006	-40.61
209.386	-36.57
209.766	-79.87
210.145	-66.15
210.525	-57.44
210.905	-53.35
211.285	-33.61
211.664	-15.81
212.044	-11.25
212.424	1.93
212.803	-16.04
213.183	-14.14
213.562	-16.4
213.942	15.8
214.321	13.87
214.701	24.94
215.08	22.75
215.459	28.23
215.838	35.14
216.218	34.56
216.597	32.22
216.976	22.51
217.355	15.71
217.734	21.82
218.113	21.73
218.492	44.44
218.871	65.56
219.25	30.4
219.629	-27.71
220.008	-22.29
220.387	-29.63
220.766	-12.01
221.144	-0.84
221.523	-14.19
221.902	-34.96
222.28	-34.47
222.659	-26.49
223.037	-29.22
223.416	-37.85
223.794	-33.96
224.173	-31.31
224.551	-19.5
224.929	-22.44
225.308	-20.58
225.686	-16.04
226.064	-17.8
226.442	-22.62
226.821	-21.59
227.199	-20.67
227.577	-16.96
227.955	-14.3
228.333	-17.15
228.711	-17.57
229.089	-16.38
229.467	-13.07
229.845	-11.54
230.222	-7.13
230.6	-7.5
230.978	-3.51
231.356	-0.91
231.733	-2.08
232.111	-0.61
232.488	-4.21
232.866	-0.72
233.243	-0.45
233.621	0.92
233.998	4.37
234.376	7.04
234.753	6.57
235.13	7.25
235.508	7.88
235.885	6
236.262	6.02
236.639	6.54
237.016	6.73
237.393	6.19
237.77	6.93
238.147	7.11
238.524	6.61
238.901	5.03
239.278	4.8
239.655	3.84
240.032	3.75
240.409	3.97
240.785	3.8
241.162	3.48
241.539	3.72
241.915	3.33
242.292	3.59
242.668	3.49
243.045	3.46
243.421	3.65
243.798	4.36
244.174	4.62
244.551	4.35
244.927	3.92
245.303	3.91
245.679	3.89
246.056	3.63
246.432	3.83
246.808	4.12
247.184	4.08
247.56	4.36
247.936	4.04
248.312	3.78
248.688	3.72
249.064	3.65
249.44	3.42
249.815	3.41
250.191	3.13
250.567	3
250.943	2.95
251.318	2.87
251.694	2.29
252.069	2.28
252.445	2.17
252.82	2.6
253.196	2.41
253.571	2.39
253.947	2.46
254.322	1.93
254.697	1.88
255.073	1.72
255.448	1.87
255.823	2.31
256.198	2.76
256.573	2.85
256.948	3.06
257.323	3.27
257.698	3.2
258.073	3.27
258.448	3.53
258.823	3.24
259.198	3.19
259.573	3.11
259.948	3.05
260.322	3.01
260.697	2.99
261.072	3.15
261.446	3.24
261.821	3.15
262.195	3.21
262.57	3.11
262.944	3.32
263.319	3.27
263.693	3.07
264.067	3.16
264.442	3.16
264.816	2.9
265.19	2.9
265.564	3.08
265.938	3.01
266.313	2.93
266.687	3.21
267.061	3.09
267.435	3.43
267.809	3.18
268.183	3.44
268.556	3.39
268.93	3.41
269.304	3.11
269.678	3.35
270.051	3.45
270.425	3.4
270.799	3.14
271.172	3.3
271.546	3.49
271.919	3.31
272.293	3.3
272.666	3.49
273.04	3.42
273.413	3.16
273.787	3.19
274.16	3.13
274.533	2.99
274.906	3.14
275.279	3.05
275.653	3.21
276.026	3.11
276.399	3.09
276.772	3.01
277.145	3.33
277.518	3.17
277.891	3.12
278.263	3.32
278.636	3.56
279.009	3.4
279.382	3.3
279.755	3.51
280.127	3.41
280.5	3.39
280.872	3.31
281.245	3.35
281.617	3.33
281.99	3.37
282.362	3.42
282.735	3.28
283.107	3.28
283.479	3.33
283.852	3.43
284.224	3.25
284.596	3.24
284.968	3.08
285.34	3.11
285.713	3.14
286.085	3.08
286.457	3.18
286.829	3.26
287.201	3.26
287.572	3.2
287.944	3.26
288.316	3.27
288.688	3.37
289.06	3.65
289.431	3.75
289.803	3.76
290.175	3.72
290.546	3.82
290.918	3.74
291.289	3.75
291.661	3.62
292.032	3.87
292.403	4.04
292.775	4.11
293.146	4.09
293.517	4.01
293.889	3.9
294.26	3.82
294.631	3.8
295.002	3.75
295.373	3.78
295.744	3.72
296.115	3.82
296.486	3.79
296.857	3.72
297.228	3.64
297.599	3.66
297.97	3.8
298.34	3.88
298.711	3.92
299.082	3.89
299.452	3.91
299.823	3.91
300.194	3.85
300.564	3.74
300.935	3.83
301.305	3.88
301.676	3.85
302.046	3.75
302.416	3.73
302.787	3.77
303.157	3.65
303.527	3.92
303.897	3.86
304.267	3.89
304.637	3.99
305.008	3.96
305.378	4.12
305.748	4.15
306.117	4.13
306.487	4.39
306.857	4.67
307.227	4.8
307.597	4.64
307.967	4.61
308.336	4.77
308.706	4.78
309.076	4.83
309.445	5.05
309.815	5.08
310.184	5.06
310.554	5.13
310.923	5.26
311.293	5.07
311.662	5.07
312.031	5.02
312.401	4.82
312.77	4.81
313.139	4.65
313.508	4.47
313.877	4.56
314.246	4.31
314.616	4.12
314.985	3.9
315.353	3.93
315.722	4.1
316.091	4.21
316.46	4.24
316.829	4.33
317.198	4.34
317.567	4.42
317.935	4.45
318.304	4.63
318.672	4.59
319.041	4.75
319.41	4.75
319.778	4.76
320.147	4.89
320.515	5.02
320.883	5.08
321.252	5.54
321.62	5.47
321.988	5.59
322.357	5.72
322.725	6.21
323.093	6.23
323.461	6.04
323.829	5.89
324.197	5.88
324.565	5.87
324.933	5.82
325.301	5.7
325.669	5.84
326.037	5.72
326.405	5.8
326.772	5.86
327.14	5.86
327.508	5.88
327.875	5.86
328.243	5.92
328.61	6.03
328.978	5.73
329.346	5.73
329.713	5.82
330.08	5.9
330.448	5.71
330.815	5.79
331.182	5.82
331.55	5.96
331.917	5.9
332.284	5.91
332.651	5.99
333.018	6.14
333.385	6.23
333.752	6.22
334.119	6.19
334.486	6.16
334.853	6.31
335.22	6.39
335.587	6.46
335.954	6.41
336.32	6.51
336.687	6.79
337.054	6.78
337.42	6.83
337.787	6.75
338.153	6.7
338.52	6.85
338.886	6.8
339.253	6.66
339.619	6.78
339.986	6.77
340.352	6.91
340.718	7.01
341.084	6.93
341.451	7
341.817	7
342.183	7.02
342.549	7.06
342.915	7.18
343.281	7.14
343.647	7.24
344.013	7.11
344.379	6.98
344.745	7.1
345.11	7.07
345.476	7.14
345.842	7.14
346.208	7.02
346.573	7.08
346.939	7.2
347.304	7.16
347.67	7.18
348.035	7.02
348.401	7.02
348.766	7.08
349.132	7.12
349.497	7.05
349.862	7.11
350.228	6.98
350.593	6.78
350.958	6.9
351.323	6.84
351.688	6.93
352.053	6.93
352.418	6.91
352.783	6.87
353.148	6.82
353.513	6.95
353.878	6.95
354.243	6.9
354.608	6.89
354.972	6.92
355.337	6.91
355.702	6.92
356.066	6.9
356.431	6.81
356.795	6.84
357.16	6.91
357.524	6.88
357.889	6.93
358.253	7.1
358.618	7.08
358.982	7.13
359.346	7.21
359.71	7.2
360.075	7.17
360.439	7.2
360.803	7.25
361.167	7.13
361.531	7.11
361.895	7.11
362.259	7.14
362.623	7.07
362.987	7.05
363.351	7.03
363.714	7.01
364.078	7.02
364.442	6.86
364.806	6.85
365.169	6.8
365.533	6.81
365.896	6.7
366.26	6.59
366.623	6.5
366.987	6.39
367.35	6.35
367.714	6.29
368.077	6.25
368.44	6.2
368.803	6.23
369.167	6.17
369.53	6.21
369.893	6.13
370.256	6.07
370.619	5.96
370.982	5.92
371.345	5.9
371.708	5.81
372.071	5.86
372.434	5.81
372.797	5.86
373.159	5.79
373.522	5.72
373.885	5.79
374.247	5.8
374.61	5.81
374.973	5.75
375.335	5.74
375.698	5.69
376.06	5.6
376.423	5.54
376.785	5.59
377.147	5.55
377.51	5.5
377.872	5.56
378.234	5.66
378.596	5.62
378.958	5.54
379.321	5.49
379.683	5.47
380.045	5.42
380.407	5.34
380.769	5.25
381.13	5.23
381.492	5.18
381.854	5.12
382.216	5.04
382.578	5
382.939	4.98
383.301	4.92
383.663	4.93
384.024	4.93
384.386	4.89
384.747	4.87
385.109	4.81
385.47	4.78
385.832	4.71
386.193	4.66
386.554	4.66
386.916	4.69
387.277	4.63
387.638	4.59
387.999	4.59
388.36	4.61
388.721	4.56
389.082	4.56
389.443	4.5
389.804	4.52
390.165	4.53
390.526	4.55
390.887	4.57
391.248	4.53
391.609	4.57
391.969	4.56
392.33	4.51
392.691	4.52
393.051	4.46
393.412	4.48
393.772	4.52
394.133	4.48
394.493	4.4
394.854	4.39
395.214	4.43
395.574	4.43
395.935	4.41
396.295	4.4
396.655	4.32
397.015	4.34
397.376	4.28
397.736	4.25
398.096	4.19
398.456	4.12
398.816	4.08
399.176	3.98
399.535	3.93
399.895	3.93
400.255	3.94
400.615	3.93
400.975	3.88
401.334	3.81
401.694	3.78
402.054	3.8
402.413	3.76
402.773	3.71
403.132	3.69
403.492	3.65
403.851	3.66
404.211	3.66
404.57	3.65
404.929	3.61
405.288	3.6
405.648	3.59
406.007	3.57
406.366	3.57
406.725	3.57
407.084	3.56
407.443	3.55
407.802	3.48
408.161	3.48
408.52	3.46
408.879	3.46
409.238	3.45
409.596	3.42
409.955	3.48
410.314	3.48
410.673	3.45
411.031	3.44
411.39	3.43
411.748	3.45
412.107	3.45
412.465	3.46
412.824	3.44
413.182	3.45
413.54	3.48
413.899	3.44
414.257	3.4
414.615	3.41
414.974	3.41
415.332	3.44
415.69	3.43
416.048	3.43
416.406	3.41
416.764	3.44
417.122	3.48
417.48	3.45
417.838	3.44
418.195	3.41
418.553	3.42
418.911	3.42
419.269	3.39
419.626	3.37
419.984	3.37
420.342	3.37
420.699	3.36
421.057	3.34
421.414	3.36
421.772	3.36
422.129	3.34
422.486	3.34
422.844	3.32
423.201	3.31
423.558	3.3
423.915	3.3
424.273	3.27
424.63	3.26
424.987	3.25
425.344	3.24
425.701	3.24
426.058	3.22
426.415	3.2
426.772	3.22
427.128	3.21
427.485	3.21
427.842	3.21
428.199	3.2
428.555	3.21
428.912	3.2
429.269	3.19
429.625	3.18
429.982	3.18
430.338	3.19
430.695	3.2
431.051	3.19
431.407	3.19
431.764	3.18
432.12	3.17
432.476	3.16
432.832	3.18
433.189	3.19
433.545	3.19
433.901	3.18
434.257	3.17
434.613	3.16
434.969	3.15
435.325	3.15
435.681	3.14
436.036	3.13
436.392	3.14
436.748	3.15
437.104	3.14
437.459	3.12
437.815	3.13
438.171	3.13
438.526	3.14
438.882	3.14
439.237	3.13
439.593	3.12
439.948	3.13
440.304	3.13
440.659	3.13
441.014	3.14
441.369	3.13
441.725	3.13
442.08	3.14
442.435	3.15
442.79	3.14
443.145	3.15
443.5	3.14
443.855	3.1
444.21	3.1
444.565	3.14
444.92	3.14
445.275	3.13
445.629	3.11
445.984	3.11
446.339	3.11
446.693	3.1
447.048	3.1
447.403	3.09
447.757	3.07
448.112	3.06
448.466	3.05
448.82	3.05
449.175	3.05
449.529	3.03
449.883	3.01
450.238	3
450.592	3
450.946	3
451.3	3.01
451.654	3.01
452.008	2.99
452.362	2.96
452.716	2.95
453.07	2.96
453.424	2.96
453.778	2.93
454.132	2.93
454.486	2.93
454.839	2.94
455.193	2.94
455.547	2.91
455.9	2.93
456.254	2.95
456.607	2.94
456.961	2.96
457.314	2.97
457.668	2.95
458.021	2.95
458.375	2.96
458.728	2.97
459.081	3
459.434	2.98
459.787	3.02
460.141	3.02
460.494	3.02
460.847	3.01
461.2	3.03
461.553	3.04
461.906	3.05
462.259	3.03
462.611	3.05
462.964	3.07
463.317	3.06
463.67	3.05
464.022	3.03
464.375	3.02
464.728	3.03
465.08	3.04
465.433	3.05
465.785	3.05
466.138	3.04
466.49	3.01
466.843	3.04
467.195	3.01
467.547	3.03
467.899	3.03
468.252	3.06
468.604	3.06
468.956	3.07
469.308	3.08
469.66	3.12
470.012	3.12
470.364	3.12
470.716	3.14
471.068	3.17
471.42	3.21
471.772	3.23
472.123	3.23
472.475	3.24
472.827	3.24
473.178	3.25
473.53	3.25
473.882	3.28
474.233	3.27
474.585	3.28
474.936	3.3
475.288	3.31
475.639	3.28
475.99	3.26
476.342	3.3
476.693	3.27
477.044	3.26
477.395	3.26
477.746	3.25
478.097	3.24
478.448	3.22
478.8	3.2
479.15	3.19
479.501	3.2
479.852	3.19
480.203	3.18
480.554	3.17
480.905	3.18
481.255	3.17
481.606	3.17
481.957	3.18
482.307	3.18
482.658	3.17
483.009	3.19
483.359	3.2
483.709	3.19
484.06	3.21
484.41	3.21
484.761	3.21
485.111	3.2
485.461	3.2
485.811	3.21
486.162	3.21
486.512	3.21
486.862	3.21
487.212	3.22
487.562	3.22
487.912	3.22
488.262	3.22
488.612	3.22
488.961	3.22
489.311	3.21
489.661	3.2
490.011	3.2
490.36	3.2
490.71	3.19
491.06	3.19
491.409	3.19
491.759	3.19
492.108	3.18
492.458	3.2
492.807	3.19
493.157	3.19
493.506	3.2
493.855	3.2
494.204	3.2
494.554	3.21
494.903	3.23
495.252	3.26
495.601	3.27
495.95	3.28
496.299	3.29
496.648	3.32
496.997	3.35
497.346	3.37
497.695	3.38
498.043	3.42
498.392	3.46
498.741	3.49
499.09	3.52
499.438	3.55
499.787	3.59
500.135	3.62
500.484	3.66
500.832	3.68
501.181	3.73
501.529	3.77
501.878	3.8
502.226	3.84
502.574	3.84
502.923	3.87
503.271	3.92
503.619	3.96
503.967	3.97
504.315	4.02
504.663	4.07
505.011	4.1
505.359	4.13
505.707	4.17
506.055	4.22
506.403	4.25
506.751	4.31
507.098	4.35
507.446	4.4
507.794	4.45
508.141	4.51
508.489	4.56
508.837	4.62
509.184	4.68
509.531	4.73
509.879	4.8
510.226	4.87
510.574	4.93
510.921	4.99
511.268	5.07
511.616	5.12
511.963	5.19
512.31	5.27
512.657	5.33
513.004	5.36
513.351	5.44
513.698	5.51
514.045	5.59
514.392	5.67
514.739	5.75
515.086	5.8
515.432	5.87
515.779	5.94
516.126	6.03
516.473	6.09
516.819	6.16
517.166	6.24
517.512	6.28
517.859	6.35
518.205	6.41
518.552	6.48
518.898	6.52
519.245	6.58
519.591	6.64
519.937	6.72
520.283	6.82
520.629	6.86
520.976	6.95
521.322	7.02
521.668	7.09
522.014	7.18
522.36	7.28
522.706	7.38
523.052	7.49
523.398	7.59
523.743	7.72
524.089	7.83
524.435	7.93
524.781	8.04
525.126	8.11
525.472	8.19
525.817	8.25
526.163	8.33
526.509	8.38
526.854	8.45
527.199	8.51
527.545	8.56
527.89	8.63
528.235	8.68
528.581	8.75
528.926	8.8
529.271	8.87
529.616	8.94
529.961	9.03
530.306	9.09
530.651	9.15
530.996	9.22
531.341	9.3
531.686	9.39
532.031	9.48
532.376	9.56
532.721	9.67
533.065	9.79
533.41	9.9
533.755	10.01
534.099	10.11
534.444	10.22
534.788	10.33
535.133	10.44
535.477	10.55
535.822	10.68
536.166	10.84
536.51	10.97
536.855	11.12
537.199	11.26
537.543	11.43
537.887	11.63
538.231	11.79
538.576	11.93
538.92	12.07
539.264	12.22
539.608	12.38
539.951	12.53
540.295	12.65
540.639	12.78
540.983	12.95
541.327	13.12
541.671	13.26
542.014	13.42
542.358	13.57
542.701	13.74
543.045	13.88
543.389	14.02
543.732	14.17
544.075	14.32
544.419	14.47
544.762	14.63
545.105	14.79
545.449	14.97
545.792	15.19
546.135	15.43
546.478	15.66
546.821	15.9
547.165	16.12
547.508	16.4
547.851	16.65
548.194	16.85
548.536	17.05
548.879	17.26
549.222	17.46
549.565	17.67
549.908	17.86
550.25	18.09
550.593	18.33
550.936	18.59
551.278	18.83
551.621	19.07
551.963	19.29
552.306	19.51
552.648	19.74
552.991	19.99
553.333	20.18
553.675	20.4
554.017	20.61
554.36	20.84
554.702	21.01
555.044	21.26
555.386	21.54
555.728	21.79
556.07	22.07
556.412	22.35
556.754	22.58
557.096	22.82
557.438	23.13
557.78	23.39
558.121	23.63
558.463	23.88
558.805	24.15
559.147	24.44
559.488	24.66
559.83	24.92
560.171	25.13
560.513	25.38
560.854	25.6
561.196	25.82
561.537	26.05
561.878	26.32
562.22	26.54
562.561	26.75
562.902	26.99
563.243	27.16
563.584	27.37
563.925	27.61
564.266	27.87
564.607	28.06
564.948	28.28
565.289	28.51
565.63	28.7
565.971	28.89
566.312	29.04
566.653	29.25
566.993	29.38
567.334	29.59
567.675	29.79
568.015	29.94
568.356	30.13
568.696	30.33
569.037	30.5
569.377	30.7
569.718	30.84
570.058	31
570.398	31.21
570.739	31.43
571.079	31.58
571.419	31.71
571.759	31.87
572.099	31.98
572.439	32.09
572.779	32.25
573.119	32.37
573.459	32.58
573.799	32.7
574.139	32.85
574.479	32.96
574.819	33.11
575.158	33.28
575.498	33.42
575.838	33.56
576.177	33.64
576.517	33.73
576.856	33.89
577.196	34.02
577.535	34.18
577.875	34.28
578.214	34.39
578.553	34.49
578.893	34.58
579.232	34.75
579.571	34.91
579.91	35.03
580.25	35.18
580.589	35.26
580.928	35.41
581.267	35.62
581.606	35.73
581.945	35.83
582.283	35.95
582.622	36.07
582.961	36.13
583.3	36.36
583.639	36.49
583.977	36.56
584.316	36.63
584.654	36.7
584.993	36.79
585.332	37.01
585.67	37.2
586.008	37.32
586.347	37.42
586.685	37.47
587.024	37.54
587.362	37.63
587.7	37.72
588.038	37.86
588.376	37.92
588.715	38.06
589.053	38.11
589.391	38.13
589.729	38.19
590.067	38.21
590.404	38.25
590.742	38.24
591.08	38.34
591.418	38.44
591.756	38.51
592.093	38.57
592.431	38.62
592.769	38.69
593.106	38.76
593.444	38.75
593.781	38.91
594.119	38.99
594.456	39.06
594.793	39.1
595.131	39.07
595.468	39.18
595.805	39.18
596.143	39.29
596.48	39.4
596.817	39.5
597.154	39.69
597.491	39.65
597.828	39.75
598.165	39.81
598.502	39.85
598.839	39.88
599.176	39.96
599.512	40.02
599.849	40.04
600.186	40.13
600.523	40.26
600.859	40.32
601.196	40.38
601.532	40.47
601.869	40.52
602.205	40.7
602.542	40.68
602.878	40.77
603.215	40.78
603.551	40.84
603.887	40.84
604.223	40.77
604.56	40.91
604.896	40.96
605.232	40.96
605.568	41.04
605.904	41.07
606.24	41.1
606.576	41.12
606.912	41.17
607.248	41.2
607.583	41.23
607.919	41.2
608.255	41.26
608.591	41.31
608.926	41.35
609.262	41.31
609.597	41.37
609.933	41.42
610.268	41.48
610.604	41.48
610.939	41.56
611.275	41.64
611.61	41.67
611.945	41.67
612.281	41.72
612.616	41.73
612.951	41.76
613.286	41.81
613.621	41.85
613.956	41.91
614.291	41.91
614.626	42.01
614.961	42.1
615.296	42.08
615.631	42.03
615.966	42.07
616.3	42.12
616.635	42.13
616.97	42.16
617.304	42.24
617.639	42.32
617.973	42.35
618.308	42.37
618.642	42.38
618.977	42.46
619.311	42.52
619.646	42.58
619.98	42.7
620.314	42.75
620.648	42.76
620.983	42.75
621.317	42.88
621.651	42.83
621.985	42.76
622.319	42.85
622.653	43.01
622.987	43.06
623.321	42.98
623.655	42.99
623.988	42.95
624.322	42.93
624.656	42.96
624.99	42.94
625.323	42.96
625.657	42.98
625.99	43.05
626.324	43.08
626.657	43.14
626.991	43.07
627.324	43.05
627.658	43.1
627.991	43.11
628.324	43.01
628.657	43.03
628.991	43.08
629.324	43.02
629.657	42.93
629.99	42.93
630.323	42.96
630.656	42.93
630.989	42.96
631.322	42.93
631.655	43
631.987	43.05
632.32	43.15
632.653	43.21
632.986	43.07
633.318	43.07
633.651	43.03
633.984	43.09
634.316	43.11
634.649	43.04
634.981	43.1
635.313	43.15
635.646	43.19
635.978	43.28
636.31	43.45
636.643	43.48
636.975	43.53
637.307	43.68
637.639	43.67
637.971	43.7
638.303	43.72
638.635	43.61
638.967	43.58
639.299	43.55
639.631	43.5
639.963	43.67
640.295	43.68
640.626	43.67
640.958	43.65
641.29	43.69
641.621	43.73
641.953	43.73
642.285	43.74
642.616	43.63
642.948	43.64
643.279	43.48
643.61	43.55
643.942	43.54
644.273	43.48
644.604	43.66
644.936	43.66
645.267	43.68
645.598	43.72
645.929	43.64
646.26	43.63
646.591	43.75
646.922	43.72
647.253	43.74
647.584	43.74
647.915	43.77
648.245	43.79
648.576	43.81
648.907	43.84
649.238	43.81
649.568	43.95
649.899	43.96
650.229	44.08
650.56	44.01
650.89	44.04
651.221	43.99
651.551	43.94
651.882	43.94
652.212	44
652.542	44.02
652.872	44.16
653.203	44.18
653.533	44.09
653.863	44.16
654.193	44.2
654.523	44.35
654.853	44.48
655.183	44.56
655.513	44.75
655.843	44.84
656.172	44.87
656.502	44.83
656.832	44.87
657.162	44.78
657.491	44.88
657.821	44.91
658.15	44.94
658.48	44.98
658.809	45.04
659.139	45.05
659.468	45.08
659.798	45.09
660.127	45.08
660.456	45.15
660.785	45.09
661.115	44.99
661.444	44.86
661.773	44.8
662.102	44.79
662.431	44.66
662.76	44.5
663.089	44.56
663.418	44.48
663.747	44.42
664.076	44.5
664.404	44.45
664.733	44.53
665.062	44.64
665.39	44.55
665.719	44.52
666.048	44.47
666.376	44.41
666.705	44.33
667.033	44.36
667.362	44.36
667.69	44.47
668.018	44.61
668.347	44.67
668.675	44.69
669.003	44.63
669.331	44.71
669.659	44.79
669.987	44.79
670.315	44.81
670.643	44.9
670.971	44.91
671.299	44.91
671.627	44.67
671.955	44.63
672.283	44.65
672.61	44.69
672.938	44.87
673.266	44.99
673.593	44.87
673.921	44.88
674.249	44.82
674.576	44.77
674.904	44.83
675.231	44.87
675.558	44.93
675.886	44.99
676.213	44.83
676.54	44.86
676.867	44.91
677.195	45.02
677.522	44.93
677.849	44.98
678.176	44.97
678.503	45.1
678.83	45.08
679.157	45.11
679.484	45.08
679.81	44.98
680.137	45.03
680.464	45.39
680.791	45.37
681.117	45.56
681.444	45.6
681.771	45.59
682.097	45.62
682.424	45.58
682.75	45.45
683.077	45.43
683.403	45.51
683.729	45.39
684.056	45.42
684.382	45.52
684.708	45.46
685.034	45.57
685.36	45.57
685.686	45.53
686.012	45.59
686.339	45.67
686.664	45.54
686.99	45.53
687.316	45.31
687.642	45.42
687.968	45.25
688.294	45.08
688.619	45.07
688.945	45.01
689.271	44.98
689.596	45.24
689.922	45.39
690.247	45.28
690.573	45.41
690.898	45.56
691.224	45.6
691.549	45.62
691.874	45.65
692.2	45.61
692.525	45.82
692.85	45.89
693.175	45.81
693.5	45.99
693.825	45.9
694.15	45.94
694.475	45.84
694.8	45.84
695.125	45.92
695.45	45.92
695.775	46.01
696.099	46.05
696.424	45.82
696.749	45.84
697.073	45.82
697.398	45.78
697.723	45.58
698.047	45.69
698.372	45.68
698.696	45.53
699.02	45.64
699.345	45.55
699.669	45.44
699.993	45.42
700.318	45.39
700.642	45.36
700.966	45.27
701.29	45.32
701.614	45.3
701.938	45.26
702.262	45.15
702.586	45.13
702.91	45.21
703.234	45.31
703.557	45.22
703.881	45.27
704.205	45.16
704.529	45.14
704.852	44.97
705.176	44.93
705.499	45.14
705.823	45.1
706.146	45.17
706.47	45.19
706.793	45.35
707.117	45.29
707.44	45.24
707.763	45.24
708.086	45.17
708.409	45.15
708.733	45.12
709.056	45.21
709.379	45.27
709.702	45.29
710.025	45.31
710.348	45.38
710.671	45.52
710.993	45.74
711.316	45.89
711.639	45.74
711.962	45.91
712.284	45.83
712.607	45.75
712.93	45.65
713.252	45.72
713.575	45.64
713.897	45.88
714.22	46
714.542	46.12
714.864	46.27
715.187	46.31
715.509	46.42
715.831	46.42
716.153	46.42
716.475	46.26
716.798	46.17
717.12	46.07
717.442	45.99
717.764	45.9
718.085	45.94
718.407	46.12
718.729	46.01
719.051	45.9
719.373	45.9
719.695	45.91
720.016	46.06
720.338	45.94
720.659	45.78
720.981	45.83
721.302	45.88
721.624	45.73
721.945	45.56
722.267	45.53
722.588	45.47
722.909	45.29
723.231	45.4
723.552	45.57
723.873	45.53
724.194	45.46
724.515	45.54
724.836	45.45
725.157	45.38
725.478	45.33
725.799	45.51
726.12	45.58
726.441	45.45
726.762	45.1
727.083	45.11
727.403	45.24
727.724	45.13
728.045	44.93
728.365	45.16
728.686	45.39
729.006	45.27
729.327	45.27
729.647	45.52
729.967	45.31
730.288	45.28
730.608	45.46
730.928	45.48
731.249	45.5
731.569	45.32
731.889	45.2
732.209	45.31
732.529	45.41
732.849	45.53
733.169	45.71
733.489	45.85
733.809	46.09
734.129	45.92
734.448	45.83
734.768	46.03
735.088	45.86
735.408	45.75
735.727	45.83
736.047	45.93
736.366	45.84
736.686	45.82
737.005	46.01
737.325	45.96
737.644	45.84
737.963	45.86
738.283	46.19
738.602	46.38
738.921	46.29
739.24	46.04
739.56	45.92
739.879	46
740.198	45.77
740.517	45.65
740.836	45.8
741.155	46.04
741.473	45.8
741.792	45.9
742.111	46.07
742.43	46.12
742.748	46
743.067	46.02
743.386	46.1
743.704	46.02
744.023	46.06
744.341	46.24
744.66	46.09
744.978	45.86
745.297	45.8
745.615	45.69
745.933	45.83
746.252	46.07
746.57	46.05
746.888	46.24
747.206	46.17
747.524	46.14
747.842	45.91
748.16	46.15
748.478	46.28
748.796	46.28
749.114	46.55
749.432	46.66
749.749	46.47
750.067	46.56
750.385	46.38
750.703	45.9
751.02	45.95
751.338	45.8
751.655	45.86
751.973	45.68
752.29	46.11
752.608	45.71
752.925	45.57
753.242	45.54
753.56	45.42
753.877	45.91
754.194	45.52
754.511	45.4
754.828	45.32
755.145	45.07
755.462	45.11
755.779	44.57
756.096	44.56
756.413	44.57
756.73	44.63
757.047	44.98
757.364	45.47
757.68	45.49
757.997	45.97
758.314	46.01
758.63	46.24
758.947	46.17
759.264	46.49
759.58	46.38
759.896	46.27
760.213	46.57
760.529	45.99
760.846	46.22
761.162	46.62
761.478	46.71
761.794	46.71
762.11	46.63
762.426	46.96
762.743	46.97
763.059	47.22
763.375	47.2
763.69	46.93
764.006	46.76
764.322	46.64
764.638	46.47
764.954	46.44
765.27	46.53
765.585	46.26
765.901	46.22
766.216	46.21
766.532	46.32
766.848	46.34
767.163	46.71
767.478	46.63
767.794	46.74
768.109	47.13
768.424	46.91
768.74	47.12
769.055	47.06
769.37	47.17
769.685	46.74
770	46.86
770.315	47.07
770.63	47.62
770.945	47.9
771.26	47.87
771.575	47.66
771.89	47.57
772.205	47.78
772.52	47.81
772.834	47.95
773.149	47.76
773.464	47.53
773.778	47.33
774.093	47.74
774.407	47.75
774.722	47.01
775.036	47.39
775.351	47.71
775.665	47.54
775.979	47.59
776.293	47.99
776.608	47.68
776.922	47.92
777.236	47.57
777.55	47.43
777.864	47.78
778.178	47.97
778.492	48.16
778.806	48.54
779.12	48.63
779.434	47.88
779.747	48.33
780.061	48.48
780.375	48.73
780.689	48.42
781.002	47.83
781.316	47.73
781.629	47.69
781.943	46.9
782.256	47.51
782.57	47.49
782.883	47.41
783.196	47.38
783.51	47.2
783.823	47.31
784.136	46.95
784.449	46.41
784.762	46.53
785.075	46.77
785.388	46.58
785.701	46.85
786.014	47.64
786.327	47.43
786.64	47.18
786.953	46.48
787.266	46.72
787.578	46.84
787.891	47.25
788.204	47.26
788.516	47.33
788.829	47.05
789.141	46.67
789.454	46.44
789.766	47.04
790.079	47.03
790.391	46.95
790.703	47.11
791.016	47.42
791.328	47.55
791.64	46.84
791.952	46.65
792.264	46.64
792.576	46.34
792.888	46.4
793.2	47.08
793.512	47.18
793.824	46.88
794.136	46.6
794.448	46.6
794.76	46.88
795.071	47.03
795.383	46.87
795.695	46.8
796.006	46.77
796.318	46.45
796.629	46.01
796.941	45.48
797.252	45.86
797.564	46.07
797.875	45.67
798.186	46.02
798.497	45.85
798.809	46.01
799.12	46.23
799.431	45.96
799.742	45.39
800.053	45.4
800.364	45.22
800.675	46.1
800.986	45.73
801.297	44.83
801.608	45.09
801.918	45.3
802.229	45.93
802.54	46.16
802.851	46.73
803.161	46.97
803.472	48.09
803.782	48.01
804.093	47.4
804.403	47.94
804.714	47.66
805.024	47.78
805.334	47.71
805.645	47.89
805.955	48.43
806.265	48.88
806.575	49.39
806.885	49.76
807.195	48.93
807.505	49.3
807.815	50.05
808.125	49.54
808.435	49.14
808.745	49.14
809.055	49.01
809.365	48.68
809.674	48.3
809.984	46.82
810.294	46.94
810.603	47.22
810.913	46.29
811.222	46.26
811.532	46.56
811.841	45.87
812.151	45.31
812.46	44.38
812.769	44.63
813.079	44.71
813.388	45.3
813.697	44.75
814.006	44.91
814.315	45.05
814.624	45.19
814.933	45.39
815.242	45.59
815.551	46.02
815.86	45.89
816.169	46.06
816.478	47.49
816.786	46.87
817.095	46.35
817.404	47.37
817.712	46.78
818.021	46.91
818.33	47.64
818.638	47.06
818.947	47.99
819.255	47.26
819.563	46.88
819.872	46.71
820.18	47.02
820.488	47.15
820.796	47.33
821.105	47.27
821.413	47.55
821.721	47.41
822.029	47.32
822.337	47.41
822.645	47.65
822.953	47.81
823.26	47.85
823.568	48.16
823.876	47.98
824.184	48.25
824.491	48.35
824.799	48.25
825.107	48.51
825.414	48.18
825.722	48.34
826.029	48.42
826.337	48.38
826.644	48.51
826.951	48.5
827.259	48.53
827.566	48.86
827.873	48.69
828.18	48.9
828.488	48.9
828.795	48.73
829.102	48.64
829.409	48.05
829.716	48.36
830.023	48.12
830.329	48.34
830.636	48.28
830.943	47.84
831.25	47.9
831.557	48.17
831.863	48.72
832.17	48.6
832.476	48.47
832.783	48.64
833.089	48.47
833.396	48.16
833.702	47.78
834.009	47.29
834.315	46.87
834.621	46.76
834.928	46.87
835.234	46.75
835.54	46.99
835.846	47.57
836.152	47.4
836.458	47.27
836.764	47.32
837.07	46.87
837.376	46.96
837.682	46.64
837.988	45.86
838.293	45.48
838.599	45.09
838.905	45.26
839.211	44.92
839.516	44.93
839.822	44.79
840.127	44.7
840.433	44.73
840.738	44.64
841.044	43.33
841.349	43.05
841.654	43.63
841.959	43.27
842.265	42.36
842.57	41.91
842.875	41.77
843.18	41.79
843.485	42.43
843.79	42.44
844.095	42.53
844.4	42.3
844.705	42.71
845.01	42.53
845.315	42.7
845.619	43.59
845.924	42.02
846.229	42.34
846.533	41.83
846.838	41.87
847.142	43.29
847.447	43.46
847.751	44.15
848.056	45.21
848.36	43.63
848.664	43.3
848.969	42.94
849.273	42.46
849.577	40.31
849.881	40.6
850.185	39.47
850.489	39.16
850.794	38.96
851.097	40.22
851.401	39.17
851.705	39.58
852.009	38.08
852.313	41.51
852.617	41.46
852.92	42.59
853.224	40.46
853.528	40.16
853.831	42.56
854.135	42.32
854.438	39.48
854.742	38.37
855.045	38.59
855.349	38.26
855.652	38.52
855.955	38.33
856.259	37.01
856.562	38.05
856.865	37.53
857.168	37.75
857.471	36.21
857.774	39.37
858.077	38.07
858.38	38.75
858.683	37.37
858.986	37.16
859.289	37.48
859.592	39.3
859.894	39.17
860.197	38.07
860.5	39.12
860.802	41
861.105	43.96
861.407	42.97
861.71	41.94
862.012	42.09
862.315	45.74
862.617	47.74
862.919	47.96
863.222	47.16
863.524	48.2
863.826	46.55
864.128	45.55
864.43	44
864.732	42.4
865.034	42.35
865.336	43.6
865.638	42.52
865.94	41.94
866.242	41.77
866.544	41.7
866.846	39.24
867.147	41.04
867.449	39.87
867.751	40.96
868.052	42.43
868.354	41.54
868.655	40.9
868.957	38.12
869.258	37.06
869.56	37.88
869.861	38.69
870.162	38.28
870.463	38.46
870.765	39.69
871.066	40.61
871.367	39.94
871.668	39.95
871.969	40.5
872.27	41.33
872.571	42.16
872.872	42.33
873.173	45.36
873.473	42.23
873.774	41.25
874.075	43.99
874.376	43.12
874.676	44.85
874.977	43.24
875.277	45.75
875.578	45.09
875.878	45.98
876.179	44.94
876.479	46.97
876.78	46.65
877.08	48.22
877.38	49.51
877.68	50.94
877.981	50.27
878.281	49.61
878.581	48.77
