Data from MVZ_BU147393_Reflection_00002.txt Node
Date: Tue Nov 19 12:06:50 EST 2019
User: vgr7
Spectrometer: USB2G7710
Scans to average: 3
Trigger mode: 4
Integration Time (sec): 2.000000E-2
Electric dark correction enabled: true
Boxcar width: 10
XAxis mode: Wavelengths
Number of Pixels in Spectrum: 2048
>>>>>Begin Spectral Data<<<<<
177.721	113.55
178.105	3350
178.488	1.57
178.871	171.88
179.254	172.73
179.636	113.94
180.019	161.15
180.402	-666.67
180.785	-106.82
181.168	-101.46
181.55	168.97
181.933	42.62
182.316	-25
182.698	-107.96
183.081	-26.33
183.463	-45.09
183.846	-134.51
184.228	-166.47
184.611	-286.55
184.993	-723.08
185.376	11975
185.758	38600
186.14	1160
186.522	235.59
186.904	1400
187.287	3885.71
187.669	269.23
188.051	216.07
188.433	63.74
188.815	104.48
189.197	74.9
189.579	77.08
189.961	55.25
190.342	17.79
190.724	27.84
191.106	24.22
191.488	20.06
191.869	24.64
192.251	22.9
192.633	25.99
193.014	14.53
193.396	10.62
193.777	25.17
194.159	36.28
194.54	49.68
194.922	49.86
195.303	58.04
195.684	55.71
196.065	74.28
196.447	89.13
196.828	102.59
197.209	93.34
197.59	75.43
197.971	78.59
198.352	88.31
198.733	82.53
199.114	89.46
199.495	90.69
199.876	90.65
200.257	99.36
200.638	83.35
201.018	84.82
201.399	90.44
201.78	66.86
202.16	59.63
202.541	36.86
202.922	28.89
203.302	22.04
203.683	20
204.063	10.92
204.444	15.1
204.824	14.65
205.204	23.03
205.585	28.23
205.965	28.23
206.345	24.97
206.725	27.05
207.106	32.67
207.486	33.43
207.866	30.94
208.246	26.36
208.626	28.11
209.006	27.66
209.386	27.79
209.766	34.33
210.145	38.79
210.525	47.54
210.905	53.1
211.285	65.97
211.664	77.55
212.044	80.31
212.424	68.9
212.803	59.34
213.183	61.32
213.562	70.81
213.942	65.72
214.321	62.36
214.701	81.61
215.08	73.52
215.459	79.4
215.838	112.8
216.218	187.26
216.597	172.03
216.976	260.84
217.355	304.45
217.734	222.16
218.113	199.2
218.492	195.69
218.871	191.09
219.25	170.34
219.629	249.85
220.008	197.29
220.387	260.81
220.766	218.82
221.144	306.81
221.523	279.95
221.902	299.72
222.28	362.71
222.659	190.34
223.037	149.85
223.416	151.91
223.794	104.62
224.173	77.45
224.551	78.72
224.929	60.31
225.308	53.11
225.686	42.61
226.064	43.78
226.442	37.99
226.821	30.57
227.199	31.05
227.577	26.33
227.955	27.09
228.333	26.07
228.711	26.25
229.089	22.48
229.467	21.34
229.845	19.65
230.222	22.17
230.6	17.78
230.978	21.5
231.356	19.75
231.733	20.01
232.111	20.43
232.488	18.13
232.866	20.76
233.243	20.37
233.621	22.16
233.998	23.8
234.376	22.15
234.753	20.26
235.13	20.13
235.508	18.86
235.885	17.68
236.262	15.23
236.639	13.82
237.016	13.46
237.393	13.17
237.77	11.85
238.147	9.18
238.524	10.77
238.901	8.29
239.278	8.89
239.655	8.53
240.032	8.1
240.409	7.5
240.785	7.09
241.162	6.82
241.539	6.22
241.915	5.55
242.292	5.67
242.668	6.44
243.045	6.3
243.421	6.04
243.798	6.26
244.174	6.63
244.551	6.51
244.927	6.69
245.303	6.59
245.679	6.69
246.056	6.61
246.432	6.26
246.808	6.57
247.184	6.51
247.56	6.53
247.936	6.61
248.312	6.66
248.688	6.49
249.064	6.16
249.44	5.98
249.815	6.12
250.191	6.04
250.567	5.89
250.943	5.82
251.318	6.06
251.694	5.65
252.069	5.38
252.445	5.29
252.82	5.43
253.196	5.49
253.571	5.58
253.947	5.98
254.322	5.8
254.697	5.61
255.073	5.27
255.448	4.73
255.823	4.63
256.198	4.58
256.573	4.84
256.948	5.32
257.323	5.37
257.698	5.01
258.073	5.11
258.448	5.17
258.823	4.91
259.198	4.81
259.573	4.94
259.948	4.92
260.322	4.89
260.697	4.66
261.072	4.69
261.446	4.51
261.821	4.43
262.195	4.5
262.57	4.66
262.944	4.8
263.319	5.13
263.693	5.1
264.067	5.15
264.442	5.11
264.816	5.01
265.19	4.94
265.564	5.01
265.938	4.77
266.313	4.52
266.687	4.64
267.061	4.55
267.435	4.47
267.809	4.35
268.183	4.43
268.556	4.33
268.93	4.34
269.304	4.39
269.678	4.37
270.051	4.32
270.425	4.12
270.799	3.81
271.172	3.7
271.546	3.76
271.919	3.77
272.293	3.82
272.666	3.75
273.04	3.74
273.413	3.71
273.787	3.82
274.16	3.72
274.533	3.83
274.906	3.92
275.279	3.69
275.653	3.92
276.026	4.03
276.399	4.05
276.772	3.98
277.145	4.07
277.518	4.07
277.891	4.16
278.263	4.4
278.636	4.68
279.009	4.69
279.382	4.73
279.755	4.63
280.127	4.57
280.5	4.56
280.872	4.7
281.245	4.69
281.617	4.68
281.99	4.96
282.362	4.86
282.735	4.78
283.107	4.97
283.479	4.92
283.852	4.8
284.224	4.95
284.596	4.92
284.968	4.86
285.34	4.9
285.713	4.88
286.085	4.67
286.457	4.61
286.829	4.5
287.201	4.37
287.572	4.49
287.944	4.49
288.316	4.35
288.688	4.31
289.06	4.36
289.431	4.47
289.803	4.32
290.175	4.29
290.546	4.4
290.918	4.37
291.289	4.37
291.661	4.35
292.032	4.27
292.403	4.33
292.775	4.38
293.146	4.4
293.517	4.33
293.889	4.36
294.26	4.35
294.631	4.5
295.002	4.52
295.373	4.33
295.744	4.26
296.115	4.45
296.486	4.6
296.857	4.6
297.228	4.47
297.599	4.38
297.97	4.54
298.34	4.41
298.711	4.49
299.082	4.41
299.452	4.46
299.823	4.46
300.194	4.41
300.564	4.44
300.935	4.35
301.305	4.49
301.676	4.36
302.046	4.33
302.416	4.28
302.787	4.25
303.157	4.41
303.527	4.63
303.897	4.55
304.267	4.4
304.637	4.37
305.008	4.47
305.378	4.75
305.748	4.54
306.117	4.65
306.487	4.64
306.857	4.76
307.227	4.78
307.597	4.66
307.967	4.58
308.336	4.5
308.706	4.69
309.076	4.64
309.445	4.71
309.815	4.66
310.184	4.56
310.554	4.49
310.923	4.42
311.293	4.41
311.662	4.38
312.031	4.38
312.401	4.46
312.77	4.32
313.139	4.23
313.508	4.33
313.877	4.24
314.246	4.25
314.616	4.27
314.985	4.13
315.353	4.31
315.722	4.35
316.091	4.32
316.46	4.15
316.829	4.23
317.198	4.42
317.567	4.74
317.935	4.91
318.304	4.92
318.672	5.07
319.041	4.87
319.41	4.81
319.778	4.77
320.147	4.61
320.515	4.58
320.883	4.46
321.252	4.36
321.62	4.52
321.988	4.56
322.357	4.35
322.725	4.34
323.093	4.31
323.461	4.47
323.829	4.48
324.197	4.6
324.565	4.47
324.933	4.3
325.301	4.05
325.669	3.93
326.037	4.15
326.405	4.01
326.772	4.03
327.14	4.08
327.508	4.1
327.875	4.09
328.243	4.34
328.61	4.4
328.978	4.44
329.346	4.3
329.713	4.29
330.08	4.39
330.448	4.6
330.815	4.63
331.182	4.55
331.55	4.72
331.917	4.53
332.284	4.69
332.651	4.72
333.018	4.71
333.385	5
333.752	4.99
334.119	5.18
334.486	5.37
334.853	5.38
335.22	5.32
335.587	5.36
335.954	5.15
336.32	5.14
336.687	5.18
337.054	5.22
337.42	5.1
337.787	5.07
338.153	4.97
338.52	4.9
338.886	4.93
339.253	4.81
339.619	4.89
339.986	4.81
340.352	4.92
340.718	4.84
341.084	4.68
341.451	4.69
341.817	4.59
342.183	4.47
342.549	4.55
342.915	4.63
343.281	4.67
343.647	4.73
344.013	4.76
344.379	4.78
344.745	4.82
345.11	4.76
345.476	4.83
345.842	4.82
346.208	4.83
346.573	4.8
346.939	4.78
347.304	4.81
347.67	4.75
348.035	4.71
348.401	4.75
348.766	4.83
349.132	4.69
349.497	4.62
349.862	4.58
350.228	4.59
350.593	4.52
350.958	4.51
351.323	4.47
351.688	4.6
352.053	4.49
352.418	4.44
352.783	4.56
353.148	4.5
353.513	4.57
353.878	4.47
354.243	4.29
354.608	4.29
354.972	4.25
355.337	4.32
355.702	4.33
356.066	4.44
356.431	4.36
356.795	4.49
357.16	4.55
357.524	4.52
357.889	4.44
358.253	4.54
358.618	4.49
358.982	4.48
359.346	4.37
359.71	4.42
360.075	4.46
360.439	4.5
360.803	4.54
361.167	4.49
361.531	4.57
361.895	4.66
362.259	4.7
362.623	4.68
362.987	4.69
363.351	4.63
363.714	4.59
364.078	4.56
364.442	4.51
364.806	4.56
365.169	4.63
365.533	4.65
365.896	4.66
366.26	4.69
366.623	4.76
366.987	4.79
367.35	4.85
367.714	4.84
368.077	4.79
368.44	4.76
368.803	4.72
369.167	4.69
369.53	4.74
369.893	4.69
370.256	4.67
370.619	4.64
370.982	4.61
371.345	4.66
371.708	4.67
372.071	4.67
372.434	4.61
372.797	4.62
373.159	4.59
373.522	4.52
373.885	4.49
374.247	4.41
374.61	4.41
374.973	4.39
375.335	4.38
375.698	4.3
376.06	4.29
376.423	4.35
376.785	4.35
377.147	4.3
377.51	4.36
377.872	4.39
378.234	4.37
378.596	4.38
378.958	4.35
379.321	4.36
379.683	4.38
380.045	4.37
380.407	4.35
380.769	4.34
381.13	4.35
381.492	4.4
381.854	4.4
382.216	4.33
382.578	4.33
382.939	4.35
383.301	4.38
383.663	4.37
384.024	4.36
384.386	4.35
384.747	4.34
385.109	4.29
385.47	4.28
385.832	4.29
386.193	4.29
386.554	4.27
386.916	4.28
387.277	4.21
387.638	4.23
387.999	4.22
388.36	4.24
388.721	4.23
389.082	4.18
389.443	4.21
389.804	4.28
390.165	4.28
390.526	4.24
390.887	4.27
391.248	4.31
391.609	4.25
391.969	4.27
392.33	4.27
392.691	4.25
393.051	4.28
393.412	4.31
393.772	4.34
394.133	4.32
394.493	4.3
394.854	4.32
395.214	4.33
395.574	4.31
395.935	4.31
396.295	4.31
396.655	4.33
397.015	4.31
397.376	4.31
397.736	4.29
398.096	4.29
398.456	4.27
398.816	4.22
399.176	4.25
399.535	4.24
399.895	4.26
400.255	4.25
400.615	4.23
400.975	4.2
401.334	4.17
401.694	4.24
402.054	4.26
402.413	4.28
402.773	4.26
403.132	4.27
403.492	4.28
403.851	4.28
404.211	4.22
404.57	4.23
404.929	4.21
405.288	4.23
405.648	4.2
406.007	4.17
406.366	4.18
406.725	4.17
407.084	4.18
407.443	4.19
407.802	4.19
408.161	4.16
408.52	4.17
408.879	4.16
409.238	4.11
409.596	4.09
409.955	4.08
410.314	4.08
410.673	4.04
411.031	4.03
411.39	4.05
411.748	4.1
412.107	4.09
412.465	4.09
412.824	4.06
413.182	4.11
413.54	4.14
413.899	4.12
414.257	4.13
414.615	4.12
414.974	4.12
415.332	4.12
415.69	4.13
416.048	4.13
416.406	4.14
416.764	4.14
417.122	4.13
417.48	4.13
417.838	4.11
418.195	4.14
418.553	4.12
418.911	4.13
419.269	4.11
419.626	4.13
419.984	4.14
420.342	4.14
420.699	4.13
421.057	4.13
421.414	4.13
421.772	4.12
422.129	4.11
422.486	4.11
422.844	4.11
423.201	4.12
423.558	4.12
423.915	4.12
424.273	4.12
424.63	4.14
424.987	4.16
425.344	4.16
425.701	4.15
426.058	4.17
426.415	4.15
426.772	4.17
427.128	4.17
427.485	4.16
427.842	4.16
428.199	4.18
428.555	4.18
428.912	4.18
429.269	4.2
429.625	4.19
429.982	4.2
430.338	4.22
430.695	4.2
431.051	4.2
431.407	4.2
431.764	4.17
432.12	4.18
432.476	4.16
432.832	4.16
433.189	4.16
433.545	4.14
433.901	4.14
434.257	4.13
434.613	4.11
434.969	4.11
435.325	4.11
435.681	4.1
436.036	4.1
436.392	4.1
436.748	4.09
437.104	4.09
437.459	4.08
437.815	4.06
438.171	4.08
438.526	4.07
438.882	4.07
439.237	4.07
439.593	4.06
439.948	4.06
440.304	4.07
440.659	4.07
441.014	4.06
441.369	4.06
441.725	4.07
442.08	4.06
442.435	4.05
442.79	4.05
443.145	4.04
443.5	4.04
443.855	4.02
444.21	4.02
444.565	4.03
444.92	4.01
445.275	4.02
445.629	4.01
445.984	4
446.339	4
446.693	4.01
447.048	4
447.403	3.98
447.757	3.96
448.112	3.95
448.466	3.96
448.82	3.97
449.175	3.94
449.529	3.96
449.883	3.95
450.238	3.95
450.592	3.96
450.946	3.97
451.3	3.97
451.654	3.97
452.008	3.96
452.362	4.02
452.716	4.01
453.07	4
453.424	4.01
453.778	4.01
454.132	3.99
454.486	3.99
454.839	3.98
455.193	3.99
455.547	4.01
455.9	3.99
456.254	3.96
456.607	3.99
456.961	3.98
457.314	3.98
457.668	3.99
458.021	3.99
458.375	3.97
458.728	3.99
459.081	4.01
459.434	4.01
459.787	4
460.141	4.01
460.494	4.03
460.847	4.03
461.2	4.03
461.553	4.05
461.906	4.08
462.259	4.1
462.611	4.1
462.964	4.11
463.317	4.12
463.67	4.14
464.022	4.14
464.375	4.16
464.728	4.18
465.08	4.16
465.433	4.18
465.785	4.19
466.138	4.18
466.49	4.17
466.843	4.17
467.195	4.18
467.547	4.17
467.899	4.16
468.252	4.18
468.604	4.18
468.956	4.17
469.308	4.15
469.66	4.16
470.012	4.18
470.364	4.19
470.716	4.21
471.068	4.25
471.42	4.24
471.772	4.22
472.123	4.23
472.475	4.26
472.827	4.26
473.178	4.28
473.53	4.26
473.882	4.27
474.233	4.28
474.585	4.28
474.936	4.28
475.288	4.28
475.639	4.28
475.99	4.28
476.342	4.28
476.693	4.28
477.044	4.26
477.395	4.24
477.746	4.22
478.097	4.22
478.448	4.19
478.8	4.17
479.15	4.17
479.501	4.17
479.852	4.14
480.203	4.14
480.554	4.13
480.905	4.16
481.255	4.15
481.606	4.17
481.957	4.16
482.307	4.17
482.658	4.16
483.009	4.16
483.359	4.17
483.709	4.17
484.06	4.19
484.41	4.2
484.761	4.21
485.111	4.21
485.461	4.21
485.811	4.21
486.162	4.22
486.512	4.23
486.862	4.23
487.212	4.24
487.562	4.23
487.912	4.24
488.262	4.23
488.612	4.24
488.961	4.23
489.311	4.22
489.661	4.22
490.011	4.22
490.36	4.23
490.71	4.22
491.06	4.23
491.409	4.22
491.759	4.22
492.108	4.22
492.458	4.23
492.807	4.22
493.157	4.23
493.506	4.23
493.855	4.24
494.204	4.24
494.554	4.24
494.903	4.27
495.252	4.27
495.601	4.29
495.95	4.3
496.299	4.32
496.648	4.35
496.997	4.37
497.346	4.38
497.695	4.4
498.043	4.43
498.392	4.44
498.741	4.46
499.09	4.48
499.438	4.5
499.787	4.51
500.135	4.52
500.484	4.53
500.832	4.53
501.181	4.54
501.529	4.56
501.878	4.58
502.226	4.59
502.574	4.62
502.923	4.62
503.271	4.62
503.619	4.63
503.967	4.63
504.315	4.65
504.663	4.63
505.011	4.62
505.359	4.6
505.707	4.59
506.055	4.58
506.403	4.56
506.751	4.57
507.098	4.57
507.446	4.59
507.794	4.58
508.141	4.59
508.489	4.59
508.837	4.6
509.184	4.62
509.531	4.62
509.879	4.61
510.226	4.61
510.574	4.62
510.921	4.63
511.268	4.62
511.616	4.6
511.963	4.64
512.31	4.66
512.657	4.68
513.004	4.69
513.351	4.68
513.698	4.68
514.045	4.69
514.392	4.7
514.739	4.71
515.086	4.74
515.432	4.77
515.779	4.77
516.126	4.79
516.473	4.78
516.819	4.76
517.166	4.77
517.512	4.75
517.859	4.75
518.205	4.74
518.552	4.74
518.898	4.75
519.245	4.72
519.591	4.72
519.937	4.71
520.283	4.72
520.629	4.74
520.976	4.75
521.322	4.77
521.668	4.76
522.014	4.74
522.36	4.73
522.706	4.74
523.052	4.74
523.398	4.74
523.743	4.75
524.089	4.79
524.435	4.79
524.781	4.81
525.126	4.83
525.472	4.84
525.817	4.86
526.163	4.88
526.509	4.91
526.854	4.91
527.199	4.93
527.545	4.94
527.89	4.93
528.235	4.95
528.581	4.94
528.926	4.94
529.271	4.94
529.616	4.95
529.961	4.95
530.306	4.96
530.651	4.96
530.996	4.98
531.341	4.99
531.686	4.99
532.031	5
532.376	5
532.721	5.02
533.065	5.02
533.41	5.03
533.755	5.03
534.099	5.04
534.444	5.04
534.788	5.03
535.133	5.02
535.477	5.03
535.822	5.04
536.166	5.05
536.51	5.06
536.855	5.05
537.199	5.06
537.543	5.07
537.887	5.07
538.231	5.07
538.576	5.05
538.92	5.05
539.264	5.04
539.608	5.06
539.951	5.05
540.295	5.04
540.639	5.06
540.983	5.05
541.327	5.06
541.671	5.08
542.014	5.07
542.358	5.09
542.701	5.1
543.045	5.1
543.389	5.1
543.732	5.1
544.075	5.12
544.419	5.12
544.762	5.12
545.105	5.13
545.449	5.14
545.792	5.15
546.135	5.18
546.478	5.19
546.821	5.2
547.165	5.22
547.508	5.21
547.851	5.21
548.194	5.2
548.536	5.17
548.879	5.18
549.222	5.19
549.565	5.22
549.908	5.2
550.25	5.21
550.593	5.19
550.936	5.2
551.278	5.2
551.621	5.17
551.963	5.2
552.306	5.2
552.648	5.16
552.991	5.17
553.333	5.12
553.675	5.15
554.017	5.13
554.36	5.12
554.702	5.11
555.044	5.11
555.386	5.12
555.728	5.15
556.07	5.12
556.412	5.1
556.754	5.06
557.096	5.09
557.438	5.08
557.78	5.11
558.121	5.14
558.463	5.16
558.805	5.16
559.147	5.14
559.488	5.12
559.83	5.17
560.171	5.16
560.513	5.18
560.854	5.16
561.196	5.15
561.537	5.15
561.878	5.18
562.22	5.18
562.561	5.2
562.902	5.2
563.243	5.19
563.584	5.2
563.925	5.2
564.266	5.19
564.607	5.2
564.948	5.2
565.289	5.19
565.63	5.18
565.971	5.19
566.312	5.19
566.653	5.21
566.993	5.17
567.334	5.18
567.675	5.19
568.015	5.18
568.356	5.22
568.696	5.23
569.037	5.23
569.377	5.23
569.718	5.26
570.058	5.24
570.398	5.26
570.739	5.24
571.079	5.27
571.419	5.25
571.759	5.23
572.099	5.24
572.439	5.23
572.779	5.24
573.119	5.26
573.459	5.25
573.799	5.24
574.139	5.27
574.479	5.27
574.819	5.29
575.158	5.32
575.498	5.33
575.838	5.3
576.177	5.3
576.517	5.29
576.856	5.26
577.196	5.28
577.535	5.29
577.875	5.31
578.214	5.29
578.553	5.32
578.893	5.39
579.232	5.4
579.571	5.42
579.91	5.42
580.25	5.46
580.589	5.53
580.928	5.54
581.267	5.54
581.606	5.52
581.945	5.51
582.283	5.49
582.622	5.46
582.961	5.49
583.3	5.48
583.639	5.5
583.977	5.49
584.316	5.52
584.654	5.49
584.993	5.51
585.332	5.52
585.67	5.55
586.008	5.47
586.347	5.46
586.685	5.42
587.024	5.39
587.362	5.36
587.7	5.31
588.038	5.36
588.376	5.38
588.715	5.39
589.053	5.37
589.391	5.4
589.729	5.41
590.067	5.41
590.404	5.42
590.742	5.42
591.08	5.42
591.418	5.4
591.756	5.43
592.093	5.46
592.431	5.46
592.769	5.44
593.106	5.45
593.444	5.47
593.781	5.52
594.119	5.53
594.456	5.57
594.793	5.52
595.131	5.47
595.468	5.44
595.805	5.48
596.143	5.49
596.48	5.51
596.817	5.51
597.154	5.54
597.491	5.56
597.828	5.55
598.165	5.55
598.502	5.55
598.839	5.55
599.176	5.52
599.512	5.54
599.849	5.56
600.186	5.57
600.523	5.58
600.859	5.6
601.196	5.6
601.532	5.58
601.869	5.61
602.205	5.62
602.542	5.65
602.878	5.64
603.215	5.66
603.551	5.62
603.887	5.64
604.223	5.63
604.56	5.65
604.896	5.66
605.232	5.67
605.568	5.65
605.904	5.62
606.24	5.65
606.576	5.63
606.912	5.64
607.248	5.64
607.583	5.64
607.919	5.62
608.255	5.62
608.591	5.63
608.926	5.67
609.262	5.66
609.597	5.65
609.933	5.64
610.268	5.62
610.604	5.61
610.939	5.59
611.275	5.58
611.61	5.55
611.945	5.53
612.281	5.53
612.616	5.57
612.951	5.63
613.286	5.59
613.621	5.63
613.956	5.61
614.291	5.61
614.626	5.68
614.961	5.72
615.296	5.75
615.631	5.77
615.966	5.75
616.3	5.78
616.635	5.8
616.97	5.82
617.304	5.83
617.639	5.89
617.973	5.9
618.308	5.99
618.642	5.97
618.977	5.99
619.311	5.97
619.646	5.96
619.98	5.98
620.314	5.99
620.648	5.95
620.983	5.94
621.317	5.96
621.651	5.84
621.985	5.85
622.319	5.85
622.653	5.79
622.987	5.81
623.321	5.85
623.655	5.82
623.988	5.83
624.322	5.8
624.656	5.81
624.99	5.83
625.323	5.78
625.657	5.8
625.99	5.81
626.324	5.85
626.657	5.86
626.991	5.83
627.324	5.84
627.658	5.9
627.991	5.97
628.324	6
628.657	6.03
628.991	5.98
629.324	5.99
629.657	6
629.99	5.99
630.323	5.96
630.656	6
630.989	5.97
631.322	5.99
631.655	5.97
631.987	5.97
632.32	5.97
632.653	5.97
632.986	5.93
633.318	5.94
633.651	5.95
633.984	5.94
634.316	5.96
634.649	5.94
634.981	5.89
635.313	5.85
635.646	5.85
635.978	5.89
636.31	5.9
636.643	5.95
636.975	5.92
637.307	5.92
637.639	5.94
637.971	5.97
638.303	6
638.635	5.98
638.967	5.96
639.299	5.97
639.631	5.99
639.963	6.03
640.295	6.02
640.626	6.07
640.958	6.13
641.29	6.16
641.621	6.16
641.953	6.14
642.285	6.15
642.616	6.16
642.948	6.09
643.279	6.06
643.61	6.05
643.942	6.07
644.273	6.11
644.604	6.03
644.936	6.08
645.267	6.07
645.598	6.14
645.929	6.08
646.26	6.02
646.591	6.04
646.922	6.03
647.253	6
647.584	5.98
647.915	5.98
648.245	5.97
648.576	6.02
648.907	6.07
649.238	6.06
649.568	6.08
649.899	6.18
650.229	6.25
650.56	6.29
650.89	6.37
651.221	6.39
651.551	6.45
651.882	6.45
652.212	6.46
652.542	6.42
652.872	6.51
653.203	6.6
653.533	6.62
653.863	6.69
654.193	6.69
654.523	6.69
654.853	6.76
655.183	6.84
655.513	6.76
655.843	6.73
656.172	6.78
656.502	6.71
656.832	6.67
657.162	6.66
657.491	6.68
657.821	6.66
658.15	6.68
658.48	6.72
658.809	6.72
659.139	6.74
659.468	6.74
659.798	6.73
660.127	6.74
660.456	6.7
660.785	6.72
661.115	6.81
661.444	6.79
661.773	6.71
662.102	6.68
662.431	6.72
662.76	6.64
663.089	6.64
663.418	6.83
663.747	6.78
664.076	6.67
664.404	6.66
664.733	6.66
665.062	6.61
665.39	6.52
665.719	6.58
666.048	6.61
666.376	6.61
666.705	6.54
667.033	6.46
667.362	6.47
667.69	6.4
668.018	6.34
668.347	6.4
668.675	6.39
669.003	6.39
669.331	6.4
669.659	6.47
669.987	6.46
670.315	6.37
670.643	6.46
670.971	6.6
671.299	6.6
671.627	6.62
671.955	6.63
672.283	6.71
672.61	6.61
672.938	6.65
673.266	6.68
673.593	6.79
673.921	6.9
674.249	6.87
674.576	6.94
674.904	6.91
675.231	6.84
675.558	6.93
675.886	6.97
676.213	6.94
676.54	7.07
676.867	6.97
677.195	7.13
677.522	7.11
677.849	7.06
678.176	7.03
678.503	7.09
678.83	7.05
679.157	6.98
679.484	7.06
679.81	7.11
680.137	7.16
680.464	7.11
680.791	7.11
681.117	7.15
681.444	7.1
681.771	7.23
682.097	7.29
682.424	7.23
682.75	7.18
683.077	7.21
683.403	7.25
683.729	7.34
684.056	7.22
684.382	7.35
684.708	7.36
685.034	7.36
685.36	7.26
685.686	7.31
686.012	7.43
686.339	7.41
686.664	7.37
686.99	7.3
687.316	7.35
687.642	7.38
687.968	7.46
688.294	7.46
688.619	7.41
688.945	7.42
689.271	7.5
689.596	7.55
689.922	7.55
690.247	7.54
690.573	7.53
690.898	7.64
691.224	7.56
691.549	7.6
691.874	7.7
692.2	7.75
692.525	7.76
692.85	7.69
693.175	7.64
693.5	7.68
693.825	7.76
694.15	7.8
694.475	7.72
694.8	7.71
695.125	7.67
695.45	7.68
695.775	7.62
696.099	7.64
696.424	7.6
696.749	7.58
697.073	7.53
697.398	7.55
697.723	7.45
698.047	7.49
698.372	7.49
698.696	7.46
699.02	7.43
699.345	7.49
699.669	7.55
699.993	7.6
700.318	7.71
700.642	7.63
700.966	7.5
701.29	7.6
701.614	7.56
701.938	7.62
702.262	7.58
702.586	7.68
702.91	7.63
703.234	7.68
703.557	7.71
703.881	7.74
704.205	7.73
704.529	7.77
704.852	7.75
705.176	7.82
705.499	7.72
705.823	7.69
706.146	7.54
706.47	7.39
706.793	7.4
707.117	7.25
707.44	7.34
707.763	7.4
708.086	7.28
708.409	7.26
708.733	7.39
709.056	7.45
709.379	7.52
709.702	7.54
710.025	7.5
710.348	7.53
710.671	7.53
710.993	7.54
711.316	7.57
711.639	7.53
711.962	7.55
712.284	7.67
712.607	7.64
712.93	7.91
713.252	7.99
713.575	8.06
713.897	8.14
714.22	8.15
714.542	8.21
714.864	8.25
715.187	8.33
715.509	8.28
715.831	8.33
716.153	8.2
716.475	8.23
716.798	8.24
717.12	8.36
717.442	8.31
717.764	8.39
718.085	8.48
718.407	8.59
718.729	8.47
719.051	8.55
719.373	8.8
719.695	8.59
720.016	8.73
720.338	8.67
720.659	8.59
720.981	8.55
721.302	8.79
721.624	8.72
721.945	8.74
722.267	8.68
722.588	8.65
722.909	8.67
723.231	8.67
723.552	8.72
723.873	8.61
724.194	8.6
724.515	8.58
724.836	8.44
725.157	8.27
725.478	8.41
725.799	8.33
726.12	8.07
726.441	8.13
726.762	8.02
727.083	7.96
727.403	8.05
727.724	8.01
728.045	7.78
728.365	7.78
728.686	7.75
729.006	7.67
729.327	7.6
729.647	7.52
729.967	7.52
730.288	7.53
730.608	7.6
730.928	7.71
731.249	7.78
731.569	7.77
731.889	7.82
732.209	7.79
732.529	7.71
732.849	7.93
733.169	7.96
733.489	7.75
733.809	7.7
734.129	7.67
734.448	7.91
734.768	7.88
735.088	7.94
735.408	7.99
735.727	8.21
736.047	8.41
736.366	8.47
736.686	8.49
737.005	8.41
737.325	8.39
737.644	8.31
737.963	8.37
738.283	8.34
738.602	8.53
738.921	8.64
739.24	8.78
739.56	8.73
739.879	8.7
740.198	9.07
740.517	9.15
740.836	8.98
741.155	8.96
741.473	9.26
741.792	9.34
742.111	9.43
742.43	9.51
742.748	9.29
743.067	9.51
743.386	9.45
743.704	9.59
744.023	9.82
744.341	9.78
744.66	9.47
744.978	9.39
745.297	9.21
745.615	9.05
745.933	9
746.252	8.97
746.57	8.84
746.888	8.63
747.206	8.58
747.524	8.67
747.842	8.36
748.16	8.13
748.478	8.21
748.796	8.38
749.114	8.2
749.432	8.36
749.749	8.24
750.067	8.4
750.385	8.41
750.703	7.97
751.02	8.22
751.338	8.27
751.655	8.31
751.973	8.41
752.29	8.49
752.608	8.37
752.925	8.4
753.242	8.77
753.56	8.76
753.877	8.76
754.194	8.82
754.511	9.06
754.828	9.18
755.145	9.24
755.462	9.35
755.779	9.36
756.096	9.52
756.413	9.6
756.73	9.6
757.047	9.29
757.364	9.81
757.68	9.75
757.997	10.12
758.314	10.42
758.63	10.43
758.947	10.33
759.264	10.51
759.58	10.3
759.896	10.09
760.213	10.58
760.529	10.68
760.846	10.68
761.162	10.75
761.478	10.51
761.794	10.55
762.11	10.24
762.426	10.17
762.743	10.07
763.059	10.11
763.375	10.02
763.69	10.14
764.006	9.99
764.322	10.16
764.638	10.12
764.954	10.12
765.27	10.07
765.585	10.08
765.901	9.99
766.216	10.07
766.532	10.02
766.848	9.7
767.163	9.82
767.478	9.88
767.794	9.72
768.109	10.09
768.424	10.05
768.74	10.15
769.055	10.18
769.37	10.22
769.685	10.38
770	10.39
770.315	10.43
770.63	10.44
770.945	10.41
771.26	10.12
771.575	10.21
771.89	10.08
772.205	10.25
772.52	10.29
772.834	10.45
773.149	10.69
773.464	11.12
773.778	11.1
774.093	11.1
774.407	11.28
774.722	10.83
775.036	10.93
775.351	10.82
775.665	11.18
775.979	11.03
776.293	10.8
776.608	10.82
776.922	11.14
777.236	11.05
777.55	10.64
777.864	10.97
778.178	10.52
778.492	10.84
778.806	10.88
779.12	11.24
779.434	11.57
779.747	12.11
780.061	11.82
780.375	11.86
780.689	11.98
781.002	11.74
781.316	12.21
781.629	12.22
781.943	12.14
782.256	11.96
782.57	11.87
782.883	12.14
783.196	12.31
783.51	12.21
783.823	12.16
784.136	12.5
784.449	12.46
784.762	12.72
785.075	13.02
785.388	13.16
785.701	12.79
786.014	12.55
786.327	12.07
786.64	12.04
786.953	11.86
787.266	11.72
787.578	11.82
787.891	11.56
788.204	11.66
788.516	11.97
788.829	12.51
789.141	12.78
789.454	12.35
789.766	12.62
790.079	12.93
790.391	12.76
790.703	12.32
791.016	12.54
791.328	13.11
791.64	13.12
791.952	13.16
792.264	12.87
792.576	12.85
792.888	12.89
793.2	13.07
793.512	12.88
793.824	12.52
794.136	13.52
794.448	13.7
794.76	13.46
795.071	13.96
795.383	13.31
795.695	13.15
796.006	12.93
796.318	12.47
796.629	11.68
796.941	12.27
797.252	12.53
797.564	12.28
797.875	11.76
798.186	11.44
798.497	11.16
798.809	11.74
799.12	11.84
799.431	12.16
799.742	12.52
800.053	12.71
800.364	13.13
800.675	12.18
800.986	12
801.297	11.79
801.608	11.11
801.918	10.81
802.229	11.2
802.54	11.55
802.851	11.99
803.161	12.72
803.472	12.88
803.782	13.01
804.093	13.63
804.403	13.77
804.714	14.14
805.024	14.56
805.334	14.56
805.645	14.7
805.955	14.42
806.265	14.18
806.575	14.2
806.885	14.11
807.195	14.54
807.505	14.8
807.815	14.95
808.125	15.57
808.435	16.1
808.745	16.32
809.055	16.78
809.365	16.82
809.674	16.7
809.984	16.28
810.294	16.15
810.603	15.73
810.913	15.8
811.222	14.83
811.532	14.57
811.841	14.68
812.151	14.39
812.46	14.61
812.769	14.48
813.079	15.03
813.388	15.49
813.697	14.82
814.006	15.46
814.315	15.84
814.624	15.14
814.933	15.43
815.242	14.55
815.551	14.45
815.86	13.9
816.169	13.66
816.478	14.24
816.786	13.55
817.095	13.55
817.404	13.43
817.712	13.92
818.021	14.15
818.33	14.06
818.638	14.29
818.947	13.91
819.255	13.73
819.563	13.18
819.872	13.01
820.18	13.08
820.488	13.23
820.796	13.39
821.105	13.36
821.413	13.32
821.721	13.26
822.029	13.04
822.337	13.21
822.645	13.45
822.953	13.24
823.26	13.48
823.568	13.44
823.876	13.42
824.184	13.29
824.491	13.31
824.799	13.27
825.107	13.19
825.414	13.12
825.722	13.13
826.029	13.11
826.337	13.18
826.644	13.35
826.951	13.15
827.259	13.03
827.566	13.22
827.873	13.16
828.18	13.46
828.488	13.68
828.795	13.51
829.102	13.33
829.409	13.31
829.716	13.55
830.023	13.57
830.329	13.72
830.636	14.11
830.943	14.19
831.25	14.53
831.557	15.06
831.863	14.89
832.17	15.05
832.476	15.47
832.783	15.54
833.089	15.56
833.396	15.57
833.702	15.61
834.009	15.59
834.315	15.77
834.621	15.46
834.928	15.37
835.234	16
835.54	15.98
835.846	16.26
836.152	16.05
836.458	16.21
836.764	16.58
837.07	16.75
837.376	16.63
837.682	16
837.988	15.63
838.293	16.8
838.599	16.6
838.905	16.73
839.211	16.63
839.516	16.01
839.822	16.3
840.127	16.09
840.433	16.65
840.738	16.22
841.044	16.15
841.349	15.98
841.654	15.17
841.959	15.2
842.265	15.88
842.57	15.17
842.875	14.53
843.18	13.64
843.485	13.6
843.79	13.23
844.095	15.23
844.4	16.12
844.705	15.48
845.01	16.04
845.315	15.96
845.619	16.97
845.924	17.76
846.229	17.56
846.533	18.18
846.838	16.25
847.142	17.13
847.447	19.47
847.751	21.03
848.056	20.78
848.36	22.21
848.664	21.73
848.969	23.09
849.273	23.39
849.577	22.28
849.881	22.33
850.185	21.84
850.489	19.94
850.794	19.77
851.097	19.55
851.401	18.89
851.705	19.13
852.009	18.16
852.313	16.27
852.617	16.41
852.92	16.11
853.224	16.35
853.528	14.14
853.831	12.72
854.135	11.52
854.438	10.92
854.742	9.97
855.045	9.21
855.349	8.59
855.652	9.21
855.955	9.71
856.259	10.64
856.562	12.5
856.865	13.8
857.168	12.78
857.471	13.43
857.774	13.16
858.077	12.96
858.38	13.71
858.683	17.59
858.986	18.08
859.289	18.12
859.592	19.75
859.894	22.28
860.197	23.4
860.5	25.18
860.802	27.45
861.105	26.94
861.407	28.48
861.71	29
862.012	30.15
862.315	32.43
862.617	30.15
862.919	29.55
863.222	28.27
863.524	27.58
863.826	25.46
864.128	26.32
864.43	26.68
864.732	25.24
865.034	23.18
865.336	23.57
865.638	25.45
865.94	24.13
866.242	24.22
866.544	24.13
866.846	24.65
867.147	25.59
867.449	24.6
867.751	24.61
868.052	22.71
868.354	22.65
868.655	21.19
868.957	23.16
869.258	21.35
869.56	23.72
869.861	24.39
870.162	26.3
870.463	27.81
870.765	26.09
871.066	25.68
871.367	26.23
871.668	25.94
871.969	23.05
872.27	23.82
872.571	22.99
872.872	22.48
873.173	20.75
873.473	19.94
873.774	22
874.075	21.42
874.376	26.16
874.676	27.94
874.977	30.11
875.277	28.67
875.578	34.17
875.878	32.13
876.179	32.18
876.479	32.36
876.78	32
877.08	35.23
877.38	38.53
877.68	40.6
877.981	41.85
878.281	46.82
878.581	49.93
