Data from UWBM91361_Reflection_00006.txt Node
Date: Sun May 02 12:21:24 EDT 2021
User: vgr7
Spectrometer: USB2G7710
Scans to average: 10
Trigger mode: 4
Integration Time (sec): 1.000000E-1
Electric dark correction enabled: true
Boxcar width: 10
XAxis mode: Wavelengths
Number of Pixels in Spectrum: 2048
>>>>>Begin Spectral Data<<<<<
177.721	493.15
178.105	-405.88
178.488	-56.73
178.871	-35.57
179.254	-268.97
179.636	-163.64
180.019	0
180.402	175
180.785	90.28
181.168	47.87
181.55	49.54
181.933	9.92
182.316	-14.2
182.698	-41.74
183.081	-49.41
183.463	-15.65
183.846	-4.07
184.228	-13.9
184.611	8.32
184.993	22.38
185.376	40.64
185.758	31.02
186.14	32.54
186.522	30.9
186.904	29.33
187.287	26.03
187.669	17.98
188.051	17.04
188.433	18.14
188.815	22.28
189.197	25.74
189.579	25.71
189.961	23.21
190.342	20.89
190.724	20.66
191.106	19.9
191.488	22.26
191.869	19.33
192.251	19.05
192.633	16.55
193.014	11.92
193.396	6.39
193.777	10.14
194.159	8.44
194.54	2.22
194.922	-1.81
195.303	-3.52
195.684	0.83
196.065	-4.04
196.447	-6.8
196.828	-10
197.209	-12.5
197.59	-14.28
197.971	-13.45
198.352	-10.9
198.733	-6.89
199.114	-9.81
199.495	-13.91
199.876	-12.12
200.257	-10.63
200.638	-9.35
201.018	-9.45
201.399	-2.59
201.78	-6.36
202.16	-4.08
202.541	-3.3
202.922	-0.21
203.302	-1.34
203.683	-4.78
204.063	-1.79
204.444	0
204.824	3.04
205.204	5.87
205.585	5.19
205.965	-1.38
206.345	1.76
206.725	-5.04
207.106	-2.6
207.486	-2.93
207.866	-0.19
208.246	1.4
208.626	6.79
209.006	6.97
209.386	3.8
209.766	6.43
210.145	4.39
210.525	7.56
210.905	6.69
211.285	10.39
211.664	10.52
212.044	9.38
212.424	11.21
212.803	8.6
213.183	8.62
213.562	8.26
213.942	12.24
214.321	8.2
214.701	7.7
215.08	9.96
215.459	9.42
215.838	4.38
216.218	3.63
216.597	-1.99
216.976	-4.21
217.355	-0.18
217.734	0.53
218.113	1.55
218.492	0.82
218.871	1.11
219.25	-1.87
219.629	-0.9
220.008	-2.04
220.387	-6.74
220.766	-9.89
221.144	-12.62
221.523	-6.63
221.902	-4.84
222.28	-4.16
222.659	0.28
223.037	1.08
223.416	1.55
223.794	2.71
224.173	1.41
224.551	2.33
224.929	1.24
225.308	1.34
225.686	0.27
226.064	0.34
226.442	1.44
226.821	1.34
227.199	2.23
227.577	1.78
227.955	2.24
228.333	2.71
228.711	2.06
229.089	3.29
229.467	1.88
229.845	2.93
230.222	3.66
230.6	3.71
230.978	3.88
231.356	3.75
231.733	3.37
232.111	4.04
232.488	3.62
232.866	3.98
233.243	3.17
233.621	4.18
233.998	4.08
234.376	3.79
234.753	4.67
235.13	4.54
235.508	5.64
235.885	5.92
236.262	6.3
236.639	6.87
237.016	6.86
237.393	6.58
237.77	5.97
238.147	5.35
238.524	5.39
238.901	5.36
239.278	5.05
239.655	5.16
240.032	5
240.409	5.04
240.785	5.2
241.162	5.22
241.539	5.07
241.915	5.09
242.292	5.14
242.668	4.96
243.045	4.94
243.421	4.69
243.798	4.69
244.174	4.6
244.551	4.49
244.927	4.29
245.303	4.31
245.679	4.32
246.056	4.25
246.432	4.33
246.808	4.29
247.184	4.41
247.56	4.4
247.936	4.48
248.312	4.49
248.688	4.48
249.064	4.48
249.44	4.44
249.815	4.47
250.191	4.38
250.567	4.38
250.943	4.39
251.318	4.49
251.694	4.41
252.069	4.4
252.445	4.5
252.82	4.55
253.196	4.55
253.571	4.56
253.947	4.76
254.322	4.64
254.697	4.57
255.073	4.48
255.448	4.51
255.823	4.44
256.198	4.34
256.573	4.24
256.948	4.17
257.323	4.21
257.698	4.16
258.073	4.21
258.448	4.23
258.823	4.22
259.198	4.18
259.573	4.19
259.948	4.24
260.322	4.17
260.697	4.15
261.072	4.16
261.446	4.13
261.821	4.1
262.195	4.06
262.57	4.08
262.944	4.09
263.319	4.03
263.693	4
264.067	4.04
264.442	4.04
264.816	4.06
265.19	4.02
265.564	4.05
265.938	3.95
266.313	3.9
266.687	3.82
267.061	3.81
267.435	3.74
267.809	3.71
268.183	3.78
268.556	3.78
268.93	3.82
269.304	3.85
269.678	3.8
270.051	3.78
270.425	3.8
270.799	3.77
271.172	3.82
271.546	3.85
271.919	3.85
272.293	3.83
272.666	3.81
273.04	3.83
273.413	3.75
273.787	3.74
274.16	3.74
274.533	3.77
274.906	3.73
275.279	3.77
275.653	3.77
276.026	3.68
276.399	3.68
276.772	3.66
277.145	3.7
277.518	3.73
277.891	3.78
278.263	3.76
278.636	3.79
279.009	3.82
279.382	3.76
279.755	3.75
280.127	3.78
280.5	3.8
280.872	3.75
281.245	3.82
281.617	3.84
281.99	3.86
282.362	3.85
282.735	3.85
283.107	3.84
283.479	3.84
283.852	3.86
284.224	3.87
284.596	3.84
284.968	3.8
285.34	3.75
285.713	3.77
286.085	3.76
286.457	3.75
286.829	3.74
287.201	3.72
287.572	3.72
287.944	3.73
288.316	3.72
288.688	3.75
289.06	3.74
289.431	3.75
289.803	3.72
290.175	3.73
290.546	3.75
290.918	3.76
291.289	3.76
291.661	3.76
292.032	3.75
292.403	3.74
292.775	3.77
293.146	3.76
293.517	3.77
293.889	3.75
294.26	3.71
294.631	3.73
295.002	3.76
295.373	3.79
295.744	3.76
296.115	3.76
296.486	3.76
296.857	3.74
297.228	3.75
297.599	3.76
297.97	3.76
298.34	3.79
298.711	3.8
299.082	3.8
299.452	3.82
299.823	3.83
300.194	3.84
300.564	3.83
300.935	3.88
301.305	3.86
301.676	3.83
302.046	3.84
302.416	3.8
302.787	3.83
303.157	3.86
303.527	3.89
303.897	3.9
304.267	3.89
304.637	3.9
305.008	3.95
305.378	3.95
305.748	3.95
306.117	3.94
306.487	3.9
306.857	3.9
307.227	3.87
307.597	3.84
307.967	3.83
308.336	3.84
308.706	3.82
309.076	3.8
309.445	3.84
309.815	3.87
310.184	3.87
310.554	3.85
310.923	3.78
311.293	3.8
311.662	3.79
312.031	3.8
312.401	3.81
312.77	3.79
313.139	3.83
313.508	3.82
313.877	3.86
314.246	3.87
314.616	3.86
314.985	3.88
315.353	3.93
315.722	3.93
316.091	3.92
316.46	3.93
316.829	3.96
317.198	3.98
317.567	3.98
317.935	3.95
318.304	3.95
318.672	4
319.041	3.99
319.41	3.99
319.778	4.02
320.147	4
320.515	3.98
320.883	3.97
321.252	3.96
321.62	3.87
321.988	3.85
322.357	3.87
322.725	3.85
323.093	3.85
323.461	3.84
323.829	3.84
324.197	3.8
324.565	3.81
324.933	3.81
325.301	3.81
325.669	3.84
326.037	3.83
326.405	3.8
326.772	3.79
327.14	3.8
327.508	3.77
327.875	3.78
328.243	3.78
328.61	3.77
328.978	3.82
329.346	3.83
329.713	3.81
330.08	3.82
330.448	3.84
330.815	3.84
331.182	3.83
331.55	3.81
331.917	3.86
332.284	3.82
332.651	3.83
333.018	3.84
333.385	3.84
333.752	3.86
334.119	3.86
334.486	3.86
334.853	3.86
335.22	3.86
335.587	3.84
335.954	3.83
336.32	3.81
336.687	3.78
337.054	3.76
337.42	3.78
337.787	3.77
338.153	3.76
338.52	3.74
338.886	3.78
339.253	3.77
339.619	3.76
339.986	3.76
340.352	3.76
340.718	3.79
341.084	3.78
341.451	3.76
341.817	3.76
342.183	3.81
342.549	3.8
342.915	3.82
343.281	3.86
343.647	3.88
344.013	3.89
344.379	3.91
344.745	3.93
345.11	3.95
345.476	3.94
345.842	3.95
346.208	3.95
346.573	3.93
346.939	3.97
347.304	3.96
347.67	3.95
348.035	3.96
348.401	3.94
348.766	3.93
349.132	3.96
349.497	3.96
349.862	3.9
350.228	3.91
350.593	3.89
350.958	3.87
351.323	3.85
351.688	3.87
352.053	3.85
352.418	3.88
352.783	3.86
353.148	3.86
353.513	3.87
353.878	3.87
354.243	3.88
354.608	3.86
354.972	3.86
355.337	3.85
355.702	3.8
356.066	3.81
356.431	3.81
356.795	3.8
357.16	3.8
357.524	3.8
357.889	3.79
358.253	3.81
358.618	3.8
358.982	3.82
359.346	3.82
359.71	3.81
360.075	3.79
360.439	3.81
360.803	3.8
361.167	3.77
361.531	3.78
361.895	3.77
362.259	3.76
362.623	3.77
362.987	3.78
363.351	3.8
363.714	3.81
364.078	3.8
364.442	3.79
364.806	3.79
365.169	3.8
365.533	3.78
365.896	3.77
366.26	3.78
366.623	3.75
366.987	3.74
367.35	3.77
367.714	3.76
368.077	3.76
368.44	3.75
368.803	3.77
369.167	3.77
369.53	3.78
369.893	3.79
370.256	3.8
370.619	3.8
370.982	3.8
371.345	3.77
371.708	3.8
372.071	3.79
372.434	3.81
372.797	3.81
373.159	3.84
373.522	3.84
373.885	3.84
374.247	3.86
374.61	3.87
374.973	3.84
375.335	3.84
375.698	3.83
376.06	3.83
376.423	3.82
376.785	3.82
377.147	3.82
377.51	3.82
377.872	3.81
378.234	3.81
378.596	3.81
378.958	3.83
379.321	3.83
379.683	3.82
380.045	3.8
380.407	3.8
380.769	3.8
381.13	3.79
381.492	3.78
381.854	3.77
382.216	3.78
382.578	3.79
382.939	3.81
383.301	3.82
383.663	3.83
384.024	3.84
384.386	3.85
384.747	3.85
385.109	3.85
385.47	3.85
385.832	3.86
386.193	3.85
386.554	3.85
386.916	3.85
387.277	3.85
387.638	3.87
387.999	3.87
388.36	3.87
388.721	3.88
389.082	3.88
389.443	3.88
389.804	3.87
390.165	3.86
390.526	3.86
390.887	3.85
391.248	3.86
391.609	3.86
391.969	3.87
392.33	3.88
392.691	3.87
393.051	3.87
393.412	3.86
393.772	3.86
394.133	3.86
394.493	3.86
394.854	3.86
395.214	3.85
395.574	3.86
395.935	3.85
396.295	3.85
396.655	3.85
397.015	3.85
397.376	3.85
397.736	3.85
398.096	3.85
398.456	3.86
398.816	3.86
399.176	3.84
399.535	3.83
399.895	3.83
400.255	3.82
400.615	3.83
400.975	3.83
401.334	3.83
401.694	3.83
402.054	3.83
402.413	3.83
402.773	3.84
403.132	3.84
403.492	3.84
403.851	3.85
404.211	3.85
404.57	3.86
404.929	3.86
405.288	3.87
405.648	3.87
406.007	3.87
406.366	3.87
406.725	3.88
407.084	3.87
407.443	3.88
407.802	3.87
408.161	3.87
408.52	3.87
408.879	3.87
409.238	3.88
409.596	3.87
409.955	3.87
410.314	3.86
410.673	3.86
411.031	3.87
411.39	3.87
411.748	3.87
412.107	3.86
412.465	3.86
412.824	3.86
413.182	3.87
413.54	3.87
413.899	3.87
414.257	3.87
414.615	3.88
414.974	3.88
415.332	3.91
415.69	3.91
416.048	3.91
416.406	3.92
416.764	3.93
417.122	3.93
417.48	3.94
417.838	3.95
418.195	3.96
418.553	3.96
418.911	3.98
419.269	3.98
419.626	3.99
419.984	4.01
420.342	4.01
420.699	4.02
421.057	4.02
421.414	4.02
421.772	4.03
422.129	4.04
422.486	4.04
422.844	4.04
423.201	4.05
423.558	4.05
423.915	4.05
424.273	4.05
424.63	4.05
424.987	4.05
425.344	4.05
425.701	4.05
426.058	4.04
426.415	4.03
426.772	4.02
427.128	4.02
427.485	4.01
427.842	4
428.199	3.99
428.555	3.99
428.912	3.99
429.269	3.98
429.625	3.97
429.982	3.97
430.338	3.96
430.695	3.96
431.051	3.96
431.407	3.96
431.764	3.96
432.12	3.96
432.476	3.96
432.832	3.96
433.189	3.96
433.545	3.97
433.901	3.98
434.257	3.98
434.613	3.98
434.969	3.98
435.325	3.99
435.681	4
436.036	4
436.392	4
436.748	4.01
437.104	4.01
437.459	4.02
437.815	4.02
438.171	4.02
438.526	4.02
438.882	4.03
439.237	4.03
439.593	4.04
439.948	4.05
440.304	4.05
440.659	4.05
441.014	4.05
441.369	4.05
441.725	4.06
442.08	4.07
442.435	4.07
442.79	4.07
443.145	4.07
443.5	4.08
443.855	4.08
444.21	4.08
444.565	4.08
444.92	4.09
445.275	4.09
445.629	4.1
445.984	4.11
446.339	4.11
446.693	4.11
447.048	4.11
447.403	4.11
447.757	4.11
448.112	4.11
448.466	4.11
448.82	4.11
449.175	4.11
449.529	4.11
449.883	4.11
450.238	4.1
450.592	4.09
450.946	4.09
451.3	4.08
451.654	4.08
452.008	4.08
452.362	4.06
452.716	4.06
453.07	4.06
453.424	4.05
453.778	4.05
454.132	4.05
454.486	4.04
454.839	4.04
455.193	4.04
455.547	4.04
455.9	4.04
456.254	4.04
456.607	4.05
456.961	4.06
457.314	4.06
457.668	4.07
458.021	4.08
458.375	4.08
458.728	4.09
459.081	4.09
459.434	4.09
459.787	4.09
460.141	4.09
460.494	4.09
460.847	4.09
461.2	4.08
461.553	4.08
461.906	4.09
462.259	4.08
462.611	4.09
462.964	4.09
463.317	4.09
463.67	4.08
464.022	4.07
464.375	4.06
464.728	4.06
465.08	4.05
465.433	4.04
465.785	4.04
466.138	4.04
466.49	4.02
466.843	4.02
467.195	4.03
467.547	4.03
467.899	4.04
468.252	4.03
468.604	4.04
468.956	4.04
469.308	4.04
469.66	4.04
470.012	4.03
470.364	4.03
470.716	4.03
471.068	4.03
471.42	4.03
471.772	4.04
472.123	4.04
472.475	4.04
472.827	4.05
473.178	4.05
473.53	4.04
473.882	4.05
474.233	4.06
474.585	4.06
474.936	4.06
475.288	4.06
475.639	4.06
475.99	4.06
476.342	4.07
476.693	4.07
477.044	4.07
477.395	4.08
477.746	4.09
478.097	4.09
478.448	4.12
478.8	4.19
479.15	4.3
479.501	4.44
479.852	4.6
480.203	4.76
480.554	4.94
480.905	5.11
481.255	5.28
481.606	5.45
481.957	5.62
482.307	5.77
482.658	5.92
483.009	6.05
483.359	6.16
483.709	6.25
484.06	6.35
484.41	6.43
484.761	6.51
485.111	6.59
485.461	6.67
485.811	6.74
486.162	6.77
486.512	6.76
486.862	6.73
487.212	6.67
487.562	6.6
487.912	6.5
488.262	6.4
488.612	6.29
488.961	6.16
489.311	6.03
489.661	5.9
490.011	5.77
490.36	5.63
490.71	5.48
491.06	5.34
491.409	5.19
491.759	5.07
492.108	4.97
492.458	4.88
492.807	4.8
493.157	4.72
493.506	4.64
493.855	4.56
494.204	4.49
494.554	4.42
494.903	4.36
495.252	4.3
495.601	4.25
495.95	4.2
496.299	4.16
496.648	4.11
496.997	4.07
497.346	4.05
497.695	4.04
498.043	4.06
498.392	4.09
498.741	4.14
499.09	4.16
499.438	4.17
499.787	4.17
500.135	4.18
500.484	4.18
500.832	4.19
501.181	4.19
501.529	4.19
501.878	4.19
502.226	4.18
502.574	4.18
502.923	4.18
503.271	4.18
503.619	4.19
503.967	4.19
504.315	4.2
504.663	4.2
505.011	4.21
505.359	4.21
505.707	4.21
506.055	4.22
506.403	4.23
506.751	4.23
507.098	4.24
507.446	4.24
507.794	4.24
508.141	4.25
508.489	4.25
508.837	4.26
509.184	4.27
509.531	4.28
509.879	4.29
510.226	4.29
510.574	4.3
510.921	4.3
511.268	4.3
511.616	4.3
511.963	4.31
512.31	4.31
512.657	4.32
513.004	4.32
513.351	4.33
513.698	4.33
514.045	4.34
514.392	4.35
514.739	4.36
515.086	4.36
515.432	4.37
515.779	4.38
516.126	4.38
516.473	4.38
516.819	4.39
517.166	4.39
517.512	4.4
517.859	4.4
518.205	4.41
518.552	4.4
518.898	4.41
519.245	4.41
519.591	4.4
519.937	4.4
520.283	4.41
520.629	4.41
520.976	4.41
521.322	4.41
521.668	4.42
522.014	4.42
522.36	4.42
522.706	4.43
523.052	4.44
523.398	4.48
523.743	4.55
524.089	4.64
524.435	4.74
524.781	4.84
525.126	4.95
525.472	5.06
525.817	5.17
526.163	5.27
526.509	5.37
526.854	5.45
527.199	5.51
527.545	5.55
527.89	5.57
528.235	5.59
528.581	5.62
528.926	5.63
529.271	5.64
529.616	5.66
529.961	5.68
530.306	5.68
530.651	5.67
530.996	5.63
531.341	5.57
531.686	5.5
532.031	5.41
532.376	5.3
532.721	5.19
533.065	5.07
533.41	4.96
533.755	4.86
534.099	4.78
534.444	4.71
534.788	4.67
535.133	4.64
535.477	4.61
535.822	4.58
536.166	4.56
536.51	4.54
536.855	4.53
537.199	4.52
537.543	4.51
537.887	4.51
538.231	4.52
538.576	4.54
538.92	4.56
539.264	4.58
539.608	4.61
539.951	4.63
540.295	4.67
540.639	4.68
540.983	4.69
541.327	4.68
541.671	4.68
542.014	4.68
542.358	4.68
542.701	4.68
543.045	4.68
543.389	4.68
543.732	4.67
544.075	4.67
544.419	4.67
544.762	4.65
545.105	4.64
545.449	4.62
545.792	4.59
546.135	4.57
546.478	4.55
546.821	4.52
547.165	4.51
547.508	4.5
547.851	4.49
548.194	4.5
548.536	4.51
548.879	4.52
549.222	4.51
549.565	4.51
549.908	4.5
550.25	4.5
550.593	4.49
550.936	4.49
551.278	4.48
551.621	4.47
551.963	4.48
552.306	4.48
552.648	4.47
552.991	4.45
553.333	4.44
553.675	4.43
554.017	4.43
554.36	4.44
554.702	4.44
555.044	4.43
555.386	4.44
555.728	4.43
556.07	4.43
556.412	4.42
556.754	4.42
557.096	4.42
557.438	4.41
557.78	4.41
558.121	4.4
558.463	4.4
558.805	4.41
559.147	4.41
559.488	4.41
559.83	4.41
560.171	4.42
560.513	4.43
560.854	4.44
561.196	4.44
561.537	4.45
561.878	4.44
562.22	4.45
562.561	4.45
562.902	4.46
563.243	4.46
563.584	4.47
563.925	4.48
564.266	4.48
564.607	4.49
564.948	4.49
565.289	4.5
565.63	4.5
565.971	4.5
566.312	4.51
566.653	4.51
566.993	4.51
567.334	4.51
567.675	4.51
568.015	4.51
568.356	4.52
568.696	4.52
569.037	4.53
569.377	4.54
569.718	4.54
570.058	4.54
570.398	4.55
570.739	4.55
571.079	4.55
571.419	4.56
571.759	4.56
572.099	4.56
572.439	4.56
572.779	4.57
573.119	4.58
573.459	4.57
573.799	4.57
574.139	4.58
574.479	4.59
574.819	4.59
575.158	4.59
575.498	4.58
575.838	4.58
576.177	4.57
576.517	4.57
576.856	4.56
577.196	4.55
577.535	4.55
577.875	4.55
578.214	4.55
578.553	4.54
578.893	4.52
579.232	4.53
579.571	4.52
579.91	4.51
580.25	4.5
580.589	4.49
580.928	4.48
581.267	4.47
581.606	4.47
581.945	4.46
582.283	4.47
582.622	4.47
582.961	4.47
583.3	4.49
583.639	4.49
583.977	4.5
584.316	4.52
584.654	4.52
584.993	4.52
585.332	4.52
585.67	4.53
586.008	4.55
586.347	4.56
586.685	4.57
587.024	4.57
587.362	4.59
587.7	4.6
588.038	4.61
588.376	4.61
588.715	4.6
589.053	4.6
589.391	4.6
589.729	4.6
590.067	4.6
590.404	4.59
590.742	4.59
591.08	4.6
591.418	4.59
591.756	4.59
592.093	4.61
592.431	4.61
592.769	4.62
593.106	4.61
593.444	4.62
593.781	4.62
594.119	4.63
594.456	4.62
594.793	4.61
595.131	4.63
595.468	4.63
595.805	4.64
596.143	4.64
596.48	4.64
596.817	4.65
597.154	4.66
597.491	4.66
597.828	4.67
598.165	4.66
598.502	4.66
598.839	4.67
599.176	4.66
599.512	4.66
599.849	4.65
600.186	4.65
600.523	4.65
600.859	4.65
601.196	4.65
601.532	4.67
601.869	4.68
602.205	4.68
602.542	4.68
602.878	4.68
603.215	4.69
603.551	4.7
603.887	4.7
604.223	4.7
604.56	4.7
604.896	4.7
605.232	4.71
605.568	4.72
605.904	4.71
606.24	4.72
606.576	4.72
606.912	4.74
607.248	4.73
607.583	4.74
607.919	4.73
608.255	4.72
608.591	4.72
608.926	4.71
609.262	4.72
609.597	4.72
609.933	4.72
610.268	4.73
610.604	4.72
610.939	4.72
611.275	4.72
611.61	4.72
611.945	4.73
612.281	4.73
612.616	4.72
612.951	4.72
613.286	4.73
613.621	4.72
613.956	4.72
614.291	4.73
614.626	4.73
614.961	4.74
615.296	4.74
615.631	4.74
615.966	4.74
616.3	4.75
616.635	4.74
616.97	4.74
617.304	4.74
617.639	4.74
617.973	4.75
618.308	4.75
618.642	4.74
618.977	4.74
619.311	4.74
619.646	4.74
619.98	4.73
620.314	4.72
620.648	4.74
620.983	4.73
621.317	4.71
621.651	4.72
621.985	4.71
622.319	4.71
622.653	4.7
622.987	4.71
623.321	4.71
623.655	4.71
623.988	4.71
624.322	4.71
624.656	4.72
624.99	4.72
625.323	4.73
625.657	4.72
625.99	4.73
626.324	4.74
626.657	4.75
626.991	4.76
627.324	4.77
627.658	4.76
627.991	4.76
628.324	4.78
628.657	4.78
628.991	4.8
629.324	4.8
629.657	4.81
629.99	4.81
630.323	4.81
630.656	4.82
630.989	4.83
631.322	4.83
631.655	4.82
631.987	4.81
632.32	4.82
632.653	4.84
632.986	4.84
633.318	4.83
633.651	4.83
633.984	4.83
634.316	4.83
634.649	4.83
634.981	4.83
635.313	4.82
635.646	4.84
635.978	4.83
636.31	4.83
636.643	4.83
636.975	4.84
637.307	4.84
637.639	4.84
637.971	4.83
638.303	4.82
638.635	4.83
638.967	4.84
639.299	4.81
639.631	4.81
639.963	4.81
640.295	4.81
640.626	4.83
640.958	4.84
641.29	4.83
641.621	4.83
641.953	4.85
642.285	4.88
642.616	4.87
642.948	4.87
643.279	4.87
643.61	4.87
643.942	4.86
644.273	4.86
644.604	4.87
644.936	4.88
645.267	4.89
645.598	4.88
645.929	4.9
646.26	4.91
646.591	4.91
646.922	4.91
647.253	4.92
647.584	4.91
647.915	4.91
648.245	4.93
648.576	4.95
648.907	4.93
649.238	4.93
649.568	4.92
649.899	4.93
650.229	4.93
650.56	4.93
650.89	4.95
651.221	4.96
651.551	4.96
651.882	4.97
652.212	4.97
652.542	4.98
652.872	4.98
653.203	4.99
653.533	5.01
653.863	5.01
654.193	5.01
654.523	5
654.853	4.99
655.183	5
655.513	4.99
655.843	4.99
656.172	5
656.502	5.02
656.832	5.02
657.162	5.04
657.491	5.04
657.821	5.03
658.15	5.03
658.48	5.05
658.809	5.04
659.139	5.04
659.468	5.06
659.798	5.07
660.127	5.09
660.456	5.08
660.785	5.11
661.115	5.13
661.444	5.13
661.773	5.15
662.102	5.14
662.431	5.17
662.76	5.17
663.089	5.17
663.418	5.17
663.747	5.17
664.076	5.18
664.404	5.17
664.733	5.17
665.062	5.18
665.39	5.17
665.719	5.16
666.048	5.19
666.376	5.18
666.705	5.17
667.033	5.15
667.362	5.15
667.69	5.15
668.018	5.13
668.347	5.14
668.675	5.12
669.003	5.13
669.331	5.12
669.659	5.11
669.987	5.12
670.315	5.11
670.643	5.13
670.971	5.13
671.299	5.14
671.627	5.17
671.955	5.17
672.283	5.17
672.61	5.16
672.938	5.14
673.266	5.14
673.593	5.14
673.921	5.14
674.249	5.15
674.576	5.14
674.904	5.17
675.231	5.17
675.558	5.21
675.886	5.22
676.213	5.22
676.54	5.27
676.867	5.27
677.195	5.28
677.522	5.29
677.849	5.3
678.176	5.31
678.503	5.3
678.83	5.32
679.157	5.32
679.484	5.32
679.81	5.32
680.137	5.34
680.464	5.34
680.791	5.35
681.117	5.37
681.444	5.38
681.771	5.38
682.097	5.38
682.424	5.37
682.75	5.36
683.077	5.36
683.403	5.35
683.729	5.34
684.056	5.36
684.382	5.35
684.708	5.34
685.034	5.37
685.36	5.37
685.686	5.36
686.012	5.39
686.339	5.42
686.664	5.43
686.99	5.43
687.316	5.46
687.642	5.47
687.968	5.46
688.294	5.46
688.619	5.45
688.945	5.48
689.271	5.5
689.596	5.49
689.922	5.53
690.247	5.53
690.573	5.56
690.898	5.55
691.224	5.56
691.549	5.54
691.874	5.5
692.2	5.52
692.525	5.54
692.85	5.51
693.175	5.54
693.5	5.57
693.825	5.55
694.15	5.55
694.475	5.54
694.8	5.53
695.125	5.55
695.45	5.57
695.775	5.58
696.099	5.59
696.424	5.59
696.749	5.58
697.073	5.59
697.398	5.58
697.723	5.61
698.047	5.63
698.372	5.65
698.696	5.68
699.02	5.68
699.345	5.68
699.669	5.67
699.993	5.65
700.318	5.64
700.642	5.65
700.966	5.65
701.29	5.64
701.614	5.63
701.938	5.61
702.262	5.61
702.586	5.59
702.91	5.58
703.234	5.6
703.557	5.58
703.881	5.55
704.205	5.56
704.529	5.53
704.852	5.48
705.176	5.5
705.499	5.47
705.823	5.49
706.146	5.48
706.47	5.5
706.793	5.48
707.117	5.5
707.44	5.51
707.763	5.56
708.086	5.57
708.409	5.59
708.733	5.63
709.056	5.64
709.379	5.67
709.702	5.7
710.025	5.72
710.348	5.74
710.671	5.76
710.993	5.78
711.316	5.76
711.639	5.78
711.962	5.77
712.284	5.79
712.607	5.8
712.93	5.84
713.252	5.87
713.575	5.91
713.897	5.91
714.22	5.93
714.542	5.92
714.864	5.9
715.187	5.93
715.509	5.95
715.831	5.96
716.153	5.97
716.475	5.97
716.798	5.95
717.12	5.96
717.442	5.95
717.764	5.98
718.085	6.07
718.407	6.09
718.729	6.08
719.051	6.12
719.373	6.14
719.695	6.08
720.016	6.06
720.338	6.08
720.659	6.1
720.981	6.1
721.302	6.1
721.624	6.16
721.945	6.12
722.267	6.1
722.588	6.12
722.909	6.12
723.231	6.12
723.552	6.15
723.873	6.18
724.194	6.21
724.515	6.2
724.836	6.12
725.157	6.09
725.478	6.12
725.799	6.13
726.12	6.07
726.441	6.11
726.762	6.12
727.083	6.08
727.403	6.09
727.724	6.05
728.045	6.09
728.365	6.1
728.686	6.17
729.006	6.2
729.327	6.15
729.647	6.14
729.967	6.13
730.288	6.15
730.608	6.13
730.928	6.15
731.249	6.17
731.569	6.2
731.889	6.25
732.209	6.26
732.529	6.29
732.849	6.35
733.169	6.38
733.489	6.38
733.809	6.38
734.129	6.42
734.448	6.46
734.768	6.41
735.088	6.42
735.408	6.36
735.727	6.38
736.047	6.44
736.366	6.46
736.686	6.47
737.005	6.42
737.325	6.4
737.644	6.4
737.963	6.4
738.283	6.41
738.602	6.41
738.921	6.42
739.24	6.38
739.56	6.38
739.879	6.4
740.198	6.47
740.517	6.51
740.836	6.46
741.155	6.5
741.473	6.52
741.792	6.49
742.111	6.56
742.43	6.58
742.748	6.57
743.067	6.54
743.386	6.55
743.704	6.61
744.023	6.68
744.341	6.62
744.66	6.64
744.978	6.63
745.297	6.59
745.615	6.6
745.933	6.57
746.252	6.56
746.57	6.54
746.888	6.52
747.206	6.54
747.524	6.6
747.842	6.6
748.16	6.63
748.478	6.62
748.796	6.58
749.114	6.51
749.432	6.51
749.749	6.56
750.067	6.52
750.385	6.43
750.703	6.39
751.02	6.44
751.338	6.44
751.655	6.46
751.973	6.45
752.29	6.42
752.608	6.47
752.925	6.52
753.242	6.53
753.56	6.59
753.877	6.53
754.194	6.49
754.511	6.47
754.828	6.52
755.145	6.56
755.462	6.58
755.779	6.6
756.096	6.61
756.413	6.61
756.73	6.72
757.047	6.74
757.364	6.8
757.68	6.81
757.997	6.86
758.314	6.86
758.63	6.9
758.947	6.99
759.264	7
759.58	6.95
759.896	6.95
760.213	6.94
760.529	6.93
760.846	6.91
761.162	6.96
761.478	6.92
761.794	6.94
762.11	6.95
762.426	6.96
762.743	6.96
763.059	6.99
763.375	6.98
763.69	7.06
764.006	7.05
764.322	7.07
764.638	7.02
764.954	7.01
765.27	7.03
765.585	7.04
765.901	7.06
766.216	7.05
766.532	6.99
766.848	6.98
767.163	7.02
767.478	7.06
767.794	7.05
768.109	7.08
768.424	7.01
768.74	7.02
769.055	7.04
769.37	7.08
769.685	7.08
770	7.07
770.315	7.04
770.63	7.09
770.945	7.12
771.26	7.11
771.575	7.08
771.89	7.03
772.205	7.02
772.52	6.97
772.834	7.02
773.149	7.06
773.464	7.11
773.778	7.17
774.093	7.15
774.407	7.17
774.722	7.17
775.036	7.2
775.351	7.18
775.665	7.18
775.979	7.16
776.293	7.12
776.608	7.09
776.922	7.08
777.236	6.94
777.55	6.97
777.864	7.04
778.178	7.08
778.492	7.17
778.806	7.09
779.12	7.1
779.434	7.09
779.747	7.1
780.061	7.07
780.375	6.99
780.689	6.96
781.002	6.99
781.316	6.99
781.629	7.05
781.943	7.09
782.256	7.1
782.57	7.2
782.883	7.1
783.196	7.23
783.51	7.32
783.823	7.39
784.136	7.23
784.449	7.27
784.762	7.33
785.075	7.37
785.388	7.32
785.701	7.33
786.014	7.38
786.327	7.43
786.64	7.41
786.953	7.46
787.266	7.53
787.578	7.53
787.891	7.55
788.204	7.54
788.516	7.57
788.829	7.68
789.141	7.51
789.454	7.67
789.766	7.6
790.079	7.61
790.391	7.61
790.703	7.81
791.016	7.84
791.328	7.83
791.64	7.77
791.952	7.89
792.264	7.89
792.576	7.91
792.888	7.9
793.2	7.98
793.512	8.03
793.824	7.96
794.136	7.89
794.448	7.97
794.76	8
795.071	8.03
795.383	7.92
795.695	8.12
796.006	8.19
796.318	8.22
796.629	8.12
796.941	8.21
797.252	8.22
797.564	8.09
797.875	8.04
798.186	8.08
798.497	8.16
798.809	8.24
799.12	8.21
799.431	8.2
799.742	8.15
800.053	8.12
800.364	8.32
800.675	8.44
800.986	8.38
801.297	8.4
801.608	8.46
801.918	8.52
802.229	8.44
802.54	8.33
802.851	8.32
803.161	8.32
803.472	8.21
803.782	8.04
804.093	8.09
804.403	8.09
804.714	8.11
805.024	8.06
805.334	8.04
805.645	7.97
805.955	8.12
806.265	8.09
806.575	8.13
806.885	8.01
807.195	7.83
807.505	7.83
807.815	7.73
808.125	7.7
808.435	7.72
808.745	7.83
809.055	7.88
809.365	8.03
809.674	8.08
809.984	8.23
810.294	8.35
810.603	8.44
810.913	8.55
811.222	8.56
811.532	8.6
811.841	8.6
812.151	8.69
812.46	8.73
812.769	8.85
813.079	8.83
813.388	8.9
813.697	9.13
814.006	9.15
814.315	9.22
814.624	9.19
814.933	9.24
815.242	9.18
815.551	9.26
815.86	9.11
816.169	9.21
816.478	9.21
816.786	9.13
817.095	9.15
817.404	9.18
817.712	9.22
818.021	9.2
818.33	9.15
818.638	9.13
818.947	8.98
819.255	9
819.563	9.03
819.872	8.91
820.18	8.87
820.488	8.85
820.796	8.83
821.105	8.79
821.413	8.79
821.721	8.79
822.029	8.77
822.337	8.84
822.645	8.82
822.953	8.78
823.26	8.85
823.568	8.84
823.876	8.82
824.184	8.82
824.491	8.83
824.799	8.85
825.107	8.86
825.414	8.89
825.722	8.9
826.029	8.9
826.337	8.97
826.644	8.99
826.951	9.02
827.259	9.06
827.566	9.15
827.873	9.19
828.18	9.18
828.488	9.23
828.795	9.22
829.102	9.25
829.409	9.32
829.716	9.28
830.023	9.3
830.329	9.33
830.636	9.28
830.943	9.34
831.25	9.36
831.557	9.37
831.863	9.35
832.17	9.24
832.476	9.25
832.783	9.22
833.089	9.29
833.396	9.25
833.702	9.23
834.009	9.17
834.315	9.04
834.621	9.11
834.928	9.17
835.234	9.25
835.54	9.24
835.846	9.29
836.152	9.32
836.458	9.3
836.764	9.24
837.07	9.41
837.376	9.3
837.682	9.25
837.988	9.35
838.293	9.35
838.599	9.39
838.905	9.44
839.211	9.4
839.516	9.37
839.822	9.5
840.127	9.4
840.433	9.5
840.738	9.7
841.044	9.74
841.349	9.51
841.654	9.34
841.959	9.31
842.265	9.23
842.57	9.36
842.875	9.45
843.18	9.69
843.485	9.78
843.79	9.93
844.095	9.97
844.4	9.74
844.705	9.95
845.01	10.1
845.315	10.19
845.619	10.13
845.924	9.94
846.229	9.73
846.533	10.01
846.838	9.79
847.142	9.52
847.447	9.53
847.751	9.75
848.056	9.84
848.36	9.87
848.664	9.68
848.969	9.2
849.273	9.56
849.577	9.22
849.881	9.09
850.185	8.99
850.489	9.16
850.794	9.48
851.097	9.17
851.401	9.31
851.705	8.93
852.009	8.96
852.313	8.96
852.617	9.05
852.92	8.64
853.224	9.1
853.528	9.6
853.831	9.72
854.135	9.63
854.438	9.53
854.742	9.83
855.045	9.9
855.349	9.9
855.652	9.58
855.955	9.86
856.259	9.61
856.562	9.75
856.865	9.72
857.168	9.3
857.471	9.28
857.774	9.14
858.077	9.34
858.38	9.38
858.683	9.56
858.986	9.55
859.289	10.36
859.592	10.37
859.894	10.1
860.197	10.35
860.5	10.18
860.802	10.57
861.105	10.35
861.407	10.83
861.71	11.07
862.012	11.31
862.315	11.25
862.617	11.11
862.919	11.35
863.222	11.41
863.524	11.74
863.826	12.42
864.128	12.66
864.43	12.94
864.732	12.83
865.034	12.88
865.336	13.26
865.638	12.88
865.94	12.22
866.242	12.1
866.544	11.97
866.846	12.78
867.147	12.61
867.449	12.12
867.751	12.01
868.052	12.15
868.354	12.01
868.655	12.58
868.957	12.76
869.258	12.57
869.56	12.71
869.861	12.81
870.162	12.23
870.463	12.06
870.765	11.87
871.066	12.22
871.367	12.23
871.668	11.97
871.969	12.1
872.27	12.33
872.571	12.32
872.872	12.3
873.173	11.63
873.473	11.59
873.774	12.23
874.075	12.09
874.376	12.2
874.676	12.02
874.977	11.87
875.277	11.52
875.578	11.35
875.878	11.25
876.179	11.04
876.479	11.18
876.78	11.2
877.08	11.16
877.38	10.97
877.68	10.9
877.981	10.9
878.281	10.67
878.581	10.67
