Data from UWBM59058_Reflection_00016.txt Node
Date: Sun May 02 13:03:19 EDT 2021
User: vgr7
Spectrometer: USB2G7710
Scans to average: 10
Trigger mode: 4
Integration Time (sec): 1.000000E-1
Electric dark correction enabled: true
Boxcar width: 20
XAxis mode: Wavelengths
Number of Pixels in Spectrum: 2048
>>>>>Begin Spectral Data<<<<<
177.721	99.68
178.105	99.53
178.488	99.62
178.871	100.28
179.254	99.85
179.636	99.2
180.019	97.8
180.402	96.14
180.785	94.56
181.168	93.78
181.55	92.02
181.933	107.68
182.316	107.97
182.698	108.58
183.081	110.4
183.463	111.48
183.846	113.06
184.228	115.31
184.611	119.27
184.993	122.93
185.376	125.71
185.758	-24.47
186.14	2.96
186.522	23.86
186.904	31.87
187.287	36.02
187.669	40.15
188.051	39.53
188.433	40.67
188.815	36.99
189.197	35.92
189.579	36.21
189.961	37.64
190.342	34.67
190.724	34.36
191.106	33.34
191.488	31.91
191.869	27.95
192.251	28.87
192.633	26.53
193.014	24.67
193.396	25.18
193.777	30.11
194.159	30.28
194.54	28.22
194.922	28.15
195.303	28.83
195.684	29.21
196.065	29.58
196.447	28.14
196.828	26.87
197.209	26.69
197.59	17.74
197.971	15.61
198.352	15.43
198.733	17.28
199.114	15.62
199.495	15.29
199.876	16.26
200.257	16.89
200.638	16.75
201.018	11.9
201.399	11.55
201.78	9.64
202.16	8.21
202.541	9.08
202.922	8.09
203.302	6.04
203.683	5.11
204.063	4.34
204.444	6.28
204.824	9.01
205.204	10.91
205.585	18.33
205.965	16.99
206.345	18.87
206.725	14.91
207.106	16.09
207.486	17.45
207.866	17.23
208.246	16.74
208.626	18.55
209.006	21.94
209.386	17.98
209.766	18.64
210.145	17.87
210.525	16.68
210.905	18.19
211.285	19.83
211.664	19.14
212.044	20.28
212.424	20.14
212.803	16.76
213.183	19.04
213.562	18.6
213.942	18.35
214.321	17.34
214.701	17.41
215.08	18.65
215.459	17.41
215.838	16.88
216.218	17.06
216.597	16.23
216.976	13.56
217.355	14.68
217.734	14.02
218.113	14.02
218.492	16.32
218.871	15.34
219.25	16.02
219.629	15.32
220.008	14.47
220.387	14.09
220.766	14.33
221.144	14.18
221.523	15.81
221.902	15.47
222.28	15.5
222.659	16.43
223.037	15.99
223.416	16.07
223.794	16.12
224.173	15.18
224.551	14.52
224.929	14.83
225.308	15.08
225.686	14.95
226.064	14.67
226.442	13.93
226.821	13.15
227.199	12.3
227.577	11.51
227.955	10.62
228.333	10.35
228.711	10.18
229.089	10.58
229.467	9.8
229.845	9.9
230.222	9.79
230.6	10.13
230.978	10.36
231.356	9.9
231.733	9.52
232.111	9.36
232.488	9.05
232.866	8.77
233.243	8.3
233.621	8.12
233.998	7.32
234.376	7.22
234.753	7.21
235.13	7.1
235.508	7.32
235.885	7.14
236.262	6.91
236.639	6.86
237.016	6.79
237.393	6.6
237.77	6.39
238.147	6.13
238.524	6.09
238.901	6.05
239.278	6
239.655	5.94
240.032	5.84
240.409	5.8
240.785	5.65
241.162	5.71
241.539	5.64
241.915	5.66
242.292	5.65
242.668	5.59
243.045	5.58
243.421	5.47
243.798	5.43
244.174	5.4
244.551	5.33
244.927	5.17
245.303	5.13
245.679	5.12
246.056	5.06
246.432	5.01
246.808	4.8
247.184	4.8
247.56	4.77
247.936	4.79
248.312	4.76
248.688	4.8
249.064	4.75
249.44	4.78
249.815	4.79
250.191	4.73
250.567	4.69
250.943	4.77
251.318	4.76
251.694	4.72
252.069	4.65
252.445	4.63
252.82	4.73
253.196	4.71
253.571	4.68
253.947	4.76
254.322	4.71
254.697	4.84
255.073	4.83
255.448	4.81
255.823	4.78
256.198	4.75
256.573	4.56
256.948	4.56
257.323	4.56
257.698	4.48
258.073	4.48
258.448	4.36
258.823	4.37
259.198	4.35
259.573	4.37
259.948	4.41
260.322	4.39
260.697	4.38
261.072	4.37
261.446	4.35
261.821	4.32
262.195	4.28
262.57	4.27
262.944	4.25
263.319	4.22
263.693	4.25
264.067	4.26
264.442	4.35
264.816	4.33
265.19	4.3
265.564	4.35
265.938	4.32
266.313	4.37
266.687	4.32
267.061	4.34
267.435	4.33
267.809	4.3
268.183	4.27
268.556	4.3
268.93	4.31
269.304	4.28
269.678	4.24
270.051	4.23
270.425	4.21
270.799	4.22
271.172	4.23
271.546	4.22
271.919	4.23
272.293	4.21
272.666	4.2
273.04	4.2
273.413	4.13
273.787	4.12
274.16	4.11
274.533	4.14
274.906	4.11
275.279	4.12
275.653	4.1
276.026	4.09
276.399	4.05
276.772	4.05
277.145	4.09
277.518	4.1
277.891	4.13
278.263	4.15
278.636	4.16
279.009	4.16
279.382	4.15
279.755	4.1
280.127	4.12
280.5	4.13
280.872	4.1
281.245	4.21
281.617	4.23
281.99	4.26
282.362	4.28
282.735	4.27
283.107	4.29
283.479	4.32
283.852	4.36
284.224	4.38
284.596	4.36
284.968	4.26
285.34	4.25
285.713	4.26
286.085	4.2
286.457	4.22
286.829	4.21
287.201	4.23
287.572	4.3
287.944	4.32
288.316	4.38
288.688	4.44
289.06	4.46
289.431	4.49
289.803	4.5
290.175	4.52
290.546	4.56
290.918	4.58
291.289	4.58
291.661	4.62
292.032	4.6
292.403	4.65
292.775	4.77
293.146	4.8
293.517	4.85
293.889	4.94
294.26	4.96
294.631	5.01
295.002	5.08
295.373	5.14
295.744	5.17
296.115	5.21
296.486	5.18
296.857	5.21
297.228	5.25
297.599	5.28
297.97	5.32
298.34	5.35
298.711	5.32
299.082	5.34
299.452	5.4
299.823	5.48
300.194	5.55
300.564	5.58
300.935	5.62
301.305	5.66
301.676	5.68
302.046	5.73
302.416	5.76
302.787	5.8
303.157	5.79
303.527	5.84
303.897	5.89
304.267	5.94
304.637	6
305.008	6.07
305.378	6.14
305.748	6.2
306.117	6.33
306.487	6.44
306.857	6.55
307.227	6.62
307.597	6.63
307.967	6.68
308.336	6.73
308.706	6.79
309.076	6.85
309.445	6.89
309.815	6.83
310.184	6.88
310.554	6.88
310.923	6.97
311.293	7.03
311.662	7.09
312.031	7.12
312.401	7.17
312.77	7.19
313.139	7.23
313.508	7.31
313.877	7.32
314.246	7.37
314.616	7.41
314.985	7.41
315.353	7.46
315.722	7.52
316.091	7.57
316.46	7.63
316.829	7.71
317.198	7.79
317.567	7.99
317.935	8.06
318.304	8.18
318.672	8.28
319.041	8.35
319.41	8.44
319.778	8.54
320.147	8.63
320.515	8.7
320.883	8.76
321.252	8.77
321.62	8.87
321.988	8.94
322.357	8.99
322.725	9.13
323.093	9.18
323.461	9.23
323.829	9.3
324.197	9.36
324.565	9.4
324.933	9.47
325.301	9.52
325.669	9.57
326.037	9.62
326.405	9.64
326.772	9.69
327.14	9.74
327.508	9.79
327.875	9.84
328.243	9.9
328.61	9.91
328.978	9.97
329.346	10
329.713	10.02
330.08	10.07
330.448	10.12
330.815	10.14
331.182	10.2
331.55	10.24
331.917	10.28
332.284	10.32
332.651	10.37
333.018	10.41
333.385	10.45
333.752	10.5
334.119	10.54
334.486	10.58
334.853	10.59
335.22	10.64
335.587	10.68
335.954	10.72
336.32	10.78
336.687	10.82
337.054	10.85
337.42	10.91
337.787	10.94
338.153	11.01
338.52	11.07
338.886	11.14
339.253	11.17
339.619	11.2
339.986	11.19
340.352	11.22
340.718	11.26
341.084	11.29
341.451	11.3
341.817	11.31
342.183	11.33
342.549	11.38
342.915	11.4
343.281	11.44
343.647	11.48
344.013	11.52
344.379	11.56
344.745	11.59
345.11	11.61
345.476	11.63
345.842	11.66
346.208	11.65
346.573	11.67
346.939	11.7
347.304	11.7
347.67	11.72
348.035	11.75
348.401	11.74
348.766	11.76
349.132	11.79
349.497	11.82
349.862	11.83
350.228	11.84
350.593	11.85
350.958	11.84
351.323	11.83
351.688	11.83
352.053	11.82
352.418	11.82
352.783	11.81
353.148	11.79
353.513	11.77
353.878	11.76
354.243	11.73
354.608	11.71
354.972	11.71
355.337	11.69
355.702	11.66
356.066	11.65
356.431	11.63
356.795	11.6
357.16	11.56
357.524	11.53
357.889	11.5
358.253	11.48
358.618	11.46
358.982	11.44
359.346	11.42
359.71	11.39
360.075	11.38
360.439	11.35
360.803	11.32
361.167	11.29
361.531	11.27
361.895	11.23
362.259	11.19
362.623	11.16
362.987	11.11
363.351	11.09
363.714	11.06
364.078	11.01
364.442	10.98
364.806	10.95
365.169	10.89
365.533	10.84
365.896	10.8
366.26	10.75
366.623	10.69
366.987	10.64
367.35	10.59
367.714	10.55
368.077	10.49
368.44	10.44
368.803	10.38
369.167	10.32
369.53	10.27
369.893	10.21
370.256	10.15
370.619	10.09
370.982	10.02
371.345	9.95
371.708	9.89
372.071	9.82
372.434	9.76
372.797	9.71
373.159	9.66
373.522	9.59
373.885	9.52
374.247	9.44
374.61	9.38
374.973	9.29
375.335	9.21
375.698	9.14
376.06	9.07
376.423	9.01
376.785	8.95
377.147	8.88
377.51	8.83
377.872	8.77
378.234	8.71
378.596	8.65
378.958	8.6
379.321	8.53
379.683	8.47
380.045	8.41
380.407	8.35
380.769	8.29
381.13	8.24
381.492	8.19
381.854	8.14
382.216	8.08
382.578	8.03
382.939	7.98
383.301	7.93
383.663	7.89
384.024	7.83
384.386	7.78
384.747	7.72
385.109	7.66
385.47	7.61
385.832	7.57
386.193	7.51
386.554	7.46
386.916	7.42
387.277	7.37
387.638	7.34
387.999	7.29
388.36	7.26
388.721	7.21
389.082	7.17
389.443	7.13
389.804	7.1
390.165	7.07
390.526	7.03
390.887	6.99
391.248	6.94
391.609	6.91
391.969	6.87
392.33	6.83
392.691	6.79
393.051	6.76
393.412	6.71
393.772	6.67
394.133	6.64
394.493	6.59
394.854	6.55
395.214	6.51
395.574	6.47
395.935	6.42
396.295	6.38
396.655	6.35
397.015	6.31
397.376	6.26
397.736	6.23
398.096	6.18
398.456	6.15
398.816	6.12
399.176	6.08
399.535	6.05
399.895	6.02
400.255	5.98
400.615	5.95
400.975	5.91
401.334	5.88
401.694	5.85
402.054	5.82
402.413	5.77
402.773	5.74
403.132	5.72
403.492	5.69
403.851	5.66
404.211	5.64
404.57	5.62
404.929	5.61
405.288	5.58
405.648	5.56
406.007	5.55
406.366	5.53
406.725	5.52
407.084	5.5
407.443	5.49
407.802	5.46
408.161	5.43
408.52	5.42
408.879	5.4
409.238	5.39
409.596	5.37
409.955	5.37
410.314	5.35
410.673	5.33
411.031	5.32
411.39	5.3
411.748	5.3
412.107	5.29
412.465	5.28
412.824	5.3
413.182	5.3
413.54	5.31
413.899	5.32
414.257	5.34
414.615	5.38
414.974	5.4
415.332	5.43
415.69	5.47
416.048	5.48
416.406	5.51
416.764	5.54
417.122	5.56
417.48	5.58
417.838	5.6
418.195	5.61
418.553	5.63
418.911	5.63
419.269	5.62
419.626	5.6
419.984	5.58
420.342	5.55
420.699	5.52
421.057	5.48
421.414	5.46
421.772	5.43
422.129	5.41
422.486	5.39
422.844	5.38
423.201	5.37
423.558	5.36
423.915	5.35
424.273	5.34
424.63	5.33
424.987	5.32
425.344	5.3
425.701	5.3
426.058	5.29
426.415	5.28
426.772	5.26
427.128	5.25
427.485	5.23
427.842	5.21
428.199	5.18
428.555	5.16
428.912	5.13
429.269	5.08
429.625	5.05
429.982	5.02
430.338	4.98
430.695	4.95
431.051	4.9
431.407	4.87
431.764	4.85
432.12	4.81
432.476	4.8
432.832	4.79
433.189	4.79
433.545	4.79
433.901	4.81
434.257	4.83
434.613	4.86
434.969	4.89
435.325	4.92
435.681	4.97
436.036	4.98
436.392	5
436.748	5.01
437.104	5.01
437.459	5.03
437.815	5.05
438.171	5.08
438.526	5.1
438.882	5.14
439.237	5.17
439.593	5.21
439.948	5.25
440.304	5.28
440.659	5.31
441.014	5.32
441.369	5.35
441.725	5.37
442.08	5.38
442.435	5.39
442.79	5.39
443.145	5.39
443.5	5.39
443.855	5.39
444.21	5.38
444.565	5.37
444.92	5.36
445.275	5.35
445.629	5.33
445.984	5.32
446.339	5.3
446.693	5.29
447.048	5.26
447.403	5.24
447.757	5.21
448.112	5.18
448.466	5.15
448.82	5.12
449.175	5.09
449.529	5.07
449.883	5.05
450.238	5.02
450.592	5.01
450.946	5
451.3	5
451.654	5
452.008	5
452.362	5
452.716	5
453.07	4.99
453.424	4.98
453.778	4.97
454.132	4.95
454.486	4.94
454.839	4.91
455.193	4.88
455.547	4.87
455.9	4.83
456.254	4.8
456.607	4.77
456.961	4.74
457.314	4.72
457.668	4.71
458.021	4.7
458.375	4.7
458.728	4.7
459.081	4.71
459.434	4.72
459.787	4.73
460.141	4.75
460.494	4.76
460.847	4.77
461.2	4.78
461.553	4.79
461.906	4.8
462.259	4.82
462.611	4.82
462.964	4.84
463.317	4.85
463.67	4.86
464.022	4.87
464.375	4.88
464.728	4.88
465.08	4.89
465.433	4.9
465.785	4.9
466.138	4.9
466.49	4.89
466.843	4.87
467.195	4.86
467.547	4.85
467.899	4.83
468.252	4.81
468.604	4.79
468.956	4.78
469.308	4.77
469.66	4.78
470.012	4.78
470.364	4.8
470.716	4.81
471.068	4.84
471.42	4.87
471.772	4.9
472.123	4.92
472.475	4.94
472.827	4.96
473.178	4.97
473.53	4.99
473.882	5
474.233	5.03
474.585	5.07
474.936	5.15
475.288	5.25
475.639	5.39
475.99	5.54
476.342	5.72
476.693	5.91
477.044	6.09
477.395	6.29
477.746	6.48
478.097	6.68
478.448	6.88
478.8	7.08
479.15	7.25
479.501	7.42
479.852	7.56
480.203	7.7
480.554	7.83
480.905	7.96
481.255	8.08
481.606	8.2
481.957	8.29
482.307	8.39
482.658	8.49
483.009	8.58
483.359	8.67
483.709	8.76
484.06	8.84
484.41	8.92
484.761	9
485.111	9.08
485.461	9.15
485.811	9.22
486.162	9.28
486.512	9.33
486.862	9.37
487.212	9.4
487.562	9.43
487.912	9.44
488.262	9.45
488.612	9.45
488.961	9.43
489.311	9.38
489.661	9.31
490.011	9.21
490.36	9.09
490.71	8.95
491.06	8.8
491.409	8.64
491.759	8.49
492.108	8.32
492.458	8.15
492.807	7.97
493.157	7.8
493.506	7.64
493.855	7.48
494.204	7.34
494.554	7.2
494.903	7.08
495.252	6.97
495.601	6.86
495.95	6.76
496.299	6.68
496.648	6.6
496.997	6.53
497.346	6.46
497.695	6.41
498.043	6.36
498.392	6.31
498.741	6.27
499.09	6.23
499.438	6.2
499.787	6.17
500.135	6.16
500.484	6.16
500.832	6.18
501.181	6.22
501.529	6.27
501.878	6.33
502.226	6.41
502.574	6.49
502.923	6.59
503.271	6.69
503.619	6.8
503.967	6.91
504.315	7.02
504.663	7.13
505.011	7.25
505.359	7.38
505.707	7.5
506.055	7.63
506.403	7.77
506.751	7.91
507.098	8.06
507.446	8.21
507.794	8.38
508.141	8.56
508.489	8.75
508.837	8.94
509.184	9.14
509.531	9.34
509.879	9.56
510.226	9.78
510.574	10.02
510.921	10.27
511.268	10.52
511.616	10.78
511.963	11.05
512.31	11.33
512.657	11.61
513.004	11.88
513.351	12.15
513.698	12.39
514.045	12.64
514.392	12.87
514.739	13.1
515.086	13.32
515.432	13.54
515.779	13.76
516.126	14
516.473	14.25
516.819	14.52
517.166	14.81
517.512	15.12
517.859	15.45
518.205	15.8
518.552	16.18
518.898	16.59
519.245	17.06
519.591	17.61
519.937	18.24
520.283	18.97
520.629	19.76
520.976	20.59
521.322	21.45
521.668	22.31
522.014	23.16
522.36	24.02
522.706	24.87
523.052	25.69
523.398	26.47
523.743	27.19
524.089	27.84
524.435	28.45
524.781	29.05
525.126	29.64
525.472	30.23
525.817	30.79
526.163	31.35
526.509	31.89
526.854	32.43
527.199	32.96
527.545	33.49
527.89	34.04
528.235	34.57
528.581	35.08
528.926	35.55
529.271	36.01
529.616	36.44
529.961	36.85
530.306	37.2
530.651	37.54
530.996	37.85
531.341	38.13
531.686	38.39
532.031	38.63
532.376	38.9
532.721	39.2
533.065	39.52
533.41	39.84
533.755	40.12
534.099	40.34
534.444	40.52
534.788	40.66
535.133	40.79
535.477	40.88
535.822	40.93
536.166	40.94
536.51	40.88
536.855	40.75
537.199	40.59
537.543	40.44
537.887	40.32
538.231	40.25
538.576	40.19
538.92	40.11
539.264	40.02
539.608	39.9
539.951	39.76
540.295	39.61
540.639	39.44
540.983	39.25
541.327	39.05
541.671	38.85
542.014	38.68
542.358	38.52
542.701	38.48
543.045	38.48
543.389	38.52
543.732	38.57
544.075	38.65
544.419	38.75
544.762	38.85
545.105	38.97
545.449	39.11
545.792	39.26
546.135	39.41
546.478	39.5
546.821	39.54
547.165	39.5
547.508	39.41
547.851	39.26
548.194	39.05
548.536	38.8
548.879	38.52
549.222	38.21
549.565	37.89
549.908	37.58
550.25	37.3
550.593	37.09
550.936	36.96
551.278	36.89
551.621	36.86
551.963	36.85
552.306	36.87
552.648	36.92
552.991	37
553.333	37.1
553.675	37.25
554.017	37.43
554.36	37.63
554.702	37.88
555.044	38.17
555.386	38.51
555.728	38.84
556.07	39.13
556.412	39.43
556.754	39.62
557.096	39.8
557.438	39.98
557.78	40.15
558.121	40.34
558.463	40.52
558.805	40.7
559.147	40.89
559.488	41.07
559.83	41.24
560.171	41.41
560.513	41.58
560.854	41.74
561.196	41.9
561.537	42.06
561.878	42.22
562.22	42.38
562.561	42.54
562.902	42.69
563.243	42.85
563.584	43
563.925	43.15
564.266	43.31
564.607	43.46
564.948	43.6
565.289	43.75
565.63	43.89
565.971	44.04
566.312	44.19
566.653	44.32
566.993	44.45
567.334	44.59
567.675	44.71
568.015	44.84
568.356	44.96
568.696	45.07
569.037	45.18
569.377	45.29
569.718	45.4
570.058	45.5
570.398	45.6
570.739	45.69
571.079	45.78
571.419	45.87
571.759	45.95
572.099	46.02
572.439	46.09
572.779	46.16
573.119	46.24
573.459	46.3
573.799	46.38
574.139	46.45
574.479	46.53
574.819	46.59
575.158	46.65
575.498	46.72
575.838	46.78
576.177	46.84
576.517	46.9
576.856	46.97
577.196	47.03
577.535	47.09
577.875	47.14
578.214	47.2
578.553	47.25
578.893	47.3
579.232	47.36
579.571	47.41
579.91	47.47
580.25	47.51
580.589	47.57
580.928	47.62
581.267	47.67
581.606	47.74
581.945	47.79
582.283	47.85
582.622	47.91
582.961	47.96
583.3	48.02
583.639	48.09
583.977	48.14
584.316	48.21
584.654	48.27
584.993	48.33
585.332	48.39
585.67	48.47
586.008	48.53
586.347	48.6
586.685	48.67
587.024	48.74
587.362	48.8
587.7	48.88
588.038	48.95
588.376	49.02
588.715	49.11
589.053	49.19
589.391	49.28
589.729	49.36
590.067	49.45
590.404	49.51
590.742	49.58
591.08	49.65
591.418	49.72
591.756	49.78
592.093	49.85
592.431	49.91
592.769	49.97
593.106	50.03
593.444	50.08
593.781	50.12
594.119	50.17
594.456	50.2
594.793	50.26
595.131	50.3
595.468	50.35
595.805	50.41
596.143	50.47
596.48	50.52
596.817	50.59
597.154	50.66
597.491	50.72
597.828	50.79
598.165	50.85
598.502	50.92
598.839	50.98
599.176	51.03
599.512	51.08
599.849	51.14
600.186	51.19
600.523	51.23
600.859	51.28
601.196	51.32
601.532	51.37
601.869	51.42
602.205	51.46
602.542	51.5
602.878	51.53
603.215	51.56
603.551	51.59
603.887	51.62
604.223	51.65
604.56	51.69
604.896	51.7
605.232	51.73
605.568	51.76
605.904	51.79
606.24	51.82
606.576	51.85
606.912	51.88
607.248	51.91
607.583	51.95
607.919	51.98
608.255	52.02
608.591	52.04
608.926	52.06
609.262	52.08
609.597	52.1
609.933	52.11
610.268	52.13
610.604	52.14
610.939	52.14
611.275	52.16
611.61	52.17
611.945	52.17
612.281	52.18
612.616	52.17
612.951	52.18
613.286	52.2
613.621	52.21
613.956	52.22
614.291	52.23
614.626	52.25
614.961	52.26
615.296	52.27
615.631	52.28
615.966	52.28
616.3	52.3
616.635	52.32
616.97	52.32
617.304	52.33
617.639	52.34
617.973	52.36
618.308	52.38
618.642	52.41
618.977	52.44
619.311	52.47
619.646	52.5
619.98	52.53
620.314	52.56
620.648	52.6
620.983	52.63
621.317	52.65
621.651	52.68
621.985	52.7
622.319	52.73
622.653	52.75
622.987	52.78
623.321	52.81
623.655	52.84
623.988	52.87
624.322	52.88
624.656	52.91
624.99	52.92
625.323	52.94
625.657	52.97
625.99	53
626.324	53.04
626.657	53.06
626.991	53.07
627.324	53.09
627.658	53.13
627.991	53.16
628.324	53.19
628.657	53.22
628.991	53.24
629.324	53.26
629.657	53.29
629.99	53.31
630.323	53.34
630.656	53.35
630.989	53.36
631.322	53.39
631.655	53.4
631.987	53.42
632.32	53.43
632.653	53.44
632.986	53.45
633.318	53.46
633.651	53.47
633.984	53.49
634.316	53.5
634.649	53.5
634.981	53.52
635.313	53.54
635.646	53.55
635.978	53.56
636.31	53.59
636.643	53.58
636.975	53.59
637.307	53.6
637.639	53.62
637.971	53.65
638.303	53.67
638.635	53.7
638.967	53.71
639.299	53.73
639.631	53.74
639.963	53.77
640.295	53.8
640.626	53.83
640.958	53.84
641.29	53.85
641.621	53.86
641.953	53.87
642.285	53.89
642.616	53.91
642.948	53.92
643.279	53.96
643.61	53.98
643.942	53.99
644.273	54.03
644.604	54.05
644.936	54.07
645.267	54.08
645.598	54.1
645.929	54.13
646.26	54.16
646.591	54.18
646.922	54.2
647.253	54.22
647.584	54.25
647.915	54.26
648.245	54.29
648.576	54.31
648.907	54.32
649.238	54.33
649.568	54.36
649.899	54.39
650.229	54.43
650.56	54.47
650.89	54.5
651.221	54.52
651.551	54.55
651.882	54.57
652.212	54.59
652.542	54.62
652.872	54.63
653.203	54.64
653.533	54.64
653.863	54.65
654.193	54.67
654.523	54.68
654.853	54.69
655.183	54.7
655.513	54.73
655.843	54.75
656.172	54.78
656.502	54.79
656.832	54.8
657.162	54.81
657.491	54.83
657.821	54.84
658.15	54.87
658.48	54.88
658.809	54.92
659.139	54.94
659.468	54.97
659.798	54.99
660.127	55
660.456	55.04
660.785	55.07
661.115	55.07
661.444	55.09
661.773	55.12
662.102	55.14
662.431	55.15
662.76	55.17
663.089	55.19
663.418	55.19
663.747	55.21
664.076	55.23
664.404	55.25
664.733	55.26
665.062	55.28
665.39	55.3
665.719	55.31
666.048	55.33
666.376	55.35
666.705	55.37
667.033	55.4
667.362	55.41
667.69	55.42
668.018	55.42
668.347	55.45
668.675	55.45
669.003	55.46
669.331	55.47
669.659	55.48
669.987	55.52
670.315	55.53
670.643	55.56
670.971	55.58
671.299	55.59
671.627	55.6
671.955	55.62
672.283	55.64
672.61	55.66
672.938	55.67
673.266	55.7
673.593	55.72
673.921	55.73
674.249	55.75
674.576	55.77
674.904	55.8
675.231	55.81
675.558	55.85
675.886	55.87
676.213	55.89
676.54	55.9
676.867	55.91
677.195	55.92
677.522	55.91
677.849	55.94
678.176	55.98
678.503	56
678.83	56.02
679.157	56.04
679.484	56.05
679.81	56.06
680.137	56.07
680.464	56.09
680.791	56.1
681.117	56.11
681.444	56.13
681.771	56.14
682.097	56.15
682.424	56.16
682.75	56.16
683.077	56.19
683.403	56.18
683.729	56.2
684.056	56.21
684.382	56.21
684.708	56.21
685.034	56.22
685.36	56.22
685.686	56.22
686.012	56.24
686.339	56.24
686.664	56.25
686.99	56.25
687.316	56.26
687.642	56.27
687.968	56.3
688.294	56.3
688.619	56.32
688.945	56.33
689.271	56.34
689.596	56.37
689.922	56.39
690.247	56.44
690.573	56.45
690.898	56.5
691.224	56.49
691.549	56.51
691.874	56.53
692.2	56.56
692.525	56.6
692.85	56.62
693.175	56.63
693.5	56.64
693.825	56.65
694.15	56.66
694.475	56.69
694.8	56.73
695.125	56.74
695.45	56.76
695.775	56.79
696.099	56.82
696.424	56.83
696.749	56.86
697.073	56.88
697.398	56.9
697.723	56.92
698.047	56.93
698.372	56.96
698.696	56.98
699.02	56.98
699.345	56.99
699.669	57.02
699.993	57.04
700.318	57.05
700.642	57.08
700.966	57.09
701.29	57.11
701.614	57.13
701.938	57.11
702.262	57.14
702.586	57.16
702.91	57.17
703.234	57.17
703.557	57.16
703.881	57.18
704.205	57.2
704.529	57.22
704.852	57.22
705.176	57.2
705.499	57.22
705.823	57.21
706.146	57.22
706.47	57.24
706.793	57.29
707.117	57.37
707.44	57.38
707.763	57.38
708.086	57.38
708.409	57.41
708.733	57.43
709.056	57.45
709.379	57.48
709.702	57.48
710.025	57.51
710.348	57.45
710.671	57.46
710.993	57.47
711.316	57.47
711.639	57.49
711.962	57.53
712.284	57.55
712.607	57.57
712.93	57.57
713.252	57.6
713.575	57.6
713.897	57.6
714.22	57.6
714.542	57.65
714.864	57.69
715.187	57.75
715.509	57.77
715.831	57.78
716.153	57.79
716.475	57.82
716.798	57.84
717.12	57.91
717.442	57.95
717.764	57.96
718.085	57.94
718.407	57.97
718.729	57.98
719.051	57.99
719.373	58.01
719.695	58.02
720.016	58.02
720.338	58.02
720.659	58.07
720.981	58.09
721.302	58.11
721.624	58.08
721.945	58.11
722.267	58.11
722.588	58.13
722.909	58.16
723.231	58.2
723.552	58.19
723.873	58.23
724.194	58.25
724.515	58.29
724.836	58.37
725.157	58.36
725.478	58.4
725.799	58.4
726.12	58.42
726.441	58.4
726.762	58.42
727.083	58.41
727.403	58.46
727.724	58.42
728.045	58.37
728.365	58.36
728.686	58.37
729.006	58.39
729.327	58.38
729.647	58.38
729.967	58.38
730.288	58.41
730.608	58.42
730.928	58.45
731.249	58.44
731.569	58.44
731.889	58.42
732.209	58.45
732.529	58.45
732.849	58.46
733.169	58.45
733.489	58.45
733.809	58.45
734.129	58.48
734.448	58.5
734.768	58.52
735.088	58.52
735.408	58.51
735.727	58.5
736.047	58.51
736.366	58.49
736.686	58.52
737.005	58.5
737.325	58.49
737.644	58.49
737.963	58.47
738.283	58.47
738.602	58.45
738.921	58.49
739.24	58.52
739.56	58.54
739.879	58.54
740.198	58.58
740.517	58.54
740.836	58.55
741.155	58.55
741.473	58.56
741.792	58.54
742.111	58.55
742.43	58.58
742.748	58.55
743.067	58.54
743.386	58.53
743.704	58.51
744.023	58.51
744.341	58.53
744.66	58.55
744.978	58.54
745.297	58.55
745.615	58.57
745.933	58.59
746.252	58.6
746.57	58.57
746.888	58.58
747.206	58.58
747.524	58.56
747.842	58.59
748.16	58.61
748.478	58.63
748.796	58.63
749.114	58.62
749.432	58.61
749.749	58.62
750.067	58.63
750.385	58.65
750.703	58.67
751.02	58.68
751.338	58.71
751.655	58.73
751.973	58.71
752.29	58.72
752.608	58.73
752.925	58.79
753.242	58.83
753.56	58.89
753.877	58.89
754.194	58.91
754.511	58.96
754.828	58.96
755.145	58.98
755.462	58.99
755.779	59.06
756.096	59.1
756.413	59.13
756.73	59.14
757.047	59.18
757.364	59.23
757.68	59.27
757.997	59.3
758.314	59.31
758.63	59.34
758.947	59.36
759.264	59.39
759.58	59.43
759.896	59.44
760.213	59.42
760.529	59.46
760.846	59.46
761.162	59.5
761.478	59.51
761.794	59.52
762.11	59.53
762.426	59.57
762.743	59.56
763.059	59.62
763.375	59.63
763.69	59.65
764.006	59.66
764.322	59.67
764.638	59.69
764.954	59.72
765.27	59.71
765.585	59.74
765.901	59.73
766.216	59.67
766.532	59.67
766.848	59.68
767.163	59.71
767.478	59.71
767.794	59.73
768.109	59.75
768.424	59.74
768.74	59.75
769.055	59.75
769.37	59.77
769.685	59.76
770	59.76
770.315	59.73
770.63	59.68
770.945	59.66
771.26	59.66
771.575	59.66
771.89	59.63
772.205	59.66
772.52	59.62
772.834	59.68
773.149	59.75
773.464	59.7
773.778	59.71
774.093	59.71
774.407	59.71
774.722	59.73
775.036	59.71
775.351	59.66
775.665	59.69
775.979	59.58
776.293	59.58
776.608	59.56
776.922	59.58
777.236	59.6
777.55	59.67
777.864	59.7
778.178	59.7
778.492	59.68
778.806	59.69
779.12	59.68
779.434	59.68
779.747	59.67
780.061	59.73
780.375	59.72
780.689	59.71
781.002	59.69
781.316	59.76
781.629	59.78
781.943	59.79
782.256	59.81
782.57	59.84
782.883	59.83
783.196	59.88
783.51	59.93
783.823	59.89
784.136	59.84
784.449	59.84
784.762	59.88
785.075	59.91
785.388	59.89
785.701	59.92
786.014	59.9
786.327	59.92
786.64	59.9
786.953	59.89
787.266	59.89
787.578	59.88
787.891	59.94
788.204	59.98
788.516	60.01
788.829	60.07
789.141	60.11
789.454	60.12
789.766	60.13
790.079	60.13
790.391	60.09
790.703	60.08
791.016	60.02
791.328	60.02
791.64	60
791.952	60.05
792.264	60.07
792.576	60.07
792.888	60.16
793.2	60.16
793.512	60.21
793.824	60.19
794.136	60.15
794.448	60.22
794.76	60.25
795.071	60.22
795.383	60.18
795.695	60.26
796.006	60.27
796.318	60.32
796.629	60.4
796.941	60.38
797.252	60.38
797.564	60.35
797.875	60.28
798.186	60.31
798.497	60.27
798.809	60.24
799.12	60.21
799.431	60.19
799.742	60.21
800.053	60.19
800.364	60.22
800.675	60.21
800.986	60.22
801.297	60.27
801.608	60.27
801.918	60.24
802.229	60.29
802.54	60.24
802.851	60.35
803.161	60.35
803.472	60.39
803.782	60.42
804.093	60.47
804.403	60.5
804.714	60.49
805.024	60.49
805.334	60.55
805.645	60.54
805.955	60.58
806.265	60.57
806.575	60.63
806.885	60.6
807.195	60.57
807.505	60.52
807.815	60.57
808.125	60.61
808.435	60.58
808.745	60.61
809.055	60.61
809.365	60.65
809.674	60.7
809.984	60.78
810.294	60.86
810.603	60.91
810.913	61.01
811.222	60.97
811.532	61.01
811.841	61.09
812.151	61.18
812.46	61.16
812.769	61.25
813.079	61.3
813.388	61.33
813.697	61.36
814.006	61.31
814.315	61.3
814.624	61.34
814.933	61.38
815.242	61.39
815.551	61.24
815.86	61.29
816.169	61.3
816.478	61.37
816.786	61.32
817.095	61.31
817.404	61.33
817.712	61.33
818.021	61.31
818.33	61.3
818.638	61.35
818.947	61.33
819.255	61.34
819.563	61.35
819.872	61.36
820.18	61.35
820.488	61.4
820.796	61.42
821.105	61.4
821.413	61.37
821.721	61.39
822.029	61.38
822.337	61.44
822.645	61.41
822.953	61.4
823.26	61.39
823.568	61.42
823.876	61.43
824.184	61.42
824.491	61.39
824.799	61.38
825.107	61.39
825.414	61.38
825.722	61.39
826.029	61.39
826.337	61.38
826.644	61.38
826.951	61.42
827.259	61.42
827.566	61.4
827.873	61.44
828.18	61.43
828.488	61.41
828.795	61.4
829.102	61.37
829.409	61.39
829.716	61.42
830.023	61.46
830.329	61.5
830.636	61.52
830.943	61.55
831.25	61.55
831.557	61.56
831.863	61.54
832.17	61.57
832.476	61.58
832.783	61.62
833.089	61.6
833.396	61.57
833.702	61.59
834.009	61.61
834.315	61.57
834.621	61.62
834.928	61.54
835.234	61.56
835.54	61.54
835.846	61.57
836.152	61.53
836.458	61.54
836.764	61.56
837.07	61.63
837.376	61.62
837.682	61.57
837.988	61.66
838.293	61.56
838.599	61.61
838.905	61.58
839.211	61.65
839.516	61.65
839.822	61.7
840.127	61.74
840.433	61.69
840.738	61.73
841.044	61.76
841.349	61.85
841.654	61.94
841.959	61.94
842.265	61.91
842.57	61.84
842.875	61.84
843.18	61.92
843.485	61.85
843.79	61.87
844.095	61.99
844.4	61.97
844.705	62.08
845.01	61.97
845.315	61.93
845.619	61.79
845.924	61.79
846.229	61.84
846.533	61.88
846.838	61.92
847.142	61.87
847.447	62.08
847.751	62.09
848.056	62.24
848.36	62.36
848.664	62.31
848.969	62.34
849.273	62.21
849.577	62.16
849.881	61.99
850.185	62.1
850.489	62.03
850.794	62.2
851.097	62.14
851.401	62.3
851.705	62.22
852.009	62.11
852.313	62.15
852.617	62.21
852.92	62.22
853.224	62.13
853.528	62.13
853.831	62.17
854.135	62.09
854.438	62.06
854.742	62
855.045	62.07
855.349	62.19
855.652	62.25
855.955	62.39
856.259	62.43
856.562	62.48
856.865	62.47
857.168	62.48
857.471	62.67
857.774	62.79
858.077	62.77
858.38	62.66
858.683	62.44
858.986	62.42
859.289	62.8
859.592	62.98
859.894	62.9
860.197	62.96
860.5	62.94
860.802	63.03
861.105	63.06
861.407	63.09
861.71	63.13
862.012	63.1
862.315	63.35
862.617	63.21
862.919	63.18
863.222	63.35
863.524	63.27
863.826	63.42
864.128	63.61
864.43	63.76
864.732	63.51
865.034	63.46
865.336	63.65
865.638	63.68
865.94	63.57
866.242	63.46
866.544	63.32
866.846	63.44
867.147	63.42
867.449	63.24
867.751	63.28
868.052	63.27
868.354	63.04
868.655	63.16
868.957	63.26
869.258	63.37
869.56	63.16
869.861	63.16
870.162	63.11
870.463	63.08
870.765	63.17
871.066	63.26
871.367	63.14
871.668	63.01
871.969	62.96
872.27	63.05
872.571	62.91
872.872	63.02
873.173	62.87
873.473	63.02
873.774	62.99
874.075	63.03
874.376	63.17
874.676	63.09
874.977	63.17
875.277	63.05
875.578	62.83
875.878	62.77
876.179	62.62
876.479	62.46
876.78	62.4
877.08	62.76
877.38	62.87
877.68	62.67
877.981	62.8
878.281	62.87
878.581	62.97
