Data from UWBM79812_Reflection_00009.txt Node
Date: Sun May 02 13:58:05 EDT 2021
User: vgr7
Spectrometer: USB2G7710
Scans to average: 10
Trigger mode: 4
Integration Time (sec): 1.000000E-1
Electric dark correction enabled: true
Boxcar width: 20
XAxis mode: Wavelengths
Number of Pixels in Spectrum: 2048
>>>>>Begin Spectral Data<<<<<
177.721	80.87
178.105	85.78
178.488	162.45
178.871	180.8
179.254	128.11
179.636	98.95
180.019	69.87
180.402	52.47
180.785	44.91
181.168	45.84
181.55	44.5
181.933	43.62
182.316	31.48
182.698	25.01
183.081	18.37
183.463	18.04
183.846	18.85
184.228	18.93
184.611	16.47
184.993	15.04
185.376	18.6
185.758	18.65
186.14	19.22
186.522	19.03
186.904	20.68
187.287	18.54
187.669	18.94
188.051	17.91
188.433	14.13
188.815	14.51
189.197	14.29
189.579	13.63
189.961	15.87
190.342	14.02
190.724	13.78
191.106	14.94
191.488	15.88
191.869	15.11
192.251	16.25
192.633	18.05
193.014	14.59
193.396	11.32
193.777	13.84
194.159	12.37
194.54	12.12
194.922	11.58
195.303	10.91
195.684	9.97
196.065	9.26
196.447	8.29
196.828	7.75
197.209	5.22
197.59	2.85
197.971	4.93
198.352	6.42
198.733	8.37
199.114	8.17
199.495	6.53
199.876	5.51
200.257	5.69
200.638	4.3
201.018	3.89
201.399	5.39
201.78	5.5
202.16	6.04
202.541	5.06
202.922	5.67
203.302	6.35
203.683	6.63
204.063	7.17
204.444	6.64
204.824	6.13
205.204	4.35
205.585	4.11
205.965	5.49
206.345	5.78
206.725	5.4
207.106	4.33
207.486	4.85
207.866	4.37
208.246	3.1
208.626	4.62
209.006	5.05
209.386	3.18
209.766	2.07
210.145	0.86
210.525	1.21
210.905	2.25
211.285	0.68
211.664	2.71
212.044	3.24
212.424	2.99
212.803	5.12
213.183	5.76
213.562	5.96
213.942	5.31
214.321	4.68
214.701	4.63
215.08	5.94
215.459	6.24
215.838	5.52
216.218	6.94
216.597	5.57
216.976	4.98
217.355	5.12
217.734	5.96
218.113	5.86
218.492	5.54
218.871	5.47
219.25	5.13
219.629	5.32
220.008	4.49
220.387	3.6
220.766	5.95
221.144	5.07
221.523	4.85
221.902	4.66
222.28	4.49
222.659	4.62
223.037	4.73
223.416	5.59
223.794	5.99
224.173	5.94
224.551	5.71
224.929	7.01
225.308	7.01
225.686	7.43
226.064	7.1
226.442	6.89
226.821	7.89
227.199	7.51
227.577	7.65
227.955	7.93
228.333	7.64
228.711	7.51
229.089	6.83
229.467	6.59
229.845	6.44
230.222	6.3
230.6	6.2
230.978	6.15
231.356	6.65
231.733	6.59
232.111	6.42
232.488	6.25
232.866	6.01
233.243	5.67
233.621	5.4
233.998	5.23
234.376	5.06
234.753	4.86
235.13	4.84
235.508	4.99
235.885	4.99
236.262	4.79
236.639	4.86
237.016	4.82
237.393	4.81
237.77	4.68
238.147	4.61
238.524	4.5
238.901	4.35
239.278	4.3
239.655	4.24
240.032	4.26
240.409	4.21
240.785	4.32
241.162	4.3
241.539	4.28
241.915	4.34
242.292	4.33
242.668	4.37
243.045	4.36
243.421	4.35
243.798	4.34
244.174	4.35
244.551	4.36
244.927	4.38
245.303	4.4
245.679	4.39
246.056	4.34
246.432	4.36
246.808	4.31
247.184	4.32
247.56	4.35
247.936	4.36
248.312	4.34
248.688	4.33
249.064	4.36
249.44	4.37
249.815	4.36
250.191	4.34
250.567	4.33
250.943	4.31
251.318	4.29
251.694	4.3
252.069	4.23
252.445	4.21
252.82	4.19
253.196	4.19
253.571	4.17
253.947	4.17
254.322	4.18
254.697	4.17
255.073	4.17
255.448	4.16
255.823	4.12
256.198	4.09
256.573	4.06
256.948	4.06
257.323	4.02
257.698	4
258.073	3.96
258.448	3.94
258.823	3.91
259.198	3.89
259.573	3.89
259.948	3.9
260.322	3.92
260.697	3.9
261.072	3.9
261.446	3.91
261.821	3.9
262.195	3.89
262.57	3.87
262.944	3.85
263.319	3.87
263.693	3.86
264.067	3.85
264.442	3.84
264.816	3.82
265.19	3.82
265.564	3.82
265.938	3.82
266.313	3.82
266.687	3.82
267.061	3.81
267.435	3.83
267.809	3.82
268.183	3.83
268.556	3.82
268.93	3.84
269.304	3.85
269.678	3.85
270.051	3.86
270.425	3.84
270.799	3.84
271.172	3.85
271.546	3.85
271.919	3.86
272.293	3.87
272.666	3.87
273.04	3.88
273.413	3.91
273.787	3.93
274.16	3.93
274.533	3.94
274.906	3.94
275.279	3.92
275.653	3.91
276.026	3.92
276.399	3.92
276.772	3.94
277.145	3.94
277.518	3.95
277.891	3.97
278.263	3.96
278.636	3.95
279.009	3.95
279.382	3.96
279.755	3.96
280.127	3.96
280.5	3.97
280.872	3.99
281.245	3.99
281.617	3.99
281.99	3.99
282.362	3.98
282.735	3.98
283.107	4
283.479	4
283.852	4.02
284.224	4.02
284.596	3.99
284.968	3.99
285.34	3.97
285.713	3.99
286.085	3.99
286.457	3.99
286.829	3.99
287.201	4
287.572	3.99
287.944	4
288.316	4
288.688	3.98
289.06	3.97
289.431	3.98
289.803	4
290.175	3.99
290.546	4.02
290.918	4.03
291.289	4.04
291.661	4.04
292.032	4.03
292.403	4.03
292.775	4.03
293.146	4.03
293.517	4.06
293.889	4.07
294.26	4.08
294.631	4.07
295.002	4.09
295.373	4.1
295.744	4.13
296.115	4.14
296.486	4.15
296.857	4.17
297.228	4.19
297.599	4.23
297.97	4.25
298.34	4.25
298.711	4.26
299.082	4.27
299.452	4.28
299.823	4.3
300.194	4.32
300.564	4.34
300.935	4.35
301.305	4.37
301.676	4.39
302.046	4.4
302.416	4.42
302.787	4.43
303.157	4.45
303.527	4.47
303.897	4.48
304.267	4.51
304.637	4.53
305.008	4.54
305.378	4.58
305.748	4.58
306.117	4.61
306.487	4.64
306.857	4.68
307.227	4.71
307.597	4.74
307.967	4.78
308.336	4.81
308.706	4.82
309.076	4.83
309.445	4.87
309.815	4.91
310.184	4.93
310.554	4.95
310.923	4.98
311.293	4.99
311.662	5
312.031	5.02
312.401	5.04
312.77	5.05
313.139	5.07
313.508	5.1
313.877	5.13
314.246	5.15
314.616	5.18
314.985	5.21
315.353	5.25
315.722	5.26
316.091	5.31
316.46	5.33
316.829	5.36
317.198	5.4
317.567	5.42
317.935	5.45
318.304	5.48
318.672	5.51
319.041	5.56
319.41	5.59
319.778	5.63
320.147	5.66
320.515	5.67
320.883	5.7
321.252	5.72
321.62	5.73
321.988	5.75
322.357	5.77
322.725	5.79
323.093	5.8
323.461	5.8
323.829	5.84
324.197	5.86
324.565	5.86
324.933	5.87
325.301	5.89
325.669	5.92
326.037	5.92
326.405	5.94
326.772	5.98
327.14	5.98
327.508	6
327.875	6.02
328.243	6.03
328.61	6.03
328.978	6.04
329.346	6.06
329.713	6.09
330.08	6.11
330.448	6.12
330.815	6.13
331.182	6.14
331.55	6.16
331.917	6.17
332.284	6.18
332.651	6.19
333.018	6.21
333.385	6.23
333.752	6.26
334.119	6.27
334.486	6.3
334.853	6.31
335.22	6.33
335.587	6.36
335.954	6.38
336.32	6.4
336.687	6.42
337.054	6.44
337.42	6.45
337.787	6.47
338.153	6.51
338.52	6.52
338.886	6.53
339.253	6.56
339.619	6.59
339.986	6.61
340.352	6.63
340.718	6.65
341.084	6.66
341.451	6.68
341.817	6.68
342.183	6.7
342.549	6.72
342.915	6.73
343.281	6.75
343.647	6.78
344.013	6.78
344.379	6.8
344.745	6.8
345.11	6.81
345.476	6.82
345.842	6.85
346.208	6.85
346.573	6.86
346.939	6.86
347.304	6.88
347.67	6.89
348.035	6.9
348.401	6.91
348.766	6.92
349.132	6.93
349.497	6.94
349.862	6.95
350.228	6.95
350.593	6.96
350.958	6.97
351.323	6.97
351.688	6.98
352.053	6.99
352.418	7.01
352.783	7.01
353.148	6.99
353.513	7.01
353.878	7.01
354.243	7.01
354.608	7.01
354.972	7.01
355.337	7
355.702	7
356.066	7
356.431	6.99
356.795	6.99
357.16	6.98
357.524	6.98
357.889	6.97
358.253	6.96
358.618	6.96
358.982	6.95
359.346	6.94
359.71	6.94
360.075	6.94
360.439	6.92
360.803	6.92
361.167	6.9
361.531	6.89
361.895	6.89
362.259	6.87
362.623	6.85
362.987	6.84
363.351	6.83
363.714	6.82
364.078	6.8
364.442	6.79
364.806	6.77
365.169	6.77
365.533	6.75
365.896	6.74
366.26	6.72
366.623	6.71
366.987	6.69
367.35	6.66
367.714	6.64
368.077	6.63
368.44	6.6
368.803	6.58
369.167	6.56
369.53	6.54
369.893	6.5
370.256	6.49
370.619	6.46
370.982	6.45
371.345	6.41
371.708	6.39
372.071	6.38
372.434	6.35
372.797	6.33
373.159	6.31
373.522	6.29
373.885	6.28
374.247	6.25
374.61	6.22
374.973	6.18
375.335	6.15
375.698	6.12
376.06	6.1
376.423	6.08
376.785	6.05
377.147	6.03
377.51	6.01
377.872	5.98
378.234	5.95
378.596	5.92
378.958	5.89
379.321	5.86
379.683	5.83
380.045	5.8
380.407	5.77
380.769	5.74
381.13	5.72
381.492	5.69
381.854	5.67
382.216	5.65
382.578	5.63
382.939	5.6
383.301	5.58
383.663	5.56
384.024	5.53
384.386	5.51
384.747	5.49
385.109	5.46
385.47	5.44
385.832	5.41
386.193	5.39
386.554	5.36
386.916	5.34
387.277	5.32
387.638	5.29
387.999	5.27
388.36	5.24
388.721	5.22
389.082	5.2
389.443	5.19
389.804	5.17
390.165	5.15
390.526	5.14
390.887	5.12
391.248	5.1
391.609	5.08
391.969	5.07
392.33	5.05
392.691	5.04
393.051	5.02
393.412	5
393.772	4.99
394.133	4.97
394.493	4.95
394.854	4.93
395.214	4.91
395.574	4.9
395.935	4.88
396.295	4.86
396.655	4.85
397.015	4.82
397.376	4.8
397.736	4.79
398.096	4.77
398.456	4.75
398.816	4.74
399.176	4.73
399.535	4.71
399.895	4.69
400.255	4.68
400.615	4.66
400.975	4.65
401.334	4.63
401.694	4.62
402.054	4.61
402.413	4.59
402.773	4.58
403.132	4.57
403.492	4.55
403.851	4.54
404.211	4.53
404.57	4.52
404.929	4.5
405.288	4.49
405.648	4.48
406.007	4.48
406.366	4.46
406.725	4.45
407.084	4.44
407.443	4.43
407.802	4.43
408.161	4.42
408.52	4.41
408.879	4.4
409.238	4.39
409.596	4.39
409.955	4.39
410.314	4.38
410.673	4.38
411.031	4.37
411.39	4.37
411.748	4.36
412.107	4.37
412.465	4.37
412.824	4.38
413.182	4.4
413.54	4.42
413.899	4.44
414.257	4.46
414.615	4.5
414.974	4.52
415.332	4.56
415.69	4.59
416.048	4.62
416.406	4.65
416.764	4.68
417.122	4.71
417.48	4.73
417.838	4.76
418.195	4.78
418.553	4.79
418.911	4.8
419.269	4.81
419.626	4.8
419.984	4.79
420.342	4.77
420.699	4.76
421.057	4.74
421.414	4.71
421.772	4.69
422.129	4.68
422.486	4.67
422.844	4.67
423.201	4.66
423.558	4.66
423.915	4.65
424.273	4.65
424.63	4.64
424.987	4.63
425.344	4.63
425.701	4.62
426.058	4.61
426.415	4.61
426.772	4.6
427.128	4.59
427.485	4.58
427.842	4.56
428.199	4.54
428.555	4.52
428.912	4.49
429.269	4.46
429.625	4.43
429.982	4.4
430.338	4.36
430.695	4.33
431.051	4.29
431.407	4.27
431.764	4.25
432.12	4.22
432.476	4.21
432.832	4.2
433.189	4.19
433.545	4.2
433.901	4.21
434.257	4.23
434.613	4.25
434.969	4.28
435.325	4.3
435.681	4.34
436.036	4.36
436.392	4.38
436.748	4.39
437.104	4.4
437.459	4.42
437.815	4.43
438.171	4.45
438.526	4.48
438.882	4.51
439.237	4.55
439.593	4.58
439.948	4.61
440.304	4.65
440.659	4.67
441.014	4.69
441.369	4.72
441.725	4.74
442.08	4.75
442.435	4.77
442.79	4.77
443.145	4.77
443.5	4.77
443.855	4.77
444.21	4.77
444.565	4.76
444.92	4.75
445.275	4.74
445.629	4.73
445.984	4.72
446.339	4.7
446.693	4.69
447.048	4.67
447.403	4.65
447.757	4.63
448.112	4.61
448.466	4.58
448.82	4.55
449.175	4.52
449.529	4.5
449.883	4.48
450.238	4.45
450.592	4.44
450.946	4.43
451.3	4.43
451.654	4.43
452.008	4.43
452.362	4.43
452.716	4.43
453.07	4.43
453.424	4.42
453.778	4.41
454.132	4.4
454.486	4.39
454.839	4.37
455.193	4.34
455.547	4.33
455.9	4.3
456.254	4.28
456.607	4.25
456.961	4.22
457.314	4.2
457.668	4.19
458.021	4.18
458.375	4.17
458.728	4.17
459.081	4.17
459.434	4.18
459.787	4.19
460.141	4.2
460.494	4.21
460.847	4.22
461.2	4.22
461.553	4.23
461.906	4.23
462.259	4.24
462.611	4.24
462.964	4.25
463.317	4.26
463.67	4.26
464.022	4.27
464.375	4.28
464.728	4.28
465.08	4.29
465.433	4.29
465.785	4.29
466.138	4.28
466.49	4.26
466.843	4.25
467.195	4.23
467.547	4.21
467.899	4.19
468.252	4.16
468.604	4.14
468.956	4.12
469.308	4.11
469.66	4.11
470.012	4.1
470.364	4.11
470.716	4.11
471.068	4.13
471.42	4.15
471.772	4.18
472.123	4.19
472.475	4.21
472.827	4.22
473.178	4.23
473.53	4.24
473.882	4.26
474.233	4.28
474.585	4.32
474.936	4.39
475.288	4.48
475.639	4.6
475.99	4.74
476.342	4.89
476.693	5.06
477.044	5.23
477.395	5.4
477.746	5.58
478.097	5.75
478.448	5.94
478.8	6.11
479.15	6.28
479.501	6.43
479.852	6.57
480.203	6.7
480.554	6.82
480.905	6.94
481.255	7.06
481.606	7.17
481.957	7.27
482.307	7.37
482.658	7.46
483.009	7.55
483.359	7.63
483.709	7.72
484.06	7.8
484.41	7.88
484.761	7.95
485.111	8.03
485.461	8.1
485.811	8.16
486.162	8.22
486.512	8.27
486.862	8.31
487.212	8.34
487.562	8.36
487.912	8.37
488.262	8.38
488.612	8.37
488.961	8.35
489.311	8.31
489.661	8.24
490.011	8.14
490.36	8.04
490.71	7.91
491.06	7.78
491.409	7.64
491.759	7.48
492.108	7.33
492.458	7.17
492.807	7
493.157	6.84
493.506	6.68
493.855	6.53
494.204	6.39
494.554	6.25
494.903	6.13
495.252	6.01
495.601	5.9
495.95	5.79
496.299	5.69
496.648	5.59
496.997	5.5
497.346	5.42
497.695	5.34
498.043	5.27
498.392	5.19
498.741	5.12
499.09	5.05
499.438	4.99
499.787	4.94
500.135	4.89
500.484	4.84
500.832	4.81
501.181	4.79
501.529	4.79
501.878	4.79
502.226	4.81
502.574	4.83
502.923	4.85
503.271	4.88
503.619	4.9
503.967	4.93
504.315	4.96
504.663	4.99
505.011	5.02
505.359	5.04
505.707	5.07
506.055	5.11
506.403	5.14
506.751	5.19
507.098	5.23
507.446	5.27
507.794	5.32
508.141	5.37
508.489	5.43
508.837	5.49
509.184	5.55
509.531	5.62
509.879	5.68
510.226	5.76
510.574	5.84
510.921	5.93
511.268	6.01
511.616	6.1
511.963	6.19
512.31	6.29
512.657	6.38
513.004	6.48
513.351	6.56
513.698	6.65
514.045	6.72
514.392	6.8
514.739	6.86
515.086	6.93
515.432	7
515.779	7.06
516.126	7.13
516.473	7.2
516.819	7.28
517.166	7.37
517.512	7.48
517.859	7.59
518.205	7.71
518.552	7.85
518.898	8
519.245	8.17
519.591	8.39
519.937	8.64
520.283	8.94
520.629	9.26
520.976	9.61
521.322	9.97
521.668	10.34
522.014	10.71
522.36	11.09
522.706	11.46
523.052	11.82
523.398	12.16
523.743	12.48
524.089	12.76
524.435	13.03
524.781	13.29
525.126	13.55
525.472	13.8
525.817	14.05
526.163	14.29
526.509	14.53
526.854	14.77
527.199	15.01
527.545	15.24
527.89	15.49
528.235	15.74
528.581	15.97
528.926	16.19
529.271	16.41
529.616	16.61
529.961	16.81
530.306	17
530.651	17.18
530.996	17.35
531.341	17.5
531.686	17.64
532.031	17.77
532.376	17.92
532.721	18.08
533.065	18.26
533.41	18.45
533.755	18.63
534.099	18.79
534.444	18.93
534.788	19.06
535.133	19.17
535.477	19.28
535.822	19.37
536.166	19.44
536.51	19.48
536.855	19.49
537.199	19.48
537.543	19.47
537.887	19.48
538.231	19.51
538.576	19.54
538.92	19.57
539.264	19.59
539.608	19.61
539.951	19.61
540.295	19.61
540.639	19.6
540.983	19.58
541.327	19.55
541.671	19.51
542.014	19.49
542.358	19.48
542.701	19.51
543.045	19.58
543.389	19.67
543.732	19.78
544.075	19.89
544.419	20.02
544.762	20.15
545.105	20.3
545.449	20.45
545.792	20.62
546.135	20.78
546.478	20.92
546.821	21.04
547.165	21.13
547.508	21.18
547.851	21.21
548.194	21.22
548.536	21.2
548.879	21.16
549.222	21.12
549.565	21.07
549.908	21.03
550.25	21
550.593	21.02
550.936	21.07
551.278	21.16
551.621	21.27
551.963	21.4
552.306	21.54
552.648	21.7
552.991	21.89
553.333	22.09
553.675	22.31
554.017	22.55
554.36	22.8
554.702	23.1
555.044	23.41
555.386	23.75
555.728	24.12
556.07	24.47
556.412	24.81
556.754	25.1
557.096	25.36
557.438	25.63
557.78	25.9
558.121	26.17
558.463	26.44
558.805	26.71
559.147	26.98
559.488	27.25
559.83	27.52
560.171	27.79
560.513	28.05
560.854	28.31
561.196	28.57
561.537	28.83
561.878	29.08
562.22	29.33
562.561	29.57
562.902	29.81
563.243	30.05
563.584	30.29
563.925	30.52
564.266	30.76
564.607	31
564.948	31.24
565.289	31.47
565.63	31.69
565.971	31.92
566.312	32.14
566.653	32.37
566.993	32.59
567.334	32.81
567.675	33.02
568.015	33.23
568.356	33.43
568.696	33.63
569.037	33.82
569.377	34.02
569.718	34.2
570.058	34.38
570.398	34.54
570.739	34.71
571.079	34.86
571.419	35.01
571.759	35.17
572.099	35.32
572.439	35.47
572.779	35.62
573.119	35.77
573.459	35.92
573.799	36.06
574.139	36.2
574.479	36.34
574.819	36.49
575.158	36.62
575.498	36.76
575.838	36.9
576.177	37.04
576.517	37.17
576.856	37.31
577.196	37.45
577.535	37.57
577.875	37.7
578.214	37.83
578.553	37.96
578.893	38.09
579.232	38.21
579.571	38.34
579.91	38.47
580.25	38.59
580.589	38.72
580.928	38.83
581.267	38.95
581.606	39.07
581.945	39.19
582.283	39.3
582.622	39.43
582.961	39.55
583.3	39.66
583.639	39.79
583.977	39.91
584.316	40.04
584.654	40.15
584.993	40.28
585.332	40.41
585.67	40.54
586.008	40.65
586.347	40.76
586.685	40.87
587.024	40.98
587.362	41.09
587.7	41.21
588.038	41.32
588.376	41.44
588.715	41.56
589.053	41.67
589.391	41.78
589.729	41.89
590.067	41.99
590.404	42.1
590.742	42.2
591.08	42.3
591.418	42.41
591.756	42.51
592.093	42.59
592.431	42.68
592.769	42.76
593.106	42.84
593.444	42.92
593.781	42.99
594.119	43.07
594.456	43.14
594.793	43.22
595.131	43.3
595.468	43.39
595.805	43.47
596.143	43.55
596.48	43.64
596.817	43.73
597.154	43.81
597.491	43.9
597.828	43.97
598.165	44.06
598.502	44.14
598.839	44.21
599.176	44.27
599.512	44.33
599.849	44.4
600.186	44.45
600.523	44.51
600.859	44.58
601.196	44.63
601.532	44.68
601.869	44.74
602.205	44.8
602.542	44.85
602.878	44.91
603.215	44.96
603.551	45.02
603.887	45.07
604.223	45.12
604.56	45.17
604.896	45.21
605.232	45.25
605.568	45.3
605.904	45.34
606.24	45.38
606.576	45.42
606.912	45.46
607.248	45.5
607.583	45.55
607.919	45.59
608.255	45.63
608.591	45.67
608.926	45.71
609.262	45.73
609.597	45.77
609.933	45.81
610.268	45.84
610.604	45.86
610.939	45.9
611.275	45.93
611.61	45.97
611.945	45.98
612.281	46.01
612.616	46.04
612.951	46.07
613.286	46.11
613.621	46.14
613.956	46.18
614.291	46.2
614.626	46.23
614.961	46.27
615.296	46.3
615.631	46.35
615.966	46.38
616.3	46.41
616.635	46.43
616.97	46.47
617.304	46.5
617.639	46.52
617.973	46.56
618.308	46.58
618.642	46.62
618.977	46.65
619.311	46.69
619.646	46.73
619.98	46.76
620.314	46.79
620.648	46.83
620.983	46.88
621.317	46.92
621.651	46.96
621.985	46.98
622.319	47.01
622.653	47.02
622.987	47.06
623.321	47.08
623.655	47.1
623.988	47.13
624.322	47.16
624.656	47.19
624.99	47.22
625.323	47.24
625.657	47.27
625.99	47.29
626.324	47.31
626.657	47.33
626.991	47.36
627.324	47.39
627.658	47.4
627.991	47.42
628.324	47.44
628.657	47.46
628.991	47.49
629.324	47.51
629.657	47.54
629.99	47.56
630.323	47.59
630.656	47.6
630.989	47.62
631.322	47.64
631.655	47.66
631.987	47.69
632.32	47.71
632.653	47.72
632.986	47.74
633.318	47.76
633.651	47.79
633.984	47.8
634.316	47.82
634.649	47.83
634.981	47.85
635.313	47.87
635.646	47.88
635.978	47.9
636.31	47.94
636.643	47.95
636.975	47.98
637.307	48
637.639	48.03
637.971	48.06
638.303	48.06
638.635	48.08
638.967	48.11
639.299	48.12
639.631	48.15
639.963	48.18
640.295	48.2
640.626	48.22
640.958	48.25
641.29	48.28
641.621	48.31
641.953	48.33
642.285	48.34
642.616	48.36
642.948	48.36
643.279	48.36
643.61	48.38
643.942	48.39
644.273	48.42
644.604	48.44
644.936	48.46
645.267	48.48
645.598	48.5
645.929	48.52
646.26	48.55
646.591	48.55
646.922	48.57
647.253	48.59
647.584	48.62
647.915	48.64
648.245	48.65
648.576	48.66
648.907	48.67
649.238	48.7
649.568	48.72
649.899	48.73
650.229	48.76
650.56	48.77
650.89	48.79
651.221	48.79
651.551	48.8
651.882	48.83
652.212	48.84
652.542	48.86
652.872	48.87
653.203	48.89
653.533	48.9
653.863	48.89
654.193	48.92
654.523	48.92
654.853	48.94
655.183	48.97
655.513	48.97
655.843	49
656.172	49
656.502	49.02
656.832	49.05
657.162	49.05
657.491	49.06
657.821	49.07
658.15	49.09
658.48	49.11
658.809	49.12
659.139	49.13
659.468	49.15
659.798	49.17
660.127	49.2
660.456	49.2
660.785	49.21
661.115	49.23
661.444	49.24
661.773	49.27
662.102	49.28
662.431	49.3
662.76	49.32
663.089	49.33
663.418	49.35
663.747	49.36
664.076	49.37
664.404	49.38
664.733	49.41
665.062	49.42
665.39	49.44
665.719	49.46
666.048	49.48
666.376	49.51
666.705	49.55
667.033	49.56
667.362	49.59
667.69	49.59
668.018	49.61
668.347	49.61
668.675	49.62
669.003	49.65
669.331	49.67
669.659	49.69
669.987	49.7
670.315	49.71
670.643	49.74
670.971	49.76
671.299	49.78
671.627	49.78
671.955	49.78
672.283	49.8
672.61	49.81
672.938	49.81
673.266	49.83
673.593	49.82
673.921	49.83
674.249	49.86
674.576	49.86
674.904	49.86
675.231	49.87
675.558	49.87
675.886	49.88
676.213	49.87
676.54	49.88
676.867	49.88
677.195	49.88
677.522	49.89
677.849	49.89
678.176	49.89
678.503	49.91
678.83	49.91
679.157	49.9
679.484	49.9
679.81	49.9
680.137	49.91
680.464	49.92
680.791	49.93
681.117	49.94
681.444	49.94
681.771	49.95
682.097	49.96
682.424	49.95
682.75	49.95
683.077	49.96
683.403	49.98
683.729	49.99
684.056	49.99
684.382	50
684.708	50.02
685.034	50.05
685.36	50.06
685.686	50.07
686.012	50.09
686.339	50.11
686.664	50.1
686.99	50.14
687.316	50.15
687.642	50.13
687.968	50.15
688.294	50.19
688.619	50.19
688.945	50.22
689.271	50.23
689.596	50.25
689.922	50.27
690.247	50.27
690.573	50.29
690.898	50.32
691.224	50.35
691.549	50.36
691.874	50.36
692.2	50.38
692.525	50.4
692.85	50.42
693.175	50.44
693.5	50.44
693.825	50.45
694.15	50.45
694.475	50.47
694.8	50.49
695.125	50.5
695.45	50.52
695.775	50.54
696.099	50.56
696.424	50.56
696.749	50.57
697.073	50.6
697.398	50.61
697.723	50.63
698.047	50.65
698.372	50.64
698.696	50.65
699.02	50.67
699.345	50.67
699.669	50.67
699.993	50.7
700.318	50.7
700.642	50.72
700.966	50.74
701.29	50.73
701.614	50.74
701.938	50.74
702.262	50.77
702.586	50.77
702.91	50.79
703.234	50.79
703.557	50.82
703.881	50.83
704.205	50.83
704.529	50.84
704.852	50.86
705.176	50.89
705.499	50.9
705.823	50.91
706.146	50.91
706.47	50.92
706.793	50.96
707.117	50.98
707.44	51.02
707.763	51.04
708.086	51.05
708.409	51.05
708.733	51.07
709.056	51.08
709.379	51.09
709.702	51.1
710.025	51.11
710.348	51.12
710.671	51.12
710.993	51.12
711.316	51.1
711.639	51.12
711.962	51.13
712.284	51.12
712.607	51.15
712.93	51.16
713.252	51.15
713.575	51.17
713.897	51.19
714.22	51.18
714.542	51.19
714.864	51.18
715.187	51.18
715.509	51.17
715.831	51.19
716.153	51.17
716.475	51.19
716.798	51.19
717.12	51.17
717.442	51.2
717.764	51.2
718.085	51.19
718.407	51.18
718.729	51.18
719.051	51.2
719.373	51.22
719.695	51.22
720.016	51.21
720.338	51.21
720.659	51.19
720.981	51.19
721.302	51.2
721.624	51.23
721.945	51.22
722.267	51.25
722.588	51.24
722.909	51.26
723.231	51.25
723.552	51.25
723.873	51.26
724.194	51.29
724.515	51.31
724.836	51.3
725.157	51.32
725.478	51.36
725.799	51.35
726.12	51.37
726.441	51.37
726.762	51.36
727.083	51.36
727.403	51.38
727.724	51.39
728.045	51.41
728.365	51.42
728.686	51.42
729.006	51.42
729.327	51.45
729.647	51.45
729.967	51.47
730.288	51.51
730.608	51.5
730.928	51.53
731.249	51.58
731.569	51.62
731.889	51.63
732.209	51.63
732.529	51.61
732.849	51.64
733.169	51.63
733.489	51.66
733.809	51.67
734.129	51.67
734.448	51.69
734.768	51.7
735.088	51.71
735.408	51.71
735.727	51.73
736.047	51.73
736.366	51.73
736.686	51.75
737.005	51.75
737.325	51.74
737.644	51.76
737.963	51.74
738.283	51.7
738.602	51.69
738.921	51.71
739.24	51.7
739.56	51.75
739.879	51.75
740.198	51.75
740.517	51.75
740.836	51.78
741.155	51.78
741.473	51.79
741.792	51.82
742.111	51.82
742.43	51.79
742.748	51.82
743.067	51.8
743.386	51.81
743.704	51.81
744.023	51.79
744.341	51.76
744.66	51.74
744.978	51.75
745.297	51.79
745.615	51.83
745.933	51.84
746.252	51.86
746.57	51.86
746.888	51.85
747.206	51.86
747.524	51.87
747.842	51.88
748.16	51.91
748.478	51.92
748.796	51.91
749.114	51.93
749.432	51.96
749.749	51.95
750.067	51.98
750.385	51.96
750.703	51.93
751.02	51.96
751.338	51.99
751.655	52.01
751.973	51.96
752.29	51.98
752.608	51.95
752.925	51.96
753.242	51.97
753.56	51.96
753.877	51.93
754.194	51.94
754.511	51.94
754.828	51.94
755.145	51.95
755.462	51.98
755.779	51.98
756.096	52.01
756.413	52.01
756.73	52.01
757.047	52.01
757.364	52.04
757.68	52.04
757.997	52.04
758.314	52.05
758.63	52.03
758.947	52.02
759.264	52.05
759.58	52.04
759.896	52.04
760.213	52.06
760.529	52.07
760.846	52.09
761.162	52.07
761.478	52.07
761.794	52.1
762.11	52.11
762.426	52.12
762.743	52.12
763.059	52.11
763.375	52.1
763.69	52.13
764.006	52.13
764.322	52.13
764.638	52.13
764.954	52.15
765.27	52.17
765.585	52.16
765.901	52.18
766.216	52.19
766.532	52.2
766.848	52.23
767.163	52.24
767.478	52.24
767.794	52.24
768.109	52.26
768.424	52.27
768.74	52.28
769.055	52.25
769.37	52.24
769.685	52.25
770	52.28
770.315	52.27
770.63	52.27
770.945	52.26
771.26	52.23
771.575	52.26
771.89	52.26
772.205	52.25
772.52	52.24
772.834	52.28
773.149	52.28
773.464	52.26
773.778	52.26
774.093	52.26
774.407	52.22
774.722	52.21
775.036	52.2
775.351	52.19
775.665	52.21
775.979	52.2
776.293	52.25
776.608	52.26
776.922	52.27
777.236	52.26
777.55	52.29
777.864	52.28
778.178	52.3
778.492	52.33
778.806	52.31
779.12	52.29
779.434	52.27
779.747	52.25
780.061	52.23
780.375	52.22
780.689	52.21
781.002	52.22
781.316	52.16
781.629	52.15
781.943	52.15
782.256	52.2
782.57	52.18
782.883	52.16
783.196	52.17
783.51	52.2
783.823	52.21
784.136	52.2
784.449	52.15
784.762	52.15
785.075	52.13
785.388	52.13
785.701	52.09
786.014	52.11
786.327	52.13
786.64	52.09
786.953	52.14
787.266	52.22
787.578	52.23
787.891	52.25
788.204	52.29
788.516	52.28
788.829	52.29
789.141	52.25
789.454	52.23
789.766	52.22
790.079	52.27
790.391	52.24
790.703	52.27
791.016	52.2
791.328	52.19
791.64	52.22
791.952	52.25
792.264	52.22
792.576	52.23
792.888	52.23
793.2	52.28
793.512	52.31
793.824	52.37
794.136	52.39
794.448	52.43
794.76	52.48
795.071	52.5
795.383	52.52
795.695	52.49
796.006	52.47
796.318	52.42
796.629	52.39
796.941	52.41
797.252	52.42
797.564	52.41
797.875	52.39
798.186	52.4
798.497	52.44
798.809	52.46
799.12	52.47
799.431	52.49
799.742	52.47
800.053	52.43
800.364	52.41
800.675	52.37
800.986	52.36
801.297	52.36
801.608	52.38
801.918	52.39
802.229	52.41
802.54	52.47
802.851	52.48
803.161	52.45
803.472	52.45
803.782	52.51
804.093	52.47
804.403	52.47
804.714	52.43
805.024	52.48
805.334	52.48
805.645	52.5
805.955	52.5
806.265	52.45
806.575	52.38
806.885	52.39
807.195	52.4
807.505	52.36
807.815	52.39
808.125	52.42
808.435	52.46
808.745	52.47
809.055	52.53
809.365	52.56
809.674	52.54
809.984	52.56
810.294	52.59
810.603	52.64
810.913	52.63
811.222	52.66
811.532	52.57
811.841	52.48
812.151	52.52
812.46	52.5
812.769	52.5
813.079	52.54
813.388	52.51
813.697	52.44
814.006	52.44
814.315	52.41
814.624	52.45
814.933	52.42
815.242	52.44
815.551	52.31
815.86	52.33
816.169	52.35
816.478	52.36
816.786	52.45
817.095	52.45
817.404	52.48
817.712	52.49
818.021	52.49
818.33	52.48
818.638	52.47
818.947	52.52
819.255	52.5
819.563	52.55
819.872	52.55
820.18	52.6
820.488	52.57
820.796	52.55
821.105	52.55
821.413	52.57
821.721	52.58
822.029	52.59
822.337	52.61
822.645	52.65
822.953	52.63
823.26	52.64
823.568	52.67
823.876	52.67
824.184	52.69
824.491	52.71
824.799	52.69
825.107	52.69
825.414	52.68
825.722	52.66
826.029	52.7
826.337	52.71
826.644	52.72
826.951	52.71
827.259	52.71
827.566	52.7
827.873	52.67
828.18	52.71
828.488	52.71
828.795	52.7
829.102	52.68
829.409	52.67
829.716	52.67
830.023	52.67
830.329	52.66
830.636	52.66
830.943	52.67
831.25	52.7
831.557	52.69
831.863	52.72
832.17	52.66
832.476	52.65
832.783	52.59
833.089	52.59
833.396	52.59
833.702	52.6
834.009	52.6
834.315	52.6
834.621	52.6
834.928	52.57
835.234	52.48
835.54	52.48
835.846	52.43
836.152	52.41
836.458	52.41
836.764	52.4
837.07	52.41
837.376	52.43
837.682	52.42
837.988	52.44
838.293	52.48
838.599	52.41
838.905	52.4
839.211	52.38
839.516	52.4
839.822	52.38
840.127	52.4
840.433	52.47
840.738	52.49
841.044	52.53
841.349	52.55
841.654	52.55
841.959	52.55
842.265	52.61
842.57	52.59
842.875	52.59
843.18	52.54
843.485	52.47
843.79	52.41
844.095	52.36
844.4	52.35
844.705	52.45
845.01	52.33
845.315	52.36
845.619	52.34
845.924	52.34
846.229	52.22
846.533	52.29
846.838	52.29
847.142	52.35
847.447	52.47
847.751	52.69
848.056	52.75
848.36	52.88
848.664	52.72
848.969	52.57
849.273	52.51
849.577	52.46
849.881	52.49
850.185	52.41
850.489	52.3
850.794	52.25
851.097	52.33
851.401	52.31
851.705	52.36
852.009	52.55
852.313	52.55
852.617	52.67
852.92	52.59
853.224	52.4
853.528	52.27
853.831	52.3
854.135	52.4
854.438	52.4
854.742	52.4
855.045	52.41
855.349	52.61
855.652	52.75
855.955	52.93
856.259	53
856.562	53.07
856.865	53.08
857.168	52.95
857.471	53.19
857.774	53.22
858.077	53.31
858.38	53.43
858.683	53.68
858.986	53.55
859.289	53.58
859.592	53.55
859.894	53.49
860.197	53.4
860.5	53.47
860.802	53.36
861.105	53.5
861.407	53.48
861.71	53.44
862.012	53.4
862.315	53.38
862.617	53.6
862.919	53.84
863.222	53.93
863.524	53.82
863.826	53.96
864.128	53.89
864.43	53.84
864.732	53.93
865.034	53.88
865.336	53.91
865.638	53.98
865.94	54.11
866.242	54.13
866.544	54.16
866.846	54.19
867.147	54.08
867.449	54.08
867.751	54.08
868.052	54.19
868.354	54.14
868.655	54.1
868.957	54.19
869.258	54.11
869.56	54.29
869.861	54.24
870.162	54.3
870.463	54.28
870.765	54.23
871.066	54.23
871.367	54.39
871.668	54.42
871.969	54.4
872.27	54.27
872.571	54.16
872.872	54.1
873.173	54.23
873.473	54.22
873.774	54.4
874.075	54.5
874.376	54.68
874.676	54.64
874.977	54.59
875.277	54.43
875.578	54.4
875.878	54.5
876.179	54.38
876.479	54.51
876.78	54.52
877.08	54.42
877.38	54.4
877.68	54.47
877.981	54.58
878.281	54.56
878.581	54.55
