Data from UWBM104549_Reflection_00012.txt Node
Date: Sun May 02 12:25:49 EDT 2021
User: vgr7
Spectrometer: USB2G7710
Scans to average: 10
Trigger mode: 4
Integration Time (sec): 1.000000E-1
Electric dark correction enabled: true
Boxcar width: 10
XAxis mode: Wavelengths
Number of Pixels in Spectrum: 2048
>>>>>Begin Spectral Data<<<<<
177.721	-480
178.105	-180
178.488	-100.88
178.871	-263.27
179.254	87.1
179.636	114.61
180.019	-300
180.402	88.89
180.785	80.77
181.168	34.36
181.55	49.39
181.933	42.39
182.316	18.95
182.698	52.33
183.081	90.7
183.463	14.52
183.846	86.58
184.228	34.29
184.611	17.28
184.993	12.97
185.376	28.63
185.758	34.98
186.14	35.44
186.522	47.28
186.904	43.64
187.287	42.38
187.669	45.59
188.051	40.72
188.433	33.72
188.815	30.28
189.197	32.58
189.579	29.43
189.961	32.96
190.342	30.32
190.724	33.54
191.106	34.29
191.488	39.15
191.869	37.07
192.251	41.11
192.633	40.28
193.014	44.39
193.396	37.67
193.777	36.8
194.159	37.77
194.54	28.64
194.922	29.41
195.303	29.08
195.684	27.32
196.065	29.9
196.447	36.48
196.828	34.73
197.209	33.85
197.59	34.16
197.971	32.78
198.352	38.41
198.733	41.29
199.114	35.23
199.495	28.68
199.876	26.37
200.257	26.72
200.638	26.86
201.018	27.69
201.399	30.65
201.78	28.32
202.16	29.05
202.541	31.27
202.922	28.44
203.302	24.44
203.683	20.63
204.063	16.99
204.444	13.17
204.824	15.8
205.204	19.71
205.585	20.27
205.965	17.84
206.345	15.37
206.725	5.65
207.106	8.69
207.486	10.1
207.866	13.66
208.246	14.34
208.626	14.12
209.006	14.4
209.386	14.85
209.766	15.92
210.145	14.99
210.525	9.66
210.905	12.86
211.285	15.86
211.664	18.14
212.044	20.75
212.424	25.22
212.803	23.63
213.183	23.91
213.562	22.93
213.942	23.03
214.321	22.62
214.701	24.96
215.08	27.52
215.459	29.2
215.838	27.98
216.218	25.35
216.597	27.73
216.976	25.5
217.355	27.25
217.734	26.36
218.113	26.17
218.492	26.32
218.871	23.26
219.25	23.15
219.629	22.56
220.008	21.43
220.387	14.27
220.766	12.89
221.144	8.83
221.523	11.45
221.902	11.88
222.28	11.7
222.659	12.84
223.037	12.22
223.416	12.05
223.794	10.51
224.173	8.94
224.551	8.4
224.929	6.2
225.308	6.05
225.686	5.83
226.064	5
226.442	5.64
226.821	6.17
227.199	6.14
227.577	5.9
227.955	5.86
228.333	7.5
228.711	8.26
229.089	9.57
229.467	8.81
229.845	8.89
230.222	9.95
230.6	10.67
230.978	10.85
231.356	10.07
231.733	9.96
232.111	11.04
232.488	9.87
232.866	10.22
233.243	10.16
233.621	10.58
233.998	10.61
234.376	11.03
234.753	11.61
235.13	10.83
235.508	11.33
235.885	11.33
236.262	10.99
236.639	10.95
237.016	10.18
237.393	9.76
237.77	9.2
238.147	8.4
238.524	7.82
238.901	7.59
239.278	7.28
239.655	7.18
240.032	7.06
240.409	7.19
240.785	6.81
241.162	6.59
241.539	6.38
241.915	6.41
242.292	6.32
242.668	6.14
243.045	6.13
243.421	5.94
243.798	5.81
244.174	5.73
244.551	5.58
244.927	5.51
245.303	5.44
245.679	5.48
246.056	5.42
246.432	5.46
246.808	5.31
247.184	5.34
247.56	5.33
247.936	5.32
248.312	5.33
248.688	5.45
249.064	5.48
249.44	5.5
249.815	5.46
250.191	5.42
250.567	5.38
250.943	5.48
251.318	5.45
251.694	5.42
252.069	5.34
252.445	5.34
252.82	5.36
253.196	5.43
253.571	5.42
253.947	5.55
254.322	5.55
254.697	5.65
255.073	5.57
255.448	5.48
255.823	5.37
256.198	5.28
256.573	5.17
256.948	5.06
257.323	5.03
257.698	5.01
258.073	4.97
258.448	5
258.823	4.93
259.198	4.96
259.573	4.99
259.948	5.02
260.322	5.02
260.697	4.97
261.072	4.93
261.446	4.89
261.821	4.9
262.195	4.81
262.57	4.79
262.944	4.82
263.319	4.84
263.693	4.83
264.067	4.82
264.442	4.84
264.816	4.86
265.19	4.82
265.564	4.84
265.938	4.83
266.313	4.81
266.687	4.76
267.061	4.71
267.435	4.67
267.809	4.71
268.183	4.71
268.556	4.74
268.93	4.79
269.304	4.77
269.678	4.65
270.051	4.72
270.425	4.71
270.799	4.72
271.172	4.69
271.546	4.71
271.919	4.7
272.293	4.66
272.666	4.66
273.04	4.68
273.413	4.61
273.787	4.59
274.16	4.58
274.533	4.61
274.906	4.6
275.279	4.66
275.653	4.61
276.026	4.55
276.399	4.52
276.772	4.51
277.145	4.56
277.518	4.64
277.891	4.64
278.263	4.65
278.636	4.63
279.009	4.7
279.382	4.67
279.755	4.65
280.127	4.69
280.5	4.68
280.872	4.62
281.245	4.72
281.617	4.73
281.99	4.75
282.362	4.73
282.735	4.75
283.107	4.72
283.479	4.76
283.852	4.78
284.224	4.81
284.596	4.8
284.968	4.79
285.34	4.76
285.713	4.8
286.085	4.78
286.457	4.79
286.829	4.75
287.201	4.76
287.572	4.81
287.944	4.83
288.316	4.87
288.688	4.94
289.06	4.9
289.431	4.92
289.803	4.89
290.175	4.92
290.546	4.93
290.918	4.95
291.289	4.97
291.661	5
292.032	5.01
292.403	5.07
292.775	5.1
293.146	5.14
293.517	5.15
293.889	5.21
294.26	5.22
294.631	5.26
295.002	5.32
295.373	5.37
295.744	5.34
296.115	5.35
296.486	5.35
296.857	5.39
297.228	5.44
297.599	5.51
297.97	5.53
298.34	5.57
298.711	5.61
299.082	5.63
299.452	5.65
299.823	5.67
300.194	5.68
300.564	5.7
300.935	5.72
301.305	5.75
301.676	5.74
302.046	5.75
302.416	5.82
302.787	5.84
303.157	5.91
303.527	5.99
303.897	6.03
304.267	6.12
304.637	6.16
305.008	6.2
305.378	6.22
305.748	6.27
306.117	6.31
306.487	6.33
306.857	6.4
307.227	6.48
307.597	6.58
307.967	6.61
308.336	6.67
308.706	6.72
309.076	6.76
309.445	6.82
309.815	6.87
310.184	6.89
310.554	6.94
310.923	6.9
311.293	6.96
311.662	7.01
312.031	7.03
312.401	7.09
312.77	7.11
313.139	7.18
313.508	7.22
313.877	7.3
314.246	7.33
314.616	7.4
314.985	7.44
315.353	7.5
315.722	7.57
316.091	7.61
316.46	7.68
316.829	7.82
317.198	7.89
317.567	7.97
317.935	8.02
318.304	8.07
318.672	8.17
319.041	8.19
319.41	8.27
319.778	8.35
320.147	8.38
320.515	8.48
320.883	8.49
321.252	8.58
321.62	8.55
321.988	8.61
322.357	8.62
322.725	8.65
323.093	8.67
323.461	8.74
323.829	8.79
324.197	8.78
324.565	8.8
324.933	8.86
325.301	8.89
325.669	8.94
326.037	8.99
326.405	9.03
326.772	9.07
327.14	9.07
327.508	9.09
327.875	9.14
328.243	9.2
328.61	9.24
328.978	9.26
329.346	9.32
329.713	9.34
330.08	9.39
330.448	9.43
330.815	9.48
331.182	9.5
331.55	9.56
331.917	9.63
332.284	9.64
332.651	9.65
333.018	9.74
333.385	9.78
333.752	9.85
334.119	9.87
334.486	9.91
334.853	9.94
335.22	9.97
335.587	9.99
335.954	10.02
336.32	10.06
336.687	10.11
337.054	10.17
337.42	10.22
337.787	10.24
338.153	10.28
338.52	10.31
338.886	10.36
339.253	10.41
339.619	10.45
339.986	10.51
340.352	10.54
340.718	10.57
341.084	10.57
341.451	10.59
341.817	10.62
342.183	10.67
342.549	10.74
342.915	10.79
343.281	10.84
343.647	10.87
344.013	10.9
344.379	10.9
344.745	10.94
345.11	10.97
345.476	11
345.842	11.06
346.208	11.07
346.573	11.09
346.939	11.11
347.304	11.11
347.67	11.08
348.035	11.1
348.401	11.09
348.766	11.14
349.132	11.14
349.497	11.14
349.862	11.14
350.228	11.12
350.593	11.11
350.958	11.1
351.323	11.1
351.688	11.11
352.053	11.12
352.418	11.13
352.783	11.13
353.148	11.15
353.513	11.13
353.878	11.17
354.243	11.16
354.608	11.17
354.972	11.19
355.337	11.2
355.702	11.18
356.066	11.21
356.431	11.19
356.795	11.2
357.16	11.21
357.524	11.2
357.889	11.21
358.253	11.22
358.618	11.22
358.982	11.22
359.346	11.21
359.71	11.18
360.075	11.17
360.439	11.18
360.803	11.16
361.167	11.13
361.531	11.09
361.895	11.09
362.259	11.06
362.623	11.03
362.987	11.03
363.351	11.04
363.714	11.03
364.078	11.02
364.442	10.99
364.806	10.96
365.169	10.97
365.533	10.94
365.896	10.91
366.26	10.88
366.623	10.83
366.987	10.79
367.35	10.78
367.714	10.76
368.077	10.7
368.44	10.67
368.803	10.66
369.167	10.63
369.53	10.58
369.893	10.54
370.256	10.51
370.619	10.48
370.982	10.42
371.345	10.34
371.708	10.28
372.071	10.23
372.434	10.19
372.797	10.12
373.159	10.05
373.522	10.01
373.885	9.95
374.247	9.89
374.61	9.84
374.973	9.75
375.335	9.68
375.698	9.61
376.06	9.55
376.423	9.5
376.785	9.44
377.147	9.37
377.51	9.31
377.872	9.24
378.234	9.15
378.596	9.1
378.958	9.06
379.321	9
379.683	8.94
380.045	8.88
380.407	8.83
380.769	8.78
381.13	8.71
381.492	8.64
381.854	8.58
382.216	8.54
382.578	8.5
382.939	8.45
383.301	8.4
383.663	8.35
384.024	8.3
384.386	8.25
384.747	8.21
385.109	8.17
385.47	8.13
385.832	8.09
386.193	8.05
386.554	7.99
386.916	7.96
387.277	7.91
387.638	7.87
387.999	7.82
388.36	7.77
388.721	7.74
389.082	7.72
389.443	7.68
389.804	7.63
390.165	7.59
390.526	7.56
390.887	7.53
391.248	7.5
391.609	7.46
391.969	7.42
392.33	7.39
392.691	7.34
393.051	7.3
393.412	7.27
393.772	7.22
394.133	7.19
394.493	7.15
394.854	7.12
395.214	7.07
395.574	7.02
395.935	6.98
396.295	6.93
396.655	6.88
397.015	6.82
397.376	6.76
397.736	6.72
398.096	6.65
398.456	6.6
398.816	6.55
399.176	6.48
399.535	6.44
399.895	6.39
400.255	6.34
400.615	6.3
400.975	6.25
401.334	6.2
401.694	6.17
402.054	6.13
402.413	6.09
402.773	6.06
403.132	6.03
403.492	6
403.851	5.96
404.211	5.94
404.57	5.93
404.929	5.9
405.288	5.87
405.648	5.85
406.007	5.83
406.366	5.82
406.725	5.81
407.084	5.78
407.443	5.76
407.802	5.75
408.161	5.73
408.52	5.71
408.879	5.71
409.238	5.69
409.596	5.68
409.955	5.66
410.314	5.64
410.673	5.61
411.031	5.6
411.39	5.59
411.748	5.59
412.107	5.57
412.465	5.56
412.824	5.56
413.182	5.55
413.54	5.53
413.899	5.51
414.257	5.49
414.615	5.48
414.974	5.46
415.332	5.44
415.69	5.43
416.048	5.42
416.406	5.4
416.764	5.38
417.122	5.37
417.48	5.36
417.838	5.34
418.195	5.34
418.553	5.33
418.911	5.32
419.269	5.31
419.626	5.3
419.984	5.29
420.342	5.28
420.699	5.26
421.057	5.26
421.414	5.24
421.772	5.24
422.129	5.23
422.486	5.21
422.844	5.19
423.201	5.18
423.558	5.17
423.915	5.15
424.273	5.13
424.63	5.11
424.987	5.09
425.344	5.07
425.701	5.05
426.058	5.03
426.415	5.01
426.772	4.98
427.128	4.96
427.485	4.94
427.842	4.93
428.199	4.91
428.555	4.89
428.912	4.86
429.269	4.85
429.625	4.83
429.982	4.83
430.338	4.82
430.695	4.82
431.051	4.81
431.407	4.81
431.764	4.81
432.12	4.81
432.476	4.81
432.832	4.81
433.189	4.81
433.545	4.81
433.901	4.81
434.257	4.82
434.613	4.82
434.969	4.83
435.325	4.83
435.681	4.84
436.036	4.84
436.392	4.86
436.748	4.86
437.104	4.87
437.459	4.87
437.815	4.87
438.171	4.88
438.526	4.89
438.882	4.89
439.237	4.9
439.593	4.91
439.948	4.91
440.304	4.91
440.659	4.92
441.014	4.92
441.369	4.93
441.725	4.93
442.08	4.93
442.435	4.93
442.79	4.93
443.145	4.93
443.5	4.93
443.855	4.92
444.21	4.92
444.565	4.91
444.92	4.91
445.275	4.91
445.629	4.9
445.984	4.9
446.339	4.89
446.693	4.88
447.048	4.87
447.403	4.87
447.757	4.86
448.112	4.85
448.466	4.84
448.82	4.84
449.175	4.83
449.529	4.81
449.883	4.81
450.238	4.78
450.592	4.77
450.946	4.76
451.3	4.75
451.654	4.74
452.008	4.73
452.362	4.71
452.716	4.7
453.07	4.69
453.424	4.68
453.778	4.67
454.132	4.67
454.486	4.67
454.839	4.66
455.193	4.66
455.547	4.66
455.9	4.67
456.254	4.66
456.607	4.67
456.961	4.68
457.314	4.69
457.668	4.69
458.021	4.7
458.375	4.7
458.728	4.7
459.081	4.71
459.434	4.71
459.787	4.72
460.141	4.73
460.494	4.73
460.847	4.73
461.2	4.74
461.553	4.74
461.906	4.75
462.259	4.75
462.611	4.76
462.964	4.76
463.317	4.76
463.67	4.76
464.022	4.76
464.375	4.77
464.728	4.77
465.08	4.78
465.433	4.79
465.785	4.8
466.138	4.82
466.49	4.83
466.843	4.84
467.195	4.85
467.547	4.87
467.899	4.88
468.252	4.89
468.604	4.9
468.956	4.91
469.308	4.93
469.66	4.95
470.012	4.97
470.364	4.98
470.716	5.01
471.068	5.03
471.42	5.04
471.772	5.05
472.123	5.07
472.475	5.09
472.827	5.1
473.178	5.11
473.53	5.12
473.882	5.13
474.233	5.14
474.585	5.16
474.936	5.16
475.288	5.17
475.639	5.17
475.99	5.19
476.342	5.2
476.693	5.21
477.044	5.2
477.395	5.2
477.746	5.2
478.097	5.2
478.448	5.23
478.8	5.31
479.15	5.44
479.501	5.59
479.852	5.77
480.203	5.96
480.554	6.15
480.905	6.35
481.255	6.55
481.606	6.74
481.957	6.93
482.307	7.11
482.658	7.27
483.009	7.4
483.359	7.52
483.709	7.61
484.06	7.71
484.41	7.8
484.761	7.88
485.111	7.97
485.461	8.05
485.811	8.12
486.162	8.15
486.512	8.13
486.862	8.08
487.212	8.01
487.562	7.91
487.912	7.79
488.262	7.67
488.612	7.53
488.961	7.39
489.311	7.23
489.661	7.06
490.011	6.9
490.36	6.74
490.71	6.57
491.06	6.4
491.409	6.24
491.759	6.1
492.108	5.99
492.458	5.9
492.807	5.81
493.157	5.73
493.506	5.66
493.855	5.59
494.204	5.53
494.554	5.47
494.903	5.42
495.252	5.37
495.601	5.33
495.95	5.3
496.299	5.27
496.648	5.26
496.997	5.26
497.346	5.28
497.695	5.32
498.043	5.4
498.392	5.49
498.741	5.6
499.09	5.68
499.438	5.75
499.787	5.81
500.135	5.87
500.484	5.94
500.832	6
501.181	6.08
501.529	6.15
501.878	6.23
502.226	6.31
502.574	6.4
502.923	6.5
503.271	6.6
503.619	6.7
503.967	6.82
504.315	6.92
504.663	7.03
505.011	7.15
505.359	7.27
505.707	7.41
506.055	7.54
506.403	7.68
506.751	7.82
507.098	7.96
507.446	8.11
507.794	8.25
508.141	8.4
508.489	8.55
508.837	8.71
509.184	8.86
509.531	9.03
509.879	9.18
510.226	9.34
510.574	9.49
510.921	9.65
511.268	9.81
511.616	9.99
511.963	10.17
512.31	10.36
512.657	10.55
513.004	10.75
513.351	10.96
513.698	11.18
514.045	11.41
514.392	11.64
514.739	11.86
515.086	12.1
515.432	12.33
515.779	12.57
516.126	12.79
516.473	13
516.819	13.21
517.166	13.42
517.512	13.63
517.859	13.83
518.205	14.03
518.552	14.21
518.898	14.4
519.245	14.58
519.591	14.76
519.937	14.96
520.283	15.15
520.629	15.35
520.976	15.56
521.322	15.79
521.668	16.01
522.014	16.25
522.36	16.5
522.706	16.76
523.052	17.11
523.398	17.56
523.743	18.13
524.089	18.78
524.435	19.45
524.781	20.15
525.126	20.84
525.472	21.54
525.817	22.21
526.163	22.84
526.509	23.42
526.854	23.94
527.199	24.35
527.545	24.69
527.89	24.98
528.235	25.27
528.581	25.54
528.926	25.81
529.271	26.07
529.616	26.33
529.961	26.59
530.306	26.8
530.651	26.92
530.996	26.93
531.341	26.87
531.686	26.74
532.031	26.53
532.376	26.24
532.721	25.87
533.065	25.52
533.41	25.24
533.755	24.97
534.099	24.81
534.444	24.76
534.788	24.78
535.133	24.86
535.477	24.94
535.822	25.05
536.166	25.19
536.51	25.37
536.855	25.58
537.199	25.81
537.543	26.1
537.887	26.42
538.231	26.78
538.576	27.15
538.92	27.55
539.264	27.99
539.608	28.45
539.951	28.91
540.295	29.32
540.639	29.6
540.983	29.86
541.327	30.05
541.671	30.23
542.014	30.45
542.358	30.67
542.701	30.9
543.045	31.1
543.389	31.3
543.732	31.49
544.075	31.67
544.419	31.83
544.762	31.98
545.105	32.09
545.449	32.17
545.792	32.23
546.135	32.29
546.478	32.37
546.821	32.51
547.165	32.7
547.508	32.94
547.851	33.25
548.194	33.62
548.536	34.02
548.879	34.32
549.222	34.57
549.565	34.8
549.908	35.01
550.25	35.27
550.593	35.51
550.936	35.75
551.278	35.98
551.621	36.21
551.963	36.44
552.306	36.68
552.648	36.92
552.991	37.15
553.333	37.36
553.675	37.57
554.017	37.78
554.36	38.01
554.702	38.23
555.044	38.43
555.386	38.64
555.728	38.85
556.07	39.06
556.412	39.25
556.754	39.46
557.096	39.67
557.438	39.87
557.78	40.06
558.121	40.27
558.463	40.5
558.805	40.72
559.147	40.93
559.488	41.12
559.83	41.33
560.171	41.51
560.513	41.72
560.854	41.93
561.196	42.14
561.537	42.35
561.878	42.56
562.22	42.78
562.561	42.99
562.902	43.19
563.243	43.37
563.584	43.58
563.925	43.77
564.266	43.91
564.607	44.07
564.948	44.25
565.289	44.41
565.63	44.57
565.971	44.71
566.312	44.87
566.653	45.04
566.993	45.2
567.334	45.39
567.675	45.56
568.015	45.71
568.356	45.85
568.696	45.98
569.037	46.13
569.377	46.28
569.718	46.43
570.058	46.55
570.398	46.7
570.739	46.8
571.079	46.94
571.419	47.09
571.759	47.23
572.099	47.32
572.439	47.42
572.779	47.51
573.119	47.62
573.459	47.7
573.799	47.79
574.139	47.87
574.479	47.94
574.819	48
575.158	48.07
575.498	48.15
575.838	48.2
576.177	48.26
576.517	48.32
576.856	48.36
577.196	48.43
577.535	48.48
577.875	48.56
578.214	48.62
578.553	48.68
578.893	48.73
579.232	48.82
579.571	48.88
579.91	48.95
580.25	49.02
580.589	49.09
580.928	49.14
581.267	49.23
581.606	49.3
581.945	49.37
582.283	49.44
582.622	49.52
582.961	49.64
583.3	49.71
583.639	49.8
583.977	49.9
584.316	50.01
584.654	50.12
584.993	50.21
585.332	50.28
585.67	50.39
586.008	50.5
586.347	50.58
586.685	50.66
587.024	50.76
587.362	50.84
587.7	50.93
588.038	51.03
588.376	51.1
588.715	51.19
589.053	51.27
589.391	51.35
589.729	51.43
590.067	51.48
590.404	51.54
590.742	51.63
591.08	51.7
591.418	51.76
591.756	51.82
592.093	51.88
592.431	51.96
592.769	52.02
593.106	52.08
593.444	52.15
593.781	52.23
594.119	52.29
594.456	52.38
594.793	52.44
595.131	52.51
595.468	52.56
595.805	52.59
596.143	52.63
596.48	52.67
596.817	52.71
597.154	52.75
597.491	52.79
597.828	52.81
598.165	52.85
598.502	52.87
598.839	52.91
599.176	52.95
599.512	52.97
599.849	53.01
600.186	53.08
600.523	53.14
600.859	53.22
601.196	53.3
601.532	53.35
601.869	53.4
602.205	53.46
602.542	53.52
602.878	53.59
603.215	53.66
603.551	53.71
603.887	53.76
604.223	53.79
604.56	53.83
604.896	53.9
605.232	53.95
605.568	54.01
605.904	54.04
606.24	54.08
606.576	54.14
606.912	54.2
607.248	54.21
607.583	54.25
607.919	54.28
608.255	54.28
608.591	54.3
608.926	54.32
609.262	54.3
609.597	54.3
609.933	54.31
610.268	54.3
610.604	54.33
610.939	54.33
611.275	54.39
611.61	54.43
611.945	54.42
612.281	54.45
612.616	54.47
612.951	54.49
613.286	54.51
613.621	54.55
613.956	54.55
614.291	54.58
614.626	54.57
614.961	54.57
615.296	54.58
615.631	54.6
615.966	54.63
616.3	54.68
616.635	54.73
616.97	54.76
617.304	54.8
617.639	54.82
617.973	54.84
618.308	54.85
618.642	54.88
618.977	54.91
619.311	54.91
619.646	54.96
619.98	55.01
620.314	55.03
620.648	55.04
620.983	55.06
621.317	55.09
621.651	55.11
621.985	55.15
622.319	55.2
622.653	55.26
622.987	55.31
623.321	55.34
623.655	55.41
623.988	55.47
624.322	55.52
624.656	55.56
624.99	55.63
625.323	55.67
625.657	55.73
625.99	55.78
626.324	55.82
626.657	55.82
626.991	55.83
627.324	55.87
627.658	55.9
627.991	55.91
628.324	55.92
628.657	55.93
628.991	55.95
629.324	55.95
629.657	55.95
629.99	55.96
630.323	55.99
630.656	55.98
630.989	55.97
631.322	56
631.655	56.01
631.987	56.02
632.32	56.01
632.653	56.02
632.986	56.02
633.318	56.05
633.651	56.07
633.984	56.09
634.316	56.1
634.649	56.11
634.981	56.13
635.313	56.17
635.646	56.22
635.978	56.25
636.31	56.31
636.643	56.33
636.975	56.33
637.307	56.32
637.639	56.33
637.971	56.34
638.303	56.33
638.635	56.37
638.967	56.39
639.299	56.41
639.631	56.44
639.963	56.46
640.295	56.44
640.626	56.46
640.958	56.46
641.29	56.47
641.621	56.45
641.953	56.48
642.285	56.46
642.616	56.5
642.948	56.54
643.279	56.54
643.61	56.57
643.942	56.62
644.273	56.66
644.604	56.71
644.936	56.77
645.267	56.84
645.598	56.87
645.929	56.93
646.26	56.95
646.591	56.92
646.922	56.95
647.253	57
647.584	57.03
647.915	57.06
648.245	57.09
648.576	57.14
648.907	57.19
649.238	57.25
649.568	57.23
649.899	57.23
650.229	57.26
650.56	57.3
650.89	57.33
651.221	57.38
651.551	57.39
651.882	57.39
652.212	57.41
652.542	57.42
652.872	57.41
653.203	57.47
653.533	57.53
653.863	57.59
654.193	57.63
654.523	57.65
654.853	57.69
655.183	57.71
655.513	57.77
655.843	57.8
656.172	57.84
656.502	57.91
656.832	57.96
657.162	57.97
657.491	57.99
657.821	58.01
658.15	58
658.48	57.99
658.809	58
659.139	57.98
659.468	58.02
659.798	58.02
660.127	58.04
660.456	58.05
660.785	58.01
661.115	58.01
661.444	57.99
661.773	57.98
662.102	58.01
662.431	58
662.76	58
663.089	57.97
663.418	57.97
663.747	57.95
664.076	57.98
664.404	57.96
664.733	57.94
665.062	57.99
665.39	58.06
665.719	58.11
666.048	58.15
666.376	58.16
666.705	58.18
667.033	58.17
667.362	58.18
667.69	58.2
668.018	58.26
668.347	58.31
668.675	58.31
669.003	58.32
669.331	58.31
669.659	58.32
669.987	58.35
670.315	58.37
670.643	58.39
670.971	58.42
671.299	58.47
671.627	58.51
671.955	58.49
672.283	58.48
672.61	58.49
672.938	58.52
673.266	58.54
673.593	58.59
673.921	58.61
674.249	58.62
674.576	58.69
674.904	58.66
675.231	58.69
675.558	58.73
675.886	58.76
676.213	58.82
676.54	58.84
676.867	58.85
677.195	58.88
677.522	58.92
677.849	58.89
678.176	58.91
678.503	58.93
678.83	58.95
679.157	58.99
679.484	59
679.81	58.99
680.137	59.02
680.464	59.01
680.791	59.02
681.117	59.03
681.444	59.05
681.771	59.1
682.097	59.14
682.424	59.17
682.75	59.18
683.077	59.19
683.403	59.23
683.729	59.27
684.056	59.3
684.382	59.32
684.708	59.37
685.034	59.4
685.36	59.44
685.686	59.52
686.012	59.5
686.339	59.51
686.664	59.56
686.99	59.58
687.316	59.63
687.642	59.63
687.968	59.68
688.294	59.66
688.619	59.67
688.945	59.67
689.271	59.7
689.596	59.71
689.922	59.77
690.247	59.81
690.573	59.81
690.898	59.81
691.224	59.83
691.549	59.82
691.874	59.84
692.2	59.86
692.525	59.8
692.85	59.85
693.175	59.87
693.5	59.9
693.825	59.89
694.15	59.87
694.475	59.86
694.8	59.87
695.125	59.93
695.45	59.93
695.775	59.93
696.099	59.93
696.424	59.94
696.749	59.92
697.073	59.9
697.398	59.9
697.723	59.87
698.047	59.87
698.372	59.89
698.696	59.92
699.02	59.9
699.345	59.91
699.669	59.9
699.993	59.86
700.318	59.82
700.642	59.82
700.966	59.85
701.29	59.89
701.614	59.87
701.938	59.88
702.262	59.89
702.586	59.91
702.91	59.88
703.234	59.9
703.557	59.89
703.881	59.9
704.205	59.99
704.529	60.05
704.852	60.08
705.176	60.13
705.499	60.01
705.823	60.03
706.146	60.03
706.47	60.04
706.793	60.14
707.117	60.16
707.44	60.22
707.763	60.19
708.086	60.24
708.409	60.21
708.733	60.22
709.056	60.24
709.379	60.23
709.702	60.28
710.025	60.28
710.348	60.28
710.671	60.36
710.993	60.28
711.316	60.28
711.639	60.26
711.962	60.29
712.284	60.38
712.607	60.46
712.93	60.49
713.252	60.5
713.575	60.51
713.897	60.58
714.22	60.56
714.542	60.6
714.864	60.56
715.187	60.64
715.509	60.67
715.831	60.72
716.153	60.78
716.475	60.77
716.798	60.77
717.12	60.8
717.442	60.71
717.764	60.76
718.085	60.79
718.407	60.82
718.729	60.79
719.051	60.83
719.373	60.78
719.695	60.8
720.016	60.83
720.338	60.79
720.659	60.75
720.981	60.81
721.302	60.81
721.624	60.81
721.945	60.83
722.267	60.84
722.588	60.83
722.909	60.86
723.231	60.86
723.552	60.89
723.873	60.94
724.194	60.99
724.515	61.04
724.836	60.97
725.157	60.96
725.478	60.95
725.799	60.95
726.12	60.99
726.441	61.03
726.762	61.06
727.083	61.06
727.403	61.07
727.724	61.02
728.045	61.04
728.365	61.07
728.686	61.04
729.006	61.04
729.327	60.99
729.647	60.84
729.967	60.88
730.288	60.91
730.608	60.93
730.928	61
731.249	61.01
731.569	61.02
731.889	61.03
732.209	61.02
732.529	61.04
732.849	61
733.169	60.98
733.489	60.9
733.809	60.92
734.129	60.89
734.448	60.9
734.768	60.93
735.088	60.95
735.408	60.98
735.727	60.91
736.047	60.99
736.366	61.04
736.686	61.05
737.005	61.04
737.325	60.98
737.644	60.95
737.963	60.93
738.283	60.87
738.602	60.86
738.921	60.83
739.24	60.75
739.56	60.76
739.879	60.8
740.198	60.83
740.517	60.92
740.836	60.91
741.155	60.89
741.473	60.85
741.792	60.85
742.111	60.82
742.43	60.86
742.748	60.81
743.067	60.85
743.386	60.85
743.704	60.84
744.023	60.9
744.341	60.83
744.66	60.82
744.978	60.9
745.297	60.84
745.615	60.92
745.933	60.94
746.252	60.95
746.57	60.81
746.888	60.78
747.206	60.63
747.524	60.66
747.842	60.7
748.16	60.75
748.478	60.82
748.796	60.88
749.114	60.84
749.432	60.84
749.749	60.86
750.067	60.9
750.385	60.91
750.703	60.9
751.02	60.84
751.338	60.82
751.655	60.82
751.973	60.86
752.29	60.8
752.608	60.82
752.925	60.92
753.242	61.08
753.56	61.17
753.877	61.17
754.194	61.24
754.511	61.27
754.828	61.3
755.145	61.27
755.462	61.26
755.779	61.27
756.096	61.28
756.413	61.38
756.73	61.4
757.047	61.4
757.364	61.45
757.68	61.64
757.997	61.63
758.314	61.71
758.63	61.78
758.947	61.97
759.264	62.01
759.58	61.96
759.896	62.03
760.213	62.16
760.529	62.27
760.846	62.28
761.162	62.36
761.478	62.4
761.794	62.41
762.11	62.47
762.426	62.54
762.743	62.55
763.059	62.58
763.375	62.59
763.69	62.6
764.006	62.62
764.322	62.6
764.638	62.63
764.954	62.6
765.27	62.57
765.585	62.49
765.901	62.55
766.216	62.51
766.532	62.45
766.848	62.36
767.163	62.29
767.478	62.26
767.794	62.15
768.109	62.09
768.424	62.08
768.74	62.02
769.055	61.94
769.37	61.98
769.685	61.94
770	61.85
770.315	61.85
770.63	61.72
770.945	61.76
771.26	61.79
771.575	61.73
771.89	61.69
772.205	61.68
772.52	61.55
772.834	61.52
773.149	61.43
773.464	61.42
773.778	61.47
774.093	61.47
774.407	61.5
774.722	61.41
775.036	61.32
775.351	61.28
775.665	61.33
775.979	61.25
776.293	61.18
776.608	61.19
776.922	61.25
777.236	61.29
777.55	61.1
777.864	61.03
778.178	61.04
778.492	61.12
778.806	61.08
779.12	61.15
779.434	61.22
779.747	61.32
780.061	61.46
780.375	61.51
780.689	61.58
781.002	61.59
781.316	61.78
781.629	61.89
781.943	61.94
782.256	61.96
782.57	61.98
782.883	62
783.196	62.02
783.51	61.85
783.823	61.9
784.136	61.94
784.449	61.99
784.762	62.02
785.075	62.06
785.388	62.08
785.701	62.02
786.014	62.12
786.327	62.06
786.64	61.93
786.953	61.92
787.266	61.89
787.578	61.9
787.891	61.88
788.204	61.78
788.516	61.82
788.829	61.97
789.141	61.99
789.454	61.92
789.766	61.94
790.079	62.11
790.391	62.04
790.703	62.22
791.016	62.25
791.328	62.25
791.64	62.26
791.952	62.38
792.264	62.43
792.576	62.27
792.888	62.46
793.2	62.53
793.512	62.55
793.824	62.48
794.136	62.46
794.448	62.42
794.76	62.53
795.071	62.47
795.383	62.36
795.695	62.47
796.006	62.53
796.318	62.5
796.629	62.35
796.941	62.4
797.252	62.34
797.564	62.34
797.875	62.39
798.186	62.37
798.497	62.44
798.809	62.48
799.12	62.64
799.431	62.52
799.742	62.48
800.053	62.45
800.364	62.64
800.675	62.7
800.986	62.84
801.297	62.8
801.608	62.88
801.918	62.91
802.229	62.89
802.54	62.87
802.851	62.88
803.161	63
803.472	62.95
803.782	62.94
804.093	62.91
804.403	62.98
804.714	62.86
805.024	62.75
805.334	62.92
805.645	62.86
805.955	62.91
806.265	63.08
806.575	63.22
806.885	63.23
807.195	63.04
807.505	62.93
807.815	63.04
808.125	62.9
808.435	62.84
808.745	62.76
809.055	62.84
809.365	63.03
809.674	63.21
809.984	63.33
810.294	63.36
810.603	63.52
810.913	63.55
811.222	63.65
811.532	63.77
811.841	63.62
812.151	63.58
812.46	63.65
812.769	63.48
813.079	63.3
813.388	63.22
813.697	63.57
814.006	63.82
814.315	63.8
814.624	64.04
814.933	64.09
815.242	64.29
815.551	64.49
815.86	64.35
816.169	64.31
816.478	64.33
816.786	64.28
817.095	64.03
817.404	64.15
817.712	64.19
818.021	64.07
818.33	64.12
818.638	64.18
818.947	64.11
819.255	64.17
819.563	64.33
819.872	64.45
820.18	64.44
820.488	64.49
820.796	64.65
821.105	64.64
821.413	64.65
821.721	64.56
822.029	64.47
822.337	64.62
822.645	64.66
822.953	64.71
823.26	64.7
823.568	64.76
823.876	64.71
824.184	64.69
824.491	64.7
824.799	64.7
825.107	64.72
825.414	64.73
825.722	64.73
826.029	64.75
826.337	64.73
826.644	64.72
826.951	64.65
827.259	64.52
827.566	64.57
827.873	64.58
828.18	64.57
828.488	64.6
828.795	64.46
829.102	64.32
829.409	64.27
829.716	64.29
830.023	64.15
830.329	64.2
830.636	64.22
830.943	64.14
831.25	64.19
831.557	64.13
831.863	64.16
832.17	64.1
832.476	64.04
832.783	64.02
833.089	63.98
833.396	64.12
833.702	64.17
834.009	63.99
834.315	63.98
834.621	64.06
834.928	64.05
835.234	64.08
835.54	64.15
835.846	64.11
836.152	64.02
836.458	64.18
836.764	64.14
837.07	64.16
837.376	64.25
837.682	64.12
837.988	64.2
838.293	64.17
838.599	64.4
838.905	64.31
839.211	64.32
839.516	64.44
839.822	64.21
840.127	64.34
840.433	64.48
840.738	64.2
841.044	64.19
841.349	64.32
841.654	64.36
841.959	64.33
842.265	64.44
842.57	64.66
842.875	64.64
843.18	64.66
843.485	64.71
843.79	64.68
844.095	64.87
844.4	64.78
844.705	64.77
845.01	64.63
845.315	64.71
845.619	64.77
845.924	64.66
846.229	64.94
846.533	64.68
846.838	64.56
847.142	64.94
847.447	65.29
847.751	65.19
848.056	65.18
848.36	65.03
848.664	65.08
848.969	64.96
849.273	65.09
849.577	64.97
849.881	65.15
850.185	65.38
850.489	65.44
850.794	65.35
851.097	65.33
851.401	65.18
851.705	65.08
852.009	65.03
852.313	64.94
852.617	64.5
852.92	64.52
853.224	64.4
853.528	64.47
853.831	63.93
854.135	64.08
854.438	63.99
854.742	64.32
855.045	63.88
855.349	63.95
855.652	64.28
855.955	64.46
856.259	64.29
856.562	64.3
856.865	64.28
857.168	64.21
857.471	63.95
857.774	64.1
858.077	63.97
858.38	64.18
858.683	64.03
858.986	64.22
859.289	64.52
859.592	65.08
859.894	64.94
860.197	65.12
860.5	64.91
860.802	64.91
861.105	64.49
861.407	64.97
861.71	65.05
862.012	64.92
862.315	64.85
862.617	64.73
862.919	64.6
863.222	64.46
863.524	64.61
863.826	65.03
864.128	64.75
864.43	65.18
864.732	64.9
865.034	65.83
865.336	65.74
865.638	65.53
865.94	64.99
866.242	64.89
866.544	65.26
866.846	65.62
867.147	65.59
867.449	65.78
867.751	65.23
868.052	65.46
868.354	65.37
868.655	65.78
868.957	65.95
869.258	65.73
869.56	65.8
869.861	66.16
870.162	66.01
870.463	65.93
870.765	65.64
871.066	65.44
871.367	64.81
871.668	65.33
871.969	65.76
872.27	66.31
872.571	66.4
872.872	66.52
873.173	66.22
873.473	66.57
873.774	67
874.075	67.41
874.376	67.3
874.676	67.03
874.977	66.32
875.277	66.22
875.578	66.61
875.878	66.66
876.179	66.43
876.479	66.7
876.78	67.23
877.08	67.55
877.38	68.01
877.68	68.1
877.981	67.62
878.281	67.27
878.581	66.74
