Data from UWBM86267_Reflection_00010.txt Node
Date: Sun May 02 14:08:22 EDT 2021
User: vgr7
Spectrometer: USB2G7710
Scans to average: 10
Trigger mode: 4
Integration Time (sec): 1.000000E-1
Electric dark correction enabled: true
Boxcar width: 20
XAxis mode: Wavelengths
Number of Pixels in Spectrum: 2048
>>>>>Begin Spectral Data<<<<<
177.721	188.57
178.105	228
178.488	234.91
178.871	300
179.254	145.25
179.636	124.54
180.019	81.2
180.402	84.12
180.785	62.7
181.168	58.93
181.55	48.97
181.933	45.09
182.316	46.77
182.698	39.12
183.081	29.21
183.463	23.19
183.846	15.73
184.228	17.29
184.611	12.46
184.993	11.45
185.376	12.54
185.758	16.77
186.14	16.56
186.522	14.58
186.904	10.54
187.287	9.87
187.669	13.99
188.051	14.56
188.433	16.13
188.815	12.73
189.197	12.9
189.579	12.93
189.961	14.42
190.342	13.14
190.724	11.97
191.106	11.04
191.488	10.72
191.869	7.55
192.251	3.86
192.633	2.63
193.014	2.12
193.396	-0.89
193.777	1.42
194.159	1.96
194.54	0.12
194.922	0.03
195.303	0.21
195.684	0.03
196.065	-1.38
196.447	0.03
196.828	-1.24
197.209	-3.53
197.59	-5.86
197.971	-7.29
198.352	-6.16
198.733	-2.66
199.114	-0.81
199.495	2.78
199.876	3.86
200.257	5.89
200.638	3.49
201.018	4.62
201.399	2.72
201.78	2.68
202.16	2.26
202.541	4.44
202.922	4.64
203.302	2.51
203.683	2.57
204.063	3.41
204.444	2.75
204.824	1.96
205.204	1.3
205.585	3.12
205.965	4.26
206.345	4.17
206.725	3.96
207.106	3.66
207.486	5.07
207.866	6.56
208.246	6.88
208.626	5.75
209.006	5.91
209.386	4.85
209.766	4.83
210.145	4.94
210.525	5.35
210.905	6.44
211.285	5.09
211.664	7.51
212.044	5.99
212.424	6.21
212.803	7.01
213.183	7.95
213.562	9.08
213.942	8.87
214.321	6.26
214.701	6.35
215.08	5.05
215.459	4.65
215.838	3.86
216.218	4.77
216.597	3.45
216.976	5.19
217.355	4.5
217.734	5.8
218.113	4.66
218.492	3.86
218.871	4.2
219.25	3.7
219.629	3.13
220.008	3.44
220.387	2.86
220.766	4.74
221.144	2.57
221.523	2.96
221.902	3.31
222.28	3.31
222.659	2.67
223.037	2.1
223.416	2.47
223.794	2.19
224.173	2.63
224.551	2.2
224.929	2.57
225.308	2.08
225.686	2.24
226.064	2.53
226.442	2.06
226.821	2.83
227.199	2.52
227.577	2.92
227.955	2.87
228.333	3.37
228.711	3.15
229.089	2.73
229.467	2.62
229.845	2.97
230.222	2.74
230.6	2.41
230.978	2.08
231.356	2.39
231.733	2.73
232.111	2.75
232.488	2.51
232.866	2.59
233.243	2.49
233.621	2.67
233.998	2.83
234.376	3.06
234.753	3.05
235.13	3.25
235.508	3.4
235.885	3.51
236.262	3.48
236.639	3.53
237.016	3.53
237.393	3.58
237.77	3.66
238.147	3.66
238.524	3.7
238.901	3.66
239.278	3.77
239.655	3.81
240.032	3.81
240.409	3.79
240.785	3.89
241.162	3.86
241.539	3.86
241.915	3.96
242.292	3.99
242.668	3.96
243.045	3.93
243.421	3.94
243.798	3.94
244.174	3.99
244.551	4
244.927	4.02
245.303	4.03
245.679	4.01
246.056	4.02
246.432	4.04
246.808	4
247.184	4.02
247.56	4.02
247.936	4.07
248.312	4.07
248.688	4.05
249.064	4.06
249.44	4.05
249.815	3.99
250.191	3.97
250.567	3.98
250.943	3.96
251.318	3.95
251.694	3.95
252.069	3.95
252.445	3.93
252.82	3.9
253.196	3.85
253.571	3.87
253.947	3.88
254.322	3.85
254.697	3.83
255.073	3.8
255.448	3.83
255.823	3.8
256.198	3.79
256.573	3.77
256.948	3.75
257.323	3.69
257.698	3.64
258.073	3.62
258.448	3.61
258.823	3.59
259.198	3.57
259.573	3.54
259.948	3.53
260.322	3.51
260.697	3.5
261.072	3.5
261.446	3.49
261.821	3.46
262.195	3.47
262.57	3.43
262.944	3.42
263.319	3.4
263.693	3.39
264.067	3.39
264.442	3.37
264.816	3.36
265.19	3.38
265.564	3.38
265.938	3.37
266.313	3.37
266.687	3.36
267.061	3.37
267.435	3.36
267.809	3.34
268.183	3.34
268.556	3.35
268.93	3.35
269.304	3.34
269.678	3.34
270.051	3.33
270.425	3.33
270.799	3.31
271.172	3.33
271.546	3.31
271.919	3.32
272.293	3.34
272.666	3.35
273.04	3.39
273.413	3.43
273.787	3.45
274.16	3.46
274.533	3.47
274.906	3.48
275.279	3.48
275.653	3.48
276.026	3.47
276.399	3.47
276.772	3.48
277.145	3.48
277.518	3.5
277.891	3.5
278.263	3.5
278.636	3.51
279.009	3.52
279.382	3.53
279.755	3.55
280.127	3.56
280.5	3.58
280.872	3.6
281.245	3.6
281.617	3.62
281.99	3.63
282.362	3.62
282.735	3.64
283.107	3.65
283.479	3.64
283.852	3.67
284.224	3.65
284.596	3.64
284.968	3.66
285.34	3.67
285.713	3.67
286.085	3.69
286.457	3.7
286.829	3.71
287.201	3.72
287.572	3.72
287.944	3.74
288.316	3.75
288.688	3.75
289.06	3.76
289.431	3.78
289.803	3.79
290.175	3.8
290.546	3.84
290.918	3.87
291.289	3.9
291.661	3.93
292.032	3.95
292.403	3.98
292.775	4.01
293.146	4.04
293.517	4.08
293.889	4.1
294.26	4.14
294.631	4.18
295.002	4.2
295.373	4.23
295.744	4.25
296.115	4.29
296.486	4.33
296.857	4.37
297.228	4.4
297.599	4.44
297.97	4.48
298.34	4.52
298.711	4.57
299.082	4.61
299.452	4.66
299.823	4.71
300.194	4.75
300.564	4.79
300.935	4.86
301.305	4.91
301.676	4.97
302.046	5.03
302.416	5.09
302.787	5.14
303.157	5.2
303.527	5.25
303.897	5.31
304.267	5.38
304.637	5.45
305.008	5.52
305.378	5.6
305.748	5.67
306.117	5.74
306.487	5.83
306.857	5.91
307.227	5.99
307.597	6.08
307.967	6.13
308.336	6.22
308.706	6.27
309.076	6.33
309.445	6.38
309.815	6.44
310.184	6.51
310.554	6.57
310.923	6.65
311.293	6.7
311.662	6.75
312.031	6.81
312.401	6.89
312.77	6.96
313.139	7.03
313.508	7.1
313.877	7.17
314.246	7.24
314.616	7.29
314.985	7.36
315.353	7.42
315.722	7.48
316.091	7.55
316.46	7.59
316.829	7.66
317.198	7.73
317.567	7.79
317.935	7.87
318.304	7.94
318.672	8.01
319.041	8.11
319.41	8.19
319.778	8.26
320.147	8.32
320.515	8.38
320.883	8.43
321.252	8.49
321.62	8.55
321.988	8.6
322.357	8.64
322.725	8.69
323.093	8.72
323.461	8.77
323.829	8.83
324.197	8.88
324.565	8.94
324.933	9
325.301	9.03
325.669	9.09
326.037	9.12
326.405	9.17
326.772	9.21
327.14	9.23
327.508	9.25
327.875	9.27
328.243	9.3
328.61	9.32
328.978	9.35
329.346	9.36
329.713	9.42
330.08	9.45
330.448	9.48
330.815	9.5
331.182	9.52
331.55	9.57
331.917	9.59
332.284	9.6
332.651	9.62
333.018	9.65
333.385	9.68
333.752	9.72
334.119	9.74
334.486	9.76
334.853	9.79
335.22	9.82
335.587	9.84
335.954	9.86
336.32	9.88
336.687	9.89
337.054	9.91
337.42	9.94
337.787	9.94
338.153	9.98
338.52	9.99
338.886	10
339.253	10.01
339.619	10.02
339.986	10.02
340.352	10.04
340.718	10.04
341.084	10.04
341.451	10.04
341.817	10.06
342.183	10.07
342.549	10.09
342.915	10.09
343.281	10.1
343.647	10.1
344.013	10.1
344.379	10.1
344.745	10.09
345.11	10.1
345.476	10.1
345.842	10.11
346.208	10.12
346.573	10.1
346.939	10.09
347.304	10.1
347.67	10.09
348.035	10.09
348.401	10.08
348.766	10.07
349.132	10.06
349.497	10.06
349.862	10.04
350.228	10.03
350.593	10.02
350.958	10
351.323	9.99
351.688	9.98
352.053	9.96
352.418	9.94
352.783	9.91
353.148	9.88
353.513	9.85
353.878	9.82
354.243	9.8
354.608	9.78
354.972	9.75
355.337	9.72
355.702	9.69
356.066	9.67
356.431	9.63
356.795	9.6
357.16	9.57
357.524	9.54
357.889	9.51
358.253	9.48
358.618	9.44
358.982	9.41
359.346	9.38
359.71	9.35
360.075	9.31
360.439	9.26
360.803	9.22
361.167	9.18
361.531	9.14
361.895	9.11
362.259	9.06
362.623	9.02
362.987	8.97
363.351	8.92
363.714	8.87
364.078	8.82
364.442	8.76
364.806	8.71
365.169	8.66
365.533	8.61
365.896	8.56
366.26	8.51
366.623	8.45
366.987	8.39
367.35	8.33
367.714	8.29
368.077	8.22
368.44	8.15
368.803	8.09
369.167	8.02
369.53	7.95
369.893	7.87
370.256	7.8
370.619	7.73
370.982	7.66
371.345	7.59
371.708	7.52
372.071	7.44
372.434	7.36
372.797	7.3
373.159	7.23
373.522	7.17
373.885	7.1
374.247	7.03
374.61	6.96
374.973	6.89
375.335	6.83
375.698	6.76
376.06	6.69
376.423	6.63
376.785	6.57
377.147	6.5
377.51	6.44
377.872	6.38
378.234	6.32
378.596	6.26
378.958	6.2
379.321	6.14
379.683	6.08
380.045	6.02
380.407	5.97
380.769	5.91
381.13	5.85
381.492	5.81
381.854	5.76
382.216	5.71
382.578	5.66
382.939	5.61
383.301	5.57
383.663	5.52
384.024	5.47
384.386	5.43
384.747	5.39
385.109	5.34
385.47	5.3
385.832	5.25
386.193	5.21
386.554	5.16
386.916	5.12
387.277	5.08
387.638	5.04
387.999	5.01
388.36	4.97
388.721	4.94
389.082	4.91
389.443	4.88
389.804	4.84
390.165	4.81
390.526	4.78
390.887	4.75
391.248	4.72
391.609	4.69
391.969	4.66
392.33	4.63
392.691	4.61
393.051	4.58
393.412	4.55
393.772	4.52
394.133	4.49
394.493	4.46
394.854	4.43
395.214	4.4
395.574	4.37
395.935	4.34
396.295	4.31
396.655	4.28
397.015	4.25
397.376	4.22
397.736	4.19
398.096	4.17
398.456	4.14
398.816	4.12
399.176	4.09
399.535	4.06
399.895	4.04
400.255	4.01
400.615	4
400.975	3.97
401.334	3.95
401.694	3.93
402.054	3.92
402.413	3.89
402.773	3.88
403.132	3.86
403.492	3.84
403.851	3.82
404.211	3.81
404.57	3.8
404.929	3.78
405.288	3.77
405.648	3.75
406.007	3.75
406.366	3.73
406.725	3.72
407.084	3.71
407.443	3.7
407.802	3.69
408.161	3.68
408.52	3.67
408.879	3.66
409.238	3.65
409.596	3.65
409.955	3.64
410.314	3.63
410.673	3.62
411.031	3.61
411.39	3.61
411.748	3.6
412.107	3.6
412.465	3.6
412.824	3.61
413.182	3.62
413.54	3.63
413.899	3.65
414.257	3.67
414.615	3.7
414.974	3.71
415.332	3.73
415.69	3.76
416.048	3.78
416.406	3.81
416.764	3.82
417.122	3.84
417.48	3.86
417.838	3.88
418.195	3.89
418.553	3.9
418.911	3.91
419.269	3.91
419.626	3.9
419.984	3.89
420.342	3.87
420.699	3.85
421.057	3.83
421.414	3.81
421.772	3.8
422.129	3.78
422.486	3.77
422.844	3.77
423.201	3.76
423.558	3.75
423.915	3.75
424.273	3.74
424.63	3.73
424.987	3.73
425.344	3.72
425.701	3.72
426.058	3.71
426.415	3.71
426.772	3.7
427.128	3.7
427.485	3.68
427.842	3.67
428.199	3.65
428.555	3.63
428.912	3.6
429.269	3.58
429.625	3.55
429.982	3.53
430.338	3.5
430.695	3.47
431.051	3.44
431.407	3.42
431.764	3.4
432.12	3.38
432.476	3.37
432.832	3.36
433.189	3.36
433.545	3.36
433.901	3.37
434.257	3.38
434.613	3.4
434.969	3.42
435.325	3.44
435.681	3.47
436.036	3.49
436.392	3.5
436.748	3.52
437.104	3.52
437.459	3.54
437.815	3.55
438.171	3.57
438.526	3.59
438.882	3.61
439.237	3.65
439.593	3.67
439.948	3.7
440.304	3.72
440.659	3.74
441.014	3.76
441.369	3.78
441.725	3.79
442.08	3.8
442.435	3.81
442.79	3.81
443.145	3.81
443.5	3.81
443.855	3.81
444.21	3.81
444.565	3.81
444.92	3.8
445.275	3.79
445.629	3.78
445.984	3.77
446.339	3.76
446.693	3.75
447.048	3.73
447.403	3.72
447.757	3.7
448.112	3.68
448.466	3.66
448.82	3.64
449.175	3.61
449.529	3.6
449.883	3.58
450.238	3.55
450.592	3.55
450.946	3.53
451.3	3.53
451.654	3.53
452.008	3.53
452.362	3.53
452.716	3.53
453.07	3.53
453.424	3.52
453.778	3.51
454.132	3.5
454.486	3.5
454.839	3.48
455.193	3.46
455.547	3.45
455.9	3.43
456.254	3.41
456.607	3.39
456.961	3.37
457.314	3.35
457.668	3.34
458.021	3.33
458.375	3.33
458.728	3.33
459.081	3.33
459.434	3.34
459.787	3.35
460.141	3.36
460.494	3.36
460.847	3.37
461.2	3.38
461.553	3.38
461.906	3.39
462.259	3.39
462.611	3.4
462.964	3.4
463.317	3.41
463.67	3.42
464.022	3.43
464.375	3.44
464.728	3.45
465.08	3.45
465.433	3.46
465.785	3.46
466.138	3.45
466.49	3.44
466.843	3.43
467.195	3.42
467.547	3.4
467.899	3.39
468.252	3.37
468.604	3.35
468.956	3.34
469.308	3.33
469.66	3.33
470.012	3.33
470.364	3.34
470.716	3.35
471.068	3.36
471.42	3.38
471.772	3.41
472.123	3.42
472.475	3.43
472.827	3.44
473.178	3.45
473.53	3.46
473.882	3.47
474.233	3.49
474.585	3.52
474.936	3.57
475.288	3.64
475.639	3.74
475.99	3.84
476.342	3.96
476.693	4.09
477.044	4.22
477.395	4.36
477.746	4.5
478.097	4.64
478.448	4.78
478.8	4.92
479.15	5.05
479.501	5.17
479.852	5.28
480.203	5.38
480.554	5.48
480.905	5.57
481.255	5.66
481.606	5.75
481.957	5.83
482.307	5.9
482.658	5.97
483.009	6.04
483.359	6.11
483.709	6.17
484.06	6.23
484.41	6.3
484.761	6.36
485.111	6.42
485.461	6.47
485.811	6.52
486.162	6.56
486.512	6.6
486.862	6.63
487.212	6.66
487.562	6.67
487.912	6.68
488.262	6.68
488.612	6.68
488.961	6.67
489.311	6.63
489.661	6.58
490.011	6.51
490.36	6.43
490.71	6.33
491.06	6.23
491.409	6.11
491.759	6
492.108	5.88
492.458	5.75
492.807	5.62
493.157	5.49
493.506	5.37
493.855	5.26
494.204	5.15
494.554	5.05
494.903	4.95
495.252	4.86
495.601	4.78
495.95	4.7
496.299	4.63
496.648	4.56
496.997	4.5
497.346	4.44
497.695	4.38
498.043	4.33
498.392	4.28
498.741	4.24
499.09	4.19
499.438	4.16
499.787	4.13
500.135	4.1
500.484	4.08
500.832	4.07
501.181	4.07
501.529	4.09
501.878	4.11
502.226	4.14
502.574	4.18
502.923	4.22
503.271	4.27
503.619	4.31
503.967	4.36
504.315	4.41
504.663	4.46
505.011	4.51
505.359	4.57
505.707	4.62
506.055	4.68
506.403	4.74
506.751	4.81
507.098	4.88
507.446	4.95
507.794	5.02
508.141	5.11
508.489	5.19
508.837	5.28
509.184	5.37
509.531	5.47
509.879	5.57
510.226	5.68
510.574	5.79
510.921	5.91
511.268	6.03
511.616	6.16
511.963	6.29
512.31	6.43
512.657	6.56
513.004	6.69
513.351	6.82
513.698	6.95
514.045	7.06
514.392	7.17
514.739	7.28
515.086	7.38
515.432	7.49
515.779	7.59
516.126	7.69
516.473	7.8
516.819	7.93
517.166	8.06
517.512	8.21
517.859	8.37
518.205	8.54
518.552	8.72
518.898	8.92
519.245	9.14
519.591	9.41
519.937	9.73
520.283	10.1
520.629	10.5
520.976	10.93
521.322	11.36
521.668	11.81
522.014	12.27
522.36	12.73
522.706	13.18
523.052	13.62
523.398	14.03
523.743	14.41
524.089	14.76
524.435	15.09
524.781	15.41
525.126	15.72
525.472	16.03
525.817	16.34
526.163	16.63
526.509	16.92
526.854	17.21
527.199	17.49
527.545	17.78
527.89	18.07
528.235	18.36
528.581	18.64
528.926	18.9
529.271	19.15
529.616	19.39
529.961	19.62
530.306	19.85
530.651	20.06
530.996	20.25
531.341	20.42
531.686	20.58
532.031	20.74
532.376	20.91
532.721	21.1
533.065	21.3
533.41	21.52
533.755	21.72
534.099	21.89
534.444	22.05
534.788	22.18
535.133	22.31
535.477	22.43
535.822	22.52
536.166	22.59
536.51	22.61
536.855	22.61
537.199	22.59
537.543	22.57
537.887	22.57
538.231	22.59
538.576	22.62
538.92	22.64
539.264	22.66
539.608	22.66
539.951	22.65
540.295	22.64
540.639	22.61
540.983	22.58
541.327	22.54
541.671	22.48
542.014	22.44
542.358	22.42
542.701	22.45
543.045	22.52
543.389	22.62
543.732	22.73
544.075	22.85
544.419	22.98
544.762	23.12
545.105	23.29
545.449	23.45
545.792	23.62
546.135	23.8
546.478	23.95
546.821	24.08
547.165	24.16
547.508	24.21
547.851	24.23
548.194	24.23
548.536	24.19
548.879	24.13
549.222	24.07
549.565	23.99
549.908	23.94
550.25	23.89
550.593	23.89
550.936	23.94
551.278	24.03
551.621	24.14
551.963	24.28
552.306	24.43
552.648	24.6
552.991	24.8
553.333	25.01
553.675	25.25
554.017	25.52
554.36	25.81
554.702	26.12
555.044	26.47
555.386	26.85
555.728	27.27
556.07	27.65
556.412	28.03
556.754	28.37
557.096	28.66
557.438	28.94
557.78	29.24
558.121	29.55
558.463	29.85
558.805	30.16
559.147	30.47
559.488	30.78
559.83	31.09
560.171	31.4
560.513	31.69
560.854	32
561.196	32.3
561.537	32.6
561.878	32.9
562.22	33.19
562.561	33.49
562.902	33.78
563.243	34.07
563.584	34.37
563.925	34.66
564.266	34.96
564.607	35.25
564.948	35.54
565.289	35.82
565.63	36.11
565.971	36.4
566.312	36.67
566.653	36.96
566.993	37.23
567.334	37.51
567.675	37.77
568.015	38.03
568.356	38.29
568.696	38.55
569.037	38.79
569.377	39.03
569.718	39.27
570.058	39.5
570.398	39.72
570.739	39.93
571.079	40.15
571.419	40.36
571.759	40.58
572.099	40.78
572.439	40.99
572.779	41.18
573.119	41.38
573.459	41.59
573.799	41.79
574.139	41.99
574.479	42.19
574.819	42.4
575.158	42.59
575.498	42.79
575.838	42.98
576.177	43.16
576.517	43.35
576.856	43.54
577.196	43.72
577.535	43.9
577.875	44.08
578.214	44.27
578.553	44.44
578.893	44.63
579.232	44.81
579.571	45
579.91	45.19
580.25	45.37
580.589	45.56
580.928	45.74
581.267	45.92
581.606	46.11
581.945	46.3
582.283	46.5
582.622	46.69
582.961	46.88
583.3	47.08
583.639	47.27
583.977	47.46
584.316	47.65
584.654	47.84
584.993	48.02
585.332	48.19
585.67	48.36
586.008	48.53
586.347	48.7
586.685	48.88
587.024	49.04
587.362	49.21
587.7	49.37
588.038	49.55
588.376	49.73
588.715	49.9
589.053	50.08
589.391	50.25
589.729	50.42
590.067	50.59
590.404	50.76
590.742	50.91
591.08	51.07
591.418	51.21
591.756	51.37
592.093	51.5
592.431	51.63
592.769	51.75
593.106	51.86
593.444	51.97
593.781	52.08
594.119	52.19
594.456	52.3
594.793	52.41
595.131	52.52
595.468	52.64
595.805	52.76
596.143	52.88
596.48	53
596.817	53.13
597.154	53.25
597.491	53.37
597.828	53.49
598.165	53.61
598.502	53.73
598.839	53.85
599.176	53.97
599.512	54.07
599.849	54.17
600.186	54.26
600.523	54.37
600.859	54.46
601.196	54.55
601.532	54.64
601.869	54.72
602.205	54.8
602.542	54.89
602.878	54.96
603.215	55.05
603.551	55.12
603.887	55.19
604.223	55.26
604.56	55.34
604.896	55.41
605.232	55.48
605.568	55.53
605.904	55.6
606.24	55.67
606.576	55.73
606.912	55.79
607.248	55.85
607.583	55.91
607.919	55.96
608.255	56.02
608.591	56.08
608.926	56.13
609.262	56.17
609.597	56.21
609.933	56.25
610.268	56.3
610.604	56.34
610.939	56.37
611.275	56.41
611.61	56.45
611.945	56.48
612.281	56.51
612.616	56.55
612.951	56.58
613.286	56.63
613.621	56.67
613.956	56.71
614.291	56.74
614.626	56.78
614.961	56.81
615.296	56.86
615.631	56.9
615.966	56.93
616.3	56.96
616.635	56.99
616.97	57.01
617.304	57.05
617.639	57.1
617.973	57.13
618.308	57.16
618.642	57.2
618.977	57.26
619.311	57.31
619.646	57.35
619.98	57.39
620.314	57.44
620.648	57.5
620.983	57.54
621.317	57.56
621.651	57.62
621.985	57.68
622.319	57.73
622.653	57.76
622.987	57.8
623.321	57.85
623.655	57.89
623.988	57.92
624.322	57.95
624.656	57.99
624.99	58.03
625.323	58.07
625.657	58.1
625.99	58.14
626.324	58.18
626.657	58.22
626.991	58.24
627.324	58.26
627.658	58.28
627.991	58.31
628.324	58.34
628.657	58.37
628.991	58.39
629.324	58.42
629.657	58.45
629.99	58.49
630.323	58.52
630.656	58.55
630.989	58.58
631.322	58.6
631.655	58.64
631.987	58.67
632.32	58.68
632.653	58.7
632.986	58.72
633.318	58.74
633.651	58.75
633.984	58.79
634.316	58.8
634.649	58.82
634.981	58.87
635.313	58.88
635.646	58.9
635.978	58.92
636.31	58.94
636.643	58.97
636.975	58.98
637.307	59
637.639	59.03
637.971	59.05
638.303	59.07
638.635	59.09
638.967	59.09
639.299	59.11
639.631	59.13
639.963	59.14
640.295	59.18
640.626	59.21
640.958	59.25
641.29	59.29
641.621	59.31
641.953	59.33
642.285	59.37
642.616	59.4
642.948	59.41
643.279	59.43
643.61	59.45
643.942	59.47
644.273	59.49
644.604	59.51
644.936	59.53
645.267	59.54
645.598	59.57
645.929	59.6
646.26	59.62
646.591	59.64
646.922	59.67
647.253	59.71
647.584	59.72
647.915	59.75
648.245	59.77
648.576	59.78
648.907	59.79
649.238	59.8
649.568	59.81
649.899	59.82
650.229	59.85
650.56	59.87
650.89	59.92
651.221	59.94
651.551	59.96
651.882	59.99
652.212	60.02
652.542	60.05
652.872	60.08
653.203	60.09
653.533	60.12
653.863	60.13
654.193	60.13
654.523	60.14
654.853	60.14
655.183	60.16
655.513	60.18
655.843	60.18
656.172	60.21
656.502	60.22
656.832	60.23
657.162	60.25
657.491	60.26
657.821	60.26
658.15	60.28
658.48	60.27
658.809	60.29
659.139	60.3
659.468	60.31
659.798	60.33
660.127	60.34
660.456	60.36
660.785	60.37
661.115	60.39
661.444	60.4
661.773	60.41
662.102	60.43
662.431	60.45
662.76	60.47
663.089	60.48
663.418	60.49
663.747	60.5
664.076	60.52
664.404	60.51
664.733	60.51
665.062	60.52
665.39	60.52
665.719	60.52
666.048	60.51
666.376	60.52
666.705	60.53
667.033	60.54
667.362	60.56
667.69	60.58
668.018	60.58
668.347	60.59
668.675	60.59
669.003	60.62
669.331	60.63
669.659	60.63
669.987	60.65
670.315	60.67
670.643	60.67
670.971	60.69
671.299	60.72
671.627	60.73
671.955	60.76
672.283	60.78
672.61	60.81
672.938	60.8
673.266	60.78
673.593	60.8
673.921	60.81
674.249	60.84
674.576	60.85
674.904	60.83
675.231	60.86
675.558	60.86
675.886	60.86
676.213	60.87
676.54	60.88
676.867	60.89
677.195	60.89
677.522	60.89
677.849	60.91
678.176	60.92
678.503	60.92
678.83	60.94
679.157	60.95
679.484	60.97
679.81	60.98
680.137	60.98
680.464	61.01
680.791	61.02
681.117	61.03
681.444	61.07
681.771	61.08
682.097	61.1
682.424	61.1
682.75	61.12
683.077	61.12
683.403	61.12
683.729	61.13
684.056	61.14
684.382	61.13
684.708	61.15
685.034	61.16
685.36	61.17
685.686	61.17
686.012	61.17
686.339	61.19
686.664	61.22
686.99	61.23
687.316	61.23
687.642	61.25
687.968	61.25
688.294	61.28
688.619	61.29
688.945	61.3
689.271	61.34
689.596	61.35
689.922	61.35
690.247	61.37
690.573	61.38
690.898	61.4
691.224	61.41
691.549	61.43
691.874	61.45
692.2	61.45
692.525	61.49
692.85	61.5
693.175	61.5
693.5	61.52
693.825	61.52
694.15	61.48
694.475	61.47
694.8	61.46
695.125	61.46
695.45	61.47
695.775	61.47
696.099	61.48
696.424	61.49
696.749	61.49
697.073	61.5
697.398	61.52
697.723	61.54
698.047	61.54
698.372	61.56
698.696	61.58
699.02	61.58
699.345	61.58
699.669	61.6
699.993	61.61
700.318	61.61
700.642	61.61
700.966	61.61
701.29	61.62
701.614	61.63
701.938	61.6
702.262	61.61
702.586	61.6
702.91	61.63
703.234	61.64
703.557	61.65
703.881	61.67
704.205	61.67
704.529	61.68
704.852	61.69
705.176	61.7
705.499	61.71
705.823	61.7
706.146	61.69
706.47	61.71
706.793	61.72
707.117	61.76
707.44	61.8
707.763	61.83
708.086	61.86
708.409	61.89
708.733	61.9
709.056	61.91
709.379	61.92
709.702	61.93
710.025	61.99
710.348	62.03
710.671	62.01
710.993	62.02
711.316	62.03
711.639	62.04
711.962	62.05
712.284	62.05
712.607	62.07
712.93	62.08
713.252	62.07
713.575	62.09
713.897	62.11
714.22	62.13
714.542	62.16
714.864	62.13
715.187	62.18
715.509	62.19
715.831	62.2
716.153	62.18
716.475	62.18
716.798	62.19
717.12	62.21
717.442	62.23
717.764	62.25
718.085	62.24
718.407	62.26
718.729	62.26
719.051	62.25
719.373	62.32
719.695	62.33
720.016	62.34
720.338	62.33
720.659	62.36
720.981	62.4
721.302	62.4
721.624	62.41
721.945	62.42
722.267	62.44
722.588	62.44
722.909	62.46
723.231	62.46
723.552	62.43
723.873	62.46
724.194	62.47
724.515	62.49
724.836	62.48
725.157	62.47
725.478	62.47
725.799	62.49
726.12	62.51
726.441	62.57
726.762	62.58
727.083	62.58
727.403	62.56
727.724	62.54
728.045	62.61
728.365	62.62
728.686	62.63
729.006	62.66
729.327	62.68
729.647	62.71
729.967	62.71
730.288	62.68
730.608	62.69
730.928	62.69
731.249	62.73
731.569	62.72
731.889	62.73
732.209	62.75
732.529	62.7
732.849	62.7
733.169	62.71
733.489	62.73
733.809	62.71
734.129	62.68
734.448	62.67
734.768	62.67
735.088	62.69
735.408	62.68
735.727	62.7
736.047	62.69
736.366	62.67
736.686	62.68
737.005	62.67
737.325	62.67
737.644	62.64
737.963	62.62
738.283	62.62
738.602	62.67
738.921	62.67
739.24	62.66
739.56	62.64
739.879	62.62
740.198	62.63
740.517	62.64
740.836	62.65
741.155	62.64
741.473	62.64
741.792	62.63
742.111	62.57
742.43	62.59
742.748	62.6
743.067	62.58
743.386	62.61
743.704	62.58
744.023	62.54
744.341	62.51
744.66	62.52
744.978	62.53
745.297	62.54
745.615	62.55
745.933	62.54
746.252	62.49
746.57	62.48
746.888	62.49
747.206	62.49
747.524	62.49
747.842	62.5
748.16	62.44
748.478	62.44
748.796	62.43
749.114	62.44
749.432	62.45
749.749	62.45
750.067	62.48
750.385	62.5
750.703	62.52
751.02	62.52
751.338	62.56
751.655	62.53
751.973	62.52
752.29	62.5
752.608	62.47
752.925	62.49
753.242	62.48
753.56	62.48
753.877	62.52
754.194	62.53
754.511	62.5
754.828	62.52
755.145	62.55
755.462	62.55
755.779	62.6
756.096	62.64
756.413	62.66
756.73	62.67
757.047	62.69
757.364	62.73
757.68	62.78
757.997	62.77
758.314	62.79
758.63	62.83
758.947	62.9
759.264	62.96
759.58	62.99
759.896	62.98
760.213	63.01
760.529	63.03
760.846	63.04
761.162	63.09
761.478	63.09
761.794	63.12
762.11	63.13
762.426	63.13
762.743	63.13
763.059	63.1
763.375	63.1
763.69	63.12
764.006	63.13
764.322	63.1
764.638	63.1
764.954	63.11
765.27	63.13
765.585	63.14
765.901	63.12
766.216	63.14
766.532	63.11
766.848	63.12
767.163	63.1
767.478	63.13
767.794	63.11
768.109	63.11
768.424	63.07
768.74	63.03
769.055	63.02
769.37	63.01
769.685	63.01
770	63.03
770.315	63.02
770.63	62.99
770.945	63.02
771.26	62.98
771.575	62.92
771.89	62.87
772.205	62.82
772.52	62.81
772.834	62.83
773.149	62.82
773.464	62.77
773.778	62.74
774.093	62.69
774.407	62.65
774.722	62.61
775.036	62.61
775.351	62.61
775.665	62.64
775.979	62.67
776.293	62.65
776.608	62.67
776.922	62.66
777.236	62.68
777.55	62.7
777.864	62.69
778.178	62.7
778.492	62.72
778.806	62.7
779.12	62.69
779.434	62.77
779.747	62.73
780.061	62.78
780.375	62.75
780.689	62.76
781.002	62.75
781.316	62.81
781.629	62.84
781.943	62.83
782.256	62.84
782.57	62.84
782.883	62.88
783.196	62.88
783.51	62.87
783.823	62.86
784.136	62.88
784.449	62.91
784.762	62.89
785.075	62.92
785.388	62.93
785.701	62.93
786.014	62.92
786.327	62.95
786.64	63.01
786.953	63.05
787.266	63.07
787.578	63.07
787.891	63.09
788.204	63.11
788.516	63.1
788.829	63.12
789.141	63.14
789.454	63.13
789.766	63.15
790.079	63.12
790.391	63.1
790.703	63.14
791.016	63.15
791.328	63.16
791.64	63.21
791.952	63.18
792.264	63.13
792.576	63.14
792.888	63.1
793.2	63.15
793.512	63.17
793.824	63.21
794.136	63.19
794.448	63.14
794.76	63.18
795.071	63.17
795.383	63.19
795.695	63.18
796.006	63.15
796.318	63.11
796.629	63.09
796.941	63.09
797.252	63.07
797.564	63.08
797.875	63.07
798.186	63.01
798.497	62.95
798.809	62.96
799.12	62.95
799.431	62.9
799.742	62.89
800.053	62.94
800.364	62.9
800.675	62.82
800.986	62.79
801.297	62.77
801.608	62.77
801.918	62.75
802.229	62.71
802.54	62.71
802.851	62.75
803.161	62.76
803.472	62.73
803.782	62.7
804.093	62.63
804.403	62.63
804.714	62.7
805.024	62.72
805.334	62.65
805.645	62.63
805.955	62.58
806.265	62.55
806.575	62.56
806.885	62.53
807.195	62.58
807.505	62.57
807.815	62.58
808.125	62.56
808.435	62.57
808.745	62.55
809.055	62.57
809.365	62.56
809.674	62.58
809.984	62.64
810.294	62.68
810.603	62.68
810.913	62.7
811.222	62.77
811.532	62.81
811.841	62.81
812.151	62.81
812.46	62.86
812.769	62.85
813.079	62.95
813.388	63.02
813.697	63.07
814.006	63.11
814.315	63.14
814.624	63.16
814.933	63.21
815.242	63.25
815.551	63.26
815.86	63.33
816.169	63.37
816.478	63.38
816.786	63.31
817.095	63.31
817.404	63.26
817.712	63.29
818.021	63.35
818.33	63.33
818.638	63.39
818.947	63.4
819.255	63.39
819.563	63.41
819.872	63.5
820.18	63.52
820.488	63.56
820.796	63.55
821.105	63.61
821.413	63.62
821.721	63.66
822.029	63.69
822.337	63.7
822.645	63.72
822.953	63.71
823.26	63.7
823.568	63.71
823.876	63.69
824.184	63.69
824.491	63.71
824.799	63.73
825.107	63.7
825.414	63.68
825.722	63.68
826.029	63.69
826.337	63.68
826.644	63.67
826.951	63.66
827.259	63.66
827.566	63.66
827.873	63.64
828.18	63.64
828.488	63.63
828.795	63.62
829.102	63.62
829.409	63.67
829.716	63.67
830.023	63.7
830.329	63.69
830.636	63.7
830.943	63.72
831.25	63.7
831.557	63.76
831.863	63.76
832.17	63.76
832.476	63.65
832.783	63.6
833.089	63.54
833.396	63.56
833.702	63.47
834.009	63.5
834.315	63.41
834.621	63.39
834.928	63.38
835.234	63.31
835.54	63.29
835.846	63.27
836.152	63.24
836.458	63.28
836.764	63.27
837.07	63.24
837.376	63.2
837.682	63.21
837.988	63.29
838.293	63.32
838.599	63.27
838.905	63.27
839.211	63.28
839.516	63.27
839.822	63.28
840.127	63.26
840.433	63.28
840.738	63.3
841.044	63.3
841.349	63.31
841.654	63.27
841.959	63.26
842.265	63.26
842.57	63.2
842.875	63.22
843.18	63.06
843.485	63.15
843.79	63.13
844.095	62.96
844.4	63.05
844.705	63.11
845.01	63.18
845.315	63.25
845.619	63.22
845.924	63.15
846.229	63.18
846.533	63.23
846.838	63.37
847.142	63.3
847.447	63.28
847.751	63.39
848.056	63.36
848.36	63.5
848.664	63.51
848.969	63.51
849.273	63.42
849.577	63.35
849.881	63.33
850.185	63.38
850.489	63.27
850.794	63.08
851.097	63.22
851.401	63.25
851.705	63.13
852.009	63.26
852.313	63.27
852.617	63.23
852.92	63.24
853.224	63.2
853.528	63.14
853.831	63.22
854.135	63.24
854.438	63.28
854.742	63.17
855.045	63.23
855.349	63.19
855.652	63.49
855.955	63.41
856.259	63.46
856.562	63.42
856.865	63.31
857.168	63.14
857.471	62.98
857.774	63
858.077	63.07
858.38	63.08
858.683	62.89
858.986	62.84
859.289	62.73
859.592	62.71
859.894	62.66
860.197	62.68
860.5	62.84
860.802	62.63
861.105	62.84
861.407	62.68
861.71	62.62
862.012	62.59
862.315	62.65
862.617	62.83
862.919	62.79
863.222	62.93
863.524	62.79
863.826	62.8
864.128	62.89
864.43	62.85
864.732	62.76
865.034	62.72
865.336	62.65
865.638	62.63
865.94	62.68
866.242	62.61
866.544	62.59
866.846	62.52
867.147	62.63
867.449	62.7
867.751	62.56
868.052	62.44
868.354	62.37
868.655	62.3
868.957	62.33
869.258	62.44
869.56	62.49
869.861	62.77
870.162	62.62
870.463	62.74
870.765	62.73
871.066	62.86
871.367	62.79
871.668	62.76
871.969	62.8
872.27	62.65
872.571	62.51
872.872	62.43
873.173	62.56
873.473	62.43
873.774	62.46
874.075	62.49
874.376	62.53
874.676	62.42
874.977	62.2
875.277	62.24
875.578	62.01
875.878	62.05
876.179	61.99
876.479	61.97
876.78	61.92
877.08	61.97
877.38	62.1
877.68	62.16
877.981	62.14
878.281	61.99
878.581	61.95
