Data from UWBM59058_Reflection_00008.txt Node
Date: Sun May 02 13:00:37 EDT 2021
User: vgr7
Spectrometer: USB2G7710
Scans to average: 10
Trigger mode: 4
Integration Time (sec): 1.000000E-1
Electric dark correction enabled: true
Boxcar width: 20
XAxis mode: Wavelengths
Number of Pixels in Spectrum: 2048
>>>>>Begin Spectral Data<<<<<
177.721	99.52
178.105	98.92
178.488	99.74
178.871	100.65
179.254	98.78
179.636	98.18
180.019	97.84
180.402	95.38
180.785	93.23
181.168	89.55
181.55	86.79
181.933	111.49
182.316	111.85
182.698	112.93
183.081	114.41
183.463	114.19
183.846	115.08
184.228	116.89
184.611	120.03
184.993	123.66
185.376	126.66
185.758	-25.75
186.14	-1.94
186.522	14.42
186.904	20.91
187.287	27.02
187.669	30.86
188.051	30.26
188.433	31.61
188.815	25.89
189.197	23.88
189.579	25.28
189.961	26.21
190.342	24.78
190.724	27.03
191.106	25.56
191.488	26.33
191.869	24.75
192.251	24.74
192.633	22
193.014	19.93
193.396	20.21
193.777	24.41
194.159	23.48
194.54	20.65
194.922	22.44
195.303	23.65
195.684	23.04
196.065	22.9
196.447	21.45
196.828	22.62
197.209	23.61
197.59	14.56
197.971	13.11
198.352	13.56
198.733	14.26
199.114	11.26
199.495	9.67
199.876	10.55
200.257	10.19
200.638	9.88
201.018	5.8
201.399	4.03
201.78	3.31
202.16	3.6
202.541	5.45
202.922	5.96
203.302	1.85
203.683	1.38
204.063	1.37
204.444	3.18
204.824	7
205.204	8.09
205.585	15.97
205.965	15.59
206.345	16.7
206.725	12.44
207.106	11.8
207.486	11.81
207.866	12.71
208.246	12.49
208.626	14.94
209.006	19.02
209.386	15.92
209.766	15.97
210.145	16.19
210.525	13.69
210.905	13.95
211.285	15.08
211.664	14.06
212.044	15.99
212.424	16.05
212.803	11.79
213.183	13.54
213.562	14.2
213.942	13.43
214.321	12.26
214.701	12.4
215.08	14.24
215.459	14.01
215.838	12.53
216.218	11.83
216.597	10.8
216.976	9.29
217.355	9.24
217.734	9.26
218.113	8.71
218.492	9.54
218.871	10.81
219.25	11.5
219.629	11.21
220.008	11.98
220.387	11.77
220.766	11.86
221.144	10.14
221.523	11.47
221.902	11.46
222.28	11.61
222.659	12.18
223.037	11.93
223.416	12.21
223.794	12.44
224.173	11.86
224.551	11.31
224.929	11.57
225.308	11.98
225.686	11.24
226.064	11.83
226.442	11.53
226.821	10.49
227.199	10.4
227.577	9.45
227.955	8.64
228.333	8.42
228.711	8.31
229.089	8.31
229.467	7.91
229.845	8.43
230.222	8.41
230.6	8.82
230.978	8.71
231.356	8.44
231.733	8.67
232.111	8.61
232.488	8.12
232.866	8.08
233.243	7.41
233.621	7.29
233.998	7.02
234.376	6.94
234.753	6.95
235.13	6.83
235.508	7.18
235.885	6.97
236.262	6.84
236.639	6.93
237.016	6.74
237.393	6.55
237.77	6.3
238.147	6.2
238.524	6.18
238.901	6.12
239.278	6.04
239.655	5.95
240.032	5.81
240.409	5.79
240.785	5.66
241.162	5.66
241.539	5.53
241.915	5.53
242.292	5.53
242.668	5.47
243.045	5.45
243.421	5.34
243.798	5.28
244.174	5.24
244.551	5.16
244.927	5
245.303	4.95
245.679	4.95
246.056	4.86
246.432	4.82
246.808	4.6
247.184	4.56
247.56	4.51
247.936	4.53
248.312	4.54
248.688	4.64
249.064	4.6
249.44	4.58
249.815	4.58
250.191	4.5
250.567	4.48
250.943	4.52
251.318	4.53
251.694	4.48
252.069	4.41
252.445	4.43
252.82	4.53
253.196	4.55
253.571	4.5
253.947	4.56
254.322	4.52
254.697	4.66
255.073	4.64
255.448	4.63
255.823	4.61
256.198	4.58
256.573	4.43
256.948	4.44
257.323	4.43
257.698	4.38
258.073	4.36
258.448	4.23
258.823	4.22
259.198	4.22
259.573	4.24
259.948	4.31
260.322	4.27
260.697	4.26
261.072	4.25
261.446	4.24
261.821	4.22
262.195	4.19
262.57	4.17
262.944	4.18
263.319	4.15
263.693	4.17
264.067	4.17
264.442	4.26
264.816	4.24
265.19	4.23
265.564	4.27
265.938	4.24
266.313	4.29
266.687	4.25
267.061	4.25
267.435	4.24
267.809	4.22
268.183	4.19
268.556	4.2
268.93	4.19
269.304	4.17
269.678	4.14
270.051	4.12
270.425	4.12
270.799	4.13
271.172	4.12
271.546	4.13
271.919	4.13
272.293	4.11
272.666	4.12
273.04	4.13
273.413	4.08
273.787	4.07
274.16	4.09
274.533	4.12
274.906	4.1
275.279	4.09
275.653	4.08
276.026	4.06
276.399	4.03
276.772	4.02
277.145	4.05
277.518	4.07
277.891	4.1
278.263	4.09
278.636	4.09
279.009	4.1
279.382	4.08
279.755	4.02
280.127	4.05
280.5	4.06
280.872	4.04
281.245	4.15
281.617	4.16
281.99	4.18
282.362	4.2
282.735	4.19
283.107	4.19
283.479	4.21
283.852	4.24
284.224	4.27
284.596	4.25
284.968	4.15
285.34	4.14
285.713	4.13
286.085	4.07
286.457	4.08
286.829	4.07
287.201	4.08
287.572	4.14
287.944	4.15
288.316	4.19
288.688	4.24
289.06	4.26
289.431	4.26
289.803	4.27
290.175	4.31
290.546	4.34
290.918	4.37
291.289	4.38
291.661	4.41
292.032	4.39
292.403	4.43
292.775	4.53
293.146	4.55
293.517	4.59
293.889	4.69
294.26	4.72
294.631	4.76
295.002	4.83
295.373	4.87
295.744	4.87
296.115	4.91
296.486	4.87
296.857	4.91
297.228	4.94
297.599	4.97
297.97	5.01
298.34	5.06
298.711	5.03
299.082	5.07
299.452	5.13
299.823	5.21
300.194	5.25
300.564	5.29
300.935	5.34
301.305	5.35
301.676	5.37
302.046	5.4
302.416	5.46
302.787	5.51
303.157	5.49
303.527	5.55
303.897	5.61
304.267	5.67
304.637	5.74
305.008	5.81
305.378	5.89
305.748	5.93
306.117	6.03
306.487	6.14
306.857	6.25
307.227	6.3
307.597	6.34
307.967	6.39
308.336	6.45
308.706	6.52
309.076	6.57
309.445	6.6
309.815	6.55
310.184	6.58
310.554	6.59
310.923	6.68
311.293	6.76
311.662	6.8
312.031	6.83
312.401	6.88
312.77	6.9
313.139	6.94
313.508	7
313.877	7.01
314.246	7.05
314.616	7.07
314.985	7.08
315.353	7.14
315.722	7.19
316.091	7.24
316.46	7.31
316.829	7.39
317.198	7.47
317.567	7.66
317.935	7.73
318.304	7.84
318.672	7.93
319.041	8.01
319.41	8.09
319.778	8.17
320.147	8.24
320.515	8.29
320.883	8.35
321.252	8.37
321.62	8.47
321.988	8.54
322.357	8.61
322.725	8.73
323.093	8.79
323.461	8.83
323.829	8.9
324.197	8.96
324.565	8.99
324.933	9.05
325.301	9.11
325.669	9.17
326.037	9.22
326.405	9.23
326.772	9.28
327.14	9.33
327.508	9.37
327.875	9.42
328.243	9.46
328.61	9.48
328.978	9.54
329.346	9.58
329.713	9.62
330.08	9.66
330.448	9.68
330.815	9.71
331.182	9.77
331.55	9.81
331.917	9.86
332.284	9.89
332.651	9.94
333.018	10
333.385	10.05
333.752	10.09
334.119	10.13
334.486	10.18
334.853	10.19
335.22	10.24
335.587	10.28
335.954	10.33
336.32	10.39
336.687	10.41
337.054	10.43
337.42	10.48
337.787	10.51
338.153	10.56
338.52	10.63
338.886	10.69
339.253	10.7
339.619	10.74
339.986	10.75
340.352	10.77
340.718	10.8
341.084	10.82
341.451	10.84
341.817	10.86
342.183	10.87
342.549	10.92
342.915	10.95
343.281	10.99
343.647	11.02
344.013	11.07
344.379	11.1
344.745	11.12
345.11	11.15
345.476	11.2
345.842	11.22
346.208	11.21
346.573	11.21
346.939	11.25
347.304	11.27
347.67	11.28
348.035	11.29
348.401	11.29
348.766	11.32
349.132	11.33
349.497	11.36
349.862	11.38
350.228	11.4
350.593	11.4
350.958	11.4
351.323	11.38
351.688	11.39
352.053	11.39
352.418	11.39
352.783	11.39
353.148	11.38
353.513	11.36
353.878	11.36
354.243	11.36
354.608	11.34
354.972	11.32
355.337	11.31
355.702	11.28
356.066	11.27
356.431	11.24
356.795	11.23
357.16	11.19
357.524	11.17
357.889	11.15
358.253	11.13
358.618	11.12
358.982	11.11
359.346	11.09
359.71	11.07
360.075	11.04
360.439	11.01
360.803	10.97
361.167	10.95
361.531	10.94
361.895	10.91
362.259	10.89
362.623	10.86
362.987	10.83
363.351	10.81
363.714	10.78
364.078	10.74
364.442	10.7
364.806	10.67
365.169	10.63
365.533	10.58
365.896	10.54
366.26	10.5
366.623	10.45
366.987	10.4
367.35	10.35
367.714	10.31
368.077	10.26
368.44	10.2
368.803	10.15
369.167	10.09
369.53	10.03
369.893	9.98
370.256	9.92
370.619	9.87
370.982	9.8
371.345	9.73
371.708	9.67
372.071	9.6
372.434	9.54
372.797	9.49
373.159	9.43
373.522	9.37
373.885	9.29
374.247	9.21
374.61	9.14
374.973	9.07
375.335	9
375.698	8.94
376.06	8.87
376.423	8.81
376.785	8.74
377.147	8.67
377.51	8.61
377.872	8.54
378.234	8.48
378.596	8.43
378.958	8.38
379.321	8.32
379.683	8.26
380.045	8.19
380.407	8.14
380.769	8.07
381.13	8.03
381.492	7.98
381.854	7.93
382.216	7.88
382.578	7.83
382.939	7.79
383.301	7.73
383.663	7.69
384.024	7.63
384.386	7.58
384.747	7.53
385.109	7.48
385.47	7.43
385.832	7.39
386.193	7.34
386.554	7.29
386.916	7.25
387.277	7.2
387.638	7.17
387.999	7.13
388.36	7.09
388.721	7.06
389.082	7.02
389.443	6.99
389.804	6.95
390.165	6.91
390.526	6.88
390.887	6.84
391.248	6.8
391.609	6.76
391.969	6.73
392.33	6.69
392.691	6.66
393.051	6.62
393.412	6.57
393.772	6.54
394.133	6.5
394.493	6.46
394.854	6.42
395.214	6.38
395.574	6.34
395.935	6.3
396.295	6.26
396.655	6.22
397.015	6.18
397.376	6.13
397.736	6.1
398.096	6.06
398.456	6.03
398.816	6.01
399.176	5.96
399.535	5.94
399.895	5.9
400.255	5.87
400.615	5.83
400.975	5.81
401.334	5.78
401.694	5.75
402.054	5.72
402.413	5.68
402.773	5.65
403.132	5.64
403.492	5.61
403.851	5.58
404.211	5.56
404.57	5.55
404.929	5.54
405.288	5.52
405.648	5.5
406.007	5.49
406.366	5.48
406.725	5.46
407.084	5.45
407.443	5.43
407.802	5.41
408.161	5.39
408.52	5.37
408.879	5.36
409.238	5.35
409.596	5.34
409.955	5.34
410.314	5.33
410.673	5.31
411.031	5.3
411.39	5.3
411.748	5.29
412.107	5.28
412.465	5.28
412.824	5.29
413.182	5.29
413.54	5.31
413.899	5.32
414.257	5.34
414.615	5.38
414.974	5.4
415.332	5.44
415.69	5.47
416.048	5.48
416.406	5.52
416.764	5.54
417.122	5.57
417.48	5.59
417.838	5.61
418.195	5.63
418.553	5.64
418.911	5.64
419.269	5.63
419.626	5.62
419.984	5.6
420.342	5.57
420.699	5.54
421.057	5.51
421.414	5.48
421.772	5.46
422.129	5.44
422.486	5.43
422.844	5.42
423.201	5.41
423.558	5.4
423.915	5.38
424.273	5.37
424.63	5.36
424.987	5.35
425.344	5.34
425.701	5.33
426.058	5.32
426.415	5.31
426.772	5.3
427.128	5.29
427.485	5.27
427.842	5.25
428.199	5.23
428.555	5.21
428.912	5.17
429.269	5.14
429.625	5.11
429.982	5.07
430.338	5.03
430.695	5.01
431.051	4.96
431.407	4.93
431.764	4.91
432.12	4.88
432.476	4.86
432.832	4.85
433.189	4.86
433.545	4.86
433.901	4.87
434.257	4.89
434.613	4.92
434.969	4.95
435.325	4.98
435.681	5.03
436.036	5.04
436.392	5.07
436.748	5.08
437.104	5.08
437.459	5.1
437.815	5.12
438.171	5.14
438.526	5.17
438.882	5.2
439.237	5.24
439.593	5.28
439.948	5.31
440.304	5.35
440.659	5.38
441.014	5.4
441.369	5.43
441.725	5.45
442.08	5.47
442.435	5.47
442.79	5.48
443.145	5.47
443.5	5.47
443.855	5.47
444.21	5.47
444.565	5.46
444.92	5.44
445.275	5.43
445.629	5.41
445.984	5.4
446.339	5.39
446.693	5.38
447.048	5.35
447.403	5.33
447.757	5.3
448.112	5.27
448.466	5.24
448.82	5.22
449.175	5.19
449.529	5.16
449.883	5.14
450.238	5.1
450.592	5.1
450.946	5.09
451.3	5.08
451.654	5.09
452.008	5.08
452.362	5.08
452.716	5.08
453.07	5.08
453.424	5.07
453.778	5.06
454.132	5.04
454.486	5.02
454.839	5
455.193	4.97
455.547	4.96
455.9	4.92
456.254	4.89
456.607	4.86
456.961	4.83
457.314	4.81
457.668	4.8
458.021	4.8
458.375	4.79
458.728	4.79
459.081	4.8
459.434	4.81
459.787	4.82
460.141	4.84
460.494	4.85
460.847	4.85
461.2	4.86
461.553	4.88
461.906	4.88
462.259	4.9
462.611	4.9
462.964	4.91
463.317	4.92
463.67	4.94
464.022	4.95
464.375	4.95
464.728	4.96
465.08	4.97
465.433	4.98
465.785	4.98
466.138	4.97
466.49	4.96
466.843	4.95
467.195	4.94
467.547	4.92
467.899	4.91
468.252	4.88
468.604	4.86
468.956	4.85
469.308	4.84
469.66	4.85
470.012	4.85
470.364	4.86
470.716	4.87
471.068	4.9
471.42	4.93
471.772	4.96
472.123	4.98
472.475	5
472.827	5.02
473.178	5.04
473.53	5.05
473.882	5.07
474.233	5.1
474.585	5.14
474.936	5.22
475.288	5.32
475.639	5.46
475.99	5.62
476.342	5.8
476.693	5.99
477.044	6.18
477.395	6.38
477.746	6.58
478.097	6.78
478.448	6.98
478.8	7.18
479.15	7.36
479.501	7.52
479.852	7.67
480.203	7.81
480.554	7.94
480.905	8.07
481.255	8.2
481.606	8.32
481.957	8.42
482.307	8.53
482.658	8.63
483.009	8.72
483.359	8.82
483.709	8.91
484.06	8.99
484.41	9.08
484.761	9.16
485.111	9.24
485.461	9.31
485.811	9.38
486.162	9.44
486.512	9.5
486.862	9.54
487.212	9.57
487.562	9.6
487.912	9.61
488.262	9.61
488.612	9.61
488.961	9.59
489.311	9.55
489.661	9.47
490.011	9.37
490.36	9.25
490.71	9.11
491.06	8.96
491.409	8.8
491.759	8.63
492.108	8.47
492.458	8.3
492.807	8.11
493.157	7.94
493.506	7.77
493.855	7.61
494.204	7.47
494.554	7.33
494.903	7.21
495.252	7.09
495.601	6.98
495.95	6.87
496.299	6.78
496.648	6.7
496.997	6.62
497.346	6.55
497.695	6.48
498.043	6.43
498.392	6.37
498.741	6.33
499.09	6.28
499.438	6.25
499.787	6.22
500.135	6.2
500.484	6.2
500.832	6.21
501.181	6.23
501.529	6.27
501.878	6.33
502.226	6.4
502.574	6.48
502.923	6.57
503.271	6.66
503.619	6.76
503.967	6.86
504.315	6.96
504.663	7.07
505.011	7.18
505.359	7.29
505.707	7.41
506.055	7.53
506.403	7.66
506.751	7.8
507.098	7.93
507.446	8.08
507.794	8.24
508.141	8.4
508.489	8.58
508.837	8.76
509.184	8.94
509.531	9.13
509.879	9.33
510.226	9.55
510.574	9.77
510.921	9.99
511.268	10.23
511.616	10.48
511.963	10.74
512.31	11
512.657	11.26
513.004	11.51
513.351	11.77
513.698	12
514.045	12.23
514.392	12.45
514.739	12.66
515.086	12.86
515.432	13.07
515.779	13.28
516.126	13.5
516.473	13.74
516.819	13.99
517.166	14.26
517.512	14.55
517.859	14.86
518.205	15.19
518.552	15.55
518.898	15.94
519.245	16.38
519.591	16.89
519.937	17.49
520.283	18.18
520.629	18.92
520.976	19.7
521.322	20.51
521.668	21.33
522.014	22.14
522.36	22.96
522.706	23.75
523.052	24.54
523.398	25.27
523.743	25.96
524.089	26.58
524.435	27.17
524.781	27.74
525.126	28.3
525.472	28.85
525.817	29.38
526.163	29.91
526.509	30.42
526.854	30.92
527.199	31.42
527.545	31.92
527.89	32.42
528.235	32.93
528.581	33.41
528.926	33.86
529.271	34.28
529.616	34.69
529.961	35.07
530.306	35.41
530.651	35.73
530.996	36.02
531.341	36.28
531.686	36.52
532.031	36.75
532.376	37
532.721	37.27
533.065	37.57
533.41	37.88
533.755	38.14
534.099	38.34
534.444	38.51
534.788	38.64
535.133	38.74
535.477	38.82
535.822	38.86
536.166	38.86
536.51	38.8
536.855	38.68
537.199	38.52
537.543	38.37
537.887	38.26
538.231	38.18
538.576	38.11
538.92	38.03
539.264	37.94
539.608	37.82
539.951	37.68
540.295	37.54
540.639	37.38
540.983	37.2
541.327	37.01
541.671	36.82
542.014	36.66
542.358	36.51
542.701	36.47
543.045	36.47
543.389	36.51
543.732	36.56
544.075	36.64
544.419	36.73
544.762	36.82
545.105	36.93
545.449	37.07
545.792	37.21
546.135	37.35
546.478	37.44
546.821	37.48
547.165	37.45
547.508	37.36
547.851	37.22
548.194	37.03
548.536	36.8
548.879	36.53
549.222	36.24
549.565	35.94
549.908	35.65
550.25	35.4
550.593	35.19
550.936	35.07
551.278	35
551.621	34.97
551.963	34.97
552.306	34.99
552.648	35.04
552.991	35.12
553.333	35.22
553.675	35.36
554.017	35.54
554.36	35.72
554.702	35.96
555.044	36.23
555.386	36.54
555.728	36.86
556.07	37.13
556.412	37.41
556.754	37.58
557.096	37.76
557.438	37.92
557.78	38.1
558.121	38.27
558.463	38.43
558.805	38.61
559.147	38.78
559.488	38.95
559.83	39.12
560.171	39.27
560.513	39.43
560.854	39.58
561.196	39.74
561.537	39.89
561.878	40.03
562.22	40.19
562.561	40.32
562.902	40.47
563.243	40.62
563.584	40.76
563.925	40.91
564.266	41.04
564.607	41.18
564.948	41.32
565.289	41.45
565.63	41.59
565.971	41.72
566.312	41.86
566.653	42
566.993	42.12
567.334	42.24
567.675	42.36
568.015	42.49
568.356	42.61
568.696	42.71
569.037	42.81
569.377	42.91
569.718	43.01
570.058	43.11
570.398	43.21
570.739	43.3
571.079	43.38
571.419	43.46
571.759	43.53
572.099	43.61
572.439	43.68
572.779	43.76
573.119	43.82
573.459	43.89
573.799	43.96
574.139	44.05
574.479	44.12
574.819	44.18
575.158	44.24
575.498	44.3
575.838	44.37
576.177	44.43
576.517	44.49
576.856	44.55
577.196	44.6
577.535	44.66
577.875	44.71
578.214	44.77
578.553	44.83
578.893	44.88
579.232	44.93
579.571	44.98
579.91	45.03
580.25	45.08
580.589	45.13
580.928	45.18
581.267	45.23
581.606	45.27
581.945	45.32
582.283	45.39
582.622	45.45
582.961	45.52
583.3	45.58
583.639	45.64
583.977	45.68
584.316	45.75
584.654	45.8
584.993	45.85
585.332	45.91
585.67	45.97
586.008	46.03
586.347	46.09
586.685	46.15
587.024	46.21
587.362	46.27
587.7	46.33
588.038	46.39
588.376	46.45
588.715	46.52
589.053	46.6
589.391	46.67
589.729	46.74
590.067	46.83
590.404	46.89
590.742	46.96
591.08	47.03
591.418	47.09
591.756	47.14
592.093	47.21
592.431	47.27
592.769	47.32
593.106	47.38
593.444	47.42
593.781	47.46
594.119	47.5
594.456	47.53
594.793	47.57
595.131	47.62
595.468	47.66
595.805	47.71
596.143	47.76
596.48	47.81
596.817	47.86
597.154	47.92
597.491	47.98
597.828	48.03
598.165	48.08
598.502	48.13
598.839	48.19
599.176	48.24
599.512	48.29
599.849	48.33
600.186	48.37
600.523	48.4
600.859	48.44
601.196	48.48
601.532	48.52
601.869	48.55
602.205	48.58
602.542	48.62
602.878	48.64
603.215	48.67
603.551	48.69
603.887	48.71
604.223	48.74
604.56	48.76
604.896	48.78
605.232	48.8
605.568	48.83
605.904	48.85
606.24	48.87
606.576	48.9
606.912	48.92
607.248	48.95
607.583	48.98
607.919	49
608.255	49.04
608.591	49.07
608.926	49.09
609.262	49.11
609.597	49.13
609.933	49.14
610.268	49.17
610.604	49.17
610.939	49.18
611.275	49.18
611.61	49.2
611.945	49.21
612.281	49.21
612.616	49.21
612.951	49.21
613.286	49.23
613.621	49.23
613.956	49.25
614.291	49.27
614.626	49.29
614.961	49.3
615.296	49.31
615.631	49.34
615.966	49.35
616.3	49.35
616.635	49.37
616.97	49.38
617.304	49.4
617.639	49.41
617.973	49.43
618.308	49.44
618.642	49.46
618.977	49.48
619.311	49.5
619.646	49.53
619.98	49.56
620.314	49.58
620.648	49.61
620.983	49.61
621.317	49.64
621.651	49.66
621.985	49.67
622.319	49.68
622.653	49.7
622.987	49.73
623.321	49.73
623.655	49.76
623.988	49.77
624.322	49.79
624.656	49.81
624.99	49.81
625.323	49.83
625.657	49.85
625.99	49.9
626.324	49.93
626.657	49.95
626.991	49.96
627.324	49.98
627.658	50
627.991	50.03
628.324	50.03
628.657	50.05
628.991	50.06
629.324	50.08
629.657	50.09
629.99	50.1
630.323	50.12
630.656	50.13
630.989	50.14
631.322	50.15
631.655	50.17
631.987	50.18
632.32	50.19
632.653	50.2
632.986	50.21
633.318	50.2
633.651	50.21
633.984	50.21
634.316	50.23
634.649	50.24
634.981	50.27
635.313	50.28
635.646	50.31
635.978	50.32
636.31	50.32
636.643	50.32
636.975	50.35
637.307	50.35
637.639	50.37
637.971	50.4
638.303	50.43
638.635	50.45
638.967	50.45
639.299	50.47
639.631	50.47
639.963	50.48
640.295	50.49
640.626	50.51
640.958	50.51
641.29	50.52
641.621	50.52
641.953	50.55
642.285	50.56
642.616	50.59
642.948	50.6
643.279	50.63
643.61	50.66
643.942	50.69
644.273	50.71
644.604	50.72
644.936	50.74
645.267	50.75
645.598	50.78
645.929	50.79
646.26	50.81
646.591	50.84
646.922	50.86
647.253	50.89
647.584	50.91
647.915	50.93
648.245	50.95
648.576	50.95
648.907	50.95
649.238	50.95
649.568	50.97
649.899	50.98
650.229	51
650.56	51.01
650.89	51.02
651.221	51.03
651.551	51.03
651.882	51.05
652.212	51.05
652.542	51.08
652.872	51.08
653.203	51.09
653.533	51.1
653.863	51.11
654.193	51.14
654.523	51.16
654.853	51.15
655.183	51.17
655.513	51.18
655.843	51.2
656.172	51.22
656.502	51.24
656.832	51.24
657.162	51.23
657.491	51.24
657.821	51.25
658.15	51.26
658.48	51.27
658.809	51.27
659.139	51.29
659.468	51.32
659.798	51.33
660.127	51.33
660.456	51.36
660.785	51.37
661.115	51.38
661.444	51.39
661.773	51.42
662.102	51.43
662.431	51.45
662.76	51.46
663.089	51.48
663.418	51.49
663.747	51.49
664.076	51.54
664.404	51.55
664.733	51.56
665.062	51.59
665.39	51.6
665.719	51.63
666.048	51.64
666.376	51.66
666.705	51.68
667.033	51.68
667.362	51.68
667.69	51.67
668.018	51.68
668.347	51.72
668.675	51.72
669.003	51.73
669.331	51.74
669.659	51.75
669.987	51.76
670.315	51.75
670.643	51.78
670.971	51.78
671.299	51.8
671.627	51.81
671.955	51.82
672.283	51.83
672.61	51.83
672.938	51.85
673.266	51.88
673.593	51.89
673.921	51.9
674.249	51.92
674.576	51.94
674.904	51.97
675.231	51.97
675.558	52
675.886	52
676.213	52.01
676.54	52.01
676.867	52.01
677.195	52.02
677.522	52.01
677.849	52.03
678.176	52.06
678.503	52.06
678.83	52.07
679.157	52.08
679.484	52.08
679.81	52.09
680.137	52.1
680.464	52.11
680.791	52.11
681.117	52.12
681.444	52.13
681.771	52.12
682.097	52.14
682.424	52.13
682.75	52.12
683.077	52.14
683.403	52.14
683.729	52.16
684.056	52.17
684.382	52.17
684.708	52.15
685.034	52.16
685.36	52.16
685.686	52.18
686.012	52.2
686.339	52.21
686.664	52.21
686.99	52.21
687.316	52.21
687.642	52.22
687.968	52.25
688.294	52.25
688.619	52.26
688.945	52.27
689.271	52.29
689.596	52.31
689.922	52.35
690.247	52.39
690.573	52.41
690.898	52.43
691.224	52.44
691.549	52.45
691.874	52.46
692.2	52.47
692.525	52.49
692.85	52.47
693.175	52.49
693.5	52.49
693.825	52.5
694.15	52.52
694.475	52.55
694.8	52.56
695.125	52.58
695.45	52.59
695.775	52.63
696.099	52.65
696.424	52.65
696.749	52.67
697.073	52.67
697.398	52.68
697.723	52.69
698.047	52.71
698.372	52.73
698.696	52.76
699.02	52.76
699.345	52.79
699.669	52.8
699.993	52.81
700.318	52.82
700.642	52.83
700.966	52.86
701.29	52.84
701.614	52.86
701.938	52.87
702.262	52.88
702.586	52.89
702.91	52.9
703.234	52.9
703.557	52.89
703.881	52.9
704.205	52.91
704.529	52.93
704.852	52.93
705.176	52.94
705.499	52.97
705.823	53
706.146	53.03
706.47	53.05
706.793	53.07
707.117	53.14
707.44	53.15
707.763	53.12
708.086	53.15
708.409	53.16
708.733	53.18
709.056	53.17
709.379	53.17
709.702	53.19
710.025	53.2
710.348	53.13
710.671	53.15
710.993	53.18
711.316	53.18
711.639	53.2
711.962	53.2
712.284	53.24
712.607	53.25
712.93	53.25
713.252	53.27
713.575	53.26
713.897	53.27
714.22	53.26
714.542	53.29
714.864	53.33
715.187	53.35
715.509	53.37
715.831	53.37
716.153	53.39
716.475	53.39
716.798	53.38
717.12	53.48
717.442	53.5
717.764	53.51
718.085	53.47
718.407	53.48
718.729	53.48
719.051	53.48
719.373	53.48
719.695	53.5
720.016	53.51
720.338	53.51
720.659	53.55
720.981	53.56
721.302	53.54
721.624	53.53
721.945	53.55
722.267	53.57
722.588	53.6
722.909	53.59
723.231	53.62
723.552	53.63
723.873	53.65
724.194	53.66
724.515	53.7
724.836	53.77
725.157	53.76
725.478	53.78
725.799	53.79
726.12	53.79
726.441	53.78
726.762	53.82
727.083	53.8
727.403	53.83
727.724	53.79
728.045	53.78
728.365	53.79
728.686	53.8
729.006	53.84
729.327	53.82
729.647	53.83
729.967	53.84
730.288	53.86
730.608	53.87
730.928	53.89
731.249	53.89
731.569	53.9
731.889	53.88
732.209	53.89
732.529	53.91
732.849	53.91
733.169	53.9
733.489	53.87
733.809	53.89
734.129	53.9
734.448	53.93
734.768	53.95
735.088	53.93
735.408	53.91
735.727	53.92
736.047	53.97
736.366	54
736.686	54
737.005	54
737.325	54
737.644	54.01
737.963	53.99
738.283	53.99
738.602	53.97
738.921	54
739.24	54.02
739.56	54.04
739.879	54.04
740.198	54.06
740.517	54.04
740.836	54.05
741.155	54
741.473	54.02
741.792	54.02
742.111	54
742.43	54.03
742.748	54.01
743.067	54.02
743.386	54.03
743.704	54.01
744.023	54.02
744.341	54.05
744.66	54.06
744.978	54.05
745.297	54.07
745.615	54.03
745.933	54.03
746.252	54.02
746.57	54.01
746.888	53.98
747.206	54
747.524	54
747.842	54.03
748.16	54.11
748.478	54.11
748.796	54.09
749.114	54.06
749.432	54.03
749.749	54.04
750.067	54.06
750.385	54.03
750.703	54.02
751.02	54.01
751.338	54.04
751.655	54.04
751.973	54.01
752.29	54
752.608	54.02
752.925	54.04
753.242	54.11
753.56	54.15
753.877	54.15
754.194	54.2
754.511	54.23
754.828	54.21
755.145	54.23
755.462	54.22
755.779	54.26
756.096	54.25
756.413	54.24
756.73	54.25
757.047	54.25
757.364	54.28
757.68	54.3
757.997	54.32
758.314	54.31
758.63	54.35
758.947	54.4
759.264	54.42
759.58	54.43
759.896	54.44
760.213	54.44
760.529	54.45
760.846	54.41
761.162	54.41
761.478	54.39
761.794	54.4
762.11	54.39
762.426	54.41
762.743	54.42
763.059	54.44
763.375	54.47
763.69	54.48
764.006	54.51
764.322	54.51
764.638	54.54
764.954	54.58
765.27	54.59
765.585	54.58
765.901	54.59
766.216	54.51
766.532	54.5
766.848	54.51
767.163	54.54
767.478	54.58
767.794	54.6
768.109	54.6
768.424	54.6
768.74	54.57
769.055	54.59
769.37	54.6
769.685	54.57
770	54.62
770.315	54.6
770.63	54.55
770.945	54.51
771.26	54.52
771.575	54.48
771.89	54.45
772.205	54.46
772.52	54.46
772.834	54.53
773.149	54.57
773.464	54.54
773.778	54.54
774.093	54.53
774.407	54.54
774.722	54.55
775.036	54.55
775.351	54.57
775.665	54.57
775.979	54.49
776.293	54.48
776.608	54.48
776.922	54.45
777.236	54.49
777.55	54.51
777.864	54.48
778.178	54.48
778.492	54.46
778.806	54.39
779.12	54.38
779.434	54.38
779.747	54.34
780.061	54.38
780.375	54.3
780.689	54.27
781.002	54.28
781.316	54.3
781.629	54.39
781.943	54.38
782.256	54.4
782.57	54.43
782.883	54.35
783.196	54.36
783.51	54.42
783.823	54.45
784.136	54.41
784.449	54.47
784.762	54.45
785.075	54.5
785.388	54.48
785.701	54.51
786.014	54.48
786.327	54.51
786.64	54.51
786.953	54.53
787.266	54.56
787.578	54.57
787.891	54.6
788.204	54.56
788.516	54.56
788.829	54.64
789.141	54.65
789.454	54.7
789.766	54.74
790.079	54.78
790.391	54.79
790.703	54.82
791.016	54.72
791.328	54.74
791.64	54.76
791.952	54.78
792.264	54.8
792.576	54.84
792.888	54.87
793.2	54.94
793.512	54.94
793.824	54.89
794.136	54.88
794.448	54.93
794.76	54.97
795.071	55
795.383	54.96
795.695	55.08
796.006	55.09
796.318	55.12
796.629	55.13
796.941	55.14
797.252	55.1
797.564	55.14
797.875	55.04
798.186	55.06
798.497	55.02
798.809	54.96
799.12	54.95
799.431	55
799.742	55
800.053	54.98
800.364	55
800.675	55.03
800.986	55
801.297	54.99
801.608	54.93
801.918	54.94
802.229	54.89
802.54	54.84
802.851	54.82
803.161	54.79
803.472	54.85
803.782	54.83
804.093	54.85
804.403	54.83
804.714	54.85
805.024	54.85
805.334	54.9
805.645	54.9
805.955	54.89
806.265	54.92
806.575	54.94
806.885	54.92
807.195	54.87
807.505	54.86
807.815	54.82
808.125	54.87
808.435	54.86
808.745	54.88
809.055	54.8
809.365	54.81
809.674	54.83
809.984	54.91
810.294	54.88
810.603	54.98
810.913	55.02
811.222	55.06
811.532	55.13
811.841	55.22
812.151	55.21
812.46	55.23
812.769	55.28
813.079	55.35
813.388	55.34
813.697	55.37
814.006	55.35
814.315	55.37
814.624	55.4
814.933	55.42
815.242	55.42
815.551	55.39
815.86	55.38
816.169	55.31
816.478	55.37
816.786	55.3
817.095	55.28
817.404	55.31
817.712	55.31
818.021	55.25
818.33	55.24
818.638	55.27
818.947	55.24
819.255	55.29
819.563	55.3
819.872	55.34
820.18	55.37
820.488	55.43
820.796	55.44
821.105	55.43
821.413	55.43
821.721	55.47
822.029	55.5
822.337	55.52
822.645	55.48
822.953	55.49
823.26	55.49
823.568	55.52
823.876	55.5
824.184	55.51
824.491	55.49
824.799	55.49
825.107	55.48
825.414	55.47
825.722	55.47
826.029	55.46
826.337	55.46
826.644	55.48
826.951	55.48
827.259	55.47
827.566	55.48
827.873	55.49
828.18	55.48
828.488	55.49
828.795	55.53
829.102	55.53
829.409	55.58
829.716	55.61
830.023	55.66
830.329	55.69
830.636	55.73
830.943	55.78
831.25	55.78
831.557	55.81
831.863	55.8
832.17	55.82
832.476	55.81
832.783	55.82
833.089	55.78
833.396	55.78
833.702	55.81
834.009	55.8
834.315	55.74
834.621	55.76
834.928	55.72
835.234	55.79
835.54	55.8
835.846	55.82
836.152	55.86
836.458	55.87
836.764	55.81
837.07	55.84
837.376	55.77
837.682	55.73
837.988	55.78
838.293	55.63
838.599	55.71
838.905	55.75
839.211	55.76
839.516	55.81
839.822	55.85
840.127	55.89
840.433	55.91
840.738	55.96
841.044	55.94
841.349	55.98
841.654	56.03
841.959	56.04
842.265	56.05
842.57	55.91
842.875	55.98
843.18	56.06
843.485	56.07
843.79	56.13
844.095	56.27
844.4	56.21
844.705	56.32
845.01	56.32
845.315	56.31
845.619	56.2
845.924	56.11
846.229	56
846.533	56.01
846.838	56.19
847.142	56.12
847.447	56.38
847.751	56.23
848.056	56.16
848.36	56.14
848.664	55.98
848.969	56.04
849.273	56.04
849.577	55.87
849.881	55.84
850.185	55.98
850.489	55.98
850.794	56.15
851.097	56.05
851.401	56.01
851.705	55.96
852.009	56
852.313	56.03
852.617	56.06
852.92	56.08
853.224	56
853.528	55.97
853.831	55.86
854.135	55.75
854.438	55.74
854.742	55.83
855.045	56.02
855.349	55.99
855.652	56.09
855.955	56.13
856.259	56.16
856.562	56.18
856.865	56
857.168	56.04
857.471	56
857.774	55.98
858.077	56.07
858.38	56.04
858.683	56.06
858.986	56.07
859.289	56.25
859.592	56.35
859.894	56.33
860.197	56.31
860.5	56.47
860.802	56.51
861.105	56.54
861.407	56.61
861.71	56.71
862.012	56.84
862.315	56.97
862.617	56.9
862.919	56.81
863.222	57.12
863.524	57.18
863.826	57.37
864.128	57.57
864.43	57.58
864.732	57.5
865.034	57.59
865.336	57.62
865.638	57.63
865.94	57.76
866.242	57.77
866.544	57.59
866.846	57.8
867.147	57.69
867.449	57.55
867.751	57.63
868.052	57.54
868.354	57.35
868.655	57.57
868.957	57.61
869.258	57.89
869.56	57.81
869.861	57.87
870.162	57.77
870.463	57.67
870.765	57.74
871.066	57.69
871.367	57.63
871.668	57.51
871.969	57.53
872.27	57.56
872.571	57.54
872.872	57.68
873.173	57.63
873.473	57.77
873.774	57.75
874.075	57.72
874.376	57.74
874.676	57.69
874.977	57.63
875.277	57.64
875.578	57.45
875.878	57.38
876.179	57.3
876.479	57.16
876.78	57.13
877.08	57.33
877.38	57.32
877.68	57.34
877.981	57.3
878.281	57.06
878.581	56.99
