Data from UWBM91361_Reflection_00012.txt Node
Date: Sun May 02 12:22:23 EDT 2021
User: vgr7
Spectrometer: USB2G7710
Scans to average: 10
Trigger mode: 4
Integration Time (sec): 1.000000E-1
Electric dark correction enabled: true
Boxcar width: 10
XAxis mode: Wavelengths
Number of Pixels in Spectrum: 2048
>>>>>Begin Spectral Data<<<<<
177.721	-168.49
178.105	247.06
178.488	104.01
178.871	8.3
179.254	-237.93
179.636	-261.04
180.019	12.84
180.402	141.67
180.785	130.72
181.168	118.09
181.55	107.34
181.933	2.48
182.316	-8.88
182.698	-18.26
183.081	-17.65
183.463	-18.26
183.846	80.34
184.228	70.66
184.611	36.24
184.993	41.75
185.376	60.28
185.758	55.53
186.14	44.81
186.522	44.03
186.904	53.44
187.287	52.69
187.669	57.49
188.051	51.71
188.433	53.93
188.815	48.54
189.197	54.31
189.579	57.63
189.961	58.31
190.342	55.4
190.724	55.44
191.106	48.64
191.488	50.3
191.869	42.54
192.251	42.7
192.633	44.54
193.014	44.24
193.396	41.5
193.777	40.68
194.159	41
194.54	37.13
194.922	38.19
195.303	40.62
195.684	37.69
196.065	38.39
196.447	36.5
196.828	38.32
197.209	35.59
197.59	34.38
197.971	37.54
198.352	44.87
198.733	41.22
199.114	41.63
199.495	39.22
199.876	39.92
200.257	36.48
200.638	32.94
201.018	33.06
201.399	28.18
201.78	25.98
202.16	29.34
202.541	33.28
202.922	29.52
203.302	27.5
203.683	31.08
204.063	27.33
204.444	26.86
204.824	27.88
205.204	28.07
205.585	23.25
205.965	19.58
206.345	17.51
206.725	11.29
207.106	10.06
207.486	12.05
207.866	13.46
208.246	14.5
208.626	16.4
209.006	19.11
209.386	20.62
209.766	22.02
210.145	21.27
210.525	20.44
210.905	24.5
211.285	25.04
211.664	24.07
212.044	23.37
212.424	22.87
212.803	18.41
213.183	17.86
213.562	15.74
213.942	16.63
214.321	12.65
214.701	13.57
215.08	13.96
215.459	14.58
215.838	12.66
216.218	17.69
216.597	19.07
216.976	15.29
217.355	15.93
217.734	17.04
218.113	18.81
218.492	20.44
218.871	17.72
219.25	15.31
219.629	15.71
220.008	16.53
220.387	14.65
220.766	14.67
221.144	16.74
221.523	20.93
221.902	21.32
222.28	22.06
222.659	21.65
223.037	23.99
223.416	21.77
223.794	21.73
224.173	17.52
224.551	17.92
224.929	16.96
225.308	17.49
225.686	14.95
226.064	11.62
226.442	11.07
226.821	11.21
227.199	10.63
227.577	8.76
227.955	9.05
228.333	9.22
228.711	8.61
229.089	8.67
229.467	7.92
229.845	7.81
230.222	7.85
230.6	7.98
230.978	7.19
231.356	7.11
231.733	7.34
232.111	8.43
232.488	8.2
232.866	7.77
233.243	7.43
233.621	8.67
233.998	8.76
234.376	9.11
234.753	9.47
235.13	9.47
235.508	10.43
235.885	9.94
236.262	9.7
236.639	10.07
237.016	9.63
237.393	9.29
237.77	8.72
238.147	8.39
238.524	8.47
238.901	8.33
239.278	8.1
239.655	7.94
240.032	7.31
240.409	7.38
240.785	7.14
241.162	6.94
241.539	6.55
241.915	6.69
242.292	6.43
242.668	6.13
243.045	5.95
243.421	5.73
243.798	5.62
244.174	5.6
244.551	5.53
244.927	5.47
245.303	5.38
245.679	5.4
246.056	5.31
246.432	5.24
246.808	5.2
247.184	5.18
247.56	5.11
247.936	5.17
248.312	5.09
248.688	5.18
249.064	5.15
249.44	5.16
249.815	5.08
250.191	5.05
250.567	5.05
250.943	5.08
251.318	5.09
251.694	5.1
252.069	4.98
252.445	4.97
252.82	4.91
253.196	5
253.571	4.91
253.947	5.09
254.322	5.09
254.697	5.05
255.073	4.98
255.448	4.99
255.823	4.9
256.198	4.72
256.573	4.57
256.948	4.49
257.323	4.48
257.698	4.42
258.073	4.39
258.448	4.4
258.823	4.37
259.198	4.34
259.573	4.31
259.948	4.39
260.322	4.38
260.697	4.38
261.072	4.34
261.446	4.35
261.821	4.3
262.195	4.25
262.57	4.23
262.944	4.24
263.319	4.17
263.693	4.22
264.067	4.29
264.442	4.34
264.816	4.37
265.19	4.34
265.564	4.41
265.938	4.41
266.313	4.37
266.687	4.34
267.061	4.32
267.435	4.28
267.809	4.22
268.183	4.21
268.556	4.18
268.93	4.16
269.304	4.14
269.678	4.06
270.051	4.07
270.425	4.08
270.799	4.04
271.172	4.08
271.546	4.05
271.919	4.02
272.293	3.98
272.666	3.94
273.04	3.96
273.413	3.85
273.787	3.83
274.16	3.83
274.533	3.86
274.906	3.89
275.279	3.97
275.653	3.95
276.026	3.89
276.399	3.88
276.772	3.88
277.145	3.89
277.518	3.93
277.891	3.96
278.263	3.96
278.636	3.98
279.009	3.98
279.382	3.94
279.755	3.94
280.127	3.99
280.5	4.01
280.872	3.95
281.245	4.05
281.617	4.04
281.99	4.06
282.362	4.07
282.735	4.03
283.107	4
283.479	4.01
283.852	4.02
284.224	4.03
284.596	4.02
284.968	4.03
285.34	4.02
285.713	4.05
286.085	4.03
286.457	4.01
286.829	3.99
287.201	3.96
287.572	3.98
287.944	3.97
288.316	3.99
288.688	4.05
289.06	4.02
289.431	4.04
289.803	4.03
290.175	4.02
290.546	4.08
290.918	4.11
291.289	4.11
291.661	4.11
292.032	4.14
292.403	4.2
292.775	4.2
293.146	4.21
293.517	4.18
293.889	4.2
294.26	4.24
294.631	4.27
295.002	4.33
295.373	4.37
295.744	4.39
296.115	4.42
296.486	4.39
296.857	4.43
297.228	4.46
297.599	4.47
297.97	4.47
298.34	4.46
298.711	4.46
299.082	4.46
299.452	4.5
299.823	4.51
300.194	4.5
300.564	4.51
300.935	4.53
301.305	4.56
301.676	4.58
302.046	4.55
302.416	4.6
302.787	4.63
303.157	4.65
303.527	4.69
303.897	4.72
304.267	4.78
304.637	4.8
305.008	4.87
305.378	4.9
305.748	4.97
306.117	5
306.487	5.02
306.857	5.1
307.227	5.14
307.597	5.15
307.967	5.17
308.336	5.17
308.706	5.24
309.076	5.26
309.445	5.32
309.815	5.38
310.184	5.38
310.554	5.4
310.923	5.4
311.293	5.41
311.662	5.42
312.031	5.45
312.401	5.47
312.77	5.47
313.139	5.52
313.508	5.51
313.877	5.57
314.246	5.62
314.616	5.66
314.985	5.67
315.353	5.72
315.722	5.77
316.091	5.84
316.46	5.9
316.829	5.98
317.198	6.01
317.567	6.07
317.935	6.14
318.304	6.16
318.672	6.22
319.041	6.26
319.41	6.32
319.778	6.4
320.147	6.43
320.515	6.48
320.883	6.51
321.252	6.56
321.62	6.52
321.988	6.57
322.357	6.6
322.725	6.68
323.093	6.75
323.461	6.81
323.829	6.82
324.197	6.8
324.565	6.83
324.933	6.87
325.301	6.9
325.669	6.93
326.037	6.97
326.405	6.98
326.772	7.02
327.14	7.05
327.508	7.07
327.875	7.1
328.243	7.13
328.61	7.15
328.978	7.21
329.346	7.27
329.713	7.28
330.08	7.31
330.448	7.31
330.815	7.3
331.182	7.29
331.55	7.35
331.917	7.4
332.284	7.38
332.651	7.36
333.018	7.39
333.385	7.39
333.752	7.41
334.119	7.46
334.486	7.49
334.853	7.51
335.22	7.54
335.587	7.57
335.954	7.61
336.32	7.64
336.687	7.65
337.054	7.68
337.42	7.71
337.787	7.74
338.153	7.79
338.52	7.8
338.886	7.84
339.253	7.84
339.619	7.85
339.986	7.9
340.352	7.92
340.718	7.98
341.084	8
341.451	8.02
341.817	8
342.183	8.04
342.549	8.06
342.915	8.06
343.281	8.07
343.647	8.07
344.013	8.08
344.379	8.1
344.745	8.11
345.11	8.12
345.476	8.16
345.842	8.19
346.208	8.25
346.573	8.26
346.939	8.31
347.304	8.3
347.67	8.32
348.035	8.36
348.401	8.35
348.766	8.36
349.132	8.37
349.497	8.39
349.862	8.37
350.228	8.38
350.593	8.39
350.958	8.39
351.323	8.37
351.688	8.4
352.053	8.37
352.418	8.39
352.783	8.38
353.148	8.33
353.513	8.3
353.878	8.29
354.243	8.25
354.608	8.22
354.972	8.23
355.337	8.18
355.702	8.16
356.066	8.12
356.431	8.1
356.795	8.08
357.16	8.07
357.524	8.06
357.889	8.02
358.253	8
358.618	7.99
358.982	7.97
359.346	7.95
359.71	7.92
360.075	7.89
360.439	7.87
360.803	7.85
361.167	7.82
361.531	7.8
361.895	7.79
362.259	7.77
362.623	7.75
362.987	7.76
363.351	7.73
363.714	7.74
364.078	7.72
364.442	7.7
364.806	7.68
365.169	7.66
365.533	7.64
365.896	7.61
366.26	7.59
366.623	7.57
366.987	7.54
367.35	7.51
367.714	7.48
368.077	7.44
368.44	7.4
368.803	7.35
369.167	7.32
369.53	7.26
369.893	7.22
370.256	7.17
370.619	7.13
370.982	7.08
371.345	7.02
371.708	6.99
372.071	6.94
372.434	6.89
372.797	6.84
373.159	6.81
373.522	6.76
373.885	6.71
374.247	6.66
374.61	6.62
374.973	6.6
375.335	6.55
375.698	6.52
376.06	6.47
376.423	6.45
376.785	6.4
377.147	6.37
377.51	6.34
377.872	6.3
378.234	6.25
378.596	6.22
378.958	6.19
379.321	6.16
379.683	6.12
380.045	6.07
380.407	6.03
380.769	6
381.13	5.97
381.492	5.93
381.854	5.88
382.216	5.85
382.578	5.81
382.939	5.78
383.301	5.74
383.663	5.73
384.024	5.7
384.386	5.67
384.747	5.64
385.109	5.61
385.47	5.59
385.832	5.59
386.193	5.57
386.554	5.54
386.916	5.52
387.277	5.49
387.638	5.49
387.999	5.46
388.36	5.45
388.721	5.41
389.082	5.39
389.443	5.37
389.804	5.35
390.165	5.33
390.526	5.31
390.887	5.27
391.248	5.25
391.609	5.21
391.969	5.19
392.33	5.17
392.691	5.14
393.051	5.12
393.412	5.09
393.772	5.06
394.133	5.04
394.493	5
394.854	4.98
395.214	4.95
395.574	4.92
395.935	4.89
396.295	4.87
396.655	4.85
397.015	4.82
397.376	4.79
397.736	4.76
398.096	4.74
398.456	4.72
398.816	4.68
399.176	4.66
399.535	4.64
399.895	4.61
400.255	4.59
400.615	4.57
400.975	4.54
401.334	4.52
401.694	4.5
402.054	4.49
402.413	4.48
402.773	4.46
403.132	4.44
403.492	4.42
403.851	4.41
404.211	4.4
404.57	4.39
404.929	4.38
405.288	4.36
405.648	4.36
406.007	4.35
406.366	4.35
406.725	4.34
407.084	4.33
407.443	4.33
407.802	4.32
408.161	4.32
408.52	4.32
408.879	4.31
409.238	4.31
409.596	4.3
409.955	4.29
410.314	4.28
410.673	4.27
411.031	4.27
411.39	4.27
411.748	4.26
412.107	4.26
412.465	4.25
412.824	4.25
413.182	4.23
413.54	4.23
413.899	4.23
414.257	4.23
414.615	4.22
414.974	4.21
415.332	4.2
415.69	4.19
416.048	4.19
416.406	4.19
416.764	4.19
417.122	4.19
417.48	4.19
417.838	4.18
418.195	4.18
418.553	4.17
418.911	4.18
419.269	4.18
419.626	4.18
419.984	4.18
420.342	4.18
420.699	4.18
421.057	4.18
421.414	4.17
421.772	4.17
422.129	4.17
422.486	4.17
422.844	4.17
423.201	4.17
423.558	4.16
423.915	4.16
424.273	4.15
424.63	4.14
424.987	4.13
425.344	4.13
425.701	4.13
426.058	4.12
426.415	4.11
426.772	4.09
427.128	4.08
427.485	4.07
427.842	4.08
428.199	4.07
428.555	4.06
428.912	4.05
429.269	4.04
429.625	4.04
429.982	4.03
430.338	4.02
430.695	4.02
431.051	4.01
431.407	4.01
431.764	4.01
432.12	4.01
432.476	4.01
432.832	4.01
433.189	4.01
433.545	4.02
433.901	4.01
434.257	4.01
434.613	4.01
434.969	4.01
435.325	4.01
435.681	4.01
436.036	4.02
436.392	4.03
436.748	4.04
437.104	4.04
437.459	4.04
437.815	4.05
438.171	4.05
438.526	4.05
438.882	4.05
439.237	4.06
439.593	4.06
439.948	4.07
440.304	4.07
440.659	4.07
441.014	4.07
441.369	4.07
441.725	4.08
442.08	4.08
442.435	4.08
442.79	4.09
443.145	4.09
443.5	4.08
443.855	4.08
444.21	4.08
444.565	4.08
444.92	4.07
445.275	4.07
445.629	4.06
445.984	4.07
446.339	4.07
446.693	4.06
447.048	4.05
447.403	4.05
447.757	4.06
448.112	4.05
448.466	4.04
448.82	4.04
449.175	4.04
449.529	4.03
449.883	4.02
450.238	4.01
450.592	4
450.946	4
451.3	4
451.654	3.99
452.008	3.99
452.362	3.98
452.716	3.98
453.07	3.97
453.424	3.96
453.778	3.96
454.132	3.96
454.486	3.96
454.839	3.96
455.193	3.96
455.547	3.97
455.9	3.97
456.254	3.98
456.607	3.99
456.961	4
457.314	4.01
457.668	4.01
458.021	4.02
458.375	4.02
458.728	4.02
459.081	4.03
459.434	4.03
459.787	4.04
460.141	4.04
460.494	4.04
460.847	4.04
461.2	4.04
461.553	4.04
461.906	4.04
462.259	4.04
462.611	4.04
462.964	4.04
463.317	4.04
463.67	4.04
464.022	4.03
464.375	4.03
464.728	4.03
465.08	4.03
465.433	4.02
465.785	4.02
466.138	4.02
466.49	4.01
466.843	4.02
467.195	4.02
467.547	4.03
467.899	4.03
468.252	4.03
468.604	4.04
468.956	4.04
469.308	4.05
469.66	4.04
470.012	4.04
470.364	4.03
470.716	4.04
471.068	4.04
471.42	4.05
471.772	4.05
472.123	4.05
472.475	4.06
472.827	4.07
473.178	4.07
473.53	4.07
473.882	4.08
474.233	4.08
474.585	4.09
474.936	4.09
475.288	4.09
475.639	4.09
475.99	4.1
476.342	4.11
476.693	4.11
477.044	4.11
477.395	4.12
477.746	4.12
478.097	4.12
478.448	4.14
478.8	4.22
479.15	4.32
479.501	4.46
479.852	4.61
480.203	4.77
480.554	4.94
480.905	5.11
481.255	5.27
481.606	5.44
481.957	5.6
482.307	5.75
482.658	5.89
483.009	6.01
483.359	6.12
483.709	6.21
484.06	6.3
484.41	6.39
484.761	6.46
485.111	6.54
485.461	6.61
485.811	6.68
486.162	6.71
486.512	6.7
486.862	6.66
487.212	6.61
487.562	6.53
487.912	6.44
488.262	6.34
488.612	6.23
488.961	6.11
489.311	5.98
489.661	5.85
490.011	5.72
490.36	5.58
490.71	5.44
491.06	5.3
491.409	5.15
491.759	5.03
492.108	4.94
492.458	4.85
492.807	4.78
493.157	4.7
493.506	4.63
493.855	4.56
494.204	4.49
494.554	4.43
494.903	4.38
495.252	4.33
495.601	4.28
495.95	4.24
496.299	4.2
496.648	4.17
496.997	4.15
497.346	4.14
497.695	4.15
498.043	4.18
498.392	4.23
498.741	4.3
499.09	4.34
499.438	4.37
499.787	4.38
500.135	4.4
500.484	4.42
500.832	4.45
501.181	4.47
501.529	4.49
501.878	4.51
502.226	4.53
502.574	4.55
502.923	4.59
503.271	4.61
503.619	4.65
503.967	4.68
504.315	4.71
504.663	4.74
505.011	4.77
505.359	4.81
505.707	4.85
506.055	4.89
506.403	4.93
506.751	4.97
507.098	5.01
507.446	5.06
507.794	5.1
508.141	5.13
508.489	5.17
508.837	5.21
509.184	5.26
509.531	5.31
509.879	5.35
510.226	5.39
510.574	5.43
510.921	5.47
511.268	5.52
511.616	5.56
511.963	5.61
512.31	5.66
512.657	5.71
513.004	5.75
513.351	5.81
513.698	5.87
514.045	5.92
514.392	5.98
514.739	6.05
515.086	6.11
515.432	6.17
515.779	6.23
516.126	6.3
516.473	6.36
516.819	6.41
517.166	6.46
517.512	6.52
517.859	6.56
518.205	6.6
518.552	6.65
518.898	6.7
519.245	6.74
519.591	6.78
519.937	6.83
520.283	6.88
520.629	6.93
520.976	6.98
521.322	7.04
521.668	7.09
522.014	7.14
522.36	7.2
522.706	7.28
523.052	7.37
523.398	7.52
523.743	7.7
524.089	7.92
524.435	8.17
524.781	8.41
525.126	8.67
525.472	8.92
525.817	9.17
526.163	9.4
526.509	9.61
526.854	9.8
527.199	9.95
527.545	10.08
527.89	10.18
528.235	10.28
528.581	10.38
528.926	10.47
529.271	10.56
529.616	10.66
529.961	10.75
530.306	10.83
530.651	10.86
530.996	10.86
531.341	10.83
531.686	10.77
532.031	10.68
532.376	10.56
532.721	10.42
533.065	10.27
533.41	10.16
533.755	10.05
534.099	9.98
534.444	9.96
534.788	9.96
535.133	9.98
535.477	10.02
535.822	10.07
536.166	10.14
536.51	10.23
536.855	10.32
537.199	10.44
537.543	10.58
537.887	10.73
538.231	10.91
538.576	11.08
538.92	11.27
539.264	11.48
539.608	11.69
539.951	11.91
540.295	12.11
540.639	12.26
540.983	12.4
541.327	12.53
541.671	12.63
542.014	12.77
542.358	12.91
542.701	13.04
543.045	13.16
543.389	13.29
543.732	13.41
544.075	13.54
544.419	13.67
544.762	13.78
545.105	13.89
545.449	13.98
545.792	14.08
546.135	14.17
546.478	14.29
546.821	14.42
547.165	14.58
547.508	14.79
547.851	15.02
548.194	15.28
548.536	15.56
548.879	15.81
549.222	16.03
549.565	16.25
549.908	16.47
550.25	16.7
550.593	16.94
550.936	17.18
551.278	17.41
551.621	17.64
551.963	17.89
552.306	18.11
552.648	18.36
552.991	18.59
553.333	18.82
553.675	19.08
554.017	19.32
554.36	19.56
554.702	19.79
555.044	20.03
555.386	20.27
555.728	20.52
556.07	20.76
556.412	21.01
556.754	21.26
557.096	21.53
557.438	21.79
557.78	22.06
558.121	22.33
558.463	22.61
558.805	22.89
559.147	23.17
559.488	23.46
559.83	23.72
560.171	24
560.513	24.27
560.854	24.54
561.196	24.84
561.537	25.14
561.878	25.43
562.22	25.73
562.561	26.03
562.902	26.31
563.243	26.6
563.584	26.88
563.925	27.16
564.266	27.42
564.607	27.69
564.948	27.96
565.289	28.23
565.63	28.48
565.971	28.72
566.312	28.99
566.653	29.24
566.993	29.5
567.334	29.77
567.675	30.02
568.015	30.27
568.356	30.52
568.696	30.77
569.037	31.02
569.377	31.26
569.718	31.51
570.058	31.76
570.398	32.02
570.739	32.26
571.079	32.49
571.419	32.73
571.759	32.95
572.099	33.15
572.439	33.36
572.779	33.57
573.119	33.77
573.459	33.96
573.799	34.15
574.139	34.33
574.479	34.51
574.819	34.68
575.158	34.84
575.498	35
575.838	35.16
576.177	35.32
576.517	35.47
576.856	35.62
577.196	35.75
577.535	35.9
577.875	36.05
578.214	36.19
578.553	36.36
578.893	36.5
579.232	36.67
579.571	36.81
579.91	36.96
580.25	37.12
580.589	37.25
580.928	37.4
581.267	37.56
581.606	37.71
581.945	37.87
582.283	38.03
582.622	38.19
582.961	38.34
583.3	38.51
583.639	38.68
583.977	38.86
584.316	39.05
584.654	39.2
584.993	39.38
585.332	39.56
585.67	39.71
586.008	39.9
586.347	40.06
586.685	40.25
587.024	40.41
587.362	40.57
587.7	40.74
588.038	40.9
588.376	41.05
588.715	41.2
589.053	41.33
589.391	41.48
589.729	41.62
590.067	41.76
590.404	41.9
590.742	42.04
591.08	42.16
591.418	42.28
591.756	42.42
592.093	42.56
592.431	42.67
592.769	42.81
593.106	42.92
593.444	43.04
593.781	43.12
594.119	43.26
594.456	43.37
594.793	43.47
595.131	43.57
595.468	43.66
595.805	43.75
596.143	43.85
596.48	43.93
596.817	43.99
597.154	44.08
597.491	44.14
597.828	44.23
598.165	44.29
598.502	44.38
598.839	44.46
599.176	44.53
599.512	44.62
599.849	44.7
600.186	44.81
600.523	44.92
600.859	45.05
601.196	45.14
601.532	45.25
601.869	45.36
602.205	45.44
602.542	45.54
602.878	45.64
603.215	45.71
603.551	45.78
603.887	45.88
604.223	45.97
604.56	46.05
604.896	46.1
605.232	46.19
605.568	46.25
605.904	46.33
606.24	46.4
606.576	46.48
606.912	46.55
607.248	46.59
607.583	46.62
607.919	46.65
608.255	46.68
608.591	46.72
608.926	46.75
609.262	46.78
609.597	46.8
609.933	46.82
610.268	46.86
610.604	46.91
610.939	46.92
611.275	46.94
611.61	46.97
611.945	47.01
612.281	47.04
612.616	47.07
612.951	47.08
613.286	47.1
613.621	47.11
613.956	47.11
614.291	47.15
614.626	47.18
614.961	47.22
615.296	47.25
615.631	47.26
615.966	47.27
616.3	47.35
616.635	47.39
616.97	47.44
617.304	47.47
617.639	47.51
617.973	47.55
618.308	47.59
618.642	47.62
618.977	47.67
619.311	47.72
619.646	47.74
619.98	47.79
620.314	47.85
620.648	47.9
620.983	47.95
621.317	48
621.651	48.06
621.985	48.09
622.319	48.14
622.653	48.22
622.987	48.32
623.321	48.38
623.655	48.42
623.988	48.49
624.322	48.59
624.656	48.66
624.99	48.75
625.323	48.78
625.657	48.82
625.99	48.88
626.324	48.92
626.657	49
626.991	49.05
627.324	49.07
627.658	49.1
627.991	49.14
628.324	49.14
628.657	49.17
628.991	49.22
629.324	49.27
629.657	49.32
629.99	49.32
630.323	49.34
630.656	49.37
630.989	49.39
631.322	49.41
631.655	49.42
631.987	49.42
632.32	49.46
632.653	49.48
632.986	49.49
633.318	49.5
633.651	49.51
633.984	49.51
634.316	49.53
634.649	49.56
634.981	49.58
635.313	49.64
635.646	49.65
635.978	49.65
636.31	49.67
636.643	49.67
636.975	49.67
637.307	49.67
637.639	49.69
637.971	49.72
638.303	49.7
638.635	49.71
638.967	49.74
639.299	49.75
639.631	49.76
639.963	49.82
640.295	49.87
640.626	49.88
640.958	49.91
641.29	49.96
641.621	50.02
641.953	50.03
642.285	50.05
642.616	50.09
642.948	50.15
643.279	50.14
643.61	50.2
643.942	50.26
644.273	50.31
644.604	50.38
644.936	50.42
645.267	50.43
645.598	50.46
645.929	50.5
646.26	50.57
646.591	50.61
646.922	50.61
647.253	50.63
647.584	50.68
647.915	50.73
648.245	50.78
648.576	50.79
648.907	50.85
649.238	50.89
649.568	50.91
649.899	50.95
650.229	50.98
650.56	51
650.89	51.03
651.221	51.06
651.551	51.08
651.882	51.1
652.212	51.15
652.542	51.2
652.872	51.22
653.203	51.24
653.533	51.3
653.863	51.32
654.193	51.36
654.523	51.4
654.853	51.42
655.183	51.45
655.513	51.52
655.843	51.57
656.172	51.61
656.502	51.67
656.832	51.68
657.162	51.71
657.491	51.77
657.821	51.82
658.15	51.86
658.48	51.87
658.809	51.89
659.139	51.9
659.468	51.92
659.798	51.92
660.127	51.95
660.456	51.96
660.785	51.97
661.115	51.98
661.444	51.96
661.773	51.97
662.102	51.95
662.431	51.9
662.76	51.89
663.089	51.9
663.418	51.92
663.747	51.93
664.076	51.93
664.404	51.89
664.733	51.87
665.062	51.86
665.39	51.86
665.719	51.91
666.048	51.94
666.376	51.95
666.705	51.98
667.033	52
667.362	52.04
667.69	52.06
668.018	52.07
668.347	52.14
668.675	52.17
669.003	52.19
669.331	52.25
669.659	52.26
669.987	52.23
670.315	52.23
670.643	52.27
670.971	52.3
671.299	52.32
671.627	52.37
671.955	52.38
672.283	52.42
672.61	52.42
672.938	52.47
673.266	52.51
673.593	52.56
673.921	52.6
674.249	52.6
674.576	52.67
674.904	52.73
675.231	52.73
675.558	52.77
675.886	52.83
676.213	52.85
676.54	52.88
676.867	52.94
677.195	53.01
677.522	53.05
677.849	53.09
678.176	53.1
678.503	53.14
678.83	53.17
679.157	53.23
679.484	53.29
679.81	53.26
680.137	53.31
680.464	53.32
680.791	53.33
681.117	53.37
681.444	53.39
681.771	53.4
682.097	53.44
682.424	53.47
682.75	53.44
683.077	53.48
683.403	53.53
683.729	53.56
684.056	53.57
684.382	53.61
684.708	53.64
685.034	53.71
685.36	53.75
685.686	53.81
686.012	53.84
686.339	53.86
686.664	53.95
686.99	53.93
687.316	53.98
687.642	53.99
687.968	54.02
688.294	54.06
688.619	54.13
688.945	54.12
689.271	54.11
689.596	54.18
689.922	54.23
690.247	54.24
690.573	54.23
690.898	54.25
691.224	54.27
691.549	54.28
691.874	54.22
692.2	54.2
692.525	54.2
692.85	54.22
693.175	54.23
693.5	54.24
693.825	54.26
694.15	54.28
694.475	54.3
694.8	54.26
695.125	54.26
695.45	54.23
695.775	54.29
696.099	54.32
696.424	54.35
696.749	54.37
697.073	54.46
697.398	54.52
697.723	54.53
698.047	54.51
698.372	54.57
698.696	54.61
699.02	54.64
699.345	54.66
699.669	54.63
699.993	54.56
700.318	54.54
700.642	54.58
700.966	54.58
701.29	54.57
701.614	54.59
701.938	54.6
702.262	54.61
702.586	54.56
702.91	54.53
703.234	54.49
703.557	54.46
703.881	54.37
704.205	54.35
704.529	54.31
704.852	54.32
705.176	54.29
705.499	54.3
705.823	54.28
706.146	54.27
706.47	54.31
706.793	54.4
707.117	54.43
707.44	54.43
707.763	54.47
708.086	54.58
708.409	54.56
708.733	54.56
709.056	54.6
709.379	54.67
709.702	54.73
710.025	54.77
710.348	54.79
710.671	54.8
710.993	54.83
711.316	54.84
711.639	54.85
711.962	54.86
712.284	54.88
712.607	54.93
712.93	54.94
713.252	54.98
713.575	55.04
713.897	55.08
714.22	55.12
714.542	55.17
714.864	55.13
715.187	55.22
715.509	55.27
715.831	55.28
716.153	55.32
716.475	55.35
716.798	55.36
717.12	55.41
717.442	55.4
717.764	55.41
718.085	55.53
718.407	55.56
718.729	55.55
719.051	55.62
719.373	55.6
719.695	55.56
720.016	55.49
720.338	55.43
720.659	55.38
720.981	55.33
721.302	55.25
721.624	55.26
721.945	55.18
722.267	55.16
722.588	55.17
722.909	55.18
723.231	55.11
723.552	55.13
723.873	55.13
724.194	55.22
724.515	55.26
724.836	55.12
725.157	55.18
725.478	55.19
725.799	55.22
726.12	55.26
726.441	55.32
726.762	55.43
727.083	55.51
727.403	55.54
727.724	55.58
728.045	55.67
728.365	55.66
728.686	55.7
729.006	55.69
729.327	55.72
729.647	55.7
729.967	55.81
730.288	55.82
730.608	55.83
730.928	55.8
731.249	55.77
731.569	55.82
731.889	55.78
732.209	55.74
732.529	55.69
732.849	55.74
733.169	55.79
733.489	55.72
733.809	55.69
734.129	55.7
734.448	55.68
734.768	55.67
735.088	55.65
735.408	55.64
735.727	55.66
736.047	55.67
736.366	55.65
736.686	55.55
737.005	55.53
737.325	55.46
737.644	55.49
737.963	55.5
738.283	55.47
738.602	55.53
738.921	55.57
739.24	55.6
739.56	55.51
739.879	55.49
740.198	55.52
740.517	55.51
740.836	55.47
741.155	55.39
741.473	55.29
741.792	55.23
742.111	55.22
742.43	55.17
742.748	55.04
743.067	55.04
743.386	54.98
743.704	55.08
744.023	55.15
744.341	55.04
744.66	54.96
744.978	54.99
745.297	54.84
745.615	54.84
745.933	54.74
746.252	54.7
746.57	54.65
746.888	54.64
747.206	54.65
747.524	54.72
747.842	54.88
748.16	54.93
748.478	54.97
748.796	54.96
749.114	54.92
749.432	55.03
749.749	55.02
750.067	55.13
750.385	55.07
750.703	55.01
751.02	55.04
751.338	55.1
751.655	55.11
751.973	55.13
752.29	55.14
752.608	55.17
752.925	55.24
753.242	55.3
753.56	55.29
753.877	55.28
754.194	55.25
754.511	55.13
754.828	55.13
755.145	55.18
755.462	55.25
755.779	55.38
756.096	55.42
756.413	55.53
756.73	55.57
757.047	55.75
757.364	55.89
757.68	56
757.997	56.18
758.314	56.24
758.63	56.38
758.947	56.51
759.264	56.65
759.58	56.78
759.896	56.93
760.213	57.06
760.529	57.15
760.846	57.12
761.162	57.2
761.478	57.36
761.794	57.48
762.11	57.52
762.426	57.62
762.743	57.63
763.059	57.65
763.375	57.67
763.69	57.64
764.006	57.61
764.322	57.62
764.638	57.54
764.954	57.55
765.27	57.54
765.585	57.51
765.901	57.47
766.216	57.41
766.532	57.29
766.848	57.16
767.163	57.14
767.478	57.25
767.794	57.22
768.109	57.13
768.424	56.97
768.74	56.9
769.055	56.76
769.37	56.62
769.685	56.59
770	56.56
770.315	56.44
770.63	56.33
770.945	56.29
771.26	56.27
771.575	56.19
771.89	56.15
772.205	56.17
772.52	56.06
772.834	55.98
773.149	55.97
773.464	56.17
773.778	56.1
774.093	55.97
774.407	55.93
774.722	55.86
775.036	55.9
775.351	55.94
775.665	55.96
775.979	55.98
776.293	55.93
776.608	55.87
776.922	55.89
777.236	55.93
777.55	55.9
777.864	55.96
778.178	55.98
778.492	55.94
778.806	55.88
779.12	55.99
779.434	55.98
779.747	55.92
780.061	55.76
780.375	55.84
780.689	55.85
781.002	55.96
781.316	56.01
781.629	56.02
781.943	56.01
782.256	56.05
782.57	56.17
782.883	56.08
783.196	56.16
783.51	56.2
783.823	56.27
784.136	56.32
784.449	56.32
784.762	56.39
785.075	56.48
785.388	56.42
785.701	56.46
786.014	56.57
786.327	56.81
786.64	56.88
786.953	56.94
787.266	57.01
787.578	57.07
787.891	57.21
788.204	57.34
788.516	57.4
788.829	57.44
789.141	57.38
789.454	57.42
789.766	57.34
790.079	57.34
790.391	57.37
790.703	57.44
791.016	57.46
791.328	57.43
791.64	57.53
791.952	57.59
792.264	57.62
792.576	57.73
792.888	57.63
793.2	57.62
793.512	57.59
793.824	57.58
794.136	57.51
794.448	57.46
794.76	57.47
795.071	57.46
795.383	57.35
795.695	57.47
796.006	57.55
796.318	57.56
796.629	57.61
796.941	57.63
797.252	57.66
797.564	57.72
797.875	57.73
798.186	57.58
798.497	57.71
798.809	57.77
799.12	57.7
799.431	57.68
799.742	57.74
800.053	57.85
800.364	57.96
800.675	58.16
800.986	58.26
801.297	58.12
801.608	58.08
801.918	58.22
802.229	58.23
802.54	58.22
802.851	58.27
803.161	58.34
803.472	58.35
803.782	58.18
804.093	58.07
804.403	58.1
804.714	58.2
805.024	58.17
805.334	58.09
805.645	57.94
805.955	57.95
806.265	57.96
806.575	57.8
806.885	57.79
807.195	57.52
807.505	57.45
807.815	57.55
808.125	57.58
808.435	57.62
808.745	57.75
809.055	57.86
809.365	57.95
809.674	57.93
809.984	57.95
810.294	58.16
810.603	58.28
810.913	58.22
811.222	58.3
811.532	58.34
811.841	58.4
812.151	58.59
812.46	58.73
812.769	58.79
813.079	59.09
813.388	59.15
813.697	59.45
814.006	59.55
814.315	59.8
814.624	59.94
814.933	59.97
815.242	59.81
815.551	59.87
815.86	59.92
816.169	60.08
816.478	60.05
816.786	60.08
817.095	60.09
817.404	60.31
817.712	60.13
818.021	60.08
818.33	60.21
818.638	60.3
818.947	60.26
819.255	60.25
819.563	60.15
819.872	60.19
820.18	60.22
820.488	60.26
820.796	60.2
821.105	60.21
821.413	60.21
821.721	60.33
822.029	60.31
822.337	60.28
822.645	60.21
822.953	60.23
823.26	60.19
823.568	60.21
823.876	60.17
824.184	60.19
824.491	60.2
824.799	60.16
825.107	60.15
825.414	60.17
825.722	60.14
826.029	60.15
826.337	60.1
826.644	60.07
826.951	60.08
827.259	60.05
827.566	59.98
827.873	59.98
828.18	59.85
828.488	59.84
828.795	59.83
829.102	59.82
829.409	59.78
829.716	59.8
830.023	59.74
830.329	59.75
830.636	59.75
830.943	59.78
831.25	59.81
831.557	59.72
831.863	59.65
832.17	59.62
832.476	59.59
832.783	59.61
833.089	59.65
833.396	59.63
833.702	59.67
834.009	59.73
834.315	59.6
834.621	59.69
834.928	59.67
835.234	59.61
835.54	59.61
835.846	59.6
836.152	59.62
836.458	59.59
836.764	59.59
837.07	59.57
837.376	59.41
837.682	59.36
837.988	59.48
838.293	59.67
838.599	59.75
838.905	59.88
839.211	59.87
839.516	59.77
839.822	59.64
840.127	59.54
840.433	59.67
840.738	59.89
841.044	59.9
841.349	59.83
841.654	60
841.959	60.14
842.265	60.32
842.57	60.3
842.875	60.22
843.18	60.28
843.485	60.65
843.79	60.72
844.095	60.69
844.4	60.5
844.705	60.06
845.01	60.09
845.315	59.71
845.619	59.89
845.924	59.8
846.229	59.66
846.533	59.56
846.838	59.59
847.142	59.4
847.447	59.3
847.751	59.52
848.056	59.55
848.36	59.66
848.664	59.61
848.969	59.55
849.273	59.77
849.577	59.64
849.881	59.01
850.185	59.15
850.489	59.28
850.794	59.44
851.097	59.33
851.401	59.27
851.705	59.4
852.009	59.41
852.313	59.1
852.617	59
852.92	59.39
853.224	59.19
853.528	59.56
853.831	59.7
854.135	59.45
854.438	59.53
854.742	59.35
855.045	59.27
855.349	59.3
855.652	59.66
855.955	59.77
856.259	59.95
856.562	60.15
856.865	60.22
857.168	60.03
857.471	60.32
857.774	60.35
858.077	60.52
858.38	60.24
858.683	60.85
858.986	60.67
859.289	60.48
859.592	60.63
859.894	59.83
860.197	59.59
860.5	59.94
860.802	59.98
861.105	59.99
861.407	60.1
861.71	60.15
862.012	60.35
862.315	60.54
862.617	60.58
862.919	60.6
863.222	60.69
863.524	61.11
863.826	61.29
864.128	61.38
864.43	61.4
864.732	61.58
865.034	61.34
865.336	61.76
865.638	61.85
865.94	61.33
866.242	61.59
866.544	62.06
866.846	61.78
867.147	61.47
867.449	61.23
867.751	60.99
868.052	61.11
868.354	60.71
868.655	61.02
868.957	61.1
869.258	61.22
869.56	61.29
869.861	61.38
870.162	61.31
870.463	61.29
870.765	61.48
871.066	61.29
871.367	61.98
871.668	62
871.969	62.4
872.27	62.72
872.571	63.02
872.872	62.82
873.173	63.32
873.473	63.71
873.774	64.19
874.075	64.32
874.376	64.28
874.676	64.86
874.977	64.76
875.277	64.9
875.578	64.49
875.878	64.43
876.179	64.26
876.479	64.35
876.78	64.66
877.08	64.59
877.38	64.92
877.68	64.36
877.981	64.62
878.281	64.46
878.581	64.62
