Data from UWBM55954_Reflection_00012.txt Node
Date: Sun May 02 13:51:58 EDT 2021
User: vgr7
Spectrometer: USB2G7710
Scans to average: 10
Trigger mode: 4
Integration Time (sec): 1.000000E-1
Electric dark correction enabled: true
Boxcar width: 20
XAxis mode: Wavelengths
Number of Pixels in Spectrum: 2048
>>>>>Begin Spectral Data<<<<<
177.721	195.26
178.105	225.13
178.488	187.54
178.871	190.77
179.254	157.26
179.636	128.55
180.019	91.39
180.402	70.93
180.785	60.41
181.168	54.65
181.55	49.26
181.933	51.87
182.316	45.7
182.698	48.79
183.081	41.81
183.463	40.88
183.846	37.35
184.228	37.33
184.611	36.7
184.993	31.25
185.376	31.04
185.758	33.54
186.14	33.47
186.522	33.14
186.904	31.44
187.287	28.66
187.669	25.94
188.051	25.17
188.433	27.59
188.815	27.61
189.197	29.28
189.579	28.7
189.961	26.7
190.342	24.16
190.724	24.06
191.106	23.47
191.488	23.93
191.869	22.15
192.251	20.53
192.633	18.02
193.014	16.84
193.396	14.2
193.777	17.64
194.159	17.34
194.54	16.56
194.922	15.76
195.303	15.47
195.684	14.73
196.065	15.89
196.447	15.77
196.828	15.63
197.209	15.53
197.59	11.93
197.971	13.97
198.352	14.51
198.733	17.16
199.114	18.48
199.495	19.2
199.876	18.03
200.257	17.06
200.638	17.97
201.018	19.67
201.399	20
201.78	19.24
202.16	18.43
202.541	16.94
202.922	16.86
203.302	18.15
203.683	18.38
204.063	18
204.444	17.63
204.824	16.79
205.204	15.76
205.585	15.59
205.965	16.86
206.345	16.53
206.725	16.26
207.106	15.55
207.486	16.15
207.866	16.73
208.246	15.66
208.626	15.33
209.006	15.1
209.386	13.55
209.766	12.22
210.145	12.27
210.525	12.44
210.905	13.1
211.285	12.78
211.664	12.6
212.044	11.5
212.424	11.47
212.803	12.52
213.183	13.52
213.562	12.94
213.942	11.65
214.321	9.61
214.701	7.26
215.08	6.59
215.459	6.3
215.838	5.89
216.218	4.88
216.597	3.85
216.976	2.91
217.355	2.13
217.734	2.76
218.113	3.58
218.492	3.46
218.871	2.79
219.25	2.93
219.629	2.31
220.008	2.97
220.387	2.22
220.766	4.17
221.144	4.77
221.523	4.94
221.902	5.43
222.28	4.8
222.659	5.21
223.037	5.44
223.416	6.26
223.794	7.31
224.173	7.18
224.551	6.6
224.929	6.69
225.308	6.95
225.686	6.56
226.064	6.4
226.442	6.5
226.821	6.75
227.199	6.99
227.577	7.55
227.955	7.55
228.333	7.52
228.711	7.49
229.089	6.97
229.467	6.58
229.845	6.55
230.222	6.9
230.6	6.94
230.978	6.95
231.356	7.11
231.733	7.35
232.111	6.89
232.488	7.08
232.866	7.12
233.243	6.67
233.621	6.6
233.998	6.63
234.376	6.51
234.753	6.26
235.13	6.09
235.508	5.92
235.885	5.93
236.262	5.75
236.639	5.52
237.016	5.38
237.393	5.37
237.77	5.42
238.147	5.33
238.524	5.2
238.901	5.03
239.278	5.03
239.655	5.03
240.032	5.07
240.409	5.1
240.785	5.11
241.162	5.12
241.539	5.11
241.915	5.09
242.292	5.11
242.668	5.09
243.045	5.05
243.421	5.03
243.798	4.99
244.174	5.03
244.551	5.06
244.927	5.07
245.303	5.1
245.679	5.09
246.056	5.04
246.432	5.05
246.808	5.05
247.184	5.04
247.56	5.05
247.936	5
248.312	5.01
248.688	5.05
249.064	5.03
249.44	5.02
249.815	5
250.191	4.97
250.567	5
250.943	4.98
251.318	4.95
251.694	4.93
252.069	4.94
252.445	4.94
252.82	4.92
253.196	4.89
253.571	4.88
253.947	4.87
254.322	4.87
254.697	4.86
255.073	4.84
255.448	4.82
255.823	4.76
256.198	4.73
256.573	4.72
256.948	4.72
257.323	4.68
257.698	4.64
258.073	4.63
258.448	4.61
258.823	4.6
259.198	4.58
259.573	4.54
259.948	4.53
260.322	4.53
260.697	4.5
261.072	4.49
261.446	4.49
261.821	4.48
262.195	4.47
262.57	4.45
262.944	4.45
263.319	4.46
263.693	4.45
264.067	4.42
264.442	4.39
264.816	4.36
265.19	4.37
265.564	4.39
265.938	4.36
266.313	4.38
266.687	4.38
267.061	4.37
267.435	4.36
267.809	4.35
268.183	4.34
268.556	4.35
268.93	4.36
269.304	4.36
269.678	4.36
270.051	4.35
270.425	4.33
270.799	4.34
271.172	4.37
271.546	4.35
271.919	4.35
272.293	4.34
272.666	4.33
273.04	4.33
273.413	4.34
273.787	4.36
274.16	4.36
274.533	4.36
274.906	4.37
275.279	4.37
275.653	4.37
276.026	4.38
276.399	4.38
276.772	4.39
277.145	4.39
277.518	4.39
277.891	4.4
278.263	4.38
278.636	4.37
279.009	4.34
279.382	4.35
279.755	4.38
280.127	4.39
280.5	4.4
280.872	4.4
281.245	4.39
281.617	4.37
281.99	4.38
282.362	4.38
282.735	4.4
283.107	4.39
283.479	4.38
283.852	4.39
284.224	4.39
284.596	4.38
284.968	4.37
285.34	4.37
285.713	4.4
286.085	4.42
286.457	4.41
286.829	4.42
287.201	4.44
287.572	4.45
287.944	4.45
288.316	4.45
288.688	4.45
289.06	4.45
289.431	4.47
289.803	4.47
290.175	4.48
290.546	4.49
290.918	4.51
291.289	4.52
291.661	4.52
292.032	4.51
292.403	4.52
292.775	4.53
293.146	4.54
293.517	4.55
293.889	4.59
294.26	4.61
294.631	4.63
295.002	4.65
295.373	4.67
295.744	4.68
296.115	4.69
296.486	4.72
296.857	4.76
297.228	4.77
297.599	4.8
297.97	4.81
298.34	4.83
298.711	4.86
299.082	4.87
299.452	4.9
299.823	4.93
300.194	4.95
300.564	4.96
300.935	4.98
301.305	4.98
301.676	5.01
302.046	5.03
302.416	5.03
302.787	5.05
303.157	5.08
303.527	5.1
303.897	5.12
304.267	5.15
304.637	5.17
305.008	5.19
305.378	5.21
305.748	5.23
306.117	5.24
306.487	5.27
306.857	5.32
307.227	5.35
307.597	5.39
307.967	5.41
308.336	5.45
308.706	5.47
309.076	5.49
309.445	5.53
309.815	5.54
310.184	5.56
310.554	5.56
310.923	5.59
311.293	5.6
311.662	5.62
312.031	5.64
312.401	5.66
312.77	5.69
313.139	5.72
313.508	5.75
313.877	5.76
314.246	5.79
314.616	5.79
314.985	5.82
315.353	5.84
315.722	5.86
316.091	5.88
316.46	5.9
316.829	5.93
317.198	5.96
317.567	5.99
317.935	6.02
318.304	6.04
318.672	6.06
319.041	6.09
319.41	6.11
319.778	6.15
320.147	6.18
320.515	6.2
320.883	6.23
321.252	6.25
321.62	6.27
321.988	6.27
322.357	6.3
322.725	6.33
323.093	6.35
323.461	6.36
323.829	6.39
324.197	6.42
324.565	6.43
324.933	6.45
325.301	6.48
325.669	6.51
326.037	6.52
326.405	6.55
326.772	6.56
327.14	6.58
327.508	6.58
327.875	6.59
328.243	6.6
328.61	6.6
328.978	6.62
329.346	6.64
329.713	6.67
330.08	6.69
330.448	6.69
330.815	6.71
331.182	6.73
331.55	6.74
331.917	6.76
332.284	6.75
332.651	6.76
333.018	6.78
333.385	6.81
333.752	6.83
334.119	6.85
334.486	6.86
334.853	6.88
335.22	6.91
335.587	6.93
335.954	6.94
336.32	6.96
336.687	6.97
337.054	6.98
337.42	7
337.787	7.01
338.153	7.03
338.52	7.03
338.886	7.04
339.253	7.04
339.619	7.06
339.986	7.07
340.352	7.08
340.718	7.09
341.084	7.11
341.451	7.12
341.817	7.14
342.183	7.14
342.549	7.16
342.915	7.17
343.281	7.18
343.647	7.18
344.013	7.19
344.379	7.2
344.745	7.2
345.11	7.19
345.476	7.21
345.842	7.21
346.208	7.22
346.573	7.21
346.939	7.21
347.304	7.22
347.67	7.23
348.035	7.23
348.401	7.24
348.766	7.24
349.132	7.25
349.497	7.25
349.862	7.24
350.228	7.23
350.593	7.23
350.958	7.24
351.323	7.25
351.688	7.24
352.053	7.24
352.418	7.23
352.783	7.22
353.148	7.22
353.513	7.21
353.878	7.19
354.243	7.19
354.608	7.17
354.972	7.16
355.337	7.16
355.702	7.14
356.066	7.13
356.431	7.11
356.795	7.09
357.16	7.06
357.524	7.05
357.889	7.04
358.253	7.02
358.618	7.01
358.982	6.99
359.346	6.98
359.71	6.97
360.075	6.96
360.439	6.93
360.803	6.92
361.167	6.9
361.531	6.89
361.895	6.87
362.259	6.84
362.623	6.82
362.987	6.8
363.351	6.78
363.714	6.75
364.078	6.72
364.442	6.7
364.806	6.68
365.169	6.65
365.533	6.63
365.896	6.6
366.26	6.58
366.623	6.55
366.987	6.52
367.35	6.5
367.714	6.47
368.077	6.44
368.44	6.41
368.803	6.38
369.167	6.35
369.53	6.31
369.893	6.27
370.256	6.23
370.619	6.2
370.982	6.16
371.345	6.13
371.708	6.1
372.071	6.07
372.434	6.04
372.797	6.01
373.159	5.98
373.522	5.95
373.885	5.92
374.247	5.89
374.61	5.86
374.973	5.82
375.335	5.79
375.698	5.75
376.06	5.72
376.423	5.69
376.785	5.66
377.147	5.63
377.51	5.6
377.872	5.57
378.234	5.54
378.596	5.52
378.958	5.49
379.321	5.46
379.683	5.43
380.045	5.4
380.407	5.38
380.769	5.35
381.13	5.32
381.492	5.29
381.854	5.27
382.216	5.24
382.578	5.22
382.939	5.2
383.301	5.18
383.663	5.15
384.024	5.13
384.386	5.11
384.747	5.08
385.109	5.06
385.47	5.04
385.832	5.01
386.193	4.99
386.554	4.97
386.916	4.94
387.277	4.93
387.638	4.91
387.999	4.89
388.36	4.87
388.721	4.85
389.082	4.83
389.443	4.81
389.804	4.79
390.165	4.78
390.526	4.76
390.887	4.74
391.248	4.73
391.609	4.71
391.969	4.69
392.33	4.68
392.691	4.66
393.051	4.65
393.412	4.63
393.772	4.61
394.133	4.6
394.493	4.58
394.854	4.56
395.214	4.54
395.574	4.52
395.935	4.51
396.295	4.49
396.655	4.48
397.015	4.46
397.376	4.45
397.736	4.44
398.096	4.42
398.456	4.41
398.816	4.4
399.176	4.38
399.535	4.37
399.895	4.36
400.255	4.35
400.615	4.34
400.975	4.33
401.334	4.32
401.694	4.31
402.054	4.3
402.413	4.28
402.773	4.27
403.132	4.27
403.492	4.26
403.851	4.25
404.211	4.24
404.57	4.24
404.929	4.23
405.288	4.22
405.648	4.22
406.007	4.21
406.366	4.21
406.725	4.2
407.084	4.2
407.443	4.19
407.802	4.19
408.161	4.19
408.52	4.19
408.879	4.18
409.238	4.18
409.596	4.18
409.955	4.18
410.314	4.18
410.673	4.18
411.031	4.18
411.39	4.18
411.748	4.18
412.107	4.18
412.465	4.18
412.824	4.2
413.182	4.22
413.54	4.24
413.899	4.26
414.257	4.29
414.615	4.33
414.974	4.35
415.332	4.38
415.69	4.42
416.048	4.44
416.406	4.48
416.764	4.51
417.122	4.53
417.48	4.56
417.838	4.59
418.195	4.61
418.553	4.63
418.911	4.64
419.269	4.65
419.626	4.64
419.984	4.63
420.342	4.62
420.699	4.6
421.057	4.58
421.414	4.56
421.772	4.55
422.129	4.54
422.486	4.53
422.844	4.52
423.201	4.52
423.558	4.52
423.915	4.51
424.273	4.51
424.63	4.51
424.987	4.51
425.344	4.5
425.701	4.5
426.058	4.5
426.415	4.5
426.772	4.5
427.128	4.49
427.485	4.48
427.842	4.47
428.199	4.45
428.555	4.43
428.912	4.41
429.269	4.38
429.625	4.36
429.982	4.33
430.338	4.3
430.695	4.28
431.051	4.25
431.407	4.23
431.764	4.21
432.12	4.19
432.476	4.17
432.832	4.16
433.189	4.16
433.545	4.17
433.901	4.18
434.257	4.2
434.613	4.23
434.969	4.25
435.325	4.27
435.681	4.32
436.036	4.34
436.392	4.36
436.748	4.37
437.104	4.38
437.459	4.4
437.815	4.42
438.171	4.45
438.526	4.47
438.882	4.5
439.237	4.54
439.593	4.58
439.948	4.61
440.304	4.65
440.659	4.67
441.014	4.69
441.369	4.72
441.725	4.74
442.08	4.76
442.435	4.77
442.79	4.78
443.145	4.78
443.5	4.78
443.855	4.79
444.21	4.78
444.565	4.78
444.92	4.77
445.275	4.76
445.629	4.75
445.984	4.74
446.339	4.73
446.693	4.72
447.048	4.7
447.403	4.69
447.757	4.66
448.112	4.65
448.466	4.62
448.82	4.6
449.175	4.57
449.529	4.56
449.883	4.54
450.238	4.51
450.592	4.51
450.946	4.5
451.3	4.49
451.654	4.5
452.008	4.5
452.362	4.51
452.716	4.51
453.07	4.51
453.424	4.5
453.778	4.5
454.132	4.49
454.486	4.48
454.839	4.46
455.193	4.44
455.547	4.43
455.9	4.4
456.254	4.38
456.607	4.35
456.961	4.33
457.314	4.3
457.668	4.3
458.021	4.29
458.375	4.28
458.728	4.29
459.081	4.29
459.434	4.3
459.787	4.31
460.141	4.32
460.494	4.33
460.847	4.33
461.2	4.34
461.553	4.35
461.906	4.35
462.259	4.36
462.611	4.36
462.964	4.37
463.317	4.38
463.67	4.39
464.022	4.4
464.375	4.41
464.728	4.41
465.08	4.42
465.433	4.42
465.785	4.42
466.138	4.41
466.49	4.4
466.843	4.38
467.195	4.36
467.547	4.34
467.899	4.31
468.252	4.29
468.604	4.26
468.956	4.25
469.308	4.23
469.66	4.23
470.012	4.22
470.364	4.23
470.716	4.24
471.068	4.25
471.42	4.27
471.772	4.3
472.123	4.31
472.475	4.32
472.827	4.33
473.178	4.34
473.53	4.35
473.882	4.37
474.233	4.39
474.585	4.43
474.936	4.49
475.288	4.58
475.639	4.7
475.99	4.83
476.342	4.99
476.693	5.15
477.044	5.32
477.395	5.49
477.746	5.67
478.097	5.85
478.448	6.03
478.8	6.2
479.15	6.36
479.501	6.51
479.852	6.65
480.203	6.79
480.554	6.91
480.905	7.03
481.255	7.14
481.606	7.25
481.957	7.35
482.307	7.45
482.658	7.54
483.009	7.63
483.359	7.72
483.709	7.8
484.06	7.88
484.41	7.96
484.761	8.04
485.111	8.12
485.461	8.19
485.811	8.25
486.162	8.31
486.512	8.36
486.862	8.41
487.212	8.43
487.562	8.45
487.912	8.47
488.262	8.47
488.612	8.47
488.961	8.45
489.311	8.41
489.661	8.34
490.011	8.25
490.36	8.14
490.71	8.02
491.06	7.89
491.409	7.74
491.759	7.6
492.108	7.44
492.458	7.28
492.807	7.12
493.157	6.95
493.506	6.8
493.855	6.65
494.204	6.51
494.554	6.38
494.903	6.26
495.252	6.14
495.601	6.03
495.95	5.92
496.299	5.82
496.648	5.73
496.997	5.64
497.346	5.56
497.695	5.48
498.043	5.41
498.392	5.34
498.741	5.27
499.09	5.2
499.438	5.15
499.787	5.1
500.135	5.05
500.484	5.01
500.832	4.98
501.181	4.97
501.529	4.97
501.878	4.98
502.226	5.01
502.574	5.03
502.923	5.07
503.271	5.1
503.619	5.13
503.967	5.17
504.315	5.21
504.663	5.25
505.011	5.29
505.359	5.33
505.707	5.37
506.055	5.42
506.403	5.46
506.751	5.52
507.098	5.58
507.446	5.63
507.794	5.69
508.141	5.76
508.489	5.83
508.837	5.91
509.184	5.98
509.531	6.06
509.879	6.14
510.226	6.23
510.574	6.33
510.921	6.43
511.268	6.54
511.616	6.64
511.963	6.76
512.31	6.87
512.657	6.98
513.004	7.09
513.351	7.19
513.698	7.29
514.045	7.39
514.392	7.48
514.739	7.56
515.086	7.64
515.432	7.71
515.779	7.79
516.126	7.87
516.473	7.96
516.819	8.06
517.166	8.17
517.512	8.29
517.859	8.42
518.205	8.56
518.552	8.72
518.898	8.89
519.245	9.09
519.591	9.33
519.937	9.62
520.283	9.96
520.629	10.33
520.976	10.72
521.322	11.13
521.668	11.56
522.014	11.99
522.36	12.42
522.706	12.85
523.052	13.26
523.398	13.65
523.743	14.02
524.089	14.35
524.435	14.67
524.781	14.98
525.126	15.29
525.472	15.59
525.817	15.89
526.163	16.18
526.509	16.47
526.854	16.76
527.199	17.05
527.545	17.34
527.89	17.65
528.235	17.95
528.581	18.25
528.926	18.53
529.271	18.79
529.616	19.05
529.961	19.3
530.306	19.55
530.651	19.77
530.996	19.98
531.341	20.18
531.686	20.38
532.031	20.56
532.376	20.78
532.721	21.01
533.065	21.27
533.41	21.53
533.755	21.78
534.099	22.02
534.444	22.25
534.788	22.46
535.133	22.66
535.477	22.84
535.822	23.01
536.166	23.15
536.51	23.25
536.855	23.32
537.199	23.37
537.543	23.42
537.887	23.48
538.231	23.57
538.576	23.66
538.92	23.75
539.264	23.83
539.608	23.89
539.951	23.94
540.295	23.98
540.639	24.02
540.983	24.04
541.327	24.05
541.671	24.04
542.014	24.06
542.358	24.08
542.701	24.16
543.045	24.28
543.389	24.42
543.732	24.58
544.075	24.75
544.419	24.94
544.762	25.13
545.105	25.34
545.449	25.55
545.792	25.77
546.135	26
546.478	26.19
546.821	26.35
547.165	26.47
547.508	26.56
547.851	26.61
548.194	26.62
548.536	26.61
548.879	26.57
549.222	26.51
549.565	26.46
549.908	26.41
550.25	26.37
550.593	26.38
550.936	26.44
551.278	26.55
551.621	26.68
551.963	26.83
552.306	26.99
552.648	27.17
552.991	27.38
553.333	27.6
553.675	27.85
554.017	28.12
554.36	28.42
554.702	28.74
555.044	29.09
555.386	29.48
555.728	29.9
556.07	30.27
556.412	30.65
556.754	30.96
557.096	31.23
557.438	31.51
557.78	31.78
558.121	32.06
558.463	32.33
558.805	32.61
559.147	32.88
559.488	33.15
559.83	33.42
560.171	33.68
560.513	33.94
560.854	34.2
561.196	34.45
561.537	34.7
561.878	34.95
562.22	35.18
562.561	35.42
562.902	35.66
563.243	35.89
563.584	36.12
563.925	36.35
564.266	36.59
564.607	36.82
564.948	37.05
565.289	37.27
565.63	37.48
565.971	37.69
566.312	37.91
566.653	38.12
566.993	38.33
567.334	38.52
567.675	38.72
568.015	38.91
568.356	39.1
568.696	39.28
569.037	39.45
569.377	39.63
569.718	39.8
570.058	39.96
570.398	40.11
570.739	40.27
571.079	40.42
571.419	40.56
571.759	40.69
572.099	40.83
572.439	40.96
572.779	41.09
573.119	41.23
573.459	41.36
573.799	41.49
574.139	41.62
574.479	41.75
574.819	41.88
575.158	42
575.498	42.12
575.838	42.25
576.177	42.37
576.517	42.49
576.856	42.6
577.196	42.72
577.535	42.82
577.875	42.93
578.214	43.04
578.553	43.14
578.893	43.25
579.232	43.36
579.571	43.47
579.91	43.58
580.25	43.69
580.589	43.8
580.928	43.91
581.267	44.03
581.606	44.15
581.945	44.26
582.283	44.37
582.622	44.49
582.961	44.6
583.3	44.71
583.639	44.82
583.977	44.94
584.316	45.05
584.654	45.17
584.993	45.29
585.332	45.39
585.67	45.51
586.008	45.62
586.347	45.73
586.685	45.84
587.024	45.94
587.362	46.05
587.7	46.17
588.038	46.28
588.376	46.39
588.715	46.51
589.053	46.64
589.391	46.75
589.729	46.86
590.067	46.98
590.404	47.09
590.742	47.2
591.08	47.31
591.418	47.42
591.756	47.53
592.093	47.63
592.431	47.73
592.769	47.8
593.106	47.88
593.444	47.98
593.781	48.05
594.119	48.13
594.456	48.2
594.793	48.28
595.131	48.36
595.468	48.43
595.805	48.52
596.143	48.61
596.48	48.69
596.817	48.79
597.154	48.88
597.491	48.97
597.828	49.06
598.165	49.15
598.502	49.23
598.839	49.31
599.176	49.4
599.512	49.47
599.849	49.55
600.186	49.62
600.523	49.69
600.859	49.75
601.196	49.82
601.532	49.88
601.869	49.95
602.205	50.01
602.542	50.07
602.878	50.13
603.215	50.19
603.551	50.25
603.887	50.31
604.223	50.38
604.56	50.43
604.896	50.5
605.232	50.54
605.568	50.58
605.904	50.62
606.24	50.67
606.576	50.73
606.912	50.78
607.248	50.81
607.583	50.86
607.919	50.9
608.255	50.95
608.591	50.99
608.926	51.04
609.262	51.08
609.597	51.12
609.933	51.15
610.268	51.18
610.604	51.23
610.939	51.27
611.275	51.31
611.61	51.35
611.945	51.37
612.281	51.4
612.616	51.44
612.951	51.47
613.286	51.5
613.621	51.56
613.956	51.59
614.291	51.64
614.626	51.68
614.961	51.73
615.296	51.77
615.631	51.81
615.966	51.84
616.3	51.88
616.635	51.92
616.97	51.96
617.304	51.99
617.639	52.03
617.973	52.08
618.308	52.12
618.642	52.16
618.977	52.21
619.311	52.27
619.646	52.33
619.98	52.39
620.314	52.43
620.648	52.49
620.983	52.55
621.317	52.59
621.651	52.64
621.985	52.69
622.319	52.74
622.653	52.78
622.987	52.82
623.321	52.86
623.655	52.9
623.988	52.95
624.322	52.99
624.656	53.02
624.99	53.07
625.323	53.12
625.657	53.15
625.99	53.19
626.324	53.22
626.657	53.25
626.991	53.29
627.324	53.31
627.658	53.35
627.991	53.38
628.324	53.42
628.657	53.46
628.991	53.5
629.324	53.54
629.657	53.59
629.99	53.63
630.323	53.66
630.656	53.7
630.989	53.74
631.322	53.77
631.655	53.79
631.987	53.82
632.32	53.85
632.653	53.89
632.986	53.91
633.318	53.94
633.651	53.97
633.984	54
634.316	54.01
634.649	54.04
634.981	54.07
635.313	54.1
635.646	54.14
635.978	54.16
636.31	54.19
636.643	54.23
636.975	54.27
637.307	54.3
637.639	54.34
637.971	54.37
638.303	54.41
638.635	54.43
638.967	54.46
639.299	54.5
639.631	54.53
639.963	54.57
640.295	54.61
640.626	54.65
640.958	54.69
641.29	54.73
641.621	54.78
641.953	54.8
642.285	54.83
642.616	54.86
642.948	54.88
643.279	54.9
643.61	54.94
643.942	54.97
644.273	55.01
644.604	55.04
644.936	55.08
645.267	55.11
645.598	55.15
645.929	55.18
646.26	55.21
646.591	55.26
646.922	55.3
647.253	55.32
647.584	55.36
647.915	55.41
648.245	55.46
648.576	55.51
648.907	55.54
649.238	55.58
649.568	55.62
649.899	55.65
650.229	55.69
650.56	55.73
650.89	55.76
651.221	55.78
651.551	55.81
651.882	55.85
652.212	55.89
652.542	55.92
652.872	55.97
653.203	56.02
653.533	56.05
653.863	56.09
654.193	56.13
654.523	56.16
654.853	56.2
655.183	56.23
655.513	56.26
655.843	56.29
656.172	56.31
656.502	56.35
656.832	56.39
657.162	56.41
657.491	56.45
657.821	56.47
658.15	56.52
658.48	56.54
658.809	56.58
659.139	56.61
659.468	56.64
659.798	56.69
660.127	56.72
660.456	56.74
660.785	56.78
661.115	56.8
661.444	56.82
661.773	56.85
662.102	56.87
662.431	56.92
662.76	56.94
663.089	56.98
663.418	57.01
663.747	57.03
664.076	57.05
664.404	57.09
664.733	57.13
665.062	57.17
665.39	57.18
665.719	57.21
666.048	57.24
666.376	57.27
666.705	57.31
667.033	57.33
667.362	57.37
667.69	57.4
668.018	57.43
668.347	57.46
668.675	57.5
669.003	57.54
669.331	57.58
669.659	57.63
669.987	57.67
670.315	57.71
670.643	57.76
670.971	57.78
671.299	57.8
671.627	57.84
671.955	57.87
672.283	57.9
672.61	57.94
672.938	57.96
673.266	57.99
673.593	58.02
673.921	58.07
674.249	58.09
674.576	58.14
674.904	58.15
675.231	58.18
675.558	58.2
675.886	58.21
676.213	58.24
676.54	58.25
676.867	58.27
677.195	58.29
677.522	58.32
677.849	58.35
678.176	58.37
678.503	58.38
678.83	58.4
679.157	58.42
679.484	58.45
679.81	58.46
680.137	58.48
680.464	58.51
680.791	58.52
681.117	58.54
681.444	58.57
681.771	58.58
682.097	58.59
682.424	58.61
682.75	58.64
683.077	58.65
683.403	58.67
683.729	58.69
684.056	58.7
684.382	58.71
684.708	58.75
685.034	58.75
685.36	58.78
685.686	58.79
686.012	58.8
686.339	58.85
686.664	58.86
686.99	58.87
687.316	58.88
687.642	58.91
687.968	58.91
688.294	58.93
688.619	58.94
688.945	58.98
689.271	59
689.596	59.03
689.922	59.07
690.247	59.11
690.573	59.14
690.898	59.17
691.224	59.21
691.549	59.23
691.874	59.27
692.2	59.27
692.525	59.31
692.85	59.34
693.175	59.38
693.5	59.4
693.825	59.42
694.15	59.46
694.475	59.48
694.8	59.49
695.125	59.51
695.45	59.53
695.775	59.55
696.099	59.55
696.424	59.56
696.749	59.56
697.073	59.58
697.398	59.61
697.723	59.64
698.047	59.63
698.372	59.67
698.696	59.69
699.02	59.7
699.345	59.72
699.669	59.72
699.993	59.74
700.318	59.76
700.642	59.78
700.966	59.8
701.29	59.83
701.614	59.87
701.938	59.91
702.262	59.92
702.586	59.94
702.91	59.94
703.234	59.97
703.557	59.98
703.881	60.01
704.205	60.02
704.529	60.02
704.852	60.04
705.176	60.04
705.499	60.1
705.823	60.11
706.146	60.14
706.47	60.15
706.793	60.19
707.117	60.21
707.44	60.2
707.763	60.23
708.086	60.26
708.409	60.26
708.733	60.3
709.056	60.32
709.379	60.34
709.702	60.37
710.025	60.41
710.348	60.42
710.671	60.42
710.993	60.44
711.316	60.47
711.639	60.49
711.962	60.49
712.284	60.53
712.607	60.53
712.93	60.54
713.252	60.55
713.575	60.59
713.897	60.6
714.22	60.62
714.542	60.62
714.864	60.62
715.187	60.6
715.509	60.61
715.831	60.63
716.153	60.68
716.475	60.65
716.798	60.66
717.12	60.65
717.442	60.7
717.764	60.73
718.085	60.76
718.407	60.79
718.729	60.8
719.051	60.82
719.373	60.81
719.695	60.84
720.016	60.84
720.338	60.86
720.659	60.91
720.981	60.93
721.302	60.93
721.624	60.97
721.945	60.96
722.267	61.01
722.588	61.05
722.909	61.04
723.231	61.05
723.552	61.08
723.873	61.14
724.194	61.16
724.515	61.19
724.836	61.2
725.157	61.21
725.478	61.22
725.799	61.25
726.12	61.27
726.441	61.29
726.762	61.29
727.083	61.29
727.403	61.29
727.724	61.33
728.045	61.35
728.365	61.37
728.686	61.4
729.006	61.42
729.327	61.45
729.647	61.47
729.967	61.5
730.288	61.51
730.608	61.5
730.928	61.53
731.249	61.53
731.569	61.52
731.889	61.55
732.209	61.55
732.529	61.55
732.849	61.58
733.169	61.59
733.489	61.6
733.809	61.62
734.129	61.63
734.448	61.65
734.768	61.66
735.088	61.66
735.408	61.66
735.727	61.66
736.047	61.67
736.366	61.67
736.686	61.66
737.005	61.65
737.325	61.64
737.644	61.61
737.963	61.6
738.283	61.63
738.602	61.64
738.921	61.65
739.24	61.67
739.56	61.7
739.879	61.68
740.198	61.67
740.517	61.71
740.836	61.69
741.155	61.69
741.473	61.67
741.792	61.66
742.111	61.65
742.43	61.61
742.748	61.6
743.067	61.62
743.386	61.62
743.704	61.61
744.023	61.59
744.341	61.61
744.66	61.64
744.978	61.61
745.297	61.59
745.615	61.6
745.933	61.55
746.252	61.53
746.57	61.52
746.888	61.51
747.206	61.52
747.524	61.53
747.842	61.5
748.16	61.53
748.478	61.51
748.796	61.54
749.114	61.56
749.432	61.59
749.749	61.58
750.067	61.59
750.385	61.65
750.703	61.67
751.02	61.71
751.338	61.69
751.655	61.69
751.973	61.69
752.29	61.7
752.608	61.66
752.925	61.67
753.242	61.72
753.56	61.72
753.877	61.75
754.194	61.75
754.511	61.81
754.828	61.81
755.145	61.84
755.462	61.86
755.779	61.89
756.096	61.9
756.413	61.91
756.73	61.99
757.047	62
757.364	62.04
757.68	62.05
757.997	62.12
758.314	62.16
758.63	62.21
758.947	62.27
759.264	62.36
759.58	62.44
759.896	62.44
760.213	62.48
760.529	62.49
760.846	62.55
761.162	62.58
761.478	62.61
761.794	62.6
762.11	62.59
762.426	62.62
762.743	62.68
763.059	62.68
763.375	62.64
763.69	62.66
764.006	62.68
764.322	62.69
764.638	62.71
764.954	62.74
765.27	62.74
765.585	62.77
765.901	62.8
766.216	62.79
766.532	62.78
766.848	62.78
767.163	62.82
767.478	62.81
767.794	62.85
768.109	62.85
768.424	62.87
768.74	62.88
769.055	62.88
769.37	62.9
769.685	62.83
770	62.85
770.315	62.84
770.63	62.86
770.945	62.81
771.26	62.81
771.575	62.79
771.89	62.77
772.205	62.67
772.52	62.62
772.834	62.67
773.149	62.66
773.464	62.68
773.778	62.68
774.093	62.65
774.407	62.66
774.722	62.68
775.036	62.68
775.351	62.66
775.665	62.62
775.979	62.63
776.293	62.64
776.608	62.62
776.922	62.61
777.236	62.59
777.55	62.59
777.864	62.58
778.178	62.6
778.492	62.64
778.806	62.63
779.12	62.65
779.434	62.67
779.747	62.67
780.061	62.7
780.375	62.72
780.689	62.69
781.002	62.7
781.316	62.69
781.629	62.67
781.943	62.68
782.256	62.68
782.57	62.74
782.883	62.72
783.196	62.76
783.51	62.74
783.823	62.76
784.136	62.76
784.449	62.85
784.762	62.88
785.075	62.95
785.388	62.96
785.701	62.93
786.014	62.95
786.327	62.91
786.64	62.93
786.953	62.92
787.266	62.91
787.578	62.94
787.891	62.97
788.204	63.01
788.516	63.02
788.829	63.05
789.141	63.07
789.454	63.1
789.766	63.09
790.079	63.17
790.391	63.2
790.703	63.26
791.016	63.26
791.328	63.28
791.64	63.31
791.952	63.3
792.264	63.28
792.576	63.29
792.888	63.28
793.2	63.25
793.512	63.26
793.824	63.27
794.136	63.29
794.448	63.31
794.76	63.35
795.071	63.36
795.383	63.38
795.695	63.37
796.006	63.36
796.318	63.38
796.629	63.37
796.941	63.37
797.252	63.33
797.564	63.35
797.875	63.3
798.186	63.36
798.497	63.35
798.809	63.35
799.12	63.35
799.431	63.34
799.742	63.39
800.053	63.42
800.364	63.44
800.675	63.46
800.986	63.47
801.297	63.47
801.608	63.46
801.918	63.43
802.229	63.48
802.54	63.47
802.851	63.38
803.161	63.33
803.472	63.28
803.782	63.26
804.093	63.29
804.403	63.26
804.714	63.31
805.024	63.36
805.334	63.33
805.645	63.32
805.955	63.39
806.265	63.45
806.575	63.46
806.885	63.45
807.195	63.48
807.505	63.44
807.815	63.55
808.125	63.59
808.435	63.63
808.745	63.63
809.055	63.67
809.365	63.72
809.674	63.73
809.984	63.77
810.294	63.78
810.603	63.81
810.913	63.74
811.222	63.8
811.532	63.77
811.841	63.75
812.151	63.78
812.46	63.79
812.769	63.78
813.079	63.73
813.388	63.67
813.697	63.65
814.006	63.7
814.315	63.71
814.624	63.79
814.933	63.71
815.242	63.76
815.551	63.82
815.86	63.87
816.169	63.98
816.478	64.06
816.786	64.05
817.095	64.05
817.404	64.05
817.712	64.07
818.021	64.14
818.33	64.16
818.638	64.14
818.947	64.14
819.255	64.1
819.563	64.14
819.872	64.19
820.18	64.24
820.488	64.29
820.796	64.31
821.105	64.31
821.413	64.35
821.721	64.31
822.029	64.29
822.337	64.32
822.645	64.31
822.953	64.34
823.26	64.35
823.568	64.35
823.876	64.3
824.184	64.32
824.491	64.33
824.799	64.29
825.107	64.28
825.414	64.29
825.722	64.3
826.029	64.32
826.337	64.33
826.644	64.32
826.951	64.33
827.259	64.33
827.566	64.35
827.873	64.37
828.18	64.38
828.488	64.39
828.795	64.37
829.102	64.35
829.409	64.35
829.716	64.37
830.023	64.36
830.329	64.36
830.636	64.37
830.943	64.36
831.25	64.37
831.557	64.37
831.863	64.42
832.17	64.39
832.476	64.31
832.783	64.26
833.089	64.17
833.396	64.11
833.702	64.11
834.009	64.06
834.315	64.09
834.621	64.1
834.928	64.06
835.234	64.06
835.54	63.99
835.846	63.97
836.152	63.96
836.458	64.05
836.764	64.06
837.07	64.04
837.376	64.08
837.682	64.1
837.988	64.12
838.293	64.15
838.599	64.18
838.905	64.13
839.211	64.12
839.516	64.06
839.822	64.05
840.127	64.01
840.433	63.99
840.738	63.98
841.044	63.93
841.349	63.91
841.654	63.89
841.959	63.87
842.265	63.9
842.57	63.91
842.875	63.9
843.18	63.75
843.485	63.74
843.79	63.81
844.095	63.84
844.4	63.74
844.705	63.8
845.01	63.88
845.315	64.01
845.619	64.03
845.924	64.14
846.229	64.14
846.533	64.21
846.838	64.21
847.142	64.29
847.447	64.31
847.751	64.43
848.056	64.48
848.36	64.57
848.664	64.49
848.969	64.51
849.273	64.42
849.577	64.54
849.881	64.67
850.185	64.68
850.489	64.54
850.794	64.49
851.097	64.47
851.401	64.65
851.705	64.81
852.009	64.95
852.313	65.01
852.617	65.19
852.92	65.28
853.224	65.36
853.528	65.55
853.831	65.51
854.135	65.52
854.438	65.5
854.742	65.42
855.045	65.57
855.349	65.73
855.652	65.91
855.955	65.67
856.259	65.57
856.562	65.53
856.865	65.6
857.168	65.65
857.471	65.71
857.774	65.52
858.077	65.39
858.38	65.48
858.683	65.48
858.986	65.31
859.289	65.2
859.592	65.11
859.894	65.28
860.197	65.14
860.5	65.13
860.802	65.13
861.105	65.35
861.407	65.23
861.71	65.3
862.012	65.26
862.315	65.29
862.617	65.26
862.919	65.4
863.222	65.28
863.524	65.24
863.826	65.17
864.128	64.93
864.43	64.86
864.732	64.97
865.034	64.79
865.336	64.53
865.638	64.63
865.94	64.5
866.242	64.58
866.544	64.79
866.846	64.78
867.147	64.77
867.449	64.62
867.751	64.38
868.052	64.33
868.354	64.68
868.655	64.74
868.957	64.78
869.258	64.88
869.56	64.89
869.861	64.96
870.162	65.13
870.463	65.26
870.765	65.07
871.066	65.04
871.367	65.12
871.668	65.32
871.969	65.48
872.27	65.43
872.571	65.54
872.872	65.54
873.173	65.45
873.473	65.43
873.774	65.54
874.075	65.52
874.376	65.5
874.676	65.38
874.977	65.43
875.277	65.37
875.578	65.51
875.878	65.51
876.179	65.57
876.479	65.83
876.78	65.9
877.08	65.66
877.38	65.81
877.68	66.05
877.981	65.9
878.281	65.92
878.581	65.9
