Data from UWBM55942_Reflection_00011.txt Node
Date: Sun May 02 14:11:43 EDT 2021
User: vgr7
Spectrometer: USB2G7710
Scans to average: 10
Trigger mode: 4
Integration Time (sec): 1.000000E-1
Electric dark correction enabled: true
Boxcar width: 20
XAxis mode: Wavelengths
Number of Pixels in Spectrum: 2048
>>>>>Begin Spectral Data<<<<<
177.721	-1580
178.105	-142.08
178.488	-369.88
178.871	-711.76
179.254	218.09
179.636	123.51
180.019	78.67
180.402	72.52
180.785	51.53
181.168	44.54
181.55	43.31
181.933	42.56
182.316	32.74
182.698	28.13
183.081	24.88
183.463	22.07
183.846	22.05
184.228	25.19
184.611	26.87
184.993	26.12
185.376	26.44
185.758	27.76
186.14	31.2
186.522	27.39
186.904	26.5
187.287	24.08
187.669	25.75
188.051	24.67
188.433	23.98
188.815	23.07
189.197	22.79
189.579	21.74
189.961	21.42
190.342	17.83
190.724	18.77
191.106	18.87
191.488	17.26
191.869	15.82
192.251	14.55
192.633	14.39
193.014	14.43
193.396	9.4
193.777	10.94
194.159	11.84
194.54	12.13
194.922	10.6
195.303	9.54
195.684	9.31
196.065	8.22
196.447	9.67
196.828	7.91
197.209	6.23
197.59	2.99
197.971	3.66
198.352	5.4
198.733	6.16
199.114	6.73
199.495	7.81
199.876	7.32
200.257	6.87
200.638	6.39
201.018	7.68
201.399	8.78
201.78	7.89
202.16	9.03
202.541	10.59
202.922	9.4
203.302	8.94
203.683	10.06
204.063	11.39
204.444	10.79
204.824	11.88
205.204	9.75
205.585	9.63
205.965	11.88
206.345	10.78
206.725	9.94
207.106	9.76
207.486	10.07
207.866	11.27
208.246	9.49
208.626	7.98
209.006	8.22
209.386	7.88
209.766	7.85
210.145	7.62
210.525	7.88
210.905	10.15
211.285	8.17
211.664	10.38
212.044	9.13
212.424	8.82
212.803	8.45
213.183	10.16
213.562	11.14
213.942	11.01
214.321	9.81
214.701	8.7
215.08	8.49
215.459	7.62
215.838	6.42
216.218	6.94
216.597	5.62
216.976	6.56
217.355	6.4
217.734	6.82
218.113	5.55
218.492	5.31
218.871	4.7
219.25	4.48
219.629	3.68
220.008	5.27
220.387	3.65
220.766	4.92
221.144	4.7
221.523	3.98
221.902	4.86
222.28	5.52
222.659	5.79
223.037	5.95
223.416	6.24
223.794	7.13
224.173	8.23
224.551	8.11
224.929	8.19
225.308	7.86
225.686	7.54
226.064	8.15
226.442	7.54
226.821	8.22
227.199	7.53
227.577	8.01
227.955	9.02
228.333	9.21
228.711	8.9
229.089	8.57
229.467	7.96
229.845	8.45
230.222	8.62
230.6	8.26
230.978	8.31
231.356	8.5
231.733	8.01
232.111	7.57
232.488	6.97
232.866	6.61
233.243	6.26
233.621	6.19
233.998	6.13
234.376	6.14
234.753	5.86
235.13	5.86
235.508	5.67
235.885	5.66
236.262	5.54
236.639	5.53
237.016	5.45
237.393	5.46
237.77	5.36
238.147	5.26
238.524	5.21
238.901	5.08
239.278	5.09
239.655	5.01
240.032	4.95
240.409	4.92
240.785	4.96
241.162	4.94
241.539	4.89
241.915	4.91
242.292	4.9
242.668	4.87
243.045	4.85
243.421	4.78
243.798	4.78
244.174	4.77
244.551	4.79
244.927	4.85
245.303	4.83
245.679	4.82
246.056	4.77
246.432	4.77
246.808	4.76
247.184	4.79
247.56	4.82
247.936	4.83
248.312	4.81
248.688	4.81
249.064	4.82
249.44	4.84
249.815	4.81
250.191	4.81
250.567	4.81
250.943	4.78
251.318	4.76
251.694	4.77
252.069	4.74
252.445	4.74
252.82	4.71
253.196	4.7
253.571	4.67
253.947	4.65
254.322	4.62
254.697	4.59
255.073	4.57
255.448	4.58
255.823	4.56
256.198	4.54
256.573	4.53
256.948	4.53
257.323	4.51
257.698	4.46
258.073	4.44
258.448	4.4
258.823	4.39
259.198	4.37
259.573	4.36
259.948	4.35
260.322	4.31
260.697	4.28
261.072	4.26
261.446	4.27
261.821	4.25
262.195	4.22
262.57	4.2
262.944	4.19
263.319	4.2
263.693	4.21
264.067	4.2
264.442	4.19
264.816	4.16
265.19	4.16
265.564	4.16
265.938	4.13
266.313	4.15
266.687	4.13
267.061	4.12
267.435	4.12
267.809	4.1
268.183	4.11
268.556	4.11
268.93	4.13
269.304	4.13
269.678	4.14
270.051	4.15
270.425	4.12
270.799	4.11
271.172	4.12
271.546	4.11
271.919	4.11
272.293	4.1
272.666	4.08
273.04	4.11
273.413	4.14
273.787	4.17
274.16	4.19
274.533	4.2
274.906	4.2
275.279	4.2
275.653	4.23
276.026	4.25
276.399	4.26
276.772	4.27
277.145	4.28
277.518	4.3
277.891	4.32
278.263	4.32
278.636	4.31
279.009	4.33
279.382	4.33
279.755	4.35
280.127	4.37
280.5	4.38
280.872	4.4
281.245	4.41
281.617	4.41
281.99	4.43
282.362	4.43
282.735	4.44
283.107	4.45
283.479	4.43
283.852	4.45
284.224	4.45
284.596	4.44
284.968	4.46
285.34	4.47
285.713	4.5
286.085	4.52
286.457	4.53
286.829	4.55
287.201	4.57
287.572	4.58
287.944	4.61
288.316	4.61
288.688	4.61
289.06	4.62
289.431	4.63
289.803	4.64
290.175	4.67
290.546	4.68
290.918	4.7
291.289	4.73
291.661	4.75
292.032	4.75
292.403	4.75
292.775	4.77
293.146	4.79
293.517	4.81
293.889	4.84
294.26	4.86
294.631	4.88
295.002	4.92
295.373	4.95
295.744	4.97
296.115	5
296.486	5.04
296.857	5.08
297.228	5.1
297.599	5.14
297.97	5.17
298.34	5.21
298.711	5.26
299.082	5.29
299.452	5.32
299.823	5.37
300.194	5.41
300.564	5.43
300.935	5.46
301.305	5.49
301.676	5.53
302.046	5.57
302.416	5.61
302.787	5.65
303.157	5.7
303.527	5.76
303.897	5.8
304.267	5.85
304.637	5.9
305.008	5.95
305.378	5.99
305.748	6.05
306.117	6.09
306.487	6.13
306.857	6.19
307.227	6.25
307.597	6.33
307.967	6.38
308.336	6.44
308.706	6.49
309.076	6.53
309.445	6.57
309.815	6.62
310.184	6.66
310.554	6.7
310.923	6.76
311.293	6.79
311.662	6.83
312.031	6.86
312.401	6.92
312.77	6.96
313.139	7.01
313.508	7.07
313.877	7.11
314.246	7.15
314.616	7.19
314.985	7.22
315.353	7.26
315.722	7.31
316.091	7.38
316.46	7.43
316.829	7.47
317.198	7.51
317.567	7.56
317.935	7.61
318.304	7.65
318.672	7.71
319.041	7.77
319.41	7.83
319.778	7.89
320.147	7.95
320.515	7.99
320.883	8.05
321.252	8.09
321.62	8.14
321.988	8.18
322.357	8.24
322.725	8.29
323.093	8.32
323.461	8.36
323.829	8.41
324.197	8.45
324.565	8.5
324.933	8.55
325.301	8.58
325.669	8.62
326.037	8.64
326.405	8.69
326.772	8.72
327.14	8.77
327.508	8.79
327.875	8.84
328.243	8.85
328.61	8.87
328.978	8.9
329.346	8.95
329.713	9.01
330.08	9.03
330.448	9.06
330.815	9.1
331.182	9.1
331.55	9.14
331.917	9.16
332.284	9.19
332.651	9.23
333.018	9.26
333.385	9.31
333.752	9.34
334.119	9.37
334.486	9.41
334.853	9.45
335.22	9.48
335.587	9.52
335.954	9.55
336.32	9.58
336.687	9.61
337.054	9.63
337.42	9.66
337.787	9.69
338.153	9.74
338.52	9.76
338.886	9.79
339.253	9.82
339.619	9.85
339.986	9.88
340.352	9.92
340.718	9.94
341.084	9.97
341.451	9.99
341.817	10.01
342.183	10.04
342.549	10.07
342.915	10.09
343.281	10.13
343.647	10.16
344.013	10.18
344.379	10.19
344.745	10.2
345.11	10.24
345.476	10.27
345.842	10.29
346.208	10.31
346.573	10.33
346.939	10.35
347.304	10.37
347.67	10.38
348.035	10.4
348.401	10.41
348.766	10.41
349.132	10.42
349.497	10.43
349.862	10.43
350.228	10.43
350.593	10.44
350.958	10.45
351.323	10.46
351.688	10.48
352.053	10.48
352.418	10.49
352.783	10.47
353.148	10.46
353.513	10.45
353.878	10.44
354.243	10.43
354.608	10.41
354.972	10.4
355.337	10.38
355.702	10.38
356.066	10.36
356.431	10.35
356.795	10.33
357.16	10.3
357.524	10.28
357.889	10.28
358.253	10.26
358.618	10.24
358.982	10.22
359.346	10.2
359.71	10.18
360.075	10.16
360.439	10.12
360.803	10.1
361.167	10.08
361.531	10.05
361.895	10.02
362.259	9.99
362.623	9.96
362.987	9.92
363.351	9.89
363.714	9.85
364.078	9.81
364.442	9.78
364.806	9.74
365.169	9.7
365.533	9.67
365.896	9.63
366.26	9.59
366.623	9.53
366.987	9.49
367.35	9.44
367.714	9.39
368.077	9.35
368.44	9.3
368.803	9.24
369.167	9.19
369.53	9.13
369.893	9.05
370.256	8.99
370.619	8.93
370.982	8.87
371.345	8.81
371.708	8.74
372.071	8.68
372.434	8.62
372.797	8.55
373.159	8.49
373.522	8.43
373.885	8.37
374.247	8.3
374.61	8.24
374.973	8.18
375.335	8.11
375.698	8.04
376.06	7.97
376.423	7.92
376.785	7.85
377.147	7.79
377.51	7.73
377.872	7.67
378.234	7.61
378.596	7.55
378.958	7.49
379.321	7.43
379.683	7.38
380.045	7.32
380.407	7.26
380.769	7.2
381.13	7.15
381.492	7.1
381.854	7.05
382.216	6.99
382.578	6.94
382.939	6.9
383.301	6.85
383.663	6.8
384.024	6.75
384.386	6.71
384.747	6.67
385.109	6.62
385.47	6.57
385.832	6.52
386.193	6.47
386.554	6.43
386.916	6.39
387.277	6.34
387.638	6.29
387.999	6.26
388.36	6.21
388.721	6.18
389.082	6.15
389.443	6.11
389.804	6.07
390.165	6.04
390.526	6.01
390.887	5.97
391.248	5.94
391.609	5.9
391.969	5.87
392.33	5.84
392.691	5.8
393.051	5.77
393.412	5.74
393.772	5.71
394.133	5.67
394.493	5.64
394.854	5.6
395.214	5.56
395.574	5.52
395.935	5.49
396.295	5.45
396.655	5.42
397.015	5.39
397.376	5.35
397.736	5.32
398.096	5.28
398.456	5.25
398.816	5.22
399.176	5.18
399.535	5.15
399.895	5.12
400.255	5.09
400.615	5.06
400.975	5.03
401.334	5
401.694	4.98
402.054	4.96
402.413	4.93
402.773	4.9
403.132	4.88
403.492	4.85
403.851	4.83
404.211	4.8
404.57	4.79
404.929	4.76
405.288	4.75
405.648	4.73
406.007	4.71
406.366	4.7
406.725	4.68
407.084	4.66
407.443	4.64
407.802	4.63
408.161	4.61
408.52	4.6
408.879	4.59
409.238	4.57
409.596	4.56
409.955	4.55
410.314	4.54
410.673	4.53
411.031	4.52
411.39	4.51
411.748	4.5
412.107	4.49
412.465	4.49
412.824	4.5
413.182	4.51
413.54	4.52
413.899	4.54
414.257	4.56
414.615	4.59
414.974	4.61
415.332	4.63
415.69	4.66
416.048	4.68
416.406	4.71
416.764	4.73
417.122	4.75
417.48	4.77
417.838	4.79
418.195	4.81
418.553	4.82
418.911	4.83
419.269	4.82
419.626	4.81
419.984	4.8
420.342	4.77
420.699	4.75
421.057	4.72
421.414	4.69
421.772	4.67
422.129	4.66
422.486	4.64
422.844	4.64
423.201	4.62
423.558	4.61
423.915	4.61
424.273	4.6
424.63	4.59
424.987	4.58
425.344	4.57
425.701	4.56
426.058	4.55
426.415	4.55
426.772	4.54
427.128	4.53
427.485	4.51
427.842	4.49
428.199	4.46
428.555	4.44
428.912	4.41
429.269	4.37
429.625	4.34
429.982	4.31
430.338	4.28
430.695	4.25
431.051	4.21
431.407	4.18
431.764	4.15
432.12	4.13
432.476	4.11
432.832	4.1
433.189	4.1
433.545	4.1
433.901	4.11
434.257	4.13
434.613	4.16
434.969	4.18
435.325	4.2
435.681	4.24
436.036	4.26
436.392	4.29
436.748	4.3
437.104	4.31
437.459	4.32
437.815	4.34
438.171	4.36
438.526	4.39
438.882	4.41
439.237	4.45
439.593	4.48
439.948	4.51
440.304	4.55
440.659	4.57
441.014	4.59
441.369	4.61
441.725	4.63
442.08	4.64
442.435	4.66
442.79	4.66
443.145	4.66
443.5	4.66
443.855	4.66
444.21	4.66
444.565	4.65
444.92	4.64
445.275	4.63
445.629	4.62
445.984	4.61
446.339	4.59
446.693	4.58
447.048	4.55
447.403	4.53
447.757	4.5
448.112	4.48
448.466	4.45
448.82	4.42
449.175	4.39
449.529	4.37
449.883	4.34
450.238	4.31
450.592	4.3
450.946	4.29
451.3	4.28
451.654	4.29
452.008	4.29
452.362	4.29
452.716	4.28
453.07	4.28
453.424	4.27
453.778	4.26
454.132	4.24
454.486	4.23
454.839	4.21
455.193	4.19
455.547	4.17
455.9	4.15
456.254	4.13
456.607	4.1
456.961	4.07
457.314	4.05
457.668	4.04
458.021	4.03
458.375	4.03
458.728	4.03
459.081	4.03
459.434	4.04
459.787	4.05
460.141	4.06
460.494	4.07
460.847	4.08
461.2	4.08
461.553	4.09
461.906	4.1
462.259	4.11
462.611	4.12
462.964	4.12
463.317	4.13
463.67	4.14
464.022	4.16
464.375	4.17
464.728	4.18
465.08	4.18
465.433	4.19
465.785	4.19
466.138	4.18
466.49	4.17
466.843	4.16
467.195	4.14
467.547	4.13
467.899	4.11
468.252	4.09
468.604	4.07
468.956	4.05
469.308	4.04
469.66	4.05
470.012	4.05
470.364	4.06
470.716	4.06
471.068	4.08
471.42	4.11
471.772	4.13
472.123	4.14
472.475	4.16
472.827	4.17
473.178	4.18
473.53	4.2
473.882	4.21
474.233	4.23
474.585	4.27
474.936	4.33
475.288	4.42
475.639	4.53
475.99	4.66
476.342	4.81
476.693	4.96
477.044	5.13
477.395	5.29
477.746	5.46
478.097	5.63
478.448	5.8
478.8	5.97
479.15	6.13
479.501	6.27
479.852	6.4
480.203	6.53
480.554	6.65
480.905	6.76
481.255	6.87
481.606	6.97
481.957	7.07
482.307	7.16
482.658	7.25
483.009	7.33
483.359	7.42
483.709	7.5
484.06	7.57
484.41	7.65
484.761	7.72
485.111	7.79
485.461	7.86
485.811	7.92
486.162	7.98
486.512	8.03
486.862	8.07
487.212	8.1
487.562	8.12
487.912	8.13
488.262	8.14
488.612	8.14
488.961	8.12
489.311	8.08
489.661	8.02
490.011	7.94
490.36	7.84
490.71	7.72
491.06	7.6
491.409	7.46
491.759	7.32
492.108	7.18
492.458	7.03
492.807	6.88
493.157	6.72
493.506	6.58
493.855	6.45
494.204	6.32
494.554	6.19
494.903	6.08
495.252	5.98
495.601	5.88
495.95	5.79
496.299	5.7
496.648	5.63
496.997	5.55
497.346	5.49
497.695	5.43
498.043	5.37
498.392	5.31
498.741	5.26
499.09	5.21
499.438	5.17
499.787	5.14
500.135	5.11
500.484	5.09
500.832	5.08
501.181	5.09
501.529	5.11
501.878	5.14
502.226	5.18
502.574	5.24
502.923	5.29
503.271	5.35
503.619	5.41
503.967	5.47
504.315	5.53
504.663	5.59
505.011	5.66
505.359	5.73
505.707	5.8
506.055	5.87
506.403	5.95
506.751	6.02
507.098	6.1
507.446	6.19
507.794	6.27
508.141	6.37
508.489	6.46
508.837	6.57
509.184	6.67
509.531	6.78
509.879	6.89
510.226	7.01
510.574	7.14
510.921	7.28
511.268	7.41
511.616	7.56
511.963	7.7
512.31	7.85
512.657	8.01
513.004	8.16
513.351	8.3
513.698	8.43
514.045	8.56
514.392	8.68
514.739	8.79
515.086	8.9
515.432	9.01
515.779	9.11
516.126	9.22
516.473	9.34
516.819	9.47
517.166	9.61
517.512	9.77
517.859	9.93
518.205	10.12
518.552	10.32
518.898	10.54
519.245	10.78
519.591	11.08
519.937	11.44
520.283	11.85
520.629	12.3
520.976	12.77
521.322	13.27
521.668	13.78
522.014	14.29
522.36	14.82
522.706	15.33
523.052	15.83
523.398	16.3
523.743	16.73
524.089	17.12
524.435	17.5
524.781	17.86
525.126	18.22
525.472	18.57
525.817	18.91
526.163	19.25
526.509	19.58
526.854	19.91
527.199	20.24
527.545	20.57
527.89	20.91
528.235	21.25
528.581	21.58
528.926	21.88
529.271	22.18
529.616	22.46
529.961	22.74
530.306	23.01
530.651	23.26
530.996	23.48
531.341	23.69
531.686	23.89
532.031	24.07
532.376	24.28
532.721	24.5
533.065	24.75
533.41	25.02
533.755	25.27
534.099	25.48
534.444	25.68
534.788	25.86
535.133	26.03
535.477	26.18
535.822	26.31
536.166	26.41
536.51	26.47
536.855	26.48
537.199	26.47
537.543	26.45
537.887	26.47
538.231	26.51
538.576	26.55
538.92	26.59
539.264	26.62
539.608	26.63
539.951	26.63
540.295	26.63
540.639	26.6
540.983	26.57
541.327	26.53
541.671	26.46
542.014	26.42
542.358	26.39
542.701	26.42
543.045	26.5
543.389	26.61
543.732	26.74
544.075	26.88
544.419	27.03
544.762	27.2
545.105	27.38
545.449	27.57
545.792	27.77
546.135	27.97
546.478	28.14
546.821	28.27
547.165	28.36
547.508	28.4
547.851	28.4
548.194	28.38
548.536	28.32
548.879	28.23
549.222	28.12
549.565	28.02
549.908	27.91
550.25	27.84
550.593	27.81
550.936	27.85
551.278	27.92
551.621	28.03
551.963	28.15
552.306	28.29
552.648	28.45
552.991	28.65
553.333	28.86
553.675	29.1
554.017	29.36
554.36	29.66
554.702	29.98
555.044	30.33
555.386	30.72
555.728	31.15
556.07	31.54
556.412	31.93
556.754	32.26
557.096	32.53
557.438	32.81
557.78	33.09
558.121	33.37
558.463	33.66
558.805	33.94
559.147	34.23
559.488	34.51
559.83	34.79
560.171	35.07
560.513	35.35
560.854	35.64
561.196	35.91
561.537	36.19
561.878	36.44
562.22	36.7
562.561	36.96
562.902	37.21
563.243	37.47
563.584	37.72
563.925	37.98
564.266	38.24
564.607	38.48
564.948	38.72
565.289	38.95
565.63	39.2
565.971	39.43
566.312	39.66
566.653	39.89
566.993	40.12
567.334	40.33
567.675	40.55
568.015	40.76
568.356	40.96
568.696	41.16
569.037	41.35
569.377	41.54
569.718	41.72
570.058	41.9
570.398	42.06
570.739	42.23
571.079	42.39
571.419	42.55
571.759	42.7
572.099	42.85
572.439	43
572.779	43.14
573.119	43.29
573.459	43.43
573.799	43.58
574.139	43.71
574.479	43.86
574.819	43.99
575.158	44.13
575.498	44.26
575.838	44.39
576.177	44.51
576.517	44.64
576.856	44.76
577.196	44.89
577.535	45
577.875	45.12
578.214	45.23
578.553	45.35
578.893	45.47
579.232	45.59
579.571	45.69
579.91	45.81
580.25	45.92
580.589	46.03
580.928	46.14
581.267	46.25
581.606	46.36
581.945	46.48
582.283	46.58
582.622	46.7
582.961	46.82
583.3	46.94
583.639	47.06
583.977	47.18
584.316	47.29
584.654	47.41
584.993	47.52
585.332	47.64
585.67	47.75
586.008	47.86
586.347	47.96
586.685	48.09
587.024	48.2
587.362	48.31
587.7	48.41
588.038	48.51
588.376	48.62
588.715	48.73
589.053	48.83
589.391	48.94
589.729	49.06
590.067	49.16
590.404	49.27
590.742	49.37
591.08	49.47
591.418	49.58
591.756	49.67
592.093	49.76
592.431	49.83
592.769	49.91
593.106	49.99
593.444	50.07
593.781	50.13
594.119	50.2
594.456	50.27
594.793	50.34
595.131	50.42
595.468	50.48
595.805	50.56
596.143	50.64
596.48	50.71
596.817	50.78
597.154	50.86
597.491	50.93
597.828	51.01
598.165	51.09
598.502	51.16
598.839	51.24
599.176	51.33
599.512	51.39
599.849	51.45
600.186	51.51
600.523	51.55
600.859	51.61
601.196	51.66
601.532	51.72
601.869	51.78
602.205	51.83
602.542	51.88
602.878	51.94
603.215	51.99
603.551	52.04
603.887	52.09
604.223	52.14
604.56	52.19
604.896	52.23
605.232	52.26
605.568	52.3
605.904	52.33
606.24	52.36
606.576	52.39
606.912	52.43
607.248	52.46
607.583	52.5
607.919	52.55
608.255	52.58
608.591	52.62
608.926	52.64
609.262	52.68
609.597	52.71
609.933	52.73
610.268	52.76
610.604	52.78
610.939	52.8
611.275	52.83
611.61	52.85
611.945	52.87
612.281	52.89
612.616	52.9
612.951	52.91
613.286	52.93
613.621	52.96
613.956	52.98
614.291	53.02
614.626	53.04
614.961	53.06
615.296	53.1
615.631	53.12
615.966	53.14
616.3	53.16
616.635	53.18
616.97	53.2
617.304	53.22
617.639	53.23
617.973	53.25
618.308	53.27
618.642	53.28
618.977	53.32
619.311	53.36
619.646	53.41
619.98	53.46
620.314	53.5
620.648	53.53
620.983	53.57
621.317	53.59
621.651	53.62
621.985	53.67
622.319	53.7
622.653	53.74
622.987	53.76
623.321	53.79
623.655	53.82
623.988	53.86
624.322	53.88
624.656	53.91
624.99	53.93
625.323	53.95
625.657	53.98
625.99	54.01
626.324	54.04
626.657	54.05
626.991	54.08
627.324	54.11
627.658	54.13
627.991	54.16
628.324	54.19
628.657	54.21
628.991	54.23
629.324	54.25
629.657	54.27
629.99	54.28
630.323	54.3
630.656	54.31
630.989	54.32
631.322	54.35
631.655	54.36
631.987	54.39
632.32	54.42
632.653	54.44
632.986	54.45
633.318	54.46
633.651	54.48
633.984	54.48
634.316	54.51
634.649	54.52
634.981	54.55
635.313	54.55
635.646	54.56
635.978	54.57
636.31	54.58
636.643	54.6
636.975	54.61
637.307	54.63
637.639	54.64
637.971	54.66
638.303	54.67
638.635	54.71
638.967	54.72
639.299	54.74
639.631	54.76
639.963	54.78
640.295	54.8
640.626	54.81
640.958	54.83
641.29	54.85
641.621	54.86
641.953	54.88
642.285	54.89
642.616	54.91
642.948	54.93
643.279	54.95
643.61	54.98
643.942	55
644.273	55.03
644.604	55.06
644.936	55.08
645.267	55.1
645.598	55.12
645.929	55.13
646.26	55.15
646.591	55.17
646.922	55.2
647.253	55.21
647.584	55.24
647.915	55.26
648.245	55.28
648.576	55.29
648.907	55.32
649.238	55.35
649.568	55.36
649.899	55.39
650.229	55.41
650.56	55.44
650.89	55.46
651.221	55.48
651.551	55.49
651.882	55.52
652.212	55.52
652.542	55.56
652.872	55.57
653.203	55.62
653.533	55.63
653.863	55.67
654.193	55.67
654.523	55.67
654.853	55.7
655.183	55.71
655.513	55.73
655.843	55.76
656.172	55.77
656.502	55.77
656.832	55.78
657.162	55.82
657.491	55.82
657.821	55.84
658.15	55.86
658.48	55.87
658.809	55.9
659.139	55.92
659.468	55.93
659.798	55.96
660.127	55.97
660.456	56
660.785	56.01
661.115	56.02
661.444	56.04
661.773	56.05
662.102	56.07
662.431	56.08
662.76	56.1
663.089	56.11
663.418	56.11
663.747	56.13
664.076	56.16
664.404	56.17
664.733	56.19
665.062	56.22
665.39	56.23
665.719	56.26
666.048	56.28
666.376	56.29
666.705	56.29
667.033	56.3
667.362	56.3
667.69	56.32
668.018	56.33
668.347	56.33
668.675	56.33
669.003	56.34
669.331	56.37
669.659	56.38
669.987	56.4
670.315	56.44
670.643	56.44
670.971	56.45
671.299	56.49
671.627	56.49
671.955	56.51
672.283	56.51
672.61	56.51
672.938	56.54
673.266	56.54
673.593	56.56
673.921	56.58
674.249	56.59
674.576	56.62
674.904	56.62
675.231	56.62
675.558	56.63
675.886	56.65
676.213	56.65
676.54	56.66
676.867	56.66
677.195	56.66
677.522	56.66
677.849	56.68
678.176	56.68
678.503	56.68
678.83	56.7
679.157	56.7
679.484	56.7
679.81	56.71
680.137	56.71
680.464	56.73
680.791	56.74
681.117	56.76
681.444	56.8
681.771	56.8
682.097	56.82
682.424	56.83
682.75	56.82
683.077	56.83
683.403	56.85
683.729	56.83
684.056	56.86
684.382	56.87
684.708	56.89
685.034	56.91
685.36	56.92
685.686	56.93
686.012	56.94
686.339	56.94
686.664	56.96
686.99	56.98
687.316	56.97
687.642	56.99
687.968	57
688.294	57.02
688.619	57.03
688.945	57.05
689.271	57.07
689.596	57.08
689.922	57.1
690.247	57.12
690.573	57.13
690.898	57.13
691.224	57.15
691.549	57.18
691.874	57.22
692.2	57.24
692.525	57.26
692.85	57.28
693.175	57.28
693.5	57.32
693.825	57.31
694.15	57.33
694.475	57.35
694.8	57.35
695.125	57.37
695.45	57.38
695.775	57.39
696.099	57.4
696.424	57.41
696.749	57.41
697.073	57.43
697.398	57.42
697.723	57.42
698.047	57.4
698.372	57.41
698.696	57.42
699.02	57.44
699.345	57.45
699.669	57.48
699.993	57.49
700.318	57.47
700.642	57.49
700.966	57.51
701.29	57.52
701.614	57.54
701.938	57.53
702.262	57.55
702.586	57.53
702.91	57.54
703.234	57.56
703.557	57.6
703.881	57.63
704.205	57.66
704.529	57.64
704.852	57.63
705.176	57.64
705.499	57.63
705.823	57.63
706.146	57.64
706.47	57.65
706.793	57.64
707.117	57.66
707.44	57.68
707.763	57.69
708.086	57.69
708.409	57.71
708.733	57.73
709.056	57.73
709.379	57.76
709.702	57.8
710.025	57.81
710.348	57.83
710.671	57.85
710.993	57.85
711.316	57.89
711.639	57.89
711.962	57.93
712.284	57.94
712.607	57.94
712.93	57.92
713.252	57.93
713.575	57.95
713.897	57.95
714.22	57.95
714.542	57.95
714.864	57.96
715.187	57.98
715.509	57.99
715.831	58.01
716.153	58.04
716.475	58.05
716.798	58.05
717.12	58.06
717.442	58.09
717.764	58.11
718.085	58.12
718.407	58.12
718.729	58.13
719.051	58.15
719.373	58.16
719.695	58.19
720.016	58.21
720.338	58.24
720.659	58.24
720.981	58.28
721.302	58.3
721.624	58.32
721.945	58.32
722.267	58.34
722.588	58.33
722.909	58.34
723.231	58.35
723.552	58.35
723.873	58.37
724.194	58.39
724.515	58.38
724.836	58.37
725.157	58.38
725.478	58.4
725.799	58.43
726.12	58.46
726.441	58.46
726.762	58.48
727.083	58.51
727.403	58.54
727.724	58.58
728.045	58.58
728.365	58.63
728.686	58.64
729.006	58.68
729.327	58.67
729.647	58.7
729.967	58.68
730.288	58.67
730.608	58.68
730.928	58.7
731.249	58.7
731.569	58.7
731.889	58.73
732.209	58.74
732.529	58.74
732.849	58.75
733.169	58.74
733.489	58.72
733.809	58.74
734.129	58.73
734.448	58.75
734.768	58.74
735.088	58.77
735.408	58.79
735.727	58.8
736.047	58.78
736.366	58.79
736.686	58.8
737.005	58.79
737.325	58.81
737.644	58.82
737.963	58.85
738.283	58.8
738.602	58.8
738.921	58.78
739.24	58.8
739.56	58.81
739.879	58.81
740.198	58.8
740.517	58.79
740.836	58.75
741.155	58.73
741.473	58.72
741.792	58.71
742.111	58.65
742.43	58.67
742.748	58.64
743.067	58.66
743.386	58.7
743.704	58.69
744.023	58.69
744.341	58.68
744.66	58.7
744.978	58.66
745.297	58.66
745.615	58.66
745.933	58.65
746.252	58.68
746.57	58.69
746.888	58.69
747.206	58.7
747.524	58.68
747.842	58.66
748.16	58.68
748.478	58.67
748.796	58.7
749.114	58.74
749.432	58.74
749.749	58.73
750.067	58.76
750.385	58.75
750.703	58.74
751.02	58.76
751.338	58.76
751.655	58.78
751.973	58.82
752.29	58.78
752.608	58.77
752.925	58.75
753.242	58.78
753.56	58.78
753.877	58.81
754.194	58.84
754.511	58.82
754.828	58.84
755.145	58.89
755.462	58.89
755.779	58.94
756.096	58.97
756.413	58.94
756.73	58.93
757.047	58.95
757.364	58.99
757.68	59.04
757.997	59.08
758.314	59.11
758.63	59.14
758.947	59.19
759.264	59.21
759.58	59.26
759.896	59.27
760.213	59.31
760.529	59.34
760.846	59.39
761.162	59.38
761.478	59.4
761.794	59.43
762.11	59.43
762.426	59.45
762.743	59.47
763.059	59.47
763.375	59.45
763.69	59.48
764.006	59.5
764.322	59.55
764.638	59.55
764.954	59.54
765.27	59.59
765.585	59.62
765.901	59.64
766.216	59.63
766.532	59.59
766.848	59.58
767.163	59.58
767.478	59.6
767.794	59.59
768.109	59.58
768.424	59.61
768.74	59.58
769.055	59.58
769.37	59.59
769.685	59.62
770	59.62
770.315	59.63
770.63	59.62
770.945	59.62
771.26	59.59
771.575	59.56
771.89	59.53
772.205	59.52
772.52	59.5
772.834	59.44
773.149	59.41
773.464	59.39
773.778	59.39
774.093	59.39
774.407	59.36
774.722	59.32
775.036	59.32
775.351	59.31
775.665	59.32
775.979	59.31
776.293	59.35
776.608	59.32
776.922	59.3
777.236	59.26
777.55	59.24
777.864	59.23
778.178	59.18
778.492	59.16
778.806	59.17
779.12	59.17
779.434	59.25
779.747	59.3
780.061	59.29
780.375	59.31
780.689	59.33
781.002	59.4
781.316	59.36
781.629	59.36
781.943	59.34
782.256	59.35
782.57	59.32
782.883	59.32
783.196	59.34
783.51	59.32
783.823	59.34
784.136	59.4
784.449	59.41
784.762	59.4
785.075	59.37
785.388	59.36
785.701	59.36
786.014	59.38
786.327	59.42
786.64	59.36
786.953	59.38
787.266	59.41
787.578	59.42
787.891	59.45
788.204	59.44
788.516	59.47
788.829	59.49
789.141	59.44
789.454	59.49
789.766	59.49
790.079	59.52
790.391	59.52
790.703	59.56
791.016	59.56
791.328	59.63
791.64	59.69
791.952	59.67
792.264	59.66
792.576	59.66
792.888	59.68
793.2	59.7
793.512	59.69
793.824	59.65
794.136	59.67
794.448	59.66
794.76	59.67
795.071	59.67
795.383	59.7
795.695	59.69
796.006	59.68
796.318	59.71
796.629	59.66
796.941	59.63
797.252	59.63
797.564	59.64
797.875	59.61
798.186	59.57
798.497	59.61
798.809	59.58
799.12	59.54
799.431	59.59
799.742	59.57
800.053	59.6
800.364	59.6
800.675	59.58
800.986	59.59
801.297	59.54
801.608	59.59
801.918	59.64
802.229	59.62
802.54	59.58
802.851	59.51
803.161	59.56
803.472	59.52
803.782	59.57
804.093	59.57
804.403	59.52
804.714	59.56
805.024	59.58
805.334	59.51
805.645	59.52
805.955	59.49
806.265	59.53
806.575	59.54
806.885	59.49
807.195	59.58
807.505	59.58
807.815	59.65
808.125	59.66
808.435	59.67
808.745	59.66
809.055	59.63
809.365	59.68
809.674	59.69
809.984	59.71
810.294	59.77
810.603	59.84
810.913	59.91
811.222	59.94
811.532	59.93
811.841	59.97
812.151	60
812.46	60.02
812.769	59.97
813.079	59.96
813.388	59.99
813.697	60
814.006	60.08
814.315	60.03
814.624	60.09
814.933	60.13
815.242	60.21
815.551	60.23
815.86	60.21
816.169	60.24
816.478	60.23
816.786	60.24
817.095	60.2
817.404	60.22
817.712	60.26
818.021	60.31
818.33	60.33
818.638	60.36
818.947	60.37
819.255	60.39
819.563	60.4
819.872	60.4
820.18	60.41
820.488	60.42
820.796	60.42
821.105	60.43
821.413	60.45
821.721	60.49
822.029	60.48
822.337	60.5
822.645	60.51
822.953	60.5
823.26	60.51
823.568	60.52
823.876	60.52
824.184	60.56
824.491	60.56
824.799	60.55
825.107	60.56
825.414	60.57
825.722	60.6
826.029	60.61
826.337	60.62
826.644	60.6
826.951	60.61
827.259	60.59
827.566	60.59
827.873	60.6
828.18	60.62
828.488	60.64
828.795	60.65
829.102	60.67
829.409	60.67
829.716	60.67
830.023	60.7
830.329	60.68
830.636	60.67
830.943	60.7
831.25	60.7
831.557	60.71
831.863	60.74
832.17	60.79
832.476	60.77
832.783	60.77
833.089	60.76
833.396	60.78
833.702	60.8
834.009	60.76
834.315	60.72
834.621	60.73
834.928	60.69
835.234	60.69
835.54	60.66
835.846	60.65
836.152	60.59
836.458	60.58
836.764	60.53
837.07	60.53
837.376	60.56
837.682	60.54
837.988	60.52
838.293	60.46
838.599	60.41
838.905	60.38
839.211	60.42
839.516	60.39
839.822	60.43
840.127	60.43
840.433	60.41
840.738	60.39
841.044	60.36
841.349	60.3
841.654	60.24
841.959	60.15
842.265	60.16
842.57	60.05
842.875	60.03
843.18	59.99
843.485	59.87
843.79	59.8
844.095	59.76
844.4	59.69
844.705	59.62
845.01	59.57
845.315	59.57
845.619	59.55
845.924	59.47
846.229	59.42
846.533	59.44
846.838	59.51
847.142	59.56
847.447	59.7
847.751	59.67
848.056	59.77
848.36	59.88
848.664	60.01
848.969	60.02
849.273	59.98
849.577	59.87
849.881	59.8
850.185	59.77
850.489	59.75
850.794	59.82
851.097	59.82
851.401	59.86
851.705	59.83
852.009	59.96
852.313	59.88
852.617	59.93
852.92	59.87
853.224	59.87
853.528	59.77
853.831	59.86
854.135	59.8
854.438	59.88
854.742	59.98
855.045	60.12
855.349	60.13
855.652	60.31
855.955	60.36
856.259	60.42
856.562	60.55
856.865	60.53
857.168	60.61
857.471	60.63
857.774	60.69
858.077	60.66
858.38	60.67
858.683	60.75
858.986	60.89
859.289	60.76
859.592	60.66
859.894	60.58
860.197	60.69
860.5	60.45
860.802	60.52
861.105	60.51
861.407	60.34
861.71	60.49
862.012	60.48
862.315	60.52
862.617	60.54
862.919	60.67
863.222	60.48
863.524	60.47
863.826	60.3
864.128	60.11
864.43	59.95
864.732	60.04
865.034	59.98
865.336	59.98
865.638	60.19
865.94	60.22
866.242	60.18
866.544	60.48
866.846	60.54
867.147	60.46
867.449	60.39
867.751	60.36
868.052	60.42
868.354	60.33
868.655	60.32
868.957	60.26
869.258	60.26
869.56	60.25
869.861	60.43
870.162	60.32
870.463	60.37
870.765	60.41
871.066	60.41
871.367	60.33
871.668	60.41
871.969	60.58
872.27	60.58
872.571	60.48
872.872	60.63
873.173	60.5
873.473	60.46
873.774	60.67
874.075	60.62
874.376	60.68
874.676	60.65
874.977	60.74
875.277	60.61
875.578	60.82
875.878	60.88
876.179	61.03
876.479	61.28
876.78	61.4
877.08	61.33
877.38	61.39
877.68	61.41
877.981	61.22
878.281	61.45
878.581	61.5
