Data from UWBM42201_Reflection_00001.txt Node
Date: Sun May 02 12:47:54 EDT 2021
User: vgr7
Spectrometer: USB2G7710
Scans to average: 10
Trigger mode: 4
Integration Time (sec): 1.000000E-1
Electric dark correction enabled: true
Boxcar width: 20
XAxis mode: Wavelengths
Number of Pixels in Spectrum: 2048
>>>>>Begin Spectral Data<<<<<
177.721	101.75
178.105	101.48
178.488	101.02
178.871	100.89
179.254	101.05
179.636	99.68
180.019	97.41
180.402	95.75
180.785	93.31
181.168	90.28
181.55	87.12
181.933	113.59
182.316	114.03
182.698	115.89
183.081	117.92
183.463	119.92
183.846	121.8
184.228	122.78
184.611	123.86
184.993	126.87
185.376	129.16
185.758	-100.97
186.14	-43.26
186.522	-8.3
186.904	1.77
187.287	9.23
187.669	11.04
188.051	8.66
188.433	13.88
188.815	9.88
189.197	8.47
189.579	11.61
189.961	12.63
190.342	12.34
190.724	13.14
191.106	13.63
191.488	14.16
191.869	8.76
192.251	10.5
192.633	6.7
193.014	3.69
193.396	1.5
193.777	8.72
194.159	8.65
194.54	7.3
194.922	7.33
195.303	9.21
195.684	11.52
196.065	12.84
196.447	10.81
196.828	10.63
197.209	11.76
197.59	3.3
197.971	2.36
198.352	3.29
198.733	7.24
199.114	8.09
199.495	7.04
199.876	7.79
200.257	5.76
200.638	5.54
201.018	-0.53
201.399	-2.52
201.78	-4.64
202.16	-5.9
202.541	-3.53
202.922	-3.71
203.302	-8.15
203.683	-8.48
204.063	-9.19
204.444	-7.69
204.824	-2.91
205.204	-0.11
205.585	7.77
205.965	7.4
206.345	8.61
206.725	1.83
207.106	1.25
207.486	2.35
207.866	2.32
208.246	2.59
208.626	5.06
209.006	10.18
209.386	5.19
209.766	5.94
210.145	4.74
210.525	2.82
210.905	3.34
211.285	3.82
211.664	2.73
212.044	5.65
212.424	6.28
212.803	1.19
213.183	3.3
213.562	2.51
213.942	2.04
214.321	-1.9
214.701	-3.21
215.08	-1.35
215.459	-2.31
215.838	-2.4
216.218	-1.77
216.597	-2.63
216.976	-6.26
217.355	-4.81
217.734	-4.36
218.113	-4.41
218.492	-2.94
218.871	-0.95
219.25	0.01
219.629	-1.29
220.008	-1.46
220.387	-2.66
220.766	-2.97
221.144	-3.39
221.523	-1.59
221.902	-0.9
222.28	0.85
222.659	2.26
223.037	2.56
223.416	3.28
223.794	4.48
224.173	3.97
224.551	3.53
224.929	4.29
225.308	4.94
225.686	4.96
226.064	5.46
226.442	5.21
226.821	4.92
227.199	4.84
227.577	3.91
227.955	3.43
228.333	3.49
228.711	3.54
229.089	4.09
229.467	3.53
229.845	4.24
230.222	4.4
230.6	4.85
230.978	4.97
231.356	4.83
231.733	4.95
232.111	4.9
232.488	4.83
232.866	4.91
233.243	4.6
233.621	4.67
233.998	4.56
234.376	4.56
234.753	4.54
235.13	4.76
235.508	5.31
235.885	5.48
236.262	5.52
236.639	5.74
237.016	5.66
237.393	5.62
237.77	5.48
238.147	5.47
238.524	5.51
238.901	5.52
239.278	5.57
239.655	5.59
240.032	5.56
240.409	5.56
240.785	5.44
241.162	5.51
241.539	5.49
241.915	5.55
242.292	5.53
242.668	5.42
243.045	5.41
243.421	5.32
243.798	5.28
244.174	5.25
244.551	5.19
244.927	5.05
245.303	5.01
245.679	5.03
246.056	5
246.432	5
246.808	4.77
247.184	4.74
247.56	4.73
247.936	4.76
248.312	4.74
248.688	4.8
249.064	4.77
249.44	4.74
249.815	4.74
250.191	4.72
250.567	4.7
250.943	4.77
251.318	4.76
251.694	4.7
252.069	4.63
252.445	4.63
252.82	4.72
253.196	4.73
253.571	4.68
253.947	4.73
254.322	4.68
254.697	4.78
255.073	4.75
255.448	4.74
255.823	4.73
256.198	4.71
256.573	4.52
256.948	4.5
257.323	4.49
257.698	4.43
258.073	4.43
258.448	4.31
258.823	4.3
259.198	4.3
259.573	4.32
259.948	4.34
260.322	4.31
260.697	4.3
261.072	4.28
261.446	4.25
261.821	4.2
262.195	4.18
262.57	4.16
262.944	4.16
263.319	4.14
263.693	4.15
264.067	4.16
264.442	4.26
264.816	4.25
265.19	4.23
265.564	4.28
265.938	4.25
266.313	4.3
266.687	4.26
267.061	4.25
267.435	4.23
267.809	4.23
268.183	4.2
268.556	4.22
268.93	4.22
269.304	4.22
269.678	4.19
270.051	4.16
270.425	4.18
270.799	4.19
271.172	4.17
271.546	4.16
271.919	4.17
272.293	4.16
272.666	4.17
273.04	4.18
273.413	4.12
273.787	4.11
274.16	4.11
274.533	4.14
274.906	4.13
275.279	4.15
275.653	4.15
276.026	4.15
276.399	4.12
276.772	4.11
277.145	4.14
277.518	4.15
277.891	4.17
278.263	4.18
278.636	4.18
279.009	4.2
279.382	4.18
279.755	4.14
280.127	4.16
280.5	4.16
280.872	4.14
281.245	4.25
281.617	4.24
281.99	4.26
282.362	4.3
282.735	4.3
283.107	4.28
283.479	4.3
283.852	4.3
284.224	4.32
284.596	4.28
284.968	4.17
285.34	4.17
285.713	4.14
286.085	4.06
286.457	4.06
286.829	4.04
287.201	4.04
287.572	4.08
287.944	4.09
288.316	4.11
288.688	4.15
289.06	4.15
289.431	4.16
289.803	4.15
290.175	4.16
290.546	4.17
290.918	4.17
291.289	4.15
291.661	4.16
292.032	4.12
292.403	4.15
292.775	4.24
293.146	4.24
293.517	4.26
293.889	4.33
294.26	4.33
294.631	4.33
295.002	4.36
295.373	4.38
295.744	4.37
296.115	4.37
296.486	4.29
296.857	4.3
297.228	4.3
297.599	4.29
297.97	4.27
298.34	4.28
298.711	4.22
299.082	4.22
299.452	4.24
299.823	4.28
300.194	4.3
300.564	4.3
300.935	4.3
301.305	4.29
301.676	4.28
302.046	4.29
302.416	4.29
302.787	4.3
303.157	4.24
303.527	4.23
303.897	4.24
304.267	4.24
304.637	4.25
305.008	4.28
305.378	4.29
305.748	4.27
306.117	4.34
306.487	4.4
306.857	4.44
307.227	4.44
307.597	4.42
307.967	4.42
308.336	4.41
308.706	4.42
309.076	4.42
309.445	4.4
309.815	4.31
310.184	4.31
310.554	4.26
310.923	4.3
311.293	4.31
311.662	4.32
312.031	4.3
312.401	4.29
312.77	4.27
313.139	4.26
313.508	4.28
313.877	4.21
314.246	4.2
314.616	4.17
314.985	4.11
315.353	4.1
315.722	4.1
316.091	4.11
316.46	4.12
316.829	4.14
317.198	4.15
317.567	4.28
317.935	4.26
318.304	4.3
318.672	4.32
319.041	4.31
319.41	4.32
319.778	4.35
320.147	4.35
320.515	4.34
320.883	4.34
321.252	4.28
321.62	4.32
321.988	4.31
322.357	4.3
322.725	4.36
323.093	4.36
323.461	4.37
323.829	4.38
324.197	4.37
324.565	4.36
324.933	4.36
325.301	4.34
325.669	4.35
326.037	4.35
326.405	4.32
326.772	4.33
327.14	4.32
327.508	4.31
327.875	4.31
328.243	4.32
328.61	4.28
328.978	4.29
329.346	4.3
329.713	4.28
330.08	4.28
330.448	4.28
330.815	4.25
331.182	4.25
331.55	4.22
331.917	4.24
332.284	4.23
332.651	4.26
333.018	4.26
333.385	4.26
333.752	4.26
334.119	4.27
334.486	4.28
334.853	4.25
335.22	4.25
335.587	4.23
335.954	4.23
336.32	4.23
336.687	4.22
337.054	4.23
337.42	4.25
337.787	4.23
338.153	4.24
338.52	4.27
338.886	4.28
339.253	4.28
339.619	4.27
339.986	4.24
340.352	4.23
340.718	4.23
341.084	4.23
341.451	4.21
341.817	4.18
342.183	4.17
342.549	4.21
342.915	4.21
343.281	4.23
343.647	4.24
344.013	4.26
344.379	4.27
344.745	4.27
345.11	4.27
345.476	4.29
345.842	4.31
346.208	4.29
346.573	4.29
346.939	4.3
347.304	4.3
347.67	4.3
348.035	4.32
348.401	4.3
348.766	4.32
349.132	4.32
349.497	4.33
349.862	4.34
350.228	4.36
350.593	4.36
350.958	4.36
351.323	4.35
351.688	4.37
352.053	4.35
352.418	4.36
352.783	4.36
353.148	4.36
353.513	4.35
353.878	4.36
354.243	4.36
354.608	4.35
354.972	4.36
355.337	4.37
355.702	4.35
356.066	4.36
356.431	4.35
356.795	4.36
357.16	4.34
357.524	4.33
357.889	4.32
358.253	4.31
358.618	4.32
358.982	4.34
359.346	4.34
359.71	4.34
360.075	4.34
360.439	4.34
360.803	4.33
361.167	4.31
361.531	4.33
361.895	4.33
362.259	4.33
362.623	4.33
362.987	4.31
363.351	4.33
363.714	4.33
364.078	4.33
364.442	4.33
364.806	4.34
365.169	4.31
365.533	4.31
365.896	4.31
366.26	4.31
366.623	4.3
366.987	4.3
367.35	4.3
367.714	4.3
368.077	4.31
368.44	4.3
368.803	4.31
369.167	4.3
369.53	4.31
369.893	4.32
370.256	4.32
370.619	4.34
370.982	4.33
371.345	4.33
371.708	4.33
372.071	4.34
372.434	4.35
372.797	4.36
373.159	4.38
373.522	4.38
373.885	4.37
374.247	4.35
374.61	4.35
374.973	4.34
375.335	4.34
375.698	4.34
376.06	4.35
376.423	4.34
376.785	4.34
377.147	4.34
377.51	4.34
377.872	4.35
378.234	4.35
378.596	4.37
378.958	4.38
379.321	4.38
379.683	4.38
380.045	4.38
380.407	4.38
380.769	4.37
381.13	4.38
381.492	4.38
381.854	4.38
382.216	4.38
382.578	4.39
382.939	4.39
383.301	4.39
383.663	4.4
384.024	4.39
384.386	4.4
384.747	4.4
385.109	4.39
385.47	4.39
385.832	4.4
386.193	4.39
386.554	4.4
386.916	4.4
387.277	4.4
387.638	4.4
387.999	4.4
388.36	4.41
388.721	4.41
389.082	4.41
389.443	4.41
389.804	4.42
390.165	4.42
390.526	4.43
390.887	4.43
391.248	4.42
391.609	4.44
391.969	4.44
392.33	4.44
392.691	4.44
393.051	4.45
393.412	4.44
393.772	4.44
394.133	4.45
394.493	4.44
394.854	4.45
395.214	4.45
395.574	4.44
395.935	4.45
396.295	4.44
396.655	4.45
397.015	4.45
397.376	4.44
397.736	4.45
398.096	4.44
398.456	4.45
398.816	4.47
399.176	4.45
399.535	4.45
399.895	4.46
400.255	4.46
400.615	4.46
400.975	4.47
401.334	4.47
401.694	4.47
402.054	4.47
402.413	4.45
402.773	4.46
403.132	4.47
403.492	4.46
403.851	4.47
404.211	4.48
404.57	4.48
404.929	4.49
405.288	4.49
405.648	4.5
406.007	4.5
406.366	4.51
406.725	4.51
407.084	4.51
407.443	4.51
407.802	4.5
408.161	4.5
408.52	4.5
408.879	4.5
409.238	4.5
409.596	4.5
409.955	4.51
410.314	4.51
410.673	4.51
411.031	4.52
411.39	4.53
411.748	4.54
412.107	4.55
412.465	4.56
412.824	4.59
413.182	4.61
413.54	4.63
413.899	4.65
414.257	4.69
414.615	4.73
414.974	4.77
415.332	4.81
415.69	4.85
416.048	4.88
416.406	4.93
416.764	4.96
417.122	5
417.48	5.03
417.838	5.07
418.195	5.1
418.553	5.12
418.911	5.13
419.269	5.14
419.626	5.13
419.984	5.13
420.342	5.11
420.699	5.09
421.057	5.07
421.414	5.05
421.772	5.04
422.129	5.03
422.486	5.03
422.844	5.03
423.201	5.03
423.558	5.03
423.915	5.03
424.273	5.03
424.63	5.03
424.987	5.03
425.344	5.03
425.701	5.03
426.058	5.03
426.415	5.02
426.772	5.02
427.128	5.01
427.485	5
427.842	4.99
428.199	4.98
428.555	4.97
428.912	4.95
429.269	4.92
429.625	4.9
429.982	4.87
430.338	4.84
430.695	4.82
431.051	4.78
431.407	4.76
431.764	4.74
432.12	4.72
432.476	4.71
432.832	4.7
433.189	4.71
433.545	4.71
433.901	4.73
434.257	4.75
434.613	4.78
434.969	4.81
435.325	4.84
435.681	4.89
436.036	4.9
436.392	4.93
436.748	4.93
437.104	4.94
437.459	4.96
437.815	4.98
438.171	5
438.526	5.03
438.882	5.06
439.237	5.1
439.593	5.14
439.948	5.17
440.304	5.22
440.659	5.25
441.014	5.27
441.369	5.3
441.725	5.31
442.08	5.34
442.435	5.35
442.79	5.35
443.145	5.35
443.5	5.36
443.855	5.35
444.21	5.35
444.565	5.34
444.92	5.33
445.275	5.32
445.629	5.31
445.984	5.31
446.339	5.3
446.693	5.29
447.048	5.27
447.403	5.26
447.757	5.23
448.112	5.21
448.466	5.19
448.82	5.17
449.175	5.15
449.529	5.14
449.883	5.12
450.238	5.09
450.592	5.09
450.946	5.08
451.3	5.08
451.654	5.1
452.008	5.1
452.362	5.1
452.716	5.11
453.07	5.11
453.424	5.11
453.778	5.1
454.132	5.08
454.486	5.07
454.839	5.05
455.193	5.02
455.547	5.01
455.9	4.97
456.254	4.95
456.607	4.92
456.961	4.89
457.314	4.87
457.668	4.86
458.021	4.86
458.375	4.86
458.728	4.86
459.081	4.86
459.434	4.87
459.787	4.88
460.141	4.9
460.494	4.9
460.847	4.9
461.2	4.91
461.553	4.92
461.906	4.93
462.259	4.93
462.611	4.93
462.964	4.94
463.317	4.94
463.67	4.95
464.022	4.95
464.375	4.95
464.728	4.95
465.08	4.95
465.433	4.95
465.785	4.95
466.138	4.93
466.49	4.91
466.843	4.89
467.195	4.87
467.547	4.85
467.899	4.82
468.252	4.79
468.604	4.76
468.956	4.74
469.308	4.72
469.66	4.72
470.012	4.72
470.364	4.73
470.716	4.73
471.068	4.76
471.42	4.79
471.772	4.81
472.123	4.82
472.475	4.84
472.827	4.85
473.178	4.85
473.53	4.86
473.882	4.88
474.233	4.9
474.585	4.95
474.936	5.02
475.288	5.12
475.639	5.25
475.99	5.41
476.342	5.58
476.693	5.78
477.044	5.97
477.395	6.17
477.746	6.37
478.097	6.57
478.448	6.77
478.8	6.97
479.15	7.16
479.501	7.32
479.852	7.48
480.203	7.62
480.554	7.76
480.905	7.9
481.255	8.02
481.606	8.15
481.957	8.26
482.307	8.37
482.658	8.47
483.009	8.57
483.359	8.67
483.709	8.76
484.06	8.85
484.41	8.94
484.761	9.01
485.111	9.09
485.461	9.17
485.811	9.23
486.162	9.3
486.512	9.35
486.862	9.39
487.212	9.42
487.562	9.45
487.912	9.46
488.262	9.47
488.612	9.47
488.961	9.44
489.311	9.4
489.661	9.32
490.011	9.21
490.36	9.09
490.71	8.94
491.06	8.78
491.409	8.61
491.759	8.44
492.108	8.26
492.458	8.08
492.807	7.89
493.157	7.69
493.506	7.51
493.855	7.33
494.204	7.17
494.554	7.02
494.903	6.88
495.252	6.75
495.601	6.61
495.95	6.48
496.299	6.37
496.648	6.26
496.997	6.14
497.346	6.04
497.695	5.95
498.043	5.85
498.392	5.76
498.741	5.67
499.09	5.59
499.438	5.5
499.787	5.42
500.135	5.35
500.484	5.29
500.832	5.24
501.181	5.2
501.529	5.17
501.878	5.15
502.226	5.14
502.574	5.14
502.923	5.14
503.271	5.14
503.619	5.15
503.967	5.15
504.315	5.15
504.663	5.15
505.011	5.15
505.359	5.15
505.707	5.14
506.055	5.14
506.403	5.15
506.751	5.16
507.098	5.17
507.446	5.18
507.794	5.2
508.141	5.22
508.489	5.24
508.837	5.26
509.184	5.28
509.531	5.3
509.879	5.32
510.226	5.33
510.574	5.35
510.921	5.37
511.268	5.39
511.616	5.41
511.963	5.44
512.31	5.46
512.657	5.49
513.004	5.51
513.351	5.53
513.698	5.55
514.045	5.56
514.392	5.57
514.739	5.57
515.086	5.57
515.432	5.57
515.779	5.57
516.126	5.57
516.473	5.58
516.819	5.59
517.166	5.59
517.512	5.61
517.859	5.62
518.205	5.65
518.552	5.68
518.898	5.72
519.245	5.77
519.591	5.84
519.937	5.93
520.283	6.04
520.629	6.16
520.976	6.3
521.322	6.44
521.668	6.58
522.014	6.72
522.36	6.87
522.706	7.01
523.052	7.14
523.398	7.26
523.743	7.38
524.089	7.47
524.435	7.56
524.781	7.64
525.126	7.71
525.472	7.78
525.817	7.84
526.163	7.91
526.509	7.96
526.854	8.02
527.199	8.07
527.545	8.13
527.89	8.19
528.235	8.25
528.581	8.31
528.926	8.36
529.271	8.41
529.616	8.46
529.961	8.49
530.306	8.51
530.651	8.54
530.996	8.56
531.341	8.58
531.686	8.59
532.031	8.58
532.376	8.59
532.721	8.59
533.065	8.59
533.41	8.6
533.755	8.59
534.099	8.55
534.444	8.51
534.788	8.47
535.133	8.42
535.477	8.37
535.822	8.3
536.166	8.23
536.51	8.15
536.855	8.05
537.199	7.95
537.543	7.86
537.887	7.77
538.231	7.7
538.576	7.63
538.92	7.56
539.264	7.49
539.608	7.42
539.951	7.35
540.295	7.28
540.639	7.2
540.983	7.12
541.327	7.06
541.671	6.99
542.014	6.92
542.358	6.85
542.701	6.8
543.045	6.77
543.389	6.74
543.732	6.71
544.075	6.69
544.419	6.68
544.762	6.65
545.105	6.64
545.449	6.63
545.792	6.63
546.135	6.62
546.478	6.61
546.821	6.58
547.165	6.54
547.508	6.49
547.851	6.44
548.194	6.38
548.536	6.31
548.879	6.23
549.222	6.15
549.565	6.06
549.908	5.98
550.25	5.91
550.593	5.84
550.936	5.79
551.278	5.74
551.621	5.71
551.963	5.68
552.306	5.66
552.648	5.64
552.991	5.62
553.333	5.6
553.675	5.6
554.017	5.6
554.36	5.61
554.702	5.62
555.044	5.63
555.386	5.66
555.728	5.67
556.07	5.68
556.412	5.69
556.754	5.7
557.096	5.7
557.438	5.7
557.78	5.71
558.121	5.7
558.463	5.71
558.805	5.71
559.147	5.71
559.488	5.71
559.83	5.72
560.171	5.72
560.513	5.72
560.854	5.71
561.196	5.72
561.537	5.72
561.878	5.72
562.22	5.72
562.561	5.73
562.902	5.74
563.243	5.74
563.584	5.74
563.925	5.75
564.266	5.75
564.607	5.75
564.948	5.75
565.289	5.76
565.63	5.77
565.971	5.77
566.312	5.77
566.653	5.77
566.993	5.77
567.334	5.77
567.675	5.78
568.015	5.79
568.356	5.79
568.696	5.79
569.037	5.8
569.377	5.8
569.718	5.8
570.058	5.8
570.398	5.81
570.739	5.81
571.079	5.8
571.419	5.8
571.759	5.8
572.099	5.81
572.439	5.81
572.779	5.81
573.119	5.81
573.459	5.81
573.799	5.81
574.139	5.81
574.479	5.82
574.819	5.82
575.158	5.81
575.498	5.81
575.838	5.81
576.177	5.81
576.517	5.81
576.856	5.81
577.196	5.81
577.535	5.81
577.875	5.81
578.214	5.81
578.553	5.81
578.893	5.8
579.232	5.8
579.571	5.79
579.91	5.79
580.25	5.79
580.589	5.78
580.928	5.78
581.267	5.78
581.606	5.77
581.945	5.77
582.283	5.77
582.622	5.77
582.961	5.77
583.3	5.78
583.639	5.78
583.977	5.78
584.316	5.78
584.654	5.79
584.993	5.79
585.332	5.79
585.67	5.79
586.008	5.79
586.347	5.79
586.685	5.79
587.024	5.79
587.362	5.79
587.7	5.79
588.038	5.8
588.376	5.8
588.715	5.8
589.053	5.8
589.391	5.81
589.729	5.81
590.067	5.81
590.404	5.81
590.742	5.82
591.08	5.82
591.418	5.83
591.756	5.83
592.093	5.84
592.431	5.85
592.769	5.85
593.106	5.86
593.444	5.86
593.781	5.86
594.119	5.87
594.456	5.87
594.793	5.87
595.131	5.87
595.468	5.88
595.805	5.88
596.143	5.88
596.48	5.88
596.817	5.88
597.154	5.89
597.491	5.89
597.828	5.89
598.165	5.9
598.502	5.9
598.839	5.9
599.176	5.9
599.512	5.9
599.849	5.91
600.186	5.91
600.523	5.91
600.859	5.91
601.196	5.92
601.532	5.93
601.869	5.93
602.205	5.93
602.542	5.93
602.878	5.94
603.215	5.93
603.551	5.93
603.887	5.93
604.223	5.94
604.56	5.94
604.896	5.94
605.232	5.94
605.568	5.94
605.904	5.94
606.24	5.94
606.576	5.95
606.912	5.95
607.248	5.95
607.583	5.96
607.919	5.96
608.255	5.96
608.591	5.97
608.926	5.97
609.262	5.97
609.597	5.97
609.933	5.98
610.268	6
610.604	6
610.939	6
611.275	5.99
611.61	6
611.945	5.99
612.281	6
612.616	5.99
612.951	5.98
613.286	5.98
613.621	5.97
613.956	5.98
614.291	5.98
614.626	5.98
614.961	5.99
615.296	6
615.631	6
615.966	6
616.3	6.01
616.635	6.01
616.97	6
617.304	5.99
617.639	5.99
617.973	5.99
618.308	5.99
618.642	5.99
618.977	5.98
619.311	5.98
619.646	5.98
619.98	6
620.314	6
620.648	6.01
620.983	6.01
621.317	6.01
621.651	6.01
621.985	6.01
622.319	6.01
622.653	6.01
622.987	6.02
623.321	6.01
623.655	6.01
623.988	6.02
624.322	6.02
624.656	6.03
624.99	6.03
625.323	6.03
625.657	6.03
625.99	6.05
626.324	6.06
626.657	6.07
626.991	6.07
627.324	6.07
627.658	6.07
627.991	6.07
628.324	6.08
628.657	6.08
628.991	6.09
629.324	6.1
629.657	6.11
629.99	6.11
630.323	6.12
630.656	6.12
630.989	6.13
631.322	6.14
631.655	6.14
631.987	6.14
632.32	6.14
632.653	6.14
632.986	6.15
633.318	6.15
633.651	6.15
633.984	6.15
634.316	6.16
634.649	6.16
634.981	6.17
635.313	6.17
635.646	6.17
635.978	6.17
636.31	6.17
636.643	6.16
636.975	6.17
637.307	6.16
637.639	6.16
637.971	6.17
638.303	6.17
638.635	6.18
638.967	6.18
639.299	6.2
639.631	6.2
639.963	6.21
640.295	6.22
640.626	6.24
640.958	6.26
641.29	6.26
641.621	6.26
641.953	6.27
642.285	6.28
642.616	6.29
642.948	6.28
643.279	6.29
643.61	6.29
643.942	6.29
644.273	6.3
644.604	6.3
644.936	6.31
645.267	6.32
645.598	6.32
645.929	6.32
646.26	6.33
646.591	6.33
646.922	6.33
647.253	6.33
647.584	6.32
647.915	6.34
648.245	6.34
648.576	6.35
648.907	6.34
649.238	6.34
649.568	6.33
649.899	6.34
650.229	6.35
650.56	6.36
650.89	6.38
651.221	6.39
651.551	6.39
651.882	6.41
652.212	6.41
652.542	6.4
652.872	6.4
653.203	6.42
653.533	6.41
653.863	6.4
654.193	6.39
654.523	6.39
654.853	6.39
655.183	6.4
655.513	6.4
655.843	6.42
656.172	6.42
656.502	6.42
656.832	6.41
657.162	6.42
657.491	6.42
657.821	6.42
658.15	6.42
658.48	6.41
658.809	6.41
659.139	6.43
659.468	6.44
659.798	6.45
660.127	6.45
660.456	6.48
660.785	6.5
661.115	6.52
661.444	6.52
661.773	6.53
662.102	6.54
662.431	6.55
662.76	6.56
663.089	6.55
663.418	6.57
663.747	6.56
664.076	6.57
664.404	6.57
664.733	6.58
665.062	6.6
665.39	6.61
665.719	6.61
666.048	6.6
666.376	6.6
666.705	6.59
667.033	6.58
667.362	6.57
667.69	6.59
668.018	6.6
668.347	6.6
668.675	6.59
669.003	6.59
669.331	6.59
669.659	6.59
669.987	6.61
670.315	6.61
670.643	6.63
670.971	6.64
671.299	6.63
671.627	6.64
671.955	6.65
672.283	6.64
672.61	6.66
672.938	6.67
673.266	6.68
673.593	6.68
673.921	6.69
674.249	6.69
674.576	6.69
674.904	6.72
675.231	6.72
675.558	6.73
675.886	6.75
676.213	6.74
676.54	6.76
676.867	6.77
677.195	6.77
677.522	6.78
677.849	6.8
678.176	6.81
678.503	6.83
678.83	6.83
679.157	6.84
679.484	6.84
679.81	6.84
680.137	6.84
680.464	6.86
680.791	6.87
681.117	6.85
681.444	6.84
681.771	6.83
682.097	6.83
682.424	6.83
682.75	6.81
683.077	6.82
683.403	6.82
683.729	6.81
684.056	6.82
684.382	6.82
684.708	6.82
685.034	6.83
685.36	6.83
685.686	6.84
686.012	6.85
686.339	6.87
686.664	6.88
686.99	6.89
687.316	6.9
687.642	6.92
687.968	6.95
688.294	6.94
688.619	6.94
688.945	6.97
689.271	6.97
689.596	6.98
689.922	7.01
690.247	7.02
690.573	7.03
690.898	7.06
691.224	7.06
691.549	7.06
691.874	7.05
692.2	7.07
692.525	7.08
692.85	7.07
693.175	7.09
693.5	7.1
693.825	7.11
694.15	7.11
694.475	7.12
694.8	7.13
695.125	7.15
695.45	7.17
695.775	7.17
696.099	7.19
696.424	7.19
696.749	7.2
697.073	7.22
697.398	7.21
697.723	7.22
698.047	7.22
698.372	7.24
698.696	7.23
699.02	7.23
699.345	7.23
699.669	7.24
699.993	7.24
700.318	7.24
700.642	7.23
700.966	7.23
701.29	7.23
701.614	7.24
701.938	7.24
702.262	7.23
702.586	7.24
702.91	7.25
703.234	7.26
703.557	7.26
703.881	7.25
704.205	7.27
704.529	7.29
704.852	7.29
705.176	7.31
705.499	7.34
705.823	7.35
706.146	7.36
706.47	7.37
706.793	7.4
707.117	7.52
707.44	7.54
707.763	7.51
708.086	7.52
708.409	7.51
708.733	7.51
709.056	7.52
709.379	7.52
709.702	7.56
710.025	7.56
710.348	7.4
710.671	7.41
710.993	7.42
711.316	7.41
711.639	7.43
711.962	7.43
712.284	7.45
712.607	7.46
712.93	7.47
713.252	7.5
713.575	7.49
713.897	7.47
714.22	7.49
714.542	7.52
714.864	7.59
715.187	7.63
715.509	7.64
715.831	7.63
716.153	7.65
716.475	7.63
716.798	7.61
717.12	7.8
717.442	7.83
717.764	7.81
718.085	7.73
718.407	7.73
718.729	7.71
719.051	7.73
719.373	7.73
719.695	7.73
720.016	7.72
720.338	7.64
720.659	7.65
720.981	7.68
721.302	7.68
721.624	7.69
721.945	7.68
722.267	7.68
722.588	7.7
722.909	7.72
723.231	7.76
723.552	7.78
723.873	7.81
724.194	7.81
724.515	7.83
724.836	7.97
725.157	7.97
725.478	7.97
725.799	7.99
726.12	7.98
726.441	7.97
726.762	8
727.083	8
727.403	8
727.724	7.98
728.045	7.9
728.365	7.91
728.686	7.96
729.006	7.96
729.327	7.95
729.647	7.94
729.967	7.95
730.288	7.96
730.608	7.97
730.928	7.99
731.249	7.97
731.569	8.01
731.889	8.02
732.209	8.03
732.529	8.02
732.849	8.04
733.169	8.07
733.489	8.05
733.809	8.08
734.129	8.08
734.448	8.12
734.768	8.12
735.088	8.13
735.408	8.14
735.727	8.15
736.047	8.18
736.366	8.18
736.686	8.2
737.005	8.21
737.325	8.18
737.644	8.19
737.963	8.17
738.283	8.18
738.602	8.2
738.921	8.22
739.24	8.21
739.56	8.22
739.879	8.22
740.198	8.25
740.517	8.26
740.836	8.28
741.155	8.3
741.473	8.34
741.792	8.37
742.111	8.38
742.43	8.42
742.748	8.43
743.067	8.44
743.386	8.46
743.704	8.46
744.023	8.52
744.341	8.53
744.66	8.56
744.978	8.51
745.297	8.51
745.615	8.5
745.933	8.49
746.252	8.47
746.57	8.43
746.888	8.44
747.206	8.45
747.524	8.44
747.842	8.47
748.16	8.47
748.478	8.44
748.796	8.43
749.114	8.42
749.432	8.43
749.749	8.45
750.067	8.45
750.385	8.48
750.703	8.46
751.02	8.46
751.338	8.47
751.655	8.54
751.973	8.55
752.29	8.56
752.608	8.61
752.925	8.62
753.242	8.71
753.56	8.74
753.877	8.71
754.194	8.77
754.511	8.76
754.828	8.72
755.145	8.75
755.462	8.75
755.779	8.75
756.096	8.78
756.413	8.79
756.73	8.73
757.047	8.71
757.364	8.75
757.68	8.76
757.997	8.76
758.314	8.76
758.63	8.8
758.947	8.86
759.264	8.88
759.58	8.87
759.896	8.85
760.213	8.91
760.529	8.91
760.846	8.88
761.162	8.89
761.478	8.91
761.794	8.88
762.11	8.89
762.426	8.93
762.743	8.92
763.059	9
763.375	9.03
763.69	9.07
764.006	9.1
764.322	9.13
764.638	9.13
764.954	9.16
765.27	9.19
765.585	9.17
765.901	9.2
766.216	9.06
766.532	9.02
766.848	9.02
767.163	9.07
767.478	9.15
767.794	9.17
768.109	9.18
768.424	9.19
768.74	9.22
769.055	9.24
769.37	9.29
769.685	9.33
770	9.35
770.315	9.36
770.63	9.27
770.945	9.23
771.26	9.26
771.575	9.21
771.89	9.17
772.205	9.19
772.52	9.2
772.834	9.39
773.149	9.41
773.464	9.39
773.778	9.39
774.093	9.44
774.407	9.45
774.722	9.48
775.036	9.44
775.351	9.4
775.665	9.39
775.979	9.24
776.293	9.23
776.608	9.28
776.922	9.24
777.236	9.32
777.55	9.42
777.864	9.43
778.178	9.44
778.492	9.43
778.806	9.43
779.12	9.48
779.434	9.52
779.747	9.48
780.061	9.59
780.375	9.5
780.689	9.46
781.002	9.49
781.316	9.51
781.629	9.58
781.943	9.62
782.256	9.65
782.57	9.69
782.883	9.66
783.196	9.65
783.51	9.76
783.823	9.81
784.136	9.78
784.449	9.86
784.762	9.88
785.075	9.95
785.388	9.92
785.701	9.89
786.014	9.85
786.327	9.9
786.64	9.89
786.953	9.9
787.266	9.99
787.578	9.98
787.891	10.06
788.204	10.02
788.516	10.08
788.829	10.13
789.141	10.12
789.454	10.11
789.766	10.1
790.079	10.12
790.391	10.11
790.703	10.22
791.016	10.12
791.328	10.14
791.64	10.16
791.952	10.22
792.264	10.31
792.576	10.38
792.888	10.36
793.2	10.39
793.512	10.43
793.824	10.36
794.136	10.33
794.448	10.39
794.76	10.4
795.071	10.42
795.383	10.42
795.695	10.57
796.006	10.62
796.318	10.62
796.629	10.63
796.941	10.62
797.252	10.63
797.564	10.75
797.875	10.7
798.186	10.66
798.497	10.7
798.809	10.58
799.12	10.56
799.431	10.57
799.742	10.63
800.053	10.59
800.364	10.74
800.675	10.75
800.986	10.78
801.297	10.87
801.608	10.84
801.918	10.84
802.229	10.85
802.54	10.86
802.851	10.84
803.161	10.82
803.472	10.86
803.782	10.81
804.093	10.91
804.403	10.82
804.714	10.86
805.024	10.82
805.334	10.9
805.645	10.89
805.955	10.98
806.265	10.96
806.575	11.02
806.885	11
807.195	10.98
807.505	10.97
807.815	10.95
808.125	11.01
808.435	10.99
808.745	11
809.055	11
809.365	11.11
809.674	11.16
809.984	11.21
810.294	11.21
810.603	11.22
810.913	11.45
811.222	11.4
811.532	11.47
811.841	11.5
812.151	11.57
812.46	11.5
812.769	11.55
813.079	11.53
813.388	11.56
813.697	11.51
814.006	11.48
814.315	11.58
814.624	11.57
814.933	11.51
815.242	11.39
815.551	11.49
815.86	11.4
816.169	11.33
816.478	11.25
816.786	11.17
817.095	11.19
817.404	11.2
817.712	11.21
818.021	11.16
818.33	11.16
818.638	11.14
818.947	11.11
819.255	11.09
819.563	11.1
819.872	11.13
820.18	11.14
820.488	11.13
820.796	11.09
821.105	11.07
821.413	11.09
821.721	11.11
822.029	11.14
822.337	11.17
822.645	11.14
822.953	11.12
823.26	11.13
823.568	11.14
823.876	11.12
824.184	11.13
824.491	11.12
824.799	11.12
825.107	11.14
825.414	11.13
825.722	11.12
826.029	11.12
826.337	11.13
826.644	11.12
826.951	11.14
827.259	11.16
827.566	11.19
827.873	11.23
828.18	11.19
828.488	11.18
828.795	11.2
829.102	11.23
829.409	11.26
829.716	11.26
830.023	11.27
830.329	11.31
830.636	11.35
830.943	11.43
831.25	11.49
831.557	11.51
831.863	11.55
832.17	11.58
832.476	11.59
832.783	11.61
833.089	11.66
833.396	11.64
833.702	11.65
834.009	11.58
834.315	11.61
834.621	11.68
834.928	11.68
835.234	11.76
835.54	11.8
835.846	11.89
836.152	11.93
836.458	11.96
836.764	11.91
837.07	11.94
837.376	11.87
837.682	11.78
837.988	11.91
838.293	11.84
838.599	11.84
838.905	11.84
839.211	11.89
839.516	11.9
839.822	12.03
840.127	12.04
840.433	12.15
840.738	12.22
841.044	12.31
841.349	12.42
841.654	12.54
841.959	12.6
842.265	12.63
842.57	12.65
842.875	12.71
843.18	12.84
843.485	12.9
843.79	12.96
844.095	13.12
844.4	13.05
844.705	13.23
845.01	13.25
845.315	13.31
845.619	13.18
845.924	13.14
846.229	12.97
846.533	13.14
846.838	13.14
847.142	12.96
847.447	12.99
847.751	12.7
848.056	12.76
848.36	12.7
848.664	12.62
848.969	12.6
849.273	12.64
849.577	12.59
849.881	12.47
850.185	12.52
850.489	12.89
850.794	13.2
851.097	13.16
851.401	13.29
851.705	13.5
852.009	13.66
852.313	13.61
852.617	13.71
852.92	13.52
853.224	13.39
853.528	13.3
853.831	13.32
854.135	13.14
854.438	13.15
854.742	13.34
855.045	13.51
855.349	13.55
855.652	13.72
855.955	13.9
856.259	14.05
856.562	14.23
856.865	14.08
857.168	14.03
857.471	14.15
857.774	14.02
858.077	13.79
858.38	13.83
858.683	14.08
858.986	14.12
859.289	14.42
859.592	14.58
859.894	14.92
860.197	15.1
860.5	15.1
860.802	15.31
861.105	15.33
861.407	15.55
861.71	15.56
862.012	15.51
862.315	15.65
862.617	15.5
862.919	14.97
863.222	15
863.524	15.25
863.826	15.44
864.128	15.6
864.43	15.71
864.732	15.58
865.034	15.74
865.336	15.95
865.638	15.8
865.94	15.62
866.242	15.44
866.544	15.01
866.846	15.33
867.147	14.93
867.449	14.68
867.751	14.85
868.052	14.88
868.354	14.65
868.655	14.66
868.957	14.63
869.258	14.9
869.56	14.87
869.861	14.89
870.162	14.7
870.463	14.75
870.765	14.82
871.066	14.7
871.367	14.45
871.668	14.52
871.969	14.45
872.27	14.35
872.571	14.35
872.872	14.71
873.173	14.43
873.473	14.68
873.774	14.75
874.075	14.69
874.376	14.92
874.676	14.94
874.977	14.97
875.277	14.78
875.578	14.69
875.878	14.26
876.179	14.22
876.479	13.95
876.78	13.75
877.08	13.8
877.38	13.79
877.68	13.71
877.981	13.69
878.281	13.77
878.581	13.78
