Data from UWBM122617_Reflection_00005.txt Node
Date: Sun May 02 12:16:58 EDT 2021
User: vgr7
Spectrometer: USB2G7710
Scans to average: 10
Trigger mode: 4
Integration Time (sec): 1.000000E-1
Electric dark correction enabled: true
Boxcar width: 10
XAxis mode: Wavelengths
Number of Pixels in Spectrum: 2048
>>>>>Begin Spectral Data<<<<<
177.721	-1325
178.105	-309.09
178.488	-12.68
178.871	-51.9
179.254	198.08
179.636	307.27
180.019	29.02
180.402	50
180.785	121.17
181.168	49.19
181.55	49.63
181.933	15.51
182.316	-36.86
182.698	-109.15
183.081	-80.74
183.463	-68.21
183.846	-38.16
184.228	-30.86
184.611	-12.17
184.993	-1.17
185.376	8.13
185.758	10.76
186.14	6.51
186.522	6.2
186.904	5.91
187.287	6.48
187.669	2.07
188.051	-6.14
188.433	-1.67
188.815	-7.09
189.197	-0.42
189.579	0.69
189.961	2.82
190.342	-0.38
190.724	5.74
191.106	4.19
191.488	6.63
191.869	7.93
192.251	9.19
192.633	8.34
193.014	8.14
193.396	8.55
193.777	7.49
194.159	7.96
194.54	2.63
194.922	0.76
195.303	5.41
195.684	7.82
196.065	11.11
196.447	8.8
196.828	8.14
197.209	2.81
197.59	-3.7
197.971	-3.79
198.352	2.26
198.733	9.69
199.114	9.84
199.495	9.67
199.876	8.66
200.257	4.5
200.638	2.1
201.018	2.25
201.399	-2.38
201.78	-4.2
202.16	-5.33
202.541	-4.12
202.922	-1.06
203.302	-2.8
203.683	-2.59
204.063	-8.55
204.444	-8.55
204.824	-6.22
205.204	-4.98
205.585	-0.68
205.965	-2.48
206.345	-1.43
206.725	-13.78
207.106	-10.94
207.486	-10.52
207.866	-10.55
208.246	-11.03
208.626	-8.25
209.006	-7.31
209.386	-5.77
209.766	-7.73
210.145	-9.21
210.525	-8.4
210.905	-10.37
211.285	-12.52
211.664	-11.81
212.044	-5.65
212.424	-2.13
212.803	-6.35
213.183	-3.1
213.562	-4.92
213.942	-3.81
214.321	-7.45
214.701	-9.21
215.08	-7.14
215.459	-10.42
215.838	-10.73
216.218	-5.37
216.597	-8.63
216.976	-11.9
217.355	-11.49
217.734	-12.07
218.113	-10.48
218.492	-7.96
218.871	-8.57
219.25	-7.3
219.629	-6.29
220.008	-7.98
220.387	-9.92
220.766	-10.45
221.144	-11.97
221.523	-9.92
221.902	-10.01
222.28	-8.37
222.659	-7.86
223.037	-6.48
223.416	-3.04
223.794	-2.71
224.173	-4.77
224.551	-4.7
224.929	-6.44
225.308	-3.13
225.686	-0.86
226.064	-1.14
226.442	-0.37
226.821	1.54
227.199	2.22
227.577	0.48
227.955	0.58
228.333	0.07
228.711	0.64
229.089	1.81
229.467	1.49
229.845	2.39
230.222	2.76
230.6	4.17
230.978	3.31
231.356	2.53
231.733	2.83
232.111	3.04
232.488	3.62
232.866	4.19
233.243	3.26
233.621	3.29
233.998	3.13
234.376	3.24
234.753	3.44
235.13	2.67
235.508	4.27
235.885	4.28
236.262	4.65
236.639	5.32
237.016	4.89
237.393	5.19
237.77	5.16
238.147	5.34
238.524	5.51
238.901	5.84
239.278	5.9
239.655	5.93
240.032	5.84
240.409	6.01
240.785	6.16
241.162	6.13
241.539	6.1
241.915	6.26
242.292	6.27
242.668	6.24
243.045	6.35
243.421	6.13
243.798	6.1
244.174	6.07
244.551	5.97
244.927	6.02
245.303	5.98
245.679	5.98
246.056	5.87
246.432	5.87
246.808	5.81
247.184	5.81
247.56	5.73
247.936	5.72
248.312	5.64
248.688	5.69
249.064	5.68
249.44	5.63
249.815	5.6
250.191	5.53
250.567	5.47
250.943	5.41
251.318	5.43
251.694	5.34
252.069	5.22
252.445	5.25
252.82	5.09
253.196	5.05
253.571	5.05
253.947	5.14
254.322	5.02
254.697	5.01
255.073	4.99
255.448	5.05
255.823	5.09
256.198	5
256.573	4.81
256.948	4.79
257.323	4.87
257.698	4.87
258.073	4.88
258.448	4.93
258.823	4.97
259.198	4.93
259.573	4.96
259.948	4.99
260.322	4.96
260.697	5.02
261.072	5.02
261.446	4.97
261.821	4.94
262.195	4.88
262.57	4.86
262.944	4.83
263.319	4.81
263.693	4.83
264.067	4.86
264.442	4.93
264.816	4.95
265.19	4.96
265.564	4.98
265.938	4.91
266.313	4.78
266.687	4.75
267.061	4.76
267.435	4.76
267.809	4.77
268.183	4.79
268.556	4.8
268.93	4.76
269.304	4.71
269.678	4.67
270.051	4.71
270.425	4.76
270.799	4.8
271.172	4.81
271.546	4.78
271.919	4.81
272.293	4.78
272.666	4.78
273.04	4.74
273.413	4.65
273.787	4.68
274.16	4.74
274.533	4.72
274.906	4.71
275.279	4.78
275.653	4.78
276.026	4.7
276.399	4.63
276.772	4.65
277.145	4.72
277.518	4.78
277.891	4.82
278.263	4.75
278.636	4.8
279.009	4.79
279.382	4.79
279.755	4.76
280.127	4.79
280.5	4.79
280.872	4.76
281.245	4.85
281.617	4.88
281.99	4.89
282.362	4.89
282.735	4.87
283.107	4.81
283.479	4.81
283.852	4.86
284.224	4.91
284.596	4.9
284.968	4.88
285.34	4.85
285.713	4.88
286.085	4.85
286.457	4.79
286.829	4.78
287.201	4.77
287.572	4.76
287.944	4.75
288.316	4.76
288.688	4.8
289.06	4.74
289.431	4.72
289.803	4.7
290.175	4.7
290.546	4.71
290.918	4.72
291.289	4.7
291.661	4.73
292.032	4.7
292.403	4.72
292.775	4.69
293.146	4.69
293.517	4.64
293.889	4.68
294.26	4.67
294.631	4.69
295.002	4.67
295.373	4.69
295.744	4.68
296.115	4.7
296.486	4.68
296.857	4.7
297.228	4.71
297.599	4.69
297.97	4.69
298.34	4.72
298.711	4.7
299.082	4.66
299.452	4.61
299.823	4.64
300.194	4.62
300.564	4.61
300.935	4.59
301.305	4.58
301.676	4.56
302.046	4.53
302.416	4.51
302.787	4.53
303.157	4.54
303.527	4.55
303.897	4.5
304.267	4.52
304.637	4.53
305.008	4.53
305.378	4.56
305.748	4.55
306.117	4.52
306.487	4.52
306.857	4.55
307.227	4.57
307.597	4.54
307.967	4.55
308.336	4.56
308.706	4.59
309.076	4.58
309.445	4.58
309.815	4.59
310.184	4.58
310.554	4.57
310.923	4.51
311.293	4.5
311.662	4.49
312.031	4.45
312.401	4.41
312.77	4.4
313.139	4.41
313.508	4.38
313.877	4.37
314.246	4.35
314.616	4.36
314.985	4.34
315.353	4.3
315.722	4.27
316.091	4.26
316.46	4.21
316.829	4.23
317.198	4.25
317.567	4.25
317.935	4.21
318.304	4.19
318.672	4.21
319.041	4.19
319.41	4.2
319.778	4.25
320.147	4.28
320.515	4.26
320.883	4.21
321.252	4.23
321.62	4.19
321.988	4.21
322.357	4.19
322.725	4.17
323.093	4.22
323.461	4.23
323.829	4.23
324.197	4.22
324.565	4.19
324.933	4.15
325.301	4.13
325.669	4.14
326.037	4.15
326.405	4.17
326.772	4.15
327.14	4.12
327.508	4.09
327.875	4.11
328.243	4.09
328.61	4.09
328.978	4.11
329.346	4.11
329.713	4.08
330.08	4.05
330.448	4.07
330.815	4.03
331.182	4.02
331.55	4.03
331.917	4.04
332.284	4.02
332.651	4.02
333.018	4.05
333.385	4.08
333.752	4.05
334.119	4.01
334.486	4.05
334.853	4.04
335.22	4.03
335.587	4.03
335.954	4.05
336.32	4.03
336.687	4
337.054	4.01
337.42	4.04
337.787	4.07
338.153	4.09
338.52	4.1
338.886	4.11
339.253	4.06
339.619	4.05
339.986	4.06
340.352	4.07
340.718	4.1
341.084	4.07
341.451	4.1
341.817	4.08
342.183	4.09
342.549	4.1
342.915	4.1
343.281	4.09
343.647	4.11
344.013	4.13
344.379	4.14
344.745	4.14
345.11	4.14
345.476	4.15
345.842	4.14
346.208	4.11
346.573	4.08
346.939	4.12
347.304	4.1
347.67	4.1
348.035	4.1
348.401	4.07
348.766	4.09
349.132	4.09
349.497	4.13
349.862	4.12
350.228	4.15
350.593	4.15
350.958	4.12
351.323	4.1
351.688	4.12
352.053	4.09
352.418	4.09
352.783	4.08
353.148	4.08
353.513	4.08
353.878	4.12
354.243	4.15
354.608	4.12
354.972	4.13
355.337	4.12
355.702	4.07
356.066	4.07
356.431	4.06
356.795	4.03
357.16	4.02
357.524	4.02
357.889	3.99
358.253	3.99
358.618	4
358.982	4.01
359.346	3.99
359.71	4
360.075	3.98
360.439	3.98
360.803	3.96
361.167	3.95
361.531	3.93
361.895	3.93
362.259	3.95
362.623	3.97
362.987	3.98
363.351	4.03
363.714	4.04
364.078	4.02
364.442	4.02
364.806	4.01
365.169	4.03
365.533	4.01
365.896	4.02
366.26	4.01
366.623	4.02
366.987	4.01
367.35	4.03
367.714	4.04
368.077	4.04
368.44	4.04
368.803	4.03
369.167	4.04
369.53	4.04
369.893	4.04
370.256	4.03
370.619	4.03
370.982	4
371.345	4
371.708	4.03
372.071	4.05
372.434	4.06
372.797	4.04
373.159	4.07
373.522	4.07
373.885	4.09
374.247	4.08
374.61	4.08
374.973	4.06
375.335	4.06
375.698	4.06
376.06	4.06
376.423	4.08
376.785	4.08
377.147	4.06
377.51	4.07
377.872	4.06
378.234	4.06
378.596	4.07
378.958	4.07
379.321	4.07
379.683	4.06
380.045	4.06
380.407	4.05
380.769	4.04
381.13	4.06
381.492	4.05
381.854	4.05
382.216	4.06
382.578	4.06
382.939	4.07
383.301	4.06
383.663	4.07
384.024	4.07
384.386	4.06
384.747	4.07
385.109	4.07
385.47	4.07
385.832	4.09
386.193	4.08
386.554	4.08
386.916	4.07
387.277	4.07
387.638	4.07
387.999	4.08
388.36	4.08
388.721	4.07
389.082	4.07
389.443	4.07
389.804	4.06
390.165	4.06
390.526	4.05
390.887	4.05
391.248	4.06
391.609	4.06
391.969	4.06
392.33	4.06
392.691	4.06
393.051	4.06
393.412	4.05
393.772	4.05
394.133	4.04
394.493	4.04
394.854	4.05
395.214	4.04
395.574	4.05
395.935	4.05
396.295	4.04
396.655	4.04
397.015	4.04
397.376	4.04
397.736	4.05
398.096	4.05
398.456	4.05
398.816	4.04
399.176	4.04
399.535	4.05
399.895	4.06
400.255	4.06
400.615	4.06
400.975	4.06
401.334	4.06
401.694	4.07
402.054	4.07
402.413	4.07
402.773	4.07
403.132	4.08
403.492	4.07
403.851	4.08
404.211	4.08
404.57	4.1
404.929	4.1
405.288	4.1
405.648	4.1
406.007	4.11
406.366	4.12
406.725	4.12
407.084	4.12
407.443	4.12
407.802	4.11
408.161	4.12
408.52	4.13
408.879	4.15
409.238	4.15
409.596	4.15
409.955	4.14
410.314	4.15
410.673	4.15
411.031	4.15
411.39	4.15
411.748	4.15
412.107	4.15
412.465	4.15
412.824	4.15
413.182	4.16
413.54	4.17
413.899	4.16
414.257	4.16
414.615	4.16
414.974	4.17
415.332	4.17
415.69	4.17
416.048	4.16
416.406	4.17
416.764	4.17
417.122	4.19
417.48	4.2
417.838	4.21
418.195	4.22
418.553	4.23
418.911	4.24
419.269	4.25
419.626	4.26
419.984	4.27
420.342	4.28
420.699	4.28
421.057	4.29
421.414	4.29
421.772	4.3
422.129	4.31
422.486	4.31
422.844	4.31
423.201	4.31
423.558	4.31
423.915	4.31
424.273	4.31
424.63	4.31
424.987	4.3
425.344	4.3
425.701	4.29
426.058	4.29
426.415	4.28
426.772	4.27
427.128	4.26
427.485	4.26
427.842	4.25
428.199	4.25
428.555	4.24
428.912	4.24
429.269	4.23
429.625	4.23
429.982	4.23
430.338	4.23
430.695	4.24
431.051	4.24
431.407	4.23
431.764	4.23
432.12	4.23
432.476	4.23
432.832	4.24
433.189	4.24
433.545	4.24
433.901	4.24
434.257	4.24
434.613	4.24
434.969	4.24
435.325	4.24
435.681	4.25
436.036	4.25
436.392	4.26
436.748	4.27
437.104	4.27
437.459	4.28
437.815	4.27
438.171	4.27
438.526	4.28
438.882	4.29
439.237	4.29
439.593	4.3
439.948	4.3
440.304	4.3
440.659	4.3
441.014	4.31
441.369	4.31
441.725	4.32
442.08	4.32
442.435	4.33
442.79	4.34
443.145	4.35
443.5	4.34
443.855	4.35
444.21	4.35
444.565	4.35
444.92	4.35
445.275	4.36
445.629	4.36
445.984	4.36
446.339	4.36
446.693	4.37
447.048	4.36
447.403	4.36
447.757	4.37
448.112	4.36
448.466	4.36
448.82	4.36
449.175	4.36
449.529	4.36
449.883	4.35
450.238	4.34
450.592	4.33
450.946	4.32
451.3	4.32
451.654	4.31
452.008	4.31
452.362	4.3
452.716	4.3
453.07	4.3
453.424	4.29
453.778	4.29
454.132	4.28
454.486	4.29
454.839	4.28
455.193	4.28
455.547	4.29
455.9	4.3
456.254	4.3
456.607	4.31
456.961	4.32
457.314	4.34
457.668	4.34
458.021	4.35
458.375	4.36
458.728	4.36
459.081	4.37
459.434	4.37
459.787	4.37
460.141	4.37
460.494	4.37
460.847	4.36
461.2	4.36
461.553	4.37
461.906	4.36
462.259	4.37
462.611	4.36
462.964	4.36
463.317	4.35
463.67	4.35
464.022	4.34
464.375	4.34
464.728	4.33
465.08	4.32
465.433	4.32
465.785	4.31
466.138	4.31
466.49	4.3
466.843	4.3
467.195	4.3
467.547	4.31
467.899	4.31
468.252	4.3
468.604	4.3
468.956	4.3
469.308	4.31
469.66	4.31
470.012	4.31
470.364	4.31
470.716	4.32
471.068	4.31
471.42	4.31
471.772	4.31
472.123	4.31
472.475	4.31
472.827	4.31
473.178	4.32
473.53	4.32
473.882	4.32
474.233	4.32
474.585	4.33
474.936	4.32
475.288	4.33
475.639	4.33
475.99	4.34
476.342	4.35
476.693	4.35
477.044	4.34
477.395	4.35
477.746	4.36
478.097	4.36
478.448	4.4
478.8	4.48
479.15	4.61
479.501	4.75
479.852	4.92
480.203	5.1
480.554	5.29
480.905	5.48
481.255	5.66
481.606	5.84
481.957	6.02
482.307	6.2
482.658	6.35
483.009	6.49
483.359	6.6
483.709	6.71
484.06	6.81
484.41	6.9
484.761	6.99
485.111	7.08
485.461	7.16
485.811	7.24
486.162	7.27
486.512	7.26
486.862	7.23
487.212	7.16
487.562	7.08
487.912	6.98
488.262	6.87
488.612	6.75
488.961	6.62
489.311	6.48
489.661	6.33
490.011	6.18
490.36	6.03
490.71	5.88
491.06	5.72
491.409	5.56
491.759	5.43
492.108	5.31
492.458	5.21
492.807	5.12
493.157	5.04
493.506	4.95
493.855	4.86
494.204	4.79
494.554	4.71
494.903	4.66
495.252	4.59
495.601	4.53
495.95	4.47
496.299	4.42
496.648	4.38
496.997	4.34
497.346	4.32
497.695	4.32
498.043	4.34
498.392	4.38
498.741	4.43
499.09	4.45
499.438	4.46
499.787	4.47
500.135	4.47
500.484	4.47
500.832	4.48
501.181	4.48
501.529	4.48
501.878	4.48
502.226	4.47
502.574	4.47
502.923	4.47
503.271	4.47
503.619	4.47
503.967	4.47
504.315	4.48
504.663	4.48
505.011	4.48
505.359	4.49
505.707	4.49
506.055	4.5
506.403	4.51
506.751	4.52
507.098	4.52
507.446	4.53
507.794	4.52
508.141	4.52
508.489	4.53
508.837	4.53
509.184	4.54
509.531	4.54
509.879	4.55
510.226	4.55
510.574	4.56
510.921	4.57
511.268	4.57
511.616	4.57
511.963	4.57
512.31	4.58
512.657	4.58
513.004	4.58
513.351	4.59
513.698	4.58
514.045	4.58
514.392	4.59
514.739	4.59
515.086	4.6
515.432	4.61
515.779	4.62
516.126	4.62
516.473	4.62
516.819	4.63
517.166	4.64
517.512	4.65
517.859	4.65
518.205	4.65
518.552	4.65
518.898	4.66
519.245	4.66
519.591	4.66
519.937	4.66
520.283	4.66
520.629	4.66
520.976	4.66
521.322	4.67
521.668	4.67
522.014	4.67
522.36	4.68
522.706	4.69
523.052	4.71
523.398	4.75
523.743	4.82
524.089	4.91
524.435	5.01
524.781	5.12
525.126	5.23
525.472	5.34
525.817	5.45
526.163	5.56
526.509	5.65
526.854	5.73
527.199	5.79
527.545	5.84
527.89	5.86
528.235	5.88
528.581	5.9
528.926	5.92
529.271	5.94
529.616	5.95
529.961	5.96
530.306	5.97
530.651	5.95
530.996	5.92
531.341	5.86
531.686	5.79
532.031	5.69
532.376	5.57
532.721	5.45
533.065	5.32
533.41	5.2
533.755	5.09
534.099	5
534.444	4.94
534.788	4.89
535.133	4.86
535.477	4.83
535.822	4.8
536.166	4.76
536.51	4.74
536.855	4.72
537.199	4.71
537.543	4.7
537.887	4.7
538.231	4.71
538.576	4.72
538.92	4.74
539.264	4.77
539.608	4.8
539.951	4.83
540.295	4.86
540.639	4.88
540.983	4.89
541.327	4.89
541.671	4.87
542.014	4.87
542.358	4.87
542.701	4.88
543.045	4.88
543.389	4.88
543.732	4.88
544.075	4.88
544.419	4.88
544.762	4.86
545.105	4.85
545.449	4.83
545.792	4.8
546.135	4.77
546.478	4.75
546.821	4.72
547.165	4.71
547.508	4.71
547.851	4.71
548.194	4.72
548.536	4.73
548.879	4.74
549.222	4.75
549.565	4.74
549.908	4.73
550.25	4.73
550.593	4.73
550.936	4.73
551.278	4.73
551.621	4.72
551.963	4.72
552.306	4.73
552.648	4.72
552.991	4.71
553.333	4.7
553.675	4.7
554.017	4.71
554.36	4.71
554.702	4.71
555.044	4.7
555.386	4.7
555.728	4.7
556.07	4.71
556.412	4.7
556.754	4.7
557.096	4.7
557.438	4.69
557.78	4.69
558.121	4.69
558.463	4.68
558.805	4.67
559.147	4.67
559.488	4.67
559.83	4.67
560.171	4.68
560.513	4.67
560.854	4.68
561.196	4.68
561.537	4.69
561.878	4.69
562.22	4.7
562.561	4.69
562.902	4.7
563.243	4.7
563.584	4.7
563.925	4.71
564.266	4.72
564.607	4.73
564.948	4.73
565.289	4.73
565.63	4.73
565.971	4.73
566.312	4.74
566.653	4.74
566.993	4.74
567.334	4.74
567.675	4.75
568.015	4.74
568.356	4.74
568.696	4.73
569.037	4.73
569.377	4.73
569.718	4.75
570.058	4.74
570.398	4.74
570.739	4.74
571.079	4.74
571.419	4.73
571.759	4.74
572.099	4.74
572.439	4.74
572.779	4.75
573.119	4.76
573.459	4.75
573.799	4.76
574.139	4.76
574.479	4.77
574.819	4.77
575.158	4.77
575.498	4.78
575.838	4.78
576.177	4.77
576.517	4.77
576.856	4.76
577.196	4.77
577.535	4.77
577.875	4.77
578.214	4.77
578.553	4.78
578.893	4.77
579.232	4.77
579.571	4.77
579.91	4.77
580.25	4.76
580.589	4.75
580.928	4.75
581.267	4.75
581.606	4.74
581.945	4.74
582.283	4.74
582.622	4.73
582.961	4.74
583.3	4.75
583.639	4.74
583.977	4.75
584.316	4.75
584.654	4.75
584.993	4.74
585.332	4.73
585.67	4.73
586.008	4.74
586.347	4.75
586.685	4.75
587.024	4.74
587.362	4.75
587.7	4.75
588.038	4.75
588.376	4.76
588.715	4.75
589.053	4.76
589.391	4.76
589.729	4.76
590.067	4.76
590.404	4.76
590.742	4.77
591.08	4.77
591.418	4.77
591.756	4.77
592.093	4.78
592.431	4.79
592.769	4.8
593.106	4.8
593.444	4.81
593.781	4.8
594.119	4.81
594.456	4.79
594.793	4.8
595.131	4.81
595.468	4.81
595.805	4.81
596.143	4.81
596.48	4.81
596.817	4.82
597.154	4.82
597.491	4.8
597.828	4.8
598.165	4.81
598.502	4.8
598.839	4.8
599.176	4.8
599.512	4.81
599.849	4.79
600.186	4.79
600.523	4.77
600.859	4.78
601.196	4.79
601.532	4.8
601.869	4.81
602.205	4.82
602.542	4.82
602.878	4.83
603.215	4.83
603.551	4.82
603.887	4.81
604.223	4.82
604.56	4.83
604.896	4.83
605.232	4.83
605.568	4.83
605.904	4.84
606.24	4.84
606.576	4.84
606.912	4.86
607.248	4.86
607.583	4.87
607.919	4.85
608.255	4.85
608.591	4.84
608.926	4.82
609.262	4.82
609.597	4.81
609.933	4.82
610.268	4.82
610.604	4.83
610.939	4.83
611.275	4.83
611.61	4.83
611.945	4.83
612.281	4.84
612.616	4.84
612.951	4.82
613.286	4.82
613.621	4.82
613.956	4.81
614.291	4.82
614.626	4.82
614.961	4.83
615.296	4.84
615.631	4.85
615.966	4.85
616.3	4.86
616.635	4.86
616.97	4.85
617.304	4.85
617.639	4.85
617.973	4.85
618.308	4.84
618.642	4.83
618.977	4.82
619.311	4.82
619.646	4.81
619.98	4.82
620.314	4.81
620.648	4.81
620.983	4.81
621.317	4.8
621.651	4.8
621.985	4.78
622.319	4.77
622.653	4.77
622.987	4.77
623.321	4.76
623.655	4.77
623.988	4.77
624.322	4.77
624.656	4.77
624.99	4.78
625.323	4.78
625.657	4.79
625.99	4.81
626.324	4.82
626.657	4.82
626.991	4.83
627.324	4.84
627.658	4.84
627.991	4.84
628.324	4.84
628.657	4.84
628.991	4.86
629.324	4.87
629.657	4.88
629.99	4.88
630.323	4.89
630.656	4.9
630.989	4.9
631.322	4.91
631.655	4.91
631.987	4.9
632.32	4.9
632.653	4.92
632.986	4.92
633.318	4.92
633.651	4.91
633.984	4.91
634.316	4.93
634.649	4.93
634.981	4.94
635.313	4.94
635.646	4.95
635.978	4.94
636.31	4.94
636.643	4.94
636.975	4.95
637.307	4.94
637.639	4.93
637.971	4.93
638.303	4.93
638.635	4.93
638.967	4.94
639.299	4.95
639.631	4.93
639.963	4.93
640.295	4.93
640.626	4.96
640.958	4.97
641.29	4.95
641.621	4.96
641.953	4.96
642.285	4.97
642.616	4.97
642.948	4.96
643.279	4.96
643.61	4.95
643.942	4.95
644.273	4.96
644.604	4.96
644.936	4.96
645.267	4.97
645.598	4.99
645.929	4.98
646.26	4.98
646.591	4.99
646.922	5
647.253	4.98
647.584	4.95
647.915	4.95
648.245	4.96
648.576	4.96
648.907	4.94
649.238	4.95
649.568	4.95
649.899	4.95
650.229	4.94
650.56	4.95
650.89	4.95
651.221	4.97
651.551	4.98
651.882	5
652.212	4.99
652.542	4.99
652.872	4.99
653.203	4.99
653.533	5.01
653.863	4.98
654.193	4.98
654.523	4.99
654.853	4.99
655.183	4.99
655.513	4.99
655.843	4.99
656.172	4.99
656.502	5.01
656.832	5.01
657.162	5.02
657.491	5.03
657.821	5.02
658.15	5
658.48	5
658.809	4.97
659.139	4.97
659.468	4.99
659.798	5
660.127	5
660.456	5
660.785	5.02
661.115	5.05
661.444	5.06
661.773	5.07
662.102	5.09
662.431	5.08
662.76	5.08
663.089	5.07
663.418	5.07
663.747	5.06
664.076	5.07
664.404	5.06
664.733	5.06
665.062	5.07
665.39	5.06
665.719	5.06
666.048	5.08
666.376	5.06
666.705	5.05
667.033	5.05
667.362	5.05
667.69	5.05
668.018	5.02
668.347	4.99
668.675	4.99
669.003	4.98
669.331	4.98
669.659	4.97
669.987	4.99
670.315	4.97
670.643	4.98
670.971	4.97
671.299	4.97
671.627	4.97
671.955	4.97
672.283	4.98
672.61	5.01
672.938	4.97
673.266	4.98
673.593	4.98
673.921	4.98
674.249	4.97
674.576	4.99
674.904	5.01
675.231	5.02
675.558	5.03
675.886	5.05
676.213	5.07
676.54	5.07
676.867	5.06
677.195	5.09
677.522	5.11
677.849	5.13
678.176	5.14
678.503	5.14
678.83	5.15
679.157	5.16
679.484	5.14
679.81	5.15
680.137	5.16
680.464	5.16
680.791	5.15
681.117	5.16
681.444	5.15
681.771	5.16
682.097	5.14
682.424	5.14
682.75	5.11
683.077	5.1
683.403	5.09
683.729	5.1
684.056	5.1
684.382	5.08
684.708	5.08
685.034	5.09
685.36	5.1
685.686	5.1
686.012	5.09
686.339	5.12
686.664	5.1
686.99	5.1
687.316	5.12
687.642	5.13
687.968	5.14
688.294	5.13
688.619	5.11
688.945	5.14
689.271	5.14
689.596	5.16
689.922	5.2
690.247	5.21
690.573	5.22
690.898	5.21
691.224	5.23
691.549	5.22
691.874	5.19
692.2	5.2
692.525	5.21
692.85	5.21
693.175	5.18
693.5	5.22
693.825	5.2
694.15	5.21
694.475	5.21
694.8	5.2
695.125	5.22
695.45	5.24
695.775	5.23
696.099	5.25
696.424	5.26
696.749	5.28
697.073	5.29
697.398	5.29
697.723	5.28
698.047	5.28
698.372	5.29
698.696	5.28
699.02	5.28
699.345	5.27
699.669	5.27
699.993	5.3
700.318	5.28
700.642	5.27
700.966	5.27
701.29	5.28
701.614	5.28
701.938	5.29
702.262	5.3
702.586	5.32
702.91	5.31
703.234	5.31
703.557	5.29
703.881	5.27
704.205	5.29
704.529	5.29
704.852	5.29
705.176	5.32
705.499	5.33
705.823	5.32
706.146	5.33
706.47	5.33
706.793	5.29
707.117	5.35
707.44	5.39
707.763	5.39
708.086	5.4
708.409	5.37
708.733	5.36
709.056	5.35
709.379	5.31
709.702	5.32
710.025	5.33
710.348	5.3
710.671	5.31
710.993	5.3
711.316	5.3
711.639	5.31
711.962	5.3
712.284	5.29
712.607	5.31
712.93	5.33
713.252	5.35
713.575	5.37
713.897	5.33
714.22	5.32
714.542	5.33
714.864	5.3
715.187	5.35
715.509	5.36
715.831	5.35
716.153	5.39
716.475	5.39
716.798	5.39
717.12	5.43
717.442	5.42
717.764	5.44
718.085	5.46
718.407	5.46
718.729	5.42
719.051	5.45
719.373	5.46
719.695	5.42
720.016	5.43
720.338	5.42
720.659	5.45
720.981	5.46
721.302	5.43
721.624	5.44
721.945	5.39
722.267	5.36
722.588	5.38
722.909	5.38
723.231	5.35
723.552	5.34
723.873	5.33
724.194	5.34
724.515	5.36
724.836	5.36
725.157	5.35
725.478	5.38
725.799	5.37
726.12	5.34
726.441	5.38
726.762	5.41
727.083	5.41
727.403	5.39
727.724	5.37
728.045	5.43
728.365	5.47
728.686	5.53
729.006	5.58
729.327	5.55
729.647	5.55
729.967	5.57
730.288	5.58
730.608	5.58
730.928	5.58
731.249	5.59
731.569	5.59
731.889	5.63
732.209	5.63
732.529	5.67
732.849	5.7
733.169	5.7
733.489	5.65
733.809	5.66
734.129	5.68
734.448	5.67
734.768	5.64
735.088	5.6
735.408	5.58
735.727	5.58
736.047	5.63
736.366	5.64
736.686	5.62
737.005	5.61
737.325	5.6
737.644	5.6
737.963	5.58
738.283	5.59
738.602	5.56
738.921	5.57
739.24	5.55
739.56	5.53
739.879	5.54
740.198	5.62
740.517	5.63
740.836	5.62
741.155	5.63
741.473	5.67
741.792	5.65
742.111	5.62
742.43	5.62
742.748	5.6
743.067	5.62
743.386	5.61
743.704	5.65
744.023	5.7
744.341	5.72
744.66	5.74
744.978	5.77
745.297	5.75
745.615	5.68
745.933	5.68
746.252	5.72
746.57	5.66
746.888	5.65
747.206	5.67
747.524	5.69
747.842	5.76
748.16	5.81
748.478	5.83
748.796	5.83
749.114	5.77
749.432	5.8
749.749	5.79
750.067	5.85
750.385	5.81
750.703	5.81
751.02	5.83
751.338	5.83
751.655	5.78
751.973	5.84
752.29	5.91
752.608	5.94
752.925	5.93
753.242	6.03
753.56	6
753.877	5.94
754.194	5.96
754.511	5.96
754.828	5.94
755.145	5.98
755.462	6.03
755.779	6.06
756.096	6.09
756.413	6.08
756.73	6.1
757.047	6.07
757.364	6.11
757.68	6.05
757.997	6
758.314	6.03
758.63	6.06
758.947	6.1
759.264	6.08
759.58	6.09
759.896	5.99
760.213	6.02
760.529	6.04
760.846	5.94
761.162	5.94
761.478	5.92
761.794	5.93
762.11	5.93
762.426	5.89
762.743	5.89
763.059	5.91
763.375	5.9
763.69	5.94
764.006	5.92
764.322	5.96
764.638	5.97
764.954	5.95
765.27	5.94
765.585	5.91
765.901	5.94
766.216	5.91
766.532	5.91
766.848	5.87
767.163	5.92
767.478	5.95
767.794	5.91
768.109	5.9
768.424	5.83
768.74	5.84
769.055	5.89
769.37	5.9
769.685	5.88
770	5.87
770.315	5.81
770.63	5.78
770.945	5.78
771.26	5.79
771.575	5.76
771.89	5.72
772.205	5.78
772.52	5.73
772.834	5.73
773.149	5.78
773.464	5.92
773.778	5.87
774.093	5.9
774.407	5.96
774.722	6
775.036	6.06
775.351	6
775.665	5.92
775.979	5.87
776.293	5.86
776.608	5.8
776.922	5.78
777.236	5.8
777.55	5.71
777.864	5.72
778.178	5.81
778.492	5.82
778.806	5.68
779.12	5.78
779.434	5.73
779.747	5.69
780.061	5.61
780.375	5.62
780.689	5.63
781.002	5.67
781.316	5.64
781.629	5.66
781.943	5.74
782.256	5.84
782.57	5.96
782.883	5.88
783.196	5.94
783.51	5.98
783.823	5.98
784.136	6
784.449	6.07
784.762	6.05
785.075	6.1
785.388	6.14
785.701	6.09
786.014	6.17
786.327	6.17
786.64	6.1
786.953	6.12
787.266	6.22
787.578	6.23
787.891	6.3
788.204	6.37
788.516	6.39
788.829	6.38
789.141	6.25
789.454	6.32
789.766	6.32
790.079	6.42
790.391	6.48
790.703	6.56
791.016	6.52
791.328	6.59
791.64	6.6
791.952	6.69
792.264	6.67
792.576	6.71
792.888	6.7
793.2	6.71
793.512	6.77
793.824	6.58
794.136	6.53
794.448	6.57
794.76	6.58
795.071	6.66
795.383	6.68
795.695	6.85
796.006	6.95
796.318	7.03
796.629	6.92
796.941	6.83
797.252	6.86
797.564	6.84
797.875	6.62
798.186	6.59
798.497	6.6
798.809	6.57
799.12	6.51
799.431	6.58
799.742	6.6
800.053	6.5
800.364	6.63
800.675	6.63
800.986	6.47
801.297	6.44
801.608	6.38
801.918	6.35
802.229	6.44
802.54	6.26
802.851	6.16
803.161	6.2
803.472	6.16
803.782	6.14
804.093	6.08
804.403	6.22
804.714	6.27
805.024	6.18
805.334	6.29
805.645	6.37
805.955	6.4
806.265	6.48
806.575	6.56
806.885	6.62
807.195	6.59
807.505	6.66
807.815	6.68
808.125	6.78
808.435	6.87
808.745	6.72
809.055	6.79
809.365	6.96
809.674	7.04
809.984	7.11
810.294	7.11
810.603	7.16
810.913	7.29
811.222	7.3
811.532	7.44
811.841	7.3
812.151	7.24
812.46	7.21
812.769	7.24
813.079	7.25
813.388	7.16
813.697	7.2
814.006	7.3
814.315	7.32
814.624	7.26
814.933	7.32
815.242	7.32
815.551	7.27
815.86	7.12
816.169	7.07
816.478	7.05
816.786	6.96
817.095	6.98
817.404	6.94
817.712	6.83
818.021	6.7
818.33	6.77
818.638	6.82
818.947	6.78
819.255	6.78
819.563	6.82
819.872	6.78
820.18	6.8
820.488	6.77
820.796	6.68
821.105	6.66
821.413	6.6
821.721	6.66
822.029	6.78
822.337	6.84
822.645	6.84
822.953	6.84
823.26	6.89
823.568	6.92
823.876	6.94
824.184	6.97
824.491	6.99
824.799	6.97
825.107	7
825.414	7.02
825.722	7
826.029	7.03
826.337	7.06
826.644	7.06
826.951	7.11
827.259	7.18
827.566	7.22
827.873	7.29
828.18	7.25
828.488	7.21
828.795	7.21
829.102	7.24
829.409	7.27
829.716	7.26
830.023	7.25
830.329	7.26
830.636	7.28
830.943	7.32
831.25	7.4
831.557	7.33
831.863	7.36
832.17	7.43
832.476	7.46
832.783	7.52
833.089	7.54
833.396	7.44
833.702	7.4
834.009	7.37
834.315	7.36
834.621	7.46
834.928	7.48
835.234	7.47
835.54	7.48
835.846	7.58
836.152	7.61
836.458	7.69
836.764	7.6
837.07	7.65
837.376	7.52
837.682	7.44
837.988	7.59
838.293	7.57
838.599	7.53
838.905	7.47
839.211	7.53
839.516	7.67
839.822	7.89
840.127	7.8
840.433	7.88
840.738	7.92
841.044	7.89
841.349	7.86
841.654	7.91
841.959	8.06
842.265	7.91
842.57	7.82
842.875	7.69
843.18	7.95
843.485	7.94
843.79	8.16
844.095	8.37
844.4	8.25
844.705	8.28
845.01	8.4
845.315	8.42
845.619	8.35
845.924	8.09
846.229	7.87
846.533	8.07
846.838	8.03
847.142	7.7
847.447	7.8
847.751	7.84
848.056	7.71
848.36	7.29
848.664	7.18
848.969	7.23
849.273	7.34
849.577	6.96
849.881	6.71
850.185	6.69
850.489	6.54
850.794	6.72
851.097	6.58
851.401	6.49
851.705	6.4
852.009	6.34
852.313	6.39
852.617	5.99
852.92	6.04
853.224	6.36
853.528	7.09
853.831	7.2
854.135	6.99
854.438	6.94
854.742	7.38
855.045	7.47
855.349	7.54
855.652	7.71
855.955	7.89
856.259	8.09
856.562	8.44
856.865	8.33
857.168	8.16
857.471	8.21
857.774	8.07
858.077	8.02
858.38	7.8
858.683	7.56
858.986	7.71
859.289	7.87
859.592	7.78
859.894	7.65
860.197	7.9
860.5	8.08
860.802	8.36
861.105	8.02
861.407	8.3
861.71	8.06
862.012	8.18
862.315	8.53
862.617	8.27
862.919	8.1
863.222	8.64
863.524	8.62
863.826	9.35
864.128	9.46
864.43	9.55
864.732	9.69
865.034	9.88
865.336	10.15
865.638	10.03
865.94	9.73
866.242	9.22
866.544	8.79
866.846	9.41
867.147	9.41
867.449	9.47
867.751	9.7
868.052	9.82
868.354	9.56
868.655	9.47
868.957	9.54
869.258	9.55
869.56	9.09
869.861	8.92
870.162	8.35
870.463	8.56
870.765	8.53
871.066	8.67
871.367	8.97
871.668	8.85
871.969	9.06
872.27	9.11
872.571	9.3
872.872	9.31
873.173	8.76
873.473	8.81
873.774	8.83
874.075	8.37
874.376	8.56
874.676	8.3
874.977	8.24
875.277	8.13
875.578	7.83
875.878	7.97
876.179	8.16
876.479	8.16
876.78	7.98
877.08	8.08
877.38	7.91
877.68	7.47
877.981	7.53
878.281	7.5
878.581	7.34
