Data from UWBM88853_Reflection_00010.txt Node
Date: Sun May 02 13:41:48 EDT 2021
User: vgr7
Spectrometer: USB2G7710
Scans to average: 10
Trigger mode: 4
Integration Time (sec): 1.000000E-1
Electric dark correction enabled: true
Boxcar width: 20
XAxis mode: Wavelengths
Number of Pixels in Spectrum: 2048
>>>>>Begin Spectral Data<<<<<
177.721	154.41
178.105	162.34
178.488	176.97
178.871	331.58
179.254	205.29
179.636	126.34
180.019	93.06
180.402	68.17
180.785	75.23
181.168	73.71
181.55	63.27
181.933	62
182.316	62.01
182.698	57.09
183.081	50.87
183.463	46.6
183.846	42.86
184.228	46.47
184.611	44.46
184.993	41.95
185.376	43.09
185.758	41.66
186.14	40.02
186.522	36.52
186.904	37.24
187.287	35.82
187.669	37.19
188.051	33.39
188.433	32.36
188.815	31.24
189.197	28.63
189.579	29.64
189.961	28.21
190.342	28.82
190.724	31.56
191.106	32.47
191.488	32.43
191.869	30.96
192.251	29.12
192.633	27.12
193.014	25.73
193.396	22.63
193.777	24.03
194.159	24.73
194.54	21.91
194.922	19.53
195.303	18.8
195.684	16.92
196.065	16.95
196.447	14.81
196.828	13.88
197.209	12.88
197.59	11.34
197.971	10.4
198.352	12.02
198.733	13.95
199.114	14.65
199.495	14.57
199.876	12.86
200.257	12.4
200.638	12.44
201.018	13.14
201.399	14.6
201.78	14.41
202.16	13.61
202.541	13.19
202.922	12.52
203.302	13.87
203.683	14.75
204.063	14.76
204.444	15.14
204.824	16.21
205.204	15.84
205.585	17
205.965	16.91
206.345	17.57
206.725	17.55
207.106	16.96
207.486	16.06
207.866	16.17
208.246	16.5
208.626	16.61
209.006	15.87
209.386	14.15
209.766	12.39
210.145	11.63
210.525	13.62
210.905	14.65
211.285	15.31
211.664	15.95
212.044	15.8
212.424	15.89
212.803	16.52
213.183	16.78
213.562	17.3
213.942	16.29
214.321	14.64
214.701	13.51
215.08	13.95
215.459	13.75
215.838	13.55
216.218	13.4
216.597	12.31
216.976	11.51
217.355	11.61
217.734	12.42
218.113	11.99
218.492	11.85
218.871	10.94
219.25	10.46
219.629	11.57
220.008	11.58
220.387	9.85
220.766	10.34
221.144	8.76
221.523	8.98
221.902	7.98
222.28	7.38
222.659	7.64
223.037	7.84
223.416	8.12
223.794	8.46
224.173	8.66
224.551	8.64
224.929	9.63
225.308	9.72
225.686	10.42
226.064	9.47
226.442	8.8
226.821	9.07
227.199	9.25
227.577	9.32
227.955	9.35
228.333	9.46
228.711	8.95
229.089	8.39
229.467	8.22
229.845	8.12
230.222	8.57
230.6	8.49
230.978	8.53
231.356	8.87
231.733	8.76
232.111	8.26
232.488	7.81
232.866	7.5
233.243	7.23
233.621	7.08
233.998	6.81
234.376	6.65
234.753	6.23
235.13	5.85
235.508	5.74
235.885	5.74
236.262	5.56
236.639	5.63
237.016	5.57
237.393	5.43
237.77	5.37
238.147	5.27
238.524	5.13
238.901	5
239.278	4.98
239.655	4.96
240.032	4.91
240.409	4.82
240.785	4.83
241.162	4.81
241.539	4.77
241.915	4.77
242.292	4.71
242.668	4.68
243.045	4.66
243.421	4.61
243.798	4.58
244.174	4.62
244.551	4.61
244.927	4.58
245.303	4.59
245.679	4.56
246.056	4.51
246.432	4.49
246.808	4.45
247.184	4.44
247.56	4.45
247.936	4.45
248.312	4.45
248.688	4.41
249.064	4.39
249.44	4.4
249.815	4.36
250.191	4.35
250.567	4.37
250.943	4.33
251.318	4.3
251.694	4.29
252.069	4.25
252.445	4.21
252.82	4.19
253.196	4.17
253.571	4.14
253.947	4.14
254.322	4.12
254.697	4.08
255.073	4.04
255.448	4.06
255.823	4.03
256.198	4
256.573	3.96
256.948	3.95
257.323	3.93
257.698	3.89
258.073	3.87
258.448	3.85
258.823	3.84
259.198	3.82
259.573	3.8
259.948	3.78
260.322	3.76
260.697	3.74
261.072	3.71
261.446	3.69
261.821	3.67
262.195	3.64
262.57	3.63
262.944	3.61
263.319	3.62
263.693	3.62
264.067	3.62
264.442	3.62
264.816	3.59
265.19	3.6
265.564	3.62
265.938	3.58
266.313	3.61
266.687	3.6
267.061	3.59
267.435	3.59
267.809	3.59
268.183	3.58
268.556	3.58
268.93	3.57
269.304	3.56
269.678	3.57
270.051	3.56
270.425	3.55
270.799	3.52
271.172	3.54
271.546	3.53
271.919	3.53
272.293	3.54
272.666	3.55
273.04	3.57
273.413	3.6
273.787	3.61
274.16	3.6
274.533	3.61
274.906	3.61
275.279	3.62
275.653	3.64
276.026	3.66
276.399	3.68
276.772	3.72
277.145	3.7
277.518	3.72
277.891	3.73
278.263	3.72
278.636	3.72
279.009	3.71
279.382	3.71
279.755	3.72
280.127	3.73
280.5	3.72
280.872	3.74
281.245	3.75
281.617	3.73
281.99	3.73
282.362	3.73
282.735	3.73
283.107	3.73
283.479	3.73
283.852	3.74
284.224	3.74
284.596	3.73
284.968	3.71
285.34	3.73
285.713	3.74
286.085	3.75
286.457	3.75
286.829	3.76
287.201	3.77
287.572	3.77
287.944	3.77
288.316	3.77
288.688	3.76
289.06	3.75
289.431	3.76
289.803	3.77
290.175	3.78
290.546	3.8
290.918	3.83
291.289	3.83
291.661	3.83
292.032	3.81
292.403	3.84
292.775	3.85
293.146	3.85
293.517	3.87
293.889	3.88
294.26	3.9
294.631	3.91
295.002	3.93
295.373	3.94
295.744	3.96
296.115	3.98
296.486	4.01
296.857	4.04
297.228	4.06
297.599	4.1
297.97	4.11
298.34	4.12
298.711	4.16
299.082	4.16
299.452	4.2
299.823	4.22
300.194	4.25
300.564	4.26
300.935	4.28
301.305	4.3
301.676	4.31
302.046	4.34
302.416	4.36
302.787	4.37
303.157	4.4
303.527	4.42
303.897	4.44
304.267	4.48
304.637	4.5
305.008	4.53
305.378	4.54
305.748	4.56
306.117	4.57
306.487	4.59
306.857	4.63
307.227	4.67
307.597	4.7
307.967	4.73
308.336	4.79
308.706	4.81
309.076	4.84
309.445	4.87
309.815	4.88
310.184	4.91
310.554	4.94
310.923	4.98
311.293	4.99
311.662	4.99
312.031	5.02
312.401	5.05
312.77	5.06
313.139	5.08
313.508	5.11
313.877	5.11
314.246	5.14
314.616	5.16
314.985	5.19
315.353	5.22
315.722	5.23
316.091	5.26
316.46	5.27
316.829	5.3
317.198	5.34
317.567	5.36
317.935	5.39
318.304	5.41
318.672	5.44
319.041	5.48
319.41	5.51
319.778	5.55
320.147	5.57
320.515	5.6
320.883	5.62
321.252	5.62
321.62	5.65
321.988	5.68
322.357	5.7
322.725	5.71
323.093	5.72
323.461	5.72
323.829	5.75
324.197	5.77
324.565	5.79
324.933	5.83
325.301	5.83
325.669	5.85
326.037	5.87
326.405	5.89
326.772	5.9
327.14	5.92
327.508	5.94
327.875	5.95
328.243	5.98
328.61	6
328.978	6.02
329.346	6.03
329.713	6.06
330.08	6.08
330.448	6.09
330.815	6.1
331.182	6.11
331.55	6.13
331.917	6.13
332.284	6.14
332.651	6.15
333.018	6.18
333.385	6.2
333.752	6.22
334.119	6.24
334.486	6.26
334.853	6.29
335.22	6.31
335.587	6.32
335.954	6.34
336.32	6.37
336.687	6.39
337.054	6.4
337.42	6.44
337.787	6.47
338.153	6.5
338.52	6.51
338.886	6.52
339.253	6.54
339.619	6.56
339.986	6.56
340.352	6.59
340.718	6.6
341.084	6.61
341.451	6.63
341.817	6.65
342.183	6.67
342.549	6.69
342.915	6.72
343.281	6.73
343.647	6.75
344.013	6.76
344.379	6.79
344.745	6.8
345.11	6.82
345.476	6.84
345.842	6.87
346.208	6.89
346.573	6.92
346.939	6.94
347.304	6.96
347.67	6.97
348.035	6.99
348.401	7
348.766	7.02
349.132	7.03
349.497	7.04
349.862	7.05
350.228	7.06
350.593	7.08
350.958	7.09
351.323	7.1
351.688	7.11
352.053	7.13
352.418	7.12
352.783	7.12
353.148	7.11
353.513	7.13
353.878	7.14
354.243	7.14
354.608	7.15
354.972	7.16
355.337	7.16
355.702	7.17
356.066	7.17
356.431	7.16
356.795	7.16
357.16	7.14
357.524	7.14
357.889	7.13
358.253	7.13
358.618	7.12
358.982	7.11
359.346	7.11
359.71	7.1
360.075	7.09
360.439	7.08
360.803	7.06
361.167	7.06
361.531	7.04
361.895	7.03
362.259	7.01
362.623	6.99
362.987	6.98
363.351	6.97
363.714	6.95
364.078	6.93
364.442	6.92
364.806	6.9
365.169	6.89
365.533	6.87
365.896	6.85
366.26	6.83
366.623	6.8
366.987	6.77
367.35	6.75
367.714	6.73
368.077	6.71
368.44	6.68
368.803	6.64
369.167	6.61
369.53	6.57
369.893	6.54
370.256	6.5
370.619	6.46
370.982	6.43
371.345	6.41
371.708	6.39
372.071	6.35
372.434	6.31
372.797	6.27
373.159	6.24
373.522	6.21
373.885	6.18
374.247	6.14
374.61	6.1
374.973	6.07
375.335	6.03
375.698	5.99
376.06	5.96
376.423	5.92
376.785	5.89
377.147	5.86
377.51	5.83
377.872	5.79
378.234	5.75
378.596	5.71
378.958	5.68
379.321	5.65
379.683	5.61
380.045	5.57
380.407	5.55
380.769	5.51
381.13	5.48
381.492	5.45
381.854	5.42
382.216	5.39
382.578	5.36
382.939	5.33
383.301	5.3
383.663	5.27
384.024	5.24
384.386	5.22
384.747	5.19
385.109	5.17
385.47	5.14
385.832	5.1
386.193	5.07
386.554	5.04
386.916	5.01
387.277	4.98
387.638	4.96
387.999	4.94
388.36	4.91
388.721	4.89
389.082	4.87
389.443	4.85
389.804	4.82
390.165	4.8
390.526	4.78
390.887	4.75
391.248	4.73
391.609	4.7
391.969	4.68
392.33	4.66
392.691	4.64
393.051	4.61
393.412	4.59
393.772	4.57
394.133	4.55
394.493	4.53
394.854	4.5
395.214	4.47
395.574	4.45
395.935	4.42
396.295	4.4
396.655	4.38
397.015	4.36
397.376	4.34
397.736	4.32
398.096	4.3
398.456	4.28
398.816	4.26
399.176	4.24
399.535	4.22
399.895	4.2
400.255	4.18
400.615	4.17
400.975	4.15
401.334	4.13
401.694	4.12
402.054	4.11
402.413	4.09
402.773	4.07
403.132	4.06
403.492	4.05
403.851	4.03
404.211	4.02
404.57	4.02
404.929	4
405.288	3.99
405.648	3.99
406.007	3.99
406.366	3.98
406.725	3.97
407.084	3.96
407.443	3.96
407.802	3.95
408.161	3.95
408.52	3.94
408.879	3.94
409.238	3.93
409.596	3.93
409.955	3.92
410.314	3.92
410.673	3.92
411.031	3.91
411.39	3.91
411.748	3.9
412.107	3.9
412.465	3.9
412.824	3.92
413.182	3.93
413.54	3.94
413.899	3.96
414.257	3.98
414.615	4
414.974	4.02
415.332	4.05
415.69	4.07
416.048	4.09
416.406	4.13
416.764	4.14
417.122	4.16
417.48	4.18
417.838	4.2
418.195	4.22
418.553	4.23
418.911	4.24
419.269	4.24
419.626	4.23
419.984	4.22
420.342	4.2
420.699	4.18
421.057	4.16
421.414	4.13
421.772	4.12
422.129	4.1
422.486	4.09
422.844	4.09
423.201	4.08
423.558	4.07
423.915	4.07
424.273	4.06
424.63	4.06
424.987	4.05
425.344	4.05
425.701	4.04
426.058	4.04
426.415	4.04
426.772	4.03
427.128	4.02
427.485	4.01
427.842	3.99
428.199	3.98
428.555	3.96
428.912	3.94
429.269	3.91
429.625	3.89
429.982	3.86
430.338	3.84
430.695	3.81
431.051	3.78
431.407	3.76
431.764	3.75
432.12	3.73
432.476	3.72
432.832	3.71
433.189	3.71
433.545	3.71
433.901	3.72
434.257	3.74
434.613	3.77
434.969	3.79
435.325	3.81
435.681	3.84
436.036	3.86
436.392	3.88
436.748	3.89
437.104	3.9
437.459	3.91
437.815	3.93
438.171	3.95
438.526	3.97
438.882	4
439.237	4.03
439.593	4.06
439.948	4.08
440.304	4.12
440.659	4.14
441.014	4.16
441.369	4.18
441.725	4.19
442.08	4.21
442.435	4.22
442.79	4.22
443.145	4.22
443.5	4.22
443.855	4.22
444.21	4.22
444.565	4.21
444.92	4.2
445.275	4.19
445.629	4.18
445.984	4.17
446.339	4.16
446.693	4.14
447.048	4.13
447.403	4.11
447.757	4.08
448.112	4.06
448.466	4.04
448.82	4.02
449.175	3.99
449.529	3.97
449.883	3.96
450.238	3.94
450.592	3.93
450.946	3.92
451.3	3.92
451.654	3.92
452.008	3.92
452.362	3.92
452.716	3.92
453.07	3.92
453.424	3.92
453.778	3.91
454.132	3.9
454.486	3.89
454.839	3.88
455.193	3.86
455.547	3.85
455.9	3.82
456.254	3.81
456.607	3.78
456.961	3.76
457.314	3.74
457.668	3.73
458.021	3.73
458.375	3.73
458.728	3.73
459.081	3.73
459.434	3.74
459.787	3.75
460.141	3.76
460.494	3.77
460.847	3.78
461.2	3.79
461.553	3.8
461.906	3.81
462.259	3.82
462.611	3.82
462.964	3.83
463.317	3.84
463.67	3.85
464.022	3.86
464.375	3.87
464.728	3.87
465.08	3.88
465.433	3.89
465.785	3.89
466.138	3.89
466.49	3.88
466.843	3.86
467.195	3.85
467.547	3.83
467.899	3.81
468.252	3.79
468.604	3.78
468.956	3.76
469.308	3.76
469.66	3.76
470.012	3.75
470.364	3.76
470.716	3.77
471.068	3.78
471.42	3.8
471.772	3.82
472.123	3.84
472.475	3.85
472.827	3.86
473.178	3.86
473.53	3.87
473.882	3.89
474.233	3.91
474.585	3.94
474.936	3.99
475.288	4.07
475.639	4.18
475.99	4.29
476.342	4.42
476.693	4.57
477.044	4.71
477.395	4.86
477.746	5.01
478.097	5.17
478.448	5.33
478.8	5.48
479.15	5.62
479.501	5.75
479.852	5.87
480.203	5.98
480.554	6.09
480.905	6.19
481.255	6.29
481.606	6.38
481.957	6.47
482.307	6.56
482.658	6.64
483.009	6.71
483.359	6.79
483.709	6.86
484.06	6.93
484.41	7
484.761	7.07
485.111	7.13
485.461	7.19
485.811	7.25
486.162	7.3
486.512	7.35
486.862	7.39
487.212	7.41
487.562	7.43
487.912	7.44
488.262	7.45
488.612	7.45
488.961	7.44
489.311	7.41
489.661	7.35
490.011	7.28
490.36	7.18
490.71	7.08
491.06	6.97
491.409	6.85
491.759	6.73
492.108	6.6
492.458	6.46
492.807	6.33
493.157	6.19
493.506	6.06
493.855	5.94
494.204	5.82
494.554	5.72
494.903	5.62
495.252	5.53
495.601	5.45
495.95	5.37
496.299	5.29
496.648	5.22
496.997	5.17
497.346	5.11
497.695	5.06
498.043	5.01
498.392	4.97
498.741	4.94
499.09	4.9
499.438	4.88
499.787	4.86
500.135	4.85
500.484	4.84
500.832	4.85
501.181	4.88
501.529	4.92
501.878	4.97
502.226	5.04
502.574	5.11
502.923	5.19
503.271	5.27
503.619	5.36
503.967	5.45
504.315	5.54
504.663	5.64
505.011	5.74
505.359	5.85
505.707	5.96
506.055	6.07
506.403	6.2
506.751	6.32
507.098	6.45
507.446	6.59
507.794	6.73
508.141	6.89
508.489	7.06
508.837	7.23
509.184	7.41
509.531	7.6
509.879	7.79
510.226	8
510.574	8.23
510.921	8.46
511.268	8.7
511.616	8.96
511.963	9.22
512.31	9.49
512.657	9.76
513.004	10.02
513.351	10.28
513.698	10.54
514.045	10.78
514.392	11.01
514.739	11.24
515.086	11.46
515.432	11.69
515.779	11.92
516.126	12.16
516.473	12.42
516.819	12.69
517.166	12.99
517.512	13.3
517.859	13.64
518.205	13.99
518.552	14.38
518.898	14.79
519.245	15.25
519.591	15.8
519.937	16.44
520.283	17.16
520.629	17.94
520.976	18.75
521.322	19.59
521.668	20.46
522.014	21.33
522.36	22.2
522.706	23.05
523.052	23.87
523.398	24.66
523.743	25.39
524.089	26.06
524.435	26.7
524.781	27.32
525.126	27.94
525.472	28.55
525.817	29.14
526.163	29.72
526.509	30.29
526.854	30.86
527.199	31.42
527.545	31.97
527.89	32.55
528.235	33.1
528.581	33.64
528.926	34.15
529.271	34.63
529.616	35.09
529.961	35.53
530.306	35.93
530.651	36.3
530.996	36.65
531.341	36.97
531.686	37.28
532.031	37.56
532.376	37.87
532.721	38.2
533.065	38.55
533.41	38.92
533.755	39.24
534.099	39.52
534.444	39.74
534.788	39.94
535.133	40.11
535.477	40.25
535.822	40.36
536.166	40.41
536.51	40.4
536.855	40.33
537.199	40.22
537.543	40.11
537.887	40.03
538.231	39.99
538.576	39.96
538.92	39.9
539.264	39.83
539.608	39.73
539.951	39.62
540.295	39.48
540.639	39.34
540.983	39.17
541.327	38.97
541.671	38.77
542.014	38.6
542.358	38.45
542.701	38.39
543.045	38.39
543.389	38.43
543.732	38.49
544.075	38.57
544.419	38.66
544.762	38.77
545.105	38.88
545.449	39.01
545.792	39.14
546.135	39.27
546.478	39.36
546.821	39.39
547.165	39.35
547.508	39.24
547.851	39.08
548.194	38.88
548.536	38.62
548.879	38.32
549.222	38
549.565	37.68
549.908	37.35
550.25	37.05
550.593	36.82
550.936	36.66
551.278	36.57
551.621	36.52
551.963	36.49
552.306	36.48
552.648	36.5
552.991	36.56
553.333	36.63
553.675	36.74
554.017	36.88
554.36	37.06
554.702	37.26
555.044	37.51
555.386	37.8
555.728	38.11
556.07	38.37
556.412	38.65
556.754	38.83
557.096	38.98
557.438	39.12
557.78	39.26
558.121	39.41
558.463	39.55
558.805	39.69
559.147	39.83
559.488	39.98
559.83	40.12
560.171	40.26
560.513	40.4
560.854	40.53
561.196	40.66
561.537	40.79
561.878	40.91
562.22	41.04
562.561	41.15
562.902	41.28
563.243	41.4
563.584	41.51
563.925	41.62
564.266	41.74
564.607	41.85
564.948	41.97
565.289	42.08
565.63	42.19
565.971	42.31
566.312	42.43
566.653	42.52
566.993	42.64
567.334	42.75
567.675	42.84
568.015	42.94
568.356	43.04
568.696	43.13
569.037	43.22
569.377	43.31
569.718	43.4
570.058	43.49
570.398	43.57
570.739	43.64
571.079	43.72
571.419	43.79
571.759	43.86
572.099	43.92
572.439	43.99
572.779	44.05
573.119	44.11
573.459	44.17
573.799	44.23
574.139	44.29
574.479	44.35
574.819	44.41
575.158	44.48
575.498	44.53
575.838	44.59
576.177	44.65
576.517	44.71
576.856	44.76
577.196	44.83
577.535	44.89
577.875	44.94
578.214	45
578.553	45.06
578.893	45.1
579.232	45.15
579.571	45.2
579.91	45.24
580.25	45.28
580.589	45.34
580.928	45.39
581.267	45.43
581.606	45.48
581.945	45.53
582.283	45.59
582.622	45.65
582.961	45.7
583.3	45.76
583.639	45.81
583.977	45.86
584.316	45.93
584.654	46
584.993	46.05
585.332	46.11
585.67	46.18
586.008	46.25
586.347	46.3
586.685	46.36
587.024	46.42
587.362	46.48
587.7	46.54
588.038	46.61
588.376	46.67
588.715	46.73
589.053	46.79
589.391	46.86
589.729	46.94
590.067	47
590.404	47.06
590.742	47.13
591.08	47.18
591.418	47.24
591.756	47.3
592.093	47.36
592.431	47.41
592.769	47.46
593.106	47.51
593.444	47.56
593.781	47.6
594.119	47.66
594.456	47.71
594.793	47.76
595.131	47.81
595.468	47.86
595.805	47.91
596.143	47.96
596.48	48.01
596.817	48.07
597.154	48.12
597.491	48.18
597.828	48.24
598.165	48.29
598.502	48.33
598.839	48.38
599.176	48.42
599.512	48.46
599.849	48.5
600.186	48.54
600.523	48.59
600.859	48.62
601.196	48.67
601.532	48.7
601.869	48.73
602.205	48.76
602.542	48.8
602.878	48.84
603.215	48.87
603.551	48.9
603.887	48.93
604.223	48.97
604.56	49.01
604.896	49.04
605.232	49.07
605.568	49.1
605.904	49.14
606.24	49.17
606.576	49.2
606.912	49.23
607.248	49.25
607.583	49.29
607.919	49.3
608.255	49.33
608.591	49.35
608.926	49.38
609.262	49.4
609.597	49.42
609.933	49.45
610.268	49.47
610.604	49.48
610.939	49.5
611.275	49.51
611.61	49.53
611.945	49.54
612.281	49.57
612.616	49.6
612.951	49.62
613.286	49.64
613.621	49.68
613.956	49.7
614.291	49.71
614.626	49.74
614.961	49.74
615.296	49.78
615.631	49.8
615.966	49.83
616.3	49.85
616.635	49.87
616.97	49.9
617.304	49.91
617.639	49.94
617.973	49.96
618.308	49.98
618.642	50.01
618.977	50.03
619.311	50.05
619.646	50.07
619.98	50.09
620.314	50.11
620.648	50.15
620.983	50.17
621.317	50.2
621.651	50.22
621.985	50.25
622.319	50.28
622.653	50.31
622.987	50.34
623.321	50.35
623.655	50.38
623.988	50.42
624.322	50.44
624.656	50.47
624.99	50.49
625.323	50.52
625.657	50.54
625.99	50.55
626.324	50.57
626.657	50.59
626.991	50.62
627.324	50.63
627.658	50.67
627.991	50.7
628.324	50.71
628.657	50.73
628.991	50.75
629.324	50.78
629.657	50.81
629.99	50.84
630.323	50.86
630.656	50.89
630.989	50.92
631.322	50.94
631.655	50.96
631.987	50.97
632.32	51
632.653	51.01
632.986	51.04
633.318	51.06
633.651	51.09
633.984	51.1
634.316	51.12
634.649	51.13
634.981	51.15
635.313	51.18
635.646	51.19
635.978	51.22
636.31	51.23
636.643	51.26
636.975	51.28
637.307	51.3
637.639	51.31
637.971	51.32
638.303	51.35
638.635	51.37
638.967	51.38
639.299	51.41
639.631	51.44
639.963	51.46
640.295	51.49
640.626	51.52
640.958	51.54
641.29	51.56
641.621	51.58
641.953	51.6
642.285	51.63
642.616	51.65
642.948	51.66
643.279	51.67
643.61	51.69
643.942	51.71
644.273	51.72
644.604	51.74
644.936	51.76
645.267	51.79
645.598	51.8
645.929	51.81
646.26	51.82
646.591	51.85
646.922	51.87
647.253	51.89
647.584	51.92
647.915	51.93
648.245	51.96
648.576	51.98
648.907	52
649.238	52.02
649.568	52.03
649.899	52.04
650.229	52.05
650.56	52.07
650.89	52.07
651.221	52.09
651.551	52.11
651.882	52.12
652.212	52.15
652.542	52.18
652.872	52.18
653.203	52.21
653.533	52.23
653.863	52.24
654.193	52.26
654.523	52.26
654.853	52.28
655.183	52.3
655.513	52.31
655.843	52.33
656.172	52.36
656.502	52.38
656.832	52.41
657.162	52.44
657.491	52.46
657.821	52.48
658.15	52.51
658.48	52.53
658.809	52.56
659.139	52.58
659.468	52.62
659.798	52.65
660.127	52.66
660.456	52.68
660.785	52.7
661.115	52.72
661.444	52.72
661.773	52.76
662.102	52.78
662.431	52.79
662.76	52.79
663.089	52.82
663.418	52.84
663.747	52.86
664.076	52.88
664.404	52.91
664.733	52.94
665.062	52.96
665.39	52.98
665.719	52.99
666.048	53
666.376	53.03
666.705	53.03
667.033	53.05
667.362	53.06
667.69	53.07
668.018	53.12
668.347	53.11
668.675	53.12
669.003	53.14
669.331	53.16
669.659	53.17
669.987	53.17
670.315	53.16
670.643	53.18
670.971	53.19
671.299	53.19
671.627	53.19
671.955	53.21
672.283	53.2
672.61	53.21
672.938	53.21
673.266	53.22
673.593	53.23
673.921	53.23
674.249	53.26
674.576	53.26
674.904	53.29
675.231	53.29
675.558	53.31
675.886	53.32
676.213	53.33
676.54	53.34
676.867	53.35
677.195	53.37
677.522	53.38
677.849	53.39
678.176	53.4
678.503	53.42
678.83	53.45
679.157	53.47
679.484	53.49
679.81	53.5
680.137	53.53
680.464	53.55
680.791	53.57
681.117	53.59
681.444	53.59
681.771	53.62
682.097	53.64
682.424	53.67
682.75	53.68
683.077	53.69
683.403	53.71
683.729	53.73
684.056	53.73
684.382	53.75
684.708	53.77
685.034	53.78
685.36	53.79
685.686	53.81
686.012	53.85
686.339	53.86
686.664	53.88
686.99	53.91
687.316	53.95
687.642	53.96
687.968	53.98
688.294	54
688.619	54.03
688.945	54.03
689.271	54.07
689.596	54.1
689.922	54.12
690.247	54.13
690.573	54.13
690.898	54.14
691.224	54.15
691.549	54.16
691.874	54.16
692.2	54.15
692.525	54.15
692.85	54.15
693.175	54.15
693.5	54.16
693.825	54.18
694.15	54.19
694.475	54.2
694.8	54.22
695.125	54.24
695.45	54.25
695.775	54.26
696.099	54.27
696.424	54.29
696.749	54.31
697.073	54.32
697.398	54.35
697.723	54.37
698.047	54.37
698.372	54.39
698.696	54.41
699.02	54.41
699.345	54.41
699.669	54.44
699.993	54.44
700.318	54.44
700.642	54.44
700.966	54.46
701.29	54.48
701.614	54.49
701.938	54.51
702.262	54.55
702.586	54.55
702.91	54.57
703.234	54.57
703.557	54.6
703.881	54.61
704.205	54.62
704.529	54.64
704.852	54.67
705.176	54.71
705.499	54.74
705.823	54.78
706.146	54.8
706.47	54.84
706.793	54.87
707.117	54.87
707.44	54.89
707.763	54.9
708.086	54.9
708.409	54.92
708.733	54.94
709.056	54.96
709.379	54.97
709.702	55
710.025	55.02
710.348	55.03
710.671	55.05
710.993	55.07
711.316	55.09
711.639	55.09
711.962	55.11
712.284	55.13
712.607	55.11
712.93	55.11
713.252	55.12
713.575	55.15
713.897	55.16
714.22	55.16
714.542	55.17
714.864	55.18
715.187	55.17
715.509	55.18
715.831	55.18
716.153	55.19
716.475	55.22
716.798	55.21
717.12	55.23
717.442	55.28
717.764	55.3
718.085	55.31
718.407	55.31
718.729	55.32
719.051	55.33
719.373	55.36
719.695	55.38
720.016	55.38
720.338	55.41
720.659	55.42
720.981	55.44
721.302	55.47
721.624	55.5
721.945	55.52
722.267	55.56
722.588	55.54
722.909	55.54
723.231	55.56
723.552	55.58
723.873	55.59
724.194	55.63
724.515	55.64
724.836	55.67
725.157	55.69
725.478	55.69
725.799	55.72
726.12	55.75
726.441	55.77
726.762	55.76
727.083	55.76
727.403	55.78
727.724	55.79
728.045	55.81
728.365	55.81
728.686	55.82
729.006	55.83
729.327	55.83
729.647	55.84
729.967	55.85
730.288	55.87
730.608	55.86
730.928	55.89
731.249	55.9
731.569	55.93
731.889	55.93
732.209	55.92
732.529	55.91
732.849	55.91
733.169	55.94
733.489	55.93
733.809	55.95
734.129	55.99
734.448	55.99
734.768	55.98
735.088	55.97
735.408	55.94
735.727	55.97
736.047	55.98
736.366	56
736.686	56.02
737.005	56.04
737.325	56.02
737.644	56.02
737.963	56.02
738.283	55.99
738.602	56.02
738.921	56
739.24	55.99
739.56	55.97
739.879	55.98
740.198	55.98
740.517	55.96
740.836	55.96
741.155	55.95
741.473	55.98
741.792	55.93
742.111	55.95
742.43	55.96
742.748	55.98
743.067	55.99
743.386	56
743.704	56.02
744.023	56
744.341	56
744.66	55.98
744.978	56.03
745.297	56.05
745.615	56.12
745.933	56.12
746.252	56.09
746.57	56.1
746.888	56.14
747.206	56.13
747.524	56.15
747.842	56.15
748.16	56.17
748.478	56.18
748.796	56.14
749.114	56.18
749.432	56.17
749.749	56.14
750.067	56.14
750.385	56.13
750.703	56.15
751.02	56.17
751.338	56.22
751.655	56.2
751.973	56.26
752.29	56.28
752.608	56.28
752.925	56.31
753.242	56.35
753.56	56.39
753.877	56.45
754.194	56.43
754.511	56.42
754.828	56.43
755.145	56.42
755.462	56.42
755.779	56.44
756.096	56.47
756.413	56.45
756.73	56.41
757.047	56.39
757.364	56.39
757.68	56.4
757.997	56.4
758.314	56.41
758.63	56.38
758.947	56.4
759.264	56.4
759.58	56.43
759.896	56.42
760.213	56.42
760.529	56.42
760.846	56.46
761.162	56.44
761.478	56.48
761.794	56.53
762.11	56.54
762.426	56.56
762.743	56.56
763.059	56.55
763.375	56.56
763.69	56.58
764.006	56.61
764.322	56.61
764.638	56.6
764.954	56.58
765.27	56.58
765.585	56.62
765.901	56.64
766.216	56.65
766.532	56.63
766.848	56.6
767.163	56.6
767.478	56.61
767.794	56.65
768.109	56.69
768.424	56.69
768.74	56.67
769.055	56.67
769.37	56.68
769.685	56.72
770	56.78
770.315	56.8
770.63	56.81
770.945	56.77
771.26	56.75
771.575	56.78
771.89	56.76
772.205	56.82
772.52	56.83
772.834	56.83
773.149	56.86
773.464	56.87
773.778	56.87
774.093	56.89
774.407	56.87
774.722	56.84
775.036	56.85
775.351	56.85
775.665	56.87
775.979	56.9
776.293	56.86
776.608	56.87
776.922	56.83
777.236	56.84
777.55	56.88
777.864	56.92
778.178	56.89
778.492	56.85
778.806	56.81
779.12	56.83
779.434	56.85
779.747	56.89
780.061	56.93
780.375	56.92
780.689	56.96
781.002	56.92
781.316	56.92
781.629	56.92
781.943	56.89
782.256	56.92
782.57	56.91
782.883	56.89
783.196	56.91
783.51	56.9
783.823	57
784.136	57.03
784.449	57.05
784.762	57.08
785.075	57.08
785.388	57.04
785.701	57.05
786.014	57.06
786.327	57.04
786.64	57.01
786.953	57.05
787.266	57.05
787.578	57.13
787.891	57.12
788.204	57.15
788.516	57.2
788.829	57.2
789.141	57.26
789.454	57.24
789.766	57.28
790.079	57.26
790.391	57.24
790.703	57.25
791.016	57.25
791.328	57.29
791.64	57.28
791.952	57.26
792.264	57.25
792.576	57.22
792.888	57.24
793.2	57.28
793.512	57.24
793.824	57.26
794.136	57.27
794.448	57.28
794.76	57.35
795.071	57.32
795.383	57.33
795.695	57.27
796.006	57.27
796.318	57.25
796.629	57.21
796.941	57.21
797.252	57.2
797.564	57.19
797.875	57.2
798.186	57.21
798.497	57.16
798.809	57.16
799.12	57.15
799.431	57.19
799.742	57.15
800.053	57.18
800.364	57.17
800.675	57.14
800.986	57.03
801.297	56.97
801.608	56.95
801.918	56.94
802.229	56.94
802.54	56.93
802.851	56.91
803.161	56.92
803.472	56.92
803.782	56.95
804.093	56.96
804.403	57.01
804.714	56.99
805.024	57.04
805.334	57.05
805.645	57.08
805.955	57.05
806.265	57.05
806.575	57.01
806.885	57.02
807.195	57.05
807.505	57.01
807.815	57.1
808.125	57.09
808.435	57.18
808.745	57.19
809.055	57.23
809.365	57.26
809.674	57.3
809.984	57.32
810.294	57.35
810.603	57.33
810.913	57.36
811.222	57.39
811.532	57.32
811.841	57.35
812.151	57.33
812.46	57.38
812.769	57.3
813.079	57.3
813.388	57.28
813.697	57.41
814.006	57.52
814.315	57.5
814.624	57.54
814.933	57.61
815.242	57.6
815.551	57.71
815.86	57.75
816.169	57.77
816.478	57.88
816.786	57.83
817.095	57.82
817.404	57.87
817.712	57.85
818.021	57.9
818.33	57.9
818.638	57.96
818.947	57.99
819.255	58.03
819.563	58.07
819.872	58.09
820.18	58.11
820.488	58.07
820.796	58.05
821.105	58.07
821.413	58.04
821.721	58.05
822.029	58.05
822.337	58.05
822.645	58.05
822.953	58.04
823.26	58.05
823.568	58.04
823.876	58.03
824.184	58.06
824.491	58.06
824.799	58.09
825.107	58.07
825.414	58.09
825.722	58.09
826.029	58.12
826.337	58.11
826.644	58.1
826.951	58.1
827.259	58.12
827.566	58.11
827.873	58.11
828.18	58.1
828.488	58.1
828.795	58.11
829.102	58.07
829.409	58.08
829.716	58.09
830.023	58.09
830.329	58.11
830.636	58.13
830.943	58.13
831.25	58.12
831.557	58.13
831.863	58.09
832.17	58.06
832.476	58.04
832.783	57.98
833.089	57.99
833.396	58.03
833.702	57.97
834.009	58.02
834.315	58
834.621	58.01
834.928	58
835.234	57.96
835.54	57.96
835.846	57.92
836.152	57.91
836.458	57.95
836.764	57.94
837.07	57.95
837.376	57.94
837.682	57.95
837.988	57.93
838.293	57.93
838.599	57.91
838.905	57.84
839.211	57.82
839.516	57.83
839.822	57.8
840.127	57.82
840.433	57.84
840.738	57.83
841.044	57.87
841.349	57.85
841.654	57.86
841.959	57.84
842.265	57.87
842.57	57.91
842.875	57.93
843.18	57.86
843.485	57.78
843.79	57.72
844.095	57.73
844.4	57.81
844.705	57.85
845.01	57.81
845.315	57.95
845.619	58.02
845.924	58.08
846.229	58.11
846.533	58.12
846.838	58.07
847.142	58.01
847.447	58.11
847.751	58.19
848.056	58.28
848.36	58.35
848.664	58.42
848.969	58.36
849.273	58.44
849.577	58.58
849.881	58.6
850.185	58.67
850.489	58.81
850.794	58.76
851.097	58.78
851.401	58.99
851.705	59.06
852.009	59.06
852.313	59.13
852.617	59.05
852.92	59
853.224	59.15
853.528	59.09
853.831	59.06
854.135	59.09
854.438	59.09
854.742	59.16
855.045	59.06
855.349	58.98
855.652	58.96
855.955	59.08
856.259	59.1
856.562	59.04
856.865	59.1
857.168	59.08
857.471	59.45
857.774	59.42
858.077	59.48
858.38	59.38
858.683	59.38
858.986	59.32
859.289	59.43
859.592	59.44
859.894	59.33
860.197	59.4
860.5	59.36
860.802	59.31
861.105	59.42
861.407	59.53
861.71	59.51
862.012	59.47
862.315	59.46
862.617	59.42
862.919	59.42
863.222	59.54
863.524	59.57
863.826	59.5
864.128	59.48
864.43	59.49
864.732	59.36
865.034	59.51
865.336	59.54
865.638	59.55
865.94	59.52
866.242	59.48
866.544	59.61
866.846	59.75
867.147	59.62
867.449	59.67
867.751	59.55
868.052	59.68
868.354	59.66
868.655	59.69
868.957	59.76
869.258	59.78
869.56	59.85
869.861	59.67
870.162	59.79
870.463	59.75
870.765	59.72
871.066	59.93
871.367	59.83
871.668	59.74
871.969	59.8
872.27	59.64
872.571	59.61
872.872	59.64
873.173	59.72
873.473	59.63
873.774	59.61
874.075	59.56
874.376	59.52
874.676	59.48
874.977	59.52
875.277	59.46
875.578	59.45
875.878	59.5
876.179	59.5
876.479	59.44
876.78	59.48
877.08	59.62
877.38	59.51
877.68	59.5
877.981	59.4
878.281	59.39
878.581	59.46
