Data from UWBM104549_Reflection_00001.txt Node
Date: Sun May 02 12:24:02 EDT 2021
User: vgr7
Spectrometer: USB2G7710
Scans to average: 10
Trigger mode: 4
Integration Time (sec): 1.000000E-1
Electric dark correction enabled: true
Boxcar width: 10
XAxis mode: Wavelengths
Number of Pixels in Spectrum: 2048
>>>>>Begin Spectral Data<<<<<
177.721	1012
178.105	237.14
178.488	200.88
178.871	381.63
179.254	41.94
179.636	51.12
180.019	580
180.402	11.11
180.785	53.85
181.168	35.47
181.55	41.46
181.933	64.13
182.316	90.53
182.698	9.3
183.081	-29.07
183.463	-93.55
183.846	11.41
184.228	-24.29
184.611	-16.23
184.993	-12.39
185.376	4.34
185.758	0.45
186.14	-2.65
186.522	9.38
186.904	2.81
187.287	14.4
187.669	20.22
188.051	18.56
188.433	23.52
188.815	20.18
189.197	20.93
189.579	16.12
189.961	12.9
190.342	8.44
190.724	17.08
191.106	14.39
191.488	15.44
191.869	10.54
192.251	14.36
192.633	16.93
193.014	22.78
193.396	26.31
193.777	28.77
194.159	31.21
194.54	23.44
194.922	27.33
195.303	30.94
195.684	25.92
196.065	19.41
196.447	14.04
196.828	14.49
197.209	8.37
197.59	6.44
197.971	10.15
198.352	15.05
198.733	16.59
199.114	18.33
199.495	18.18
199.876	13.63
200.257	15.63
200.638	13.34
201.018	14.98
201.399	6.89
201.78	6.64
202.16	6.84
202.541	7.48
202.922	10.88
203.302	7.51
203.683	10.35
204.063	12.52
204.444	13.5
204.824	12.92
205.204	17.21
205.585	17.83
205.965	17.04
206.345	15.84
206.725	10.51
207.106	9.35
207.486	7.87
207.866	11.12
208.246	8.97
208.626	10.53
209.006	8.83
209.386	10.33
209.766	5.55
210.145	5.56
210.525	7.86
210.905	6.16
211.285	7.86
211.664	1.85
212.044	3.59
212.424	9.46
212.803	10.57
213.183	12.59
213.562	14.73
213.942	6.45
214.321	6.97
214.701	5.31
215.08	9.1
215.459	10.72
215.838	9.83
216.218	10.85
216.597	11.41
216.976	7.71
217.355	10.31
217.734	16.91
218.113	17.06
218.492	17.67
218.871	20.25
219.25	20.95
219.629	22.84
220.008	24.07
220.387	19.89
220.766	20.88
221.144	22.48
221.523	24
221.902	31.83
222.28	30.3
222.659	33.97
223.037	34.66
223.416	34.53
223.794	34.9
224.173	34.2
224.551	31.48
224.929	27.72
225.308	25.45
225.686	22.11
226.064	21.37
226.442	19.68
226.821	17.54
227.199	15.02
227.577	12.77
227.955	12.22
228.333	12.21
228.711	11.13
229.089	10.88
229.467	9.55
229.845	8.82
230.222	8.31
230.6	7.91
230.978	7.03
231.356	5.9
231.733	5.44
232.111	5.21
232.488	4.58
232.866	4.82
233.243	4.3
233.621	4.82
233.998	4.43
234.376	4.8
234.753	4.72
235.13	5.39
235.508	6.54
235.885	6.45
236.262	6.5
236.639	6.97
237.016	7.15
237.393	6.65
237.77	6.21
238.147	5.96
238.524	6.31
238.901	6.52
239.278	6.52
239.655	6.44
240.032	6.29
240.409	6.54
240.785	6.59
241.162	6.67
241.539	6.53
241.915	6.44
242.292	6.35
242.668	6.33
243.045	6.3
243.421	6.12
243.798	6.1
244.174	6.13
244.551	6.03
244.927	5.85
245.303	5.98
245.679	6.06
246.056	6.03
246.432	5.97
246.808	5.91
247.184	5.94
247.56	5.95
247.936	5.98
248.312	5.95
248.688	5.94
249.064	5.93
249.44	5.95
249.815	6
250.191	5.98
250.567	5.94
250.943	5.93
251.318	5.96
251.694	5.88
252.069	5.75
252.445	5.86
252.82	5.86
253.196	5.82
253.571	5.78
253.947	5.93
254.322	5.88
254.697	5.94
255.073	5.96
255.448	5.97
255.823	5.95
256.198	5.84
256.573	5.74
256.948	5.68
257.323	5.71
257.698	5.64
258.073	5.63
258.448	5.66
258.823	5.62
259.198	5.61
259.573	5.63
259.948	5.68
260.322	5.59
260.697	5.61
261.072	5.58
261.446	5.56
261.821	5.53
262.195	5.47
262.57	5.44
262.944	5.37
263.319	5.35
263.693	5.33
264.067	5.35
264.442	5.39
264.816	5.39
265.19	5.32
265.564	5.37
265.938	5.35
266.313	5.28
266.687	5.19
267.061	5.18
267.435	5.14
267.809	5.11
268.183	5.1
268.556	5.05
268.93	5.07
269.304	5.05
269.678	4.98
270.051	5
270.425	4.99
270.799	5
271.172	4.98
271.546	5.01
271.919	5
272.293	4.95
272.666	4.92
273.04	4.96
273.413	4.89
273.787	4.88
274.16	4.89
274.533	4.97
274.906	4.95
275.279	5.03
275.653	5.02
276.026	4.99
276.399	4.99
276.772	5.04
277.145	5.07
277.518	5.1
277.891	5.12
278.263	5.14
278.636	5.18
279.009	5.24
279.382	5.18
279.755	5.14
280.127	5.2
280.5	5.23
280.872	5.15
281.245	5.21
281.617	5.2
281.99	5.22
282.362	5.19
282.735	5.2
283.107	5.16
283.479	5.18
283.852	5.2
284.224	5.23
284.596	5.17
284.968	5.19
285.34	5.2
285.713	5.28
286.085	5.26
286.457	5.24
286.829	5.18
287.201	5.19
287.572	5.25
287.944	5.28
288.316	5.29
288.688	5.38
289.06	5.38
289.431	5.4
289.803	5.41
290.175	5.45
290.546	5.47
290.918	5.49
291.289	5.51
291.661	5.53
292.032	5.52
292.403	5.58
292.775	5.62
293.146	5.65
293.517	5.63
293.889	5.7
294.26	5.72
294.631	5.79
295.002	5.83
295.373	5.87
295.744	5.86
296.115	5.9
296.486	5.87
296.857	5.88
297.228	5.89
297.599	5.91
297.97	5.89
298.34	5.95
298.711	6
299.082	5.98
299.452	6.01
299.823	6.07
300.194	6.11
300.564	6.09
300.935	6.11
301.305	6.11
301.676	6.08
302.046	6.09
302.416	6.1
302.787	6.11
303.157	6.11
303.527	6.18
303.897	6.17
304.267	6.23
304.637	6.24
305.008	6.32
305.378	6.33
305.748	6.39
306.117	6.37
306.487	6.34
306.857	6.37
307.227	6.39
307.597	6.37
307.967	6.39
308.336	6.4
308.706	6.43
309.076	6.44
309.445	6.47
309.815	6.47
310.184	6.49
310.554	6.5
310.923	6.47
311.293	6.46
311.662	6.46
312.031	6.45
312.401	6.47
312.77	6.46
313.139	6.47
313.508	6.43
313.877	6.46
314.246	6.47
314.616	6.48
314.985	6.46
315.353	6.46
315.722	6.42
316.091	6.41
316.46	6.43
316.829	6.49
317.198	6.56
317.567	6.6
317.935	6.61
318.304	6.62
318.672	6.67
319.041	6.68
319.41	6.72
319.778	6.77
320.147	6.79
320.515	6.78
320.883	6.79
321.252	6.83
321.62	6.76
321.988	6.79
322.357	6.79
322.725	6.81
323.093	6.83
323.461	6.83
323.829	6.87
324.197	6.86
324.565	6.8
324.933	6.73
325.301	6.73
325.669	6.72
326.037	6.74
326.405	6.73
326.772	6.73
327.14	6.72
327.508	6.67
327.875	6.68
328.243	6.68
328.61	6.65
328.978	6.65
329.346	6.69
329.713	6.68
330.08	6.7
330.448	6.72
330.815	6.71
331.182	6.7
331.55	6.69
331.917	6.69
332.284	6.69
332.651	6.74
333.018	6.71
333.385	6.72
333.752	6.72
334.119	6.73
334.486	6.74
334.853	6.72
335.22	6.74
335.587	6.73
335.954	6.74
336.32	6.76
336.687	6.75
337.054	6.73
337.42	6.75
337.787	6.76
338.153	6.76
338.52	6.78
338.886	6.81
339.253	6.81
339.619	6.8
339.986	6.83
340.352	6.82
340.718	6.87
341.084	6.86
341.451	6.84
341.817	6.83
342.183	6.86
342.549	6.88
342.915	6.87
343.281	6.89
343.647	6.91
344.013	6.91
344.379	6.93
344.745	6.96
345.11	6.97
345.476	6.97
345.842	6.97
346.208	6.97
346.573	6.97
346.939	6.98
347.304	6.99
347.67	6.97
348.035	6.97
348.401	6.95
348.766	6.96
349.132	6.99
349.497	7.01
349.862	6.97
350.228	7.01
350.593	7.03
350.958	7.02
351.323	7.02
351.688	7.03
352.053	7.05
352.418	7.03
352.783	7.03
353.148	7.02
353.513	7.03
353.878	7.05
354.243	7.05
354.608	7.07
354.972	7.09
355.337	7.11
355.702	7.09
356.066	7.11
356.431	7.12
356.795	7.12
357.16	7.1
357.524	7.12
357.889	7.11
358.253	7.13
358.618	7.14
358.982	7.15
359.346	7.16
359.71	7.15
360.075	7.16
360.439	7.15
360.803	7.15
361.167	7.15
361.531	7.15
361.895	7.17
362.259	7.16
362.623	7.16
362.987	7.19
363.351	7.2
363.714	7.21
364.078	7.22
364.442	7.21
364.806	7.23
365.169	7.24
365.533	7.24
365.896	7.24
366.26	7.28
366.623	7.28
366.987	7.29
367.35	7.31
367.714	7.34
368.077	7.35
368.44	7.37
368.803	7.39
369.167	7.42
369.53	7.43
369.893	7.44
370.256	7.45
370.619	7.44
370.982	7.46
371.345	7.45
371.708	7.48
372.071	7.52
372.434	7.53
372.797	7.54
373.159	7.57
373.522	7.58
373.885	7.58
374.247	7.59
374.61	7.61
374.973	7.61
375.335	7.6
375.698	7.62
376.06	7.64
376.423	7.66
376.785	7.65
377.147	7.64
377.51	7.66
377.872	7.67
378.234	7.67
378.596	7.67
378.958	7.71
379.321	7.7
379.683	7.72
380.045	7.73
380.407	7.74
380.769	7.74
381.13	7.75
381.492	7.75
381.854	7.76
382.216	7.77
382.578	7.78
382.939	7.82
383.301	7.82
383.663	7.83
384.024	7.84
384.386	7.84
384.747	7.87
385.109	7.87
385.47	7.87
385.832	7.9
386.193	7.92
386.554	7.91
386.916	7.93
387.277	7.92
387.638	7.95
387.999	7.94
388.36	7.95
388.721	7.97
389.082	7.98
389.443	7.98
389.804	7.98
390.165	7.99
390.526	8.01
390.887	8.01
391.248	8.02
391.609	8.05
391.969	8.06
392.33	8.08
392.691	8.08
393.051	8.1
393.412	8.1
393.772	8.11
394.133	8.11
394.493	8.11
394.854	8.13
395.214	8.14
395.574	8.15
395.935	8.16
396.295	8.18
396.655	8.17
397.015	8.19
397.376	8.21
397.736	8.22
398.096	8.21
398.456	8.21
398.816	8.21
399.176	8.21
399.535	8.22
399.895	8.23
400.255	8.25
400.615	8.23
400.975	8.24
401.334	8.23
401.694	8.25
402.054	8.25
402.413	8.26
402.773	8.25
403.132	8.26
403.492	8.27
403.851	8.26
404.211	8.27
404.57	8.26
404.929	8.27
405.288	8.27
405.648	8.28
406.007	8.29
406.366	8.3
406.725	8.3
407.084	8.3
407.443	8.3
407.802	8.29
408.161	8.31
408.52	8.32
408.879	8.34
409.238	8.35
409.596	8.35
409.955	8.35
410.314	8.35
410.673	8.36
411.031	8.37
411.39	8.38
411.748	8.39
412.107	8.4
412.465	8.4
412.824	8.42
413.182	8.42
413.54	8.43
413.899	8.43
414.257	8.44
414.615	8.45
414.974	8.45
415.332	8.46
415.69	8.47
416.048	8.48
416.406	8.5
416.764	8.51
417.122	8.53
417.48	8.55
417.838	8.57
418.195	8.58
418.553	8.59
418.911	8.61
419.269	8.62
419.626	8.64
419.984	8.65
420.342	8.66
420.699	8.67
421.057	8.68
421.414	8.69
421.772	8.7
422.129	8.71
422.486	8.72
422.844	8.73
423.201	8.74
423.558	8.74
423.915	8.73
424.273	8.73
424.63	8.73
424.987	8.73
425.344	8.72
425.701	8.72
426.058	8.72
426.415	8.71
426.772	8.7
427.128	8.69
427.485	8.69
427.842	8.68
428.199	8.67
428.555	8.68
428.912	8.68
429.269	8.68
429.625	8.67
429.982	8.67
430.338	8.67
430.695	8.68
431.051	8.68
431.407	8.69
431.764	8.7
432.12	8.7
432.476	8.71
432.832	8.72
433.189	8.72
433.545	8.72
433.901	8.73
434.257	8.73
434.613	8.74
434.969	8.75
435.325	8.75
435.681	8.77
436.036	8.77
436.392	8.79
436.748	8.8
437.104	8.81
437.459	8.81
437.815	8.82
438.171	8.84
438.526	8.85
438.882	8.86
439.237	8.87
439.593	8.88
439.948	8.89
440.304	8.9
440.659	8.9
441.014	8.92
441.369	8.93
441.725	8.94
442.08	8.95
442.435	8.96
442.79	8.97
443.145	8.98
443.5	8.99
443.855	9
444.21	9.01
444.565	9.01
444.92	9.01
445.275	9.02
445.629	9.02
445.984	9.03
446.339	9.03
446.693	9.03
447.048	9.02
447.403	9.02
447.757	9.02
448.112	9.02
448.466	9.02
448.82	9.03
449.175	9.02
449.529	9.01
449.883	9.01
450.238	9
450.592	9
450.946	8.99
451.3	8.98
451.654	8.97
452.008	8.97
452.362	8.97
452.716	8.96
453.07	8.96
453.424	8.95
453.778	8.95
454.132	8.94
454.486	8.95
454.839	8.96
455.193	8.96
455.547	8.97
455.9	8.98
456.254	8.98
456.607	9
456.961	9.01
457.314	9.03
457.668	9.04
458.021	9.04
458.375	9.05
458.728	9.05
459.081	9.06
459.434	9.07
459.787	9.07
460.141	9.07
460.494	9.08
460.847	9.08
461.2	9.08
461.553	9.09
461.906	9.09
462.259	9.1
462.611	9.11
462.964	9.11
463.317	9.11
463.67	9.11
464.022	9.11
464.375	9.11
464.728	9.1
465.08	9.1
465.433	9.11
465.785	9.11
466.138	9.11
466.49	9.11
466.843	9.12
467.195	9.12
467.547	9.13
467.899	9.13
468.252	9.15
468.604	9.16
468.956	9.16
469.308	9.17
469.66	9.16
470.012	9.17
470.364	9.17
470.716	9.17
471.068	9.18
471.42	9.18
471.772	9.18
472.123	9.19
472.475	9.18
472.827	9.18
473.178	9.19
473.53	9.2
473.882	9.21
474.233	9.22
474.585	9.24
474.936	9.24
475.288	9.25
475.639	9.24
475.99	9.26
476.342	9.27
476.693	9.27
477.044	9.27
477.395	9.28
477.746	9.29
478.097	9.3
478.448	9.37
478.8	9.53
479.15	9.78
479.501	10.1
479.852	10.44
480.203	10.81
480.554	11.19
480.905	11.57
481.255	11.96
481.606	12.33
481.957	12.71
482.307	13.06
482.658	13.38
483.009	13.66
483.359	13.88
483.709	14.09
484.06	14.29
484.41	14.48
484.761	14.65
485.111	14.83
485.461	15
485.811	15.15
486.162	15.22
486.512	15.2
486.862	15.12
487.212	14.99
487.562	14.81
487.912	14.61
488.262	14.38
488.612	14.13
488.961	13.85
489.311	13.54
489.661	13.24
490.011	12.93
490.36	12.62
490.71	12.3
491.06	11.96
491.409	11.63
491.759	11.37
492.108	11.16
492.458	10.96
492.807	10.78
493.157	10.61
493.506	10.44
493.855	10.3
494.204	10.14
494.554	10
494.903	9.87
495.252	9.74
495.601	9.63
495.95	9.53
496.299	9.44
496.648	9.36
496.997	9.29
497.346	9.26
497.695	9.27
498.043	9.34
498.392	9.44
498.741	9.56
499.09	9.63
499.438	9.65
499.787	9.66
500.135	9.68
500.484	9.69
500.832	9.69
501.181	9.69
501.529	9.7
501.878	9.71
502.226	9.71
502.574	9.73
502.923	9.74
503.271	9.74
503.619	9.75
503.967	9.76
504.315	9.78
504.663	9.79
505.011	9.79
505.359	9.81
505.707	9.82
506.055	9.84
506.403	9.86
506.751	9.87
507.098	9.88
507.446	9.89
507.794	9.9
508.141	9.91
508.489	9.92
508.837	9.93
509.184	9.95
509.531	9.96
509.879	9.97
510.226	9.98
510.574	9.99
510.921	10
511.268	10
511.616	10.01
511.963	10.02
512.31	10.03
512.657	10.03
513.004	10.05
513.351	10.04
513.698	10.05
514.045	10.06
514.392	10.07
514.739	10.08
515.086	10.1
515.432	10.11
515.779	10.12
516.126	10.13
516.473	10.14
516.819	10.15
517.166	10.16
517.512	10.16
517.859	10.16
518.205	10.18
518.552	10.18
518.898	10.19
519.245	10.2
519.591	10.21
519.937	10.21
520.283	10.22
520.629	10.23
520.976	10.24
521.322	10.25
521.668	10.25
522.014	10.25
522.36	10.27
522.706	10.27
523.052	10.31
523.398	10.41
523.743	10.57
524.089	10.77
524.435	10.98
524.781	11.22
525.126	11.46
525.472	11.7
525.817	11.93
526.163	12.14
526.509	12.33
526.854	12.49
527.199	12.6
527.545	12.69
527.89	12.74
528.235	12.78
528.581	12.83
528.926	12.87
529.271	12.91
529.616	12.94
529.961	12.97
530.306	12.98
530.651	12.94
530.996	12.84
531.341	12.71
531.686	12.54
532.031	12.34
532.376	12.1
532.721	11.83
533.065	11.57
533.41	11.34
533.755	11.12
534.099	10.94
534.444	10.82
534.788	10.72
535.133	10.65
535.477	10.59
535.822	10.53
536.166	10.48
536.51	10.44
536.855	10.41
537.199	10.39
537.543	10.38
537.887	10.39
538.231	10.42
538.576	10.44
538.92	10.49
539.264	10.54
539.608	10.61
539.951	10.69
540.295	10.75
540.639	10.76
540.983	10.78
541.327	10.76
541.671	10.75
542.014	10.76
542.358	10.77
542.701	10.77
543.045	10.77
543.389	10.77
543.732	10.77
544.075	10.77
544.419	10.76
544.762	10.74
545.105	10.71
545.449	10.67
545.792	10.63
546.135	10.58
546.478	10.54
546.821	10.51
547.165	10.5
547.508	10.51
547.851	10.53
548.194	10.57
548.536	10.62
548.879	10.62
549.222	10.62
549.565	10.62
549.908	10.61
550.25	10.61
550.593	10.61
550.936	10.6
551.278	10.6
551.621	10.6
551.963	10.59
552.306	10.6
552.648	10.59
552.991	10.59
553.333	10.59
553.675	10.59
554.017	10.58
554.36	10.57
554.702	10.57
555.044	10.57
555.386	10.58
555.728	10.58
556.07	10.59
556.412	10.58
556.754	10.58
557.096	10.59
557.438	10.58
557.78	10.58
558.121	10.59
558.463	10.59
558.805	10.59
559.147	10.61
559.488	10.62
559.83	10.64
560.171	10.66
560.513	10.66
560.854	10.67
561.196	10.68
561.537	10.69
561.878	10.7
562.22	10.71
562.561	10.72
562.902	10.73
563.243	10.74
563.584	10.76
563.925	10.78
564.266	10.78
564.607	10.78
564.948	10.79
565.289	10.8
565.63	10.81
565.971	10.83
566.312	10.83
566.653	10.83
566.993	10.83
567.334	10.81
567.675	10.83
568.015	10.84
568.356	10.84
568.696	10.85
569.037	10.86
569.377	10.87
569.718	10.88
570.058	10.89
570.398	10.89
570.739	10.89
571.079	10.89
571.419	10.89
571.759	10.9
572.099	10.91
572.439	10.92
572.779	10.93
573.119	10.92
573.459	10.92
573.799	10.94
574.139	10.95
574.479	10.96
574.819	10.96
575.158	10.96
575.498	10.97
575.838	10.98
576.177	10.97
576.517	10.97
576.856	10.96
577.196	10.96
577.535	10.96
577.875	10.98
578.214	10.98
578.553	10.99
578.893	10.98
579.232	10.98
579.571	10.97
579.91	10.97
580.25	10.98
580.589	10.97
580.928	10.97
581.267	10.97
581.606	10.97
581.945	10.98
582.283	10.98
582.622	10.99
582.961	11
583.3	11.01
583.639	11.02
583.977	11.04
584.316	11.06
584.654	11.07
584.993	11.07
585.332	11.08
585.67	11.09
586.008	11.11
586.347	11.14
586.685	11.15
587.024	11.16
587.362	11.17
587.7	11.19
588.038	11.19
588.376	11.19
588.715	11.21
589.053	11.22
589.391	11.23
589.729	11.22
590.067	11.22
590.404	11.23
590.742	11.24
591.08	11.26
591.418	11.26
591.756	11.26
592.093	11.26
592.431	11.27
592.769	11.27
593.106	11.27
593.444	11.27
593.781	11.26
594.119	11.27
594.456	11.28
594.793	11.28
595.131	11.3
595.468	11.31
595.805	11.3
596.143	11.31
596.48	11.32
596.817	11.33
597.154	11.34
597.491	11.34
597.828	11.34
598.165	11.33
598.502	11.34
598.839	11.35
599.176	11.35
599.512	11.34
599.849	11.34
600.186	11.36
600.523	11.35
600.859	11.37
601.196	11.38
601.532	11.39
601.869	11.4
602.205	11.39
602.542	11.4
602.878	11.43
603.215	11.43
603.551	11.44
603.887	11.45
604.223	11.46
604.56	11.47
604.896	11.48
605.232	11.48
605.568	11.49
605.904	11.49
606.24	11.51
606.576	11.53
606.912	11.55
607.248	11.56
607.583	11.57
607.919	11.57
608.255	11.57
608.591	11.57
608.926	11.58
609.262	11.58
609.597	11.59
609.933	11.59
610.268	11.59
610.604	11.6
610.939	11.59
611.275	11.59
611.61	11.59
611.945	11.6
612.281	11.61
612.616	11.63
612.951	11.63
613.286	11.64
613.621	11.65
613.956	11.66
614.291	11.67
614.626	11.66
614.961	11.68
615.296	11.69
615.631	11.71
615.966	11.72
616.3	11.74
616.635	11.75
616.97	11.75
617.304	11.74
617.639	11.76
617.973	11.77
618.308	11.78
618.642	11.79
618.977	11.78
619.311	11.77
619.646	11.77
619.98	11.77
620.314	11.77
620.648	11.78
620.983	11.78
621.317	11.77
621.651	11.81
621.985	11.81
622.319	11.81
622.653	11.8
622.987	11.82
623.321	11.82
623.655	11.83
623.988	11.85
624.322	11.86
624.656	11.87
624.99	11.87
625.323	11.89
625.657	11.89
625.99	11.91
626.324	11.95
626.657	11.96
626.991	11.98
627.324	11.99
627.658	11.99
627.991	11.99
628.324	11.99
628.657	11.98
628.991	12
629.324	12.03
629.657	12.04
629.99	12.02
630.323	12.03
630.656	12.03
630.989	12.04
631.322	12.05
631.655	12.04
631.987	12.04
632.32	12.05
632.653	12.07
632.986	12.07
633.318	12.06
633.651	12.05
633.984	12.05
634.316	12.06
634.649	12.06
634.981	12.07
635.313	12.09
635.646	12.1
635.978	12.1
636.31	12.09
636.643	12.11
636.975	12.13
637.307	12.13
637.639	12.13
637.971	12.14
638.303	12.15
638.635	12.16
638.967	12.19
639.299	12.18
639.631	12.2
639.963	12.21
640.295	12.24
640.626	12.28
640.958	12.3
641.29	12.3
641.621	12.31
641.953	12.33
642.285	12.35
642.616	12.36
642.948	12.37
643.279	12.38
643.61	12.38
643.942	12.38
644.273	12.38
644.604	12.39
644.936	12.4
645.267	12.41
645.598	12.41
645.929	12.42
646.26	12.44
646.591	12.43
646.922	12.43
647.253	12.43
647.584	12.43
647.915	12.45
648.245	12.46
648.576	12.47
648.907	12.46
649.238	12.45
649.568	12.43
649.899	12.43
650.229	12.45
650.56	12.47
650.89	12.49
651.221	12.52
651.551	12.53
651.882	12.54
652.212	12.53
652.542	12.54
652.872	12.52
653.203	12.53
653.533	12.56
653.863	12.53
654.193	12.52
654.523	12.52
654.853	12.5
655.183	12.52
655.513	12.56
655.843	12.59
656.172	12.61
656.502	12.64
656.832	12.66
657.162	12.69
657.491	12.69
657.821	12.7
658.15	12.7
658.48	12.71
658.809	12.71
659.139	12.74
659.468	12.77
659.798	12.81
660.127	12.83
660.456	12.85
660.785	12.88
661.115	12.9
661.444	12.91
661.773	12.95
662.102	12.95
662.431	12.95
662.76	12.95
663.089	12.94
663.418	12.97
663.747	12.97
664.076	12.95
664.404	12.97
664.733	12.98
665.062	12.99
665.39	13.03
665.719	13.02
666.048	13.03
666.376	13.04
666.705	13.01
667.033	13.02
667.362	13.02
667.69	13.06
668.018	13.07
668.347	13.07
668.675	13.05
669.003	13.06
669.331	13.06
669.659	13.06
669.987	13.08
670.315	13.06
670.643	13.07
670.971	13.09
671.299	13.1
671.627	13.09
671.955	13.09
672.283	13.06
672.61	13.07
672.938	13.06
673.266	13.08
673.593	13.11
673.921	13.12
674.249	13.12
674.576	13.13
674.904	13.14
675.231	13.16
675.558	13.21
675.886	13.25
676.213	13.28
676.54	13.3
676.867	13.33
677.195	13.35
677.522	13.39
677.849	13.4
678.176	13.4
678.503	13.44
678.83	13.46
679.157	13.48
679.484	13.49
679.81	13.49
680.137	13.49
680.464	13.49
680.791	13.48
681.117	13.49
681.444	13.5
681.771	13.49
682.097	13.51
682.424	13.49
682.75	13.44
683.077	13.44
683.403	13.44
683.729	13.43
684.056	13.45
684.382	13.44
684.708	13.45
685.034	13.47
685.36	13.44
685.686	13.46
686.012	13.51
686.339	13.53
686.664	13.53
686.99	13.55
687.316	13.57
687.642	13.62
687.968	13.62
688.294	13.59
688.619	13.61
688.945	13.61
689.271	13.64
689.596	13.68
689.922	13.69
690.247	13.7
690.573	13.75
690.898	13.77
691.224	13.81
691.549	13.8
691.874	13.81
692.2	13.86
692.525	13.87
692.85	13.85
693.175	13.85
693.5	13.9
693.825	13.88
694.15	13.9
694.475	13.89
694.8	13.94
695.125	13.98
695.45	13.96
695.775	13.98
696.099	14
696.424	14.02
696.749	14.05
697.073	14.05
697.398	14.05
697.723	14.06
698.047	14.06
698.372	14.07
698.696	14.09
699.02	14.08
699.345	14.07
699.669	14.06
699.993	14.07
700.318	14.07
700.642	14.09
700.966	14.08
701.29	14.09
701.614	14.06
701.938	14.09
702.262	14.13
702.586	14.13
702.91	14.1
703.234	14.09
703.557	14.07
703.881	14.09
704.205	14.08
704.529	14.1
704.852	14.09
705.176	14.15
705.499	14.13
705.823	14.18
706.146	14.19
706.47	14.22
706.793	14.24
707.117	14.25
707.44	14.27
707.763	14.29
708.086	14.3
708.409	14.3
708.733	14.29
709.056	14.31
709.379	14.3
709.702	14.36
710.025	14.39
710.348	14.4
710.671	14.41
710.993	14.41
711.316	14.38
711.639	14.39
711.962	14.37
712.284	14.4
712.607	14.42
712.93	14.45
713.252	14.45
713.575	14.45
713.897	14.49
714.22	14.47
714.542	14.49
714.864	14.48
715.187	14.53
715.509	14.55
715.831	14.58
716.153	14.62
716.475	14.63
716.798	14.6
717.12	14.59
717.442	14.59
717.764	14.61
718.085	14.72
718.407	14.7
718.729	14.66
719.051	14.67
719.373	14.7
719.695	14.68
720.016	14.69
720.338	14.77
720.659	14.73
720.981	14.8
721.302	14.8
721.624	14.84
721.945	14.84
722.267	14.83
722.588	14.84
722.909	14.85
723.231	14.85
723.552	14.87
723.873	14.91
724.194	14.92
724.515	14.94
724.836	14.88
725.157	14.94
725.478	14.97
725.799	15
726.12	14.96
726.441	14.98
726.762	14.97
727.083	14.91
727.403	14.95
727.724	14.91
728.045	14.92
728.365	14.94
728.686	14.99
729.006	15.05
729.327	15.01
729.647	15.03
729.967	15.05
730.288	15.09
730.608	15.15
730.928	15.19
731.249	15.22
731.569	15.19
731.889	15.21
732.209	15.25
732.529	15.24
732.849	15.24
733.169	15.27
733.489	15.3
733.809	15.29
734.129	15.3
734.448	15.34
734.768	15.34
735.088	15.35
735.408	15.33
735.727	15.31
736.047	15.34
736.366	15.33
736.686	15.31
737.005	15.35
737.325	15.28
737.644	15.3
737.963	15.29
738.283	15.3
738.602	15.31
738.921	15.34
739.24	15.33
739.56	15.35
739.879	15.37
740.198	15.46
740.517	15.54
740.836	15.54
741.155	15.54
741.473	15.62
741.792	15.64
742.111	15.67
742.43	15.73
742.748	15.73
743.067	15.75
743.386	15.76
743.704	15.76
744.023	15.84
744.341	15.87
744.66	15.9
744.978	15.94
745.297	15.97
745.615	15.91
745.933	15.88
746.252	15.87
746.57	15.87
746.888	15.8
747.206	15.8
747.524	15.8
747.842	15.86
748.16	15.79
748.478	15.76
748.796	15.72
749.114	15.69
749.432	15.7
749.749	15.71
750.067	15.76
750.385	15.78
750.703	15.8
751.02	15.78
751.338	15.77
751.655	15.76
751.973	15.76
752.29	15.78
752.608	15.91
752.925	15.98
753.242	16
753.56	15.95
753.877	15.92
754.194	15.94
754.511	15.86
754.828	15.87
755.145	15.92
755.462	16
755.779	16.01
756.096	16.08
756.413	16.12
756.73	16.12
757.047	16.06
757.364	16.09
757.68	16.12
757.997	16.17
758.314	16.15
758.63	16.17
758.947	16.24
759.264	16.23
759.58	16.22
759.896	16.17
760.213	16.25
760.529	16.23
760.846	16.22
761.162	16.34
761.478	16.39
761.794	16.36
762.11	16.33
762.426	16.36
762.743	16.33
763.059	16.31
763.375	16.32
763.69	16.38
764.006	16.41
764.322	16.45
764.638	16.4
764.954	16.46
765.27	16.47
765.585	16.46
765.901	16.47
766.216	16.45
766.532	16.48
766.848	16.51
767.163	16.57
767.478	16.56
767.794	16.5
768.109	16.46
768.424	16.49
768.74	16.54
769.055	16.54
769.37	16.58
769.685	16.62
770	16.61
770.315	16.58
770.63	16.49
770.945	16.41
771.26	16.47
771.575	16.43
771.89	16.37
772.205	16.36
772.52	16.31
772.834	16.34
773.149	16.36
773.464	16.41
773.778	16.43
774.093	16.57
774.407	16.63
774.722	16.76
775.036	16.71
775.351	16.67
775.665	16.71
775.979	16.65
776.293	16.62
776.608	16.57
776.922	16.64
777.236	16.7
777.55	16.78
777.864	16.84
778.178	16.88
778.492	16.97
778.806	17
779.12	17.14
779.434	17.24
779.747	17.21
780.061	17.21
780.375	17.22
780.689	17.11
781.002	17.04
781.316	17.04
781.629	17.13
781.943	17.28
782.256	17.3
782.57	17.34
782.883	17.33
783.196	17.48
783.51	17.46
783.823	17.45
784.136	17.44
784.449	17.46
784.762	17.57
785.075	17.57
785.388	17.6
785.701	17.54
786.014	17.5
786.327	17.53
786.64	17.49
786.953	17.53
787.266	17.71
787.578	17.85
787.891	17.85
788.204	17.86
788.516	17.85
788.829	17.84
789.141	17.86
789.454	17.92
789.766	17.91
790.079	17.93
790.391	18
790.703	18.13
791.016	18.1
791.328	18.06
791.64	18.15
791.952	18.14
792.264	18.28
792.576	18.27
792.888	18.31
793.2	18.35
793.512	18.3
793.824	18.16
794.136	18.2
794.448	18.15
794.76	18.11
795.071	18.1
795.383	18.17
795.695	18.28
796.006	18.33
796.318	18.31
796.629	18.3
796.941	18.31
797.252	18.26
797.564	18.3
797.875	18.26
798.186	18.26
798.497	18.3
798.809	18.23
799.12	18.29
799.431	18.37
799.742	18.42
800.053	18.42
800.364	18.56
800.675	18.52
800.986	18.62
801.297	18.69
801.608	18.72
801.918	18.74
802.229	18.72
802.54	18.65
802.851	18.71
803.161	18.74
803.472	18.72
803.782	18.68
804.093	18.8
804.403	18.85
804.714	18.85
805.024	18.9
805.334	18.93
805.645	18.96
805.955	18.99
806.265	18.92
806.575	19.1
806.885	19.11
807.195	19.06
807.505	18.99
807.815	18.98
808.125	18.96
808.435	19.01
808.745	19.05
809.055	19.13
809.365	19.35
809.674	19.57
809.984	19.68
810.294	19.79
810.603	19.67
810.913	19.74
811.222	19.69
811.532	19.88
811.841	20.01
812.151	20.08
812.46	20.13
812.769	20.3
813.079	20.26
813.388	20.18
813.697	20.28
814.006	20.36
814.315	20.46
814.624	20.53
814.933	20.54
815.242	20.47
815.551	20.58
815.86	20.47
816.169	20.39
816.478	20.46
816.786	20.25
817.095	20.31
817.404	20.34
817.712	20.42
818.021	20.24
818.33	20.08
818.638	20.03
818.947	19.96
819.255	19.9
819.563	20.01
819.872	20.03
820.18	20.06
820.488	20.09
820.796	20
821.105	20
821.413	19.97
821.721	19.96
822.029	19.93
822.337	19.9
822.645	19.92
822.953	19.91
823.26	19.94
823.568	19.93
823.876	19.93
824.184	19.9
824.491	19.9
824.799	19.93
825.107	19.96
825.414	19.99
825.722	19.94
826.029	19.95
826.337	20
826.644	20.01
826.951	20.01
827.259	20.05
827.566	20.08
827.873	20.11
828.18	20.11
828.488	20.18
828.795	20.28
829.102	20.25
829.409	20.3
829.716	20.34
830.023	20.37
830.329	20.41
830.636	20.51
830.943	20.59
831.25	20.63
831.557	20.62
831.863	20.62
832.17	20.8
832.476	20.83
832.783	20.8
833.089	20.79
833.396	20.81
833.702	20.92
834.009	20.91
834.315	20.94
834.621	20.99
834.928	20.89
835.234	20.86
835.54	20.96
835.846	20.89
836.152	20.89
836.458	20.96
836.764	20.96
837.07	21.07
837.376	20.99
837.682	20.99
837.988	21.14
838.293	21.25
838.599	21.29
838.905	21.22
839.211	21.33
839.516	21.53
839.822	21.64
840.127	21.5
840.433	21.56
840.738	21.56
841.044	21.71
841.349	21.87
841.654	21.82
841.959	21.81
842.265	21.87
842.57	21.74
842.875	21.7
843.18	21.85
843.485	21.86
843.79	21.87
844.095	21.98
844.4	21.69
844.705	21.92
845.01	21.85
845.315	21.83
845.619	21.88
845.924	21.67
846.229	21.57
846.533	21.81
846.838	21.61
847.142	21.68
847.447	21.68
847.751	21.76
848.056	21.83
848.36	21.45
848.664	21.42
848.969	21.62
849.273	21.81
849.577	21.65
849.881	21.53
850.185	21.62
850.489	21.57
850.794	21.36
851.097	20.86
851.401	20.96
851.705	20.97
852.009	20.78
852.313	20.58
852.617	20.84
852.92	20.87
853.224	21.03
853.528	21.51
853.831	21.72
854.135	21.81
854.438	21.59
854.742	22.06
855.045	22.04
855.349	22.19
855.652	22.58
855.955	22.68
856.259	22.78
856.562	23.24
856.865	22.88
857.168	22.83
857.471	22.98
857.774	23.11
858.077	22.83
858.38	22.85
858.683	23.24
858.986	23.1
859.289	23.29
859.592	23.65
859.894	23.26
860.197	23.19
860.5	23.01
860.802	23.7
861.105	23.66
861.407	23.99
861.71	24.09
862.012	23.77
862.315	23.97
862.617	23.9
862.919	23.75
863.222	24.2
863.524	24.8
863.826	24.95
864.128	24.93
864.43	25.71
864.732	25.56
865.034	25.35
865.336	25.31
865.638	25.18
865.94	25.34
866.242	24.85
866.544	25.15
866.846	25.16
867.147	24.54
867.449	24.46
867.751	24.27
868.052	24.06
868.354	24.26
868.655	24.09
868.957	24.38
869.258	24.32
869.56	24.16
869.861	24.28
870.162	24.21
870.463	24.49
870.765	24.13
871.066	24.32
871.367	24.29
871.668	24.35
871.969	24.73
872.27	24.56
872.571	25.24
872.872	24.84
873.173	24.92
873.473	25.29
873.774	25.52
874.075	25.89
874.376	26.37
874.676	26.23
874.977	26.53
875.277	26.47
875.578	26.4
875.878	26.67
876.179	26.5
876.479	26.73
876.78	26.54
877.08	26.76
877.38	26.89
877.68	27.33
877.981	27.5
878.281	27.22
878.581	27.16
