Data from UWBM79812_Reflection_00002.txt Node
Date: Sun May 02 13:56:55 EDT 2021
User: vgr7
Spectrometer: USB2G7710
Scans to average: 10
Trigger mode: 4
Integration Time (sec): 1.000000E-1
Electric dark correction enabled: true
Boxcar width: 20
XAxis mode: Wavelengths
Number of Pixels in Spectrum: 2048
>>>>>Begin Spectral Data<<<<<
177.721	28.81
178.105	27.75
178.488	76.96
178.871	78.4
179.254	55.21
179.636	44.51
180.019	36.24
180.402	20.07
180.785	21.76
181.168	13.38
181.55	9.27
181.933	10.15
182.316	5.88
182.698	5.71
183.081	4.06
183.463	1.29
183.846	-0.1
184.228	3.14
184.611	4.46
184.993	1.42
185.376	1.77
185.758	5.32
186.14	6.92
186.522	6.23
186.904	8.62
187.287	8.7
187.669	9.58
188.051	8
188.433	7.84
188.815	6.08
189.197	4.37
189.579	4.06
189.961	3.34
190.342	3.32
190.724	3.56
191.106	3.8
191.488	2.2
191.869	1.81
192.251	0.01
192.633	-0.81
193.014	1.59
193.396	-0.09
193.777	1.3
194.159	1.81
194.54	1.7
194.922	2.18
195.303	1.19
195.684	0.64
196.065	0.4
196.447	0.86
196.828	2.05
197.209	1.66
197.59	0.08
197.971	0.17
198.352	0.96
198.733	1.5
199.114	2.56
199.495	3.59
199.876	2.4
200.257	1.57
200.638	1.13
201.018	3.05
201.399	3.77
201.78	2.27
202.16	1.91
202.541	1.75
202.922	1.88
203.302	1.23
203.683	1.71
204.063	3.09
204.444	2.9
204.824	3.91
205.204	3.9
205.585	4.89
205.965	6.93
206.345	6.36
206.725	5.71
207.106	6.64
207.486	5.91
207.866	7.25
208.246	7.9
208.626	5.52
209.006	4.96
209.386	3.95
209.766	2.41
210.145	2.4
210.525	1.66
210.905	3.4
211.285	2.6
211.664	4.04
212.044	3.16
212.424	2.33
212.803	3.13
213.183	3.5
213.562	4.43
213.942	5.12
214.321	4.38
214.701	3.01
215.08	3.93
215.459	4.35
215.838	4.02
216.218	4.84
216.597	2.77
216.976	3.66
217.355	4.32
217.734	4.79
218.113	4.74
218.492	3.79
218.871	2.81
219.25	3.09
219.629	2.21
220.008	2.06
220.387	1.06
220.766	1.73
221.144	2.11
221.523	2.03
221.902	1.72
222.28	1.56
222.659	2.07
223.037	2.62
223.416	2.53
223.794	2.83
224.173	3.64
224.551	3.37
224.929	4.39
225.308	4.59
225.686	4.68
226.064	4.76
226.442	3.99
226.821	4.91
227.199	4.9
227.577	4.97
227.955	5.89
228.333	5.67
228.711	5.6
229.089	4.85
229.467	4.39
229.845	4.64
230.222	5.24
230.6	4.87
230.978	5.01
231.356	5.08
231.733	5.02
232.111	4.88
232.488	4.43
232.866	4
233.243	3.96
233.621	3.99
233.998	4.25
234.376	4.6
234.753	4.32
235.13	4.46
235.508	4.57
235.885	4.51
236.262	4.5
236.639	4.42
237.016	4.32
237.393	4.42
237.77	4.49
238.147	4.42
238.524	4.36
238.901	4.29
239.278	4.3
239.655	4.23
240.032	4.24
240.409	4.18
240.785	4.25
241.162	4.28
241.539	4.28
241.915	4.36
242.292	4.33
242.668	4.33
243.045	4.34
243.421	4.27
243.798	4.27
244.174	4.28
244.551	4.31
244.927	4.32
245.303	4.32
245.679	4.3
246.056	4.28
246.432	4.27
246.808	4.24
247.184	4.25
247.56	4.3
247.936	4.28
248.312	4.28
248.688	4.24
249.064	4.23
249.44	4.22
249.815	4.16
250.191	4.15
250.567	4.16
250.943	4.11
251.318	4.1
251.694	4.11
252.069	4.09
252.445	4.08
252.82	4.07
253.196	4.06
253.571	4.04
253.947	4.03
254.322	4.02
254.697	4.02
255.073	4.01
255.448	4.01
255.823	3.98
256.198	3.95
256.573	3.91
256.948	3.9
257.323	3.87
257.698	3.83
258.073	3.81
258.448	3.81
258.823	3.79
259.198	3.8
259.573	3.78
259.948	3.78
260.322	3.77
260.697	3.74
261.072	3.72
261.446	3.71
261.821	3.69
262.195	3.7
262.57	3.69
262.944	3.68
263.319	3.71
263.693	3.72
264.067	3.72
264.442	3.72
264.816	3.69
265.19	3.72
265.564	3.73
265.938	3.73
266.313	3.75
266.687	3.75
267.061	3.74
267.435	3.75
267.809	3.74
268.183	3.73
268.556	3.72
268.93	3.72
269.304	3.73
269.678	3.74
270.051	3.71
270.425	3.72
270.799	3.71
271.172	3.74
271.546	3.74
271.919	3.74
272.293	3.74
272.666	3.73
273.04	3.74
273.413	3.75
273.787	3.74
274.16	3.74
274.533	3.73
274.906	3.74
275.279	3.74
275.653	3.74
276.026	3.75
276.399	3.76
276.772	3.77
277.145	3.76
277.518	3.78
277.891	3.79
278.263	3.76
278.636	3.76
279.009	3.76
279.382	3.77
279.755	3.77
280.127	3.8
280.5	3.81
280.872	3.82
281.245	3.81
281.617	3.82
281.99	3.82
282.362	3.81
282.735	3.81
283.107	3.8
283.479	3.79
283.852	3.81
284.224	3.8
284.596	3.8
284.968	3.79
285.34	3.8
285.713	3.8
286.085	3.81
286.457	3.81
286.829	3.8
287.201	3.8
287.572	3.81
287.944	3.8
288.316	3.81
288.688	3.81
289.06	3.81
289.431	3.81
289.803	3.82
290.175	3.82
290.546	3.83
290.918	3.85
291.289	3.85
291.661	3.85
292.032	3.84
292.403	3.84
292.775	3.83
293.146	3.84
293.517	3.86
293.889	3.85
294.26	3.86
294.631	3.88
295.002	3.89
295.373	3.88
295.744	3.88
296.115	3.87
296.486	3.89
296.857	3.89
297.228	3.9
297.599	3.9
297.97	3.9
298.34	3.91
298.711	3.94
299.082	3.93
299.452	3.94
299.823	3.95
300.194	3.96
300.564	3.96
300.935	3.97
301.305	3.97
301.676	3.97
302.046	3.98
302.416	3.99
302.787	3.97
303.157	3.98
303.527	3.97
303.897	3.96
304.267	3.98
304.637	3.97
305.008	3.97
305.378	3.97
305.748	3.96
306.117	3.94
306.487	3.95
306.857	3.96
307.227	3.97
307.597	3.96
307.967	3.97
308.336	3.96
308.706	3.96
309.076	3.95
309.445	3.96
309.815	3.94
310.184	3.93
310.554	3.92
310.923	3.92
311.293	3.92
311.662	3.91
312.031	3.89
312.401	3.89
312.77	3.89
313.139	3.9
313.508	3.9
313.877	3.9
314.246	3.9
314.616	3.91
314.985	3.9
315.353	3.91
315.722	3.88
316.091	3.88
316.46	3.87
316.829	3.87
317.198	3.87
317.567	3.87
317.935	3.89
318.304	3.89
318.672	3.87
319.041	3.88
319.41	3.87
319.778	3.88
320.147	3.87
320.515	3.86
320.883	3.84
321.252	3.85
321.62	3.85
321.988	3.85
322.357	3.85
322.725	3.88
323.093	3.87
323.461	3.87
323.829	3.88
324.197	3.88
324.565	3.88
324.933	3.89
325.301	3.88
325.669	3.89
326.037	3.89
326.405	3.89
326.772	3.89
327.14	3.89
327.508	3.88
327.875	3.88
328.243	3.87
328.61	3.87
328.978	3.85
329.346	3.85
329.713	3.85
330.08	3.86
330.448	3.85
330.815	3.85
331.182	3.84
331.55	3.83
331.917	3.83
332.284	3.82
332.651	3.82
333.018	3.82
333.385	3.83
333.752	3.85
334.119	3.85
334.486	3.85
334.853	3.86
335.22	3.86
335.587	3.87
335.954	3.88
336.32	3.87
336.687	3.86
337.054	3.86
337.42	3.87
337.787	3.87
338.153	3.87
338.52	3.86
338.886	3.85
339.253	3.85
339.619	3.86
339.986	3.87
340.352	3.88
340.718	3.87
341.084	3.86
341.451	3.85
341.817	3.85
342.183	3.86
342.549	3.87
342.915	3.87
343.281	3.87
343.647	3.87
344.013	3.88
344.379	3.87
344.745	3.87
345.11	3.87
345.476	3.87
345.842	3.88
346.208	3.89
346.573	3.89
346.939	3.88
347.304	3.9
347.67	3.89
348.035	3.89
348.401	3.88
348.766	3.89
349.132	3.88
349.497	3.89
349.862	3.89
350.228	3.89
350.593	3.89
350.958	3.89
351.323	3.9
351.688	3.91
352.053	3.91
352.418	3.91
352.783	3.91
353.148	3.91
353.513	3.92
353.878	3.92
354.243	3.92
354.608	3.91
354.972	3.91
355.337	3.92
355.702	3.92
356.066	3.92
356.431	3.92
356.795	3.92
357.16	3.92
357.524	3.92
357.889	3.92
358.253	3.92
358.618	3.91
358.982	3.91
359.346	3.92
359.71	3.92
360.075	3.92
360.439	3.92
360.803	3.92
361.167	3.92
361.531	3.93
361.895	3.93
362.259	3.92
362.623	3.92
362.987	3.92
363.351	3.92
363.714	3.92
364.078	3.92
364.442	3.92
364.806	3.92
365.169	3.91
365.533	3.91
365.896	3.91
366.26	3.91
366.623	3.91
366.987	3.9
367.35	3.9
367.714	3.9
368.077	3.9
368.44	3.9
368.803	3.9
369.167	3.9
369.53	3.9
369.893	3.9
370.256	3.9
370.619	3.9
370.982	3.92
371.345	3.92
371.708	3.92
372.071	3.93
372.434	3.93
372.797	3.94
373.159	3.95
373.522	3.96
373.885	3.96
374.247	3.97
374.61	3.96
374.973	3.96
375.335	3.96
375.698	3.96
376.06	3.96
376.423	3.96
376.785	3.96
377.147	3.96
377.51	3.97
377.872	3.97
378.234	3.97
378.596	3.97
378.958	3.97
379.321	3.96
379.683	3.98
380.045	3.98
380.407	3.98
380.769	3.98
381.13	3.99
381.492	3.99
381.854	4
382.216	4
382.578	3.99
382.939	4
383.301	4
383.663	3.99
384.024	3.99
384.386	3.99
384.747	3.99
385.109	4
385.47	4
385.832	3.99
386.193	3.99
386.554	4
386.916	3.99
387.277	3.99
387.638	3.99
387.999	3.99
388.36	3.99
388.721	3.99
389.082	3.99
389.443	4
389.804	4
390.165	4
390.526	4.01
390.887	4
391.248	4
391.609	4
391.969	4.01
392.33	4.01
392.691	4.01
393.051	4.02
393.412	4.02
393.772	4.02
394.133	4.02
394.493	4.02
394.854	4.02
395.214	4.02
395.574	4.02
395.935	4.03
396.295	4.03
396.655	4.02
397.015	4.02
397.376	4.03
397.736	4.03
398.096	4.03
398.456	4.04
398.816	4.04
399.176	4.04
399.535	4.04
399.895	4.05
400.255	4.05
400.615	4.05
400.975	4.05
401.334	4.05
401.694	4.06
402.054	4.07
402.413	4.07
402.773	4.07
403.132	4.08
403.492	4.08
403.851	4.08
404.211	4.08
404.57	4.09
404.929	4.09
405.288	4.09
405.648	4.1
406.007	4.1
406.366	4.1
406.725	4.11
407.084	4.11
407.443	4.11
407.802	4.12
408.161	4.12
408.52	4.13
408.879	4.13
409.238	4.14
409.596	4.14
409.955	4.15
410.314	4.15
410.673	4.15
411.031	4.16
411.39	4.17
411.748	4.18
412.107	4.19
412.465	4.21
412.824	4.24
413.182	4.26
413.54	4.29
413.899	4.33
414.257	4.37
414.615	4.41
414.974	4.44
415.332	4.49
415.69	4.53
416.048	4.56
416.406	4.61
416.764	4.65
417.122	4.68
417.48	4.72
417.838	4.75
418.195	4.78
418.553	4.81
418.911	4.83
419.269	4.84
419.626	4.84
419.984	4.83
420.342	4.82
420.699	4.81
421.057	4.8
421.414	4.78
421.772	4.77
422.129	4.76
422.486	4.76
422.844	4.76
423.201	4.76
423.558	4.76
423.915	4.76
424.273	4.76
424.63	4.77
424.987	4.77
425.344	4.77
425.701	4.78
426.058	4.78
426.415	4.79
426.772	4.79
427.128	4.78
427.485	4.77
427.842	4.76
428.199	4.75
428.555	4.74
428.912	4.72
429.269	4.69
429.625	4.67
429.982	4.64
430.338	4.62
430.695	4.59
431.051	4.56
431.407	4.53
431.764	4.52
432.12	4.49
432.476	4.48
432.832	4.48
433.189	4.48
433.545	4.48
433.901	4.5
434.257	4.52
434.613	4.55
434.969	4.58
435.325	4.61
435.681	4.65
436.036	4.68
436.392	4.7
436.748	4.72
437.104	4.73
437.459	4.75
437.815	4.77
438.171	4.8
438.526	4.83
438.882	4.86
439.237	4.9
439.593	4.94
439.948	4.98
440.304	5.02
440.659	5.05
441.014	5.07
441.369	5.11
441.725	5.13
442.08	5.15
442.435	5.16
442.79	5.17
443.145	5.18
443.5	5.18
443.855	5.19
444.21	5.18
444.565	5.18
444.92	5.18
445.275	5.17
445.629	5.17
445.984	5.16
446.339	5.15
446.693	5.14
447.048	5.12
447.403	5.1
447.757	5.08
448.112	5.06
448.466	5.04
448.82	5.01
449.175	4.99
449.529	4.97
449.883	4.95
450.238	4.93
450.592	4.93
450.946	4.92
451.3	4.92
451.654	4.93
452.008	4.93
452.362	4.94
452.716	4.95
453.07	4.95
453.424	4.94
453.778	4.94
454.132	4.93
454.486	4.92
454.839	4.9
455.193	4.88
455.547	4.87
455.9	4.84
456.254	4.82
456.607	4.79
456.961	4.76
457.314	4.74
457.668	4.73
458.021	4.72
458.375	4.71
458.728	4.71
459.081	4.72
459.434	4.72
459.787	4.73
460.141	4.74
460.494	4.75
460.847	4.76
461.2	4.77
461.553	4.77
461.906	4.78
462.259	4.78
462.611	4.78
462.964	4.79
463.317	4.79
463.67	4.8
464.022	4.81
464.375	4.81
464.728	4.82
465.08	4.82
465.433	4.82
465.785	4.82
466.138	4.8
466.49	4.78
466.843	4.76
467.195	4.73
467.547	4.71
467.899	4.68
468.252	4.64
468.604	4.61
468.956	4.59
469.308	4.57
469.66	4.57
470.012	4.56
470.364	4.56
470.716	4.56
471.068	4.58
471.42	4.6
471.772	4.63
472.123	4.64
472.475	4.65
472.827	4.66
473.178	4.67
473.53	4.68
473.882	4.7
474.233	4.72
474.585	4.76
474.936	4.84
475.288	4.94
475.639	5.07
475.99	5.22
476.342	5.39
476.693	5.58
477.044	5.77
477.395	5.97
477.746	6.17
478.097	6.37
478.448	6.58
478.8	6.78
479.15	6.96
479.501	7.13
479.852	7.29
480.203	7.44
480.554	7.59
480.905	7.73
481.255	7.86
481.606	7.99
481.957	8.11
482.307	8.22
482.658	8.32
483.009	8.43
483.359	8.53
483.709	8.63
484.06	8.72
484.41	8.81
484.761	8.9
485.111	8.99
485.461	9.07
485.811	9.14
486.162	9.21
486.512	9.27
486.862	9.33
487.212	9.36
487.562	9.38
487.912	9.4
488.262	9.41
488.612	9.4
488.961	9.38
489.311	9.34
489.661	9.26
490.011	9.16
490.36	9.04
490.71	8.9
491.06	8.74
491.409	8.58
491.759	8.41
492.108	8.23
492.458	8.04
492.807	7.84
493.157	7.65
493.506	7.47
493.855	7.3
494.204	7.14
494.554	6.97
494.903	6.82
495.252	6.68
495.601	6.54
495.95	6.41
496.299	6.29
496.648	6.17
496.997	6.06
497.346	5.95
497.695	5.85
498.043	5.74
498.392	5.65
498.741	5.55
499.09	5.46
499.438	5.37
499.787	5.28
500.135	5.2
500.484	5.13
500.832	5.07
501.181	5.02
501.529	4.99
501.878	4.97
502.226	4.95
502.574	4.94
502.923	4.93
503.271	4.93
503.619	4.92
503.967	4.92
504.315	4.91
504.663	4.9
505.011	4.89
505.359	4.89
505.707	4.88
506.055	4.88
506.403	4.87
506.751	4.87
507.098	4.87
507.446	4.87
507.794	4.88
508.141	4.89
508.489	4.9
508.837	4.92
509.184	4.93
509.531	4.94
509.879	4.95
510.226	4.97
510.574	4.98
510.921	5
511.268	5.02
511.616	5.04
511.963	5.06
512.31	5.09
512.657	5.11
513.004	5.13
513.351	5.15
513.698	5.16
514.045	5.17
514.392	5.18
514.739	5.18
515.086	5.17
515.432	5.17
515.779	5.16
516.126	5.16
516.473	5.16
516.819	5.16
517.166	5.17
517.512	5.18
517.859	5.19
518.205	5.21
518.552	5.24
518.898	5.27
519.245	5.32
519.591	5.38
519.937	5.46
520.283	5.56
520.629	5.68
520.976	5.8
521.322	5.93
521.668	6.07
522.014	6.21
522.36	6.35
522.706	6.48
523.052	6.61
523.398	6.73
523.743	6.83
524.089	6.93
524.435	7
524.781	7.08
525.126	7.14
525.472	7.21
525.817	7.27
526.163	7.32
526.509	7.37
526.854	7.43
527.199	7.48
527.545	7.53
527.89	7.58
528.235	7.64
528.581	7.69
528.926	7.74
529.271	7.78
529.616	7.82
529.961	7.86
530.306	7.9
530.651	7.93
530.996	7.95
531.341	7.96
531.686	7.97
532.031	7.97
532.376	7.97
532.721	7.98
533.065	7.98
533.41	7.99
533.755	7.98
534.099	7.97
534.444	7.94
534.788	7.9
535.133	7.86
535.477	7.8
535.822	7.75
536.166	7.68
536.51	7.6
536.855	7.52
537.199	7.43
537.543	7.34
537.887	7.26
538.231	7.19
538.576	7.13
538.92	7.07
539.264	7
539.608	6.93
539.951	6.86
540.295	6.79
540.639	6.72
540.983	6.65
541.327	6.57
541.671	6.5
542.014	6.42
542.358	6.36
542.701	6.3
543.045	6.27
543.389	6.24
543.732	6.21
544.075	6.19
544.419	6.17
544.762	6.15
545.105	6.13
545.449	6.12
545.792	6.11
546.135	6.1
546.478	6.08
546.821	6.06
547.165	6.02
547.508	5.98
547.851	5.92
548.194	5.86
548.536	5.79
548.879	5.72
549.222	5.63
549.565	5.55
549.908	5.47
550.25	5.39
550.593	5.33
550.936	5.27
551.278	5.23
551.621	5.19
551.963	5.16
552.306	5.13
552.648	5.11
552.991	5.09
553.333	5.07
553.675	5.06
554.017	5.06
554.36	5.05
554.702	5.06
555.044	5.06
555.386	5.08
555.728	5.1
556.07	5.12
556.412	5.14
556.754	5.15
557.096	5.15
557.438	5.15
557.78	5.15
558.121	5.15
558.463	5.16
558.805	5.16
559.147	5.16
559.488	5.16
559.83	5.17
560.171	5.17
560.513	5.17
560.854	5.17
561.196	5.17
561.537	5.17
561.878	5.17
562.22	5.17
562.561	5.17
562.902	5.17
563.243	5.17
563.584	5.17
563.925	5.18
564.266	5.18
564.607	5.18
564.948	5.19
565.289	5.19
565.63	5.19
565.971	5.2
566.312	5.2
566.653	5.21
566.993	5.21
567.334	5.21
567.675	5.22
568.015	5.22
568.356	5.22
568.696	5.22
569.037	5.23
569.377	5.23
569.718	5.23
570.058	5.23
570.398	5.23
570.739	5.23
571.079	5.23
571.419	5.23
571.759	5.23
572.099	5.24
572.439	5.24
572.779	5.23
573.119	5.23
573.459	5.23
573.799	5.23
574.139	5.23
574.479	5.23
574.819	5.23
575.158	5.23
575.498	5.23
575.838	5.23
576.177	5.23
576.517	5.24
576.856	5.23
577.196	5.24
577.535	5.24
577.875	5.24
578.214	5.24
578.553	5.24
578.893	5.23
579.232	5.24
579.571	5.23
579.91	5.23
580.25	5.23
580.589	5.22
580.928	5.22
581.267	5.21
581.606	5.21
581.945	5.21
582.283	5.21
582.622	5.21
582.961	5.2
583.3	5.21
583.639	5.21
583.977	5.2
584.316	5.21
584.654	5.21
584.993	5.21
585.332	5.21
585.67	5.21
586.008	5.21
586.347	5.21
586.685	5.22
587.024	5.22
587.362	5.22
587.7	5.22
588.038	5.23
588.376	5.23
588.715	5.23
589.053	5.23
589.391	5.23
589.729	5.24
590.067	5.24
590.404	5.24
590.742	5.25
591.08	5.25
591.418	5.26
591.756	5.27
592.093	5.27
592.431	5.27
592.769	5.28
593.106	5.28
593.444	5.29
593.781	5.29
594.119	5.29
594.456	5.3
594.793	5.3
595.131	5.31
595.468	5.31
595.805	5.31
596.143	5.3
596.48	5.3
596.817	5.31
597.154	5.31
597.491	5.31
597.828	5.32
598.165	5.32
598.502	5.33
598.839	5.33
599.176	5.34
599.512	5.33
599.849	5.33
600.186	5.34
600.523	5.34
600.859	5.34
601.196	5.34
601.532	5.35
601.869	5.35
602.205	5.35
602.542	5.35
602.878	5.35
603.215	5.36
603.551	5.36
603.887	5.37
604.223	5.37
604.56	5.37
604.896	5.37
605.232	5.37
605.568	5.37
605.904	5.37
606.24	5.37
606.576	5.36
606.912	5.36
607.248	5.36
607.583	5.35
607.919	5.36
608.255	5.36
608.591	5.36
608.926	5.36
609.262	5.37
609.597	5.37
609.933	5.37
610.268	5.38
610.604	5.38
610.939	5.38
611.275	5.38
611.61	5.38
611.945	5.38
612.281	5.38
612.616	5.38
612.951	5.37
613.286	5.37
613.621	5.38
613.956	5.38
614.291	5.38
614.626	5.38
614.961	5.38
615.296	5.39
615.631	5.38
615.966	5.39
616.3	5.39
616.635	5.39
616.97	5.39
617.304	5.38
617.639	5.38
617.973	5.38
618.308	5.38
618.642	5.37
618.977	5.38
619.311	5.37
619.646	5.38
619.98	5.38
620.314	5.38
620.648	5.38
620.983	5.4
621.317	5.4
621.651	5.4
621.985	5.41
622.319	5.42
622.653	5.42
622.987	5.42
623.321	5.42
623.655	5.43
623.988	5.43
624.322	5.43
624.656	5.44
624.99	5.44
625.323	5.44
625.657	5.44
625.99	5.44
626.324	5.45
626.657	5.45
626.991	5.46
627.324	5.46
627.658	5.46
627.991	5.46
628.324	5.45
628.657	5.46
628.991	5.46
629.324	5.47
629.657	5.47
629.99	5.47
630.323	5.47
630.656	5.47
630.989	5.48
631.322	5.48
631.655	5.48
631.987	5.49
632.32	5.49
632.653	5.49
632.986	5.5
633.318	5.5
633.651	5.51
633.984	5.51
634.316	5.51
634.649	5.51
634.981	5.51
635.313	5.51
635.646	5.51
635.978	5.51
636.31	5.51
636.643	5.51
636.975	5.52
637.307	5.52
637.639	5.52
637.971	5.52
638.303	5.52
638.635	5.52
638.967	5.52
639.299	5.52
639.631	5.53
639.963	5.54
640.295	5.54
640.626	5.54
640.958	5.54
641.29	5.55
641.621	5.56
641.953	5.56
642.285	5.56
642.616	5.57
642.948	5.57
643.279	5.58
643.61	5.58
643.942	5.59
644.273	5.59
644.604	5.59
644.936	5.59
645.267	5.59
645.598	5.59
645.929	5.6
646.26	5.6
646.591	5.61
646.922	5.61
647.253	5.6
647.584	5.61
647.915	5.61
648.245	5.61
648.576	5.61
648.907	5.61
649.238	5.61
649.568	5.61
649.899	5.61
650.229	5.61
650.56	5.61
650.89	5.61
651.221	5.61
651.551	5.61
651.882	5.61
652.212	5.61
652.542	5.62
652.872	5.62
653.203	5.62
653.533	5.62
653.863	5.62
654.193	5.62
654.523	5.62
654.853	5.62
655.183	5.63
655.513	5.63
655.843	5.62
656.172	5.62
656.502	5.63
656.832	5.63
657.162	5.63
657.491	5.63
657.821	5.63
658.15	5.64
658.48	5.65
658.809	5.65
659.139	5.65
659.468	5.65
659.798	5.66
660.127	5.66
660.456	5.66
660.785	5.67
661.115	5.67
661.444	5.68
661.773	5.69
662.102	5.69
662.431	5.7
662.76	5.7
663.089	5.71
663.418	5.72
663.747	5.72
664.076	5.73
664.404	5.73
664.733	5.74
665.062	5.75
665.39	5.76
665.719	5.76
666.048	5.76
666.376	5.77
666.705	5.77
667.033	5.78
667.362	5.79
667.69	5.79
668.018	5.78
668.347	5.8
668.675	5.8
669.003	5.8
669.331	5.81
669.659	5.82
669.987	5.82
670.315	5.82
670.643	5.84
670.971	5.84
671.299	5.85
671.627	5.84
671.955	5.84
672.283	5.86
672.61	5.86
672.938	5.86
673.266	5.87
673.593	5.87
673.921	5.87
674.249	5.88
674.576	5.88
674.904	5.88
675.231	5.88
675.558	5.88
675.886	5.89
676.213	5.89
676.54	5.89
676.867	5.88
677.195	5.89
677.522	5.9
677.849	5.91
678.176	5.9
678.503	5.9
678.83	5.91
679.157	5.91
679.484	5.91
679.81	5.92
680.137	5.92
680.464	5.93
680.791	5.94
681.117	5.94
681.444	5.95
681.771	5.95
682.097	5.95
682.424	5.94
682.75	5.95
683.077	5.96
683.403	5.97
683.729	5.97
684.056	5.97
684.382	5.97
684.708	5.97
685.034	5.98
685.36	5.99
685.686	5.98
686.012	5.99
686.339	5.99
686.664	5.99
686.99	6
687.316	6
687.642	6
687.968	6
688.294	6.01
688.619	6.01
688.945	6.01
689.271	6.01
689.596	6.01
689.922	6.02
690.247	6.03
690.573	6.03
690.898	6.03
691.224	6.04
691.549	6.06
691.874	6.07
692.2	6.07
692.525	6.08
692.85	6.09
693.175	6.09
693.5	6.11
693.825	6.11
694.15	6.12
694.475	6.12
694.8	6.13
695.125	6.13
695.45	6.15
695.775	6.15
696.099	6.15
696.424	6.15
696.749	6.14
697.073	6.15
697.398	6.16
697.723	6.18
698.047	6.19
698.372	6.18
698.696	6.2
699.02	6.22
699.345	6.21
699.669	6.21
699.993	6.22
700.318	6.22
700.642	6.24
700.966	6.25
701.29	6.25
701.614	6.25
701.938	6.27
702.262	6.28
702.586	6.28
702.91	6.29
703.234	6.29
703.557	6.31
703.881	6.32
704.205	6.32
704.529	6.31
704.852	6.31
705.176	6.32
705.499	6.32
705.823	6.33
706.146	6.32
706.47	6.33
706.793	6.35
707.117	6.36
707.44	6.36
707.763	6.37
708.086	6.37
708.409	6.38
708.733	6.37
709.056	6.39
709.379	6.39
709.702	6.4
710.025	6.43
710.348	6.42
710.671	6.43
710.993	6.42
711.316	6.42
711.639	6.43
711.962	6.42
712.284	6.44
712.607	6.44
712.93	6.44
713.252	6.44
713.575	6.46
713.897	6.46
714.22	6.45
714.542	6.46
714.864	6.45
715.187	6.45
715.509	6.45
715.831	6.45
716.153	6.46
716.475	6.48
716.798	6.47
717.12	6.48
717.442	6.48
717.764	6.49
718.085	6.48
718.407	6.49
718.729	6.5
719.051	6.5
719.373	6.5
719.695	6.51
720.016	6.51
720.338	6.49
720.659	6.5
720.981	6.51
721.302	6.51
721.624	6.52
721.945	6.51
722.267	6.51
722.588	6.53
722.909	6.53
723.231	6.53
723.552	6.53
723.873	6.52
724.194	6.54
724.515	6.56
724.836	6.56
725.157	6.57
725.478	6.56
725.799	6.57
726.12	6.59
726.441	6.58
726.762	6.59
727.083	6.59
727.403	6.59
727.724	6.59
728.045	6.62
728.365	6.64
728.686	6.66
729.006	6.68
729.327	6.68
729.647	6.69
729.967	6.7
730.288	6.68
730.608	6.7
730.928	6.71
731.249	6.72
731.569	6.73
731.889	6.72
732.209	6.75
732.529	6.74
732.849	6.75
733.169	6.76
733.489	6.78
733.809	6.79
734.129	6.79
734.448	6.82
734.768	6.85
735.088	6.88
735.408	6.89
735.727	6.89
736.047	6.91
736.366	6.93
736.686	6.94
737.005	6.95
737.325	6.94
737.644	6.93
737.963	6.92
738.283	6.9
738.602	6.92
738.921	6.94
739.24	6.96
739.56	6.97
739.879	6.97
740.198	6.97
740.517	6.99
740.836	7
741.155	7
741.473	7.01
741.792	7.01
742.111	7
742.43	6.99
742.748	7
743.067	7.01
743.386	7.04
743.704	7.04
744.023	7.04
744.341	7.05
744.66	7.06
744.978	7.08
745.297	7.09
745.615	7.12
745.933	7.14
746.252	7.15
746.57	7.17
746.888	7.18
747.206	7.2
747.524	7.19
747.842	7.18
748.16	7.18
748.478	7.19
748.796	7.17
749.114	7.19
749.432	7.17
749.749	7.2
750.067	7.21
750.385	7.24
750.703	7.25
751.02	7.26
751.338	7.29
751.655	7.31
751.973	7.32
752.29	7.33
752.608	7.33
752.925	7.35
753.242	7.39
753.56	7.39
753.877	7.41
754.194	7.43
754.511	7.43
754.828	7.42
755.145	7.48
755.462	7.5
755.779	7.52
756.096	7.53
756.413	7.53
756.73	7.52
757.047	7.51
757.364	7.51
757.68	7.52
757.997	7.52
758.314	7.52
758.63	7.53
758.947	7.52
759.264	7.51
759.58	7.5
759.896	7.48
760.213	7.47
760.529	7.47
760.846	7.47
761.162	7.46
761.478	7.46
761.794	7.49
762.11	7.49
762.426	7.52
762.743	7.52
763.059	7.51
763.375	7.5
763.69	7.53
764.006	7.55
764.322	7.54
764.638	7.55
764.954	7.56
765.27	7.56
765.585	7.58
765.901	7.59
766.216	7.58
766.532	7.59
766.848	7.61
767.163	7.6
767.478	7.59
767.794	7.61
768.109	7.59
768.424	7.58
768.74	7.57
769.055	7.56
769.37	7.57
769.685	7.6
770	7.64
770.315	7.66
770.63	7.67
770.945	7.68
771.26	7.68
771.575	7.68
771.89	7.74
772.205	7.76
772.52	7.77
772.834	7.81
773.149	7.83
773.464	7.85
773.778	7.85
774.093	7.87
774.407	7.91
774.722	7.9
775.036	7.9
775.351	7.91
775.665	7.92
775.979	8
776.293	8
776.608	8.03
776.922	8.04
777.236	8.04
777.55	8.05
777.864	8.06
778.178	8.04
778.492	8.04
778.806	8.02
779.12	8.03
779.434	8.05
779.747	8.04
780.061	8.04
780.375	8.09
780.689	8.1
781.002	8.12
781.316	8.13
781.629	8.13
781.943	8.17
782.256	8.2
782.57	8.19
782.883	8.2
783.196	8.22
783.51	8.22
783.823	8.24
784.136	8.23
784.449	8.24
784.762	8.23
785.075	8.22
785.388	8.24
785.701	8.22
786.014	8.28
786.327	8.27
786.64	8.31
786.953	8.36
787.266	8.35
787.578	8.39
787.891	8.39
788.204	8.36
788.516	8.37
788.829	8.35
789.141	8.34
789.454	8.32
789.766	8.33
790.079	8.4
790.391	8.38
790.703	8.4
791.016	8.44
791.328	8.45
791.64	8.47
791.952	8.51
792.264	8.47
792.576	8.45
792.888	8.47
793.2	8.49
793.512	8.51
793.824	8.52
794.136	8.54
794.448	8.53
794.76	8.57
795.071	8.53
795.383	8.57
795.695	8.52
796.006	8.49
796.318	8.46
796.629	8.49
796.941	8.51
797.252	8.5
797.564	8.5
797.875	8.49
798.186	8.5
798.497	8.5
798.809	8.45
799.12	8.47
799.431	8.48
799.742	8.45
800.053	8.5
800.364	8.48
800.675	8.48
800.986	8.54
801.297	8.56
801.608	8.57
801.918	8.57
802.229	8.56
802.54	8.54
802.851	8.51
803.161	8.51
803.472	8.51
803.782	8.52
804.093	8.55
804.403	8.58
804.714	8.55
805.024	8.59
805.334	8.59
805.645	8.62
805.955	8.61
806.265	8.62
806.575	8.61
806.885	8.63
807.195	8.69
807.505	8.67
807.815	8.78
808.125	8.76
808.435	8.78
808.745	8.81
809.055	8.85
809.365	8.84
809.674	8.86
809.984	8.92
810.294	8.96
810.603	9
810.913	9.04
811.222	9.04
811.532	9.02
811.841	9.04
812.151	9.07
812.46	9.09
812.769	9.04
813.079	9.08
813.388	9.13
813.697	9.11
814.006	9.14
814.315	9.14
814.624	9.21
814.933	9.25
815.242	9.31
815.551	9.28
815.86	9.3
816.169	9.28
816.478	9.3
816.786	9.31
817.095	9.28
817.404	9.24
817.712	9.22
818.021	9.24
818.33	9.26
818.638	9.28
818.947	9.27
819.255	9.27
819.563	9.28
819.872	9.29
820.18	9.32
820.488	9.3
820.796	9.32
821.105	9.31
821.413	9.35
821.721	9.36
822.029	9.37
822.337	9.38
822.645	9.36
822.953	9.35
823.26	9.35
823.568	9.36
823.876	9.37
824.184	9.41
824.491	9.41
824.799	9.4
825.107	9.4
825.414	9.41
825.722	9.42
826.029	9.44
826.337	9.44
826.644	9.44
826.951	9.43
827.259	9.43
827.566	9.43
827.873	9.42
828.18	9.45
828.488	9.46
828.795	9.46
829.102	9.45
829.409	9.45
829.716	9.48
830.023	9.51
830.329	9.52
830.636	9.53
830.943	9.55
831.25	9.54
831.557	9.58
831.863	9.62
832.17	9.65
832.476	9.65
832.783	9.63
833.089	9.64
833.396	9.63
833.702	9.67
834.009	9.65
834.315	9.65
834.621	9.66
834.928	9.67
835.234	9.69
835.54	9.69
835.846	9.71
836.152	9.7
836.458	9.7
836.764	9.68
837.07	9.72
837.376	9.75
837.682	9.76
837.988	9.75
838.293	9.74
838.599	9.68
838.905	9.67
839.211	9.65
839.516	9.69
839.822	9.68
840.127	9.73
840.433	9.81
840.738	9.83
841.044	9.83
841.349	9.84
841.654	9.88
841.959	9.9
842.265	9.96
842.57	10.01
842.875	10.06
843.18	10.02
843.485	10
843.79	10.06
844.095	10.01
844.4	10
844.705	10.02
845.01	9.95
845.315	9.96
845.619	9.94
845.924	10.02
846.229	10.03
846.533	10.11
846.838	10.12
847.142	10.14
847.447	10.23
847.751	10.31
848.056	10.37
848.36	10.47
848.664	10.53
848.969	10.73
849.273	10.75
849.577	10.76
849.881	10.77
850.185	10.81
850.489	10.78
850.794	10.85
851.097	10.99
851.401	11.04
851.705	11.14
852.009	11.25
852.313	11.33
852.617	11.19
852.92	11.01
853.224	10.95
853.528	10.91
853.831	10.9
854.135	10.96
854.438	10.97
854.742	10.87
855.045	10.82
855.349	11
855.652	11.2
855.955	11.23
856.259	11.3
856.562	11.52
856.865	11.69
857.168	11.6
857.471	11.79
857.774	11.95
858.077	11.95
858.38	12.1
858.683	12.12
858.986	12.02
859.289	12.03
859.592	12.08
859.894	12
860.197	11.98
860.5	11.99
860.802	11.92
861.105	11.97
861.407	11.71
861.71	11.67
862.012	11.68
862.315	11.72
862.617	11.75
862.919	11.86
863.222	11.72
863.524	11.73
863.826	11.78
864.128	11.58
864.43	11.56
864.732	11.6
865.034	11.67
865.336	11.75
865.638	11.78
865.94	11.8
866.242	11.83
866.544	11.97
866.846	12.04
867.147	12.05
867.449	12.1
867.751	12.03
868.052	12
868.354	11.94
868.655	11.88
868.957	11.75
869.258	11.69
869.56	11.75
869.861	11.76
870.162	11.68
870.463	11.86
870.765	11.69
871.066	11.78
871.367	11.84
871.668	11.81
871.969	11.77
872.27	11.77
872.571	11.79
872.872	11.75
873.173	11.82
873.473	11.74
873.774	11.86
874.075	11.92
874.376	11.96
874.676	11.92
874.977	11.94
875.277	11.9
875.578	12.04
875.878	12.02
876.179	11.98
876.479	12.17
876.78	12.09
877.08	12.02
877.38	12.04
877.68	12.19
877.981	12.17
878.281	12.3
878.581	12.39
