Data from UWBM37214_Reflection_00012.txt Node
Date: Sun May 02 14:05:02 EDT 2021
User: vgr7
Spectrometer: USB2G7710
Scans to average: 10
Trigger mode: 4
Integration Time (sec): 1.000000E-1
Electric dark correction enabled: true
Boxcar width: 20
XAxis mode: Wavelengths
Number of Pixels in Spectrum: 2048
>>>>>Begin Spectral Data<<<<<
177.721	493.42
178.105	900
178.488	-14670
178.871	1837.5
179.254	637.28
179.636	395.5
180.019	186.99
180.402	142.43
180.785	111.41
181.168	104.22
181.55	82.54
181.933	74.03
182.316	64.29
182.698	59.21
183.081	51.23
183.463	45.85
183.846	43.78
184.228	46.56
184.611	43
184.993	40.04
185.376	42.04
185.758	43.83
186.14	44.61
186.522	43.53
186.904	40.48
187.287	37.99
187.669	37.38
188.051	34.97
188.433	33.25
188.815	33.58
189.197	34.37
189.579	36.5
189.961	34.61
190.342	31.83
190.724	33.76
191.106	34.4
191.488	33.51
191.869	34.21
192.251	32.33
192.633	32.02
193.014	30.81
193.396	28.05
193.777	27.98
194.159	26.86
194.54	24.43
194.922	22.36
195.303	21.2
195.684	21.71
196.065	21.95
196.447	23.14
196.828	21.24
197.209	21.27
197.59	20.3
197.971	20.02
198.352	20.51
198.733	21.22
199.114	21.63
199.495	21.23
199.876	19.6
200.257	20.69
200.638	20.27
201.018	20.18
201.399	19.7
201.78	17.27
202.16	16.03
202.541	17.05
202.922	17.52
203.302	17.09
203.683	17.47
204.063	17.76
204.444	18
204.824	16.1
205.204	14.15
205.585	14.56
205.965	16.43
206.345	14.37
206.725	15.54
207.106	14.64
207.486	12.9
207.866	13.2
208.246	11.88
208.626	10.58
209.006	10.53
209.386	10.71
209.766	8.88
210.145	8.12
210.525	7.11
210.905	8.87
211.285	7.46
211.664	7.67
212.044	6.4
212.424	5.73
212.803	5.54
213.183	5.84
213.562	7.32
213.942	7.19
214.321	6.67
214.701	5.65
215.08	6.53
215.459	6.67
215.838	4.75
216.218	3.94
216.597	2.83
216.976	2.77
217.355	3.3
217.734	3.32
218.113	3.24
218.492	1.92
218.871	1.68
219.25	2.52
219.629	2.14
220.008	1.6
220.387	0.89
220.766	2.05
221.144	0.92
221.523	0.32
221.902	0.81
222.28	0.14
222.659	0.28
223.037	0.59
223.416	1.16
223.794	1.62
224.173	2.1
224.551	2.17
224.929	2.88
225.308	2.88
225.686	3.55
226.064	3.74
226.442	3.48
226.821	4.07
227.199	4.35
227.577	4.51
227.955	4.83
228.333	5.18
228.711	4.58
229.089	3.86
229.467	3.76
229.845	4.04
230.222	4.32
230.6	4.03
230.978	3.95
231.356	4.34
231.733	4.7
232.111	4.71
232.488	4.67
232.866	4.69
233.243	4.61
233.621	4.6
233.998	4.82
234.376	4.98
234.753	4.84
235.13	4.82
235.508	4.78
235.885	4.83
236.262	4.73
236.639	4.76
237.016	4.69
237.393	4.67
237.77	4.64
238.147	4.56
238.524	4.57
238.901	4.5
239.278	4.4
239.655	4.43
240.032	4.37
240.409	4.27
240.785	4.34
241.162	4.31
241.539	4.33
241.915	4.3
242.292	4.28
242.668	4.21
243.045	4.18
243.421	4.14
243.798	4.13
244.174	4.2
244.551	4.23
244.927	4.24
245.303	4.24
245.679	4.23
246.056	4.2
246.432	4.18
246.808	4.16
247.184	4.18
247.56	4.18
247.936	4.14
248.312	4.15
248.688	4.13
249.064	4.13
249.44	4.11
249.815	4.08
250.191	4.06
250.567	4.06
250.943	4.06
251.318	4.04
251.694	4.03
252.069	4.03
252.445	4.03
252.82	4.01
253.196	3.98
253.571	3.99
253.947	3.99
254.322	3.97
254.697	3.99
255.073	3.95
255.448	3.96
255.823	3.96
256.198	3.93
256.573	3.92
256.948	3.91
257.323	3.89
257.698	3.87
258.073	3.85
258.448	3.84
258.823	3.85
259.198	3.84
259.573	3.82
259.948	3.81
260.322	3.8
260.697	3.76
261.072	3.75
261.446	3.75
261.821	3.76
262.195	3.75
262.57	3.72
262.944	3.72
263.319	3.74
263.693	3.73
264.067	3.73
264.442	3.71
264.816	3.7
265.19	3.72
265.564	3.73
265.938	3.72
266.313	3.73
266.687	3.73
267.061	3.73
267.435	3.72
267.809	3.71
268.183	3.71
268.556	3.7
268.93	3.7
269.304	3.69
269.678	3.7
270.051	3.69
270.425	3.68
270.799	3.65
271.172	3.65
271.546	3.64
271.919	3.64
272.293	3.64
272.666	3.64
273.04	3.66
273.413	3.69
273.787	3.71
274.16	3.68
274.533	3.69
274.906	3.71
275.279	3.72
275.653	3.72
276.026	3.75
276.399	3.76
276.772	3.78
277.145	3.76
277.518	3.78
277.891	3.79
278.263	3.78
278.636	3.77
279.009	3.77
279.382	3.77
279.755	3.79
280.127	3.8
280.5	3.8
280.872	3.8
281.245	3.79
281.617	3.79
281.99	3.79
282.362	3.78
282.735	3.79
283.107	3.8
283.479	3.78
283.852	3.8
284.224	3.8
284.596	3.79
284.968	3.79
285.34	3.8
285.713	3.82
286.085	3.83
286.457	3.84
286.829	3.85
287.201	3.85
287.572	3.85
287.944	3.85
288.316	3.85
288.688	3.84
289.06	3.84
289.431	3.86
289.803	3.87
290.175	3.87
290.546	3.89
290.918	3.91
291.289	3.91
291.661	3.93
292.032	3.92
292.403	3.93
292.775	3.95
293.146	3.97
293.517	3.99
293.889	4.02
294.26	4.04
294.631	4.07
295.002	4.1
295.373	4.12
295.744	4.14
296.115	4.17
296.486	4.22
296.857	4.25
297.228	4.26
297.599	4.3
297.97	4.32
298.34	4.34
298.711	4.38
299.082	4.41
299.452	4.44
299.823	4.48
300.194	4.5
300.564	4.53
300.935	4.55
301.305	4.59
301.676	4.62
302.046	4.64
302.416	4.69
302.787	4.72
303.157	4.77
303.527	4.82
303.897	4.86
304.267	4.91
304.637	4.95
305.008	5
305.378	5.03
305.748	5.06
306.117	5.09
306.487	5.15
306.857	5.19
307.227	5.23
307.597	5.28
307.967	5.31
308.336	5.35
308.706	5.38
309.076	5.39
309.445	5.43
309.815	5.45
310.184	5.46
310.554	5.48
310.923	5.52
311.293	5.54
311.662	5.54
312.031	5.57
312.401	5.62
312.77	5.64
313.139	5.67
313.508	5.71
313.877	5.73
314.246	5.77
314.616	5.79
314.985	5.83
315.353	5.86
315.722	5.87
316.091	5.92
316.46	5.94
316.829	5.99
317.198	6.03
317.567	6.05
317.935	6.09
318.304	6.12
318.672	6.12
319.041	6.17
319.41	6.18
319.778	6.23
320.147	6.25
320.515	6.29
320.883	6.32
321.252	6.35
321.62	6.36
321.988	6.38
322.357	6.42
322.725	6.46
323.093	6.49
323.461	6.48
323.829	6.52
324.197	6.55
324.565	6.57
324.933	6.6
325.301	6.63
325.669	6.66
326.037	6.67
326.405	6.69
326.772	6.72
327.14	6.76
327.508	6.77
327.875	6.79
328.243	6.8
328.61	6.81
328.978	6.82
329.346	6.83
329.713	6.85
330.08	6.87
330.448	6.88
330.815	6.9
331.182	6.91
331.55	6.92
331.917	6.92
332.284	6.93
332.651	6.95
333.018	6.97
333.385	6.98
333.752	7.01
334.119	7.02
334.486	7.05
334.853	7.04
335.22	7.06
335.587	7.06
335.954	7.08
336.32	7.1
336.687	7.11
337.054	7.13
337.42	7.13
337.787	7.13
338.153	7.15
338.52	7.17
338.886	7.16
339.253	7.18
339.619	7.19
339.986	7.19
340.352	7.2
340.718	7.21
341.084	7.21
341.451	7.22
341.817	7.23
342.183	7.24
342.549	7.25
342.915	7.26
343.281	7.29
343.647	7.31
344.013	7.32
344.379	7.33
344.745	7.33
345.11	7.33
345.476	7.35
345.842	7.36
346.208	7.37
346.573	7.38
346.939	7.39
347.304	7.41
347.67	7.41
348.035	7.41
348.401	7.41
348.766	7.42
349.132	7.42
349.497	7.43
349.862	7.44
350.228	7.46
350.593	7.46
350.958	7.46
351.323	7.46
351.688	7.47
352.053	7.47
352.418	7.47
352.783	7.47
353.148	7.46
353.513	7.46
353.878	7.46
354.243	7.46
354.608	7.46
354.972	7.46
355.337	7.45
355.702	7.45
356.066	7.44
356.431	7.44
356.795	7.42
357.16	7.4
357.524	7.39
357.889	7.38
358.253	7.36
358.618	7.33
358.982	7.32
359.346	7.31
359.71	7.29
360.075	7.28
360.439	7.26
360.803	7.25
361.167	7.24
361.531	7.23
361.895	7.21
362.259	7.18
362.623	7.17
362.987	7.15
363.351	7.13
363.714	7.11
364.078	7.09
364.442	7.07
364.806	7.04
365.169	7.02
365.533	6.99
365.896	6.97
366.26	6.95
366.623	6.92
366.987	6.88
367.35	6.86
367.714	6.83
368.077	6.81
368.44	6.78
368.803	6.75
369.167	6.71
369.53	6.67
369.893	6.63
370.256	6.59
370.619	6.55
370.982	6.51
371.345	6.47
371.708	6.43
372.071	6.4
372.434	6.36
372.797	6.33
373.159	6.29
373.522	6.26
373.885	6.23
374.247	6.2
374.61	6.16
374.973	6.12
375.335	6.08
375.698	6.05
376.06	6.01
376.423	5.97
376.785	5.93
377.147	5.9
377.51	5.86
377.872	5.82
378.234	5.79
378.596	5.75
378.958	5.71
379.321	5.68
379.683	5.65
380.045	5.61
380.407	5.59
380.769	5.55
381.13	5.51
381.492	5.48
381.854	5.46
382.216	5.43
382.578	5.4
382.939	5.36
383.301	5.33
383.663	5.3
384.024	5.28
384.386	5.25
384.747	5.23
385.109	5.19
385.47	5.17
385.832	5.14
386.193	5.11
386.554	5.09
386.916	5.06
387.277	5.03
387.638	5
387.999	4.98
388.36	4.96
388.721	4.94
389.082	4.92
389.443	4.9
389.804	4.87
390.165	4.85
390.526	4.82
390.887	4.8
391.248	4.78
391.609	4.76
391.969	4.73
392.33	4.71
392.691	4.69
393.051	4.67
393.412	4.65
393.772	4.63
394.133	4.6
394.493	4.58
394.854	4.55
395.214	4.53
395.574	4.51
395.935	4.49
396.295	4.47
396.655	4.45
397.015	4.43
397.376	4.4
397.736	4.39
398.096	4.37
398.456	4.35
398.816	4.33
399.176	4.31
399.535	4.29
399.895	4.28
400.255	4.26
400.615	4.24
400.975	4.22
401.334	4.2
401.694	4.19
402.054	4.17
402.413	4.16
402.773	4.14
403.132	4.13
403.492	4.12
403.851	4.1
404.211	4.09
404.57	4.08
404.929	4.07
405.288	4.06
405.648	4.05
406.007	4.04
406.366	4.03
406.725	4.03
407.084	4.02
407.443	4.01
407.802	4.01
408.161	4
408.52	3.98
408.879	3.98
409.238	3.97
409.596	3.97
409.955	3.96
410.314	3.95
410.673	3.94
411.031	3.94
411.39	3.93
411.748	3.93
412.107	3.92
412.465	3.92
412.824	3.93
413.182	3.95
413.54	3.96
413.899	3.98
414.257	4
414.615	4.02
414.974	4.04
415.332	4.07
415.69	4.1
416.048	4.12
416.406	4.15
416.764	4.17
417.122	4.19
417.48	4.22
417.838	4.23
418.195	4.25
418.553	4.26
418.911	4.27
419.269	4.27
419.626	4.26
419.984	4.25
420.342	4.23
420.699	4.21
421.057	4.19
421.414	4.17
421.772	4.15
422.129	4.13
422.486	4.12
422.844	4.11
423.201	4.11
423.558	4.1
423.915	4.1
424.273	4.1
424.63	4.09
424.987	4.09
425.344	4.08
425.701	4.08
426.058	4.07
426.415	4.07
426.772	4.07
427.128	4.06
427.485	4.04
427.842	4.03
428.199	4.01
428.555	3.99
428.912	3.97
429.269	3.94
429.625	3.91
429.982	3.88
430.338	3.86
430.695	3.83
431.051	3.8
431.407	3.78
431.764	3.76
432.12	3.74
432.476	3.73
432.832	3.72
433.189	3.72
433.545	3.73
433.901	3.74
434.257	3.76
434.613	3.78
434.969	3.8
435.325	3.82
435.681	3.86
436.036	3.88
436.392	3.9
436.748	3.92
437.104	3.93
437.459	3.95
437.815	3.96
438.171	3.98
438.526	4
438.882	4.03
439.237	4.06
439.593	4.09
439.948	4.12
440.304	4.15
440.659	4.17
441.014	4.19
441.369	4.21
441.725	4.22
442.08	4.24
442.435	4.25
442.79	4.25
443.145	4.26
443.5	4.25
443.855	4.25
444.21	4.25
444.565	4.25
444.92	4.23
445.275	4.22
445.629	4.21
445.984	4.2
446.339	4.19
446.693	4.17
447.048	4.15
447.403	4.14
447.757	4.11
448.112	4.08
448.466	4.06
448.82	4.04
449.175	4.01
449.529	3.99
449.883	3.97
450.238	3.94
450.592	3.93
450.946	3.92
451.3	3.91
451.654	3.92
452.008	3.92
452.362	3.93
452.716	3.93
453.07	3.92
453.424	3.92
453.778	3.91
454.132	3.9
454.486	3.89
454.839	3.88
455.193	3.86
455.547	3.85
455.9	3.82
456.254	3.81
456.607	3.78
456.961	3.76
457.314	3.74
457.668	3.73
458.021	3.73
458.375	3.73
458.728	3.73
459.081	3.73
459.434	3.74
459.787	3.75
460.141	3.76
460.494	3.76
460.847	3.78
461.2	3.78
461.553	3.79
461.906	3.8
462.259	3.81
462.611	3.81
462.964	3.82
463.317	3.83
463.67	3.84
464.022	3.85
464.375	3.86
464.728	3.87
465.08	3.87
465.433	3.88
465.785	3.88
466.138	3.87
466.49	3.86
466.843	3.85
467.195	3.83
467.547	3.81
467.899	3.8
468.252	3.77
468.604	3.75
468.956	3.74
469.308	3.73
469.66	3.73
470.012	3.73
470.364	3.73
470.716	3.74
471.068	3.76
471.42	3.78
471.772	3.8
472.123	3.81
472.475	3.82
472.827	3.83
473.178	3.84
473.53	3.84
473.882	3.86
474.233	3.88
474.585	3.91
474.936	3.97
475.288	4.05
475.639	4.15
475.99	4.27
476.342	4.4
476.693	4.54
477.044	4.69
477.395	4.84
477.746	4.99
478.097	5.15
478.448	5.31
478.8	5.46
479.15	5.6
479.501	5.73
479.852	5.85
480.203	5.97
480.554	6.08
480.905	6.19
481.255	6.29
481.606	6.38
481.957	6.48
482.307	6.56
482.658	6.64
483.009	6.72
483.359	6.8
483.709	6.88
484.06	6.95
484.41	7.02
484.761	7.09
485.111	7.16
485.461	7.22
485.811	7.28
486.162	7.34
486.512	7.39
486.862	7.43
487.212	7.46
487.562	7.48
487.912	7.49
488.262	7.5
488.612	7.5
488.961	7.49
489.311	7.46
489.661	7.4
490.011	7.33
490.36	7.24
490.71	7.13
491.06	7.02
491.409	6.9
491.759	6.78
492.108	6.65
492.458	6.51
492.807	6.37
493.157	6.24
493.506	6.11
493.855	5.98
494.204	5.87
494.554	5.75
494.903	5.65
495.252	5.56
495.601	5.47
495.95	5.38
496.299	5.3
496.648	5.22
496.997	5.16
497.346	5.1
497.695	5.04
498.043	4.98
498.392	4.94
498.741	4.89
499.09	4.84
499.438	4.81
499.787	4.77
500.135	4.75
500.484	4.73
500.832	4.72
501.181	4.73
501.529	4.75
501.878	4.78
502.226	4.82
502.574	4.87
502.923	4.92
503.271	4.98
503.619	5.03
503.967	5.09
504.315	5.15
504.663	5.21
505.011	5.27
505.359	5.34
505.707	5.4
506.055	5.47
506.403	5.54
506.751	5.62
507.098	5.7
507.446	5.78
507.794	5.87
508.141	5.96
508.489	6.06
508.837	6.16
509.184	6.26
509.531	6.37
509.879	6.48
510.226	6.61
510.574	6.74
510.921	6.87
511.268	7.01
511.616	7.16
511.963	7.3
512.31	7.45
512.657	7.6
513.004	7.75
513.351	7.9
513.698	8.03
514.045	8.16
514.392	8.28
514.739	8.4
515.086	8.51
515.432	8.63
515.779	8.73
516.126	8.85
516.473	8.97
516.819	9.1
517.166	9.25
517.512	9.41
517.859	9.59
518.205	9.78
518.552	9.98
518.898	10.21
519.245	10.46
519.591	10.77
519.937	11.12
520.283	11.54
520.629	11.99
520.976	12.47
521.322	12.97
521.668	13.48
522.014	14.01
522.36	14.53
522.706	15.05
523.052	15.55
523.398	16.03
523.743	16.48
524.089	16.87
524.435	17.25
524.781	17.62
525.126	17.98
525.472	18.34
525.817	18.69
526.163	19.03
526.509	19.37
526.854	19.71
527.199	20.04
527.545	20.38
527.89	20.73
528.235	21.07
528.581	21.4
528.926	21.71
529.271	22.01
529.616	22.29
529.961	22.57
530.306	22.84
530.651	23.09
530.996	23.33
531.341	23.54
531.686	23.74
532.031	23.93
532.376	24.14
532.721	24.36
533.065	24.61
533.41	24.88
533.755	25.12
534.099	25.34
534.444	25.53
534.788	25.7
535.133	25.86
535.477	26.01
535.822	26.13
536.166	26.22
536.51	26.27
536.855	26.28
537.199	26.26
537.543	26.25
537.887	26.25
538.231	26.29
538.576	26.32
538.92	26.35
539.264	26.37
539.608	26.37
539.951	26.36
540.295	26.34
540.639	26.32
540.983	26.27
541.327	26.22
541.671	26.14
542.014	26.08
542.358	26.05
542.701	26.06
543.045	26.12
543.389	26.22
543.732	26.33
544.075	26.45
544.419	26.59
544.762	26.74
545.105	26.9
545.449	27.06
545.792	27.24
546.135	27.42
546.478	27.57
546.821	27.68
547.165	27.74
547.508	27.76
547.851	27.75
548.194	27.7
548.536	27.63
548.879	27.53
549.222	27.4
549.565	27.28
549.908	27.16
550.25	27.06
550.593	27
550.936	27
551.278	27.05
551.621	27.12
551.963	27.22
552.306	27.33
552.648	27.47
552.991	27.64
553.333	27.81
553.675	28.02
554.017	28.25
554.36	28.5
554.702	28.78
555.044	29.09
555.386	29.44
555.728	29.83
556.07	30.2
556.412	30.55
556.754	30.86
557.096	31.11
557.438	31.37
557.78	31.62
558.121	31.87
558.463	32.12
558.805	32.38
559.147	32.63
559.488	32.89
559.83	33.14
560.171	33.4
560.513	33.65
560.854	33.9
561.196	34.16
561.537	34.4
561.878	34.63
562.22	34.87
562.561	35.1
562.902	35.32
563.243	35.55
563.584	35.79
563.925	36.02
564.266	36.25
564.607	36.49
564.948	36.72
565.289	36.94
565.63	37.16
565.971	37.39
566.312	37.59
566.653	37.81
566.993	38.01
567.334	38.22
567.675	38.42
568.015	38.62
568.356	38.81
568.696	38.99
569.037	39.18
569.377	39.36
569.718	39.54
570.058	39.7
570.398	39.85
570.739	40.01
571.079	40.17
571.419	40.32
571.759	40.47
572.099	40.62
572.439	40.77
572.779	40.92
573.119	41.07
573.459	41.21
573.799	41.36
574.139	41.49
574.479	41.63
574.819	41.77
575.158	41.9
575.498	42.04
575.838	42.17
576.177	42.31
576.517	42.43
576.856	42.57
577.196	42.69
577.535	42.82
577.875	42.95
578.214	43.07
578.553	43.19
578.893	43.32
579.232	43.44
579.571	43.57
579.91	43.69
580.25	43.81
580.589	43.94
580.928	44.06
581.267	44.18
581.606	44.31
581.945	44.44
582.283	44.58
582.622	44.72
582.961	44.84
583.3	44.96
583.639	45.08
583.977	45.21
584.316	45.35
584.654	45.46
584.993	45.59
585.332	45.7
585.67	45.82
586.008	45.94
586.347	46.05
586.685	46.17
587.024	46.28
587.362	46.39
587.7	46.5
588.038	46.63
588.376	46.74
588.715	46.86
589.053	46.97
589.391	47.1
589.729	47.23
590.067	47.34
590.404	47.46
590.742	47.56
591.08	47.68
591.418	47.78
591.756	47.88
592.093	47.98
592.431	48.08
592.769	48.15
593.106	48.24
593.444	48.32
593.781	48.4
594.119	48.48
594.456	48.55
594.793	48.64
595.131	48.72
595.468	48.8
595.805	48.87
596.143	48.96
596.48	49.04
596.817	49.13
597.154	49.22
597.491	49.32
597.828	49.41
598.165	49.51
598.502	49.59
598.839	49.68
599.176	49.76
599.512	49.83
599.849	49.91
600.186	49.99
600.523	50.05
600.859	50.11
601.196	50.18
601.532	50.25
601.869	50.31
602.205	50.37
602.542	50.43
602.878	50.49
603.215	50.54
603.551	50.6
603.887	50.66
604.223	50.71
604.56	50.76
604.896	50.81
605.232	50.86
605.568	50.9
605.904	50.95
606.24	50.99
606.576	51.04
606.912	51.08
607.248	51.13
607.583	51.16
607.919	51.22
608.255	51.27
608.591	51.32
608.926	51.36
609.262	51.41
609.597	51.45
609.933	51.48
610.268	51.53
610.604	51.57
610.939	51.6
611.275	51.62
611.61	51.65
611.945	51.68
612.281	51.72
612.616	51.74
612.951	51.78
613.286	51.81
613.621	51.86
613.956	51.89
614.291	51.92
614.626	51.96
614.961	51.99
615.296	52.02
615.631	52.05
615.966	52.08
616.3	52.11
616.635	52.15
616.97	52.18
617.304	52.21
617.639	52.24
617.973	52.29
618.308	52.34
618.642	52.39
618.977	52.43
619.311	52.47
619.646	52.5
619.98	52.55
620.314	52.58
620.648	52.62
620.983	52.68
621.317	52.73
621.651	52.76
621.985	52.79
622.319	52.82
622.653	52.86
622.987	52.89
623.321	52.92
623.655	52.94
623.988	52.95
624.322	52.99
624.656	53.01
624.99	53.05
625.323	53.08
625.657	53.11
625.99	53.14
626.324	53.17
626.657	53.2
626.991	53.23
627.324	53.25
627.658	53.28
627.991	53.3
628.324	53.32
628.657	53.36
628.991	53.4
629.324	53.42
629.657	53.45
629.99	53.47
630.323	53.5
630.656	53.52
630.989	53.56
631.322	53.59
631.655	53.61
631.987	53.63
632.32	53.64
632.653	53.66
632.986	53.69
633.318	53.71
633.651	53.74
633.984	53.76
634.316	53.78
634.649	53.79
634.981	53.81
635.313	53.83
635.646	53.85
635.978	53.88
636.31	53.9
636.643	53.92
636.975	53.95
637.307	54
637.639	54.02
637.971	54.04
638.303	54.07
638.635	54.09
638.967	54.1
639.299	54.12
639.631	54.13
639.963	54.18
640.295	54.2
640.626	54.22
640.958	54.24
641.29	54.25
641.621	54.3
641.953	54.32
642.285	54.33
642.616	54.33
642.948	54.37
643.279	54.41
643.61	54.44
643.942	54.48
644.273	54.52
644.604	54.52
644.936	54.54
645.267	54.56
645.598	54.59
645.929	54.63
646.26	54.65
646.591	54.67
646.922	54.71
647.253	54.73
647.584	54.74
647.915	54.75
648.245	54.77
648.576	54.8
648.907	54.83
649.238	54.86
649.568	54.87
649.899	54.89
650.229	54.92
650.56	54.93
650.89	54.96
651.221	54.98
651.551	55.01
651.882	55.03
652.212	55.03
652.542	55.08
652.872	55.1
653.203	55.12
653.533	55.13
653.863	55.15
654.193	55.18
654.523	55.22
654.853	55.25
655.183	55.25
655.513	55.28
655.843	55.3
656.172	55.34
656.502	55.37
656.832	55.37
657.162	55.41
657.491	55.42
657.821	55.43
658.15	55.46
658.48	55.47
658.809	55.5
659.139	55.52
659.468	55.54
659.798	55.56
660.127	55.58
660.456	55.58
660.785	55.59
661.115	55.61
661.444	55.66
661.773	55.67
662.102	55.69
662.431	55.69
662.76	55.7
663.089	55.72
663.418	55.72
663.747	55.73
664.076	55.74
664.404	55.75
664.733	55.78
665.062	55.8
665.39	55.82
665.719	55.85
666.048	55.87
666.376	55.88
666.705	55.9
667.033	55.92
667.362	55.93
667.69	55.95
668.018	55.95
668.347	55.96
668.675	55.99
669.003	56.01
669.331	56.01
669.659	56
669.987	56
670.315	56.01
670.643	56.02
670.971	56.02
671.299	56.04
671.627	56.04
671.955	56.07
672.283	56.06
672.61	56.07
672.938	56.08
673.266	56.09
673.593	56.1
673.921	56.13
674.249	56.16
674.576	56.18
674.904	56.17
675.231	56.19
675.558	56.22
675.886	56.23
676.213	56.27
676.54	56.31
676.867	56.34
677.195	56.35
677.522	56.36
677.849	56.38
678.176	56.4
678.503	56.42
678.83	56.43
679.157	56.44
679.484	56.45
679.81	56.47
680.137	56.5
680.464	56.52
680.791	56.55
681.117	56.57
681.444	56.59
681.771	56.61
682.097	56.62
682.424	56.62
682.75	56.63
683.077	56.65
683.403	56.67
683.729	56.71
684.056	56.73
684.382	56.74
684.708	56.75
685.034	56.78
685.36	56.78
685.686	56.8
686.012	56.81
686.339	56.84
686.664	56.87
686.99	56.88
687.316	56.9
687.642	56.91
687.968	56.93
688.294	56.95
688.619	56.96
688.945	56.94
689.271	56.97
689.596	56.96
689.922	56.96
690.247	56.96
690.573	56.97
690.898	56.99
691.224	57
691.549	57
691.874	57.02
692.2	57.03
692.525	57.05
692.85	57.06
693.175	57.07
693.5	57.07
693.825	57.09
694.15	57.08
694.475	57.08
694.8	57.07
695.125	57.07
695.45	57.08
695.775	57.11
696.099	57.13
696.424	57.14
696.749	57.17
697.073	57.17
697.398	57.17
697.723	57.2
698.047	57.21
698.372	57.21
698.696	57.25
699.02	57.26
699.345	57.28
699.669	57.28
699.993	57.3
700.318	57.32
700.642	57.34
700.966	57.32
701.29	57.34
701.614	57.37
701.938	57.38
702.262	57.41
702.586	57.43
702.91	57.44
703.234	57.47
703.557	57.48
703.881	57.51
704.205	57.53
704.529	57.55
704.852	57.57
705.176	57.58
705.499	57.6
705.823	57.62
706.146	57.65
706.47	57.67
706.793	57.7
707.117	57.75
707.44	57.8
707.763	57.84
708.086	57.88
708.409	57.89
708.733	57.9
709.056	57.92
709.379	57.94
709.702	57.98
710.025	57.97
710.348	57.97
710.671	57.96
710.993	57.97
711.316	58
711.639	58
711.962	58.02
712.284	58.04
712.607	58.04
712.93	58.03
713.252	58.03
713.575	58.05
713.897	58.07
714.22	58.1
714.542	58.12
714.864	58.1
715.187	58.12
715.509	58.13
715.831	58.14
716.153	58.16
716.475	58.16
716.798	58.18
717.12	58.21
717.442	58.22
717.764	58.23
718.085	58.25
718.407	58.25
718.729	58.25
719.051	58.27
719.373	58.27
719.695	58.27
720.016	58.29
720.338	58.24
720.659	58.26
720.981	58.26
721.302	58.29
721.624	58.31
721.945	58.33
722.267	58.35
722.588	58.35
722.909	58.33
723.231	58.37
723.552	58.38
723.873	58.42
724.194	58.44
724.515	58.45
724.836	58.47
725.157	58.43
725.478	58.44
725.799	58.49
726.12	58.56
726.441	58.59
726.762	58.59
727.083	58.58
727.403	58.59
727.724	58.58
728.045	58.61
728.365	58.61
728.686	58.61
729.006	58.64
729.327	58.63
729.647	58.62
729.967	58.63
730.288	58.61
730.608	58.64
730.928	58.63
731.249	58.63
731.569	58.62
731.889	58.63
732.209	58.64
732.529	58.65
732.849	58.67
733.169	58.7
733.489	58.72
733.809	58.71
734.129	58.72
734.448	58.73
734.768	58.72
735.088	58.75
735.408	58.77
735.727	58.77
736.047	58.79
736.366	58.8
736.686	58.82
737.005	58.84
737.325	58.83
737.644	58.83
737.963	58.84
738.283	58.88
738.602	58.86
738.921	58.84
739.24	58.82
739.56	58.78
739.879	58.78
740.198	58.81
740.517	58.82
740.836	58.83
741.155	58.84
741.473	58.86
741.792	58.87
742.111	58.84
742.43	58.86
742.748	58.87
743.067	58.88
743.386	58.9
743.704	58.89
744.023	58.92
744.341	58.94
744.66	58.98
744.978	58.98
745.297	59.01
745.615	59.02
745.933	59.04
746.252	59.03
746.57	59.04
746.888	59.04
747.206	59.04
747.524	59
747.842	59.01
748.16	58.99
748.478	58.96
748.796	58.96
749.114	58.94
749.432	58.93
749.749	58.92
750.067	58.92
750.385	58.95
750.703	58.93
751.02	58.91
751.338	58.89
751.655	58.96
751.973	58.97
752.29	58.99
752.608	59.04
752.925	59.03
753.242	59.04
753.56	59.07
753.877	59.07
754.194	59.07
754.511	59.05
754.828	59.05
755.145	59.09
755.462	59.09
755.779	59.11
756.096	59.11
756.413	59.12
756.73	59.15
757.047	59.14
757.364	59.18
757.68	59.2
757.997	59.25
758.314	59.25
758.63	59.28
758.947	59.27
759.264	59.31
759.58	59.35
759.896	59.35
760.213	59.38
760.529	59.43
760.846	59.44
761.162	59.46
761.478	59.5
761.794	59.5
762.11	59.53
762.426	59.55
762.743	59.55
763.059	59.54
763.375	59.51
763.69	59.56
764.006	59.58
764.322	59.59
764.638	59.56
764.954	59.59
765.27	59.58
765.585	59.59
765.901	59.6
766.216	59.62
766.532	59.62
766.848	59.63
767.163	59.64
767.478	59.67
767.794	59.67
768.109	59.66
768.424	59.65
768.74	59.68
769.055	59.7
769.37	59.72
769.685	59.69
770	59.69
770.315	59.69
770.63	59.66
770.945	59.63
771.26	59.6
771.575	59.59
771.89	59.59
772.205	59.57
772.52	59.52
772.834	59.53
773.149	59.51
773.464	59.45
773.778	59.48
774.093	59.47
774.407	59.47
774.722	59.53
775.036	59.51
775.351	59.51
775.665	59.51
775.979	59.52
776.293	59.54
776.608	59.53
776.922	59.52
777.236	59.56
777.55	59.56
777.864	59.51
778.178	59.53
778.492	59.52
778.806	59.51
779.12	59.47
779.434	59.42
779.747	59.43
780.061	59.42
780.375	59.39
780.689	59.38
781.002	59.35
781.316	59.41
781.629	59.35
781.943	59.37
782.256	59.34
782.57	59.37
782.883	59.41
783.196	59.42
783.51	59.42
783.823	59.45
784.136	59.51
784.449	59.55
784.762	59.55
785.075	59.53
785.388	59.54
785.701	59.55
786.014	59.56
786.327	59.6
786.64	59.57
786.953	59.56
787.266	59.56
787.578	59.52
787.891	59.54
788.204	59.56
788.516	59.55
788.829	59.55
789.141	59.56
789.454	59.58
789.766	59.58
790.079	59.56
790.391	59.58
790.703	59.63
791.016	59.63
791.328	59.64
791.64	59.65
791.952	59.67
792.264	59.66
792.576	59.68
792.888	59.7
793.2	59.72
793.512	59.78
793.824	59.81
794.136	59.78
794.448	59.83
794.76	59.81
795.071	59.86
795.383	59.83
795.695	59.78
796.006	59.72
796.318	59.7
796.629	59.68
796.941	59.65
797.252	59.64
797.564	59.65
797.875	59.66
798.186	59.62
798.497	59.63
798.809	59.62
799.12	59.63
799.431	59.64
799.742	59.68
800.053	59.71
800.364	59.72
800.675	59.69
800.986	59.69
801.297	59.75
801.608	59.78
801.918	59.8
802.229	59.74
802.54	59.78
802.851	59.77
803.161	59.79
803.472	59.81
803.782	59.84
804.093	59.84
804.403	59.88
804.714	59.89
805.024	59.87
805.334	59.85
805.645	59.89
805.955	59.9
806.265	59.86
806.575	59.91
806.885	59.91
807.195	59.88
807.505	59.86
807.815	59.79
808.125	59.87
808.435	59.91
808.745	59.96
809.055	60.05
809.365	60.12
809.674	60.18
809.984	60.14
810.294	60.13
810.603	60.19
810.913	60.25
811.222	60.31
811.532	60.28
811.841	60.27
812.151	60.27
812.46	60.26
812.769	60.25
813.079	60.28
813.388	60.33
813.697	60.36
814.006	60.37
814.315	60.3
814.624	60.25
814.933	60.26
815.242	60.23
815.551	60.25
815.86	60.23
816.169	60.22
816.478	60.27
816.786	60.31
817.095	60.32
817.404	60.33
817.712	60.38
818.021	60.42
818.33	60.41
818.638	60.47
818.947	60.52
819.255	60.52
819.563	60.52
819.872	60.57
820.18	60.59
820.488	60.65
820.796	60.64
821.105	60.64
821.413	60.64
821.721	60.63
822.029	60.63
822.337	60.6
822.645	60.63
822.953	60.61
823.26	60.62
823.568	60.62
823.876	60.59
824.184	60.63
824.491	60.66
824.799	60.66
825.107	60.67
825.414	60.67
825.722	60.67
826.029	60.67
826.337	60.67
826.644	60.65
826.951	60.68
827.259	60.7
827.566	60.74
827.873	60.75
828.18	60.77
828.488	60.78
828.795	60.78
829.102	60.75
829.409	60.75
829.716	60.74
830.023	60.74
830.329	60.74
830.636	60.75
830.943	60.75
831.25	60.7
831.557	60.71
831.863	60.72
832.17	60.74
832.476	60.69
832.783	60.67
833.089	60.6
833.396	60.6
833.702	60.58
834.009	60.6
834.315	60.58
834.621	60.57
834.928	60.57
835.234	60.52
835.54	60.52
835.846	60.52
836.152	60.56
836.458	60.59
836.764	60.55
837.07	60.49
837.376	60.54
837.682	60.48
837.988	60.46
838.293	60.47
838.599	60.43
838.905	60.41
839.211	60.46
839.516	60.41
839.822	60.4
840.127	60.32
840.433	60.32
840.738	60.26
841.044	60.34
841.349	60.31
841.654	60.26
841.959	60.2
842.265	60.26
842.57	60.24
842.875	60.31
843.18	60.25
843.485	60.25
843.79	60.37
844.095	60.28
844.4	60.33
844.705	60.31
845.01	60.28
845.315	60.37
845.619	60.41
845.924	60.33
846.229	60.36
846.533	60.25
846.838	60.32
847.142	60.25
847.447	60.33
847.751	60.37
848.056	60.4
848.36	60.39
848.664	60.24
848.969	60.36
849.273	60.31
849.577	60.36
849.881	60.23
850.185	60.31
850.489	60.31
850.794	60.32
851.097	60.45
851.401	60.47
851.705	60.43
852.009	60.62
852.313	60.7
852.617	60.7
852.92	60.71
853.224	60.65
853.528	60.52
853.831	60.58
854.135	60.85
854.438	60.89
854.742	60.8
855.045	60.88
855.349	60.92
855.652	61.07
855.955	61.1
856.259	60.99
856.562	61.17
856.865	60.96
857.168	60.86
857.471	61.01
857.774	60.95
858.077	61.01
858.38	61.23
858.683	61.36
858.986	61.37
859.289	61.29
859.592	61.35
859.894	61.27
860.197	61.35
860.5	61.44
860.802	61.34
861.105	61.44
861.407	61.33
861.71	61.39
862.012	61.41
862.315	61.5
862.617	61.41
862.919	61.39
863.222	61.37
863.524	61.36
863.826	61.35
864.128	61.33
864.43	61.2
864.732	61.1
865.034	61.2
865.336	61.22
865.638	61.21
865.94	61.21
866.242	61.13
866.544	61.06
866.846	60.93
867.147	60.96
867.449	61.04
867.751	60.94
868.052	60.87
868.354	60.8
868.655	60.73
868.957	60.53
869.258	60.58
869.56	60.73
869.861	60.71
870.162	60.77
870.463	60.73
870.765	60.81
871.066	60.7
871.367	60.78
871.668	60.82
871.969	60.89
872.27	60.85
872.571	60.84
872.872	60.77
873.173	60.84
873.473	60.79
873.774	60.8
874.075	60.78
874.376	60.73
874.676	60.69
874.977	60.88
875.277	60.93
875.578	60.93
875.878	60.94
876.179	60.89
876.479	60.95
876.78	61.01
877.08	61.14
877.38	61.01
877.68	61.06
877.981	61.25
878.281	61.15
878.581	61.33
