Data from UWBM122453_Reflection_00006.txt Node
Date: Sun May 02 12:40:10 EDT 2021
User: vgr7
Spectrometer: USB2G7710
Scans to average: 10
Trigger mode: 4
Integration Time (sec): 1.000000E-1
Electric dark correction enabled: true
Boxcar width: 20
XAxis mode: Wavelengths
Number of Pixels in Spectrum: 2048
>>>>>Begin Spectral Data<<<<<
177.721	99.84
178.105	100.73
178.488	100.67
178.871	101.44
179.254	101.73
179.636	101.02
180.019	99.38
180.402	97.37
180.785	94.47
181.168	91.57
181.55	88.93
181.933	109.91
182.316	113.18
182.698	114.12
183.081	114.67
183.463	116.55
183.846	119.79
184.228	121.33
184.611	123.36
184.993	128.26
185.376	131.59
185.758	-102.89
186.14	-54.34
186.522	-25.56
186.904	-9.63
187.287	1.95
187.669	5.75
188.051	8.4
188.433	14.06
188.815	12.06
189.197	12.7
189.579	11.54
189.961	12.38
190.342	11.76
190.724	14.96
191.106	13.19
191.488	13.91
191.869	7.8
192.251	8.03
192.633	5.52
193.014	2.97
193.396	3.24
193.777	9.27
194.159	10
194.54	7.1
194.922	6.33
195.303	8.02
195.684	8.41
196.065	9.59
196.447	8.27
196.828	8.42
197.209	10.46
197.59	-0.5
197.971	-0.44
198.352	-0.2
198.733	2.79
199.114	2.99
199.495	4.04
199.876	4.55
200.257	3.32
200.638	2.47
201.018	-3.43
201.399	-3.86
201.78	-4.31
202.16	-4.09
202.541	-4.39
202.922	-2.56
203.302	-5.61
203.683	-5.48
204.063	-5.78
204.444	-6.11
204.824	-3.51
205.204	-1.22
205.585	5.73
205.965	5.83
206.345	6.16
206.725	0.46
207.106	0.35
207.486	-0.39
207.866	-0.19
208.246	-0.84
208.626	1.67
209.006	6.06
209.386	2.57
209.766	2.12
210.145	1.26
210.525	-0.26
210.905	-0.5
211.285	0.11
211.664	-2.09
212.044	-1.31
212.424	-0.71
212.803	-5.59
213.183	-3.15
213.562	-3.63
213.942	-3.57
214.321	-5.82
214.701	-6.33
215.08	-6.18
215.459	-7.39
215.838	-8.59
216.218	-8.59
216.597	-8.58
216.976	-11.9
217.355	-10.9
217.734	-10.45
218.113	-9.32
218.492	-8.53
218.871	-7.3
219.25	-6.8
219.629	-8.36
220.008	-7.31
220.387	-7.48
220.766	-6.78
221.144	-7.84
221.523	-6.71
221.902	-5.37
222.28	-3.39
222.659	-1.74
223.037	-0.09
223.416	0.71
223.794	2.52
224.173	2.84
224.551	2.42
224.929	2.64
225.308	3.34
225.686	3.79
226.064	4.48
226.442	4.75
226.821	4.44
227.199	4.16
227.577	3.36
227.955	2.42
228.333	2.58
228.711	2.29
229.089	3.05
229.467	2.72
229.845	3.41
230.222	3.39
230.6	4.12
230.978	4.48
231.356	4.27
231.733	4.35
232.111	4.44
232.488	4.34
232.866	4.33
233.243	4.12
233.621	4.18
233.998	4.02
234.376	4.2
234.753	4.33
235.13	4.7
235.508	5.21
235.885	5.35
236.262	5.4
236.639	5.69
237.016	5.75
237.393	5.6
237.77	5.52
238.147	5.48
238.524	5.44
238.901	5.45
239.278	5.46
239.655	5.43
240.032	5.37
240.409	5.49
240.785	5.55
241.162	5.64
241.539	5.59
241.915	5.6
242.292	5.63
242.668	5.63
243.045	5.69
243.421	5.58
243.798	5.55
244.174	5.57
244.551	5.51
244.927	5.32
245.303	5.25
245.679	5.29
246.056	5.24
246.432	5.2
246.808	4.98
247.184	4.99
247.56	4.94
247.936	4.95
248.312	4.93
248.688	4.99
249.064	4.96
249.44	4.95
249.815	4.92
250.191	4.85
250.567	4.8
250.943	4.89
251.318	4.9
251.694	4.82
252.069	4.77
252.445	4.76
252.82	4.88
253.196	4.88
253.571	4.83
253.947	4.91
254.322	4.89
254.697	5.02
255.073	5
255.448	5.02
255.823	4.98
256.198	4.9
256.573	4.69
256.948	4.66
257.323	4.65
257.698	4.58
258.073	4.57
258.448	4.43
258.823	4.44
259.198	4.44
259.573	4.47
259.948	4.51
260.322	4.49
260.697	4.5
261.072	4.5
261.446	4.48
261.821	4.48
262.195	4.46
262.57	4.43
262.944	4.43
263.319	4.4
263.693	4.4
264.067	4.42
264.442	4.52
264.816	4.5
265.19	4.5
265.564	4.54
265.938	4.51
266.313	4.54
266.687	4.5
267.061	4.5
267.435	4.48
267.809	4.47
268.183	4.44
268.556	4.46
268.93	4.48
269.304	4.44
269.678	4.4
270.051	4.36
270.425	4.35
270.799	4.34
271.172	4.33
271.546	4.35
271.919	4.35
272.293	4.35
272.666	4.36
273.04	4.37
273.413	4.3
273.787	4.31
274.16	4.32
274.533	4.33
274.906	4.3
275.279	4.31
275.653	4.3
276.026	4.27
276.399	4.23
276.772	4.23
277.145	4.25
277.518	4.26
277.891	4.28
278.263	4.31
278.636	4.33
279.009	4.35
279.382	4.33
279.755	4.28
280.127	4.3
280.5	4.29
280.872	4.28
281.245	4.4
281.617	4.4
281.99	4.41
282.362	4.45
282.735	4.43
283.107	4.41
283.479	4.41
283.852	4.42
284.224	4.42
284.596	4.42
284.968	4.31
285.34	4.3
285.713	4.28
286.085	4.2
286.457	4.19
286.829	4.16
287.201	4.16
287.572	4.21
287.944	4.21
288.316	4.24
288.688	4.26
289.06	4.25
289.431	4.25
289.803	4.24
290.175	4.24
290.546	4.24
290.918	4.24
291.289	4.22
291.661	4.23
292.032	4.18
292.403	4.19
292.775	4.29
293.146	4.28
293.517	4.29
293.889	4.36
294.26	4.35
294.631	4.36
295.002	4.4
295.373	4.42
295.744	4.43
296.115	4.42
296.486	4.35
296.857	4.35
297.228	4.34
297.599	4.32
297.97	4.31
298.34	4.33
298.711	4.27
299.082	4.27
299.452	4.29
299.823	4.32
300.194	4.32
300.564	4.31
300.935	4.33
301.305	4.32
301.676	4.31
302.046	4.31
302.416	4.31
302.787	4.3
303.157	4.22
303.527	4.23
303.897	4.23
304.267	4.23
304.637	4.24
305.008	4.24
305.378	4.25
305.748	4.24
306.117	4.29
306.487	4.34
306.857	4.39
307.227	4.37
307.597	4.35
307.967	4.32
308.336	4.32
308.706	4.33
309.076	4.33
309.445	4.32
309.815	4.19
310.184	4.17
310.554	4.12
310.923	4.14
311.293	4.16
311.662	4.17
312.031	4.15
312.401	4.14
312.77	4.12
313.139	4.11
313.508	4.12
313.877	4.07
314.246	4.05
314.616	4.01
314.985	3.95
315.353	3.94
315.722	3.95
316.091	3.94
316.46	3.92
316.829	3.93
317.198	3.95
317.567	4.07
317.935	4.07
318.304	4.11
318.672	4.12
319.041	4.12
319.41	4.13
319.778	4.14
320.147	4.16
320.515	4.15
320.883	4.13
321.252	4.08
321.62	4.11
321.988	4.11
322.357	4.12
322.725	4.18
323.093	4.2
323.461	4.19
323.829	4.17
324.197	4.16
324.565	4.15
324.933	4.17
325.301	4.15
325.669	4.14
326.037	4.13
326.405	4.09
326.772	4.06
327.14	4.05
327.508	4.03
327.875	4.03
328.243	4.04
328.61	4.01
328.978	4.02
329.346	4.01
329.713	3.98
330.08	3.99
330.448	3.98
330.815	3.95
331.182	3.95
331.55	3.93
331.917	3.95
332.284	3.95
332.651	3.97
333.018	3.96
333.385	3.97
333.752	3.97
334.119	3.97
334.486	3.97
334.853	3.94
335.22	3.93
335.587	3.92
335.954	3.92
336.32	3.93
336.687	3.93
337.054	3.91
337.42	3.92
337.787	3.91
338.153	3.93
338.52	3.97
338.886	4.01
339.253	3.99
339.619	3.96
339.986	3.93
340.352	3.93
340.718	3.94
341.084	3.94
341.451	3.92
341.817	3.91
342.183	3.9
342.549	3.93
342.915	3.92
343.281	3.94
343.647	3.93
344.013	3.95
344.379	3.97
344.745	3.97
345.11	3.97
345.476	3.98
345.842	3.99
346.208	3.97
346.573	3.96
346.939	3.97
347.304	3.96
347.67	3.95
348.035	3.96
348.401	3.95
348.766	3.95
349.132	3.95
349.497	3.97
349.862	3.98
350.228	4
350.593	4.01
350.958	3.99
351.323	3.97
351.688	3.98
352.053	3.96
352.418	3.96
352.783	3.95
353.148	3.95
353.513	3.93
353.878	3.93
354.243	3.93
354.608	3.93
354.972	3.94
355.337	3.93
355.702	3.91
356.066	3.91
356.431	3.91
356.795	3.92
357.16	3.9
357.524	3.89
357.889	3.89
358.253	3.89
358.618	3.9
358.982	3.91
359.346	3.91
359.71	3.91
360.075	3.92
360.439	3.92
360.803	3.91
361.167	3.91
361.531	3.92
361.895	3.93
362.259	3.92
362.623	3.92
362.987	3.92
363.351	3.93
363.714	3.93
364.078	3.93
364.442	3.93
364.806	3.94
365.169	3.92
365.533	3.91
365.896	3.91
366.26	3.92
366.623	3.92
366.987	3.91
367.35	3.92
367.714	3.93
368.077	3.94
368.44	3.94
368.803	3.95
369.167	3.95
369.53	3.95
369.893	3.95
370.256	3.95
370.619	3.97
370.982	3.97
371.345	3.96
371.708	3.96
372.071	3.96
372.434	3.97
372.797	3.98
373.159	4
373.522	3.99
373.885	3.98
374.247	3.97
374.61	3.96
374.973	3.95
375.335	3.94
375.698	3.95
376.06	3.94
376.423	3.94
376.785	3.94
377.147	3.93
377.51	3.95
377.872	3.95
378.234	3.95
378.596	3.97
378.958	3.98
379.321	3.99
379.683	3.98
380.045	3.98
380.407	3.99
380.769	3.98
381.13	3.99
381.492	4
381.854	4.01
382.216	4.01
382.578	4.02
382.939	4.02
383.301	4.01
383.663	4.02
384.024	4.02
384.386	4.02
384.747	4.02
385.109	4.02
385.47	4.01
385.832	4.02
386.193	4.02
386.554	4.03
386.916	4.03
387.277	4.03
387.638	4.05
387.999	4.05
388.36	4.06
388.721	4.06
389.082	4.07
389.443	4.07
389.804	4.07
390.165	4.08
390.526	4.08
390.887	4.08
391.248	4.08
391.609	4.09
391.969	4.09
392.33	4.09
392.691	4.09
393.051	4.09
393.412	4.09
393.772	4.1
394.133	4.1
394.493	4.1
394.854	4.1
395.214	4.1
395.574	4.09
395.935	4.09
396.295	4.08
396.655	4.08
397.015	4.08
397.376	4.07
397.736	4.08
398.096	4.08
398.456	4.08
398.816	4.1
399.176	4.08
399.535	4.1
399.895	4.1
400.255	4.1
400.615	4.1
400.975	4.11
401.334	4.11
401.694	4.11
402.054	4.11
402.413	4.09
402.773	4.09
403.132	4.1
403.492	4.1
403.851	4.1
404.211	4.1
404.57	4.11
404.929	4.12
405.288	4.12
405.648	4.13
406.007	4.14
406.366	4.14
406.725	4.16
407.084	4.15
407.443	4.15
407.802	4.15
408.161	4.15
408.52	4.15
408.879	4.15
409.238	4.15
409.596	4.15
409.955	4.17
410.314	4.18
410.673	4.18
411.031	4.19
411.39	4.2
411.748	4.21
412.107	4.22
412.465	4.23
412.824	4.26
413.182	4.28
413.54	4.31
413.899	4.33
414.257	4.37
414.615	4.41
414.974	4.44
415.332	4.48
415.69	4.53
416.048	4.55
416.406	4.6
416.764	4.64
417.122	4.67
417.48	4.71
417.838	4.74
418.195	4.77
418.553	4.79
418.911	4.81
419.269	4.81
419.626	4.81
419.984	4.81
420.342	4.79
420.699	4.77
421.057	4.75
421.414	4.73
421.772	4.72
422.129	4.71
422.486	4.71
422.844	4.7
423.201	4.7
423.558	4.7
423.915	4.7
424.273	4.7
424.63	4.7
424.987	4.7
425.344	4.7
425.701	4.7
426.058	4.7
426.415	4.7
426.772	4.7
427.128	4.69
427.485	4.68
427.842	4.68
428.199	4.67
428.555	4.65
428.912	4.63
429.269	4.6
429.625	4.59
429.982	4.56
430.338	4.53
430.695	4.51
431.051	4.47
431.407	4.45
431.764	4.44
432.12	4.41
432.476	4.4
432.832	4.39
433.189	4.4
433.545	4.4
433.901	4.42
434.257	4.44
434.613	4.47
434.969	4.5
435.325	4.53
435.681	4.58
436.036	4.59
436.392	4.61
436.748	4.63
437.104	4.63
437.459	4.65
437.815	4.67
438.171	4.69
438.526	4.72
438.882	4.75
439.237	4.78
439.593	4.82
439.948	4.85
440.304	4.89
440.659	4.91
441.014	4.93
441.369	4.96
441.725	4.98
442.08	5
442.435	5.01
442.79	5.01
443.145	5.02
443.5	5.02
443.855	5.02
444.21	5.02
444.565	5.01
444.92	5
445.275	4.99
445.629	4.98
445.984	4.98
446.339	4.97
446.693	4.96
447.048	4.94
447.403	4.93
447.757	4.9
448.112	4.88
448.466	4.86
448.82	4.84
449.175	4.82
449.529	4.8
449.883	4.78
450.238	4.76
450.592	4.75
450.946	4.75
451.3	4.75
451.654	4.76
452.008	4.76
452.362	4.77
452.716	4.77
453.07	4.77
453.424	4.77
453.778	4.77
454.132	4.75
454.486	4.74
454.839	4.72
455.193	4.7
455.547	4.69
455.9	4.66
456.254	4.63
456.607	4.6
456.961	4.58
457.314	4.56
457.668	4.55
458.021	4.54
458.375	4.53
458.728	4.54
459.081	4.54
459.434	4.55
459.787	4.56
460.141	4.57
460.494	4.57
460.847	4.57
461.2	4.58
461.553	4.59
461.906	4.6
462.259	4.61
462.611	4.61
462.964	4.61
463.317	4.62
463.67	4.62
464.022	4.63
464.375	4.63
464.728	4.63
465.08	4.63
465.433	4.63
465.785	4.63
466.138	4.61
466.49	4.59
466.843	4.57
467.195	4.55
467.547	4.52
467.899	4.5
468.252	4.47
468.604	4.44
468.956	4.42
469.308	4.4
469.66	4.39
470.012	4.39
470.364	4.39
470.716	4.4
471.068	4.41
471.42	4.43
471.772	4.46
472.123	4.46
472.475	4.48
472.827	4.49
473.178	4.49
473.53	4.5
473.882	4.52
474.233	4.54
474.585	4.58
474.936	4.65
475.288	4.74
475.639	4.87
475.99	5.01
476.342	5.18
476.693	5.35
477.044	5.53
477.395	5.71
477.746	5.89
478.097	6.08
478.448	6.27
478.8	6.46
479.15	6.63
479.501	6.79
479.852	6.93
480.203	7.06
480.554	7.19
480.905	7.32
481.255	7.44
481.606	7.55
481.957	7.66
482.307	7.76
482.658	7.86
483.009	7.95
483.359	8.05
483.709	8.13
484.06	8.22
484.41	8.3
484.761	8.38
485.111	8.45
485.461	8.52
485.811	8.59
486.162	8.65
486.512	8.7
486.862	8.74
487.212	8.77
487.562	8.8
487.912	8.81
488.262	8.81
488.612	8.81
488.961	8.79
489.311	8.75
489.661	8.67
490.011	8.57
490.36	8.46
490.71	8.32
491.06	8.17
491.409	8.02
491.759	7.86
492.108	7.69
492.458	7.52
492.807	7.34
493.157	7.16
493.506	6.99
493.855	6.82
494.204	6.67
494.554	6.53
494.903	6.4
495.252	6.27
495.601	6.14
495.95	6.02
496.299	5.91
496.648	5.8
496.997	5.69
497.346	5.6
497.695	5.5
498.043	5.41
498.392	5.33
498.741	5.24
499.09	5.15
499.438	5.07
499.787	5
500.135	4.93
500.484	4.87
500.832	4.82
501.181	4.77
501.529	4.74
501.878	4.73
502.226	4.71
502.574	4.71
502.923	4.7
503.271	4.7
503.619	4.7
503.967	4.7
504.315	4.7
504.663	4.69
505.011	4.68
505.359	4.68
505.707	4.67
506.055	4.67
506.403	4.67
506.751	4.67
507.098	4.67
507.446	4.68
507.794	4.69
508.141	4.7
508.489	4.72
508.837	4.74
509.184	4.75
509.531	4.77
509.879	4.77
510.226	4.79
510.574	4.8
510.921	4.82
511.268	4.83
511.616	4.85
511.963	4.87
512.31	4.89
512.657	4.91
513.004	4.93
513.351	4.94
513.698	4.95
514.045	4.95
514.392	4.96
514.739	4.95
515.086	4.95
515.432	4.95
515.779	4.94
516.126	4.94
516.473	4.95
516.819	4.95
517.166	4.95
517.512	4.97
517.859	4.98
518.205	5
518.552	5.02
518.898	5.06
519.245	5.1
519.591	5.16
519.937	5.23
520.283	5.33
520.629	5.44
520.976	5.56
521.322	5.68
521.668	5.81
522.014	5.93
522.36	6.05
522.706	6.17
523.052	6.29
523.398	6.4
523.743	6.5
524.089	6.58
524.435	6.65
524.781	6.72
525.126	6.78
525.472	6.84
525.817	6.89
526.163	6.95
526.509	7
526.854	7.05
527.199	7.1
527.545	7.15
527.89	7.2
528.235	7.25
528.581	7.3
528.926	7.35
529.271	7.39
529.616	7.43
529.961	7.46
530.306	7.48
530.651	7.52
530.996	7.53
531.341	7.54
531.686	7.55
532.031	7.54
532.376	7.55
532.721	7.54
533.065	7.55
533.41	7.55
533.755	7.54
534.099	7.5
534.444	7.47
534.788	7.42
535.133	7.38
535.477	7.33
535.822	7.27
536.166	7.21
536.51	7.13
536.855	7.05
537.199	6.97
537.543	6.88
537.887	6.8
538.231	6.74
538.576	6.67
538.92	6.61
539.264	6.55
539.608	6.49
539.951	6.43
540.295	6.36
540.639	6.29
540.983	6.22
541.327	6.17
541.671	6.1
542.014	6.04
542.358	5.98
542.701	5.93
543.045	5.9
543.389	5.87
543.732	5.84
544.075	5.83
544.419	5.81
544.762	5.78
545.105	5.77
545.449	5.76
545.792	5.76
546.135	5.75
546.478	5.74
546.821	5.71
547.165	5.68
547.508	5.63
547.851	5.58
548.194	5.53
548.536	5.46
548.879	5.39
549.222	5.32
549.565	5.24
549.908	5.17
550.25	5.1
550.593	5.04
550.936	4.99
551.278	4.95
551.621	4.92
551.963	4.89
552.306	4.87
552.648	4.85
552.991	4.83
553.333	4.81
553.675	4.81
554.017	4.81
554.36	4.81
554.702	4.82
555.044	4.83
555.386	4.85
555.728	4.86
556.07	4.86
556.412	4.87
556.754	4.87
557.096	4.87
557.438	4.88
557.78	4.88
558.121	4.88
558.463	4.88
558.805	4.88
559.147	4.88
559.488	4.88
559.83	4.88
560.171	4.89
560.513	4.89
560.854	4.88
561.196	4.87
561.537	4.88
561.878	4.88
562.22	4.88
562.561	4.87
562.902	4.88
563.243	4.89
563.584	4.89
563.925	4.89
564.266	4.89
564.607	4.89
564.948	4.9
565.289	4.9
565.63	4.91
565.971	4.91
566.312	4.91
566.653	4.92
566.993	4.91
567.334	4.92
567.675	4.92
568.015	4.93
568.356	4.94
568.696	4.94
569.037	4.94
569.377	4.94
569.718	4.94
570.058	4.95
570.398	4.95
570.739	4.95
571.079	4.95
571.419	4.95
571.759	4.95
572.099	4.95
572.439	4.95
572.779	4.95
573.119	4.96
573.459	4.95
573.799	4.95
574.139	4.96
574.479	4.96
574.819	4.96
575.158	4.96
575.498	4.96
575.838	4.96
576.177	4.96
576.517	4.96
576.856	4.96
577.196	4.96
577.535	4.95
577.875	4.95
578.214	4.95
578.553	4.95
578.893	4.94
579.232	4.95
579.571	4.94
579.91	4.93
580.25	4.93
580.589	4.92
580.928	4.91
581.267	4.91
581.606	4.9
581.945	4.9
582.283	4.9
582.622	4.9
582.961	4.9
583.3	4.91
583.639	4.91
583.977	4.91
584.316	4.91
584.654	4.92
584.993	4.92
585.332	4.91
585.67	4.9
586.008	4.9
586.347	4.9
586.685	4.9
587.024	4.9
587.362	4.9
587.7	4.9
588.038	4.9
588.376	4.9
588.715	4.91
589.053	4.91
589.391	4.91
589.729	4.91
590.067	4.91
590.404	4.91
590.742	4.91
591.08	4.91
591.418	4.91
591.756	4.92
592.093	4.93
592.431	4.94
592.769	4.94
593.106	4.95
593.444	4.95
593.781	4.95
594.119	4.95
594.456	4.95
594.793	4.96
595.131	4.96
595.468	4.96
595.805	4.96
596.143	4.96
596.48	4.96
596.817	4.97
597.154	4.97
597.491	4.97
597.828	4.97
598.165	4.98
598.502	4.98
598.839	4.98
599.176	4.98
599.512	4.98
599.849	4.99
600.186	4.99
600.523	4.99
600.859	4.99
601.196	4.99
601.532	5
601.869	5
602.205	5
602.542	5
602.878	5
603.215	4.99
603.551	4.99
603.887	4.99
604.223	4.99
604.56	4.99
604.896	4.99
605.232	4.99
605.568	4.99
605.904	4.99
606.24	4.99
606.576	5
606.912	5
607.248	5
607.583	5
607.919	5
608.255	5
608.591	5
608.926	5
609.262	5
609.597	5.01
609.933	5.01
610.268	5.02
610.604	5.03
610.939	5.04
611.275	5.03
611.61	5.03
611.945	5.02
612.281	5.03
612.616	5.02
612.951	5.01
613.286	5.01
613.621	5
613.956	5
614.291	5
614.626	5
614.961	5.01
615.296	5.01
615.631	5.01
615.966	5.01
616.3	5.02
616.635	5.02
616.97	5.02
617.304	5.01
617.639	5.01
617.973	5.01
618.308	5.01
618.642	5
618.977	5
619.311	4.99
619.646	5
619.98	5.01
620.314	5
620.648	5.01
620.983	5.01
621.317	5.01
621.651	5.01
621.985	5.01
622.319	5
622.653	5
622.987	5
623.321	4.99
623.655	4.99
623.988	4.99
624.322	4.98
624.656	4.99
624.99	4.98
625.323	4.98
625.657	4.99
625.99	5
626.324	5
626.657	5
626.991	5.01
627.324	5
627.658	5.01
627.991	5.01
628.324	5.01
628.657	5.01
628.991	5.02
629.324	5.02
629.657	5.03
629.99	5.03
630.323	5.04
630.656	5.04
630.989	5.04
631.322	5.05
631.655	5.05
631.987	5.04
632.32	5.05
632.653	5.05
632.986	5.05
633.318	5.04
633.651	5.03
633.984	5.03
634.316	5.04
634.649	5.04
634.981	5.04
635.313	5.04
635.646	5.04
635.978	5.04
636.31	5.03
636.643	5.02
636.975	5.03
637.307	5.03
637.639	5.03
637.971	5.03
638.303	5.04
638.635	5.04
638.967	5.04
639.299	5.04
639.631	5.05
639.963	5.06
640.295	5.07
640.626	5.08
640.958	5.09
641.29	5.09
641.621	5.09
641.953	5.1
642.285	5.11
642.616	5.12
642.948	5.12
643.279	5.13
643.61	5.13
643.942	5.12
644.273	5.12
644.604	5.12
644.936	5.12
645.267	5.11
645.598	5.12
645.929	5.12
646.26	5.13
646.591	5.13
646.922	5.14
647.253	5.14
647.584	5.14
647.915	5.15
648.245	5.16
648.576	5.17
648.907	5.16
649.238	5.16
649.568	5.16
649.899	5.16
650.229	5.18
650.56	5.19
650.89	5.2
651.221	5.2
651.551	5.21
651.882	5.21
652.212	5.21
652.542	5.2
652.872	5.21
653.203	5.22
653.533	5.22
653.863	5.21
654.193	5.2
654.523	5.2
654.853	5.2
655.183	5.2
655.513	5.19
655.843	5.2
656.172	5.2
656.502	5.2
656.832	5.19
657.162	5.19
657.491	5.19
657.821	5.19
658.15	5.18
658.48	5.18
658.809	5.18
659.139	5.19
659.468	5.21
659.798	5.21
660.127	5.21
660.456	5.25
660.785	5.25
661.115	5.26
661.444	5.27
661.773	5.27
662.102	5.27
662.431	5.28
662.76	5.28
663.089	5.28
663.418	5.29
663.747	5.29
664.076	5.29
664.404	5.29
664.733	5.3
665.062	5.32
665.39	5.33
665.719	5.33
666.048	5.33
666.376	5.33
666.705	5.32
667.033	5.3
667.362	5.29
667.69	5.3
668.018	5.29
668.347	5.29
668.675	5.27
669.003	5.29
669.331	5.29
669.659	5.29
669.987	5.29
670.315	5.3
670.643	5.32
670.971	5.32
671.299	5.32
671.627	5.32
671.955	5.32
672.283	5.33
672.61	5.33
672.938	5.35
673.266	5.36
673.593	5.36
673.921	5.36
674.249	5.37
674.576	5.38
674.904	5.39
675.231	5.39
675.558	5.4
675.886	5.42
676.213	5.42
676.54	5.43
676.867	5.43
677.195	5.43
677.522	5.44
677.849	5.47
678.176	5.48
678.503	5.49
678.83	5.48
679.157	5.49
679.484	5.48
679.81	5.47
680.137	5.47
680.464	5.49
680.791	5.49
681.117	5.48
681.444	5.48
681.771	5.48
682.097	5.48
682.424	5.47
682.75	5.46
683.077	5.46
683.403	5.47
683.729	5.45
684.056	5.46
684.382	5.46
684.708	5.45
685.034	5.47
685.36	5.46
685.686	5.48
686.012	5.49
686.339	5.5
686.664	5.5
686.99	5.5
687.316	5.5
687.642	5.52
687.968	5.54
688.294	5.54
688.619	5.55
688.945	5.56
689.271	5.56
689.596	5.56
689.922	5.59
690.247	5.59
690.573	5.6
690.898	5.62
691.224	5.62
691.549	5.61
691.874	5.59
692.2	5.62
692.525	5.62
692.85	5.6
693.175	5.61
693.5	5.64
693.825	5.64
694.15	5.63
694.475	5.63
694.8	5.63
695.125	5.64
695.45	5.68
695.775	5.67
696.099	5.67
696.424	5.68
696.749	5.68
697.073	5.7
697.398	5.68
697.723	5.68
698.047	5.68
698.372	5.69
698.696	5.66
699.02	5.65
699.345	5.65
699.669	5.65
699.993	5.65
700.318	5.63
700.642	5.64
700.966	5.64
701.29	5.62
701.614	5.63
701.938	5.64
702.262	5.64
702.586	5.64
702.91	5.65
703.234	5.66
703.557	5.64
703.881	5.64
704.205	5.65
704.529	5.68
704.852	5.65
705.176	5.68
705.499	5.7
705.823	5.7
706.146	5.71
706.47	5.71
706.793	5.71
707.117	5.84
707.44	5.86
707.763	5.84
708.086	5.84
708.409	5.84
708.733	5.82
709.056	5.83
709.379	5.82
709.702	5.85
710.025	5.85
710.348	5.69
710.671	5.69
710.993	5.7
711.316	5.69
711.639	5.7
711.962	5.7
712.284	5.72
712.607	5.74
712.93	5.75
713.252	5.78
713.575	5.77
713.897	5.75
714.22	5.76
714.542	5.81
714.864	5.87
715.187	5.9
715.509	5.91
715.831	5.9
716.153	5.92
716.475	5.9
716.798	5.89
717.12	6.07
717.442	6.08
717.764	6.05
718.085	5.98
718.407	5.99
718.729	5.97
719.051	5.97
719.373	5.98
719.695	5.98
720.016	5.98
720.338	5.89
720.659	5.92
720.981	5.94
721.302	5.94
721.624	5.94
721.945	5.95
722.267	5.95
722.588	5.96
722.909	5.97
723.231	6.02
723.552	6.01
723.873	6.03
724.194	6.03
724.515	6.06
724.836	6.19
725.157	6.21
725.478	6.21
725.799	6.2
726.12	6.2
726.441	6.18
726.762	6.21
727.083	6.18
727.403	6.19
727.724	6.16
728.045	6.09
728.365	6.1
728.686	6.14
729.006	6.16
729.327	6.16
729.647	6.14
729.967	6.13
730.288	6.14
730.608	6.15
730.928	6.18
731.249	6.18
731.569	6.18
731.889	6.19
732.209	6.22
732.529	6.24
732.849	6.25
733.169	6.25
733.489	6.24
733.809	6.25
734.129	6.24
734.448	6.27
734.768	6.26
735.088	6.28
735.408	6.29
735.727	6.29
736.047	6.31
736.366	6.3
736.686	6.32
737.005	6.34
737.325	6.31
737.644	6.31
737.963	6.3
738.283	6.3
738.602	6.3
738.921	6.33
739.24	6.32
739.56	6.32
739.879	6.32
740.198	6.36
740.517	6.37
740.836	6.37
741.155	6.35
741.473	6.39
741.792	6.39
742.111	6.41
742.43	6.42
742.748	6.42
743.067	6.41
743.386	6.43
743.704	6.44
744.023	6.49
744.341	6.47
744.66	6.5
744.978	6.44
745.297	6.46
745.615	6.4
745.933	6.42
746.252	6.42
746.57	6.36
746.888	6.35
747.206	6.37
747.524	6.35
747.842	6.38
748.16	6.37
748.478	6.37
748.796	6.35
749.114	6.3
749.432	6.3
749.749	6.32
750.067	6.32
750.385	6.33
750.703	6.33
751.02	6.31
751.338	6.31
751.655	6.36
751.973	6.38
752.29	6.39
752.608	6.44
752.925	6.42
753.242	6.5
753.56	6.52
753.877	6.47
754.194	6.54
754.511	6.51
754.828	6.5
755.145	6.53
755.462	6.54
755.779	6.56
756.096	6.59
756.413	6.57
756.73	6.54
757.047	6.5
757.364	6.49
757.68	6.52
757.997	6.52
758.314	6.53
758.63	6.55
758.947	6.59
759.264	6.57
759.58	6.59
759.896	6.57
760.213	6.6
760.529	6.62
760.846	6.58
761.162	6.59
761.478	6.56
761.794	6.55
762.11	6.59
762.426	6.62
762.743	6.61
763.059	6.68
763.375	6.72
763.69	6.73
764.006	6.77
764.322	6.78
764.638	6.8
764.954	6.81
765.27	6.83
765.585	6.82
765.901	6.87
766.216	6.72
766.532	6.7
766.848	6.68
767.163	6.73
767.478	6.8
767.794	6.8
768.109	6.81
768.424	6.83
768.74	6.83
769.055	6.85
769.37	6.9
769.685	6.91
770	6.94
770.315	6.99
770.63	6.91
770.945	6.83
771.26	6.81
771.575	6.81
771.89	6.78
772.205	6.81
772.52	6.79
772.834	6.97
773.149	7.01
773.464	6.94
773.778	6.93
774.093	6.96
774.407	6.99
774.722	7.02
775.036	6.96
775.351	6.95
775.665	6.94
775.979	6.79
776.293	6.76
776.608	6.75
776.922	6.71
777.236	6.81
777.55	6.89
777.864	6.9
778.178	6.91
778.492	6.87
778.806	6.83
779.12	6.89
779.434	6.87
779.747	6.87
780.061	6.99
780.375	6.91
780.689	6.85
781.002	6.84
781.316	6.84
781.629	6.89
781.943	6.93
782.256	6.96
782.57	7.01
782.883	6.97
783.196	6.91
783.51	6.96
783.823	7.05
784.136	7.04
784.449	7.09
784.762	7.11
785.075	7.19
785.388	7.19
785.701	7.18
786.014	7.16
786.327	7.21
786.64	7.18
786.953	7.19
787.266	7.27
787.578	7.25
787.891	7.28
788.204	7.25
788.516	7.3
788.829	7.35
789.141	7.31
789.454	7.31
789.766	7.35
790.079	7.38
790.391	7.34
790.703	7.43
791.016	7.33
791.328	7.34
791.64	7.36
791.952	7.39
792.264	7.45
792.576	7.46
792.888	7.46
793.2	7.48
793.512	7.49
793.824	7.42
794.136	7.38
794.448	7.44
794.76	7.51
795.071	7.56
795.383	7.56
795.695	7.71
796.006	7.77
796.318	7.79
796.629	7.76
796.941	7.77
797.252	7.76
797.564	7.82
797.875	7.74
798.186	7.68
798.497	7.69
798.809	7.57
799.12	7.54
799.431	7.56
799.742	7.57
800.053	7.49
800.364	7.56
800.675	7.6
800.986	7.56
801.297	7.64
801.608	7.63
801.918	7.64
802.229	7.65
802.54	7.65
802.851	7.61
803.161	7.61
803.472	7.62
803.782	7.56
804.093	7.61
804.403	7.52
804.714	7.55
805.024	7.55
805.334	7.73
805.645	7.69
805.955	7.74
806.265	7.76
806.575	7.83
806.885	7.78
807.195	7.76
807.505	7.66
807.815	7.56
808.125	7.57
808.435	7.49
808.745	7.47
809.055	7.51
809.365	7.66
809.674	7.65
809.984	7.67
810.294	7.67
810.603	7.64
810.913	7.88
811.222	7.81
811.532	7.88
811.841	7.92
812.151	7.97
812.46	7.95
812.769	8
813.079	8.04
813.388	8.09
813.697	8.08
814.006	7.98
814.315	8.05
814.624	8.08
814.933	8.06
815.242	7.98
815.551	8.06
815.86	8.02
816.169	8.07
816.478	8.04
816.786	8.05
817.095	8.09
817.404	8.12
817.712	8.17
818.021	8.06
818.33	8.06
818.638	8.05
818.947	8.06
819.255	8.08
819.563	8.12
819.872	8.13
820.18	8.15
820.488	8.17
820.796	8.15
821.105	8.15
821.413	8.17
821.721	8.17
822.029	8.18
822.337	8.22
822.645	8.21
822.953	8.2
823.26	8.24
823.568	8.26
823.876	8.23
824.184	8.23
824.491	8.23
824.799	8.23
825.107	8.26
825.414	8.26
825.722	8.27
826.029	8.26
826.337	8.27
826.644	8.26
826.951	8.29
827.259	8.31
827.566	8.35
827.873	8.37
828.18	8.33
828.488	8.33
828.795	8.33
829.102	8.36
829.409	8.38
829.716	8.39
830.023	8.41
830.329	8.43
830.636	8.48
830.943	8.57
831.25	8.63
831.557	8.61
831.863	8.62
832.17	8.6
832.476	8.62
832.783	8.63
833.089	8.64
833.396	8.62
833.702	8.62
834.009	8.56
834.315	8.58
834.621	8.65
834.928	8.65
835.234	8.65
835.54	8.65
835.846	8.7
836.152	8.71
836.458	8.78
836.764	8.7
837.07	8.75
837.376	8.62
837.682	8.48
837.988	8.56
838.293	8.45
838.599	8.5
838.905	8.49
839.211	8.58
839.516	8.6
839.822	8.68
840.127	8.64
840.433	8.71
840.738	8.71
841.044	8.74
841.349	8.8
841.654	8.84
841.959	8.9
842.265	8.89
842.57	8.83
842.875	8.78
843.18	8.89
843.485	8.96
843.79	9.08
844.095	9.28
844.4	9.15
844.705	9.39
845.01	9.35
845.315	9.41
845.619	9.4
845.924	9.27
846.229	9.17
846.533	9.2
846.838	9.31
847.142	9.19
847.447	9.2
847.751	9.04
848.056	9.11
848.36	9.02
848.664	8.96
848.969	8.84
849.273	8.9
849.577	8.77
849.881	8.71
850.185	8.86
850.489	9.17
850.794	9.31
851.097	9.22
851.401	9.22
851.705	9.21
852.009	9.19
852.313	9.16
852.617	9.29
852.92	9.19
853.224	9.2
853.528	9.17
853.831	9.11
854.135	8.87
854.438	8.74
854.742	8.77
855.045	8.9
855.349	9
855.652	9.25
855.955	9.14
856.259	9.28
856.562	9.48
856.865	9.32
857.168	9.32
857.471	9.37
857.774	9.31
858.077	9.05
858.38	9.13
858.683	9.1
858.986	9.06
859.289	9.25
859.592	9.24
859.894	9.57
860.197	9.73
860.5	9.84
860.802	10.06
861.105	9.81
861.407	9.96
861.71	9.88
862.012	9.87
862.315	10.02
862.617	9.87
862.919	9.37
863.222	9.53
863.524	9.66
863.826	10.05
864.128	10.24
864.43	10.34
864.732	10.29
865.034	10.49
865.336	10.65
865.638	10.4
865.94	10.13
866.242	10.01
866.544	9.7
866.846	10.13
867.147	9.76
867.449	9.51
867.751	9.75
868.052	9.9
868.354	9.8
868.655	9.75
868.957	9.84
869.258	9.99
869.56	9.81
869.861	10.04
870.162	9.93
870.463	9.98
870.765	10.15
871.066	10.2
871.367	10.2
871.668	10.16
871.969	10.27
872.27	10.21
872.571	10.32
872.872	10.64
873.173	10.34
873.473	10.85
873.774	11.01
874.075	11.05
874.376	11.2
874.676	11.19
874.977	11.14
875.277	11.07
875.578	10.95
875.878	10.61
876.179	10.63
876.479	10.49
876.78	10.51
877.08	10.58
877.38	10.55
877.68	10.5
877.981	10.69
878.281	10.86
878.581	11.09
