Data from UWBM42201_Reflection_00014.txt Node
Date: Sun May 02 12:51:00 EDT 2021
User: vgr7
Spectrometer: USB2G7710
Scans to average: 10
Trigger mode: 4
Integration Time (sec): 1.000000E-1
Electric dark correction enabled: true
Boxcar width: 20
XAxis mode: Wavelengths
Number of Pixels in Spectrum: 2048
>>>>>Begin Spectral Data<<<<<
177.721	98.29
178.105	97.95
178.488	97.07
178.871	96.73
179.254	96.61
179.636	95.53
180.019	94
180.402	92.91
180.785	90.72
181.168	90.34
181.55	87.23
181.933	111.96
182.316	111.83
182.698	112.96
183.081	115.02
183.463	115.54
183.846	116.68
184.228	118.46
184.611	119.09
184.993	121.03
185.376	121.64
185.758	-59.29
186.14	-15.04
186.522	4.65
186.904	18.52
187.287	32.36
187.669	34.49
188.051	34.46
188.433	39.34
188.815	36.01
189.197	34.61
189.579	33.48
189.961	33.96
190.342	31.7
190.724	34.13
191.106	33.63
191.488	34.72
191.869	28.74
192.251	27.57
192.633	27.38
193.014	27.34
193.396	28.16
193.777	33.87
194.159	34.16
194.54	32.32
194.922	31.79
195.303	33.18
195.684	34.16
196.065	33.69
196.447	31.82
196.828	29.85
197.209	31.35
197.59	23.07
197.971	22.33
198.352	23.46
198.733	28
199.114	25.96
199.495	24.68
199.876	26.28
200.257	26.19
200.638	25.19
201.018	18.23
201.399	18.52
201.78	17.4
202.16	18.29
202.541	19.42
202.922	18.98
203.302	16.49
203.683	17.56
204.063	16.17
204.444	17.82
204.824	21.07
205.204	22.05
205.585	28.44
205.965	29.29
206.345	30.14
206.725	25.91
207.106	25.88
207.486	26.95
207.866	27.76
208.246	26.95
208.626	28.18
209.006	30.71
209.386	25.59
209.766	25.12
210.145	24.17
210.525	25.08
210.905	26.49
211.285	26.87
211.664	26.1
212.044	28.33
212.424	28.95
212.803	25.08
213.183	27.34
213.562	26.92
213.942	25.28
214.321	23.3
214.701	23.19
215.08	23.92
215.459	22.66
215.838	20.35
216.218	20.44
216.597	19.68
216.976	16.74
217.355	16.52
217.734	15.63
218.113	14.93
218.492	15.93
218.871	16.86
219.25	16.13
219.629	15.64
220.008	15.11
220.387	14.85
220.766	15.07
221.144	13.65
221.523	13.94
221.902	13.31
222.28	13.94
222.659	14.44
223.037	14.64
223.416	15.03
223.794	15.09
224.173	14.14
224.551	14.14
224.929	14.59
225.308	15.24
225.686	14.87
226.064	13.95
226.442	13.11
226.821	12.27
227.199	11.62
227.577	10.78
227.955	9.9
228.333	9.44
228.711	8.89
229.089	9.34
229.467	9
229.845	9.17
230.222	8.98
230.6	9.26
230.978	9.5
231.356	9.16
231.733	8.85
232.111	8.71
232.488	8.46
232.866	8.3
233.243	7.97
233.621	8.05
233.998	7.58
234.376	7.36
234.753	7.21
235.13	7.05
235.508	7.3
235.885	7.23
236.262	7.1
236.639	7.11
237.016	6.92
237.393	6.84
237.77	6.51
238.147	6.32
238.524	6.23
238.901	6.16
239.278	6.16
239.655	6.14
240.032	5.95
240.409	5.91
240.785	5.76
241.162	5.8
241.539	5.73
241.915	5.73
242.292	5.68
242.668	5.63
243.045	5.55
243.421	5.48
243.798	5.48
244.174	5.47
244.551	5.37
244.927	5.19
245.303	5.11
245.679	5.14
246.056	5.07
246.432	5.03
246.808	4.79
247.184	4.8
247.56	4.78
247.936	4.8
248.312	4.77
248.688	4.81
249.064	4.75
249.44	4.74
249.815	4.74
250.191	4.69
250.567	4.67
250.943	4.74
251.318	4.75
251.694	4.7
252.069	4.65
252.445	4.68
252.82	4.75
253.196	4.79
253.571	4.72
253.947	4.8
254.322	4.77
254.697	4.88
255.073	4.86
255.448	4.85
255.823	4.83
256.198	4.8
256.573	4.63
256.948	4.62
257.323	4.61
257.698	4.59
258.073	4.59
258.448	4.51
258.823	4.48
259.198	4.46
259.573	4.49
259.948	4.51
260.322	4.49
260.697	4.5
261.072	4.48
261.446	4.48
261.821	4.45
262.195	4.44
262.57	4.41
262.944	4.4
263.319	4.37
263.693	4.38
264.067	4.41
264.442	4.51
264.816	4.47
265.19	4.45
265.564	4.49
265.938	4.47
266.313	4.51
266.687	4.45
267.061	4.45
267.435	4.43
267.809	4.4
268.183	4.39
268.556	4.39
268.93	4.39
269.304	4.35
269.678	4.32
270.051	4.3
270.425	4.29
270.799	4.3
271.172	4.3
271.546	4.3
271.919	4.31
272.293	4.29
272.666	4.28
273.04	4.29
273.413	4.22
273.787	4.22
274.16	4.22
274.533	4.25
274.906	4.22
275.279	4.23
275.653	4.21
276.026	4.18
276.399	4.16
276.772	4.15
277.145	4.16
277.518	4.17
277.891	4.19
278.263	4.21
278.636	4.21
279.009	4.22
279.382	4.2
279.755	4.14
280.127	4.17
280.5	4.17
280.872	4.15
281.245	4.25
281.617	4.28
281.99	4.3
282.362	4.34
282.735	4.35
283.107	4.34
283.479	4.35
283.852	4.37
284.224	4.41
284.596	4.42
284.968	4.31
285.34	4.3
285.713	4.29
286.085	4.24
286.457	4.25
286.829	4.25
287.201	4.27
287.572	4.34
287.944	4.37
288.316	4.42
288.688	4.49
289.06	4.51
289.431	4.53
289.803	4.55
290.175	4.58
290.546	4.62
290.918	4.65
291.289	4.66
291.661	4.7
292.032	4.68
292.403	4.74
292.775	4.84
293.146	4.86
293.517	4.92
293.889	5.02
294.26	5.04
294.631	5.09
295.002	5.18
295.373	5.23
295.744	5.27
296.115	5.31
296.486	5.28
296.857	5.31
297.228	5.33
297.599	5.37
297.97	5.39
298.34	5.44
298.711	5.44
299.082	5.48
299.452	5.55
299.823	5.62
300.194	5.66
300.564	5.71
300.935	5.75
301.305	5.78
301.676	5.8
302.046	5.85
302.416	5.89
302.787	5.93
303.157	5.91
303.527	5.96
303.897	6
304.267	6.07
304.637	6.13
305.008	6.21
305.378	6.27
305.748	6.32
306.117	6.45
306.487	6.55
306.857	6.66
307.227	6.73
307.597	6.78
307.967	6.85
308.336	6.91
308.706	6.99
309.076	7.06
309.445	7.1
309.815	7.05
310.184	7.1
310.554	7.11
310.923	7.19
311.293	7.27
311.662	7.33
312.031	7.39
312.401	7.45
312.77	7.48
313.139	7.52
313.508	7.62
313.877	7.63
314.246	7.67
314.616	7.69
314.985	7.7
315.353	7.78
315.722	7.84
316.091	7.91
316.46	7.99
316.829	8.08
317.198	8.17
317.567	8.38
317.935	8.45
318.304	8.58
318.672	8.67
319.041	8.76
319.41	8.83
319.778	8.94
320.147	9.02
320.515	9.11
320.883	9.17
321.252	9.18
321.62	9.3
321.988	9.37
322.357	9.43
322.725	9.53
323.093	9.6
323.461	9.66
323.829	9.71
324.197	9.74
324.565	9.8
324.933	9.85
325.301	9.89
325.669	9.94
326.037	10.01
326.405	10.01
326.772	10.05
327.14	10.1
327.508	10.13
327.875	10.18
328.243	10.24
328.61	10.24
328.978	10.29
329.346	10.34
329.713	10.37
330.08	10.41
330.448	10.45
330.815	10.47
331.182	10.51
331.55	10.54
331.917	10.59
332.284	10.62
332.651	10.67
333.018	10.7
333.385	10.74
333.752	10.79
334.119	10.84
334.486	10.9
334.853	10.91
335.22	10.96
335.587	10.99
335.954	11.02
336.32	11.08
336.687	11.1
337.054	11.12
337.42	11.18
337.787	11.21
338.153	11.25
338.52	11.31
338.886	11.36
339.253	11.38
339.619	11.4
339.986	11.42
340.352	11.45
340.718	11.5
341.084	11.52
341.451	11.54
341.817	11.55
342.183	11.56
342.549	11.61
342.915	11.63
343.281	11.67
343.647	11.71
344.013	11.74
344.379	11.77
344.745	11.79
345.11	11.81
345.476	11.84
345.842	11.87
346.208	11.88
346.573	11.89
346.939	11.93
347.304	11.93
347.67	11.93
348.035	11.97
348.401	11.99
348.766	12.02
349.132	12.03
349.497	12.06
349.862	12.09
350.228	12.12
350.593	12.13
350.958	12.12
351.323	12.12
351.688	12.15
352.053	12.14
352.418	12.14
352.783	12.15
353.148	12.15
353.513	12.15
353.878	12.15
354.243	12.16
354.608	12.16
354.972	12.16
355.337	12.15
355.702	12.13
356.066	12.13
356.431	12.12
356.795	12.11
357.16	12.1
357.524	12.09
357.889	12.08
358.253	12.08
358.618	12.07
358.982	12.08
359.346	12.08
359.71	12.07
360.075	12.07
360.439	12.05
360.803	12.03
361.167	12.02
361.531	12.02
361.895	12
362.259	11.99
362.623	11.98
362.987	11.95
363.351	11.94
363.714	11.92
364.078	11.89
364.442	11.86
364.806	11.83
365.169	11.79
365.533	11.76
365.896	11.74
366.26	11.72
366.623	11.68
366.987	11.65
367.35	11.63
367.714	11.6
368.077	11.56
368.44	11.53
368.803	11.49
369.167	11.45
369.53	11.41
369.893	11.38
370.256	11.34
370.619	11.31
370.982	11.25
371.345	11.2
371.708	11.16
372.071	11.1
372.434	11.05
372.797	11.02
373.159	10.98
373.522	10.93
373.885	10.87
374.247	10.8
374.61	10.75
374.973	10.69
375.335	10.63
375.698	10.57
376.06	10.51
376.423	10.44
376.785	10.39
377.147	10.33
377.51	10.28
377.872	10.22
378.234	10.16
378.596	10.12
378.958	10.08
379.321	10.03
379.683	9.98
380.045	9.92
380.407	9.87
380.769	9.8
381.13	9.75
381.492	9.69
381.854	9.64
382.216	9.58
382.578	9.53
382.939	9.49
383.301	9.43
383.663	9.38
384.024	9.33
384.386	9.27
384.747	9.22
385.109	9.15
385.47	9.09
385.832	9.04
386.193	8.99
386.554	8.93
386.916	8.89
387.277	8.84
387.638	8.8
387.999	8.75
388.36	8.71
388.721	8.67
389.082	8.62
389.443	8.58
389.804	8.54
390.165	8.5
390.526	8.46
390.887	8.42
391.248	8.37
391.609	8.33
391.969	8.29
392.33	8.25
392.691	8.2
393.051	8.16
393.412	8.11
393.772	8.06
394.133	8.03
394.493	7.98
394.854	7.93
395.214	7.88
395.574	7.83
395.935	7.79
396.295	7.75
396.655	7.7
397.015	7.65
397.376	7.6
397.736	7.56
398.096	7.51
398.456	7.46
398.816	7.43
399.176	7.37
399.535	7.33
399.895	7.29
400.255	7.25
400.615	7.2
400.975	7.17
401.334	7.12
401.694	7.08
402.054	7.04
402.413	6.98
402.773	6.93
403.132	6.9
403.492	6.86
403.851	6.82
404.211	6.78
404.57	6.75
404.929	6.73
405.288	6.69
405.648	6.66
406.007	6.63
406.366	6.61
406.725	6.59
407.084	6.56
407.443	6.53
407.802	6.49
408.161	6.46
408.52	6.43
408.879	6.4
409.238	6.38
409.596	6.36
409.955	6.35
410.314	6.32
410.673	6.29
411.031	6.27
411.39	6.25
411.748	6.23
412.107	6.21
412.465	6.2
412.824	6.2
413.182	6.2
413.54	6.2
413.899	6.21
414.257	6.22
414.615	6.25
414.974	6.27
415.332	6.3
415.69	6.33
416.048	6.34
416.406	6.38
416.764	6.4
417.122	6.41
417.48	6.44
417.838	6.46
418.195	6.47
418.553	6.47
418.911	6.47
419.269	6.46
419.626	6.43
419.984	6.4
420.342	6.36
420.699	6.32
421.057	6.28
421.414	6.24
421.772	6.21
422.129	6.19
422.486	6.17
422.844	6.15
423.201	6.13
423.558	6.12
423.915	6.1
424.273	6.08
424.63	6.06
424.987	6.04
425.344	6.02
425.701	6.01
426.058	5.99
426.415	5.97
426.772	5.95
427.128	5.93
427.485	5.89
427.842	5.86
428.199	5.83
428.555	5.79
428.912	5.75
429.269	5.7
429.625	5.66
429.982	5.61
430.338	5.56
430.695	5.52
431.051	5.46
431.407	5.42
431.764	5.38
432.12	5.34
432.476	5.31
432.832	5.28
433.189	5.28
433.545	5.27
433.901	5.28
434.257	5.29
434.613	5.31
434.969	5.34
435.325	5.36
435.681	5.4
436.036	5.41
436.392	5.44
436.748	5.44
437.104	5.43
437.459	5.45
437.815	5.47
438.171	5.49
438.526	5.51
438.882	5.55
439.237	5.58
439.593	5.62
439.948	5.65
440.304	5.69
440.659	5.72
441.014	5.74
441.369	5.77
441.725	5.78
442.08	5.8
442.435	5.81
442.79	5.82
443.145	5.81
443.5	5.81
443.855	5.8
444.21	5.79
444.565	5.78
444.92	5.77
445.275	5.75
445.629	5.73
445.984	5.72
446.339	5.71
446.693	5.7
447.048	5.68
447.403	5.66
447.757	5.62
448.112	5.59
448.466	5.56
448.82	5.53
449.175	5.51
449.529	5.49
449.883	5.46
450.238	5.42
450.592	5.41
450.946	5.4
451.3	5.39
451.654	5.4
452.008	5.39
452.362	5.38
452.716	5.38
453.07	5.37
453.424	5.35
453.778	5.34
454.132	5.31
454.486	5.29
454.839	5.26
455.193	5.22
455.547	5.2
455.9	5.15
456.254	5.12
456.607	5.08
456.961	5.04
457.314	5.01
457.668	5
458.021	4.99
458.375	4.99
458.728	4.99
459.081	4.99
459.434	5
459.787	5.01
460.141	5.02
460.494	5.02
460.847	5.02
461.2	5.03
461.553	5.04
461.906	5.05
462.259	5.06
462.611	5.07
462.964	5.08
463.317	5.09
463.67	5.1
464.022	5.1
464.375	5.11
464.728	5.12
465.08	5.12
465.433	5.13
465.785	5.14
466.138	5.13
466.49	5.12
466.843	5.11
467.195	5.1
467.547	5.09
467.899	5.07
468.252	5.05
468.604	5.04
468.956	5.03
469.308	5.02
469.66	5.04
470.012	5.04
470.364	5.06
470.716	5.09
471.068	5.13
471.42	5.17
471.772	5.21
472.123	5.23
472.475	5.26
472.827	5.29
473.178	5.31
473.53	5.33
473.882	5.36
474.233	5.4
474.585	5.46
474.936	5.55
475.288	5.68
475.639	5.83
475.99	6.02
476.342	6.22
476.693	6.44
477.044	6.66
477.395	6.88
477.746	7.11
478.097	7.34
478.448	7.58
478.8	7.81
479.15	8.02
479.501	8.21
479.852	8.38
480.203	8.54
480.554	8.69
480.905	8.85
481.255	8.99
481.606	9.12
481.957	9.24
482.307	9.36
482.658	9.47
483.009	9.58
483.359	9.68
483.709	9.78
484.06	9.87
484.41	9.97
484.761	10.05
485.111	10.13
485.461	10.2
485.811	10.28
486.162	10.34
486.512	10.4
486.862	10.44
487.212	10.47
487.562	10.49
487.912	10.5
488.262	10.51
488.612	10.5
488.961	10.48
489.311	10.43
489.661	10.33
490.011	10.22
490.36	10.08
490.71	9.92
491.06	9.75
491.409	9.56
491.759	9.38
492.108	9.18
492.458	8.99
492.807	8.77
493.157	8.56
493.506	8.37
493.855	8.18
494.204	8.02
494.554	7.86
494.903	7.72
495.252	7.58
495.601	7.45
495.95	7.32
496.299	7.21
496.648	7.11
496.997	7.01
497.346	6.92
497.695	6.84
498.043	6.77
498.392	6.7
498.741	6.63
499.09	6.57
499.438	6.52
499.787	6.48
500.135	6.44
500.484	6.41
500.832	6.41
501.181	6.41
501.529	6.43
501.878	6.48
502.226	6.52
502.574	6.58
502.923	6.65
503.271	6.72
503.619	6.79
503.967	6.87
504.315	6.95
504.663	7.03
505.011	7.11
505.359	7.19
505.707	7.28
506.055	7.38
506.403	7.48
506.751	7.59
507.098	7.7
507.446	7.83
507.794	7.96
508.141	8.09
508.489	8.25
508.837	8.39
509.184	8.55
509.531	8.71
509.879	8.87
510.226	9.06
510.574	9.24
510.921	9.43
511.268	9.63
511.616	9.84
511.963	10.07
512.31	10.29
512.657	10.52
513.004	10.74
513.351	10.96
513.698	11.16
514.045	11.36
514.392	11.56
514.739	11.75
515.086	11.93
515.432	12.12
515.779	12.32
516.126	12.53
516.473	12.75
516.819	12.98
517.166	13.24
517.512	13.52
517.859	13.81
518.205	14.12
518.552	14.46
518.898	14.83
519.245	15.24
519.591	15.73
519.937	16.32
520.283	16.97
520.629	17.69
520.976	18.44
521.322	19.21
521.668	19.99
522.014	20.77
522.36	21.55
522.706	22.32
523.052	23.08
523.398	23.79
523.743	24.46
524.089	25.07
524.435	25.65
524.781	26.21
525.126	26.77
525.472	27.32
525.817	27.86
526.163	28.38
526.509	28.89
526.854	29.4
527.199	29.89
527.545	30.39
527.89	30.91
528.235	31.41
528.581	31.89
528.926	32.34
529.271	32.77
529.616	33.16
529.961	33.5
530.306	33.82
530.651	34.13
530.996	34.42
531.341	34.68
531.686	34.92
532.031	35.15
532.376	35.4
532.721	35.68
533.065	35.98
533.41	36.28
533.755	36.54
534.099	36.74
534.444	36.91
534.788	37.05
535.133	37.16
535.477	37.24
535.822	37.29
536.166	37.3
536.51	37.25
536.855	37.14
537.199	37
537.543	36.87
537.887	36.76
538.231	36.69
538.576	36.62
538.92	36.54
539.264	36.45
539.608	36.34
539.951	36.22
540.295	36.07
540.639	35.92
540.983	35.74
541.327	35.57
541.671	35.4
542.014	35.24
542.358	35.11
542.701	35.08
543.045	35.08
543.389	35.12
543.732	35.17
544.075	35.25
544.419	35.35
544.762	35.44
545.105	35.56
545.449	35.68
545.792	35.83
546.135	35.96
546.478	36.06
546.821	36.09
547.165	36.07
547.508	35.99
547.851	35.87
548.194	35.7
548.536	35.48
548.879	35.24
549.222	34.96
549.565	34.69
549.908	34.42
550.25	34.18
550.593	33.99
550.936	33.87
551.278	33.82
551.621	33.79
551.963	33.8
552.306	33.82
552.648	33.88
552.991	33.97
553.333	34.08
553.675	34.21
554.017	34.39
554.36	34.58
554.702	34.82
555.044	35.1
555.386	35.41
555.728	35.7
556.07	35.97
556.412	36.23
556.754	36.39
557.096	36.55
557.438	36.72
557.78	36.89
558.121	37.05
558.463	37.22
558.805	37.39
559.147	37.55
559.488	37.72
559.83	37.88
560.171	38.05
560.513	38.2
560.854	38.36
561.196	38.5
561.537	38.66
561.878	38.8
562.22	38.95
562.561	39.09
562.902	39.24
563.243	39.38
563.584	39.51
563.925	39.66
564.266	39.8
564.607	39.94
564.948	40.09
565.289	40.23
565.63	40.37
565.971	40.49
566.312	40.63
566.653	40.76
566.993	40.88
567.334	41
567.675	41.13
568.015	41.25
568.356	41.37
568.696	41.48
569.037	41.58
569.377	41.69
569.718	41.79
570.058	41.88
570.398	41.98
570.739	42.07
571.079	42.15
571.419	42.23
571.759	42.31
572.099	42.38
572.439	42.45
572.779	42.53
573.119	42.6
573.459	42.66
573.799	42.74
574.139	42.81
574.479	42.88
574.819	42.94
575.158	43.01
575.498	43.08
575.838	43.14
576.177	43.2
576.517	43.26
576.856	43.32
577.196	43.37
577.535	43.43
577.875	43.48
578.214	43.53
578.553	43.58
578.893	43.62
579.232	43.67
579.571	43.71
579.91	43.76
580.25	43.8
580.589	43.85
580.928	43.89
581.267	43.94
581.606	43.98
581.945	44.03
582.283	44.07
582.622	44.11
582.961	44.17
583.3	44.22
583.639	44.27
583.977	44.34
584.316	44.39
584.654	44.45
584.993	44.5
585.332	44.55
585.67	44.62
586.008	44.68
586.347	44.73
586.685	44.79
587.024	44.84
587.362	44.9
587.7	44.97
588.038	45.03
588.376	45.1
588.715	45.16
589.053	45.23
589.391	45.29
589.729	45.34
590.067	45.41
590.404	45.47
590.742	45.52
591.08	45.59
591.418	45.65
591.756	45.7
592.093	45.76
592.431	45.82
592.769	45.87
593.106	45.93
593.444	45.97
593.781	46
594.119	46.03
594.456	46.08
594.793	46.13
595.131	46.17
595.468	46.21
595.805	46.24
596.143	46.3
596.48	46.35
596.817	46.4
597.154	46.45
597.491	46.51
597.828	46.56
598.165	46.62
598.502	46.66
598.839	46.71
599.176	46.74
599.512	46.78
599.849	46.82
600.186	46.86
600.523	46.89
600.859	46.92
601.196	46.95
601.532	46.98
601.869	47.01
602.205	47.03
602.542	47.07
602.878	47.1
603.215	47.13
603.551	47.15
603.887	47.17
604.223	47.2
604.56	47.23
604.896	47.24
605.232	47.26
605.568	47.29
605.904	47.3
606.24	47.31
606.576	47.33
606.912	47.34
607.248	47.36
607.583	47.38
607.919	47.41
608.255	47.44
608.591	47.46
608.926	47.47
609.262	47.48
609.597	47.51
609.933	47.52
610.268	47.54
610.604	47.56
610.939	47.57
611.275	47.57
611.61	47.57
611.945	47.58
612.281	47.6
612.616	47.61
612.951	47.62
613.286	47.63
613.621	47.64
613.956	47.65
614.291	47.65
614.626	47.68
614.961	47.7
615.296	47.71
615.631	47.74
615.966	47.75
616.3	47.76
616.635	47.77
616.97	47.77
617.304	47.79
617.639	47.8
617.973	47.81
618.308	47.82
618.642	47.84
618.977	47.84
619.311	47.86
619.646	47.9
619.98	47.94
620.314	47.95
620.648	47.99
620.983	48.02
621.317	48.04
621.651	48.06
621.985	48.07
622.319	48.08
622.653	48.1
622.987	48.12
623.321	48.14
623.655	48.16
623.988	48.18
624.322	48.19
624.656	48.2
624.99	48.22
625.323	48.24
625.657	48.26
625.99	48.27
626.324	48.3
626.657	48.32
626.991	48.33
627.324	48.34
627.658	48.36
627.991	48.39
628.324	48.41
628.657	48.42
628.991	48.44
629.324	48.45
629.657	48.46
629.99	48.47
630.323	48.49
630.656	48.51
630.989	48.52
631.322	48.55
631.655	48.56
631.987	48.58
632.32	48.59
632.653	48.6
632.986	48.61
633.318	48.61
633.651	48.62
633.984	48.63
634.316	48.63
634.649	48.63
634.981	48.66
635.313	48.65
635.646	48.66
635.978	48.67
636.31	48.67
636.643	48.69
636.975	48.7
637.307	48.69
637.639	48.71
637.971	48.75
638.303	48.75
638.635	48.77
638.967	48.78
639.299	48.79
639.631	48.81
639.963	48.81
640.295	48.82
640.626	48.86
640.958	48.88
641.29	48.9
641.621	48.91
641.953	48.92
642.285	48.94
642.616	48.95
642.948	48.95
643.279	48.98
643.61	48.99
643.942	49.01
644.273	49.01
644.604	49.04
644.936	49.06
645.267	49.07
645.598	49.09
645.929	49.13
646.26	49.15
646.591	49.17
646.922	49.19
647.253	49.21
647.584	49.23
647.915	49.26
648.245	49.3
648.576	49.31
648.907	49.33
649.238	49.35
649.568	49.37
649.899	49.38
650.229	49.39
650.56	49.42
650.89	49.45
651.221	49.47
651.551	49.47
651.882	49.51
652.212	49.52
652.542	49.52
652.872	49.54
653.203	49.55
653.533	49.57
653.863	49.57
654.193	49.56
654.523	49.57
654.853	49.57
655.183	49.59
655.513	49.62
655.843	49.63
656.172	49.64
656.502	49.67
656.832	49.67
657.162	49.67
657.491	49.68
657.821	49.7
658.15	49.71
658.48	49.72
658.809	49.74
659.139	49.76
659.468	49.77
659.798	49.77
660.127	49.79
660.456	49.83
660.785	49.84
661.115	49.86
661.444	49.86
661.773	49.85
662.102	49.87
662.431	49.89
662.76	49.9
663.089	49.91
663.418	49.93
663.747	49.92
664.076	49.93
664.404	49.94
664.733	49.95
665.062	49.97
665.39	49.98
665.719	49.98
666.048	50
666.376	49.99
666.705	50.03
667.033	50.04
667.362	50.04
667.69	50.07
668.018	50.08
668.347	50.1
668.675	50.1
669.003	50.11
669.331	50.13
669.659	50.13
669.987	50.14
670.315	50.13
670.643	50.18
670.971	50.2
671.299	50.2
671.627	50.2
671.955	50.19
672.283	50.2
672.61	50.21
672.938	50.25
673.266	50.27
673.593	50.27
673.921	50.26
674.249	50.26
674.576	50.29
674.904	50.32
675.231	50.34
675.558	50.35
675.886	50.38
676.213	50.4
676.54	50.43
676.867	50.45
677.195	50.47
677.522	50.5
677.849	50.52
678.176	50.55
678.503	50.56
678.83	50.57
679.157	50.6
679.484	50.6
679.81	50.63
680.137	50.62
680.464	50.63
680.791	50.65
681.117	50.66
681.444	50.68
681.771	50.69
682.097	50.7
682.424	50.72
682.75	50.73
683.077	50.75
683.403	50.78
683.729	50.8
684.056	50.8
684.382	50.8
684.708	50.82
685.034	50.85
685.36	50.87
685.686	50.9
686.012	50.92
686.339	50.92
686.664	50.93
686.99	50.94
687.316	50.97
687.642	51.01
687.968	51.04
688.294	51.06
688.619	51.08
688.945	51.12
689.271	51.12
689.596	51.11
689.922	51.13
690.247	51.12
690.573	51.14
690.898	51.15
691.224	51.16
691.549	51.17
691.874	51.17
692.2	51.16
692.525	51.19
692.85	51.19
693.175	51.21
693.5	51.24
693.825	51.25
694.15	51.26
694.475	51.26
694.8	51.27
695.125	51.28
695.45	51.3
695.775	51.32
696.099	51.33
696.424	51.34
696.749	51.34
697.073	51.35
697.398	51.36
697.723	51.37
698.047	51.39
698.372	51.4
698.696	51.39
699.02	51.4
699.345	51.41
699.669	51.43
699.993	51.44
700.318	51.45
700.642	51.46
700.966	51.47
701.29	51.47
701.614	51.46
701.938	51.46
702.262	51.48
702.586	51.49
702.91	51.51
703.234	51.54
703.557	51.56
703.881	51.59
704.205	51.61
704.529	51.63
704.852	51.63
705.176	51.67
705.499	51.7
705.823	51.7
706.146	51.74
706.47	51.75
706.793	51.76
707.117	51.85
707.44	51.88
707.763	51.89
708.086	51.92
708.409	51.91
708.733	51.93
709.056	51.94
709.379	51.95
709.702	51.98
710.025	52
710.348	51.93
710.671	51.94
710.993	51.95
711.316	51.95
711.639	51.97
711.962	51.96
712.284	51.97
712.607	52
712.93	52.01
713.252	52.03
713.575	52.05
713.897	52.05
714.22	52.07
714.542	52.09
714.864	52.15
715.187	52.17
715.509	52.18
715.831	52.19
716.153	52.2
716.475	52.2
716.798	52.23
717.12	52.33
717.442	52.35
717.764	52.36
718.085	52.32
718.407	52.31
718.729	52.31
719.051	52.33
719.373	52.35
719.695	52.34
720.016	52.31
720.338	52.27
720.659	52.28
720.981	52.29
721.302	52.29
721.624	52.32
721.945	52.33
722.267	52.33
722.588	52.35
722.909	52.39
723.231	52.43
723.552	52.45
723.873	52.49
724.194	52.49
724.515	52.52
724.836	52.58
725.157	52.57
725.478	52.6
725.799	52.58
726.12	52.59
726.441	52.58
726.762	52.59
727.083	52.59
727.403	52.58
727.724	52.59
728.045	52.55
728.365	52.58
728.686	52.6
729.006	52.6
729.327	52.59
729.647	52.59
729.967	52.58
730.288	52.59
730.608	52.59
730.928	52.58
731.249	52.6
731.569	52.63
731.889	52.64
732.209	52.63
732.529	52.61
732.849	52.63
733.169	52.67
733.489	52.67
733.809	52.67
734.129	52.67
734.448	52.67
734.768	52.64
735.088	52.64
735.408	52.62
735.727	52.6
736.047	52.59
736.366	52.57
736.686	52.57
737.005	52.53
737.325	52.54
737.644	52.55
737.963	52.55
738.283	52.57
738.602	52.56
738.921	52.59
739.24	52.57
739.56	52.58
739.879	52.6
740.198	52.59
740.517	52.59
740.836	52.58
741.155	52.58
741.473	52.6
741.792	52.6
742.111	52.59
742.43	52.63
742.748	52.61
743.067	52.58
743.386	52.62
743.704	52.63
744.023	52.67
744.341	52.65
744.66	52.66
744.978	52.65
745.297	52.69
745.615	52.71
745.933	52.72
746.252	52.69
746.57	52.67
746.888	52.72
747.206	52.75
747.524	52.77
747.842	52.82
748.16	52.83
748.478	52.83
748.796	52.8
749.114	52.78
749.432	52.77
749.749	52.8
750.067	52.8
750.385	52.77
750.703	52.74
751.02	52.73
751.338	52.71
751.655	52.72
751.973	52.71
752.29	52.69
752.608	52.73
752.925	52.71
753.242	52.76
753.56	52.79
753.877	52.79
754.194	52.83
754.511	52.83
754.828	52.81
755.145	52.84
755.462	52.83
755.779	52.82
756.096	52.87
756.413	52.87
756.73	52.88
757.047	52.88
757.364	52.94
757.68	52.94
757.997	52.93
758.314	52.93
758.63	52.97
758.947	53.01
759.264	53.07
759.58	53.07
759.896	53.07
760.213	53.08
760.529	53.1
760.846	53.08
761.162	53.07
761.478	53.09
761.794	53.12
762.11	53.17
762.426	53.19
762.743	53.2
763.059	53.24
763.375	53.28
763.69	53.32
764.006	53.35
764.322	53.39
764.638	53.39
764.954	53.43
765.27	53.48
765.585	53.44
765.901	53.46
766.216	53.38
766.532	53.35
766.848	53.32
767.163	53.33
767.478	53.34
767.794	53.35
768.109	53.35
768.424	53.35
768.74	53.4
769.055	53.38
769.37	53.4
769.685	53.38
770	53.36
770.315	53.33
770.63	53.3
770.945	53.24
771.26	53.2
771.575	53.15
771.89	53.11
772.205	53.1
772.52	53.1
772.834	53.13
773.149	53.11
773.464	53.05
773.778	53.07
774.093	53.05
774.407	53.05
774.722	53.02
775.036	52.95
775.351	52.96
775.665	52.91
775.979	52.86
776.293	52.85
776.608	52.85
776.922	52.8
777.236	52.89
777.55	52.95
777.864	52.94
778.178	52.93
778.492	52.91
778.806	52.84
779.12	52.87
779.434	52.91
779.747	52.91
780.061	53.02
780.375	53
780.689	52.96
781.002	52.94
781.316	52.92
781.629	52.95
781.943	52.99
782.256	52.97
782.57	53
782.883	52.97
783.196	52.96
783.51	53.04
783.823	53.1
784.136	53.12
784.449	53.15
784.762	53.18
785.075	53.13
785.388	53.13
785.701	53.17
786.014	53.18
786.327	53.16
786.64	53.17
786.953	53.23
787.266	53.24
787.578	53.25
787.891	53.28
788.204	53.29
788.516	53.33
788.829	53.34
789.141	53.29
789.454	53.32
789.766	53.31
790.079	53.29
790.391	53.27
790.703	53.28
791.016	53.23
791.328	53.24
791.64	53.32
791.952	53.38
792.264	53.4
792.576	53.42
792.888	53.35
793.2	53.34
793.512	53.39
793.824	53.37
794.136	53.4
794.448	53.42
794.76	53.39
795.071	53.45
795.383	53.48
795.695	53.6
796.006	53.64
796.318	53.6
796.629	53.66
796.941	53.7
797.252	53.71
797.564	53.77
797.875	53.78
798.186	53.78
798.497	53.8
798.809	53.76
799.12	53.84
799.431	53.85
799.742	53.82
800.053	53.81
800.364	53.86
800.675	53.89
800.986	53.9
801.297	53.92
801.608	53.91
801.918	53.91
802.229	53.85
802.54	53.82
802.851	53.84
803.161	53.89
803.472	53.92
803.782	53.9
804.093	54
804.403	53.95
804.714	53.91
805.024	53.92
805.334	54
805.645	54
805.955	54.02
806.265	53.99
806.575	54.04
806.885	54.02
807.195	54
807.505	54.03
807.815	54.03
808.125	54.05
808.435	54.05
808.745	54.08
809.055	54.08
809.365	54.09
809.674	54.03
809.984	54.08
810.294	54.09
810.603	54.12
810.913	54.14
811.222	54.03
811.532	54.05
811.841	54.04
812.151	54.02
812.46	54.04
812.769	54.06
813.079	54.11
813.388	54.14
813.697	54.07
814.006	54.07
814.315	54.13
814.624	54.16
814.933	54.18
815.242	54.14
815.551	54.16
815.86	54.06
816.169	54.12
816.478	54.04
816.786	54.07
817.095	54.13
817.404	54.15
817.712	54.17
818.021	54.16
818.33	54.19
818.638	54.2
818.947	54.21
819.255	54.23
819.563	54.22
819.872	54.23
820.18	54.25
820.488	54.27
820.796	54.28
821.105	54.28
821.413	54.29
821.721	54.29
822.029	54.3
822.337	54.36
822.645	54.36
822.953	54.36
823.26	54.34
823.568	54.38
823.876	54.39
824.184	54.4
824.491	54.41
824.799	54.43
825.107	54.43
825.414	54.45
825.722	54.43
826.029	54.42
826.337	54.43
826.644	54.42
826.951	54.43
827.259	54.45
827.566	54.46
827.873	54.48
828.18	54.47
828.488	54.51
828.795	54.5
829.102	54.53
829.409	54.51
829.716	54.49
830.023	54.52
830.329	54.52
830.636	54.54
830.943	54.58
831.25	54.62
831.557	54.63
831.863	54.61
832.17	54.64
832.476	54.66
832.783	54.66
833.089	54.65
833.396	54.6
833.702	54.6
834.009	54.59
834.315	54.6
834.621	54.66
834.928	54.66
835.234	54.64
835.54	54.63
835.846	54.71
836.152	54.68
836.458	54.7
836.764	54.67
837.07	54.66
837.376	54.6
837.682	54.57
837.988	54.59
838.293	54.56
838.599	54.61
838.905	54.63
839.211	54.66
839.516	54.61
839.822	54.66
840.127	54.68
840.433	54.78
840.738	54.77
841.044	54.69
841.349	54.79
841.654	54.92
841.959	54.96
842.265	55.04
842.57	55.07
842.875	55.18
843.18	55.23
843.485	55.31
843.79	55.35
844.095	55.51
844.4	55.53
844.705	55.65
845.01	55.69
845.315	55.67
845.619	55.52
845.924	55.44
846.229	55.26
846.533	55.27
846.838	55.31
847.142	55.12
847.447	55.18
847.751	55.09
848.056	55.16
848.36	55.09
848.664	55.13
848.969	55.16
849.273	55.17
849.577	55.1
849.881	55.03
850.185	55.13
850.489	55.36
850.794	55.49
851.097	55.37
851.401	55.45
851.705	55.56
852.009	55.76
852.313	55.73
852.617	55.85
852.92	55.71
853.224	55.71
853.528	55.68
853.831	55.59
854.135	55.42
854.438	55.39
854.742	55.47
855.045	55.72
855.349	55.58
855.652	55.83
855.955	55.74
856.259	55.84
856.562	55.85
856.865	55.74
857.168	55.7
857.471	55.58
857.774	55.58
858.077	55.64
858.38	55.8
858.683	55.93
858.986	55.87
859.289	56.12
859.592	56.34
859.894	56.26
860.197	56.33
860.5	56.29
860.802	56.25
861.105	56.24
861.407	56.29
861.71	56.07
862.012	56.05
862.315	56.1
862.617	55.74
862.919	55.51
863.222	55.47
863.524	55.64
863.826	55.74
864.128	55.85
864.43	55.83
864.732	55.83
865.034	55.86
865.336	55.96
865.638	55.89
865.94	55.84
866.242	55.75
866.544	55.54
866.846	55.82
867.147	55.69
867.449	55.34
867.751	55.43
868.052	55.39
868.354	55.33
868.655	55.35
868.957	55.43
869.258	55.54
869.56	55.74
869.861	55.78
870.162	55.82
870.463	55.86
870.765	55.9
871.066	56.03
871.367	55.93
871.668	55.98
871.969	55.97
872.27	55.9
872.571	55.96
872.872	56.21
873.173	56.23
873.473	56.38
873.774	56.42
874.075	56.6
874.376	56.69
874.676	56.73
874.977	56.97
875.277	56.86
875.578	56.92
875.878	56.67
876.179	56.72
876.479	56.61
876.78	56.72
877.08	56.73
877.38	56.7
877.68	56.64
877.981	56.73
878.281	56.93
878.581	57.08
