Data from UWBM109429_Reflection_00013.txt Node
Date: Sun May 02 13:55:18 EDT 2021
User: vgr7
Spectrometer: USB2G7710
Scans to average: 10
Trigger mode: 4
Integration Time (sec): 1.000000E-1
Electric dark correction enabled: true
Boxcar width: 20
XAxis mode: Wavelengths
Number of Pixels in Spectrum: 2048
>>>>>Begin Spectral Data<<<<<
177.721	47.08
178.105	46.88
178.488	45.27
178.871	62.21
179.254	44.21
179.636	16.08
180.019	19.31
180.402	14.44
180.785	14.3
181.168	19.23
181.55	15.67
181.933	16.59
182.316	14.83
182.698	11.76
183.081	10.2
183.463	12.76
183.846	9.25
184.228	10.52
184.611	10.22
184.993	13.03
185.376	14.95
185.758	15.54
186.14	17.37
186.522	16.55
186.904	15.84
187.287	16.68
187.669	19.52
188.051	20.6
188.433	19.81
188.815	20.15
189.197	21.71
189.579	20.74
189.961	17.97
190.342	17.01
190.724	17.08
191.106	16.46
191.488	15.13
191.869	13.12
192.251	12.1
192.633	11.93
193.014	11.48
193.396	8.51
193.777	7.6
194.159	8.34
194.54	6.55
194.922	6.91
195.303	8.36
195.684	8.3
196.065	9.13
196.447	9.96
196.828	9.1
197.209	8.19
197.59	6.25
197.971	4.65
198.352	6.17
198.733	6.12
199.114	4.62
199.495	7.34
199.876	5.33
200.257	5.31
200.638	2.39
201.018	3.1
201.399	3.2
201.78	3.48
202.16	4.09
202.541	3.67
202.922	4.19
203.302	3.72
203.683	3.93
204.063	5.04
204.444	3.23
204.824	1.07
205.204	1.61
205.585	3.44
205.965	4.1
206.345	3.64
206.725	3.06
207.106	2.8
207.486	3.79
207.866	3.53
208.246	2.51
208.626	2
209.006	3.29
209.386	3.53
209.766	3.2
210.145	3.47
210.525	3.4
210.905	4.6
211.285	2.21
211.664	3.07
212.044	1.92
212.424	2.23
212.803	2.2
213.183	2.9
213.562	5.76
213.942	4.97
214.321	5.31
214.701	5.78
215.08	6.18
215.459	7.46
215.838	7.08
216.218	8.31
216.597	6.97
216.976	8.64
217.355	8.59
217.734	7.74
218.113	8.23
218.492	6.68
218.871	6.34
219.25	6.87
219.629	5.06
220.008	6.85
220.387	6.86
220.766	6.83
221.144	5.51
221.523	5.53
221.902	6.19
222.28	6.2
222.659	6.41
223.037	6.14
223.416	6.88
223.794	7.25
224.173	7.9
224.551	7.78
224.929	8.39
225.308	8.07
225.686	7.8
226.064	7.98
226.442	8.03
226.821	8.96
227.199	8.66
227.577	8.92
227.955	8.95
228.333	9.43
228.711	9.16
229.089	7.96
229.467	7.82
229.845	7.5
230.222	7.48
230.6	6.9
230.978	6.67
231.356	6.8
231.733	6.68
232.111	6.56
232.488	5.96
232.866	5.72
233.243	5.58
233.621	5.34
233.998	5.53
234.376	5.47
234.753	5.17
235.13	5.18
235.508	5.07
235.885	5.13
236.262	4.96
236.639	4.98
237.016	4.84
237.393	4.78
237.77	4.72
238.147	4.56
238.524	4.56
238.901	4.46
239.278	4.47
239.655	4.47
240.032	4.42
240.409	4.37
240.785	4.41
241.162	4.49
241.539	4.41
241.915	4.38
242.292	4.36
242.668	4.35
243.045	4.32
243.421	4.28
243.798	4.27
244.174	4.28
244.551	4.33
244.927	4.33
245.303	4.33
245.679	4.3
246.056	4.27
246.432	4.27
246.808	4.25
247.184	4.26
247.56	4.28
247.936	4.28
248.312	4.27
248.688	4.26
249.064	4.26
249.44	4.2
249.815	4.16
250.191	4.14
250.567	4.15
250.943	4.13
251.318	4.08
251.694	4.1
252.069	4.11
252.445	4.09
252.82	4.08
253.196	4.06
253.571	4.06
253.947	4.04
254.322	4.02
254.697	4.02
255.073	3.98
255.448	3.97
255.823	3.95
256.198	3.93
256.573	3.9
256.948	3.91
257.323	3.87
257.698	3.83
258.073	3.8
258.448	3.78
258.823	3.74
259.198	3.72
259.573	3.72
259.948	3.69
260.322	3.67
260.697	3.67
261.072	3.67
261.446	3.66
261.821	3.64
262.195	3.62
262.57	3.59
262.944	3.58
263.319	3.59
263.693	3.58
264.067	3.59
264.442	3.58
264.816	3.58
265.19	3.6
265.564	3.61
265.938	3.6
266.313	3.59
266.687	3.58
267.061	3.55
267.435	3.54
267.809	3.53
268.183	3.52
268.556	3.52
268.93	3.52
269.304	3.52
269.678	3.54
270.051	3.5
270.425	3.5
270.799	3.49
271.172	3.5
271.546	3.5
271.919	3.51
272.293	3.49
272.666	3.5
273.04	3.51
273.413	3.53
273.787	3.55
274.16	3.58
274.533	3.58
274.906	3.58
275.279	3.59
275.653	3.61
276.026	3.62
276.399	3.62
276.772	3.65
277.145	3.65
277.518	3.67
277.891	3.69
278.263	3.68
278.636	3.68
279.009	3.69
279.382	3.71
279.755	3.72
280.127	3.75
280.5	3.76
280.872	3.76
281.245	3.78
281.617	3.79
281.99	3.81
282.362	3.82
282.735	3.83
283.107	3.85
283.479	3.84
283.852	3.87
284.224	3.87
284.596	3.86
284.968	3.86
285.34	3.88
285.713	3.9
286.085	3.92
286.457	3.94
286.829	3.93
287.201	3.94
287.572	3.95
287.944	3.97
288.316	3.98
288.688	4
289.06	4.01
289.431	4.03
289.803	4.06
290.175	4.09
290.546	4.13
290.918	4.15
291.289	4.17
291.661	4.21
292.032	4.23
292.403	4.25
292.775	4.29
293.146	4.32
293.517	4.36
293.889	4.38
294.26	4.43
294.631	4.45
295.002	4.49
295.373	4.52
295.744	4.55
296.115	4.58
296.486	4.63
296.857	4.69
297.228	4.74
297.599	4.79
297.97	4.82
298.34	4.85
298.711	4.9
299.082	4.94
299.452	4.99
299.823	5.05
300.194	5.09
300.564	5.14
300.935	5.18
301.305	5.23
301.676	5.26
302.046	5.32
302.416	5.36
302.787	5.42
303.157	5.48
303.527	5.54
303.897	5.6
304.267	5.66
304.637	5.72
305.008	5.78
305.378	5.83
305.748	5.88
306.117	5.95
306.487	6.01
306.857	6.07
307.227	6.13
307.597	6.21
307.967	6.25
308.336	6.33
308.706	6.38
309.076	6.43
309.445	6.47
309.815	6.52
310.184	6.56
310.554	6.6
310.923	6.65
311.293	6.71
311.662	6.74
312.031	6.79
312.401	6.85
312.77	6.92
313.139	6.99
313.508	7.06
313.877	7.11
314.246	7.17
314.616	7.22
314.985	7.25
315.353	7.3
315.722	7.34
316.091	7.39
316.46	7.43
316.829	7.49
317.198	7.55
317.567	7.6
317.935	7.67
318.304	7.72
318.672	7.78
319.041	7.85
319.41	7.91
319.778	7.97
320.147	8.01
320.515	8.07
320.883	8.12
321.252	8.17
321.62	8.22
321.988	8.26
322.357	8.31
322.725	8.36
323.093	8.38
323.461	8.4
323.829	8.45
324.197	8.51
324.565	8.54
324.933	8.6
325.301	8.63
325.669	8.69
326.037	8.74
326.405	8.77
326.772	8.81
327.14	8.82
327.508	8.83
327.875	8.84
328.243	8.86
328.61	8.88
328.978	8.91
329.346	8.93
329.713	8.97
330.08	9.01
330.448	9.04
330.815	9.07
331.182	9.09
331.55	9.12
331.917	9.15
332.284	9.16
332.651	9.19
333.018	9.21
333.385	9.24
333.752	9.26
334.119	9.29
334.486	9.32
334.853	9.36
335.22	9.4
335.587	9.43
335.954	9.45
336.32	9.47
336.687	9.49
337.054	9.52
337.42	9.55
337.787	9.58
338.153	9.62
338.52	9.65
338.886	9.65
339.253	9.67
339.619	9.71
339.986	9.72
340.352	9.75
340.718	9.77
341.084	9.78
341.451	9.79
341.817	9.81
342.183	9.82
342.549	9.84
342.915	9.86
343.281	9.88
343.647	9.89
344.013	9.91
344.379	9.92
344.745	9.93
345.11	9.94
345.476	9.95
345.842	9.96
346.208	9.99
346.573	9.99
346.939	10
347.304	10.02
347.67	10.03
348.035	10.04
348.401	10.05
348.766	10.06
349.132	10.04
349.497	10.05
349.862	10.04
350.228	10.03
350.593	10.03
350.958	10.03
351.323	10.04
351.688	10.03
352.053	10.02
352.418	10
352.783	9.98
353.148	9.97
353.513	9.94
353.878	9.93
354.243	9.91
354.608	9.9
354.972	9.88
355.337	9.86
355.702	9.83
356.066	9.81
356.431	9.79
356.795	9.77
357.16	9.75
357.524	9.73
357.889	9.71
358.253	9.68
358.618	9.65
358.982	9.63
359.346	9.61
359.71	9.58
360.075	9.56
360.439	9.53
360.803	9.51
361.167	9.48
361.531	9.45
361.895	9.42
362.259	9.39
362.623	9.36
362.987	9.33
363.351	9.3
363.714	9.27
364.078	9.23
364.442	9.18
364.806	9.14
365.169	9.11
365.533	9.07
365.896	9.03
366.26	8.99
366.623	8.94
366.987	8.89
367.35	8.85
367.714	8.8
368.077	8.76
368.44	8.71
368.803	8.66
369.167	8.61
369.53	8.55
369.893	8.49
370.256	8.44
370.619	8.38
370.982	8.32
371.345	8.25
371.708	8.2
372.071	8.14
372.434	8.09
372.797	8.02
373.159	7.96
373.522	7.91
373.885	7.85
374.247	7.79
374.61	7.73
374.973	7.67
375.335	7.61
375.698	7.54
376.06	7.48
376.423	7.42
376.785	7.36
377.147	7.3
377.51	7.24
377.872	7.18
378.234	7.12
378.596	7.07
378.958	7.01
379.321	6.96
379.683	6.91
380.045	6.86
380.407	6.8
380.769	6.75
381.13	6.7
381.492	6.66
381.854	6.61
382.216	6.57
382.578	6.52
382.939	6.47
383.301	6.43
383.663	6.38
384.024	6.33
384.386	6.29
384.747	6.25
385.109	6.2
385.47	6.16
385.832	6.11
386.193	6.07
386.554	6.03
386.916	5.98
387.277	5.94
387.638	5.91
387.999	5.88
388.36	5.85
388.721	5.81
389.082	5.78
389.443	5.74
389.804	5.71
390.165	5.69
390.526	5.65
390.887	5.62
391.248	5.59
391.609	5.56
391.969	5.54
392.33	5.5
392.691	5.47
393.051	5.44
393.412	5.41
393.772	5.37
394.133	5.34
394.493	5.3
394.854	5.27
395.214	5.24
395.574	5.21
395.935	5.17
396.295	5.14
396.655	5.11
397.015	5.07
397.376	5.04
397.736	5.01
398.096	4.98
398.456	4.95
398.816	4.93
399.176	4.9
399.535	4.87
399.895	4.85
400.255	4.82
400.615	4.8
400.975	4.78
401.334	4.75
401.694	4.72
402.054	4.7
402.413	4.68
402.773	4.65
403.132	4.62
403.492	4.6
403.851	4.59
404.211	4.57
404.57	4.55
404.929	4.53
405.288	4.52
405.648	4.51
406.007	4.49
406.366	4.48
406.725	4.46
407.084	4.45
407.443	4.44
407.802	4.43
408.161	4.42
408.52	4.41
408.879	4.4
409.238	4.39
409.596	4.39
409.955	4.38
410.314	4.37
410.673	4.36
411.031	4.35
411.39	4.35
411.748	4.34
412.107	4.34
412.465	4.34
412.824	4.35
413.182	4.36
413.54	4.37
413.899	4.39
414.257	4.41
414.615	4.43
414.974	4.45
415.332	4.48
415.69	4.51
416.048	4.53
416.406	4.56
416.764	4.58
417.122	4.6
417.48	4.62
417.838	4.64
418.195	4.65
418.553	4.67
418.911	4.67
419.269	4.67
419.626	4.65
419.984	4.64
420.342	4.62
420.699	4.59
421.057	4.57
421.414	4.54
421.772	4.52
422.129	4.5
422.486	4.49
422.844	4.48
423.201	4.47
423.558	4.46
423.915	4.45
424.273	4.44
424.63	4.43
424.987	4.42
425.344	4.41
425.701	4.4
426.058	4.4
426.415	4.39
426.772	4.38
427.128	4.37
427.485	4.35
427.842	4.34
428.199	4.31
428.555	4.29
428.912	4.26
429.269	4.23
429.625	4.2
429.982	4.16
430.338	4.13
430.695	4.1
431.051	4.06
431.407	4.04
431.764	4.02
432.12	4
432.476	3.98
432.832	3.97
433.189	3.97
433.545	3.97
433.901	3.98
434.257	4
434.613	4.03
434.969	4.05
435.325	4.08
435.681	4.11
436.036	4.13
436.392	4.15
436.748	4.16
437.104	4.17
437.459	4.19
437.815	4.21
438.171	4.23
438.526	4.25
438.882	4.28
439.237	4.32
439.593	4.35
439.948	4.38
440.304	4.42
440.659	4.44
441.014	4.46
441.369	4.49
441.725	4.5
442.08	4.52
442.435	4.53
442.79	4.53
443.145	4.53
443.5	4.53
443.855	4.53
444.21	4.53
444.565	4.53
444.92	4.51
445.275	4.5
445.629	4.49
445.984	4.48
446.339	4.47
446.693	4.46
447.048	4.44
447.403	4.42
447.757	4.39
448.112	4.37
448.466	4.34
448.82	4.31
449.175	4.29
449.529	4.26
449.883	4.24
450.238	4.21
450.592	4.21
450.946	4.19
451.3	4.19
451.654	4.19
452.008	4.19
452.362	4.19
452.716	4.19
453.07	4.18
453.424	4.18
453.778	4.16
454.132	4.15
454.486	4.14
454.839	4.12
455.193	4.1
455.547	4.08
455.9	4.05
456.254	4.03
456.607	4
456.961	3.98
457.314	3.95
457.668	3.95
458.021	3.94
458.375	3.93
458.728	3.93
459.081	3.93
459.434	3.94
459.787	3.95
460.141	3.96
460.494	3.97
460.847	3.98
461.2	3.99
461.553	3.99
461.906	4
462.259	4.01
462.611	4.01
462.964	4.02
463.317	4.03
463.67	4.04
464.022	4.06
464.375	4.06
464.728	4.07
465.08	4.08
465.433	4.09
465.785	4.09
466.138	4.08
466.49	4.07
466.843	4.06
467.195	4.05
467.547	4.03
467.899	4.02
468.252	4
468.604	3.98
468.956	3.97
469.308	3.96
469.66	3.96
470.012	3.96
470.364	3.97
470.716	3.98
471.068	4
471.42	4.03
471.772	4.05
472.123	4.06
472.475	4.08
472.827	4.09
473.178	4.11
473.53	4.12
473.882	4.14
474.233	4.16
474.585	4.2
474.936	4.26
475.288	4.35
475.639	4.46
475.99	4.59
476.342	4.74
476.693	4.89
477.044	5.05
477.395	5.21
477.746	5.38
478.097	5.54
478.448	5.71
478.8	5.88
479.15	6.03
479.501	6.17
479.852	6.3
480.203	6.42
480.554	6.53
480.905	6.64
481.255	6.75
481.606	6.85
481.957	6.94
482.307	7.03
482.658	7.11
483.009	7.19
483.359	7.27
483.709	7.35
484.06	7.42
484.41	7.49
484.761	7.56
485.111	7.63
485.461	7.69
485.811	7.75
486.162	7.81
486.512	7.86
486.862	7.89
487.212	7.92
487.562	7.94
487.912	7.95
488.262	7.95
488.612	7.95
488.961	7.93
489.311	7.88
489.661	7.82
490.011	7.74
490.36	7.64
490.71	7.52
491.06	7.4
491.409	7.27
491.759	7.13
492.108	6.99
492.458	6.84
492.807	6.69
493.157	6.54
493.506	6.4
493.855	6.27
494.204	6.15
494.554	6.03
494.903	5.92
495.252	5.82
495.601	5.73
495.95	5.64
496.299	5.55
496.648	5.47
496.997	5.41
497.346	5.34
497.695	5.28
498.043	5.23
498.392	5.18
498.741	5.13
499.09	5.09
499.438	5.05
499.787	5.02
500.135	5
500.484	4.98
500.832	4.98
501.181	4.99
501.529	5.01
501.878	5.05
502.226	5.1
502.574	5.15
502.923	5.21
503.271	5.27
503.619	5.34
503.967	5.41
504.315	5.48
504.663	5.54
505.011	5.62
505.359	5.69
505.707	5.76
506.055	5.84
506.403	5.92
506.751	6.01
507.098	6.1
507.446	6.19
507.794	6.29
508.141	6.39
508.489	6.49
508.837	6.61
509.184	6.72
509.531	6.83
509.879	6.95
510.226	7.08
510.574	7.22
510.921	7.37
511.268	7.51
511.616	7.67
511.963	7.82
512.31	7.99
512.657	8.15
513.004	8.3
513.351	8.45
513.698	8.6
514.045	8.73
514.392	8.86
514.739	8.98
515.086	9.1
515.432	9.22
515.779	9.33
516.126	9.45
516.473	9.58
516.819	9.72
517.166	9.88
517.512	10.04
517.859	10.22
518.205	10.42
518.552	10.63
518.898	10.86
519.245	11.12
519.591	11.44
519.937	11.81
520.283	12.25
520.629	12.72
520.976	13.22
521.322	13.74
521.668	14.27
522.014	14.81
522.36	15.36
522.706	15.89
523.052	16.42
523.398	16.91
523.743	17.37
524.089	17.79
524.435	18.18
524.781	18.56
525.126	18.95
525.472	19.32
525.817	19.69
526.163	20.06
526.509	20.41
526.854	20.77
527.199	21.12
527.545	21.47
527.89	21.85
528.235	22.21
528.581	22.56
528.926	22.89
529.271	23.21
529.616	23.52
529.961	23.82
530.306	24.1
530.651	24.37
530.996	24.62
531.341	24.86
531.686	25.08
532.031	25.29
532.376	25.53
532.721	25.79
533.065	26.08
533.41	26.38
533.755	26.67
534.099	26.93
534.444	27.17
534.788	27.39
535.133	27.59
535.477	27.79
535.822	27.96
536.166	28.1
536.51	28.2
536.855	28.25
537.199	28.28
537.543	28.31
537.887	28.36
538.231	28.44
538.576	28.53
538.92	28.6
539.264	28.67
539.608	28.71
539.951	28.75
540.295	28.77
540.639	28.79
540.983	28.79
541.327	28.78
541.671	28.75
542.014	28.75
542.358	28.76
542.701	28.83
543.045	28.96
543.389	29.11
543.732	29.28
544.075	29.47
544.419	29.68
544.762	29.89
545.105	30.12
545.449	30.36
545.792	30.62
546.135	30.87
546.478	31.08
546.821	31.26
547.165	31.39
547.508	31.47
547.851	31.52
548.194	31.53
548.536	31.51
548.879	31.45
549.222	31.38
549.565	31.31
549.908	31.24
550.25	31.2
550.593	31.21
550.936	31.28
551.278	31.39
551.621	31.54
551.963	31.7
552.306	31.89
552.648	32.11
552.991	32.36
553.333	32.63
553.675	32.93
554.017	33.25
554.36	33.6
554.702	33.99
555.044	34.41
555.386	34.88
555.728	35.38
556.07	35.81
556.412	36.27
556.754	36.66
557.096	37
557.438	37.33
557.78	37.65
558.121	37.99
558.463	38.34
558.805	38.67
559.147	39.01
559.488	39.35
559.83	39.68
560.171	40.01
560.513	40.34
560.854	40.65
561.196	40.96
561.537	41.27
561.878	41.57
562.22	41.86
562.561	42.15
562.902	42.43
563.243	42.72
563.584	43
563.925	43.28
564.266	43.56
564.607	43.84
564.948	44.11
565.289	44.38
565.63	44.64
565.971	44.9
566.312	45.15
566.653	45.4
566.993	45.64
567.334	45.88
567.675	46.11
568.015	46.34
568.356	46.55
568.696	46.77
569.037	46.97
569.377	47.17
569.718	47.38
570.058	47.57
570.398	47.74
570.739	47.92
571.079	48.09
571.419	48.26
571.759	48.43
572.099	48.59
572.439	48.74
572.779	48.9
573.119	49.05
573.459	49.2
573.799	49.34
574.139	49.49
574.479	49.64
574.819	49.78
575.158	49.93
575.498	50.07
575.838	50.21
576.177	50.35
576.517	50.49
576.856	50.62
577.196	50.76
577.535	50.88
577.875	51.02
578.214	51.13
578.553	51.25
578.893	51.37
579.232	51.48
579.571	51.61
579.91	51.73
580.25	51.85
580.589	51.97
580.928	52.09
581.267	52.21
581.606	52.34
581.945	52.46
582.283	52.59
582.622	52.71
582.961	52.84
583.3	52.96
583.639	53.08
583.977	53.19
584.316	53.34
584.654	53.46
584.993	53.57
585.332	53.68
585.67	53.79
586.008	53.9
586.347	54.01
586.685	54.12
587.024	54.23
587.362	54.34
587.7	54.46
588.038	54.57
588.376	54.69
588.715	54.79
589.053	54.92
589.391	55.03
589.729	55.15
590.067	55.25
590.404	55.35
590.742	55.46
591.08	55.56
591.418	55.66
591.756	55.75
592.093	55.84
592.431	55.92
592.769	56.01
593.106	56.09
593.444	56.16
593.781	56.24
594.119	56.31
594.456	56.38
594.793	56.45
595.131	56.52
595.468	56.59
595.805	56.67
596.143	56.75
596.48	56.83
596.817	56.9
597.154	56.98
597.491	57.06
597.828	57.14
598.165	57.21
598.502	57.28
598.839	57.36
599.176	57.42
599.512	57.5
599.849	57.56
600.186	57.62
600.523	57.68
600.859	57.73
601.196	57.79
601.532	57.83
601.869	57.89
602.205	57.95
602.542	58
602.878	58.05
603.215	58.09
603.551	58.14
603.887	58.19
604.223	58.25
604.56	58.29
604.896	58.32
605.232	58.35
605.568	58.39
605.904	58.44
606.24	58.47
606.576	58.5
606.912	58.54
607.248	58.58
607.583	58.62
607.919	58.66
608.255	58.7
608.591	58.73
608.926	58.76
609.262	58.8
609.597	58.83
609.933	58.86
610.268	58.88
610.604	58.92
610.939	58.94
611.275	58.96
611.61	58.99
611.945	59.01
612.281	59.03
612.616	59.07
612.951	59.09
613.286	59.12
613.621	59.14
613.956	59.16
614.291	59.19
614.626	59.22
614.961	59.24
615.296	59.27
615.631	59.3
615.966	59.32
616.3	59.34
616.635	59.36
616.97	59.38
617.304	59.4
617.639	59.43
617.973	59.46
618.308	59.49
618.642	59.52
618.977	59.58
619.311	59.61
619.646	59.64
619.98	59.69
620.314	59.73
620.648	59.77
620.983	59.81
621.317	59.84
621.651	59.86
621.985	59.9
622.319	59.95
622.653	59.98
622.987	60.01
623.321	60.03
623.655	60.05
623.988	60.09
624.322	60.1
624.656	60.13
624.99	60.15
625.323	60.17
625.657	60.2
625.99	60.22
626.324	60.24
626.657	60.27
626.991	60.29
627.324	60.32
627.658	60.35
627.991	60.37
628.324	60.41
628.657	60.43
628.991	60.45
629.324	60.47
629.657	60.49
629.99	60.52
630.323	60.56
630.656	60.59
630.989	60.61
631.322	60.62
631.655	60.64
631.987	60.65
632.32	60.67
632.653	60.69
632.986	60.72
633.318	60.74
633.651	60.76
633.984	60.77
634.316	60.78
634.649	60.79
634.981	60.82
635.313	60.83
635.646	60.85
635.978	60.87
636.31	60.88
636.643	60.9
636.975	60.92
637.307	60.94
637.639	60.96
637.971	60.98
638.303	60.98
638.635	61.01
638.967	61.02
639.299	61.05
639.631	61.08
639.963	61.08
640.295	61.1
640.626	61.12
640.958	61.14
641.29	61.16
641.621	61.18
641.953	61.18
642.285	61.21
642.616	61.22
642.948	61.25
643.279	61.28
643.61	61.3
643.942	61.32
644.273	61.34
644.604	61.36
644.936	61.4
645.267	61.42
645.598	61.43
645.929	61.46
646.26	61.46
646.591	61.48
646.922	61.5
647.253	61.53
647.584	61.54
647.915	61.57
648.245	61.58
648.576	61.58
648.907	61.6
649.238	61.61
649.568	61.64
649.899	61.65
650.229	61.67
650.56	61.69
650.89	61.71
651.221	61.71
651.551	61.75
651.882	61.76
652.212	61.79
652.542	61.81
652.872	61.84
653.203	61.86
653.533	61.9
653.863	61.92
654.193	61.94
654.523	61.96
654.853	61.95
655.183	61.96
655.513	61.98
655.843	62
656.172	62.02
656.502	62.04
656.832	62.05
657.162	62.05
657.491	62.05
657.821	62.06
658.15	62.07
658.48	62.08
658.809	62.1
659.139	62.13
659.468	62.12
659.798	62.13
660.127	62.15
660.456	62.16
660.785	62.16
661.115	62.18
661.444	62.17
661.773	62.18
662.102	62.19
662.431	62.22
662.76	62.23
663.089	62.23
663.418	62.24
663.747	62.26
664.076	62.29
664.404	62.31
664.733	62.33
665.062	62.34
665.39	62.35
665.719	62.38
666.048	62.39
666.376	62.4
666.705	62.42
667.033	62.42
667.362	62.43
667.69	62.43
668.018	62.46
668.347	62.48
668.675	62.51
669.003	62.54
669.331	62.56
669.659	62.57
669.987	62.58
670.315	62.59
670.643	62.61
670.971	62.63
671.299	62.64
671.627	62.67
671.955	62.66
672.283	62.66
672.61	62.68
672.938	62.69
673.266	62.72
673.593	62.74
673.921	62.76
674.249	62.77
674.576	62.8
674.904	62.83
675.231	62.86
675.558	62.87
675.886	62.87
676.213	62.88
676.54	62.89
676.867	62.9
677.195	62.92
677.522	62.94
677.849	62.95
678.176	62.96
678.503	62.98
678.83	63
679.157	62.97
679.484	62.98
679.81	63.01
680.137	63.01
680.464	63.02
680.791	63.06
681.117	63.06
681.444	63.04
681.771	63.06
682.097	63.07
682.424	63.08
682.75	63.08
683.077	63.1
683.403	63.11
683.729	63.1
684.056	63.09
684.382	63.11
684.708	63.13
685.034	63.13
685.36	63.16
685.686	63.18
686.012	63.18
686.339	63.21
686.664	63.22
686.99	63.21
687.316	63.21
687.642	63.22
687.968	63.21
688.294	63.21
688.619	63.22
688.945	63.24
689.271	63.27
689.596	63.29
689.922	63.29
690.247	63.3
690.573	63.31
690.898	63.29
691.224	63.31
691.549	63.34
691.874	63.32
692.2	63.33
692.525	63.37
692.85	63.37
693.175	63.38
693.5	63.39
693.825	63.39
694.15	63.38
694.475	63.39
694.8	63.42
695.125	63.43
695.45	63.43
695.775	63.44
696.099	63.44
696.424	63.44
696.749	63.45
697.073	63.48
697.398	63.51
697.723	63.52
698.047	63.53
698.372	63.54
698.696	63.54
699.02	63.53
699.345	63.55
699.669	63.56
699.993	63.56
700.318	63.58
700.642	63.59
700.966	63.61
701.29	63.63
701.614	63.66
701.938	63.68
702.262	63.7
702.586	63.7
702.91	63.71
703.234	63.74
703.557	63.75
703.881	63.74
704.205	63.78
704.529	63.78
704.852	63.78
705.176	63.78
705.499	63.81
705.823	63.83
706.146	63.82
706.47	63.81
706.793	63.81
707.117	63.84
707.44	63.87
707.763	63.9
708.086	63.92
708.409	63.94
708.733	63.94
709.056	63.94
709.379	63.93
709.702	63.93
710.025	63.92
710.348	63.93
710.671	63.94
710.993	63.95
711.316	63.95
711.639	63.99
711.962	64
712.284	64.04
712.607	64.04
712.93	64.05
713.252	64.08
713.575	64.11
713.897	64.11
714.22	64.14
714.542	64.16
714.864	64.14
715.187	64.16
715.509	64.16
715.831	64.17
716.153	64.17
716.475	64.16
716.798	64.16
717.12	64.18
717.442	64.19
717.764	64.17
718.085	64.18
718.407	64.21
718.729	64.22
719.051	64.24
719.373	64.29
719.695	64.33
720.016	64.38
720.338	64.39
720.659	64.38
720.981	64.36
721.302	64.37
721.624	64.37
721.945	64.4
722.267	64.41
722.588	64.43
722.909	64.46
723.231	64.48
723.552	64.5
723.873	64.49
724.194	64.5
724.515	64.49
724.836	64.47
725.157	64.51
725.478	64.48
725.799	64.52
726.12	64.52
726.441	64.52
726.762	64.48
727.083	64.47
727.403	64.49
727.724	64.5
728.045	64.54
728.365	64.55
728.686	64.55
729.006	64.56
729.327	64.57
729.647	64.59
729.967	64.62
730.288	64.62
730.608	64.61
730.928	64.65
731.249	64.66
731.569	64.66
731.889	64.68
732.209	64.69
732.529	64.68
732.849	64.68
733.169	64.68
733.489	64.68
733.809	64.7
734.129	64.75
734.448	64.8
734.768	64.82
735.088	64.8
735.408	64.84
735.727	64.86
736.047	64.86
736.366	64.86
736.686	64.86
737.005	64.88
737.325	64.88
737.644	64.92
737.963	64.95
738.283	64.97
738.602	64.97
738.921	64.96
739.24	64.99
739.56	65
739.879	65.02
740.198	65.06
740.517	65.04
740.836	65.02
741.155	65.01
741.473	64.99
741.792	64.98
742.111	64.99
742.43	64.99
742.748	64.99
743.067	64.99
743.386	65
743.704	64.99
744.023	64.97
744.341	64.96
744.66	64.99
744.978	64.96
745.297	64.94
745.615	64.96
745.933	64.94
746.252	64.92
746.57	64.9
746.888	64.91
747.206	64.85
747.524	64.82
747.842	64.8
748.16	64.83
748.478	64.79
748.796	64.8
749.114	64.81
749.432	64.81
749.749	64.84
750.067	64.83
750.385	64.82
750.703	64.8
751.02	64.82
751.338	64.79
751.655	64.84
751.973	64.83
752.29	64.8
752.608	64.79
752.925	64.78
753.242	64.75
753.56	64.75
753.877	64.77
754.194	64.74
754.511	64.77
754.828	64.79
755.145	64.8
755.462	64.82
755.779	64.88
756.096	64.91
756.413	64.92
756.73	64.91
757.047	64.94
757.364	64.96
757.68	64.99
757.997	64.99
758.314	65.02
758.63	65.07
758.947	65.11
759.264	65.15
759.58	65.21
759.896	65.27
760.213	65.32
760.529	65.33
760.846	65.36
761.162	65.38
761.478	65.38
761.794	65.39
762.11	65.37
762.426	65.36
762.743	65.32
763.059	65.3
763.375	65.34
763.69	65.31
764.006	65.3
764.322	65.32
764.638	65.31
764.954	65.32
765.27	65.35
765.585	65.36
765.901	65.38
766.216	65.39
766.532	65.38
766.848	65.36
767.163	65.38
767.478	65.37
767.794	65.38
768.109	65.37
768.424	65.38
768.74	65.36
769.055	65.34
769.37	65.36
769.685	65.41
770	65.39
770.315	65.41
770.63	65.37
770.945	65.38
771.26	65.38
771.575	65.32
771.89	65.31
772.205	65.31
772.52	65.25
772.834	65.18
773.149	65.13
773.464	65.12
773.778	65.08
774.093	65.08
774.407	65.05
774.722	65.04
775.036	65.06
775.351	65.04
775.665	65.09
775.979	65.09
776.293	65.05
776.608	65.11
776.922	65.12
777.236	65.11
777.55	65.1
777.864	65.09
778.178	65.08
778.492	65.08
778.806	65.08
779.12	65.11
779.434	65.13
779.747	65.14
780.061	65.16
780.375	65.22
780.689	65.22
781.002	65.2
781.316	65.14
781.629	65.14
781.943	65.18
782.256	65.16
782.57	65.16
782.883	65.2
783.196	65.15
783.51	65.19
783.823	65.23
784.136	65.18
784.449	65.19
784.762	65.19
785.075	65.23
785.388	65.26
785.701	65.24
786.014	65.26
786.327	65.26
786.64	65.25
786.953	65.27
787.266	65.31
787.578	65.28
787.891	65.28
788.204	65.27
788.516	65.29
788.829	65.36
789.141	65.36
789.454	65.33
789.766	65.27
790.079	65.29
790.391	65.28
790.703	65.27
791.016	65.3
791.328	65.31
791.64	65.32
791.952	65.34
792.264	65.3
792.576	65.3
792.888	65.24
793.2	65.15
793.512	65.18
793.824	65.21
794.136	65.22
794.448	65.21
794.76	65.23
795.071	65.2
795.383	65.23
795.695	65.24
796.006	65.31
796.318	65.24
796.629	65.23
796.941	65.21
797.252	65.26
797.564	65.23
797.875	65.19
798.186	65.16
798.497	65.16
798.809	65.21
799.12	65.21
799.431	65.22
799.742	65.18
800.053	65.22
800.364	65.32
800.675	65.33
800.986	65.39
801.297	65.37
801.608	65.35
801.918	65.37
802.229	65.4
802.54	65.47
802.851	65.42
803.161	65.4
803.472	65.44
803.782	65.41
804.093	65.4
804.403	65.35
804.714	65.31
805.024	65.37
805.334	65.35
805.645	65.4
805.955	65.48
806.265	65.42
806.575	65.37
806.885	65.43
807.195	65.49
807.505	65.47
807.815	65.53
808.125	65.47
808.435	65.45
808.745	65.44
809.055	65.48
809.365	65.48
809.674	65.55
809.984	65.5
810.294	65.53
810.603	65.58
810.913	65.56
811.222	65.57
811.532	65.46
811.841	65.47
812.151	65.49
812.46	65.49
812.769	65.45
813.079	65.39
813.388	65.44
813.697	65.44
814.006	65.44
814.315	65.45
814.624	65.45
814.933	65.41
815.242	65.49
815.551	65.54
815.86	65.65
816.169	65.71
816.478	65.84
816.786	65.95
817.095	66.03
817.404	66.09
817.712	66.1
818.021	66.13
818.33	66.2
818.638	66.17
818.947	66.16
819.255	66.18
819.563	66.14
819.872	66.15
820.18	66.18
820.488	66.2
820.796	66.21
821.105	66.24
821.413	66.28
821.721	66.32
822.029	66.34
822.337	66.34
822.645	66.34
822.953	66.39
823.26	66.37
823.568	66.4
823.876	66.37
824.184	66.41
824.491	66.42
824.799	66.42
825.107	66.44
825.414	66.45
825.722	66.46
826.029	66.46
826.337	66.47
826.644	66.48
826.951	66.48
827.259	66.46
827.566	66.5
827.873	66.46
828.18	66.47
828.488	66.46
828.795	66.44
829.102	66.4
829.409	66.41
829.716	66.41
830.023	66.41
830.329	66.42
830.636	66.42
830.943	66.38
831.25	66.38
831.557	66.42
831.863	66.44
832.17	66.49
832.476	66.46
832.783	66.41
833.089	66.4
833.396	66.42
833.702	66.36
834.009	66.32
834.315	66.26
834.621	66.25
834.928	66.22
835.234	66.25
835.54	66.14
835.846	66.12
836.152	66.11
836.458	66.15
836.764	66.11
837.07	66.04
837.376	66.01
837.682	65.98
837.988	66.01
838.293	66
838.599	65.93
838.905	65.89
839.211	65.84
839.516	65.82
839.822	65.87
840.127	65.81
840.433	65.82
840.738	65.79
841.044	65.83
841.349	65.84
841.654	65.85
841.959	65.75
842.265	65.63
842.57	65.65
842.875	65.56
843.18	65.58
843.485	65.57
843.79	65.63
844.095	65.63
844.4	65.66
844.705	65.69
845.01	65.75
845.315	65.82
845.619	65.79
845.924	65.69
846.229	65.65
846.533	65.61
846.838	65.6
847.142	65.6
847.447	65.72
847.751	65.66
848.056	65.77
848.36	65.82
848.664	65.77
848.969	65.79
849.273	65.78
849.577	65.96
849.881	65.96
850.185	65.89
850.489	65.88
850.794	65.84
851.097	65.97
851.401	66.02
851.705	66.11
852.009	66.25
852.313	66.11
852.617	66.19
852.92	66.31
853.224	66.28
853.528	66.19
853.831	66.11
854.135	66.17
854.438	66.11
854.742	66.34
855.045	66.07
855.349	66.22
855.652	66.26
855.955	66.26
856.259	66.31
856.562	66.09
856.865	66.14
857.168	66.06
857.471	66.1
857.774	66.14
858.077	66.18
858.38	66.34
858.683	66.47
858.986	66.44
859.289	66.34
859.592	66.31
859.894	66.2
860.197	66.25
860.5	66.07
860.802	66.1
861.105	66.09
861.407	66.01
861.71	66.03
862.012	66.06
862.315	66.26
862.617	66.27
862.919	66.22
863.222	66.02
863.524	66.13
863.826	66.11
864.128	66.02
864.43	66.11
864.732	66.18
865.034	65.98
865.336	65.74
865.638	65.9
865.94	65.96
866.242	66.09
866.544	66.22
866.846	66.18
867.147	65.92
867.449	66.14
867.751	66.02
868.052	65.89
868.354	65.83
868.655	65.6
868.957	65.57
869.258	65.52
869.56	65.5
869.861	65.36
870.162	65.34
870.463	65.37
870.765	65.16
871.066	65.17
871.367	65.14
871.668	65.23
871.969	65.18
872.27	65.14
872.571	65.11
872.872	65.22
873.173	65.2
873.473	65.17
873.774	65.21
874.075	65.21
874.376	65.07
874.676	64.88
874.977	64.94
875.277	64.82
875.578	65
875.878	64.83
876.179	64.85
876.479	64.86
876.78	64.72
877.08	64.85
877.38	65.02
877.68	65.12
877.981	64.86
878.281	64.7
878.581	64.52
