Data from UWBM79812_Reflection_00014.txt Node
Date: Sun May 02 13:58:56 EDT 2021
User: vgr7
Spectrometer: USB2G7710
Scans to average: 10
Trigger mode: 4
Integration Time (sec): 1.000000E-1
Electric dark correction enabled: true
Boxcar width: 20
XAxis mode: Wavelengths
Number of Pixels in Spectrum: 2048
>>>>>Begin Spectral Data<<<<<
177.721	34.38
178.105	39.68
178.488	86.49
178.871	96.8
179.254	79.45
179.636	68.27
180.019	51.53
180.402	41.12
180.785	52.82
181.168	55.14
181.55	54.98
181.933	47.79
182.316	43.13
182.698	40.11
183.081	35.96
183.463	34.79
183.846	32.18
184.228	35.11
184.611	32.8
184.993	32.01
185.376	31.53
185.758	31.47
186.14	33.87
186.522	30.93
186.904	26.24
187.287	27.01
187.669	26.88
188.051	25.06
188.433	26.29
188.815	24.64
189.197	25.92
189.579	26.15
189.961	24.3
190.342	20.78
190.724	20.73
191.106	24.46
191.488	23.24
191.869	21.19
192.251	17.47
192.633	17.17
193.014	17
193.396	14.06
193.777	13.61
194.159	12.65
194.54	11.42
194.922	9.59
195.303	10.06
195.684	9.76
196.065	9.13
196.447	6.6
196.828	5.57
197.209	3.36
197.59	0.22
197.971	0.39
198.352	2.3
198.733	2.66
199.114	1.53
199.495	2.89
199.876	0.58
200.257	0.36
200.638	-2.41
201.018	-2.69
201.399	-3.27
201.78	-4.61
202.16	-4.41
202.541	-4.1
202.922	-2.33
203.302	-1.38
203.683	-0.51
204.063	0.4
204.444	1.02
204.824	-0.08
205.204	-1.62
205.585	-0.15
205.965	-0.01
206.345	-1.22
206.725	-3.26
207.106	-3.14
207.486	-2.74
207.866	-0.96
208.246	-0.39
208.626	-0.88
209.006	-0.07
209.386	-0.62
209.766	-1.76
210.145	-2.7
210.525	-0.66
210.905	-0.6
211.285	-1.13
211.664	-0.6
212.044	-0.77
212.424	-1.64
212.803	-1.05
213.183	0.73
213.562	1.39
213.942	0.77
214.321	1.05
214.701	0.21
215.08	-0.58
215.459	-0.01
215.838	-1.15
216.218	0.1
216.597	0.84
216.976	2.18
217.355	1.15
217.734	2.41
218.113	3.04
218.492	1.12
218.871	0.37
219.25	0.36
219.629	-0.22
220.008	-1.04
220.387	-1.47
220.766	-0.11
221.144	-0.29
221.523	1.03
221.902	2.14
222.28	2.74
222.659	2.76
223.037	2.35
223.416	2.8
223.794	2.05
224.173	2.19
224.551	2.59
224.929	3.89
225.308	4.42
225.686	5.19
226.064	4.83
226.442	4.71
226.821	5.24
227.199	5.95
227.577	6.07
227.955	6.37
228.333	6.23
228.711	5.88
229.089	5.28
229.467	5.12
229.845	4.96
230.222	5.07
230.6	5.26
230.978	5.16
231.356	5.66
231.733	5.74
232.111	5.36
232.488	5.26
232.866	5.26
233.243	4.86
233.621	4.99
233.998	5.08
234.376	5.01
234.753	4.64
235.13	4.61
235.508	4.85
235.885	4.87
236.262	4.9
236.639	4.82
237.016	4.76
237.393	4.7
237.77	4.68
238.147	4.68
238.524	4.65
238.901	4.55
239.278	4.63
239.655	4.62
240.032	4.52
240.409	4.44
240.785	4.45
241.162	4.4
241.539	4.35
241.915	4.37
242.292	4.35
242.668	4.28
243.045	4.26
243.421	4.21
243.798	4.21
244.174	4.23
244.551	4.28
244.927	4.27
245.303	4.25
245.679	4.29
246.056	4.23
246.432	4.24
246.808	4.2
247.184	4.2
247.56	4.21
247.936	4.18
248.312	4.18
248.688	4.19
249.064	4.15
249.44	4.13
249.815	4.12
250.191	4.12
250.567	4.14
250.943	4.11
251.318	4.09
251.694	4.05
252.069	4.03
252.445	4.03
252.82	3.99
253.196	3.94
253.571	3.92
253.947	3.92
254.322	3.89
254.697	3.87
255.073	3.84
255.448	3.85
255.823	3.82
256.198	3.79
256.573	3.78
256.948	3.8
257.323	3.78
257.698	3.75
258.073	3.72
258.448	3.72
258.823	3.7
259.198	3.69
259.573	3.68
259.948	3.65
260.322	3.66
260.697	3.64
261.072	3.6
261.446	3.6
261.821	3.57
262.195	3.57
262.57	3.54
262.944	3.54
263.319	3.56
263.693	3.56
264.067	3.55
264.442	3.54
264.816	3.52
265.19	3.52
265.564	3.52
265.938	3.5
266.313	3.5
266.687	3.49
267.061	3.49
267.435	3.5
267.809	3.48
268.183	3.49
268.556	3.49
268.93	3.48
269.304	3.47
269.678	3.49
270.051	3.48
270.425	3.48
270.799	3.47
271.172	3.48
271.546	3.49
271.919	3.49
272.293	3.46
272.666	3.45
273.04	3.46
273.413	3.49
273.787	3.49
274.16	3.52
274.533	3.52
274.906	3.5
275.279	3.51
275.653	3.5
276.026	3.51
276.399	3.54
276.772	3.55
277.145	3.54
277.518	3.55
277.891	3.56
278.263	3.54
278.636	3.55
279.009	3.54
279.382	3.53
279.755	3.55
280.127	3.56
280.5	3.57
280.872	3.59
281.245	3.58
281.617	3.58
281.99	3.58
282.362	3.58
282.735	3.57
283.107	3.59
283.479	3.58
283.852	3.6
284.224	3.61
284.596	3.61
284.968	3.62
285.34	3.62
285.713	3.61
286.085	3.64
286.457	3.64
286.829	3.64
287.201	3.67
287.572	3.67
287.944	3.68
288.316	3.68
288.688	3.69
289.06	3.69
289.431	3.7
289.803	3.72
290.175	3.75
290.546	3.77
290.918	3.79
291.289	3.81
291.661	3.83
292.032	3.83
292.403	3.85
292.775	3.86
293.146	3.89
293.517	3.92
293.889	3.93
294.26	3.97
294.631	4.01
295.002	4.04
295.373	4.06
295.744	4.09
296.115	4.11
296.486	4.14
296.857	4.17
297.228	4.2
297.599	4.24
297.97	4.26
298.34	4.28
298.711	4.31
299.082	4.34
299.452	4.36
299.823	4.39
300.194	4.41
300.564	4.44
300.935	4.48
301.305	4.52
301.676	4.55
302.046	4.58
302.416	4.6
302.787	4.63
303.157	4.66
303.527	4.7
303.897	4.75
304.267	4.79
304.637	4.83
305.008	4.87
305.378	4.91
305.748	4.95
306.117	4.98
306.487	5.03
306.857	5.07
307.227	5.13
307.597	5.19
307.967	5.24
308.336	5.29
308.706	5.31
309.076	5.35
309.445	5.38
309.815	5.41
310.184	5.44
310.554	5.47
310.923	5.51
311.293	5.54
311.662	5.57
312.031	5.62
312.401	5.67
312.77	5.7
313.139	5.75
313.508	5.79
313.877	5.82
314.246	5.86
314.616	5.91
314.985	5.95
315.353	5.99
315.722	6.03
316.091	6.07
316.46	6.1
316.829	6.15
317.198	6.2
317.567	6.26
317.935	6.3
318.304	6.35
318.672	6.39
319.041	6.45
319.41	6.48
319.778	6.53
320.147	6.56
320.515	6.6
320.883	6.62
321.252	6.66
321.62	6.69
321.988	6.73
322.357	6.77
322.725	6.8
323.093	6.83
323.461	6.85
323.829	6.9
324.197	6.94
324.565	6.97
324.933	7
325.301	7.01
325.669	7.04
326.037	7.06
326.405	7.08
326.772	7.13
327.14	7.15
327.508	7.16
327.875	7.19
328.243	7.2
328.61	7.21
328.978	7.23
329.346	7.25
329.713	7.28
330.08	7.31
330.448	7.33
330.815	7.35
331.182	7.36
331.55	7.39
331.917	7.4
332.284	7.4
332.651	7.42
333.018	7.45
333.385	7.47
333.752	7.49
334.119	7.51
334.486	7.55
334.853	7.57
335.22	7.61
335.587	7.63
335.954	7.66
336.32	7.69
336.687	7.71
337.054	7.75
337.42	7.77
337.787	7.81
338.153	7.84
338.52	7.85
338.886	7.86
339.253	7.88
339.619	7.91
339.986	7.95
340.352	7.97
340.718	7.99
341.084	8.02
341.451	8.04
341.817	8.06
342.183	8.08
342.549	8.11
342.915	8.13
343.281	8.16
343.647	8.19
344.013	8.21
344.379	8.23
344.745	8.26
345.11	8.27
345.476	8.29
345.842	8.32
346.208	8.34
346.573	8.34
346.939	8.35
347.304	8.38
347.67	8.4
348.035	8.43
348.401	8.45
348.766	8.46
349.132	8.46
349.497	8.47
349.862	8.47
350.228	8.49
350.593	8.51
350.958	8.52
351.323	8.53
351.688	8.53
352.053	8.53
352.418	8.53
352.783	8.53
353.148	8.52
353.513	8.52
353.878	8.53
354.243	8.53
354.608	8.53
354.972	8.52
355.337	8.53
355.702	8.53
356.066	8.52
356.431	8.51
356.795	8.5
357.16	8.49
357.524	8.49
357.889	8.49
358.253	8.49
358.618	8.47
358.982	8.47
359.346	8.45
359.71	8.43
360.075	8.43
360.439	8.41
360.803	8.39
361.167	8.38
361.531	8.37
361.895	8.36
362.259	8.34
362.623	8.32
362.987	8.29
363.351	8.27
363.714	8.26
364.078	8.24
364.442	8.23
364.806	8.21
365.169	8.19
365.533	8.16
365.896	8.14
366.26	8.11
366.623	8.1
366.987	8.06
367.35	8.03
367.714	8
368.077	7.98
368.44	7.95
368.803	7.92
369.167	7.89
369.53	7.85
369.893	7.81
370.256	7.78
370.619	7.73
370.982	7.69
371.345	7.66
371.708	7.62
372.071	7.58
372.434	7.53
372.797	7.49
373.159	7.45
373.522	7.42
373.885	7.38
374.247	7.33
374.61	7.29
374.973	7.25
375.335	7.22
375.698	7.18
376.06	7.13
376.423	7.09
376.785	7.06
377.147	7.01
377.51	6.98
377.872	6.93
378.234	6.89
378.596	6.85
378.958	6.81
379.321	6.76
379.683	6.72
380.045	6.68
380.407	6.64
380.769	6.6
381.13	6.56
381.492	6.53
381.854	6.5
382.216	6.46
382.578	6.43
382.939	6.4
383.301	6.37
383.663	6.33
384.024	6.29
384.386	6.26
384.747	6.22
385.109	6.19
385.47	6.15
385.832	6.11
386.193	6.08
386.554	6.05
386.916	6.01
387.277	5.98
387.638	5.95
387.999	5.92
388.36	5.89
388.721	5.85
389.082	5.83
389.443	5.79
389.804	5.76
390.165	5.74
390.526	5.71
390.887	5.68
391.248	5.66
391.609	5.63
391.969	5.6
392.33	5.58
392.691	5.55
393.051	5.53
393.412	5.5
393.772	5.47
394.133	5.44
394.493	5.42
394.854	5.38
395.214	5.36
395.574	5.33
395.935	5.3
396.295	5.27
396.655	5.24
397.015	5.21
397.376	5.18
397.736	5.15
398.096	5.12
398.456	5.1
398.816	5.07
399.176	5.05
399.535	5.02
399.895	5
400.255	4.97
400.615	4.95
400.975	4.93
401.334	4.9
401.694	4.88
402.054	4.86
402.413	4.84
402.773	4.82
403.132	4.8
403.492	4.78
403.851	4.76
404.211	4.75
404.57	4.73
404.929	4.72
405.288	4.7
405.648	4.68
406.007	4.67
406.366	4.65
406.725	4.64
407.084	4.63
407.443	4.62
407.802	4.6
408.161	4.59
408.52	4.58
408.879	4.57
409.238	4.55
409.596	4.55
409.955	4.54
410.314	4.52
410.673	4.51
411.031	4.51
411.39	4.5
411.748	4.49
412.107	4.49
412.465	4.49
412.824	4.5
413.182	4.51
413.54	4.52
413.899	4.54
414.257	4.56
414.615	4.59
414.974	4.61
415.332	4.64
415.69	4.67
416.048	4.69
416.406	4.72
416.764	4.74
417.122	4.76
417.48	4.78
417.838	4.81
418.195	4.82
418.553	4.83
418.911	4.84
419.269	4.84
419.626	4.83
419.984	4.81
420.342	4.79
420.699	4.77
421.057	4.74
421.414	4.71
421.772	4.69
422.129	4.68
422.486	4.66
422.844	4.65
423.201	4.64
423.558	4.64
423.915	4.63
424.273	4.62
424.63	4.61
424.987	4.61
425.344	4.6
425.701	4.59
426.058	4.59
426.415	4.58
426.772	4.57
427.128	4.55
427.485	4.53
427.842	4.52
428.199	4.49
428.555	4.47
428.912	4.44
429.269	4.4
429.625	4.37
429.982	4.34
430.338	4.3
430.695	4.27
431.051	4.23
431.407	4.21
431.764	4.18
432.12	4.16
432.476	4.14
432.832	4.13
433.189	4.12
433.545	4.12
433.901	4.14
434.257	4.15
434.613	4.18
434.969	4.2
435.325	4.22
435.681	4.26
436.036	4.28
436.392	4.3
436.748	4.31
437.104	4.32
437.459	4.34
437.815	4.36
438.171	4.38
438.526	4.4
438.882	4.43
439.237	4.46
439.593	4.5
439.948	4.53
440.304	4.56
440.659	4.58
441.014	4.6
441.369	4.63
441.725	4.64
442.08	4.66
442.435	4.67
442.79	4.67
443.145	4.68
443.5	4.67
443.855	4.67
444.21	4.67
444.565	4.66
444.92	4.65
445.275	4.64
445.629	4.63
445.984	4.62
446.339	4.6
446.693	4.59
447.048	4.57
447.403	4.55
447.757	4.52
448.112	4.5
448.466	4.47
448.82	4.44
449.175	4.41
449.529	4.39
449.883	4.37
450.238	4.34
450.592	4.33
450.946	4.32
451.3	4.31
451.654	4.31
452.008	4.31
452.362	4.31
452.716	4.31
453.07	4.3
453.424	4.29
453.778	4.28
454.132	4.27
454.486	4.26
454.839	4.24
455.193	4.21
455.547	4.2
455.9	4.17
456.254	4.15
456.607	4.12
456.961	4.09
457.314	4.07
457.668	4.05
458.021	4.05
458.375	4.04
458.728	4.04
459.081	4.04
459.434	4.05
459.787	4.06
460.141	4.07
460.494	4.08
460.847	4.08
461.2	4.09
461.553	4.1
461.906	4.1
462.259	4.11
462.611	4.11
462.964	4.12
463.317	4.13
463.67	4.14
464.022	4.15
464.375	4.15
464.728	4.16
465.08	4.16
465.433	4.17
465.785	4.17
466.138	4.16
466.49	4.15
466.843	4.13
467.195	4.11
467.547	4.1
467.899	4.08
468.252	4.06
468.604	4.04
468.956	4.03
469.308	4.01
469.66	4.01
470.012	4.01
470.364	4.02
470.716	4.03
471.068	4.05
471.42	4.08
471.772	4.1
472.123	4.12
472.475	4.14
472.827	4.15
473.178	4.17
473.53	4.18
473.882	4.2
474.233	4.23
474.585	4.27
474.936	4.33
475.288	4.42
475.639	4.54
475.99	4.68
476.342	4.83
476.693	5
477.044	5.16
477.395	5.33
477.746	5.51
478.097	5.68
478.448	5.86
478.8	6.03
479.15	6.19
479.501	6.33
479.852	6.47
480.203	6.6
480.554	6.72
480.905	6.84
481.255	6.95
481.606	7.05
481.957	7.15
482.307	7.25
482.658	7.34
483.009	7.42
483.359	7.51
483.709	7.59
484.06	7.67
484.41	7.74
484.761	7.82
485.111	7.89
485.461	7.95
485.811	8.02
486.162	8.07
486.512	8.12
486.862	8.16
487.212	8.18
487.562	8.2
487.912	8.21
488.262	8.22
488.612	8.21
488.961	8.19
489.311	8.15
489.661	8.08
490.011	7.99
490.36	7.89
490.71	7.77
491.06	7.64
491.409	7.5
491.759	7.36
492.108	7.21
492.458	7.05
492.807	6.89
493.157	6.74
493.506	6.59
493.855	6.45
494.204	6.32
494.554	6.18
494.903	6.07
495.252	5.96
495.601	5.86
495.95	5.76
496.299	5.66
496.648	5.58
496.997	5.5
497.346	5.43
497.695	5.36
498.043	5.29
498.392	5.23
498.741	5.17
499.09	5.12
499.438	5.07
499.787	5.03
500.135	4.99
500.484	4.96
500.832	4.94
501.181	4.93
501.529	4.95
501.878	4.97
502.226	5
502.574	5.03
502.923	5.07
503.271	5.12
503.619	5.16
503.967	5.21
504.315	5.26
504.663	5.31
505.011	5.35
505.359	5.4
505.707	5.45
506.055	5.5
506.403	5.56
506.751	5.62
507.098	5.69
507.446	5.76
507.794	5.83
508.141	5.9
508.489	5.98
508.837	6.07
509.184	6.16
509.531	6.25
509.879	6.34
510.226	6.44
510.574	6.55
510.921	6.67
511.268	6.79
511.616	6.91
511.963	7.03
512.31	7.17
512.657	7.29
513.004	7.42
513.351	7.54
513.698	7.65
514.045	7.77
514.392	7.87
514.739	7.97
515.086	8.06
515.432	8.15
515.779	8.25
516.126	8.35
516.473	8.46
516.819	8.57
517.166	8.7
517.512	8.84
517.859	9
518.205	9.16
518.552	9.34
518.898	9.54
519.245	9.77
519.591	10.05
519.937	10.38
520.283	10.75
520.629	11.17
520.976	11.6
521.322	12.06
521.668	12.53
522.014	13.01
522.36	13.49
522.706	13.95
523.052	14.41
523.398	14.84
523.743	15.24
524.089	15.6
524.435	15.94
524.781	16.28
525.126	16.61
525.472	16.93
525.817	17.24
526.163	17.55
526.509	17.85
526.854	18.16
527.199	18.46
527.545	18.76
527.89	19.07
528.235	19.38
528.581	19.67
528.926	19.96
529.271	20.22
529.616	20.48
529.961	20.72
530.306	20.96
530.651	21.18
530.996	21.39
531.341	21.57
531.686	21.75
532.031	21.91
532.376	22.1
532.721	22.3
533.065	22.53
533.41	22.75
533.755	22.97
534.099	23.15
534.444	23.32
534.788	23.47
535.133	23.61
535.477	23.73
535.822	23.83
536.166	23.91
536.51	23.95
536.855	23.95
537.199	23.92
537.543	23.9
537.887	23.9
538.231	23.93
538.576	23.96
538.92	23.99
539.264	24
539.608	24
539.951	23.99
540.295	23.98
540.639	23.96
540.983	23.92
541.327	23.87
541.671	23.8
542.014	23.76
542.358	23.74
542.701	23.76
543.045	23.83
543.389	23.92
543.732	24.04
544.075	24.16
544.419	24.3
544.762	24.45
545.105	24.61
545.449	24.79
545.792	24.96
546.135	25.13
546.478	25.28
546.821	25.4
547.165	25.47
547.508	25.52
547.851	25.53
548.194	25.51
548.536	25.46
548.879	25.38
549.222	25.3
549.565	25.21
549.908	25.13
550.25	25.07
550.593	25.05
550.936	25.08
551.278	25.16
551.621	25.26
551.963	25.38
552.306	25.51
552.648	25.66
552.991	25.85
553.333	26.05
553.675	26.27
554.017	26.52
554.36	26.79
554.702	27.09
555.044	27.41
555.386	27.78
555.728	28.18
556.07	28.54
556.412	28.9
556.754	29.2
557.096	29.47
557.438	29.73
557.78	29.99
558.121	30.26
558.463	30.54
558.805	30.81
559.147	31.07
559.488	31.34
559.83	31.61
560.171	31.88
560.513	32.15
560.854	32.41
561.196	32.67
561.537	32.93
561.878	33.19
562.22	33.43
562.561	33.67
562.902	33.9
563.243	34.15
563.584	34.37
563.925	34.62
564.266	34.85
564.607	35.09
564.948	35.32
565.289	35.56
565.63	35.78
565.971	36
566.312	36.23
566.653	36.45
566.993	36.66
567.334	36.87
567.675	37.08
568.015	37.28
568.356	37.48
568.696	37.66
569.037	37.85
569.377	38.04
569.718	38.21
570.058	38.38
570.398	38.55
570.739	38.71
571.079	38.87
571.419	39.01
571.759	39.16
572.099	39.3
572.439	39.44
572.779	39.58
573.119	39.72
573.459	39.86
573.799	40
574.139	40.13
574.479	40.26
574.819	40.4
575.158	40.53
575.498	40.65
575.838	40.77
576.177	40.9
576.517	41.03
576.856	41.14
577.196	41.27
577.535	41.39
577.875	41.5
578.214	41.62
578.553	41.73
578.893	41.83
579.232	41.94
579.571	42.06
579.91	42.17
580.25	42.28
580.589	42.39
580.928	42.49
581.267	42.6
581.606	42.69
581.945	42.81
582.283	42.91
582.622	43.03
582.961	43.13
583.3	43.24
583.639	43.35
583.977	43.45
584.316	43.56
584.654	43.66
584.993	43.76
585.332	43.87
585.67	43.98
586.008	44.07
586.347	44.16
586.685	44.26
587.024	44.37
587.362	44.46
587.7	44.56
588.038	44.65
588.376	44.76
588.715	44.86
589.053	44.95
589.391	45.06
589.729	45.15
590.067	45.25
590.404	45.35
590.742	45.46
591.08	45.54
591.418	45.63
591.756	45.71
592.093	45.77
592.431	45.85
592.769	45.93
593.106	46
593.444	46.06
593.781	46.12
594.119	46.18
594.456	46.24
594.793	46.32
595.131	46.4
595.468	46.47
595.805	46.54
596.143	46.62
596.48	46.69
596.817	46.77
597.154	46.85
597.491	46.92
597.828	46.99
598.165	47.06
598.502	47.14
598.839	47.2
599.176	47.26
599.512	47.32
599.849	47.38
600.186	47.45
600.523	47.51
600.859	47.56
601.196	47.61
601.532	47.65
601.869	47.71
602.205	47.76
602.542	47.8
602.878	47.86
603.215	47.9
603.551	47.94
603.887	47.99
604.223	48.03
604.56	48.07
604.896	48.11
605.232	48.14
605.568	48.17
605.904	48.22
606.24	48.25
606.576	48.27
606.912	48.31
607.248	48.35
607.583	48.39
607.919	48.43
608.255	48.46
608.591	48.48
608.926	48.51
609.262	48.54
609.597	48.57
609.933	48.58
610.268	48.61
610.604	48.63
610.939	48.66
611.275	48.68
611.61	48.7
611.945	48.72
612.281	48.73
612.616	48.75
612.951	48.77
613.286	48.79
613.621	48.82
613.956	48.83
614.291	48.86
614.626	48.88
614.961	48.9
615.296	48.93
615.631	48.95
615.966	48.97
616.3	49
616.635	49.02
616.97	49.05
617.304	49.09
617.639	49.1
617.973	49.11
618.308	49.14
618.642	49.17
618.977	49.22
619.311	49.26
619.646	49.3
619.98	49.33
620.314	49.37
620.648	49.4
620.983	49.43
621.317	49.46
621.651	49.49
621.985	49.52
622.319	49.55
622.653	49.57
622.987	49.6
623.321	49.61
623.655	49.64
623.988	49.65
624.322	49.66
624.656	49.68
624.99	49.71
625.323	49.74
625.657	49.76
625.99	49.79
626.324	49.81
626.657	49.84
626.991	49.87
627.324	49.89
627.658	49.9
627.991	49.91
628.324	49.94
628.657	49.95
628.991	49.97
629.324	49.99
629.657	50
629.99	50.01
630.323	50.04
630.656	50.06
630.989	50.07
631.322	50.1
631.655	50.12
631.987	50.14
632.32	50.16
632.653	50.16
632.986	50.18
633.318	50.2
633.651	50.22
633.984	50.23
634.316	50.26
634.649	50.28
634.981	50.29
635.313	50.31
635.646	50.32
635.978	50.32
636.31	50.34
636.643	50.35
636.975	50.38
637.307	50.4
637.639	50.42
637.971	50.44
638.303	50.45
638.635	50.45
638.967	50.48
639.299	50.49
639.631	50.5
639.963	50.52
640.295	50.54
640.626	50.55
640.958	50.57
641.29	50.61
641.621	50.65
641.953	50.66
642.285	50.68
642.616	50.71
642.948	50.73
643.279	50.75
643.61	50.77
643.942	50.78
644.273	50.8
644.604	50.83
644.936	50.84
645.267	50.85
645.598	50.86
645.929	50.87
646.26	50.92
646.591	50.93
646.922	50.93
647.253	50.96
647.584	50.98
647.915	50.98
648.245	50.98
648.576	51
648.907	51.03
649.238	51.05
649.568	51.06
649.899	51.08
650.229	51.1
650.56	51.12
650.89	51.14
651.221	51.16
651.551	51.19
651.882	51.22
652.212	51.23
652.542	51.24
652.872	51.26
653.203	51.27
653.533	51.27
653.863	51.28
654.193	51.31
654.523	51.33
654.853	51.34
655.183	51.36
655.513	51.36
655.843	51.37
656.172	51.39
656.502	51.4
656.832	51.41
657.162	51.42
657.491	51.42
657.821	51.43
658.15	51.44
658.48	51.45
658.809	51.47
659.139	51.48
659.468	51.49
659.798	51.5
660.127	51.51
660.456	51.52
660.785	51.52
661.115	51.53
661.444	51.54
661.773	51.55
662.102	51.57
662.431	51.57
662.76	51.59
663.089	51.6
663.418	51.63
663.747	51.63
664.076	51.64
664.404	51.65
664.733	51.65
665.062	51.65
665.39	51.66
665.719	51.69
666.048	51.71
666.376	51.73
666.705	51.75
667.033	51.78
667.362	51.8
667.69	51.79
668.018	51.8
668.347	51.81
668.675	51.79
669.003	51.81
669.331	51.83
669.659	51.82
669.987	51.83
670.315	51.85
670.643	51.87
670.971	51.88
671.299	51.89
671.627	51.91
671.955	51.9
672.283	51.92
672.61	51.92
672.938	51.93
673.266	51.92
673.593	51.91
673.921	51.92
674.249	51.94
674.576	51.96
674.904	51.98
675.231	51.98
675.558	51.97
675.886	51.97
676.213	51.97
676.54	51.99
676.867	51.98
677.195	52.01
677.522	52.01
677.849	52.02
678.176	52.03
678.503	52.04
678.83	52.03
679.157	52.03
679.484	52.02
679.81	52.01
680.137	52.03
680.464	52.04
680.791	52.06
681.117	52.06
681.444	52.05
681.771	52.06
682.097	52.1
682.424	52.1
682.75	52.1
683.077	52.12
683.403	52.12
683.729	52.13
684.056	52.14
684.382	52.14
684.708	52.15
685.034	52.15
685.36	52.16
685.686	52.17
686.012	52.19
686.339	52.22
686.664	52.23
686.99	52.24
687.316	52.24
687.642	52.24
687.968	52.26
688.294	52.27
688.619	52.29
688.945	52.3
689.271	52.32
689.596	52.35
689.922	52.37
690.247	52.38
690.573	52.4
690.898	52.41
691.224	52.43
691.549	52.43
691.874	52.44
692.2	52.46
692.525	52.48
692.85	52.51
693.175	52.52
693.5	52.5
693.825	52.5
694.15	52.51
694.475	52.52
694.8	52.55
695.125	52.55
695.45	52.54
695.775	52.56
696.099	52.57
696.424	52.57
696.749	52.58
697.073	52.6
697.398	52.62
697.723	52.63
698.047	52.66
698.372	52.67
698.696	52.68
699.02	52.7
699.345	52.7
699.669	52.71
699.993	52.73
700.318	52.72
700.642	52.74
700.966	52.75
701.29	52.73
701.614	52.76
701.938	52.77
702.262	52.8
702.586	52.81
702.91	52.83
703.234	52.84
703.557	52.83
703.881	52.83
704.205	52.83
704.529	52.84
704.852	52.85
705.176	52.89
705.499	52.9
705.823	52.92
706.146	52.9
706.47	52.92
706.793	52.97
707.117	52.99
707.44	53.03
707.763	53.06
708.086	53.07
708.409	53.09
708.733	53.11
709.056	53.11
709.379	53.14
709.702	53.17
710.025	53.18
710.348	53.19
710.671	53.18
710.993	53.19
711.316	53.2
711.639	53.22
711.962	53.23
712.284	53.22
712.607	53.23
712.93	53.21
713.252	53.2
713.575	53.22
713.897	53.24
714.22	53.25
714.542	53.26
714.864	53.26
715.187	53.25
715.509	53.23
715.831	53.25
716.153	53.23
716.475	53.25
716.798	53.25
717.12	53.26
717.442	53.27
717.764	53.25
718.085	53.26
718.407	53.28
718.729	53.3
719.051	53.29
719.373	53.32
719.695	53.33
720.016	53.3
720.338	53.31
720.659	53.27
720.981	53.26
721.302	53.28
721.624	53.28
721.945	53.26
722.267	53.27
722.588	53.28
722.909	53.29
723.231	53.28
723.552	53.25
723.873	53.27
724.194	53.28
724.515	53.26
724.836	53.24
725.157	53.25
725.478	53.27
725.799	53.26
726.12	53.28
726.441	53.29
726.762	53.33
727.083	53.34
727.403	53.36
727.724	53.39
728.045	53.37
728.365	53.39
728.686	53.39
729.006	53.37
729.327	53.37
729.647	53.37
729.967	53.39
730.288	53.41
730.608	53.42
730.928	53.43
731.249	53.46
731.569	53.45
731.889	53.44
732.209	53.45
732.529	53.45
732.849	53.45
733.169	53.46
733.489	53.48
733.809	53.5
734.129	53.48
734.448	53.5
734.768	53.51
735.088	53.55
735.408	53.55
735.727	53.54
736.047	53.54
736.366	53.54
736.686	53.57
737.005	53.56
737.325	53.57
737.644	53.58
737.963	53.58
738.283	53.55
738.602	53.56
738.921	53.6
739.24	53.6
739.56	53.6
739.879	53.57
740.198	53.54
740.517	53.52
740.836	53.5
741.155	53.52
741.473	53.51
741.792	53.52
742.111	53.54
742.43	53.5
742.748	53.53
743.067	53.54
743.386	53.53
743.704	53.54
744.023	53.56
744.341	53.53
744.66	53.54
744.978	53.55
745.297	53.54
745.615	53.56
745.933	53.56
746.252	53.55
746.57	53.57
746.888	53.56
747.206	53.59
747.524	53.58
747.842	53.58
748.16	53.58
748.478	53.61
748.796	53.59
749.114	53.58
749.432	53.6
749.749	53.61
750.067	53.62
750.385	53.57
750.703	53.58
751.02	53.58
751.338	53.61
751.655	53.62
751.973	53.58
752.29	53.57
752.608	53.61
752.925	53.64
753.242	53.65
753.56	53.66
753.877	53.66
754.194	53.65
754.511	53.61
754.828	53.62
755.145	53.6
755.462	53.63
755.779	53.64
756.096	53.62
756.413	53.65
756.73	53.66
757.047	53.66
757.364	53.67
757.68	53.65
757.997	53.64
758.314	53.67
758.63	53.65
758.947	53.63
759.264	53.65
759.58	53.62
759.896	53.62
760.213	53.65
760.529	53.64
760.846	53.63
761.162	53.66
761.478	53.66
761.794	53.7
762.11	53.73
762.426	53.73
762.743	53.75
763.059	53.73
763.375	53.76
763.69	53.77
764.006	53.78
764.322	53.78
764.638	53.79
764.954	53.82
765.27	53.86
765.585	53.83
765.901	53.84
766.216	53.86
766.532	53.86
766.848	53.85
767.163	53.89
767.478	53.92
767.794	53.91
768.109	53.94
768.424	53.97
768.74	53.97
769.055	53.99
769.37	53.96
769.685	53.96
770	53.98
770.315	53.99
770.63	54.03
770.945	54.03
771.26	54
771.575	54.01
771.89	54.05
772.205	54.04
772.52	54.06
772.834	54.1
773.149	54.08
773.464	54.08
773.778	54.09
774.093	54.05
774.407	54.02
774.722	54.02
775.036	54
775.351	54.01
775.665	53.99
775.979	54.03
776.293	54
776.608	53.99
776.922	53.95
777.236	53.97
777.55	53.96
777.864	53.98
778.178	53.94
778.492	54
778.806	53.97
779.12	53.97
779.434	53.99
779.747	54
780.061	53.99
780.375	54.02
780.689	53.99
781.002	53.98
781.316	53.97
781.629	53.94
781.943	53.94
782.256	53.99
782.57	54
782.883	54
783.196	53.97
783.51	53.96
783.823	53.95
784.136	54.01
784.449	54
784.762	54.01
785.075	54.04
785.388	54.02
785.701	53.95
786.014	53.94
786.327	53.99
786.64	53.96
786.953	54.03
787.266	54.05
787.578	54.05
787.891	54.06
788.204	54.07
788.516	54.08
788.829	54.05
789.141	54.06
789.454	54.09
789.766	54.14
790.079	54.14
790.391	54.12
790.703	54.1
791.016	54.09
791.328	54.04
791.64	53.99
791.952	53.98
792.264	53.94
792.576	53.97
792.888	53.93
793.2	53.94
793.512	53.96
793.824	53.97
794.136	53.93
794.448	53.94
794.76	53.94
795.071	53.96
795.383	53.96
795.695	53.93
796.006	53.95
796.318	53.91
796.629	53.93
796.941	53.92
797.252	53.94
797.564	53.91
797.875	53.84
798.186	53.86
798.497	53.92
798.809	53.9
799.12	53.88
799.431	53.98
799.742	53.93
800.053	53.96
800.364	53.92
800.675	53.87
800.986	53.87
801.297	53.87
801.608	53.89
801.918	53.9
802.229	53.86
802.54	53.86
802.851	53.84
803.161	53.82
803.472	53.82
803.782	53.81
804.093	53.83
804.403	53.87
804.714	53.86
805.024	53.88
805.334	53.8
805.645	53.81
805.955	53.8
806.265	53.8
806.575	53.83
806.885	53.9
807.195	53.93
807.505	53.99
807.815	53.92
808.125	53.88
808.435	53.94
808.745	53.9
809.055	53.96
809.365	53.93
809.674	53.89
809.984	53.87
810.294	53.84
810.603	53.93
810.913	53.94
811.222	53.91
811.532	53.9
811.841	53.85
812.151	53.78
812.46	53.79
812.769	53.72
813.079	53.73
813.388	53.65
813.697	53.63
814.006	53.61
814.315	53.61
814.624	53.66
814.933	53.66
815.242	53.67
815.551	53.66
815.86	53.64
816.169	53.65
816.478	53.7
816.786	53.72
817.095	53.69
817.404	53.64
817.712	53.6
818.021	53.66
818.33	53.68
818.638	53.63
818.947	53.63
819.255	53.6
819.563	53.61
819.872	53.63
820.18	53.63
820.488	53.65
820.796	53.67
821.105	53.62
821.413	53.66
821.721	53.68
822.029	53.7
822.337	53.71
822.645	53.73
822.953	53.74
823.26	53.73
823.568	53.74
823.876	53.76
824.184	53.78
824.491	53.78
824.799	53.8
825.107	53.79
825.414	53.83
825.722	53.84
826.029	53.88
826.337	53.9
826.644	53.9
826.951	53.88
827.259	53.88
827.566	53.88
827.873	53.88
828.18	53.89
828.488	53.91
828.795	53.9
829.102	53.88
829.409	53.88
829.716	53.88
830.023	53.91
830.329	53.93
830.636	53.92
830.943	53.95
831.25	53.98
831.557	54.02
831.863	54.04
832.17	54.03
832.476	54.02
832.783	53.99
833.089	53.98
833.396	53.96
833.702	54.01
834.009	53.98
834.315	53.97
834.621	53.98
834.928	53.99
835.234	53.99
835.54	53.99
835.846	54
836.152	53.96
836.458	53.96
836.764	53.91
837.07	53.94
837.376	53.89
837.682	53.91
837.988	53.85
838.293	53.89
838.599	53.87
838.905	53.82
839.211	53.82
839.516	53.85
839.822	53.84
840.127	53.85
840.433	53.81
840.738	53.81
841.044	53.75
841.349	53.76
841.654	53.76
841.959	53.78
842.265	53.79
842.57	53.8
842.875	53.86
843.18	53.85
843.485	53.77
843.79	53.76
844.095	53.71
844.4	53.71
844.705	53.74
845.01	53.66
845.315	53.7
845.619	53.74
845.924	53.69
846.229	53.63
846.533	53.65
846.838	53.64
847.142	53.56
847.447	53.64
847.751	53.64
848.056	53.59
848.36	53.62
848.664	53.61
848.969	53.54
849.273	53.74
849.577	53.65
849.881	53.72
850.185	53.78
850.489	53.59
850.794	53.51
851.097	53.59
851.401	53.54
851.705	53.52
852.009	53.6
852.313	53.52
852.617	53.63
852.92	53.78
853.224	53.86
853.528	54.03
853.831	54.02
854.135	54.05
854.438	54.06
854.742	54.11
855.045	54.01
855.349	54.08
855.652	54.21
855.955	54.23
856.259	54.29
856.562	54.27
856.865	54.4
857.168	54.46
857.471	54.63
857.774	54.62
858.077	54.52
858.38	54.72
858.683	54.89
858.986	55
859.289	55.08
859.592	55.11
859.894	55.09
860.197	54.83
860.5	55.12
860.802	55.07
861.105	55.14
861.407	55.03
861.71	54.82
862.012	54.77
862.315	54.74
862.617	54.64
862.919	54.97
863.222	54.88
863.524	54.81
863.826	54.92
864.128	54.8
864.43	54.86
864.732	54.92
865.034	54.87
865.336	54.8
865.638	54.79
865.94	54.8
866.242	54.95
866.544	54.9
866.846	55.02
867.147	55.13
867.449	55.22
867.751	55.17
868.052	55.19
868.354	55.16
868.655	55.15
868.957	55.18
869.258	55.06
869.56	54.92
869.861	54.94
870.162	55.04
870.463	55.12
870.765	54.96
871.066	54.99
871.367	54.86
871.668	54.71
871.969	54.61
872.27	54.42
872.571	54.67
872.872	54.5
873.173	54.59
873.473	54.58
873.774	54.78
874.075	54.83
874.376	54.99
874.676	54.96
874.977	55
875.277	54.91
875.578	54.95
875.878	54.97
876.179	54.95
876.479	55.21
876.78	55
877.08	55.05
877.38	54.91
877.68	54.91
877.981	54.77
878.281	54.71
878.581	54.51
