Data from UWBM104549_Reflection_00010.txt Node
Date: Sun May 02 12:25:30 EDT 2021
User: vgr7
Spectrometer: USB2G7710
Scans to average: 10
Trigger mode: 4
Integration Time (sec): 1.000000E-1
Electric dark correction enabled: true
Boxcar width: 10
XAxis mode: Wavelengths
Number of Pixels in Spectrum: 2048
>>>>>Begin Spectral Data<<<<<
177.721	-416
178.105	-54.29
178.488	7.08
178.871	167.35
179.254	56.45
179.636	67.98
180.019	520
180.402	266.67
180.785	0.77
181.168	-13.97
181.55	6.71
181.933	-17.39
182.316	-26.32
182.698	-84.88
183.081	-56.98
183.463	-35.48
183.846	17.45
184.228	-28.57
184.611	15.18
184.993	29.97
185.376	29.07
185.758	23.99
186.14	16.29
186.522	21.2
186.904	6.78
187.287	16.07
187.669	10.45
188.051	2.77
188.433	8.92
188.815	13.65
189.197	14.82
189.579	11.72
189.961	11.69
190.342	4.61
190.724	15.21
191.106	16.68
191.488	19.61
191.869	18.95
192.251	19.74
192.633	15.18
193.014	14.71
193.396	10.08
193.777	8.38
194.159	11.24
194.54	4.16
194.922	5.84
195.303	10.81
195.684	8.58
196.065	8.75
196.447	6.97
196.828	2.24
197.209	-1.26
197.59	-2.48
197.971	-3.32
198.352	3.55
198.733	6.75
199.114	3.65
199.495	-2.06
199.876	-5.2
200.257	-4.28
200.638	-4.14
201.018	-8.1
201.399	-6.81
201.78	-8
202.16	-5.38
202.541	-5.9
202.922	-8.08
203.302	-14.19
203.683	-8.85
204.063	-6.78
204.444	-5.74
204.824	-3.26
205.204	2.38
205.585	4.32
205.965	7.3
206.345	5.66
206.725	-0.61
207.106	1.57
207.486	3.37
207.866	10.05
208.246	8.09
208.626	9.65
209.006	12.2
209.386	11.26
209.766	11.7
210.145	6.12
210.525	5.15
210.905	7.77
211.285	10.71
211.664	9.1
212.044	6.03
212.424	7.68
212.803	6.53
213.183	6.36
213.562	4.73
213.942	-3.33
214.321	-9.25
214.701	-12.12
215.08	-10.74
215.459	-10.01
215.838	-14.49
216.218	-9.47
216.597	-8.74
216.976	-10.88
217.355	-8.2
217.734	-5.86
218.113	-2.57
218.492	3.67
218.871	6.22
219.25	10.09
219.629	11.31
220.008	12.77
220.387	10.6
220.766	8.89
221.144	6.43
221.523	8.57
221.902	10.2
222.28	14.49
222.659	17.58
223.037	17.45
223.416	17.24
223.794	16.47
224.173	14.91
224.551	17.61
224.929	16.25
225.308	16.96
225.686	15.68
226.064	15.52
226.442	13.08
226.821	12.48
227.199	9.26
227.577	7.23
227.955	6.57
228.333	6.47
228.711	7.06
229.089	7.05
229.467	5.6
229.845	6.96
230.222	6.68
230.6	7.63
230.978	7.39
231.356	6.81
231.733	6.84
232.111	6.52
232.488	4.23
232.866	3.73
233.243	3.22
233.621	3.53
233.998	3.11
234.376	3.58
234.753	3.54
235.13	4
235.508	5.39
235.885	5.77
236.262	5.91
236.639	6.43
237.016	6.91
237.393	7.14
237.77	6.66
238.147	6.36
238.524	6.28
238.901	6.52
239.278	6.36
239.655	6.27
240.032	6.27
240.409	6.42
240.785	6.56
241.162	6.81
241.539	6.83
241.915	6.81
242.292	6.88
242.668	6.83
243.045	6.69
243.421	6.5
243.798	6.47
244.174	6.41
244.551	6.27
244.927	6.03
245.303	5.99
245.679	6.07
246.056	6.03
246.432	5.97
246.808	5.91
247.184	5.91
247.56	5.92
247.936	5.9
248.312	5.91
248.688	5.98
249.064	5.9
249.44	5.8
249.815	5.78
250.191	5.7
250.567	5.62
250.943	5.63
251.318	5.64
251.694	5.52
252.069	5.43
252.445	5.45
252.82	5.52
253.196	5.54
253.571	5.44
253.947	5.61
254.322	5.5
254.697	5.52
255.073	5.55
255.448	5.54
255.823	5.52
256.198	5.46
256.573	5.31
256.948	5.22
257.323	5.27
257.698	5.28
258.073	5.23
258.448	5.25
258.823	5.24
259.198	5.19
259.573	5.21
259.948	5.28
260.322	5.21
260.697	5.2
261.072	5.18
261.446	5.16
261.821	5.13
262.195	5.15
262.57	5.08
262.944	5.07
263.319	5.05
263.693	5.06
264.067	5.03
264.442	5.02
264.816	5.05
265.19	5.05
265.564	5.09
265.938	5.05
266.313	5.07
266.687	4.98
267.061	5
267.435	4.97
267.809	4.94
268.183	5.01
268.556	5.02
268.93	5.04
269.304	5.03
269.678	4.94
270.051	4.92
270.425	4.9
270.799	4.88
271.172	4.86
271.546	4.85
271.919	4.92
272.293	4.9
272.666	4.89
273.04	4.86
273.413	4.78
273.787	4.81
274.16	4.82
274.533	4.87
274.906	4.87
275.279	4.92
275.653	4.92
276.026	4.84
276.399	4.83
276.772	4.83
277.145	4.86
277.518	4.89
277.891	4.91
278.263	4.96
278.636	4.98
279.009	5
279.382	5
279.755	4.96
280.127	5
280.5	4.99
280.872	4.96
281.245	5
281.617	5
281.99	4.98
282.362	4.98
282.735	4.96
283.107	4.93
283.479	4.94
283.852	4.95
284.224	4.97
284.596	4.98
284.968	4.99
285.34	5.04
285.713	5.09
286.085	5.04
286.457	5.06
286.829	5.04
287.201	5.03
287.572	5.08
287.944	5.12
288.316	5.14
288.688	5.17
289.06	5.2
289.431	5.23
289.803	5.23
290.175	5.25
290.546	5.29
290.918	5.35
291.289	5.38
291.661	5.43
292.032	5.45
292.403	5.46
292.775	5.48
293.146	5.48
293.517	5.5
293.889	5.58
294.26	5.62
294.631	5.68
295.002	5.73
295.373	5.76
295.744	5.74
296.115	5.8
296.486	5.82
296.857	5.85
297.228	5.88
297.599	5.91
297.97	5.94
298.34	5.96
298.711	5.97
299.082	5.95
299.452	5.98
299.823	6.02
300.194	6.1
300.564	6.11
300.935	6.17
301.305	6.22
301.676	6.24
302.046	6.25
302.416	6.28
302.787	6.35
303.157	6.38
303.527	6.48
303.897	6.51
304.267	6.58
304.637	6.64
305.008	6.74
305.378	6.81
305.748	6.86
306.117	6.94
306.487	7.02
306.857	7.13
307.227	7.16
307.597	7.22
307.967	7.26
308.336	7.33
308.706	7.39
309.076	7.43
309.445	7.47
309.815	7.55
310.184	7.61
310.554	7.67
310.923	7.71
311.293	7.73
311.662	7.79
312.031	7.81
312.401	7.85
312.77	7.86
313.139	7.95
313.508	8.02
313.877	8.07
314.246	8.08
314.616	8.12
314.985	8.21
315.353	8.22
315.722	8.28
316.091	8.35
316.46	8.44
316.829	8.54
317.198	8.6
317.567	8.64
317.935	8.7
318.304	8.73
318.672	8.8
319.041	8.89
319.41	8.95
319.778	9.04
320.147	9.09
320.515	9.14
320.883	9.11
321.252	9.17
321.62	9.22
321.988	9.32
322.357	9.36
322.725	9.41
323.093	9.51
323.461	9.52
323.829	9.56
324.197	9.57
324.565	9.58
324.933	9.62
325.301	9.68
325.669	9.72
326.037	9.76
326.405	9.78
326.772	9.79
327.14	9.78
327.508	9.8
327.875	9.88
328.243	9.95
328.61	10
328.978	10.08
329.346	10.12
329.713	10.14
330.08	10.18
330.448	10.19
330.815	10.22
331.182	10.26
331.55	10.31
331.917	10.33
332.284	10.37
332.651	10.43
333.018	10.45
333.385	10.48
333.752	10.54
334.119	10.6
334.486	10.66
334.853	10.73
335.22	10.76
335.587	10.75
335.954	10.8
336.32	10.86
336.687	10.81
337.054	10.83
337.42	10.87
337.787	10.91
338.153	10.98
338.52	11.02
338.886	11.07
339.253	11.07
339.619	11.11
339.986	11.17
340.352	11.22
340.718	11.27
341.084	11.29
341.451	11.3
341.817	11.31
342.183	11.37
342.549	11.39
342.915	11.44
343.281	11.48
343.647	11.52
344.013	11.52
344.379	11.58
344.745	11.61
345.11	11.63
345.476	11.68
345.842	11.7
346.208	11.73
346.573	11.74
346.939	11.78
347.304	11.81
347.67	11.76
348.035	11.76
348.401	11.75
348.766	11.78
349.132	11.8
349.497	11.83
349.862	11.82
350.228	11.85
350.593	11.84
350.958	11.84
351.323	11.82
351.688	11.86
352.053	11.86
352.418	11.88
352.783	11.89
353.148	11.87
353.513	11.86
353.878	11.85
354.243	11.84
354.608	11.84
354.972	11.85
355.337	11.88
355.702	11.87
356.066	11.89
356.431	11.87
356.795	11.89
357.16	11.87
357.524	11.85
357.889	11.84
358.253	11.84
358.618	11.84
358.982	11.82
359.346	11.78
359.71	11.77
360.075	11.74
360.439	11.73
360.803	11.72
361.167	11.71
361.531	11.7
361.895	11.69
362.259	11.69
362.623	11.68
362.987	11.67
363.351	11.68
363.714	11.65
364.078	11.63
364.442	11.58
364.806	11.55
365.169	11.54
365.533	11.49
365.896	11.48
366.26	11.44
366.623	11.41
366.987	11.38
367.35	11.36
367.714	11.33
368.077	11.3
368.44	11.26
368.803	11.21
369.167	11.17
369.53	11.15
369.893	11.09
370.256	11.03
370.619	10.98
370.982	10.93
371.345	10.88
371.708	10.82
372.071	10.79
372.434	10.75
372.797	10.67
373.159	10.65
373.522	10.6
373.885	10.57
374.247	10.52
374.61	10.45
374.973	10.37
375.335	10.31
375.698	10.25
376.06	10.18
376.423	10.12
376.785	10.06
377.147	9.97
377.51	9.92
377.872	9.85
378.234	9.78
378.596	9.72
378.958	9.67
379.321	9.61
379.683	9.54
380.045	9.47
380.407	9.44
380.769	9.35
381.13	9.27
381.492	9.2
381.854	9.14
382.216	9.1
382.578	9.05
382.939	9.01
383.301	8.95
383.663	8.89
384.024	8.85
384.386	8.8
384.747	8.76
385.109	8.71
385.47	8.67
385.832	8.64
386.193	8.6
386.554	8.55
386.916	8.52
387.277	8.47
387.638	8.44
387.999	8.39
388.36	8.35
388.721	8.32
389.082	8.28
389.443	8.23
389.804	8.18
390.165	8.14
390.526	8.1
390.887	8.05
391.248	8.02
391.609	7.98
391.969	7.93
392.33	7.9
392.691	7.85
393.051	7.8
393.412	7.75
393.772	7.69
394.133	7.65
394.493	7.6
394.854	7.56
395.214	7.51
395.574	7.47
395.935	7.42
396.295	7.36
396.655	7.3
397.015	7.24
397.376	7.18
397.736	7.13
398.096	7.07
398.456	7.02
398.816	6.97
399.176	6.9
399.535	6.86
399.895	6.8
400.255	6.76
400.615	6.71
400.975	6.67
401.334	6.61
401.694	6.57
402.054	6.52
402.413	6.49
402.773	6.44
403.132	6.4
403.492	6.36
403.851	6.33
404.211	6.31
404.57	6.3
404.929	6.27
405.288	6.24
405.648	6.21
406.007	6.19
406.366	6.17
406.725	6.16
407.084	6.13
407.443	6.11
407.802	6.09
408.161	6.08
408.52	6.06
408.879	6.06
409.238	6.05
409.596	6.04
409.955	6.01
410.314	6.01
410.673	6
411.031	5.99
411.39	5.98
411.748	5.97
412.107	5.95
412.465	5.93
412.824	5.92
413.182	5.91
413.54	5.9
413.899	5.88
414.257	5.86
414.615	5.85
414.974	5.83
415.332	5.82
415.69	5.8
416.048	5.78
416.406	5.77
416.764	5.74
417.122	5.73
417.48	5.72
417.838	5.71
418.195	5.7
418.553	5.68
418.911	5.67
419.269	5.66
419.626	5.65
419.984	5.63
420.342	5.62
420.699	5.6
421.057	5.6
421.414	5.58
421.772	5.57
422.129	5.55
422.486	5.54
422.844	5.52
423.201	5.51
423.558	5.49
423.915	5.47
424.273	5.45
424.63	5.43
424.987	5.41
425.344	5.39
425.701	5.37
426.058	5.35
426.415	5.33
426.772	5.31
427.128	5.29
427.485	5.27
427.842	5.26
428.199	5.24
428.555	5.21
428.912	5.2
429.269	5.18
429.625	5.17
429.982	5.15
430.338	5.14
430.695	5.14
431.051	5.14
431.407	5.13
431.764	5.12
432.12	5.12
432.476	5.12
432.832	5.12
433.189	5.12
433.545	5.13
433.901	5.13
434.257	5.13
434.613	5.13
434.969	5.13
435.325	5.13
435.681	5.14
436.036	5.14
436.392	5.14
436.748	5.15
437.104	5.15
437.459	5.15
437.815	5.16
438.171	5.17
438.526	5.17
438.882	5.18
439.237	5.19
439.593	5.2
439.948	5.21
440.304	5.21
440.659	5.21
441.014	5.21
441.369	5.21
441.725	5.21
442.08	5.21
442.435	5.21
442.79	5.22
443.145	5.22
443.5	5.22
443.855	5.22
444.21	5.22
444.565	5.21
444.92	5.21
445.275	5.21
445.629	5.19
445.984	5.19
446.339	5.18
446.693	5.17
447.048	5.16
447.403	5.15
447.757	5.13
448.112	5.12
448.466	5.11
448.82	5.1
449.175	5.1
449.529	5.08
449.883	5.07
450.238	5.04
450.592	5.03
450.946	5.02
451.3	5
451.654	4.99
452.008	4.99
452.362	4.97
452.716	4.96
453.07	4.95
453.424	4.94
453.778	4.93
454.132	4.91
454.486	4.91
454.839	4.9
455.193	4.9
455.547	4.9
455.9	4.91
456.254	4.91
456.607	4.91
456.961	4.92
457.314	4.93
457.668	4.93
458.021	4.93
458.375	4.94
458.728	4.94
459.081	4.94
459.434	4.94
459.787	4.95
460.141	4.94
460.494	4.95
460.847	4.94
461.2	4.95
461.553	4.96
461.906	4.97
462.259	4.98
462.611	4.99
462.964	4.99
463.317	5
463.67	5.01
464.022	5.01
464.375	5.02
464.728	5.02
465.08	5.04
465.433	5.06
465.785	5.07
466.138	5.08
466.49	5.09
466.843	5.11
467.195	5.13
467.547	5.15
467.899	5.17
468.252	5.18
468.604	5.2
468.956	5.22
469.308	5.23
469.66	5.25
470.012	5.27
470.364	5.28
470.716	5.29
471.068	5.3
471.42	5.32
471.772	5.34
472.123	5.35
472.475	5.36
472.827	5.38
473.178	5.39
473.53	5.4
473.882	5.42
474.233	5.42
474.585	5.44
474.936	5.44
475.288	5.45
475.639	5.46
475.99	5.47
476.342	5.48
476.693	5.48
477.044	5.47
477.395	5.48
477.746	5.49
478.097	5.49
478.448	5.52
478.8	5.61
479.15	5.75
479.501	5.91
479.852	6.1
480.203	6.3
480.554	6.51
480.905	6.72
481.255	6.93
481.606	7.13
481.957	7.33
482.307	7.52
482.658	7.69
483.009	7.83
483.359	7.95
483.709	8.05
484.06	8.15
484.41	8.25
484.761	8.33
485.111	8.42
485.461	8.5
485.811	8.58
486.162	8.6
486.512	8.58
486.862	8.53
487.212	8.45
487.562	8.34
487.912	8.21
488.262	8.07
488.612	7.92
488.961	7.76
489.311	7.6
489.661	7.42
490.011	7.25
490.36	7.08
490.71	6.9
491.06	6.72
491.409	6.54
491.759	6.4
492.108	6.28
492.458	6.19
492.807	6.1
493.157	6.02
493.506	5.94
493.855	5.87
494.204	5.8
494.554	5.74
494.903	5.69
495.252	5.65
495.601	5.61
495.95	5.57
496.299	5.55
496.648	5.53
496.997	5.52
497.346	5.54
497.695	5.59
498.043	5.67
498.392	5.78
498.741	5.9
499.09	5.99
499.438	6.06
499.787	6.12
500.135	6.18
500.484	6.25
500.832	6.33
501.181	6.4
501.529	6.48
501.878	6.57
502.226	6.65
502.574	6.75
502.923	6.85
503.271	6.95
503.619	7.05
503.967	7.17
504.315	7.29
504.663	7.42
505.011	7.54
505.359	7.68
505.707	7.8
506.055	7.95
506.403	8.09
506.751	8.23
507.098	8.38
507.446	8.53
507.794	8.68
508.141	8.84
508.489	9
508.837	9.17
509.184	9.33
509.531	9.49
509.879	9.66
510.226	9.82
510.574	9.99
510.921	10.16
511.268	10.33
511.616	10.51
511.963	10.69
512.31	10.88
512.657	11.07
513.004	11.29
513.351	11.5
513.698	11.72
514.045	11.96
514.392	12.19
514.739	12.43
515.086	12.67
515.432	12.9
515.779	13.14
516.126	13.37
516.473	13.59
516.819	13.8
517.166	14.02
517.512	14.22
517.859	14.43
518.205	14.62
518.552	14.81
518.898	15
519.245	15.2
519.591	15.39
519.937	15.59
520.283	15.79
520.629	16
520.976	16.22
521.322	16.46
521.668	16.69
522.014	16.94
522.36	17.18
522.706	17.46
523.052	17.8
523.398	18.26
523.743	18.85
524.089	19.52
524.435	20.22
524.781	20.95
525.126	21.67
525.472	22.37
525.817	23.06
526.163	23.72
526.509	24.32
526.854	24.85
527.199	25.28
527.545	25.62
527.89	25.92
528.235	26.21
528.581	26.49
528.926	26.77
529.271	27.04
529.616	27.31
529.961	27.57
530.306	27.8
530.651	27.92
530.996	27.93
531.341	27.86
531.686	27.72
532.031	27.48
532.376	27.18
532.721	26.82
533.065	26.44
533.41	26.14
533.755	25.85
534.099	25.66
534.444	25.6
534.788	25.61
535.133	25.66
535.477	25.73
535.822	25.84
536.166	25.96
536.51	26.13
536.855	26.34
537.199	26.57
537.543	26.84
537.887	27.17
538.231	27.52
538.576	27.9
538.92	28.29
539.264	28.73
539.608	29.18
539.951	29.62
540.295	30.04
540.639	30.33
540.983	30.58
541.327	30.75
541.671	30.94
542.014	31.16
542.358	31.38
542.701	31.59
543.045	31.79
543.389	31.99
543.732	32.17
544.075	32.34
544.419	32.5
544.762	32.64
545.105	32.74
545.449	32.81
545.792	32.84
546.135	32.89
546.478	32.96
546.821	33.07
547.165	33.28
547.508	33.52
547.851	33.83
548.194	34.21
548.536	34.61
548.879	34.9
549.222	35.13
549.565	35.36
549.908	35.58
550.25	35.82
550.593	36.05
550.936	36.27
551.278	36.48
551.621	36.7
551.963	36.93
552.306	37.17
552.648	37.4
552.991	37.64
553.333	37.83
553.675	38.04
554.017	38.25
554.36	38.44
554.702	38.66
555.044	38.84
555.386	39.04
555.728	39.23
556.07	39.44
556.412	39.62
556.754	39.82
557.096	40.01
557.438	40.2
557.78	40.39
558.121	40.59
558.463	40.8
558.805	40.99
559.147	41.17
559.488	41.34
559.83	41.51
560.171	41.68
560.513	41.89
560.854	42.09
561.196	42.3
561.537	42.49
561.878	42.66
562.22	42.86
562.561	43.06
562.902	43.26
563.243	43.44
563.584	43.62
563.925	43.81
564.266	43.97
564.607	44.13
564.948	44.27
565.289	44.42
565.63	44.57
565.971	44.72
566.312	44.87
566.653	45.01
566.993	45.17
567.334	45.34
567.675	45.47
568.015	45.62
568.356	45.74
568.696	45.88
569.037	46.03
569.377	46.18
569.718	46.31
570.058	46.42
570.398	46.55
570.739	46.66
571.079	46.75
571.419	46.88
571.759	47
572.099	47.1
572.439	47.22
572.779	47.32
573.119	47.42
573.459	47.51
573.799	47.61
574.139	47.71
574.479	47.78
574.819	47.85
575.158	47.92
575.498	48
575.838	48.07
576.177	48.11
576.517	48.16
576.856	48.21
577.196	48.27
577.535	48.33
577.875	48.38
578.214	48.46
578.553	48.53
578.893	48.58
579.232	48.67
579.571	48.72
579.91	48.77
580.25	48.83
580.589	48.9
580.928	48.94
581.267	49.01
581.606	49.07
581.945	49.16
582.283	49.23
582.622	49.29
582.961	49.36
583.3	49.47
583.639	49.55
583.977	49.64
584.316	49.73
584.654	49.84
584.993	49.94
585.332	50.06
585.67	50.14
586.008	50.24
586.347	50.32
586.685	50.43
587.024	50.53
587.362	50.61
587.7	50.7
588.038	50.79
588.376	50.85
588.715	50.94
589.053	51
589.391	51.06
589.729	51.14
590.067	51.2
590.404	51.23
590.742	51.32
591.08	51.4
591.418	51.48
591.756	51.54
592.093	51.6
592.431	51.62
592.769	51.7
593.106	51.75
593.444	51.79
593.781	51.85
594.119	51.93
594.456	52.01
594.793	52.07
595.131	52.13
595.468	52.19
595.805	52.22
596.143	52.26
596.48	52.32
596.817	52.35
597.154	52.4
597.491	52.45
597.828	52.46
598.165	52.49
598.502	52.51
598.839	52.54
599.176	52.56
599.512	52.6
599.849	52.64
600.186	52.71
600.523	52.78
600.859	52.84
601.196	52.87
601.532	52.92
601.869	52.98
602.205	53.02
602.542	53.07
602.878	53.15
603.215	53.21
603.551	53.25
603.887	53.3
604.223	53.33
604.56	53.37
604.896	53.44
605.232	53.49
605.568	53.55
605.904	53.59
606.24	53.64
606.576	53.7
606.912	53.72
607.248	53.74
607.583	53.79
607.919	53.78
608.255	53.8
608.591	53.83
608.926	53.8
609.262	53.81
609.597	53.82
609.933	53.84
610.268	53.83
610.604	53.84
610.939	53.85
611.275	53.88
611.61	53.92
611.945	53.9
612.281	53.91
612.616	53.91
612.951	53.92
613.286	53.94
613.621	53.94
613.956	53.95
614.291	53.96
614.626	53.93
614.961	53.95
615.296	53.98
615.631	54
615.966	54.05
616.3	54.13
616.635	54.16
616.97	54.16
617.304	54.23
617.639	54.26
617.973	54.28
618.308	54.34
618.642	54.37
618.977	54.4
619.311	54.41
619.646	54.45
619.98	54.49
620.314	54.49
620.648	54.53
620.983	54.6
621.317	54.64
621.651	54.69
621.985	54.74
622.319	54.78
622.653	54.79
622.987	54.83
623.321	54.82
623.655	54.87
623.988	54.91
624.322	54.91
624.656	54.95
624.99	55
625.323	55.02
625.657	55.04
625.99	55.08
626.324	55.15
626.657	55.17
626.991	55.2
627.324	55.25
627.658	55.23
627.991	55.22
628.324	55.22
628.657	55.23
628.991	55.24
629.324	55.27
629.657	55.31
629.99	55.33
630.323	55.35
630.656	55.34
630.989	55.37
631.322	55.42
631.655	55.42
631.987	55.43
632.32	55.44
632.653	55.45
632.986	55.47
633.318	55.45
633.651	55.43
633.984	55.45
634.316	55.44
634.649	55.49
634.981	55.5
635.313	55.55
635.646	55.56
635.978	55.56
636.31	55.57
636.643	55.6
636.975	55.6
637.307	55.62
637.639	55.64
637.971	55.63
638.303	55.61
638.635	55.66
638.967	55.69
639.299	55.7
639.631	55.71
639.963	55.71
640.295	55.74
640.626	55.77
640.958	55.8
641.29	55.83
641.621	55.84
641.953	55.89
642.285	55.89
642.616	55.94
642.948	55.99
643.279	55.98
643.61	55.99
643.942	56.02
644.273	56.05
644.604	56.1
644.936	56.15
645.267	56.2
645.598	56.23
645.929	56.25
646.26	56.29
646.591	56.3
646.922	56.37
647.253	56.4
647.584	56.4
647.915	56.39
648.245	56.45
648.576	56.47
648.907	56.49
649.238	56.55
649.568	56.54
649.899	56.55
650.229	56.6
650.56	56.65
650.89	56.66
651.221	56.67
651.551	56.7
651.882	56.71
652.212	56.75
652.542	56.74
652.872	56.73
653.203	56.81
653.533	56.85
653.863	56.86
654.193	56.9
654.523	56.98
654.853	57.07
655.183	57.08
655.513	57.15
655.843	57.18
656.172	57.21
656.502	57.26
656.832	57.29
657.162	57.3
657.491	57.34
657.821	57.37
658.15	57.4
658.48	57.41
658.809	57.44
659.139	57.42
659.468	57.44
659.798	57.45
660.127	57.45
660.456	57.46
660.785	57.42
661.115	57.41
661.444	57.46
661.773	57.41
662.102	57.45
662.431	57.4
662.76	57.38
663.089	57.36
663.418	57.4
663.747	57.4
664.076	57.45
664.404	57.44
664.733	57.46
665.062	57.47
665.39	57.52
665.719	57.52
666.048	57.59
666.376	57.63
666.705	57.67
667.033	57.66
667.362	57.67
667.69	57.73
668.018	57.8
668.347	57.79
668.675	57.79
669.003	57.8
669.331	57.8
669.659	57.86
669.987	57.88
670.315	57.86
670.643	57.88
670.971	57.91
671.299	57.92
671.627	57.9
671.955	57.94
672.283	57.91
672.61	57.93
672.938	57.9
673.266	57.92
673.593	58.01
673.921	58.05
674.249	58.1
674.576	58.17
674.904	58.16
675.231	58.19
675.558	58.24
675.886	58.25
676.213	58.32
676.54	58.3
676.867	58.3
677.195	58.33
677.522	58.38
677.849	58.34
678.176	58.36
678.503	58.38
678.83	58.38
679.157	58.4
679.484	58.43
679.81	58.46
680.137	58.5
680.464	58.46
680.791	58.48
681.117	58.47
681.444	58.47
681.771	58.49
682.097	58.5
682.424	58.49
682.75	58.48
683.077	58.54
683.403	58.59
683.729	58.64
684.056	58.71
684.382	58.7
684.708	58.81
685.034	58.83
685.36	58.88
685.686	58.95
686.012	59
686.339	58.98
686.664	59.01
686.99	59
687.316	59.01
687.642	59.03
687.968	59.06
688.294	59.05
688.619	59.03
688.945	59.06
689.271	59.12
689.596	59.13
689.922	59.16
690.247	59.21
690.573	59.25
690.898	59.26
691.224	59.32
691.549	59.26
691.874	59.28
692.2	59.32
692.525	59.34
692.85	59.35
693.175	59.36
693.5	59.41
693.825	59.43
694.15	59.48
694.475	59.43
694.8	59.47
695.125	59.46
695.45	59.5
695.775	59.47
696.099	59.49
696.424	59.53
696.749	59.51
697.073	59.45
697.398	59.45
697.723	59.4
698.047	59.39
698.372	59.4
698.696	59.4
699.02	59.37
699.345	59.33
699.669	59.29
699.993	59.26
700.318	59.26
700.642	59.23
700.966	59.25
701.29	59.28
701.614	59.23
701.938	59.27
702.262	59.22
702.586	59.22
702.91	59.18
703.234	59.2
703.557	59.19
703.881	59.21
704.205	59.21
704.529	59.25
704.852	59.26
705.176	59.26
705.499	59.25
705.823	59.29
706.146	59.32
706.47	59.31
706.793	59.39
707.117	59.39
707.44	59.42
707.763	59.41
708.086	59.45
708.409	59.44
708.733	59.45
709.056	59.53
709.379	59.52
709.702	59.52
710.025	59.55
710.348	59.55
710.671	59.58
710.993	59.58
711.316	59.59
711.639	59.56
711.962	59.58
712.284	59.67
712.607	59.7
712.93	59.72
713.252	59.78
713.575	59.85
713.897	59.87
714.22	59.88
714.542	59.93
714.864	59.92
715.187	59.96
715.509	59.98
715.831	60.02
716.153	60.12
716.475	60.18
716.798	60.14
717.12	60.1
717.442	60.07
717.764	60.03
718.085	60.03
718.407	60.09
718.729	60.11
719.051	60.06
719.373	60.05
719.695	60.06
720.016	60.1
720.338	60.09
720.659	60.08
720.981	60.1
721.302	60.04
721.624	60
721.945	60.04
722.267	60.05
722.588	60.03
722.909	60.05
723.231	59.97
723.552	60.01
723.873	60.13
724.194	60.15
724.515	60.23
724.836	60.21
725.157	60.23
725.478	60.18
725.799	60.24
726.12	60.23
726.441	60.23
726.762	60.25
727.083	60.27
727.403	60.35
727.724	60.39
728.045	60.46
728.365	60.49
728.686	60.52
729.006	60.58
729.327	60.56
729.647	60.49
729.967	60.52
730.288	60.52
730.608	60.55
730.928	60.58
731.249	60.61
731.569	60.63
731.889	60.61
732.209	60.64
732.529	60.63
732.849	60.62
733.169	60.57
733.489	60.52
733.809	60.48
734.129	60.38
734.448	60.34
734.768	60.27
735.088	60.3
735.408	60.29
735.727	60.18
736.047	60.22
736.366	60.22
736.686	60.24
737.005	60.25
737.325	60.18
737.644	60.2
737.963	60.11
738.283	60.06
738.602	60.05
738.921	60.08
739.24	60.02
739.56	60.06
739.879	60.13
740.198	60.15
740.517	60.18
740.836	60.21
741.155	60.19
741.473	60.26
741.792	60.21
742.111	60.17
742.43	60.22
742.748	60.17
743.067	60.15
743.386	60.11
743.704	60.11
744.023	60.15
744.341	60.07
744.66	60.14
744.978	60.22
745.297	60.26
745.615	60.24
745.933	60.26
746.252	60.23
746.57	60.17
746.888	60.09
747.206	60.09
747.524	60.17
747.842	60.23
748.16	60.21
748.478	60.21
748.796	60.25
749.114	60.23
749.432	60.18
749.749	60.17
750.067	60.26
750.385	60.26
750.703	60.15
751.02	60.17
751.338	60.15
751.655	60.16
751.973	60.17
752.29	60.14
752.608	60.19
752.925	60.27
753.242	60.35
753.56	60.46
753.877	60.38
754.194	60.29
754.511	60.28
754.828	60.33
755.145	60.4
755.462	60.42
755.779	60.47
756.096	60.57
756.413	60.74
756.73	60.73
757.047	60.79
757.364	60.98
757.68	61.07
757.997	61.08
758.314	61.12
758.63	61.15
758.947	61.32
759.264	61.41
759.58	61.36
759.896	61.39
760.213	61.48
760.529	61.54
760.846	61.56
761.162	61.6
761.478	61.63
761.794	61.63
762.11	61.69
762.426	61.74
762.743	61.71
763.059	61.72
763.375	61.73
763.69	61.68
764.006	61.67
764.322	61.67
764.638	61.65
764.954	61.61
765.27	61.62
765.585	61.51
765.901	61.4
766.216	61.35
766.532	61.3
766.848	61.21
767.163	61.21
767.478	61.19
767.794	61.13
768.109	61.07
768.424	61
768.74	60.87
769.055	60.74
769.37	60.79
769.685	60.68
770	60.67
770.315	60.71
770.63	60.58
770.945	60.52
771.26	60.59
771.575	60.57
771.89	60.44
772.205	60.43
772.52	60.47
772.834	60.44
773.149	60.43
773.464	60.48
773.778	60.45
774.093	60.49
774.407	60.46
774.722	60.49
775.036	60.43
775.351	60.42
775.665	60.45
775.979	60.41
776.293	60.44
776.608	60.41
776.922	60.4
777.236	60.38
777.55	60.41
777.864	60.37
778.178	60.48
778.492	60.59
778.806	60.68
779.12	60.75
779.434	60.84
779.747	60.81
780.061	60.87
780.375	60.8
780.689	60.85
781.002	60.99
781.316	61.01
781.629	61.19
781.943	61.28
782.256	61.47
782.57	61.5
782.883	61.51
783.196	61.51
783.51	61.49
783.823	61.48
784.136	61.56
784.449	61.57
784.762	61.44
785.075	61.37
785.388	61.31
785.701	61.31
786.014	61.33
786.327	61.43
786.64	61.35
786.953	61.51
787.266	61.53
787.578	61.34
787.891	61.27
788.204	61.24
788.516	61.27
788.829	61.15
789.141	61.17
789.454	61.16
789.766	61.23
790.079	61.21
790.391	61.23
790.703	61.22
791.016	61.31
791.328	61.4
791.64	61.37
791.952	61.44
792.264	61.45
792.576	61.43
792.888	61.46
793.2	61.48
793.512	61.55
793.824	61.48
794.136	61.58
794.448	61.67
794.76	61.69
795.071	61.65
795.383	61.61
795.695	61.61
796.006	61.62
796.318	61.61
796.629	61.69
796.941	61.71
797.252	61.77
797.564	61.69
797.875	61.66
798.186	61.84
798.497	61.88
798.809	61.9
799.12	62.03
799.431	61.91
799.742	61.97
800.053	61.79
800.364	61.86
800.675	61.98
800.986	62.11
801.297	62.15
801.608	62.16
801.918	62.35
802.229	62.41
802.54	62.34
802.851	62.34
803.161	62.36
803.472	62.43
803.782	62.37
804.093	62.53
804.403	62.66
804.714	62.47
805.024	62.47
805.334	62.49
805.645	62.43
805.955	62.61
806.265	62.64
806.575	62.87
806.885	63.07
807.195	63.01
807.505	62.84
807.815	62.8
808.125	62.81
808.435	62.83
808.745	62.79
809.055	62.9
809.365	62.98
809.674	63.08
809.984	63.06
810.294	63.25
810.603	62.92
810.913	62.86
811.222	63.04
811.532	62.98
811.841	63
812.151	63.2
812.46	63.18
812.769	63.18
813.079	62.98
813.388	62.86
813.697	62.98
814.006	63.11
814.315	63.17
814.624	63.28
814.933	63.27
815.242	63.29
815.551	63.51
815.86	63.42
816.169	63.4
816.478	63.57
816.786	63.42
817.095	63.62
817.404	63.67
817.712	63.63
818.021	63.63
818.33	63.65
818.638	63.64
818.947	63.58
819.255	63.56
819.563	63.68
819.872	63.68
820.18	63.64
820.488	63.69
820.796	63.82
821.105	63.91
821.413	63.9
821.721	63.84
822.029	63.75
822.337	63.79
822.645	63.86
822.953	63.91
823.26	63.9
823.568	63.96
823.876	63.94
824.184	63.93
824.491	63.9
824.799	63.88
825.107	63.89
825.414	63.91
825.722	63.92
826.029	63.96
826.337	63.93
826.644	63.94
826.951	63.92
827.259	63.81
827.566	63.81
827.873	63.79
828.18	63.74
828.488	63.78
828.795	63.75
829.102	63.64
829.409	63.59
829.716	63.58
830.023	63.48
830.329	63.47
830.636	63.47
830.943	63.51
831.25	63.58
831.557	63.45
831.863	63.48
832.17	63.46
832.476	63.35
832.783	63.48
833.089	63.52
833.396	63.53
833.702	63.57
834.009	63.46
834.315	63.57
834.621	63.64
834.928	63.56
835.234	63.62
835.54	63.66
835.846	63.61
836.152	63.65
836.458	63.7
836.764	63.72
837.07	63.77
837.376	63.8
837.682	63.69
837.988	63.82
838.293	63.85
838.599	63.97
838.905	63.91
839.211	63.85
839.516	63.83
839.822	63.86
840.127	63.99
840.433	63.94
840.738	63.64
841.044	63.95
841.349	64.13
841.654	63.99
841.959	63.92
842.265	63.82
842.57	63.77
842.875	63.67
843.18	63.78
843.485	63.66
843.79	63.61
844.095	63.59
844.4	63.73
844.705	63.59
845.01	63.53
845.315	63.85
845.619	63.97
845.924	64.22
846.229	64.01
846.533	63.88
846.838	64.01
847.142	64.23
847.447	63.99
847.751	63.81
848.056	63.89
848.36	64
848.664	64.1
848.969	64.33
849.273	64.38
849.577	64.11
849.881	64.34
850.185	64.57
850.489	64.84
850.794	64.68
851.097	64.74
851.401	64.56
851.705	64.41
852.009	64.07
852.313	63.24
852.617	63.14
852.92	63.32
853.224	63.02
853.528	63.12
853.831	63.34
854.135	63.22
854.438	63.58
854.742	63.84
855.045	63.82
855.349	63.58
855.652	63.69
855.955	63.96
856.259	64.13
856.562	64.12
856.865	63.97
857.168	63.39
857.471	63.56
857.774	63.63
858.077	63.38
858.38	63.43
858.683	64.02
858.986	64.52
859.289	64.66
859.592	65.09
859.894	65.04
860.197	64.74
860.5	64.82
860.802	64.73
861.105	64.36
861.407	64.73
861.71	64.74
862.012	64.95
862.315	65.01
862.617	64.88
862.919	64.68
863.222	64.36
863.524	64.89
863.826	65.06
864.128	64.98
864.43	65.23
864.732	65.34
865.034	65.42
865.336	64.84
865.638	64.67
865.94	64.3
866.242	64.28
866.544	64.22
866.846	64.47
867.147	64.4
867.449	64.44
867.751	64.07
868.052	64.04
868.354	64.07
868.655	64.29
868.957	64.61
869.258	64.68
869.56	64.93
869.861	65.21
870.162	64.88
870.463	65.2
870.765	65.22
871.066	65.08
871.367	64.67
871.668	65.3
871.969	65.43
872.27	65.68
872.571	65.74
872.872	66.1
873.173	65.89
873.473	65.89
873.774	66.14
874.075	66.04
874.376	66.38
874.676	66.05
874.977	65.53
875.277	65.21
875.578	65.74
875.878	65.91
876.179	65.66
876.479	65.76
876.78	65.52
877.08	65.57
877.38	65.7
877.68	66.08
877.981	65.79
878.281	65.72
878.581	65.58
