Data from UWBM104549_Reflection_00003.txt Node
Date: Sun May 02 12:24:21 EDT 2021
User: vgr7
Spectrometer: USB2G7710
Scans to average: 10
Trigger mode: 4
Integration Time (sec): 1.000000E-1
Electric dark correction enabled: true
Boxcar width: 10
XAxis mode: Wavelengths
Number of Pixels in Spectrum: 2048
>>>>>Begin Spectral Data<<<<<
177.721	612
178.105	214.29
178.488	230.97
178.871	348.98
179.254	-33.87
179.636	20.22
180.019	-270
180.402	233.33
180.785	128.08
181.168	67.88
181.55	47.56
181.933	75
182.316	34.74
182.698	-90.7
183.081	-104.65
183.463	-150
183.846	4.03
184.228	-10.71
184.611	6.28
184.993	5.19
185.376	1.95
185.758	-3.36
186.14	-6.72
186.522	-0.56
186.904	8.43
187.287	16.2
187.669	17.1
188.051	20.78
188.433	18.42
188.815	10.32
189.197	15.27
189.579	17.93
189.961	18.45
190.342	17.37
190.724	29.79
191.106	31.5
191.488	34.05
191.869	27.92
192.251	35.24
192.633	33.53
193.014	37.94
193.396	42.35
193.777	51.37
194.159	47.75
194.54	41.68
194.922	42.41
195.303	41.1
195.684	45.71
196.065	43.15
196.447	50.05
196.828	47.86
197.209	43.48
197.59	40.1
197.971	35.12
198.352	35.05
198.733	38.56
199.114	33.1
199.495	34.3
199.876	34.17
200.257	32.23
200.638	34.71
201.018	26.48
201.399	24.15
201.78	16.56
202.16	10.38
202.541	9.06
202.922	1.26
203.302	-1.26
203.683	-4.08
204.063	-8.18
204.444	-11.55
204.824	-7.71
205.204	-6.57
205.585	-3.29
205.965	-3.13
206.345	-2.5
206.725	-10.75
207.106	-8.32
207.486	-11
207.866	-10.64
208.246	-12.93
208.626	-12.71
209.006	-9.77
209.386	-12.07
209.766	-8.69
210.145	0.75
210.525	4.64
210.905	8.04
211.285	8.14
211.664	6.19
212.044	10.78
212.424	16.28
212.803	18.74
213.183	22.91
213.562	22.31
213.942	20.58
214.321	18.14
214.701	17.43
215.08	22.19
215.459	22.85
215.838	22.81
216.218	24.69
216.597	28.16
216.976	27.88
217.355	27.86
217.734	26.96
218.113	21.94
218.492	22.59
218.871	26.4
219.25	26.17
219.629	24.08
220.008	25.48
220.387	23.04
220.766	20.58
221.144	17.31
221.523	13.94
221.902	12.53
222.28	11.54
222.659	14.38
223.037	14.49
223.416	17.29
223.794	16.65
224.173	15.33
224.551	12.9
224.929	10.33
225.308	11.79
225.686	10.87
226.064	10.75
226.442	9.73
226.821	8.55
227.199	8.61
227.577	9.1
227.955	6.85
228.333	6.68
228.711	5.19
229.089	5.73
229.467	6.81
229.845	8.78
230.222	9.46
230.6	8.9
230.978	8.12
231.356	6.87
231.733	6.32
232.111	6.26
232.488	5.28
232.866	5.05
233.243	4.28
233.621	4.87
233.998	5.19
234.376	5.43
234.753	5.31
235.13	5.22
235.508	6.29
235.885	7.03
236.262	7.16
236.639	8.2
237.016	7.9
237.393	7.06
237.77	6.4
238.147	6.06
238.524	5.92
238.901	5.91
239.278	5.66
239.655	5.65
240.032	5.59
240.409	5.76
240.785	5.69
241.162	5.66
241.539	5.3
241.915	5.26
242.292	5.35
242.668	5.21
243.045	5.13
243.421	4.88
243.798	4.81
244.174	4.72
244.551	4.64
244.927	4.64
245.303	4.7
245.679	4.71
246.056	4.65
246.432	4.68
246.808	4.65
247.184	4.71
247.56	4.65
247.936	4.67
248.312	4.65
248.688	4.74
249.064	4.76
249.44	4.81
249.815	4.8
250.191	4.65
250.567	4.66
250.943	4.69
251.318	4.72
251.694	4.63
252.069	4.55
252.445	4.49
252.82	4.47
253.196	4.5
253.571	4.43
253.947	4.6
254.322	4.53
254.697	4.62
255.073	4.54
255.448	4.57
255.823	4.47
256.198	4.36
256.573	4.24
256.948	4.19
257.323	4.2
257.698	4.19
258.073	4.26
258.448	4.32
258.823	4.33
259.198	4.3
259.573	4.34
259.948	4.39
260.322	4.38
260.697	4.33
261.072	4.31
261.446	4.31
261.821	4.29
262.195	4.23
262.57	4.16
262.944	4.18
263.319	4.18
263.693	4.2
264.067	4.23
264.442	4.25
264.816	4.24
265.19	4.23
265.564	4.22
265.938	4.16
266.313	4.07
266.687	3.97
267.061	3.99
267.435	3.97
267.809	3.97
268.183	4.02
268.556	4.05
268.93	4.07
269.304	4.04
269.678	4.02
270.051	4.05
270.425	4.06
270.799	4.09
271.172	4.06
271.546	4.05
271.919	4.08
272.293	4.04
272.666	4.05
273.04	4.06
273.413	4.06
273.787	4.08
274.16	4.11
274.533	4.16
274.906	4.12
275.279	4.14
275.653	4.09
276.026	4.04
276.399	4.03
276.772	4.04
277.145	4.09
277.518	4.1
277.891	4.13
278.263	4.11
278.636	4.11
279.009	4.15
279.382	4.1
279.755	4.04
280.127	4.1
280.5	4.11
280.872	4.02
281.245	4.05
281.617	4.06
281.99	4.08
282.362	4.03
282.735	4.02
283.107	4.01
283.479	4.05
283.852	4.07
284.224	4.08
284.596	4.04
284.968	4.03
285.34	4.01
285.713	4.05
286.085	4.06
286.457	4.03
286.829	3.99
287.201	4.02
287.572	4.06
287.944	4.07
288.316	4.06
288.688	4.15
289.06	4.13
289.431	4.12
289.803	4.11
290.175	4.15
290.546	4.18
290.918	4.19
291.289	4.2
291.661	4.21
292.032	4.18
292.403	4.24
292.775	4.24
293.146	4.26
293.517	4.27
293.889	4.27
294.26	4.26
294.631	4.27
295.002	4.29
295.373	4.33
295.744	4.3
296.115	4.36
296.486	4.33
296.857	4.34
297.228	4.36
297.599	4.35
297.97	4.34
298.34	4.38
298.711	4.36
299.082	4.33
299.452	4.33
299.823	4.38
300.194	4.37
300.564	4.37
300.935	4.38
301.305	4.4
301.676	4.4
302.046	4.43
302.416	4.45
302.787	4.48
303.157	4.46
303.527	4.49
303.897	4.46
304.267	4.45
304.637	4.46
305.008	4.51
305.378	4.57
305.748	4.59
306.117	4.57
306.487	4.59
306.857	4.58
307.227	4.58
307.597	4.56
307.967	4.54
308.336	4.53
308.706	4.54
309.076	4.51
309.445	4.51
309.815	4.47
310.184	4.48
310.554	4.45
310.923	4.42
311.293	4.42
311.662	4.4
312.031	4.4
312.401	4.39
312.77	4.35
313.139	4.34
313.508	4.35
313.877	4.33
314.246	4.34
314.616	4.38
314.985	4.38
315.353	4.39
315.722	4.38
316.091	4.37
316.46	4.34
316.829	4.34
317.198	4.33
317.567	4.39
317.935	4.36
318.304	4.35
318.672	4.38
319.041	4.41
319.41	4.43
319.778	4.45
320.147	4.48
320.515	4.47
320.883	4.46
321.252	4.42
321.62	4.36
321.988	4.34
322.357	4.29
322.725	4.32
323.093	4.32
323.461	4.35
323.829	4.33
324.197	4.34
324.565	4.35
324.933	4.34
325.301	4.36
325.669	4.39
326.037	4.39
326.405	4.34
326.772	4.31
327.14	4.29
327.508	4.26
327.875	4.26
328.243	4.28
328.61	4.29
328.978	4.32
329.346	4.36
329.713	4.35
330.08	4.37
330.448	4.36
330.815	4.34
331.182	4.28
331.55	4.33
331.917	4.32
332.284	4.3
332.651	4.31
333.018	4.26
333.385	4.24
333.752	4.26
334.119	4.31
334.486	4.33
334.853	4.35
335.22	4.35
335.587	4.33
335.954	4.33
336.32	4.31
336.687	4.27
337.054	4.28
337.42	4.3
337.787	4.3
338.153	4.31
338.52	4.32
338.886	4.38
339.253	4.35
339.619	4.35
339.986	4.4
340.352	4.4
340.718	4.45
341.084	4.47
341.451	4.46
341.817	4.45
342.183	4.49
342.549	4.47
342.915	4.46
343.281	4.47
343.647	4.5
344.013	4.5
344.379	4.55
344.745	4.55
345.11	4.54
345.476	4.59
345.842	4.6
346.208	4.59
346.573	4.58
346.939	4.61
347.304	4.62
347.67	4.57
348.035	4.6
348.401	4.56
348.766	4.56
349.132	4.55
349.497	4.57
349.862	4.55
350.228	4.56
350.593	4.59
350.958	4.6
351.323	4.57
351.688	4.6
352.053	4.56
352.418	4.58
352.783	4.57
353.148	4.54
353.513	4.53
353.878	4.56
354.243	4.54
354.608	4.55
354.972	4.57
355.337	4.59
355.702	4.54
356.066	4.57
356.431	4.55
356.795	4.56
357.16	4.55
357.524	4.53
357.889	4.52
358.253	4.52
358.618	4.53
358.982	4.53
359.346	4.52
359.71	4.52
360.075	4.52
360.439	4.54
360.803	4.54
361.167	4.54
361.531	4.55
361.895	4.56
362.259	4.56
362.623	4.55
362.987	4.56
363.351	4.59
363.714	4.61
364.078	4.61
364.442	4.62
364.806	4.63
365.169	4.67
365.533	4.67
365.896	4.67
366.26	4.67
366.623	4.68
366.987	4.67
367.35	4.69
367.714	4.69
368.077	4.69
368.44	4.69
368.803	4.69
369.167	4.67
369.53	4.7
369.893	4.72
370.256	4.72
370.619	4.72
370.982	4.71
371.345	4.69
371.708	4.71
372.071	4.71
372.434	4.72
372.797	4.71
373.159	4.75
373.522	4.76
373.885	4.76
374.247	4.76
374.61	4.77
374.973	4.77
375.335	4.77
375.698	4.78
376.06	4.79
376.423	4.8
376.785	4.8
377.147	4.79
377.51	4.8
377.872	4.81
378.234	4.81
378.596	4.83
378.958	4.85
379.321	4.86
379.683	4.86
380.045	4.86
380.407	4.87
380.769	4.85
381.13	4.85
381.492	4.86
381.854	4.87
382.216	4.89
382.578	4.9
382.939	4.93
383.301	4.94
383.663	4.94
384.024	4.95
384.386	4.96
384.747	4.97
385.109	4.96
385.47	4.97
385.832	4.97
386.193	4.97
386.554	4.96
386.916	4.97
387.277	4.98
387.638	4.99
387.999	5
388.36	5.02
388.721	5.03
389.082	5.04
389.443	5.03
389.804	5.02
390.165	5.02
390.526	5.02
390.887	5.02
391.248	5.02
391.609	5.03
391.969	5.04
392.33	5.04
392.691	5.05
393.051	5.05
393.412	5.05
393.772	5.06
394.133	5.07
394.493	5.06
394.854	5.07
395.214	5.06
395.574	5.06
395.935	5.06
396.295	5.06
396.655	5.05
397.015	5.05
397.376	5.07
397.736	5.08
398.096	5.07
398.456	5.08
398.816	5.08
399.176	5.06
399.535	5.07
399.895	5.07
400.255	5.07
400.615	5.07
400.975	5.07
401.334	5.08
401.694	5.07
402.054	5.08
402.413	5.08
402.773	5.08
403.132	5.08
403.492	5.09
403.851	5.09
404.211	5.1
404.57	5.12
404.929	5.13
405.288	5.13
405.648	5.12
406.007	5.13
406.366	5.14
406.725	5.15
407.084	5.14
407.443	5.15
407.802	5.15
408.161	5.17
408.52	5.17
408.879	5.17
409.238	5.18
409.596	5.18
409.955	5.18
410.314	5.18
410.673	5.17
411.031	5.17
411.39	5.17
411.748	5.18
412.107	5.17
412.465	5.16
412.824	5.17
413.182	5.18
413.54	5.19
413.899	5.18
414.257	5.18
414.615	5.19
414.974	5.19
415.332	5.21
415.69	5.21
416.048	5.22
416.406	5.23
416.764	5.25
417.122	5.26
417.48	5.27
417.838	5.28
418.195	5.3
418.553	5.3
418.911	5.32
419.269	5.32
419.626	5.33
419.984	5.35
420.342	5.35
420.699	5.36
421.057	5.37
421.414	5.37
421.772	5.39
422.129	5.39
422.486	5.4
422.844	5.4
423.201	5.4
423.558	5.4
423.915	5.41
424.273	5.4
424.63	5.41
424.987	5.4
425.344	5.4
425.701	5.4
426.058	5.4
426.415	5.4
426.772	5.39
427.128	5.39
427.485	5.38
427.842	5.38
428.199	5.38
428.555	5.37
428.912	5.36
429.269	5.36
429.625	5.35
429.982	5.35
430.338	5.35
430.695	5.36
431.051	5.35
431.407	5.35
431.764	5.36
432.12	5.36
432.476	5.37
432.832	5.37
433.189	5.38
433.545	5.38
433.901	5.38
434.257	5.39
434.613	5.39
434.969	5.39
435.325	5.4
435.681	5.41
436.036	5.41
436.392	5.43
436.748	5.44
437.104	5.45
437.459	5.46
437.815	5.47
438.171	5.47
438.526	5.48
438.882	5.49
439.237	5.5
439.593	5.5
439.948	5.51
440.304	5.52
440.659	5.52
441.014	5.53
441.369	5.53
441.725	5.54
442.08	5.55
442.435	5.55
442.79	5.56
443.145	5.56
443.5	5.56
443.855	5.56
444.21	5.56
444.565	5.56
444.92	5.56
445.275	5.57
445.629	5.57
445.984	5.57
446.339	5.57
446.693	5.57
447.048	5.57
447.403	5.57
447.757	5.57
448.112	5.56
448.466	5.57
448.82	5.57
449.175	5.56
449.529	5.55
449.883	5.55
450.238	5.54
450.592	5.54
450.946	5.54
451.3	5.54
451.654	5.54
452.008	5.53
452.362	5.52
452.716	5.51
453.07	5.51
453.424	5.5
453.778	5.5
454.132	5.5
454.486	5.5
454.839	5.5
455.193	5.5
455.547	5.51
455.9	5.51
456.254	5.52
456.607	5.52
456.961	5.54
457.314	5.56
457.668	5.56
458.021	5.57
458.375	5.58
458.728	5.58
459.081	5.58
459.434	5.59
459.787	5.6
460.141	5.6
460.494	5.6
460.847	5.6
461.2	5.6
461.553	5.6
461.906	5.6
462.259	5.6
462.611	5.6
462.964	5.6
463.317	5.6
463.67	5.59
464.022	5.59
464.375	5.58
464.728	5.57
465.08	5.57
465.433	5.57
465.785	5.56
466.138	5.55
466.49	5.55
466.843	5.55
467.195	5.55
467.547	5.56
467.899	5.56
468.252	5.56
468.604	5.56
468.956	5.56
469.308	5.57
469.66	5.57
470.012	5.57
470.364	5.58
470.716	5.58
471.068	5.58
471.42	5.59
471.772	5.59
472.123	5.6
472.475	5.6
472.827	5.61
473.178	5.61
473.53	5.62
473.882	5.62
474.233	5.63
474.585	5.64
474.936	5.64
475.288	5.64
475.639	5.65
475.99	5.66
476.342	5.67
476.693	5.68
477.044	5.68
477.395	5.68
477.746	5.69
478.097	5.7
478.448	5.74
478.8	5.84
479.15	5.99
479.501	6.18
479.852	6.39
480.203	6.62
480.554	6.85
480.905	7.09
481.255	7.32
481.606	7.56
481.957	7.78
482.307	8
482.658	8.2
483.009	8.37
483.359	8.5
483.709	8.63
484.06	8.75
484.41	8.87
484.761	8.97
485.111	9.07
485.461	9.17
485.811	9.27
486.162	9.31
486.512	9.3
486.862	9.25
487.212	9.17
487.562	9.06
487.912	8.93
488.262	8.79
488.612	8.64
488.961	8.47
489.311	8.29
489.661	8.11
490.011	7.91
490.36	7.73
490.71	7.53
491.06	7.32
491.409	7.12
491.759	6.96
492.108	6.83
492.458	6.71
492.807	6.6
493.157	6.49
493.506	6.39
493.855	6.3
494.204	6.2
494.554	6.11
494.903	6.04
495.252	5.96
495.601	5.89
495.95	5.82
496.299	5.76
496.648	5.71
496.997	5.66
497.346	5.64
497.695	5.64
498.043	5.68
498.392	5.75
498.741	5.82
499.09	5.86
499.438	5.87
499.787	5.88
500.135	5.88
500.484	5.89
500.832	5.9
501.181	5.9
501.529	5.9
501.878	5.91
502.226	5.9
502.574	5.91
502.923	5.91
503.271	5.91
503.619	5.92
503.967	5.93
504.315	5.94
504.663	5.95
505.011	5.95
505.359	5.96
505.707	5.96
506.055	5.97
506.403	5.99
506.751	6
507.098	6.01
507.446	6.03
507.794	6.04
508.141	6.03
508.489	6.04
508.837	6.05
509.184	6.06
509.531	6.08
509.879	6.08
510.226	6.1
510.574	6.11
510.921	6.11
511.268	6.11
511.616	6.11
511.963	6.12
512.31	6.13
512.657	6.13
513.004	6.14
513.351	6.15
513.698	6.15
514.045	6.16
514.392	6.17
514.739	6.18
515.086	6.18
515.432	6.2
515.779	6.21
516.126	6.22
516.473	6.23
516.819	6.24
517.166	6.24
517.512	6.25
517.859	6.25
518.205	6.26
518.552	6.26
518.898	6.27
519.245	6.28
519.591	6.28
519.937	6.28
520.283	6.28
520.629	6.29
520.976	6.29
521.322	6.3
521.668	6.3
522.014	6.3
522.36	6.31
522.706	6.32
523.052	6.34
523.398	6.39
523.743	6.48
524.089	6.6
524.435	6.74
524.781	6.88
525.126	7.02
525.472	7.17
525.817	7.32
526.163	7.46
526.509	7.58
526.854	7.68
527.199	7.76
527.545	7.82
527.89	7.85
528.235	7.88
528.581	7.91
528.926	7.93
529.271	7.95
529.616	7.98
529.961	7.99
530.306	8
530.651	7.98
530.996	7.93
531.341	7.86
531.686	7.76
532.031	7.63
532.376	7.49
532.721	7.33
533.065	7.16
533.41	7.02
533.755	6.88
534.099	6.78
534.444	6.69
534.788	6.63
535.133	6.6
535.477	6.56
535.822	6.52
536.166	6.48
536.51	6.46
536.855	6.43
537.199	6.42
537.543	6.41
537.887	6.42
538.231	6.43
538.576	6.44
538.92	6.46
539.264	6.5
539.608	6.55
539.951	6.6
540.295	6.64
540.639	6.65
540.983	6.66
541.327	6.65
541.671	6.64
542.014	6.65
542.358	6.65
542.701	6.65
543.045	6.65
543.389	6.66
543.732	6.66
544.075	6.66
544.419	6.66
544.762	6.65
545.105	6.63
545.449	6.61
545.792	6.58
546.135	6.55
546.478	6.52
546.821	6.49
547.165	6.47
547.508	6.47
547.851	6.48
548.194	6.5
548.536	6.53
548.879	6.53
549.222	6.53
549.565	6.52
549.908	6.52
550.25	6.52
550.593	6.52
550.936	6.52
551.278	6.52
551.621	6.51
551.963	6.51
552.306	6.52
552.648	6.52
552.991	6.51
553.333	6.5
553.675	6.51
554.017	6.52
554.36	6.52
554.702	6.52
555.044	6.51
555.386	6.5
555.728	6.5
556.07	6.5
556.412	6.49
556.754	6.49
557.096	6.49
557.438	6.48
557.78	6.48
558.121	6.48
558.463	6.49
558.805	6.49
559.147	6.5
559.488	6.5
559.83	6.5
560.171	6.5
560.513	6.51
560.854	6.51
561.196	6.51
561.537	6.52
561.878	6.53
562.22	6.53
562.561	6.54
562.902	6.55
563.243	6.57
563.584	6.58
563.925	6.6
564.266	6.6
564.607	6.61
564.948	6.62
565.289	6.63
565.63	6.63
565.971	6.63
566.312	6.63
566.653	6.64
566.993	6.64
567.334	6.64
567.675	6.64
568.015	6.64
568.356	6.65
568.696	6.65
569.037	6.65
569.377	6.66
569.718	6.67
570.058	6.67
570.398	6.67
570.739	6.66
571.079	6.66
571.419	6.66
571.759	6.67
572.099	6.67
572.439	6.67
572.779	6.68
573.119	6.69
573.459	6.68
573.799	6.69
574.139	6.69
574.479	6.71
574.819	6.71
575.158	6.71
575.498	6.72
575.838	6.72
576.177	6.72
576.517	6.72
576.856	6.72
577.196	6.72
577.535	6.73
577.875	6.73
578.214	6.74
578.553	6.74
578.893	6.73
579.232	6.73
579.571	6.73
579.91	6.73
580.25	6.74
580.589	6.74
580.928	6.72
581.267	6.72
581.606	6.73
581.945	6.73
582.283	6.73
582.622	6.74
582.961	6.74
583.3	6.74
583.639	6.75
583.977	6.77
584.316	6.77
584.654	6.78
584.993	6.78
585.332	6.78
585.67	6.79
586.008	6.79
586.347	6.79
586.685	6.8
587.024	6.79
587.362	6.8
587.7	6.81
588.038	6.81
588.376	6.81
588.715	6.81
589.053	6.81
589.391	6.82
589.729	6.81
590.067	6.81
590.404	6.82
590.742	6.83
591.08	6.83
591.418	6.84
591.756	6.84
592.093	6.85
592.431	6.86
592.769	6.87
593.106	6.87
593.444	6.87
593.781	6.88
594.119	6.89
594.456	6.9
594.793	6.91
595.131	6.92
595.468	6.94
595.805	6.95
596.143	6.97
596.48	6.97
596.817	6.98
597.154	6.99
597.491	6.99
597.828	6.99
598.165	6.99
598.502	6.99
598.839	6.99
599.176	6.98
599.512	6.98
599.849	6.97
600.186	7
600.523	6.99
600.859	6.99
601.196	7
601.532	7
601.869	7.01
602.205	7.01
602.542	7.02
602.878	7.02
603.215	7.02
603.551	7.01
603.887	7.02
604.223	7.04
604.56	7.04
604.896	7.04
605.232	7.04
605.568	7.04
605.904	7.05
606.24	7.07
606.576	7.09
606.912	7.11
607.248	7.11
607.583	7.11
607.919	7.11
608.255	7.11
608.591	7.11
608.926	7.11
609.262	7.11
609.597	7.11
609.933	7.12
610.268	7.13
610.604	7.15
610.939	7.13
611.275	7.12
611.61	7.13
611.945	7.13
612.281	7.15
612.616	7.16
612.951	7.15
613.286	7.16
613.621	7.14
613.956	7.13
614.291	7.14
614.626	7.14
614.961	7.14
615.296	7.14
615.631	7.15
615.966	7.14
616.3	7.14
616.635	7.14
616.97	7.13
617.304	7.14
617.639	7.14
617.973	7.15
618.308	7.15
618.642	7.14
618.977	7.14
619.311	7.12
619.646	7.13
619.98	7.14
620.314	7.13
620.648	7.14
620.983	7.15
621.317	7.16
621.651	7.16
621.985	7.17
622.319	7.19
622.653	7.19
622.987	7.2
623.321	7.2
623.655	7.19
623.988	7.21
624.322	7.21
624.656	7.22
624.99	7.23
625.323	7.24
625.657	7.26
625.99	7.27
626.324	7.29
626.657	7.3
626.991	7.3
627.324	7.32
627.658	7.32
627.991	7.32
628.324	7.32
628.657	7.33
628.991	7.34
629.324	7.35
629.657	7.36
629.99	7.37
630.323	7.37
630.656	7.38
630.989	7.39
631.322	7.4
631.655	7.38
631.987	7.38
632.32	7.39
632.653	7.41
632.986	7.42
633.318	7.41
633.651	7.4
633.984	7.4
634.316	7.41
634.649	7.41
634.981	7.43
635.313	7.43
635.646	7.43
635.978	7.43
636.31	7.42
636.643	7.42
636.975	7.44
637.307	7.43
637.639	7.44
637.971	7.45
638.303	7.45
638.635	7.46
638.967	7.47
639.299	7.47
639.631	7.45
639.963	7.45
640.295	7.47
640.626	7.49
640.958	7.49
641.29	7.49
641.621	7.5
641.953	7.5
642.285	7.51
642.616	7.53
642.948	7.53
643.279	7.54
643.61	7.54
643.942	7.55
644.273	7.57
644.604	7.57
644.936	7.58
645.267	7.59
645.598	7.6
645.929	7.61
646.26	7.63
646.591	7.64
646.922	7.65
647.253	7.65
647.584	7.65
647.915	7.64
648.245	7.66
648.576	7.67
648.907	7.66
649.238	7.68
649.568	7.67
649.899	7.68
650.229	7.67
650.56	7.69
650.89	7.69
651.221	7.71
651.551	7.74
651.882	7.74
652.212	7.73
652.542	7.73
652.872	7.73
653.203	7.75
653.533	7.76
653.863	7.75
654.193	7.76
654.523	7.75
654.853	7.77
655.183	7.77
655.513	7.78
655.843	7.8
656.172	7.79
656.502	7.82
656.832	7.83
657.162	7.84
657.491	7.85
657.821	7.85
658.15	7.85
658.48	7.85
658.809	7.85
659.139	7.86
659.468	7.89
659.798	7.89
660.127	7.89
660.456	7.9
660.785	7.91
661.115	7.94
661.444	7.96
661.773	7.96
662.102	7.98
662.431	7.97
662.76	7.97
663.089	7.97
663.418	7.96
663.747	7.94
664.076	7.96
664.404	7.95
664.733	7.96
665.062	7.98
665.39	7.97
665.719	7.97
666.048	8
666.376	8
666.705	8
667.033	8
667.362	7.98
667.69	7.98
668.018	7.97
668.347	7.99
668.675	7.96
669.003	7.96
669.331	7.98
669.659	8
669.987	8.03
670.315	8.04
670.643	8.08
670.971	8.08
671.299	8.08
671.627	8.08
671.955	8.08
672.283	8.08
672.61	8.08
672.938	8.07
673.266	8.09
673.593	8.09
673.921	8.11
674.249	8.13
674.576	8.14
674.904	8.16
675.231	8.15
675.558	8.2
675.886	8.22
676.213	8.21
676.54	8.21
676.867	8.23
677.195	8.27
677.522	8.28
677.849	8.31
678.176	8.32
678.503	8.33
678.83	8.33
679.157	8.37
679.484	8.38
679.81	8.4
680.137	8.39
680.464	8.39
680.791	8.36
681.117	8.38
681.444	8.39
681.771	8.4
682.097	8.4
682.424	8.39
682.75	8.38
683.077	8.39
683.403	8.42
683.729	8.4
684.056	8.39
684.382	8.39
684.708	8.4
685.034	8.42
685.36	8.39
685.686	8.41
686.012	8.4
686.339	8.43
686.664	8.42
686.99	8.43
687.316	8.48
687.642	8.52
687.968	8.54
688.294	8.54
688.619	8.53
688.945	8.57
689.271	8.6
689.596	8.62
689.922	8.68
690.247	8.69
690.573	8.74
690.898	8.75
691.224	8.74
691.549	8.73
691.874	8.72
692.2	8.77
692.525	8.78
692.85	8.74
693.175	8.76
693.5	8.79
693.825	8.77
694.15	8.75
694.475	8.76
694.8	8.74
695.125	8.77
695.45	8.77
695.775	8.75
696.099	8.75
696.424	8.75
696.749	8.73
697.073	8.74
697.398	8.72
697.723	8.73
698.047	8.75
698.372	8.78
698.696	8.8
699.02	8.78
699.345	8.8
699.669	8.82
699.993	8.81
700.318	8.81
700.642	8.83
700.966	8.84
701.29	8.82
701.614	8.84
701.938	8.85
702.262	8.86
702.586	8.87
702.91	8.89
703.234	8.89
703.557	8.87
703.881	8.88
704.205	8.91
704.529	8.91
704.852	8.91
705.176	8.9
705.499	8.89
705.823	8.93
706.146	8.93
706.47	8.92
706.793	8.92
707.117	8.96
707.44	8.97
707.763	9
708.086	9.04
708.409	9.02
708.733	9
709.056	9.03
709.379	9.03
709.702	9.04
710.025	9.08
710.348	9.11
710.671	9.09
710.993	9.1
711.316	9.13
711.639	9.12
711.962	9.12
712.284	9.13
712.607	9.14
712.93	9.16
713.252	9.2
713.575	9.2
713.897	9.18
714.22	9.19
714.542	9.19
714.864	9.22
715.187	9.28
715.509	9.31
715.831	9.33
716.153	9.36
716.475	9.41
716.798	9.39
717.12	9.4
717.442	9.43
717.764	9.45
718.085	9.47
718.407	9.51
718.729	9.5
719.051	9.56
719.373	9.57
719.695	9.54
720.016	9.59
720.338	9.62
720.659	9.66
720.981	9.67
721.302	9.66
721.624	9.65
721.945	9.62
722.267	9.61
722.588	9.6
722.909	9.65
723.231	9.59
723.552	9.6
723.873	9.62
724.194	9.61
724.515	9.59
724.836	9.57
725.157	9.57
725.478	9.61
725.799	9.59
726.12	9.57
726.441	9.64
726.762	9.67
727.083	9.66
727.403	9.67
727.724	9.64
728.045	9.68
728.365	9.74
728.686	9.78
729.006	9.85
729.327	9.8
729.647	9.78
729.967	9.77
730.288	9.82
730.608	9.79
730.928	9.78
731.249	9.79
731.569	9.82
731.889	9.82
732.209	9.83
732.529	9.85
732.849	9.87
733.169	9.86
733.489	9.82
733.809	9.83
734.129	9.8
734.448	9.84
734.768	9.82
735.088	9.82
735.408	9.86
735.727	9.82
736.047	9.89
736.366	9.87
736.686	9.92
737.005	9.9
737.325	9.87
737.644	9.93
737.963	9.96
738.283	9.92
738.602	9.91
738.921	9.92
739.24	9.91
739.56	9.99
739.879	10.01
740.198	10.1
740.517	10.13
740.836	10.19
741.155	10.22
741.473	10.24
741.792	10.24
742.111	10.23
742.43	10.27
742.748	10.3
743.067	10.32
743.386	10.3
743.704	10.27
744.023	10.32
744.341	10.32
744.66	10.3
744.978	10.37
745.297	10.38
745.615	10.35
745.933	10.35
746.252	10.26
746.57	10.22
746.888	10.14
747.206	10.12
747.524	10.12
747.842	10.13
748.16	10.15
748.478	10.19
748.796	10.17
749.114	10.16
749.432	10.09
749.749	10.15
750.067	10.15
750.385	10.23
750.703	10.19
751.02	10.16
751.338	10.23
751.655	10.23
751.973	10.24
752.29	10.21
752.608	10.27
752.925	10.37
753.242	10.42
753.56	10.47
753.877	10.5
754.194	10.52
754.511	10.51
754.828	10.54
755.145	10.48
755.462	10.5
755.779	10.47
756.096	10.57
756.413	10.54
756.73	10.6
757.047	10.63
757.364	10.73
757.68	10.81
757.997	10.73
758.314	10.75
758.63	10.76
758.947	10.85
759.264	10.81
759.58	10.78
759.896	10.78
760.213	10.76
760.529	10.77
760.846	10.72
761.162	10.75
761.478	10.75
761.794	10.77
762.11	10.83
762.426	10.87
762.743	10.85
763.059	10.9
763.375	10.91
763.69	10.92
764.006	10.9
764.322	10.89
764.638	10.92
764.954	10.94
765.27	10.98
765.585	11.03
765.901	11.12
766.216	11.1
766.532	11.1
766.848	11.13
767.163	11.17
767.478	11.25
767.794	11.31
768.109	11.35
768.424	11.37
768.74	11.36
769.055	11.38
769.37	11.38
769.685	11.36
770	11.41
770.315	11.41
770.63	11.46
770.945	11.47
771.26	11.5
771.575	11.53
771.89	11.55
772.205	11.56
772.52	11.49
772.834	11.52
773.149	11.53
773.464	11.64
773.778	11.61
774.093	11.61
774.407	11.61
774.722	11.58
775.036	11.58
775.351	11.56
775.665	11.56
775.979	11.61
776.293	11.54
776.608	11.48
776.922	11.57
777.236	11.52
777.55	11.58
777.864	11.61
778.178	11.64
778.492	11.69
778.806	11.63
779.12	11.68
779.434	11.66
779.747	11.61
780.061	11.62
780.375	11.66
780.689	11.71
781.002	11.65
781.316	11.66
781.629	11.7
781.943	11.68
782.256	11.77
782.57	11.77
782.883	11.79
783.196	11.89
783.51	11.84
783.823	11.92
784.136	11.87
784.449	11.89
784.762	11.88
785.075	11.84
785.388	11.9
785.701	11.93
786.014	12.03
786.327	12.08
786.64	12.01
786.953	12.09
787.266	12.17
787.578	12.23
787.891	12.39
788.204	12.48
788.516	12.52
788.829	12.5
789.141	12.57
789.454	12.7
789.766	12.73
790.079	12.76
790.391	12.79
790.703	12.96
791.016	12.98
791.328	12.95
791.64	13.03
791.952	13.02
792.264	12.95
792.576	12.98
792.888	13.03
793.2	13.16
793.512	13.2
793.824	13.06
794.136	12.96
794.448	12.91
794.76	12.85
795.071	12.92
795.383	12.93
795.695	13
796.006	13.02
796.318	12.96
796.629	12.97
796.941	12.91
797.252	12.82
797.564	12.77
797.875	12.69
798.186	12.58
798.497	12.61
798.809	12.62
799.12	12.61
799.431	12.62
799.742	12.53
800.053	12.52
800.364	12.69
800.675	12.77
800.986	12.87
801.297	12.89
801.608	12.83
801.918	12.87
802.229	12.88
802.54	12.91
802.851	12.97
803.161	12.98
803.472	13.06
803.782	12.94
804.093	12.98
804.403	13.12
804.714	13.19
805.024	13.24
805.334	13.31
805.645	13.3
805.955	13.42
806.265	13.47
806.575	13.47
806.885	13.34
807.195	13.48
807.505	13.33
807.815	13.36
808.125	13.51
808.435	13.56
808.745	13.64
809.055	13.62
809.365	13.7
809.674	13.68
809.984	13.71
810.294	13.84
810.603	13.97
810.913	14.06
811.222	14.1
811.532	14.19
811.841	14.18
812.151	14.22
812.46	14.18
812.769	14.18
813.079	14.09
813.388	14.17
813.697	14.11
814.006	14.2
814.315	14.18
814.624	14.06
814.933	14.09
815.242	13.99
815.551	14.04
815.86	14.07
816.169	14.11
816.478	14.12
816.786	14.03
817.095	13.98
817.404	13.96
817.712	13.96
818.021	13.86
818.33	13.85
818.638	13.93
818.947	13.84
819.255	13.78
819.563	13.9
819.872	13.78
820.18	13.76
820.488	13.76
820.796	13.71
821.105	13.69
821.413	13.65
821.721	13.66
822.029	13.63
822.337	13.63
822.645	13.63
822.953	13.61
823.26	13.67
823.568	13.68
823.876	13.69
824.184	13.68
824.491	13.71
824.799	13.7
825.107	13.71
825.414	13.75
825.722	13.75
826.029	13.72
826.337	13.78
826.644	13.79
826.951	13.79
827.259	13.84
827.566	13.95
827.873	14.01
828.18	13.99
828.488	14.01
828.795	13.99
829.102	14.03
829.409	14.07
829.716	14.08
830.023	14.06
830.329	14.09
830.636	14.18
830.943	14.25
831.25	14.4
831.557	14.29
831.863	14.25
832.17	14.25
832.476	14.29
832.783	14.25
833.089	14.31
833.396	14.29
833.702	14.36
834.009	14.24
834.315	14.21
834.621	14.32
834.928	14.42
835.234	14.52
835.54	14.56
835.846	14.63
836.152	14.59
836.458	14.63
836.764	14.55
837.07	14.65
837.376	14.46
837.682	14.33
837.988	14.58
838.293	14.68
838.599	14.83
838.905	14.83
839.211	14.92
839.516	14.96
839.822	15.13
840.127	15.03
840.433	15.14
840.738	15.23
841.044	15.24
841.349	15.32
841.654	15.19
841.959	15.22
842.265	15.12
842.57	15.23
842.875	15.24
843.18	15.35
843.485	15.2
843.79	15.36
844.095	15.52
844.4	15.2
844.705	15.35
845.01	15.34
845.315	15.6
845.619	15.6
845.924	15.44
846.229	15.1
846.533	15.05
846.838	15.15
847.142	14.89
847.447	15.11
847.751	15.34
848.056	15.64
848.36	15.67
848.664	15.88
848.969	15.86
849.273	15.87
849.577	16.03
849.881	15.98
850.185	16.09
850.489	15.97
850.794	16.62
851.097	16.41
851.401	16.49
851.705	16.15
852.009	16.08
852.313	16.17
852.617	16.59
852.92	16.72
853.224	16.99
853.528	17.5
853.831	17.07
854.135	16.49
854.438	16.24
854.742	16.01
855.045	15.78
855.349	15.85
855.652	16.31
855.955	16.22
856.259	16.33
856.562	16.56
856.865	16.73
857.168	16.37
857.471	16.21
857.774	16.16
858.077	16.16
858.38	16.28
858.683	16.36
858.986	16.18
859.289	16.48
859.592	16.24
859.894	15.99
860.197	16.43
860.5	16.35
860.802	16.61
861.105	16.53
861.407	16.74
861.71	16.77
862.012	16.69
862.315	17.01
862.617	16.87
862.919	16.86
863.222	16.92
863.524	16.93
863.826	17.39
864.128	17.33
864.43	17.56
864.732	17.49
865.034	17.57
865.336	17.69
865.638	17.4
865.94	17.23
866.242	17
866.544	16.95
866.846	17.58
867.147	17.53
867.449	17.73
867.751	18
868.052	17.95
868.354	17.96
868.655	17.99
868.957	18.35
869.258	18.07
869.56	18.18
869.861	18.46
870.162	18.24
870.463	18.17
870.765	18.33
871.066	18.24
871.367	18.34
871.668	18.38
871.969	18.51
872.27	18.42
872.571	18.37
872.872	18.46
873.173	18.27
873.473	18.37
873.774	18.28
874.075	18.14
874.376	18.33
874.676	18.16
874.977	18.21
875.277	18.06
875.578	18.25
875.878	18.14
876.179	17.91
876.479	17.82
876.78	18.06
877.08	17.85
877.38	18.11
877.68	18.06
877.981	18.06
878.281	18.32
878.581	18.66
