Data from UWBM88853_Reflection_00003.txt Node
Date: Sun May 02 13:40:15 EDT 2021
User: vgr7
Spectrometer: USB2G7710
Scans to average: 10
Trigger mode: 4
Integration Time (sec): 1.000000E-1
Electric dark correction enabled: true
Boxcar width: 20
XAxis mode: Wavelengths
Number of Pixels in Spectrum: 2048
>>>>>Begin Spectral Data<<<<<
177.721	90.2
178.105	76.19
178.488	76.75
178.871	212.28
179.254	92.95
179.636	27.97
180.019	37.04
180.402	39.7
180.785	40.57
181.168	37.52
181.55	28.54
181.933	25.38
182.316	19.03
182.698	12.29
183.081	9.18
183.463	6.47
183.846	4.1
184.228	6.06
184.611	5.09
184.993	5.93
185.376	6.4
185.758	8.84
186.14	9.31
186.522	5.57
186.904	5.77
187.287	7.95
187.669	6.12
188.051	6.47
188.433	6.24
188.815	2.67
189.197	4.55
189.579	2.59
189.961	0.41
190.342	0.87
190.724	0.85
191.106	0.81
191.488	-2.25
191.869	-5.08
192.251	-7.49
192.633	-5.79
193.014	-6.11
193.396	-9.17
193.777	-7.82
194.159	-7.97
194.54	-10.97
194.922	-11.16
195.303	-11.03
195.684	-12.91
196.065	-13.94
196.447	-13.26
196.828	-13.3
197.209	-13.42
197.59	-15.02
197.971	-14.66
198.352	-12.32
198.733	-10.05
199.114	-10.92
199.495	-9.19
199.876	-9.51
200.257	-9.65
200.638	-10.73
201.018	-10.56
201.399	-9.66
201.78	-11.02
202.16	-9.46
202.541	-10.92
202.922	-12.86
203.302	-10.31
203.683	-10.73
204.063	-9.43
204.444	-8.2
204.824	-8.6
205.204	-9.91
205.585	-8.79
205.965	-7.8
206.345	-8.73
206.725	-8.68
207.106	-8.23
207.486	-7.45
207.866	-7.11
208.246	-9.57
208.626	-11.27
209.006	-11.33
209.386	-11.37
209.766	-10.95
210.145	-10.42
210.525	-9.71
210.905	-7.82
211.285	-8.64
211.664	-8.24
212.044	-9.46
212.424	-9.36
212.803	-9.37
213.183	-9.15
213.562	-8.04
213.942	-8.43
214.321	-8.85
214.701	-7.37
215.08	-7.39
215.459	-8.33
215.838	-8.4
216.218	-8.64
216.597	-8.74
216.976	-9.97
217.355	-8.11
217.734	-8.68
218.113	-8.84
218.492	-8.01
218.871	-9.46
219.25	-8.08
219.629	-8.01
220.008	-8.6
220.387	-8.86
220.766	-7.39
221.144	-7.01
221.523	-5.93
221.902	-4.66
222.28	-4.81
222.659	-4.31
223.037	-4.17
223.416	-2.38
223.794	-0.65
224.173	0.33
224.551	0.36
224.929	0.92
225.308	1.18
225.686	1.34
226.064	1.5
226.442	1.7
226.821	2.56
227.199	2.81
227.577	2.93
227.955	2.87
228.333	3.09
228.711	2.58
229.089	1.78
229.467	1.58
229.845	1.27
230.222	1.31
230.6	1.24
230.978	1.39
231.356	1.57
231.733	1.78
232.111	1.81
232.488	2.03
232.866	1.82
233.243	1.81
233.621	2.18
233.998	2.14
234.376	2.19
234.753	2.03
235.13	2.08
235.508	2.42
235.885	2.61
236.262	2.56
236.639	2.6
237.016	2.65
237.393	2.78
237.77	2.91
238.147	3.01
238.524	3.03
238.901	2.91
239.278	2.94
239.655	3.09
240.032	3.19
240.409	3.26
240.785	3.28
241.162	3.29
241.539	3.32
241.915	3.36
242.292	3.33
242.668	3.33
243.045	3.32
243.421	3.3
243.798	3.33
244.174	3.41
244.551	3.45
244.927	3.45
245.303	3.46
245.679	3.48
246.056	3.44
246.432	3.46
246.808	3.45
247.184	3.46
247.56	3.49
247.936	3.47
248.312	3.49
248.688	3.49
249.064	3.48
249.44	3.51
249.815	3.5
250.191	3.47
250.567	3.5
250.943	3.49
251.318	3.45
251.694	3.52
252.069	3.53
252.445	3.54
252.82	3.52
253.196	3.53
253.571	3.49
253.947	3.5
254.322	3.51
254.697	3.5
255.073	3.47
255.448	3.48
255.823	3.44
256.198	3.43
256.573	3.43
256.948	3.44
257.323	3.4
257.698	3.37
258.073	3.35
258.448	3.35
258.823	3.35
259.198	3.34
259.573	3.32
259.948	3.32
260.322	3.32
260.697	3.3
261.072	3.27
261.446	3.28
261.821	3.26
262.195	3.27
262.57	3.26
262.944	3.25
263.319	3.28
263.693	3.29
264.067	3.29
264.442	3.28
264.816	3.25
265.19	3.26
265.564	3.28
265.938	3.26
266.313	3.25
266.687	3.26
267.061	3.24
267.435	3.23
267.809	3.21
268.183	3.21
268.556	3.19
268.93	3.19
269.304	3.19
269.678	3.19
270.051	3.17
270.425	3.14
270.799	3.12
271.172	3.12
271.546	3.12
271.919	3.11
272.293	3.09
272.666	3.09
273.04	3.11
273.413	3.14
273.787	3.14
274.16	3.15
274.533	3.16
274.906	3.17
275.279	3.16
275.653	3.18
276.026	3.19
276.399	3.21
276.772	3.23
277.145	3.23
277.518	3.22
277.891	3.22
278.263	3.2
278.636	3.19
279.009	3.17
279.382	3.18
279.755	3.19
280.127	3.21
280.5	3.22
280.872	3.21
281.245	3.21
281.617	3.21
281.99	3.22
282.362	3.21
282.735	3.2
283.107	3.2
283.479	3.19
283.852	3.21
284.224	3.21
284.596	3.19
284.968	3.18
285.34	3.18
285.713	3.19
286.085	3.21
286.457	3.22
286.829	3.22
287.201	3.23
287.572	3.24
287.944	3.25
288.316	3.25
288.688	3.23
289.06	3.24
289.431	3.24
289.803	3.25
290.175	3.25
290.546	3.26
290.918	3.27
291.289	3.28
291.661	3.28
292.032	3.26
292.403	3.27
292.775	3.3
293.146	3.31
293.517	3.33
293.889	3.33
294.26	3.35
294.631	3.37
295.002	3.38
295.373	3.39
295.744	3.38
296.115	3.4
296.486	3.43
296.857	3.44
297.228	3.44
297.599	3.46
297.97	3.47
298.34	3.47
298.711	3.48
299.082	3.49
299.452	3.51
299.823	3.52
300.194	3.54
300.564	3.56
300.935	3.58
301.305	3.59
301.676	3.58
302.046	3.59
302.416	3.6
302.787	3.59
303.157	3.59
303.527	3.6
303.897	3.61
304.267	3.62
304.637	3.62
305.008	3.63
305.378	3.64
305.748	3.65
306.117	3.64
306.487	3.65
306.857	3.66
307.227	3.67
307.597	3.68
307.967	3.66
308.336	3.67
308.706	3.66
309.076	3.66
309.445	3.65
309.815	3.64
310.184	3.61
310.554	3.62
310.923	3.64
311.293	3.62
311.662	3.61
312.031	3.62
312.401	3.64
312.77	3.64
313.139	3.65
313.508	3.66
313.877	3.66
314.246	3.66
314.616	3.65
314.985	3.65
315.353	3.67
315.722	3.66
316.091	3.67
316.46	3.66
316.829	3.66
317.198	3.68
317.567	3.68
317.935	3.69
318.304	3.69
318.672	3.7
319.041	3.72
319.41	3.72
319.778	3.73
320.147	3.72
320.515	3.7
320.883	3.68
321.252	3.68
321.62	3.68
321.988	3.68
322.357	3.69
322.725	3.7
323.093	3.7
323.461	3.69
323.829	3.7
324.197	3.71
324.565	3.7
324.933	3.7
325.301	3.71
325.669	3.72
326.037	3.7
326.405	3.71
326.772	3.72
327.14	3.72
327.508	3.7
327.875	3.7
328.243	3.68
328.61	3.67
328.978	3.67
329.346	3.67
329.713	3.69
330.08	3.69
330.448	3.67
330.815	3.65
331.182	3.63
331.55	3.64
331.917	3.63
332.284	3.61
332.651	3.61
333.018	3.62
333.385	3.63
333.752	3.62
334.119	3.6
334.486	3.6
334.853	3.58
335.22	3.59
335.587	3.6
335.954	3.61
336.32	3.62
336.687	3.61
337.054	3.6
337.42	3.6
337.787	3.6
338.153	3.61
338.52	3.6
338.886	3.59
339.253	3.61
339.619	3.62
339.986	3.63
340.352	3.63
340.718	3.64
341.084	3.64
341.451	3.64
341.817	3.64
342.183	3.64
342.549	3.64
342.915	3.64
343.281	3.66
343.647	3.66
344.013	3.66
344.379	3.66
344.745	3.67
345.11	3.67
345.476	3.68
345.842	3.69
346.208	3.7
346.573	3.7
346.939	3.71
347.304	3.73
347.67	3.72
348.035	3.72
348.401	3.72
348.766	3.73
349.132	3.74
349.497	3.75
349.862	3.76
350.228	3.77
350.593	3.77
350.958	3.78
351.323	3.78
351.688	3.79
352.053	3.8
352.418	3.81
352.783	3.8
353.148	3.79
353.513	3.81
353.878	3.81
354.243	3.81
354.608	3.81
354.972	3.82
355.337	3.81
355.702	3.82
356.066	3.82
356.431	3.82
356.795	3.83
357.16	3.82
357.524	3.83
357.889	3.84
358.253	3.83
358.618	3.83
358.982	3.83
359.346	3.83
359.71	3.83
360.075	3.83
360.439	3.83
360.803	3.84
361.167	3.84
361.531	3.84
361.895	3.84
362.259	3.83
362.623	3.83
362.987	3.83
363.351	3.83
363.714	3.83
364.078	3.83
364.442	3.82
364.806	3.82
365.169	3.82
365.533	3.83
365.896	3.83
366.26	3.83
366.623	3.83
366.987	3.83
367.35	3.83
367.714	3.83
368.077	3.85
368.44	3.85
368.803	3.85
369.167	3.85
369.53	3.85
369.893	3.84
370.256	3.85
370.619	3.85
370.982	3.86
371.345	3.86
371.708	3.86
372.071	3.87
372.434	3.86
372.797	3.86
373.159	3.87
373.522	3.87
373.885	3.88
374.247	3.88
374.61	3.88
374.973	3.88
375.335	3.88
375.698	3.88
376.06	3.88
376.423	3.88
376.785	3.88
377.147	3.88
377.51	3.89
377.872	3.89
378.234	3.89
378.596	3.89
378.958	3.89
379.321	3.89
379.683	3.89
380.045	3.89
380.407	3.89
380.769	3.89
381.13	3.89
381.492	3.89
381.854	3.89
382.216	3.89
382.578	3.89
382.939	3.89
383.301	3.89
383.663	3.89
384.024	3.89
384.386	3.89
384.747	3.89
385.109	3.89
385.47	3.89
385.832	3.89
386.193	3.88
386.554	3.88
386.916	3.88
387.277	3.88
387.638	3.89
387.999	3.89
388.36	3.89
388.721	3.89
389.082	3.88
389.443	3.89
389.804	3.88
390.165	3.88
390.526	3.88
390.887	3.88
391.248	3.88
391.609	3.88
391.969	3.88
392.33	3.88
392.691	3.89
393.051	3.88
393.412	3.89
393.772	3.89
394.133	3.89
394.493	3.89
394.854	3.89
395.214	3.88
395.574	3.89
395.935	3.89
396.295	3.89
396.655	3.89
397.015	3.89
397.376	3.89
397.736	3.89
398.096	3.89
398.456	3.89
398.816	3.9
399.176	3.9
399.535	3.9
399.895	3.91
400.255	3.91
400.615	3.91
400.975	3.92
401.334	3.92
401.694	3.92
402.054	3.93
402.413	3.93
402.773	3.93
403.132	3.94
403.492	3.94
403.851	3.94
404.211	3.94
404.57	3.95
404.929	3.95
405.288	3.96
405.648	3.96
406.007	3.97
406.366	3.97
406.725	3.97
407.084	3.97
407.443	3.97
407.802	3.98
408.161	3.98
408.52	3.98
408.879	3.99
409.238	3.99
409.596	3.99
409.955	4
410.314	4
410.673	4
411.031	4.01
411.39	4.01
411.748	4.02
412.107	4.03
412.465	4.04
412.824	4.07
413.182	4.09
413.54	4.12
413.899	4.14
414.257	4.18
414.615	4.22
414.974	4.25
415.332	4.29
415.69	4.33
416.048	4.36
416.406	4.4
416.764	4.43
417.122	4.46
417.48	4.49
417.838	4.51
418.195	4.54
418.553	4.56
418.911	4.58
419.269	4.59
419.626	4.58
419.984	4.58
420.342	4.57
420.699	4.55
421.057	4.53
421.414	4.52
421.772	4.5
422.129	4.49
422.486	4.49
422.844	4.49
423.201	4.49
423.558	4.49
423.915	4.49
424.273	4.49
424.63	4.49
424.987	4.49
425.344	4.49
425.701	4.49
426.058	4.49
426.415	4.49
426.772	4.49
427.128	4.49
427.485	4.48
427.842	4.47
428.199	4.45
428.555	4.43
428.912	4.41
429.269	4.39
429.625	4.36
429.982	4.34
430.338	4.31
430.695	4.28
431.051	4.25
431.407	4.23
431.764	4.22
432.12	4.2
432.476	4.19
432.832	4.18
433.189	4.18
433.545	4.19
433.901	4.21
434.257	4.23
434.613	4.26
434.969	4.28
435.325	4.31
435.681	4.35
436.036	4.37
436.392	4.4
436.748	4.42
437.104	4.42
437.459	4.44
437.815	4.46
438.171	4.49
438.526	4.51
438.882	4.55
439.237	4.58
439.593	4.62
439.948	4.66
440.304	4.69
440.659	4.72
441.014	4.74
441.369	4.77
441.725	4.79
442.08	4.81
442.435	4.82
442.79	4.83
443.145	4.83
443.5	4.83
443.855	4.83
444.21	4.83
444.565	4.83
444.92	4.82
445.275	4.82
445.629	4.81
445.984	4.8
446.339	4.78
446.693	4.78
447.048	4.76
447.403	4.74
447.757	4.72
448.112	4.7
448.466	4.67
448.82	4.65
449.175	4.62
449.529	4.61
449.883	4.59
450.238	4.56
450.592	4.56
450.946	4.55
451.3	4.55
451.654	4.56
452.008	4.55
452.362	4.56
452.716	4.56
453.07	4.57
453.424	4.56
453.778	4.55
454.132	4.54
454.486	4.53
454.839	4.51
455.193	4.49
455.547	4.48
455.9	4.45
456.254	4.43
456.607	4.4
456.961	4.37
457.314	4.35
457.668	4.34
458.021	4.34
458.375	4.33
458.728	4.33
459.081	4.34
459.434	4.35
459.787	4.36
460.141	4.37
460.494	4.38
460.847	4.39
461.2	4.4
461.553	4.4
461.906	4.41
462.259	4.41
462.611	4.42
462.964	4.42
463.317	4.43
463.67	4.43
464.022	4.45
464.375	4.45
464.728	4.45
465.08	4.46
465.433	4.46
465.785	4.46
466.138	4.44
466.49	4.43
466.843	4.41
467.195	4.39
467.547	4.36
467.899	4.34
468.252	4.31
468.604	4.29
468.956	4.27
469.308	4.25
469.66	4.25
470.012	4.24
470.364	4.25
470.716	4.25
471.068	4.27
471.42	4.29
471.772	4.31
472.123	4.32
472.475	4.34
472.827	4.35
473.178	4.36
473.53	4.37
473.882	4.38
474.233	4.4
474.585	4.44
474.936	4.5
475.288	4.6
475.639	4.72
475.99	4.86
476.342	5.01
476.693	5.18
477.044	5.36
477.395	5.54
477.746	5.72
478.097	5.9
478.448	6.09
478.8	6.27
479.15	6.44
479.501	6.59
479.852	6.74
480.203	6.87
480.554	7.01
480.905	7.13
481.255	7.25
481.606	7.36
481.957	7.47
482.307	7.57
482.658	7.66
483.009	7.76
483.359	7.85
483.709	7.93
484.06	8.02
484.41	8.1
484.761	8.18
485.111	8.26
485.461	8.33
485.811	8.4
486.162	8.46
486.512	8.51
486.862	8.55
487.212	8.58
487.562	8.6
487.912	8.61
488.262	8.61
488.612	8.61
488.961	8.59
489.311	8.54
489.661	8.47
490.011	8.38
490.36	8.27
490.71	8.14
491.06	8
491.409	7.85
491.759	7.7
492.108	7.54
492.458	7.37
492.807	7.2
493.157	7.02
493.506	6.86
493.855	6.7
494.204	6.56
494.554	6.41
494.903	6.28
495.252	6.16
495.601	6.03
495.95	5.91
496.299	5.8
496.648	5.7
496.997	5.6
497.346	5.51
497.695	5.42
498.043	5.33
498.392	5.24
498.741	5.16
499.09	5.08
499.438	5.01
499.787	4.93
500.135	4.87
500.484	4.8
500.832	4.75
501.181	4.72
501.529	4.69
501.878	4.68
502.226	4.67
502.574	4.67
502.923	4.67
503.271	4.67
503.619	4.67
503.967	4.67
504.315	4.67
504.663	4.67
505.011	4.67
505.359	4.66
505.707	4.66
506.055	4.66
506.403	4.66
506.751	4.66
507.098	4.67
507.446	4.67
507.794	4.68
508.141	4.7
508.489	4.71
508.837	4.73
509.184	4.74
509.531	4.76
509.879	4.77
510.226	4.79
510.574	4.81
510.921	4.83
511.268	4.85
511.616	4.87
511.963	4.89
512.31	4.92
512.657	4.95
513.004	4.97
513.351	4.98
513.698	5
514.045	5
514.392	5.01
514.739	5.01
515.086	5.01
515.432	5
515.779	5
516.126	5
516.473	5
516.819	5
517.166	5.01
517.512	5.02
517.859	5.04
518.205	5.06
518.552	5.08
518.898	5.11
519.245	5.16
519.591	5.22
519.937	5.3
520.283	5.4
520.629	5.51
520.976	5.63
521.322	5.76
521.668	5.89
522.014	6.03
522.36	6.16
522.706	6.29
523.052	6.41
523.398	6.53
523.743	6.63
524.089	6.71
524.435	6.78
524.781	6.86
525.126	6.92
525.472	6.98
525.817	7.04
526.163	7.09
526.509	7.14
526.854	7.19
527.199	7.24
527.545	7.29
527.89	7.35
528.235	7.4
528.581	7.45
528.926	7.49
529.271	7.53
529.616	7.57
529.961	7.61
530.306	7.64
530.651	7.67
530.996	7.69
531.341	7.69
531.686	7.7
532.031	7.7
532.376	7.7
532.721	7.71
533.065	7.72
533.41	7.72
533.755	7.72
534.099	7.7
534.444	7.67
534.788	7.63
535.133	7.59
535.477	7.54
535.822	7.48
536.166	7.42
536.51	7.34
536.855	7.26
537.199	7.17
537.543	7.09
537.887	7.02
538.231	6.95
538.576	6.89
538.92	6.83
539.264	6.77
539.608	6.7
539.951	6.64
540.295	6.57
540.639	6.5
540.983	6.43
541.327	6.35
541.671	6.28
542.014	6.22
542.358	6.15
542.701	6.11
543.045	6.08
543.389	6.05
543.732	6.03
544.075	6.01
544.419	5.99
544.762	5.97
545.105	5.96
545.449	5.95
545.792	5.94
546.135	5.93
546.478	5.92
546.821	5.9
547.165	5.87
547.508	5.83
547.851	5.77
548.194	5.72
548.536	5.65
548.879	5.58
549.222	5.5
549.565	5.43
549.908	5.35
550.25	5.28
550.593	5.21
550.936	5.16
551.278	5.12
551.621	5.08
551.963	5.05
552.306	5.02
552.648	5.01
552.991	4.99
553.333	4.97
553.675	4.97
554.017	4.96
554.36	4.97
554.702	4.97
555.044	4.98
555.386	5
555.728	5.02
556.07	5.02
556.412	5.04
556.754	5.05
557.096	5.05
557.438	5.05
557.78	5.05
558.121	5.05
558.463	5.05
558.805	5.06
559.147	5.06
559.488	5.06
559.83	5.06
560.171	5.06
560.513	5.06
560.854	5.06
561.196	5.06
561.537	5.07
561.878	5.07
562.22	5.07
562.561	5.06
562.902	5.06
563.243	5.06
563.584	5.07
563.925	5.07
564.266	5.07
564.607	5.07
564.948	5.08
565.289	5.07
565.63	5.08
565.971	5.09
566.312	5.1
566.653	5.1
566.993	5.1
567.334	5.11
567.675	5.11
568.015	5.11
568.356	5.11
568.696	5.11
569.037	5.12
569.377	5.13
569.718	5.13
570.058	5.13
570.398	5.14
570.739	5.14
571.079	5.14
571.419	5.14
571.759	5.14
572.099	5.14
572.439	5.15
572.779	5.14
573.119	5.14
573.459	5.14
573.799	5.14
574.139	5.14
574.479	5.14
574.819	5.15
575.158	5.15
575.498	5.14
575.838	5.14
576.177	5.14
576.517	5.15
576.856	5.15
577.196	5.15
577.535	5.15
577.875	5.15
578.214	5.15
578.553	5.16
578.893	5.15
579.232	5.15
579.571	5.15
579.91	5.15
580.25	5.14
580.589	5.14
580.928	5.14
581.267	5.13
581.606	5.14
581.945	5.14
582.283	5.14
582.622	5.15
582.961	5.14
583.3	5.14
583.639	5.14
583.977	5.14
584.316	5.13
584.654	5.13
584.993	5.13
585.332	5.13
585.67	5.14
586.008	5.14
586.347	5.13
586.685	5.14
587.024	5.15
587.362	5.14
587.7	5.15
588.038	5.15
588.376	5.15
588.715	5.15
589.053	5.15
589.391	5.15
589.729	5.16
590.067	5.16
590.404	5.16
590.742	5.17
591.08	5.17
591.418	5.17
591.756	5.18
592.093	5.17
592.431	5.18
592.769	5.18
593.106	5.18
593.444	5.19
593.781	5.19
594.119	5.19
594.456	5.19
594.793	5.2
595.131	5.2
595.468	5.2
595.805	5.2
596.143	5.21
596.48	5.2
596.817	5.21
597.154	5.21
597.491	5.21
597.828	5.22
598.165	5.23
598.502	5.23
598.839	5.23
599.176	5.24
599.512	5.24
599.849	5.24
600.186	5.25
600.523	5.25
600.859	5.25
601.196	5.26
601.532	5.26
601.869	5.26
602.205	5.27
602.542	5.27
602.878	5.28
603.215	5.28
603.551	5.28
603.887	5.28
604.223	5.28
604.56	5.28
604.896	5.28
605.232	5.29
605.568	5.28
605.904	5.29
606.24	5.29
606.576	5.29
606.912	5.29
607.248	5.29
607.583	5.29
607.919	5.29
608.255	5.29
608.591	5.3
608.926	5.3
609.262	5.3
609.597	5.29
609.933	5.29
610.268	5.3
610.604	5.3
610.939	5.29
611.275	5.29
611.61	5.3
611.945	5.3
612.281	5.29
612.616	5.3
612.951	5.29
613.286	5.29
613.621	5.29
613.956	5.29
614.291	5.29
614.626	5.29
614.961	5.3
615.296	5.3
615.631	5.3
615.966	5.3
616.3	5.3
616.635	5.29
616.97	5.3
617.304	5.3
617.639	5.3
617.973	5.3
618.308	5.3
618.642	5.3
618.977	5.3
619.311	5.3
619.646	5.31
619.98	5.3
620.314	5.31
620.648	5.31
620.983	5.32
621.317	5.32
621.651	5.33
621.985	5.33
622.319	5.33
622.653	5.34
622.987	5.34
623.321	5.34
623.655	5.35
623.988	5.35
624.322	5.36
624.656	5.37
624.99	5.37
625.323	5.37
625.657	5.37
625.99	5.38
626.324	5.38
626.657	5.38
626.991	5.39
627.324	5.39
627.658	5.39
627.991	5.39
628.324	5.39
628.657	5.39
628.991	5.4
629.324	5.4
629.657	5.4
629.99	5.41
630.323	5.43
630.656	5.43
630.989	5.43
631.322	5.43
631.655	5.44
631.987	5.44
632.32	5.45
632.653	5.45
632.986	5.46
633.318	5.47
633.651	5.48
633.984	5.48
634.316	5.48
634.649	5.48
634.981	5.49
635.313	5.49
635.646	5.49
635.978	5.5
636.31	5.5
636.643	5.5
636.975	5.51
637.307	5.51
637.639	5.52
637.971	5.52
638.303	5.52
638.635	5.52
638.967	5.51
639.299	5.52
639.631	5.52
639.963	5.53
640.295	5.54
640.626	5.54
640.958	5.56
641.29	5.56
641.621	5.57
641.953	5.57
642.285	5.57
642.616	5.58
642.948	5.57
643.279	5.58
643.61	5.58
643.942	5.58
644.273	5.58
644.604	5.59
644.936	5.59
645.267	5.59
645.598	5.59
645.929	5.59
646.26	5.59
646.591	5.59
646.922	5.6
647.253	5.6
647.584	5.61
647.915	5.62
648.245	5.62
648.576	5.62
648.907	5.62
649.238	5.63
649.568	5.63
649.899	5.63
650.229	5.63
650.56	5.64
650.89	5.64
651.221	5.64
651.551	5.65
651.882	5.65
652.212	5.66
652.542	5.67
652.872	5.68
653.203	5.68
653.533	5.68
653.863	5.68
654.193	5.68
654.523	5.68
654.853	5.69
655.183	5.7
655.513	5.7
655.843	5.7
656.172	5.71
656.502	5.72
656.832	5.71
657.162	5.71
657.491	5.72
657.821	5.73
658.15	5.73
658.48	5.74
658.809	5.75
659.139	5.76
659.468	5.76
659.798	5.77
660.127	5.77
660.456	5.78
660.785	5.79
661.115	5.79
661.444	5.79
661.773	5.8
662.102	5.8
662.431	5.81
662.76	5.82
663.089	5.82
663.418	5.84
663.747	5.84
664.076	5.85
664.404	5.85
664.733	5.85
665.062	5.86
665.39	5.87
665.719	5.87
666.048	5.88
666.376	5.87
666.705	5.88
667.033	5.89
667.362	5.89
667.69	5.89
668.018	5.9
668.347	5.91
668.675	5.91
669.003	5.92
669.331	5.92
669.659	5.93
669.987	5.93
670.315	5.94
670.643	5.95
670.971	5.95
671.299	5.96
671.627	5.96
671.955	5.97
672.283	5.97
672.61	5.97
672.938	5.97
673.266	5.98
673.593	5.97
673.921	5.97
674.249	5.98
674.576	5.97
674.904	5.98
675.231	5.98
675.558	5.98
675.886	5.98
676.213	5.98
676.54	5.98
676.867	5.98
677.195	5.98
677.522	5.98
677.849	5.98
678.176	5.98
678.503	5.98
678.83	5.98
679.157	5.99
679.484	5.99
679.81	6
680.137	6
680.464	6
680.791	6.01
681.117	6.02
681.444	6.02
681.771	6.01
682.097	6.01
682.424	6.01
682.75	6.02
683.077	6.01
683.403	6.01
683.729	6.02
684.056	6.02
684.382	6.02
684.708	6.02
685.034	6.03
685.36	6.04
685.686	6.03
686.012	6.03
686.339	6.03
686.664	6.03
686.99	6.05
687.316	6.06
687.642	6.06
687.968	6.08
688.294	6.09
688.619	6.09
688.945	6.1
689.271	6.1
689.596	6.09
689.922	6.09
690.247	6.11
690.573	6.11
690.898	6.12
691.224	6.14
691.549	6.15
691.874	6.16
692.2	6.17
692.525	6.18
692.85	6.19
693.175	6.21
693.5	6.22
693.825	6.22
694.15	6.22
694.475	6.22
694.8	6.23
695.125	6.24
695.45	6.25
695.775	6.26
696.099	6.26
696.424	6.27
696.749	6.27
697.073	6.28
697.398	6.29
697.723	6.3
698.047	6.29
698.372	6.29
698.696	6.29
699.02	6.3
699.345	6.3
699.669	6.31
699.993	6.32
700.318	6.33
700.642	6.32
700.966	6.32
701.29	6.31
701.614	6.32
701.938	6.33
702.262	6.35
702.586	6.35
702.91	6.36
703.234	6.36
703.557	6.37
703.881	6.38
704.205	6.38
704.529	6.38
704.852	6.38
705.176	6.38
705.499	6.38
705.823	6.37
706.146	6.38
706.47	6.37
706.793	6.38
707.117	6.38
707.44	6.39
707.763	6.4
708.086	6.42
708.409	6.42
708.733	6.42
709.056	6.44
709.379	6.44
709.702	6.46
710.025	6.48
710.348	6.48
710.671	6.46
710.993	6.47
711.316	6.47
711.639	6.48
711.962	6.5
712.284	6.51
712.607	6.53
712.93	6.52
713.252	6.52
713.575	6.52
713.897	6.53
714.22	6.52
714.542	6.53
714.864	6.54
715.187	6.53
715.509	6.54
715.831	6.56
716.153	6.56
716.475	6.58
716.798	6.57
717.12	6.57
717.442	6.58
717.764	6.59
718.085	6.59
718.407	6.6
718.729	6.61
719.051	6.63
719.373	6.64
719.695	6.64
720.016	6.64
720.338	6.65
720.659	6.64
720.981	6.66
721.302	6.65
721.624	6.65
721.945	6.65
722.267	6.65
722.588	6.67
722.909	6.66
723.231	6.67
723.552	6.67
723.873	6.71
724.194	6.73
724.515	6.73
724.836	6.73
725.157	6.74
725.478	6.74
725.799	6.74
726.12	6.75
726.441	6.76
726.762	6.77
727.083	6.75
727.403	6.76
727.724	6.79
728.045	6.79
728.365	6.81
728.686	6.81
729.006	6.83
729.327	6.84
729.647	6.84
729.967	6.87
730.288	6.9
730.608	6.9
730.928	6.9
731.249	6.92
731.569	6.93
731.889	6.93
732.209	6.93
732.529	6.93
732.849	6.95
733.169	6.97
733.489	6.98
733.809	7
734.129	7.01
734.448	7.04
734.768	7.07
735.088	7.08
735.408	7.09
735.727	7.09
736.047	7.11
736.366	7.1
736.686	7.12
737.005	7.13
737.325	7.1
737.644	7.11
737.963	7.1
738.283	7.1
738.602	7.1
738.921	7.11
739.24	7.12
739.56	7.13
739.879	7.14
740.198	7.15
740.517	7.16
740.836	7.15
741.155	7.15
741.473	7.18
741.792	7.18
742.111	7.15
742.43	7.16
742.748	7.18
743.067	7.19
743.386	7.21
743.704	7.21
744.023	7.19
744.341	7.19
744.66	7.19
744.978	7.2
745.297	7.24
745.615	7.27
745.933	7.28
746.252	7.29
746.57	7.31
746.888	7.34
747.206	7.33
747.524	7.33
747.842	7.31
748.16	7.31
748.478	7.32
748.796	7.33
749.114	7.33
749.432	7.33
749.749	7.33
750.067	7.33
750.385	7.36
750.703	7.38
751.02	7.39
751.338	7.43
751.655	7.45
751.973	7.47
752.29	7.48
752.608	7.49
752.925	7.51
753.242	7.55
753.56	7.56
753.877	7.6
754.194	7.59
754.511	7.56
754.828	7.57
755.145	7.62
755.462	7.61
755.779	7.64
756.096	7.65
756.413	7.62
756.73	7.63
757.047	7.67
757.364	7.67
757.68	7.69
757.997	7.7
758.314	7.67
758.63	7.66
758.947	7.68
759.264	7.68
759.58	7.68
759.896	7.68
760.213	7.69
760.529	7.7
760.846	7.73
761.162	7.75
761.478	7.77
761.794	7.78
762.11	7.78
762.426	7.81
762.743	7.81
763.059	7.8
763.375	7.8
763.69	7.82
764.006	7.85
764.322	7.85
764.638	7.86
764.954	7.86
765.27	7.87
765.585	7.88
765.901	7.89
766.216	7.88
766.532	7.89
766.848	7.88
767.163	7.89
767.478	7.88
767.794	7.88
768.109	7.87
768.424	7.87
768.74	7.87
769.055	7.86
769.37	7.87
769.685	7.87
770	7.88
770.315	7.9
770.63	7.9
770.945	7.92
771.26	7.96
771.575	7.98
771.89	7.99
772.205	8.01
772.52	8.04
772.834	8.05
773.149	8.09
773.464	8.1
773.778	8.11
774.093	8.1
774.407	8.1
774.722	8.1
775.036	8.13
775.351	8.14
775.665	8.18
775.979	8.22
776.293	8.23
776.608	8.24
776.922	8.24
777.236	8.24
777.55	8.26
777.864	8.3
778.178	8.3
778.492	8.3
778.806	8.27
779.12	8.28
779.434	8.34
779.747	8.34
780.061	8.35
780.375	8.38
780.689	8.39
781.002	8.42
781.316	8.42
781.629	8.44
781.943	8.48
782.256	8.51
782.57	8.53
782.883	8.52
783.196	8.54
783.51	8.55
783.823	8.55
784.136	8.54
784.449	8.54
784.762	8.54
785.075	8.55
785.388	8.52
785.701	8.5
786.014	8.5
786.327	8.52
786.64	8.49
786.953	8.55
787.266	8.54
787.578	8.54
787.891	8.55
788.204	8.55
788.516	8.54
788.829	8.54
789.141	8.55
789.454	8.55
789.766	8.56
790.079	8.58
790.391	8.55
790.703	8.53
791.016	8.56
791.328	8.57
791.64	8.6
791.952	8.61
792.264	8.55
792.576	8.56
792.888	8.57
793.2	8.62
793.512	8.64
793.824	8.64
794.136	8.63
794.448	8.62
794.76	8.64
795.071	8.62
795.383	8.65
795.695	8.67
796.006	8.63
796.318	8.61
796.629	8.59
796.941	8.62
797.252	8.64
797.564	8.63
797.875	8.63
798.186	8.64
798.497	8.68
798.809	8.7
799.12	8.65
799.431	8.71
799.742	8.68
800.053	8.72
800.364	8.77
800.675	8.78
800.986	8.78
801.297	8.83
801.608	8.86
801.918	8.88
802.229	8.89
802.54	8.87
802.851	8.86
803.161	8.87
803.472	8.91
803.782	8.91
804.093	8.93
804.403	8.95
804.714	9.01
805.024	9.04
805.334	9.03
805.645	9.05
805.955	9.03
806.265	9.08
806.575	9.1
806.885	9.15
807.195	9.16
807.505	9.22
807.815	9.26
808.125	9.24
808.435	9.27
808.745	9.3
809.055	9.32
809.365	9.37
809.674	9.33
809.984	9.33
810.294	9.35
810.603	9.35
810.913	9.39
811.222	9.36
811.532	9.3
811.841	9.33
812.151	9.29
812.46	9.31
812.769	9.24
813.079	9.22
813.388	9.24
813.697	9.3
814.006	9.27
814.315	9.22
814.624	9.24
814.933	9.26
815.242	9.29
815.551	9.33
815.86	9.33
816.169	9.33
816.478	9.37
816.786	9.34
817.095	9.32
817.404	9.28
817.712	9.31
818.021	9.34
818.33	9.37
818.638	9.4
818.947	9.4
819.255	9.44
819.563	9.46
819.872	9.47
820.18	9.46
820.488	9.46
820.796	9.46
821.105	9.46
821.413	9.48
821.721	9.51
822.029	9.51
822.337	9.53
822.645	9.55
822.953	9.54
823.26	9.55
823.568	9.57
823.876	9.58
824.184	9.61
824.491	9.62
824.799	9.63
825.107	9.61
825.414	9.64
825.722	9.66
826.029	9.65
826.337	9.66
826.644	9.66
826.951	9.67
827.259	9.68
827.566	9.68
827.873	9.66
828.18	9.67
828.488	9.67
828.795	9.67
829.102	9.65
829.409	9.67
829.716	9.7
830.023	9.73
830.329	9.74
830.636	9.76
830.943	9.77
831.25	9.77
831.557	9.77
831.863	9.77
832.17	9.76
832.476	9.76
832.783	9.76
833.089	9.76
833.396	9.76
833.702	9.78
834.009	9.77
834.315	9.75
834.621	9.78
834.928	9.75
835.234	9.75
835.54	9.75
835.846	9.73
836.152	9.69
836.458	9.69
836.764	9.69
837.07	9.7
837.376	9.73
837.682	9.75
837.988	9.69
838.293	9.69
838.599	9.71
838.905	9.62
839.211	9.61
839.516	9.62
839.822	9.62
840.127	9.65
840.433	9.69
840.738	9.68
841.044	9.7
841.349	9.74
841.654	9.75
841.959	9.75
842.265	9.73
842.57	9.73
842.875	9.72
843.18	9.62
843.485	9.61
843.79	9.62
844.095	9.64
844.4	9.68
844.705	9.75
845.01	9.74
845.315	9.71
845.619	9.73
845.924	9.79
846.229	9.77
846.533	9.79
846.838	9.82
847.142	9.79
847.447	9.86
847.751	9.87
848.056	9.97
848.36	10.09
848.664	10.05
848.969	10.15
849.273	10.18
849.577	10.12
849.881	10.19
850.185	10.22
850.489	10.22
850.794	10.23
851.097	10.26
851.401	10.43
851.705	10.41
852.009	10.53
852.313	10.54
852.617	10.5
852.92	10.53
853.224	10.58
853.528	10.68
853.831	10.69
854.135	10.81
854.438	10.87
854.742	10.76
855.045	10.64
855.349	10.77
855.652	10.89
855.955	10.93
856.259	10.99
856.562	10.97
856.865	10.96
857.168	10.89
857.471	11.1
857.774	11.28
858.077	11.24
858.38	11.32
858.683	11.34
858.986	11.18
859.289	11.26
859.592	11.39
859.894	11.49
860.197	11.37
860.5	11.4
860.802	11.39
861.105	11.55
861.407	11.38
861.71	11.34
862.012	11.28
862.315	11.17
862.617	11.17
862.919	11.45
863.222	11.31
863.524	11.17
863.826	11.17
864.128	11.16
864.43	11.02
864.732	11
865.034	10.97
865.336	10.95
865.638	10.89
865.94	10.85
866.242	10.81
866.544	10.87
866.846	10.92
867.147	11
867.449	11.14
867.751	11.06
868.052	11.09
868.354	10.96
868.655	10.91
868.957	10.97
869.258	10.88
869.56	10.92
869.861	10.82
870.162	10.77
870.463	10.86
870.765	10.75
871.066	10.9
871.367	10.92
871.668	10.75
871.969	10.69
872.27	10.67
872.571	10.72
872.872	10.65
873.173	10.64
873.473	10.52
873.774	10.59
874.075	10.59
874.376	10.73
874.676	10.73
874.977	10.81
875.277	10.66
875.578	10.76
875.878	10.92
876.179	10.9
876.479	10.9
876.78	11.05
877.08	11
877.38	11
877.68	11.11
877.981	11.11
878.281	11.09
878.581	11.11
