Data from UWBM55954_Reflection_00004.txt Node
Date: Sun May 02 13:50:43 EDT 2021
User: vgr7
Spectrometer: USB2G7710
Scans to average: 10
Trigger mode: 4
Integration Time (sec): 1.000000E-1
Electric dark correction enabled: true
Boxcar width: 20
XAxis mode: Wavelengths
Number of Pixels in Spectrum: 2048
>>>>>Begin Spectral Data<<<<<
177.721	98.42
178.105	-0.52
178.488	-1
178.871	-10.77
179.254	-28.77
179.636	-23.53
180.019	-17.62
180.402	-19.16
180.785	-11.96
181.168	-6.79
181.55	-11.93
181.933	-3.11
182.316	-0.72
182.698	-2.04
183.081	1.31
183.463	-1.18
183.846	-1.54
184.228	0.63
184.611	-0.9
184.993	-1.9
185.376	0.5
185.758	2.27
186.14	4.53
186.522	5.63
186.904	5.99
187.287	5.16
187.669	7.03
188.051	6.76
188.433	7.39
188.815	4.96
189.197	9.19
189.579	11.37
189.961	8.86
190.342	9.45
190.724	11.3
191.106	11.29
191.488	9.48
191.869	6.41
192.251	2.83
192.633	3.14
193.014	3.84
193.396	-0.31
193.777	2.25
194.159	3.2
194.54	2.38
194.922	2.05
195.303	1.86
195.684	3.38
196.065	3.66
196.447	4.22
196.828	3.98
197.209	5.77
197.59	1.32
197.971	-0.54
198.352	1.04
198.733	1.98
199.114	2.68
199.495	3.51
199.876	2.81
200.257	3.89
200.638	2.09
201.018	3.25
201.399	4.05
201.78	2.44
202.16	0.96
202.541	0.2
202.922	0.5
203.302	0.5
203.683	1.23
204.063	0.41
204.444	0.7
204.824	-1.03
205.204	-2.12
205.585	-0.72
205.965	-0.93
206.345	-1.34
206.725	-0.92
207.106	-1.44
207.486	0.31
207.866	1.78
208.246	0.44
208.626	-1.04
209.006	-0.16
209.386	-0.09
209.766	-0.75
210.145	-0.29
210.525	0.69
210.905	2.41
211.285	0.17
211.664	1.12
212.044	0.17
212.424	-0.6
212.803	-1.03
213.183	0.61
213.562	2.01
213.942	1.32
214.321	-0.63
214.701	-1.29
215.08	-1.77
215.459	-1.36
215.838	-2.07
216.218	-0.38
216.597	-1.81
216.976	-1.31
217.355	-1.24
217.734	-0.08
218.113	1.46
218.492	0.66
218.871	-0.92
219.25	-1.91
219.629	-0.91
220.008	-0.45
220.387	-1.03
220.766	0.44
221.144	-0.41
221.523	0.93
221.902	1.96
222.28	1.67
222.659	2.28
223.037	2.29
223.416	3.03
223.794	3.65
224.173	3.82
224.551	3.86
224.929	4.95
225.308	5.15
225.686	5.3
226.064	5.16
226.442	4.38
226.821	5.23
227.199	5.21
227.577	5.52
227.955	5.77
228.333	5.9
228.711	5.75
229.089	4.95
229.467	4.93
229.845	5.11
230.222	5.49
230.6	5.53
230.978	5.29
231.356	5.36
231.733	5.41
232.111	5.28
232.488	5.02
232.866	5
233.243	4.97
233.621	4.61
233.998	4.88
234.376	5.16
234.753	5.17
235.13	5.16
235.508	5.17
235.885	5.3
236.262	5.15
236.639	5.19
237.016	5.14
237.393	5.08
237.77	5.07
238.147	5.04
238.524	5.01
238.901	4.91
239.278	5
239.655	5.06
240.032	5.03
240.409	4.95
240.785	5.01
241.162	4.99
241.539	4.98
241.915	5.07
242.292	5.08
242.668	5.05
243.045	5.05
243.421	5.05
243.798	5.02
244.174	5.04
244.551	5.09
244.927	5.08
245.303	5.08
245.679	5.08
246.056	5.04
246.432	5.04
246.808	5.02
247.184	5.03
247.56	5.08
247.936	5.06
248.312	5.09
248.688	5.05
249.064	5.06
249.44	5.04
249.815	5.02
250.191	4.98
250.567	5
250.943	4.97
251.318	4.94
251.694	4.95
252.069	4.93
252.445	4.92
252.82	4.9
253.196	4.87
253.571	4.86
253.947	4.84
254.322	4.83
254.697	4.8
255.073	4.79
255.448	4.8
255.823	4.76
256.198	4.72
256.573	4.72
256.948	4.71
257.323	4.66
257.698	4.6
258.073	4.58
258.448	4.55
258.823	4.54
259.198	4.52
259.573	4.49
259.948	4.5
260.322	4.49
260.697	4.47
261.072	4.44
261.446	4.43
261.821	4.43
262.195	4.43
262.57	4.4
262.944	4.38
263.319	4.4
263.693	4.38
264.067	4.39
264.442	4.39
264.816	4.37
265.19	4.36
265.564	4.38
265.938	4.35
266.313	4.36
266.687	4.36
267.061	4.35
267.435	4.35
267.809	4.33
268.183	4.33
268.556	4.33
268.93	4.34
269.304	4.36
269.678	4.37
270.051	4.34
270.425	4.33
270.799	4.31
271.172	4.31
271.546	4.31
271.919	4.32
272.293	4.32
272.666	4.33
273.04	4.34
273.413	4.37
273.787	4.38
274.16	4.38
274.533	4.4
274.906	4.42
275.279	4.4
275.653	4.39
276.026	4.4
276.399	4.4
276.772	4.41
277.145	4.41
277.518	4.43
277.891	4.45
278.263	4.43
278.636	4.43
279.009	4.4
279.382	4.41
279.755	4.4
280.127	4.4
280.5	4.42
280.872	4.42
281.245	4.43
281.617	4.43
281.99	4.43
282.362	4.43
282.735	4.41
283.107	4.42
283.479	4.4
283.852	4.4
284.224	4.41
284.596	4.38
284.968	4.37
285.34	4.38
285.713	4.39
286.085	4.4
286.457	4.4
286.829	4.39
287.201	4.38
287.572	4.37
287.944	4.37
288.316	4.35
288.688	4.35
289.06	4.34
289.431	4.34
289.803	4.35
290.175	4.36
290.546	4.37
290.918	4.38
291.289	4.39
291.661	4.39
292.032	4.38
292.403	4.38
292.775	4.37
293.146	4.37
293.517	4.39
293.889	4.38
294.26	4.41
294.631	4.4
295.002	4.42
295.373	4.42
295.744	4.41
296.115	4.41
296.486	4.41
296.857	4.43
297.228	4.42
297.599	4.42
297.97	4.44
298.34	4.43
298.711	4.44
299.082	4.44
299.452	4.43
299.823	4.43
300.194	4.44
300.564	4.45
300.935	4.43
301.305	4.43
301.676	4.43
302.046	4.43
302.416	4.43
302.787	4.42
303.157	4.41
303.527	4.42
303.897	4.41
304.267	4.4
304.637	4.39
305.008	4.38
305.378	4.37
305.748	4.37
306.117	4.35
306.487	4.36
306.857	4.36
307.227	4.37
307.597	4.36
307.967	4.35
308.336	4.34
308.706	4.31
309.076	4.31
309.445	4.29
309.815	4.28
310.184	4.25
310.554	4.24
310.923	4.24
311.293	4.23
311.662	4.22
312.031	4.21
312.401	4.22
312.77	4.2
313.139	4.19
313.508	4.18
313.877	4.18
314.246	4.18
314.616	4.16
314.985	4.16
315.353	4.15
315.722	4.12
316.091	4.13
316.46	4.11
316.829	4.12
317.198	4.12
317.567	4.12
317.935	4.12
318.304	4.12
318.672	4.11
319.041	4.12
319.41	4.1
319.778	4.12
320.147	4.09
320.515	4.08
320.883	4.05
321.252	4.03
321.62	4.02
321.988	4.01
322.357	3.99
322.725	3.99
323.093	3.99
323.461	3.97
323.829	3.99
324.197	3.98
324.565	3.98
324.933	3.99
325.301	4
325.669	3.99
326.037	3.97
326.405	3.97
326.772	3.96
327.14	3.94
327.508	3.94
327.875	3.94
328.243	3.94
328.61	3.93
328.978	3.92
329.346	3.92
329.713	3.94
330.08	3.94
330.448	3.91
330.815	3.92
331.182	3.91
331.55	3.92
331.917	3.91
332.284	3.89
332.651	3.89
333.018	3.9
333.385	3.89
333.752	3.9
334.119	3.9
334.486	3.89
334.853	3.88
335.22	3.89
335.587	3.89
335.954	3.89
336.32	3.89
336.687	3.89
337.054	3.88
337.42	3.88
337.787	3.88
338.153	3.88
338.52	3.87
338.886	3.86
339.253	3.86
339.619	3.86
339.986	3.86
340.352	3.86
340.718	3.87
341.084	3.87
341.451	3.87
341.817	3.88
342.183	3.88
342.549	3.88
342.915	3.88
343.281	3.88
343.647	3.89
344.013	3.9
344.379	3.89
344.745	3.88
345.11	3.88
345.476	3.89
345.842	3.89
346.208	3.9
346.573	3.89
346.939	3.89
347.304	3.9
347.67	3.89
348.035	3.89
348.401	3.89
348.766	3.89
349.132	3.89
349.497	3.89
349.862	3.9
350.228	3.9
350.593	3.89
350.958	3.9
351.323	3.92
351.688	3.93
352.053	3.94
352.418	3.95
352.783	3.95
353.148	3.95
353.513	3.96
353.878	3.96
354.243	3.97
354.608	3.97
354.972	3.97
355.337	3.97
355.702	3.97
356.066	3.97
356.431	3.97
356.795	3.96
357.16	3.95
357.524	3.95
357.889	3.94
358.253	3.94
358.618	3.93
358.982	3.93
359.346	3.94
359.71	3.94
360.075	3.95
360.439	3.94
360.803	3.95
361.167	3.95
361.531	3.95
361.895	3.95
362.259	3.94
362.623	3.94
362.987	3.95
363.351	3.95
363.714	3.94
364.078	3.94
364.442	3.94
364.806	3.94
365.169	3.95
365.533	3.95
365.896	3.95
366.26	3.94
366.623	3.94
366.987	3.93
367.35	3.93
367.714	3.93
368.077	3.93
368.44	3.93
368.803	3.93
369.167	3.93
369.53	3.92
369.893	3.93
370.256	3.93
370.619	3.93
370.982	3.94
371.345	3.94
371.708	3.96
372.071	3.96
372.434	3.97
372.797	3.97
373.159	3.98
373.522	3.98
373.885	3.99
374.247	3.98
374.61	3.98
374.973	3.98
375.335	3.98
375.698	3.98
376.06	3.97
376.423	3.97
376.785	3.97
377.147	3.97
377.51	3.97
377.872	3.97
378.234	3.97
378.596	3.97
378.958	3.97
379.321	3.96
379.683	3.96
380.045	3.96
380.407	3.97
380.769	3.96
381.13	3.96
381.492	3.96
381.854	3.97
382.216	3.96
382.578	3.96
382.939	3.96
383.301	3.96
383.663	3.96
384.024	3.96
384.386	3.96
384.747	3.96
385.109	3.96
385.47	3.96
385.832	3.95
386.193	3.95
386.554	3.94
386.916	3.94
387.277	3.94
387.638	3.94
387.999	3.94
388.36	3.93
388.721	3.93
389.082	3.93
389.443	3.94
389.804	3.93
390.165	3.93
390.526	3.94
390.887	3.94
391.248	3.94
391.609	3.94
391.969	3.95
392.33	3.95
392.691	3.95
393.051	3.96
393.412	3.96
393.772	3.96
394.133	3.96
394.493	3.96
394.854	3.95
395.214	3.95
395.574	3.95
395.935	3.95
396.295	3.95
396.655	3.95
397.015	3.95
397.376	3.95
397.736	3.95
398.096	3.95
398.456	3.95
398.816	3.96
399.176	3.95
399.535	3.95
399.895	3.96
400.255	3.96
400.615	3.96
400.975	3.96
401.334	3.96
401.694	3.96
402.054	3.96
402.413	3.96
402.773	3.97
403.132	3.97
403.492	3.97
403.851	3.97
404.211	3.97
404.57	3.97
404.929	3.97
405.288	3.97
405.648	3.98
406.007	3.98
406.366	3.98
406.725	3.98
407.084	3.98
407.443	3.98
407.802	3.98
408.161	3.98
408.52	3.98
408.879	3.99
409.238	3.99
409.596	3.99
409.955	4
410.314	4
410.673	4.01
411.031	4.02
411.39	4.02
411.748	4.03
412.107	4.04
412.465	4.05
412.824	4.07
413.182	4.09
413.54	4.12
413.899	4.15
414.257	4.19
414.615	4.22
414.974	4.25
415.332	4.3
415.69	4.34
416.048	4.37
416.406	4.41
416.764	4.44
417.122	4.47
417.48	4.51
417.838	4.54
418.195	4.57
418.553	4.59
418.911	4.61
419.269	4.62
419.626	4.62
419.984	4.61
420.342	4.6
420.699	4.59
421.057	4.57
421.414	4.55
421.772	4.54
422.129	4.53
422.486	4.53
422.844	4.53
423.201	4.53
423.558	4.53
423.915	4.53
424.273	4.53
424.63	4.53
424.987	4.53
425.344	4.53
425.701	4.53
426.058	4.53
426.415	4.54
426.772	4.53
427.128	4.53
427.485	4.52
427.842	4.51
428.199	4.5
428.555	4.48
428.912	4.46
429.269	4.43
429.625	4.41
429.982	4.38
430.338	4.35
430.695	4.33
431.051	4.3
431.407	4.28
431.764	4.26
432.12	4.24
432.476	4.23
432.832	4.22
433.189	4.22
433.545	4.22
433.901	4.24
434.257	4.26
434.613	4.29
434.969	4.31
435.325	4.34
435.681	4.38
436.036	4.4
436.392	4.43
436.748	4.45
437.104	4.45
437.459	4.47
437.815	4.49
438.171	4.51
438.526	4.54
438.882	4.57
439.237	4.61
439.593	4.64
439.948	4.68
440.304	4.71
440.659	4.74
441.014	4.76
441.369	4.79
441.725	4.81
442.08	4.83
442.435	4.84
442.79	4.85
443.145	4.85
443.5	4.85
443.855	4.85
444.21	4.85
444.565	4.85
444.92	4.84
445.275	4.84
445.629	4.83
445.984	4.82
446.339	4.81
446.693	4.8
447.048	4.78
447.403	4.76
447.757	4.74
448.112	4.72
448.466	4.7
448.82	4.68
449.175	4.65
449.529	4.63
449.883	4.62
450.238	4.59
450.592	4.59
450.946	4.58
451.3	4.58
451.654	4.59
452.008	4.59
452.362	4.6
452.716	4.6
453.07	4.6
453.424	4.59
453.778	4.59
454.132	4.58
454.486	4.57
454.839	4.55
455.193	4.53
455.547	4.52
455.9	4.49
456.254	4.47
456.607	4.44
456.961	4.42
457.314	4.39
457.668	4.39
458.021	4.38
458.375	4.37
458.728	4.37
459.081	4.37
459.434	4.38
459.787	4.39
460.141	4.4
460.494	4.41
460.847	4.41
461.2	4.42
461.553	4.42
461.906	4.43
462.259	4.43
462.611	4.43
462.964	4.44
463.317	4.44
463.67	4.45
464.022	4.45
464.375	4.46
464.728	4.46
465.08	4.46
465.433	4.46
465.785	4.45
466.138	4.44
466.49	4.42
466.843	4.4
467.195	4.37
467.547	4.35
467.899	4.32
468.252	4.29
468.604	4.27
468.956	4.24
469.308	4.22
469.66	4.22
470.012	4.21
470.364	4.21
470.716	4.22
471.068	4.23
471.42	4.25
471.772	4.27
472.123	4.28
472.475	4.29
472.827	4.3
473.178	4.31
473.53	4.32
473.882	4.33
474.233	4.36
474.585	4.39
474.936	4.46
475.288	4.55
475.639	4.67
475.99	4.81
476.342	4.96
476.693	5.13
477.044	5.3
477.395	5.48
477.746	5.66
478.097	5.84
478.448	6.03
478.8	6.21
479.15	6.37
479.501	6.53
479.852	6.67
480.203	6.81
480.554	6.94
480.905	7.06
481.255	7.18
481.606	7.29
481.957	7.4
482.307	7.5
482.658	7.6
483.009	7.69
483.359	7.78
483.709	7.87
484.06	7.95
484.41	8.03
484.761	8.1
485.111	8.18
485.461	8.25
485.811	8.32
486.162	8.37
486.512	8.43
486.862	8.47
487.212	8.5
487.562	8.52
487.912	8.53
488.262	8.53
488.612	8.52
488.961	8.5
489.311	8.46
489.661	8.39
490.011	8.29
490.36	8.18
490.71	8.05
491.06	7.92
491.409	7.77
491.759	7.61
492.108	7.44
492.458	7.27
492.807	7.1
493.157	6.92
493.506	6.76
493.855	6.6
494.204	6.45
494.554	6.31
494.903	6.18
495.252	6.05
495.601	5.93
495.95	5.81
496.299	5.69
496.648	5.58
496.997	5.48
497.346	5.39
497.695	5.29
498.043	5.2
498.392	5.12
498.741	5.03
499.09	4.95
499.438	4.87
499.787	4.8
500.135	4.73
500.484	4.67
500.832	4.61
501.181	4.57
501.529	4.54
501.878	4.53
502.226	4.52
502.574	4.51
502.923	4.51
503.271	4.5
503.619	4.5
503.967	4.5
504.315	4.49
504.663	4.49
505.011	4.48
505.359	4.47
505.707	4.47
506.055	4.46
506.403	4.46
506.751	4.47
507.098	4.47
507.446	4.47
507.794	4.48
508.141	4.49
508.489	4.5
508.837	4.52
509.184	4.53
509.531	4.54
509.879	4.55
510.226	4.57
510.574	4.58
510.921	4.6
511.268	4.62
511.616	4.64
511.963	4.65
512.31	4.68
512.657	4.69
513.004	4.71
513.351	4.73
513.698	4.74
514.045	4.75
514.392	4.75
514.739	4.75
515.086	4.75
515.432	4.75
515.779	4.74
516.126	4.74
516.473	4.74
516.819	4.74
517.166	4.74
517.512	4.75
517.859	4.76
518.205	4.78
518.552	4.81
518.898	4.84
519.245	4.87
519.591	4.93
519.937	5.01
520.283	5.1
520.629	5.2
520.976	5.31
521.322	5.43
521.668	5.56
522.014	5.68
522.36	5.81
522.706	5.93
523.052	6.05
523.398	6.15
523.743	6.25
524.089	6.33
524.435	6.4
524.781	6.46
525.126	6.52
525.472	6.58
525.817	6.64
526.163	6.69
526.509	6.74
526.854	6.79
527.199	6.83
527.545	6.88
527.89	6.93
528.235	6.98
528.581	7.02
528.926	7.07
529.271	7.11
529.616	7.14
529.961	7.18
530.306	7.21
530.651	7.23
530.996	7.24
531.341	7.25
531.686	7.26
532.031	7.26
532.376	7.26
532.721	7.27
533.065	7.27
533.41	7.28
533.755	7.27
534.099	7.26
534.444	7.23
534.788	7.19
535.133	7.15
535.477	7.1
535.822	7.05
536.166	6.99
536.51	6.92
536.855	6.84
537.199	6.76
537.543	6.68
537.887	6.61
538.231	6.55
538.576	6.49
538.92	6.43
539.264	6.37
539.608	6.31
539.951	6.24
540.295	6.18
540.639	6.11
540.983	6.04
541.327	5.97
541.671	5.9
542.014	5.83
542.358	5.77
542.701	5.73
543.045	5.69
543.389	5.67
543.732	5.65
544.075	5.63
544.419	5.61
544.762	5.6
545.105	5.58
545.449	5.57
545.792	5.56
546.135	5.55
546.478	5.53
546.821	5.51
547.165	5.48
547.508	5.44
547.851	5.39
548.194	5.33
548.536	5.27
548.879	5.2
549.222	5.13
549.565	5.06
549.908	4.98
550.25	4.91
550.593	4.85
550.936	4.8
551.278	4.76
551.621	4.72
551.963	4.69
552.306	4.66
552.648	4.64
552.991	4.62
553.333	4.61
553.675	4.6
554.017	4.59
554.36	4.59
554.702	4.6
555.044	4.61
555.386	4.63
555.728	4.64
556.07	4.65
556.412	4.67
556.754	4.67
557.096	4.67
557.438	4.67
557.78	4.67
558.121	4.67
558.463	4.67
558.805	4.67
559.147	4.68
559.488	4.67
559.83	4.68
560.171	4.68
560.513	4.68
560.854	4.68
561.196	4.68
561.537	4.68
561.878	4.69
562.22	4.69
562.561	4.69
562.902	4.69
563.243	4.69
563.584	4.69
563.925	4.69
564.266	4.7
564.607	4.7
564.948	4.7
565.289	4.7
565.63	4.71
565.971	4.71
566.312	4.71
566.653	4.72
566.993	4.72
567.334	4.72
567.675	4.72
568.015	4.73
568.356	4.73
568.696	4.73
569.037	4.73
569.377	4.73
569.718	4.73
570.058	4.73
570.398	4.73
570.739	4.74
571.079	4.73
571.419	4.74
571.759	4.74
572.099	4.73
572.439	4.74
572.779	4.74
573.119	4.73
573.459	4.73
573.799	4.73
574.139	4.73
574.479	4.73
574.819	4.73
575.158	4.73
575.498	4.73
575.838	4.72
576.177	4.72
576.517	4.72
576.856	4.72
577.196	4.72
577.535	4.71
577.875	4.71
578.214	4.71
578.553	4.71
578.893	4.71
579.232	4.71
579.571	4.7
579.91	4.7
580.25	4.7
580.589	4.7
580.928	4.69
581.267	4.69
581.606	4.69
581.945	4.69
582.283	4.69
582.622	4.7
582.961	4.7
583.3	4.7
583.639	4.7
583.977	4.7
584.316	4.7
584.654	4.7
584.993	4.7
585.332	4.7
585.67	4.7
586.008	4.7
586.347	4.71
586.685	4.71
587.024	4.71
587.362	4.71
587.7	4.72
588.038	4.72
588.376	4.72
588.715	4.72
589.053	4.72
589.391	4.72
589.729	4.72
590.067	4.72
590.404	4.73
590.742	4.73
591.08	4.73
591.418	4.74
591.756	4.75
592.093	4.75
592.431	4.75
592.769	4.75
593.106	4.76
593.444	4.76
593.781	4.76
594.119	4.75
594.456	4.76
594.793	4.76
595.131	4.76
595.468	4.75
595.805	4.76
596.143	4.75
596.48	4.76
596.817	4.75
597.154	4.75
597.491	4.76
597.828	4.76
598.165	4.76
598.502	4.77
598.839	4.78
599.176	4.78
599.512	4.78
599.849	4.78
600.186	4.78
600.523	4.78
600.859	4.78
601.196	4.79
601.532	4.78
601.869	4.78
602.205	4.79
602.542	4.79
602.878	4.79
603.215	4.79
603.551	4.79
603.887	4.79
604.223	4.79
604.56	4.79
604.896	4.79
605.232	4.79
605.568	4.79
605.904	4.79
606.24	4.79
606.576	4.79
606.912	4.79
607.248	4.78
607.583	4.78
607.919	4.79
608.255	4.79
608.591	4.79
608.926	4.79
609.262	4.8
609.597	4.79
609.933	4.79
610.268	4.79
610.604	4.8
610.939	4.8
611.275	4.79
611.61	4.79
611.945	4.78
612.281	4.78
612.616	4.78
612.951	4.77
613.286	4.77
613.621	4.77
613.956	4.76
614.291	4.77
614.626	4.77
614.961	4.76
615.296	4.77
615.631	4.77
615.966	4.77
616.3	4.77
616.635	4.77
616.97	4.77
617.304	4.78
617.639	4.78
617.973	4.77
618.308	4.77
618.642	4.77
618.977	4.77
619.311	4.78
619.646	4.78
619.98	4.78
620.314	4.78
620.648	4.79
620.983	4.79
621.317	4.8
621.651	4.81
621.985	4.82
622.319	4.82
622.653	4.82
622.987	4.82
623.321	4.82
623.655	4.83
623.988	4.83
624.322	4.83
624.656	4.83
624.99	4.83
625.323	4.83
625.657	4.83
625.99	4.83
626.324	4.83
626.657	4.84
626.991	4.85
627.324	4.84
627.658	4.84
627.991	4.84
628.324	4.84
628.657	4.85
628.991	4.86
629.324	4.86
629.657	4.87
629.99	4.87
630.323	4.87
630.656	4.87
630.989	4.87
631.322	4.87
631.655	4.88
631.987	4.88
632.32	4.88
632.653	4.88
632.986	4.88
633.318	4.88
633.651	4.88
633.984	4.89
634.316	4.89
634.649	4.88
634.981	4.88
635.313	4.88
635.646	4.88
635.978	4.88
636.31	4.88
636.643	4.89
636.975	4.89
637.307	4.89
637.639	4.89
637.971	4.89
638.303	4.88
638.635	4.89
638.967	4.89
639.299	4.9
639.631	4.91
639.963	4.92
640.295	4.92
640.626	4.92
640.958	4.93
641.29	4.93
641.621	4.93
641.953	4.94
642.285	4.94
642.616	4.94
642.948	4.94
643.279	4.93
643.61	4.94
643.942	4.94
644.273	4.94
644.604	4.94
644.936	4.94
645.267	4.95
645.598	4.95
645.929	4.95
646.26	4.95
646.591	4.96
646.922	4.96
647.253	4.96
647.584	4.96
647.915	4.95
648.245	4.96
648.576	4.97
648.907	4.97
649.238	4.97
649.568	4.97
649.899	4.97
650.229	4.97
650.56	4.98
650.89	4.97
651.221	4.97
651.551	4.98
651.882	4.98
652.212	4.99
652.542	4.99
652.872	4.98
653.203	4.99
653.533	4.99
653.863	4.99
654.193	5
654.523	5
654.853	5.01
655.183	5.01
655.513	5.01
655.843	5.02
656.172	5.02
656.502	5.03
656.832	5.03
657.162	5.03
657.491	5.03
657.821	5.03
658.15	5.04
658.48	5.04
658.809	5.04
659.139	5.05
659.468	5.05
659.798	5.05
660.127	5.05
660.456	5.06
660.785	5.06
661.115	5.07
661.444	5.08
661.773	5.08
662.102	5.08
662.431	5.08
662.76	5.09
663.089	5.09
663.418	5.1
663.747	5.11
664.076	5.11
664.404	5.12
664.733	5.12
665.062	5.13
665.39	5.14
665.719	5.14
666.048	5.15
666.376	5.16
666.705	5.16
667.033	5.16
667.362	5.17
667.69	5.16
668.018	5.15
668.347	5.16
668.675	5.17
669.003	5.18
669.331	5.18
669.659	5.17
669.987	5.17
670.315	5.18
670.643	5.2
670.971	5.19
671.299	5.19
671.627	5.19
671.955	5.19
672.283	5.2
672.61	5.2
672.938	5.21
673.266	5.2
673.593	5.2
673.921	5.2
674.249	5.21
674.576	5.21
674.904	5.22
675.231	5.22
675.558	5.22
675.886	5.23
676.213	5.23
676.54	5.23
676.867	5.23
677.195	5.22
677.522	5.22
677.849	5.22
678.176	5.23
678.503	5.22
678.83	5.22
679.157	5.23
679.484	5.22
679.81	5.22
680.137	5.23
680.464	5.23
680.791	5.24
681.117	5.24
681.444	5.24
681.771	5.24
682.097	5.24
682.424	5.24
682.75	5.24
683.077	5.25
683.403	5.25
683.729	5.25
684.056	5.25
684.382	5.25
684.708	5.26
685.034	5.27
685.36	5.27
685.686	5.27
686.012	5.27
686.339	5.27
686.664	5.27
686.99	5.28
687.316	5.29
687.642	5.29
687.968	5.3
688.294	5.3
688.619	5.3
688.945	5.32
689.271	5.32
689.596	5.33
689.922	5.34
690.247	5.35
690.573	5.35
690.898	5.36
691.224	5.37
691.549	5.38
691.874	5.38
692.2	5.39
692.525	5.39
692.85	5.39
693.175	5.41
693.5	5.42
693.825	5.42
694.15	5.41
694.475	5.41
694.8	5.43
695.125	5.44
695.45	5.45
695.775	5.46
696.099	5.46
696.424	5.46
696.749	5.46
697.073	5.47
697.398	5.47
697.723	5.49
698.047	5.49
698.372	5.5
698.696	5.51
699.02	5.5
699.345	5.51
699.669	5.51
699.993	5.53
700.318	5.52
700.642	5.52
700.966	5.52
701.29	5.52
701.614	5.52
701.938	5.53
702.262	5.53
702.586	5.53
702.91	5.53
703.234	5.53
703.557	5.53
703.881	5.53
704.205	5.53
704.529	5.54
704.852	5.53
705.176	5.54
705.499	5.54
705.823	5.55
706.146	5.54
706.47	5.54
706.793	5.53
707.117	5.53
707.44	5.55
707.763	5.55
708.086	5.56
708.409	5.56
708.733	5.56
709.056	5.56
709.379	5.54
709.702	5.56
710.025	5.57
710.348	5.57
710.671	5.56
710.993	5.56
711.316	5.56
711.639	5.56
711.962	5.58
712.284	5.6
712.607	5.61
712.93	5.62
713.252	5.62
713.575	5.64
713.897	5.64
714.22	5.64
714.542	5.65
714.864	5.64
715.187	5.65
715.509	5.65
715.831	5.65
716.153	5.65
716.475	5.66
716.798	5.66
717.12	5.65
717.442	5.67
717.764	5.67
718.085	5.69
718.407	5.69
718.729	5.7
719.051	5.7
719.373	5.72
719.695	5.71
720.016	5.73
720.338	5.74
720.659	5.74
720.981	5.75
721.302	5.75
721.624	5.76
721.945	5.76
722.267	5.76
722.588	5.79
722.909	5.8
723.231	5.79
723.552	5.81
723.873	5.83
724.194	5.84
724.515	5.84
724.836	5.83
725.157	5.83
725.478	5.83
725.799	5.83
726.12	5.84
726.441	5.84
726.762	5.84
727.083	5.85
727.403	5.86
727.724	5.88
728.045	5.9
728.365	5.91
728.686	5.93
729.006	5.94
729.327	5.97
729.647	5.97
729.967	6
730.288	6.02
730.608	6.01
730.928	6.02
731.249	6.04
731.569	6.02
731.889	6.04
732.209	6.05
732.529	6.05
732.849	6.07
733.169	6.08
733.489	6.1
733.809	6.12
734.129	6.13
734.448	6.14
734.768	6.15
735.088	6.16
735.408	6.18
735.727	6.18
736.047	6.18
736.366	6.2
736.686	6.19
737.005	6.19
737.325	6.19
737.644	6.18
737.963	6.19
738.283	6.17
738.602	6.16
738.921	6.18
739.24	6.21
739.56	6.23
739.879	6.23
740.198	6.23
740.517	6.24
740.836	6.23
741.155	6.24
741.473	6.23
741.792	6.21
742.111	6.21
742.43	6.19
742.748	6.19
743.067	6.21
743.386	6.23
743.704	6.24
744.023	6.25
744.341	6.23
744.66	6.25
744.978	6.24
745.297	6.27
745.615	6.28
745.933	6.29
746.252	6.28
746.57	6.28
746.888	6.28
747.206	6.28
747.524	6.28
747.842	6.28
748.16	6.28
748.478	6.27
748.796	6.28
749.114	6.29
749.432	6.28
749.749	6.3
750.067	6.32
750.385	6.33
750.703	6.37
751.02	6.37
751.338	6.39
751.655	6.44
751.973	6.44
752.29	6.43
752.608	6.44
752.925	6.44
753.242	6.46
753.56	6.46
753.877	6.5
754.194	6.46
754.511	6.49
754.828	6.5
755.145	6.52
755.462	6.57
755.779	6.58
756.096	6.59
756.413	6.58
756.73	6.59
757.047	6.57
757.364	6.58
757.68	6.6
757.997	6.6
758.314	6.59
758.63	6.61
758.947	6.6
759.264	6.62
759.58	6.62
759.896	6.64
760.213	6.65
760.529	6.67
760.846	6.67
761.162	6.7
761.478	6.72
761.794	6.71
762.11	6.72
762.426	6.75
762.743	6.76
763.059	6.73
763.375	6.73
763.69	6.74
764.006	6.78
764.322	6.81
764.638	6.81
764.954	6.83
765.27	6.82
765.585	6.82
765.901	6.85
766.216	6.85
766.532	6.87
766.848	6.87
767.163	6.92
767.478	6.89
767.794	6.9
768.109	6.9
768.424	6.87
768.74	6.89
769.055	6.87
769.37	6.85
769.685	6.88
770	6.91
770.315	6.93
770.63	6.95
770.945	6.97
771.26	6.98
771.575	6.97
771.89	6.98
772.205	6.99
772.52	7
772.834	7
773.149	7.02
773.464	7
773.778	7.01
774.093	7.01
774.407	7.01
774.722	7.03
775.036	7.04
775.351	7.05
775.665	7.07
775.979	7.12
776.293	7.14
776.608	7.13
776.922	7.14
777.236	7.13
777.55	7.11
777.864	7.12
778.178	7.12
778.492	7.15
778.806	7.15
779.12	7.12
779.434	7.12
779.747	7.11
780.061	7.06
780.375	7.12
780.689	7.14
781.002	7.16
781.316	7.18
781.629	7.18
781.943	7.21
782.256	7.26
782.57	7.26
782.883	7.29
783.196	7.3
783.51	7.31
783.823	7.33
784.136	7.3
784.449	7.33
784.762	7.33
785.075	7.34
785.388	7.35
785.701	7.31
786.014	7.32
786.327	7.36
786.64	7.38
786.953	7.41
787.266	7.42
787.578	7.43
787.891	7.47
788.204	7.43
788.516	7.44
788.829	7.44
789.141	7.45
789.454	7.48
789.766	7.51
790.079	7.55
790.391	7.55
790.703	7.57
791.016	7.59
791.328	7.59
791.64	7.59
791.952	7.63
792.264	7.6
792.576	7.61
792.888	7.66
793.2	7.69
793.512	7.69
793.824	7.7
794.136	7.7
794.448	7.69
794.76	7.76
795.071	7.75
795.383	7.74
795.695	7.72
796.006	7.68
796.318	7.65
796.629	7.66
796.941	7.71
797.252	7.73
797.564	7.73
797.875	7.71
798.186	7.71
798.497	7.77
798.809	7.79
799.12	7.8
799.431	7.83
799.742	7.83
800.053	7.87
800.364	7.88
800.675	7.86
800.986	7.88
801.297	7.87
801.608	7.9
801.918	7.9
802.229	7.87
802.54	7.83
802.851	7.79
803.161	7.8
803.472	7.79
803.782	7.83
804.093	7.85
804.403	7.9
804.714	7.93
805.024	7.98
805.334	7.99
805.645	7.98
805.955	7.98
806.265	7.98
806.575	7.99
806.885	7.99
807.195	7.99
807.505	7.99
807.815	8.02
808.125	8.05
808.435	8.05
808.745	8.05
809.055	8.1
809.365	8.09
809.674	8.07
809.984	8.06
810.294	8.08
810.603	8.08
810.913	8.08
811.222	8.08
811.532	8.03
811.841	8.04
812.151	8.02
812.46	8.01
812.769	7.93
813.079	7.98
813.388	8
813.697	8.04
814.006	8.05
814.315	7.99
814.624	8.06
814.933	8.1
815.242	8.13
815.551	8.14
815.86	8.15
816.169	8.17
816.478	8.21
816.786	8.16
817.095	8.11
817.404	8.08
817.712	8.1
818.021	8.11
818.33	8.15
818.638	8.17
818.947	8.18
819.255	8.18
819.563	8.22
819.872	8.24
820.18	8.24
820.488	8.26
820.796	8.26
821.105	8.26
821.413	8.29
821.721	8.33
822.029	8.35
822.337	8.36
822.645	8.37
822.953	8.38
823.26	8.39
823.568	8.41
823.876	8.42
824.184	8.45
824.491	8.46
824.799	8.47
825.107	8.48
825.414	8.51
825.722	8.51
826.029	8.52
826.337	8.53
826.644	8.54
826.951	8.54
827.259	8.53
827.566	8.55
827.873	8.55
828.18	8.58
828.488	8.58
828.795	8.58
829.102	8.56
829.409	8.59
829.716	8.62
830.023	8.64
830.329	8.64
830.636	8.66
830.943	8.68
831.25	8.7
831.557	8.73
831.863	8.76
832.17	8.78
832.476	8.79
832.783	8.8
833.089	8.79
833.396	8.8
833.702	8.82
834.009	8.84
834.315	8.83
834.621	8.83
834.928	8.86
835.234	8.88
835.54	8.86
835.846	8.85
836.152	8.86
836.458	8.86
836.764	8.86
837.07	8.84
837.376	8.85
837.682	8.84
837.988	8.85
838.293	8.84
838.599	8.83
838.905	8.79
839.211	8.78
839.516	8.8
839.822	8.8
840.127	8.83
840.433	8.89
840.738	8.86
841.044	8.87
841.349	8.84
841.654	8.89
841.959	8.89
842.265	8.93
842.57	8.93
842.875	8.96
843.18	8.92
843.485	8.88
843.79	8.96
844.095	8.97
844.4	8.97
844.705	9.03
845.01	9.06
845.315	9.04
845.619	9.06
845.924	9.12
846.229	9.23
846.533	9.24
846.838	9.29
847.142	9.36
847.447	9.34
847.751	9.37
848.056	9.42
848.36	9.49
848.664	9.41
848.969	9.48
849.273	9.51
849.577	9.62
849.881	9.68
850.185	9.83
850.489	9.76
850.794	9.82
851.097	9.94
851.401	10.1
851.705	10.1
852.009	10.19
852.313	10.17
852.617	10.06
852.92	10.04
853.224	10
853.528	9.96
853.831	10.13
854.135	10.12
854.438	10.15
854.742	10.19
855.045	10.19
855.349	10.45
855.652	10.64
855.955	10.8
856.259	10.78
856.562	10.81
856.865	10.75
857.168	10.68
857.471	10.76
857.774	10.98
858.077	10.96
858.38	10.98
858.683	10.95
858.986	10.98
859.289	10.86
859.592	10.85
859.894	10.96
860.197	10.95
860.5	11.01
860.802	11.06
861.105	11.27
861.407	11.21
861.71	11.08
862.012	10.96
862.315	11.01
862.617	10.96
862.919	11.04
863.222	10.99
863.524	10.86
863.826	10.87
864.128	10.87
864.43	10.93
864.732	10.96
865.034	10.85
865.336	10.75
865.638	10.83
865.94	10.94
866.242	10.96
866.544	11.08
866.846	11.13
867.147	11.1
867.449	11.16
867.751	11.09
868.052	11.08
868.354	11.02
868.655	10.87
868.957	10.85
869.258	10.83
869.56	10.97
869.861	10.88
870.162	10.86
870.463	11.04
870.765	10.92
871.066	11.02
871.367	10.99
871.668	11.09
871.969	11.17
872.27	11.1
872.571	11.21
872.872	11.25
873.173	11.28
873.473	11.23
873.774	11.31
874.075	11.47
874.376	11.59
874.676	11.51
874.977	11.53
875.277	11.52
875.578	11.57
875.878	11.61
876.179	11.57
876.479	11.67
876.78	11.64
877.08	11.71
877.38	11.89
877.68	12.04
877.981	12.03
878.281	12.07
878.581	12.16
