Data from UWBM50074_Reflection_00009.txt Node
Date: Sun May 02 12:35:35 EDT 2021
User: vgr7
Spectrometer: USB2G7710
Scans to average: 10
Trigger mode: 4
Integration Time (sec): 1.000000E-1
Electric dark correction enabled: true
Boxcar width: 10
XAxis mode: Wavelengths
Number of Pixels in Spectrum: 2048
>>>>>Begin Spectral Data<<<<<
177.721	10.14
178.105	-104.55
178.488	311.48
178.871	-160.38
179.254	88
179.636	53.85
180.019	-94.66
180.402	-5.26
180.785	88.54
181.168	121.58
181.55	97.64
181.933	-33.85
182.316	-60.8
182.698	-17.98
183.081	-3.2
183.463	-17.72
183.846	45.38
184.228	34.35
184.611	55.86
184.993	46.66
185.376	45.31
185.758	28.21
186.14	23.05
186.522	26.7
186.904	24.39
187.287	31.04
187.669	28.17
188.051	27.08
188.433	28.33
188.815	23.35
189.197	20.41
189.579	24.26
189.961	25.02
190.342	24.8
190.724	31.57
191.106	29.58
191.488	32.65
191.869	32.41
192.251	34.84
192.633	31.71
193.014	31.74
193.396	28.07
193.777	28.43
194.159	27.87
194.54	25.62
194.922	23.68
195.303	24.3
195.684	23.73
196.065	24.94
196.447	20.56
196.828	23.71
197.209	25.18
197.59	19.54
197.971	19.85
198.352	17.44
198.733	17.09
199.114	18.24
199.495	15.85
199.876	16.44
200.257	16.13
200.638	16.78
201.018	17.22
201.399	17.15
201.78	17.98
202.16	18.53
202.541	17.85
202.922	20.86
203.302	18.97
203.683	21.99
204.063	21.05
204.444	23.83
204.824	23.84
205.204	23.75
205.585	24.4
205.965	22.57
206.345	24.02
206.725	22.31
207.106	23.42
207.486	24.69
207.866	25.12
208.246	22.48
208.626	22.16
209.006	21.14
209.386	21.2
209.766	20.39
210.145	19.22
210.525	18.91
210.905	19.16
211.285	21.29
211.664	20.66
212.044	21.81
212.424	23.54
212.803	24.36
213.183	26.73
213.562	26.69
213.942	27.35
214.321	25.66
214.701	22.68
215.08	24.87
215.459	23.04
215.838	21.51
216.218	24.04
216.597	23.74
216.976	23.48
217.355	23.63
217.734	25.15
218.113	25.34
218.492	25.96
218.871	26.16
219.25	25.54
219.629	23.05
220.008	22.07
220.387	18.71
220.766	16.01
221.144	14.9
221.523	19.3
221.902	18.37
222.28	17.74
222.659	20.52
223.037	18.33
223.416	19.32
223.794	18.5
224.173	17.3
224.551	16.72
224.929	16.71
225.308	17.58
225.686	16.76
226.064	16.44
226.442	17.09
226.821	15.76
227.199	14.48
227.577	14.18
227.955	13.73
228.333	13.78
228.711	12.93
229.089	12.51
229.467	11.45
229.845	11.65
230.222	12.81
230.6	12.22
230.978	12.2
231.356	11.48
231.733	11.55
232.111	11.19
232.488	10.57
232.866	9.94
233.243	8.94
233.621	8.87
233.998	8.47
234.376	7.82
234.753	8
235.13	7.96
235.508	8.49
235.885	8.66
236.262	8.51
236.639	8.68
237.016	8.71
237.393	8.42
237.77	7.93
238.147	7.33
238.524	7.19
238.901	6.9
239.278	6.63
239.655	6.39
240.032	6.13
240.409	6.04
240.785	5.94
241.162	5.92
241.539	5.77
241.915	5.77
242.292	5.71
242.668	5.47
243.045	5.29
243.421	5.08
243.798	4.93
244.174	4.89
244.551	4.76
244.927	4.63
245.303	4.5
245.679	4.52
246.056	4.43
246.432	4.43
246.808	4.43
247.184	4.45
247.56	4.47
247.936	4.51
248.312	4.52
248.688	4.56
249.064	4.5
249.44	4.49
249.815	4.47
250.191	4.43
250.567	4.45
250.943	4.49
251.318	4.51
251.694	4.49
252.069	4.45
252.445	4.53
252.82	4.57
253.196	4.64
253.571	4.64
253.947	4.81
254.322	4.79
254.697	4.75
255.073	4.69
255.448	4.6
255.823	4.52
256.198	4.43
256.573	4.31
256.948	4.29
257.323	4.29
257.698	4.26
258.073	4.25
258.448	4.22
258.823	4.17
259.198	4.15
259.573	4.16
259.948	4.19
260.322	4.18
260.697	4.14
261.072	4.11
261.446	4.08
261.821	4.06
262.195	4.02
262.57	4.01
262.944	4.01
263.319	3.99
263.693	4.01
264.067	4.02
264.442	4.05
264.816	4.05
265.19	4.05
265.564	4.07
265.938	4.08
266.313	4.07
266.687	4.06
267.061	4.09
267.435	4.08
267.809	4.04
268.183	4.02
268.556	4.03
268.93	4.01
269.304	3.99
269.678	3.94
270.051	3.93
270.425	3.9
270.799	3.89
271.172	3.89
271.546	3.88
271.919	3.9
272.293	3.87
272.666	3.86
273.04	3.84
273.413	3.76
273.787	3.73
274.16	3.73
274.533	3.77
274.906	3.74
275.279	3.75
275.653	3.73
276.026	3.68
276.399	3.66
276.772	3.68
277.145	3.71
277.518	3.69
277.891	3.73
278.263	3.75
278.636	3.8
279.009	3.81
279.382	3.78
279.755	3.76
280.127	3.79
280.5	3.8
280.872	3.77
281.245	3.82
281.617	3.83
281.99	3.83
282.362	3.8
282.735	3.78
283.107	3.77
283.479	3.79
283.852	3.81
284.224	3.85
284.596	3.83
284.968	3.82
285.34	3.84
285.713	3.85
286.085	3.82
286.457	3.81
286.829	3.78
287.201	3.8
287.572	3.82
287.944	3.83
288.316	3.86
288.688	3.9
289.06	3.9
289.431	3.92
289.803	3.9
290.175	3.93
290.546	3.96
290.918	3.97
291.289	4
291.661	4.03
292.032	4.03
292.403	4.07
292.775	4.11
293.146	4.13
293.517	4.15
293.889	4.2
294.26	4.21
294.631	4.26
295.002	4.28
295.373	4.32
295.744	4.34
296.115	4.35
296.486	4.36
296.857	4.42
297.228	4.45
297.599	4.5
297.97	4.51
298.34	4.54
298.711	4.55
299.082	4.55
299.452	4.55
299.823	4.57
300.194	4.6
300.564	4.62
300.935	4.66
301.305	4.69
301.676	4.72
302.046	4.75
302.416	4.78
302.787	4.82
303.157	4.87
303.527	4.93
303.897	4.95
304.267	5
304.637	5.02
305.008	5.08
305.378	5.14
305.748	5.2
306.117	5.26
306.487	5.32
306.857	5.38
307.227	5.44
307.597	5.48
307.967	5.52
308.336	5.56
308.706	5.61
309.076	5.64
309.445	5.7
309.815	5.75
310.184	5.81
310.554	5.85
310.923	5.88
311.293	5.9
311.662	5.97
312.031	6
312.401	6.07
312.77	6.1
313.139	6.13
313.508	6.18
313.877	6.22
314.246	6.26
314.616	6.31
314.985	6.38
315.353	6.43
315.722	6.5
316.091	6.55
316.46	6.61
316.829	6.67
317.198	6.75
317.567	6.8
317.935	6.85
318.304	6.92
318.672	6.97
319.041	7.03
319.41	7.07
319.778	7.14
320.147	7.2
320.515	7.25
320.883	7.31
321.252	7.36
321.62	7.38
321.988	7.47
322.357	7.53
322.725	7.59
323.093	7.63
323.461	7.67
323.829	7.71
324.197	7.73
324.565	7.78
324.933	7.79
325.301	7.86
325.669	7.91
326.037	7.94
326.405	7.97
326.772	8.01
327.14	8.05
327.508	8.08
327.875	8.12
328.243	8.15
328.61	8.17
328.978	8.23
329.346	8.26
329.713	8.28
330.08	8.31
330.448	8.35
330.815	8.41
331.182	8.44
331.55	8.47
331.917	8.54
332.284	8.56
332.651	8.6
333.018	8.6
333.385	8.62
333.752	8.66
334.119	8.67
334.486	8.7
334.853	8.71
335.22	8.73
335.587	8.74
335.954	8.78
336.32	8.8
336.687	8.81
337.054	8.83
337.42	8.87
337.787	8.88
338.153	8.92
338.52	8.93
338.886	8.97
339.253	8.98
339.619	8.99
339.986	9.03
340.352	9.07
340.718	9.11
341.084	9.13
341.451	9.14
341.817	9.19
342.183	9.23
342.549	9.24
342.915	9.26
343.281	9.29
343.647	9.31
344.013	9.35
344.379	9.38
344.745	9.4
345.11	9.41
345.476	9.45
345.842	9.46
346.208	9.49
346.573	9.5
346.939	9.54
347.304	9.57
347.67	9.55
348.035	9.57
348.401	9.59
348.766	9.61
349.132	9.62
349.497	9.64
349.862	9.63
350.228	9.65
350.593	9.67
350.958	9.67
351.323	9.66
351.688	9.66
352.053	9.65
352.418	9.66
352.783	9.65
353.148	9.64
353.513	9.63
353.878	9.63
354.243	9.62
354.608	9.63
354.972	9.62
355.337	9.61
355.702	9.57
356.066	9.55
356.431	9.52
356.795	9.51
357.16	9.47
357.524	9.46
357.889	9.44
358.253	9.43
358.618	9.41
358.982	9.41
359.346	9.38
359.71	9.37
360.075	9.34
360.439	9.33
360.803	9.3
361.167	9.27
361.531	9.24
361.895	9.21
362.259	9.17
362.623	9.13
362.987	9.12
363.351	9.1
363.714	9.07
364.078	9.04
364.442	9
364.806	8.98
365.169	8.95
365.533	8.9
365.896	8.85
366.26	8.82
366.623	8.77
366.987	8.73
367.35	8.7
367.714	8.66
368.077	8.61
368.44	8.58
368.803	8.53
369.167	8.49
369.53	8.45
369.893	8.41
370.256	8.35
370.619	8.29
370.982	8.23
371.345	8.18
371.708	8.13
372.071	8.09
372.434	8.04
372.797	7.97
373.159	7.93
373.522	7.88
373.885	7.81
374.247	7.75
374.61	7.69
374.973	7.61
375.335	7.53
375.698	7.48
376.06	7.41
376.423	7.34
376.785	7.29
377.147	7.22
377.51	7.17
377.872	7.12
378.234	7.07
378.596	7.03
378.958	6.97
379.321	6.93
379.683	6.88
380.045	6.82
380.407	6.78
380.769	6.73
381.13	6.69
381.492	6.64
381.854	6.6
382.216	6.57
382.578	6.53
382.939	6.51
383.301	6.47
383.663	6.44
384.024	6.41
384.386	6.37
384.747	6.34
385.109	6.32
385.47	6.29
385.832	6.26
386.193	6.24
386.554	6.2
386.916	6.18
387.277	6.14
387.638	6.12
387.999	6.08
388.36	6.06
388.721	6.02
389.082	5.99
389.443	5.96
389.804	5.93
390.165	5.9
390.526	5.85
390.887	5.82
391.248	5.79
391.609	5.77
391.969	5.74
392.33	5.7
392.691	5.66
393.051	5.63
393.412	5.6
393.772	5.56
394.133	5.54
394.493	5.5
394.854	5.47
395.214	5.43
395.574	5.4
395.935	5.36
396.295	5.33
396.655	5.29
397.015	5.25
397.376	5.22
397.736	5.19
398.096	5.16
398.456	5.13
398.816	5.1
399.176	5.05
399.535	5.03
399.895	5.01
400.255	4.98
400.615	4.94
400.975	4.93
401.334	4.91
401.694	4.88
402.054	4.86
402.413	4.84
402.773	4.83
403.132	4.82
403.492	4.8
403.851	4.78
404.211	4.77
404.57	4.76
404.929	4.74
405.288	4.72
405.648	4.7
406.007	4.7
406.366	4.7
406.725	4.69
407.084	4.67
407.443	4.66
407.802	4.65
408.161	4.66
408.52	4.64
408.879	4.64
409.238	4.63
409.596	4.61
409.955	4.6
410.314	4.59
410.673	4.57
411.031	4.57
411.39	4.56
411.748	4.56
412.107	4.55
412.465	4.54
412.824	4.54
413.182	4.53
413.54	4.53
413.899	4.51
414.257	4.5
414.615	4.49
414.974	4.49
415.332	4.49
415.69	4.48
416.048	4.48
416.406	4.51
416.764	4.54
417.122	4.58
417.48	4.61
417.838	4.65
418.195	4.71
418.553	4.75
418.911	4.8
419.269	4.85
419.626	4.88
419.984	4.94
420.342	4.98
420.699	5.02
421.057	5.06
421.414	5.1
421.772	5.13
422.129	5.16
422.486	5.18
422.844	5.18
423.201	5.18
423.558	5.15
423.915	5.1
424.273	5.05
424.63	4.98
424.987	4.91
425.344	4.84
425.701	4.77
426.058	4.71
426.415	4.65
426.772	4.58
427.128	4.53
427.485	4.45
427.842	4.38
428.199	4.32
428.555	4.26
428.912	4.19
429.269	4.14
429.625	4.1
429.982	4.06
430.338	4.03
430.695	4.03
431.051	4.03
431.407	4.05
431.764	4.07
432.12	4.1
432.476	4.13
432.832	4.15
433.189	4.16
433.545	4.17
433.901	4.18
434.257	4.18
434.613	4.18
434.969	4.2
435.325	4.23
435.681	4.25
436.036	4.28
436.392	4.31
436.748	4.36
437.104	4.4
437.459	4.45
437.815	4.49
438.171	4.54
438.526	4.57
438.882	4.6
439.237	4.65
439.593	4.66
439.948	4.68
440.304	4.7
440.659	4.72
441.014	4.75
441.369	4.78
441.725	4.82
442.08	4.86
442.435	4.91
442.79	4.96
443.145	5
443.5	5.02
443.855	5.06
444.21	5.06
444.565	5.07
444.92	5.07
445.275	5.06
445.629	5.05
445.984	5.05
446.339	5.02
446.693	4.98
447.048	4.97
447.403	4.94
447.757	4.92
448.112	4.89
448.466	4.84
448.82	4.79
449.175	4.73
449.529	4.67
449.883	4.6
450.238	4.52
450.592	4.44
450.946	4.38
451.3	4.3
451.654	4.25
452.008	4.19
452.362	4.12
452.716	4.08
453.07	4.03
453.424	4
453.778	3.97
454.132	3.96
454.486	3.96
454.839	3.97
455.193	4
455.547	4.03
455.9	4.09
456.254	4.14
456.607	4.21
456.961	4.27
457.314	4.34
457.668	4.39
458.021	4.45
458.375	4.49
458.728	4.5
459.081	4.53
459.434	4.53
459.787	4.54
460.141	4.54
460.494	4.52
460.847	4.5
461.2	4.49
461.553	4.48
461.906	4.48
462.259	4.47
462.611	4.45
462.964	4.42
463.317	4.39
463.67	4.35
464.022	4.31
464.375	4.28
464.728	4.23
465.08	4.19
465.433	4.16
465.785	4.13
466.138	4.13
466.49	4.11
466.843	4.12
467.195	4.13
467.547	4.16
467.899	4.21
468.252	4.26
468.604	4.29
468.956	4.32
469.308	4.35
469.66	4.36
470.012	4.38
470.364	4.39
470.716	4.39
471.068	4.4
471.42	4.41
471.772	4.42
472.123	4.43
472.475	4.44
472.827	4.44
473.178	4.45
473.53	4.46
473.882	4.46
474.233	4.47
474.585	4.48
474.936	4.48
475.288	4.48
475.639	4.48
475.99	4.48
476.342	4.48
476.693	4.48
477.044	4.48
477.395	4.5
477.746	4.54
478.097	4.6
478.448	4.71
478.8	4.87
479.15	5.08
479.501	5.32
479.852	5.59
480.203	5.88
480.554	6.18
480.905	6.48
481.255	6.79
481.606	7.11
481.957	7.43
482.307	7.74
482.658	8.04
483.009	8.31
483.359	8.58
483.709	8.83
484.06	9.07
484.41	9.31
484.761	9.52
485.111	9.71
485.461	9.86
485.811	9.96
486.162	10
486.512	9.98
486.862	9.93
487.212	9.85
487.562	9.74
487.912	9.61
488.262	9.46
488.612	9.31
488.961	9.13
489.311	8.94
489.661	8.75
490.011	8.56
490.36	8.37
490.71	8.16
491.06	7.95
491.409	7.73
491.759	7.53
492.108	7.32
492.458	7.13
492.807	6.96
493.157	6.79
493.506	6.63
493.855	6.47
494.204	6.33
494.554	6.19
494.903	6.06
495.252	5.93
495.601	5.8
495.95	5.67
496.299	5.55
496.648	5.44
496.997	5.33
497.346	5.24
497.695	5.17
498.043	5.13
498.392	5.11
498.741	5.12
499.09	5.13
499.438	5.14
499.787	5.17
500.135	5.2
500.484	5.24
500.832	5.28
501.181	5.33
501.529	5.38
501.878	5.43
502.226	5.49
502.574	5.56
502.923	5.65
503.271	5.74
503.619	5.85
503.967	5.97
504.315	6.11
504.663	6.26
505.011	6.42
505.359	6.59
505.707	6.77
506.055	6.95
506.403	7.13
506.751	7.32
507.098	7.52
507.446	7.71
507.794	7.9
508.141	8.09
508.489	8.28
508.837	8.47
509.184	8.67
509.531	8.87
509.879	9.07
510.226	9.27
510.574	9.48
510.921	9.68
511.268	9.88
511.616	10.09
511.963	10.31
512.31	10.54
512.657	10.8
513.004	11.08
513.351	11.36
513.698	11.68
514.045	12.03
514.392	12.39
514.739	12.78
515.086	13.18
515.432	13.6
515.779	14.02
516.126	14.44
516.473	14.86
516.819	15.25
517.166	15.63
517.512	15.99
517.859	16.31
518.205	16.61
518.552	16.9
518.898	17.17
519.245	17.44
519.591	17.7
519.937	17.98
520.283	18.29
520.629	18.63
520.976	19
521.322	19.39
521.668	19.81
522.014	20.27
522.36	20.77
522.706	21.35
523.052	22.13
523.398	23.09
523.743	24.24
524.089	25.54
524.435	26.94
524.781	28.41
525.126	29.98
525.472	31.58
525.817	33.22
526.163	34.85
526.509	36.44
526.854	37.94
527.199	39.29
527.545	40.47
527.89	41.54
528.235	42.53
528.581	43.48
528.926	44.38
529.271	45.22
529.616	45.98
529.961	46.6
530.306	47.04
530.651	47.28
530.996	47.31
531.341	47.22
531.686	47
532.031	46.65
532.376	46.15
532.721	45.56
533.065	44.91
533.41	44.24
533.755	43.57
534.099	42.95
534.444	42.42
534.788	42
535.133	41.64
535.477	41.31
535.822	41.08
536.166	40.97
536.51	41.01
536.855	41.17
537.199	41.46
537.543	41.83
537.887	42.31
538.231	42.84
538.576	43.4
538.92	44
539.264	44.67
539.608	45.34
539.951	45.96
540.295	46.47
540.639	46.9
540.983	47.29
541.327	47.66
541.671	48.01
542.014	48.33
542.358	48.59
542.701	48.82
543.045	48.88
543.389	48.79
543.732	48.5
544.075	48.05
544.419	47.43
544.762	46.67
545.105	45.75
545.449	44.86
545.792	43.94
546.135	43.12
546.478	42.4
546.821	41.72
547.165	41.16
547.508	40.76
547.851	40.48
548.194	40.27
548.536	40.09
548.879	39.95
549.222	39.89
549.565	39.88
549.908	39.91
550.25	40.02
550.593	40.16
550.936	40.36
551.278	40.62
551.621	40.98
551.963	41.42
552.306	41.97
552.648	42.43
552.991	42.87
553.333	43.2
553.675	43.37
554.017	43.56
554.36	43.74
554.702	43.91
555.044	44.07
555.386	44.25
555.728	44.43
556.07	44.59
556.412	44.75
556.754	44.93
557.096	45.09
557.438	45.25
557.78	45.43
558.121	45.59
558.463	45.76
558.805	45.92
559.147	46.08
559.488	46.25
559.83	46.43
560.171	46.61
560.513	46.76
560.854	46.95
561.196	47.13
561.537	47.32
561.878	47.5
562.22	47.67
562.561	47.86
562.902	48.02
563.243	48.2
563.584	48.37
563.925	48.55
564.266	48.72
564.607	48.86
564.948	49
565.289	49.14
565.63	49.27
565.971	49.41
566.312	49.54
566.653	49.67
566.993	49.81
567.334	49.95
567.675	50.08
568.015	50.22
568.356	50.36
568.696	50.49
569.037	50.62
569.377	50.75
569.718	50.86
570.058	51
570.398	51.13
570.739	51.24
571.079	51.34
571.419	51.46
571.759	51.57
572.099	51.67
572.439	51.78
572.779	51.89
573.119	51.96
573.459	52.03
573.799	52.13
574.139	52.19
574.479	52.27
574.819	52.33
575.158	52.38
575.498	52.42
575.838	52.46
576.177	52.52
576.517	52.56
576.856	52.6
577.196	52.62
577.535	52.64
577.875	52.67
578.214	52.7
578.553	52.73
578.893	52.76
579.232	52.78
579.571	52.82
579.91	52.85
580.25	52.92
580.589	52.97
580.928	53
581.267	53.08
581.606	53.1
581.945	53.17
582.283	53.24
582.622	53.33
582.961	53.39
583.3	53.42
583.639	53.5
583.977	53.56
584.316	53.64
584.654	53.74
584.993	53.8
585.332	53.89
585.67	53.97
586.008	54.04
586.347	54.13
586.685	54.21
587.024	54.3
587.362	54.4
587.7	54.48
588.038	54.54
588.376	54.61
588.715	54.7
589.053	54.76
589.391	54.83
589.729	54.9
590.067	54.96
590.404	55.06
590.742	55.11
591.08	55.2
591.418	55.26
591.756	55.32
592.093	55.42
592.431	55.5
592.769	55.59
593.106	55.67
593.444	55.76
593.781	55.84
594.119	55.91
594.456	55.98
594.793	56.05
595.131	56.13
595.468	56.19
595.805	56.25
596.143	56.3
596.48	56.35
596.817	56.38
597.154	56.43
597.491	56.45
597.828	56.53
598.165	56.57
598.502	56.62
598.839	56.67
599.176	56.71
599.512	56.75
599.849	56.8
600.186	56.89
600.523	56.96
600.859	57.03
601.196	57.11
601.532	57.16
601.869	57.23
602.205	57.29
602.542	57.38
602.878	57.44
603.215	57.5
603.551	57.55
603.887	57.6
604.223	57.67
604.56	57.73
604.896	57.76
605.232	57.81
605.568	57.86
605.904	57.9
606.24	57.94
606.576	57.97
606.912	58
607.248	58.01
607.583	58.02
607.919	58.03
608.255	58.04
608.591	58.05
608.926	58.05
609.262	58.05
609.597	58.04
609.933	58.04
610.268	58.05
610.604	58.03
610.939	58.04
611.275	58.03
611.61	58.05
611.945	58.06
612.281	58.05
612.616	58.06
612.951	58.06
613.286	58.05
613.621	58.04
613.956	58.04
614.291	58.03
614.626	58.03
614.961	58.02
615.296	58.02
615.631	58
615.966	58.02
616.3	58.02
616.635	58.03
616.97	58.04
617.304	58.06
617.639	58.13
617.973	58.19
618.308	58.2
618.642	58.25
618.977	58.27
619.311	58.29
619.646	58.31
619.98	58.34
620.314	58.38
620.648	58.4
620.983	58.47
621.317	58.5
621.651	58.54
621.985	58.57
622.319	58.61
622.653	58.7
622.987	58.75
623.321	58.81
623.655	58.85
623.988	58.9
624.322	58.96
624.656	58.97
624.99	59
625.323	59.04
625.657	59.05
625.99	59.08
626.324	59.12
626.657	59.16
626.991	59.18
627.324	59.21
627.658	59.28
627.991	59.27
628.324	59.3
628.657	59.3
628.991	59.34
629.324	59.36
629.657	59.37
629.99	59.37
630.323	59.39
630.656	59.43
630.989	59.43
631.322	59.43
631.655	59.46
631.987	59.47
632.32	59.49
632.653	59.53
632.986	59.55
633.318	59.56
633.651	59.56
633.984	59.59
634.316	59.62
634.649	59.6
634.981	59.62
635.313	59.64
635.646	59.68
635.978	59.68
636.31	59.69
636.643	59.7
636.975	59.73
637.307	59.74
637.639	59.75
637.971	59.79
638.303	59.81
638.635	59.81
638.967	59.8
639.299	59.82
639.631	59.82
639.963	59.81
640.295	59.83
640.626	59.86
640.958	59.84
641.29	59.83
641.621	59.85
641.953	59.9
642.285	59.91
642.616	59.93
642.948	59.94
643.279	59.96
643.61	59.99
643.942	60
644.273	60
644.604	60.03
644.936	60.06
645.267	60.07
645.598	60.09
645.929	60.1
646.26	60.12
646.591	60.14
646.922	60.18
647.253	60.24
647.584	60.25
647.915	60.29
648.245	60.34
648.576	60.36
648.907	60.33
649.238	60.34
649.568	60.36
649.899	60.39
650.229	60.41
650.56	60.43
650.89	60.46
651.221	60.5
651.551	60.5
651.882	60.5
652.212	60.56
652.542	60.59
652.872	60.65
653.203	60.69
653.533	60.72
653.863	60.77
654.193	60.79
654.523	60.82
654.853	60.86
655.183	60.86
655.513	60.89
655.843	60.98
656.172	61
656.502	61.03
656.832	61.07
657.162	61.1
657.491	61.15
657.821	61.18
658.15	61.2
658.48	61.22
658.809	61.24
659.139	61.27
659.468	61.28
659.798	61.28
660.127	61.28
660.456	61.28
660.785	61.31
661.115	61.33
661.444	61.36
661.773	61.37
662.102	61.39
662.431	61.38
662.76	61.38
663.089	61.39
663.418	61.38
663.747	61.36
664.076	61.35
664.404	61.33
664.733	61.36
665.062	61.36
665.39	61.36
665.719	61.41
666.048	61.4
666.376	61.4
666.705	61.39
667.033	61.4
667.362	61.41
667.69	61.39
668.018	61.36
668.347	61.35
668.675	61.37
669.003	61.39
669.331	61.41
669.659	61.41
669.987	61.44
670.315	61.47
670.643	61.52
670.971	61.56
671.299	61.59
671.627	61.56
671.955	61.58
672.283	61.61
672.61	61.61
672.938	61.63
673.266	61.66
673.593	61.7
673.921	61.73
674.249	61.75
674.576	61.77
674.904	61.8
675.231	61.85
675.558	61.85
675.886	61.88
676.213	61.89
676.54	61.93
676.867	61.96
677.195	61.99
677.522	62.02
677.849	62
678.176	62.01
678.503	62.06
678.83	62.07
679.157	62.08
679.484	62.09
679.81	62.08
680.137	62.06
680.464	62.09
680.791	62.06
681.117	62.1
681.444	62.09
681.771	62.09
682.097	62.07
682.424	62.13
682.75	62.12
683.077	62.15
683.403	62.16
683.729	62.13
684.056	62.13
684.382	62.15
684.708	62.2
685.034	62.21
685.36	62.21
685.686	62.25
686.012	62.28
686.339	62.29
686.664	62.31
686.99	62.39
687.316	62.37
687.642	62.42
687.968	62.42
688.294	62.47
688.619	62.5
688.945	62.55
689.271	62.53
689.596	62.58
689.922	62.61
690.247	62.65
690.573	62.67
690.898	62.67
691.224	62.68
691.549	62.66
691.874	62.7
692.2	62.69
692.525	62.67
692.85	62.68
693.175	62.69
693.5	62.71
693.825	62.68
694.15	62.74
694.475	62.77
694.8	62.78
695.125	62.77
695.45	62.8
695.775	62.78
696.099	62.8
696.424	62.82
696.749	62.78
697.073	62.78
697.398	62.8
697.723	62.82
698.047	62.79
698.372	62.79
698.696	62.77
699.02	62.83
699.345	62.84
699.669	62.82
699.993	62.81
700.318	62.77
700.642	62.76
700.966	62.74
701.29	62.73
701.614	62.71
701.938	62.7
702.262	62.67
702.586	62.69
702.91	62.68
703.234	62.66
703.557	62.68
703.881	62.71
704.205	62.75
704.529	62.76
704.852	62.78
705.176	62.84
705.499	62.83
705.823	62.79
706.146	62.76
706.47	62.82
706.793	62.86
707.117	62.89
707.44	62.95
707.763	62.98
708.086	63.04
708.409	63.07
708.733	63.15
709.056	63.2
709.379	63.21
709.702	63.19
710.025	63.22
710.348	63.29
710.671	63.26
710.993	63.24
711.316	63.25
711.639	63.34
711.962	63.39
712.284	63.42
712.607	63.44
712.93	63.48
713.252	63.48
713.575	63.49
713.897	63.58
714.22	63.58
714.542	63.63
714.864	63.57
715.187	63.57
715.509	63.57
715.831	63.54
716.153	63.59
716.475	63.64
716.798	63.68
717.12	63.67
717.442	63.71
717.764	63.72
718.085	63.74
718.407	63.72
718.729	63.7
719.051	63.74
719.373	63.76
719.695	63.76
720.016	63.79
720.338	63.81
720.659	63.79
720.981	63.8
721.302	63.76
721.624	63.84
721.945	63.88
722.267	63.86
722.588	63.96
722.909	63.93
723.231	63.94
723.552	63.92
723.873	63.99
724.194	63.97
724.515	63.98
724.836	63.97
725.157	63.96
725.478	63.94
725.799	63.95
726.12	63.93
726.441	63.98
726.762	63.96
727.083	64
727.403	64.01
727.724	64.01
728.045	64.03
728.365	64.05
728.686	64.05
729.006	64.12
729.327	64.08
729.647	64.13
729.967	64.11
730.288	64.12
730.608	64.06
730.928	64.07
731.249	64.09
731.569	64.11
731.889	64.13
732.209	64.16
732.529	64.17
732.849	64.18
733.169	64.15
733.489	64.17
733.809	64.16
734.129	64.11
734.448	64.16
734.768	64.14
735.088	64.11
735.408	64.2
735.727	64.15
736.047	64.13
736.366	64.07
736.686	64.12
737.005	64.14
737.325	64.12
737.644	64.1
737.963	64.1
738.283	64.09
738.602	64.06
738.921	64.06
739.24	63.95
739.56	63.96
739.879	63.94
740.198	63.93
740.517	63.86
740.836	63.92
741.155	63.91
741.473	63.95
741.792	63.95
742.111	63.86
742.43	63.86
742.748	63.85
743.067	63.83
743.386	63.8
743.704	63.79
744.023	63.82
744.341	63.87
744.66	63.85
744.978	63.9
745.297	63.92
745.615	63.93
745.933	64
746.252	64.1
746.57	64.16
746.888	64.14
747.206	64.15
747.524	64.16
747.842	64.19
748.16	64.18
748.478	64.16
748.796	64.11
749.114	64.09
749.432	64.12
749.749	64.21
750.067	64.27
750.385	64.25
750.703	64.16
751.02	64.16
751.338	64.19
751.655	64.15
751.973	64.19
752.29	64.13
752.608	64.17
752.925	64.06
753.242	64.07
753.56	64.13
753.877	64.19
754.194	64.17
754.511	64.12
754.828	64.17
755.145	64.15
755.462	64.22
755.779	64.21
756.096	64.22
756.413	64.19
756.73	64.1
757.047	64.17
757.364	64.28
757.68	64.35
757.997	64.34
758.314	64.32
758.63	64.28
758.947	64.47
759.264	64.37
759.58	64.49
759.896	64.5
760.213	64.47
760.529	64.51
760.846	64.56
761.162	64.63
761.478	64.61
761.794	64.69
762.11	64.72
762.426	64.85
762.743	64.94
763.059	64.98
763.375	65.07
763.69	65.08
764.006	65.12
764.322	65.01
764.638	65.01
764.954	64.98
765.27	65.01
765.585	64.91
765.901	64.97
766.216	64.89
766.532	64.9
766.848	64.97
767.163	64.89
767.478	64.82
767.794	64.81
768.109	64.83
768.424	64.8
768.74	64.82
769.055	64.66
769.37	64.61
769.685	64.5
770	64.41
770.315	64.37
770.63	64.26
770.945	64.32
771.26	64.23
771.575	64.29
771.89	64.26
772.205	64.26
772.52	64.27
772.834	64.36
773.149	64.37
773.464	64.28
773.778	64.37
774.093	64.44
774.407	64.4
774.722	64.34
775.036	64.32
775.351	64.23
775.665	64.36
775.979	64.31
776.293	64.38
776.608	64.34
776.922	64.33
777.236	64.39
777.55	64.45
777.864	64.63
778.178	64.73
778.492	64.68
778.806	64.65
779.12	64.6
779.434	64.57
779.747	64.45
780.061	64.48
780.375	64.58
780.689	64.56
781.002	64.56
781.316	64.67
781.629	64.74
781.943	64.82
782.256	64.79
782.57	64.71
782.883	64.73
783.196	64.84
783.51	64.87
783.823	64.87
784.136	64.9
784.449	64.89
784.762	64.83
785.075	64.89
785.388	64.91
785.701	64.96
786.014	64.89
786.327	64.94
786.64	64.94
786.953	64.92
787.266	64.99
787.578	65.05
787.891	65.03
788.204	65.03
788.516	64.98
788.829	64.94
789.141	65
789.454	64.93
789.766	64.92
790.079	64.92
790.391	64.87
790.703	64.74
791.016	64.72
791.328	64.71
791.64	64.68
791.952	64.75
792.264	64.8
792.576	64.84
792.888	64.89
793.2	64.96
793.512	64.89
793.824	64.8
794.136	64.79
794.448	64.86
794.76	64.84
795.071	64.93
795.383	65
795.695	65.02
796.006	65.19
796.318	65.15
796.629	65.15
796.941	65.17
797.252	65.23
797.564	65.19
797.875	65.17
798.186	65.2
798.497	65.06
798.809	65.07
799.12	65.05
799.431	65.06
799.742	64.91
800.053	65.02
800.364	65.12
800.675	65.14
800.986	65.13
801.297	65.14
801.608	65.06
801.918	65.08
802.229	65.07
802.54	65.05
802.851	65.05
803.161	65.01
803.472	65.04
803.782	65.07
804.093	65.06
804.403	65.07
804.714	65.06
805.024	65.07
805.334	65.09
805.645	65.23
805.955	65.27
806.265	65.45
806.575	65.41
806.885	65.35
807.195	65.3
807.505	65.23
807.815	65.28
808.125	65.25
808.435	65.3
808.745	65.46
809.055	65.45
809.365	65.5
809.674	65.71
809.984	65.85
810.294	65.78
810.603	65.89
810.913	65.95
811.222	66.02
811.532	66.25
811.841	66.19
812.151	66.13
812.46	66.12
812.769	66.07
813.079	66.07
813.388	66.19
813.697	66.28
814.006	66.32
814.315	66.19
814.624	66.19
814.933	66.17
815.242	66.03
815.551	66.07
815.86	66.04
816.169	65.96
816.478	65.84
816.786	65.9
817.095	65.94
817.404	65.92
817.712	65.93
818.021	65.87
818.33	65.89
818.638	65.92
818.947	66.01
819.255	66.02
819.563	66.01
819.872	65.93
820.18	65.9
820.488	65.9
820.796	65.91
821.105	65.96
821.413	66
821.721	66.04
822.029	65.95
822.337	65.97
822.645	66
822.953	66.06
823.26	66.08
823.568	66.11
823.876	66.14
824.184	66.15
824.491	66.14
824.799	66.16
825.107	66.19
825.414	66.2
825.722	66.21
826.029	66.23
826.337	66.24
826.644	66.24
826.951	66.28
827.259	66.32
827.566	66.38
827.873	66.37
828.18	66.33
828.488	66.46
828.795	66.49
829.102	66.49
829.409	66.44
829.716	66.45
830.023	66.41
830.329	66.37
830.636	66.35
830.943	66.38
831.25	66.38
831.557	66.32
831.863	66.25
832.17	66.24
832.476	66.27
832.783	66.27
833.089	66.37
833.396	66.27
833.702	66.29
834.009	66.19
834.315	66.19
834.621	66.28
834.928	66.15
835.234	66.09
835.54	66.02
835.846	65.99
836.152	66.05
836.458	66.1
836.764	66.06
837.07	66.08
837.376	66.03
837.682	66.02
837.988	66.09
838.293	66.1
838.599	66.07
838.905	66.04
839.211	66.06
839.516	66.06
839.822	66
840.127	65.86
840.433	65.86
840.738	65.84
841.044	65.78
841.349	65.8
841.654	65.92
841.959	66.14
842.265	66.23
842.57	66.05
842.875	66.01
843.18	66.07
843.485	66.06
843.79	66.12
844.095	66.19
844.4	66.03
844.705	66.09
845.01	66.29
845.315	66.09
845.619	66
845.924	65.9
846.229	65.97
846.533	66.09
846.838	66.01
847.142	66.12
847.447	66.06
847.751	66.29
848.056	66.28
848.36	66.01
848.664	65.92
848.969	65.87
849.273	66.04
849.577	66.07
849.881	66.09
850.185	66.06
850.489	65.72
850.794	65.61
851.097	65.55
851.401	65.25
851.705	65.63
852.009	65.85
852.313	65.64
852.617	65.97
852.92	65.98
853.224	65.83
853.528	65.75
853.831	65.87
854.135	65.8
854.438	65.5
854.742	65.5
855.045	65.76
855.349	65.73
855.652	65.57
855.955	65.39
856.259	65.61
856.562	65.86
856.865	66.16
857.168	66.54
857.471	66.63
857.774	66.4
858.077	66.5
858.38	66.56
858.683	66.47
858.986	66.08
859.289	66.43
859.592	66.57
859.894	66.33
860.197	66.39
860.5	66.5
860.802	66.79
861.105	66.63
861.407	66.47
861.71	66.77
862.012	66.75
862.315	67.04
862.617	66.57
862.919	66.42
863.222	66.54
863.524	66.49
863.826	66.5
864.128	66.8
864.43	66.59
864.732	66.36
865.034	66.58
865.336	66.67
865.638	66.36
865.94	66.41
866.242	66.29
866.544	66.51
866.846	66.37
867.147	66.64
867.449	66.63
867.751	66.79
868.052	66.48
868.354	66.15
868.655	65.77
868.957	66.07
869.258	65.87
869.56	65.65
869.861	65.43
870.162	65.09
870.463	64.98
870.765	64.96
871.066	64.82
871.367	64.82
871.668	64.89
871.969	65.11
872.27	65.28
872.571	65.65
872.872	65.31
873.173	65.57
873.473	65.42
873.774	65.82
874.075	65.87
874.376	66.05
874.676	66.19
874.977	66.48
875.277	66.41
875.578	66.67
875.878	66.72
876.179	66.74
876.479	66.99
876.78	67.18
877.08	67.21
877.38	67.57
877.68	67.67
877.981	68
878.281	68.01
878.581	67.85
