Data from UWBM12228_Reflection_00010.txt Node
Date: Sun May 02 12:54:12 EDT 2021
User: vgr7
Spectrometer: USB2G7710
Scans to average: 10
Trigger mode: 4
Integration Time (sec): 1.000000E-1
Electric dark correction enabled: true
Boxcar width: 20
XAxis mode: Wavelengths
Number of Pixels in Spectrum: 2048
>>>>>Begin Spectral Data<<<<<
177.721	99.57
178.105	99.91
178.488	100.31
178.871	100.43
179.254	100.73
179.636	98.43
180.019	97.04
180.402	94.38
180.785	92.3
181.168	90.7
181.55	88.95
181.933	111.16
182.316	110.96
182.698	112.87
183.081	114.38
183.463	115.17
183.846	117.38
184.228	118.54
184.611	119.24
184.993	121.67
185.376	123.89
185.758	-68.01
186.14	-17.42
186.522	8.8
186.904	21.26
187.287	30.18
187.669	32.03
188.051	32.37
188.433	36.92
188.815	34.65
189.197	33.54
189.579	33.5
189.961	32.88
190.342	33.24
190.724	33.14
191.106	33.24
191.488	33.86
191.869	28.05
192.251	28.84
192.633	27.11
193.014	24.48
193.396	24.9
193.777	29.6
194.159	28.37
194.54	25.65
194.922	24.87
195.303	28.04
195.684	30.22
196.065	32.55
196.447	30.98
196.828	28.63
197.209	29.43
197.59	21.68
197.971	20.05
198.352	20.8
198.733	22.45
199.114	21.68
199.495	21.65
199.876	21.75
200.257	20.53
200.638	20.48
201.018	15.67
201.399	14.45
201.78	12.77
202.16	13.28
202.541	14.28
202.922	14.04
203.302	11.87
203.683	10.72
204.063	11.16
204.444	12.74
204.824	16.33
205.204	17.57
205.585	25.6
205.965	23.49
206.345	24.94
206.725	21.82
207.106	21.59
207.486	22.86
207.866	21.96
208.246	20.51
208.626	23.49
209.006	26.7
209.386	22.82
209.766	22.66
210.145	23.24
210.525	22.95
210.905	21.49
211.285	19.56
211.664	18.19
212.044	19.45
212.424	19.43
212.803	14.18
213.183	16.37
213.562	16.32
213.942	15.82
214.321	13
214.701	12.15
215.08	13.36
215.459	12.95
215.838	12.92
216.218	12.59
216.597	12.12
216.976	8.75
217.355	9.52
217.734	8.6
218.113	7.96
218.492	9.76
218.871	9.96
219.25	10.49
219.629	9.51
220.008	7.46
220.387	7.48
220.766	8.16
221.144	6.97
221.523	8.06
221.902	8.26
222.28	8.66
222.659	9.68
223.037	9.05
223.416	9.32
223.794	10.6
224.173	9.65
224.551	8.64
224.929	8.59
225.308	9.26
225.686	8.87
226.064	9.06
226.442	9.43
226.821	9.47
227.199	8.9
227.577	8.56
227.955	8.34
228.333	8.21
228.711	8.4
229.089	8.75
229.467	8.23
229.845	8.98
230.222	8.84
230.6	9.17
230.978	9.18
231.356	8.55
231.733	8.37
232.111	8.04
232.488	7.92
232.866	7.83
233.243	7.3
233.621	7.2
233.998	6.67
234.376	6.65
234.753	6.47
235.13	6.3
235.508	6.7
235.885	6.5
236.262	6.31
236.639	6.39
237.016	6.36
237.393	6.24
237.77	6.06
238.147	5.87
238.524	5.89
238.901	5.84
239.278	5.78
239.655	5.71
240.032	5.65
240.409	5.62
240.785	5.47
241.162	5.44
241.539	5.33
241.915	5.31
242.292	5.25
242.668	5.17
243.045	5.12
243.421	5.01
243.798	4.98
244.174	4.92
244.551	4.82
244.927	4.65
245.303	4.59
245.679	4.61
246.056	4.55
246.432	4.52
246.808	4.29
247.184	4.29
247.56	4.26
247.936	4.28
248.312	4.27
248.688	4.34
249.064	4.3
249.44	4.29
249.815	4.28
250.191	4.26
250.567	4.24
250.943	4.32
251.318	4.3
251.694	4.25
252.069	4.17
252.445	4.14
252.82	4.21
253.196	4.21
253.571	4.15
253.947	4.2
254.322	4.15
254.697	4.27
255.073	4.25
255.448	4.21
255.823	4.17
256.198	4.13
256.573	3.98
256.948	3.96
257.323	3.97
257.698	3.94
258.073	3.94
258.448	3.83
258.823	3.82
259.198	3.79
259.573	3.8
259.948	3.83
260.322	3.8
260.697	3.8
261.072	3.78
261.446	3.75
261.821	3.74
262.195	3.71
262.57	3.68
262.944	3.68
263.319	3.65
263.693	3.65
264.067	3.65
264.442	3.74
264.816	3.69
265.19	3.67
265.564	3.7
265.938	3.66
266.313	3.69
266.687	3.65
267.061	3.65
267.435	3.64
267.809	3.63
268.183	3.59
268.556	3.6
268.93	3.61
269.304	3.59
269.678	3.56
270.051	3.52
270.425	3.52
270.799	3.56
271.172	3.58
271.546	3.57
271.919	3.57
272.293	3.55
272.666	3.54
273.04	3.53
273.413	3.46
273.787	3.45
274.16	3.44
274.533	3.46
274.906	3.45
275.279	3.46
275.653	3.46
276.026	3.44
276.399	3.41
276.772	3.41
277.145	3.42
277.518	3.44
277.891	3.47
278.263	3.47
278.636	3.47
279.009	3.48
279.382	3.48
279.755	3.44
280.127	3.47
280.5	3.47
280.872	3.46
281.245	3.57
281.617	3.58
281.99	3.61
282.362	3.63
282.735	3.62
283.107	3.62
283.479	3.64
283.852	3.66
284.224	3.69
284.596	3.66
284.968	3.55
285.34	3.54
285.713	3.52
286.085	3.45
286.457	3.45
286.829	3.44
287.201	3.43
287.572	3.49
287.944	3.49
288.316	3.53
288.688	3.58
289.06	3.57
289.431	3.59
289.803	3.58
290.175	3.59
290.546	3.61
290.918	3.63
291.289	3.61
291.661	3.63
292.032	3.58
292.403	3.62
292.775	3.7
293.146	3.7
293.517	3.73
293.889	3.81
294.26	3.81
294.631	3.83
295.002	3.87
295.373	3.9
295.744	3.91
296.115	3.92
296.486	3.87
296.857	3.87
297.228	3.87
297.599	3.87
297.97	3.88
298.34	3.9
298.711	3.85
299.082	3.86
299.452	3.9
299.823	3.94
300.194	3.99
300.564	4
300.935	4.02
301.305	4.02
301.676	4.02
302.046	4.04
302.416	4.08
302.787	4.1
303.157	4.07
303.527	4.09
303.897	4.12
304.267	4.16
304.637	4.2
305.008	4.26
305.378	4.3
305.748	4.32
306.117	4.39
306.487	4.47
306.857	4.55
307.227	4.59
307.597	4.6
307.967	4.64
308.336	4.68
308.706	4.73
309.076	4.77
309.445	4.8
309.815	4.73
310.184	4.76
310.554	4.76
310.923	4.82
311.293	4.87
311.662	4.91
312.031	4.95
312.401	4.99
312.77	5
313.139	5.03
313.508	5.1
313.877	5.09
314.246	5.11
314.616	5.12
314.985	5.11
315.353	5.14
315.722	5.19
316.091	5.23
316.46	5.29
316.829	5.35
317.198	5.4
317.567	5.57
317.935	5.62
318.304	5.7
318.672	5.77
319.041	5.8
319.41	5.87
319.778	5.92
320.147	5.98
320.515	6.05
320.883	6.08
321.252	6.09
321.62	6.18
321.988	6.22
322.357	6.27
322.725	6.36
323.093	6.42
323.461	6.46
323.829	6.51
324.197	6.52
324.565	6.53
324.933	6.58
325.301	6.6
325.669	6.64
326.037	6.67
326.405	6.66
326.772	6.68
327.14	6.69
327.508	6.71
327.875	6.75
328.243	6.79
328.61	6.77
328.978	6.81
329.346	6.84
329.713	6.83
330.08	6.85
330.448	6.86
330.815	6.86
331.182	6.89
331.55	6.9
331.917	6.94
332.284	6.96
332.651	6.99
333.018	7.02
333.385	7.05
333.752	7.08
334.119	7.12
334.486	7.15
334.853	7.15
335.22	7.17
335.587	7.17
335.954	7.2
336.32	7.24
336.687	7.26
337.054	7.27
337.42	7.31
337.787	7.33
338.153	7.36
338.52	7.41
338.886	7.44
339.253	7.45
339.619	7.47
339.986	7.46
340.352	7.46
340.718	7.48
341.084	7.5
341.451	7.52
341.817	7.52
342.183	7.52
342.549	7.56
342.915	7.56
343.281	7.58
343.647	7.6
344.013	7.64
344.379	7.66
344.745	7.67
345.11	7.69
345.476	7.71
345.842	7.73
346.208	7.71
346.573	7.71
346.939	7.73
347.304	7.73
347.67	7.74
348.035	7.75
348.401	7.73
348.766	7.76
349.132	7.77
349.497	7.79
349.862	7.8
350.228	7.81
350.593	7.83
350.958	7.82
351.323	7.8
351.688	7.79
352.053	7.78
352.418	7.77
352.783	7.76
353.148	7.75
353.513	7.72
353.878	7.73
354.243	7.72
354.608	7.69
354.972	7.68
355.337	7.68
355.702	7.65
356.066	7.65
356.431	7.63
356.795	7.62
357.16	7.59
357.524	7.57
357.889	7.56
358.253	7.55
358.618	7.54
358.982	7.54
359.346	7.53
359.71	7.51
360.075	7.51
360.439	7.49
360.803	7.47
361.167	7.45
361.531	7.45
361.895	7.43
362.259	7.42
362.623	7.4
362.987	7.38
363.351	7.38
363.714	7.36
364.078	7.34
364.442	7.31
364.806	7.3
365.169	7.26
365.533	7.22
365.896	7.19
366.26	7.17
366.623	7.13
366.987	7.1
367.35	7.07
367.714	7.05
368.077	7.02
368.44	6.99
368.803	6.96
369.167	6.92
369.53	6.9
369.893	6.88
370.256	6.84
370.619	6.81
370.982	6.77
371.345	6.73
371.708	6.69
372.071	6.66
372.434	6.62
372.797	6.6
373.159	6.57
373.522	6.53
373.885	6.48
374.247	6.42
374.61	6.38
374.973	6.32
375.335	6.28
375.698	6.24
376.06	6.2
376.423	6.15
376.785	6.1
377.147	6.06
377.51	6.02
377.872	5.99
378.234	5.95
378.596	5.92
378.958	5.89
379.321	5.86
379.683	5.82
380.045	5.79
380.407	5.75
380.769	5.71
381.13	5.69
381.492	5.66
381.854	5.63
382.216	5.6
382.578	5.57
382.939	5.55
383.301	5.52
383.663	5.48
384.024	5.45
384.386	5.42
384.747	5.38
385.109	5.34
385.47	5.31
385.832	5.29
386.193	5.25
386.554	5.22
386.916	5.2
387.277	5.16
387.638	5.15
387.999	5.12
388.36	5.1
388.721	5.08
389.082	5.06
389.443	5.04
389.804	5.02
390.165	5.01
390.526	4.99
390.887	4.96
391.248	4.94
391.609	4.93
391.969	4.91
392.33	4.9
392.691	4.87
393.051	4.85
393.412	4.82
393.772	4.81
394.133	4.79
394.493	4.76
394.854	4.75
395.214	4.72
395.574	4.7
395.935	4.67
396.295	4.64
396.655	4.62
397.015	4.6
397.376	4.57
397.736	4.55
398.096	4.52
398.456	4.5
398.816	4.49
399.176	4.46
399.535	4.44
399.895	4.43
400.255	4.4
400.615	4.38
400.975	4.37
401.334	4.34
401.694	4.32
402.054	4.31
402.413	4.27
402.773	4.26
403.132	4.25
403.492	4.23
403.851	4.21
404.211	4.2
404.57	4.2
404.929	4.19
405.288	4.18
405.648	4.17
406.007	4.16
406.366	4.16
406.725	4.15
407.084	4.14
407.443	4.13
407.802	4.11
408.161	4.09
408.52	4.08
408.879	4.07
409.238	4.06
409.596	4.05
409.955	4.06
410.314	4.05
410.673	4.03
411.031	4.03
411.39	4.03
411.748	4.03
412.107	4.03
412.465	4.02
412.824	4.03
413.182	4.04
413.54	4.04
413.899	4.06
414.257	4.07
414.615	4.1
414.974	4.12
415.332	4.15
415.69	4.18
416.048	4.19
416.406	4.22
416.764	4.24
417.122	4.26
417.48	4.29
417.838	4.3
418.195	4.32
418.553	4.33
418.911	4.34
419.269	4.33
419.626	4.32
419.984	4.3
420.342	4.28
420.699	4.26
421.057	4.24
421.414	4.22
421.772	4.2
422.129	4.19
422.486	4.18
422.844	4.18
423.201	4.17
423.558	4.17
423.915	4.16
424.273	4.15
424.63	4.14
424.987	4.14
425.344	4.13
425.701	4.13
426.058	4.13
426.415	4.12
426.772	4.11
427.128	4.1
427.485	4.09
427.842	4.08
428.199	4.06
428.555	4.05
428.912	4.03
429.269	4
429.625	3.98
429.982	3.95
430.338	3.93
430.695	3.91
431.051	3.87
431.407	3.85
431.764	3.83
432.12	3.81
432.476	3.8
432.832	3.78
433.189	3.79
433.545	3.79
433.901	3.8
434.257	3.82
434.613	3.84
434.969	3.86
435.325	3.88
435.681	3.92
436.036	3.93
436.392	3.95
436.748	3.95
437.104	3.95
437.459	3.96
437.815	3.98
438.171	3.99
438.526	4.01
438.882	4.04
439.237	4.06
439.593	4.1
439.948	4.12
440.304	4.15
440.659	4.18
441.014	4.19
441.369	4.21
441.725	4.23
442.08	4.24
442.435	4.25
442.79	4.25
443.145	4.25
443.5	4.25
443.855	4.25
444.21	4.25
444.565	4.24
444.92	4.23
445.275	4.22
445.629	4.21
445.984	4.21
446.339	4.2
446.693	4.19
447.048	4.18
447.403	4.16
447.757	4.14
448.112	4.12
448.466	4.1
448.82	4.09
449.175	4.07
449.529	4.06
449.883	4.04
450.238	4.02
450.592	4.01
450.946	4.01
451.3	4
451.654	4.01
452.008	4.01
452.362	4.02
452.716	4.02
453.07	4.02
453.424	4.01
453.778	4
454.132	3.99
454.486	3.98
454.839	3.96
455.193	3.94
455.547	3.92
455.9	3.89
456.254	3.87
456.607	3.84
456.961	3.82
457.314	3.81
457.668	3.8
458.021	3.79
458.375	3.79
458.728	3.79
459.081	3.8
459.434	3.8
459.787	3.81
460.141	3.82
460.494	3.82
460.847	3.83
461.2	3.84
461.553	3.85
461.906	3.85
462.259	3.86
462.611	3.86
462.964	3.87
463.317	3.87
463.67	3.88
464.022	3.88
464.375	3.88
464.728	3.88
465.08	3.88
465.433	3.89
465.785	3.89
466.138	3.88
466.49	3.87
466.843	3.86
467.195	3.84
467.547	3.83
467.899	3.81
468.252	3.79
468.604	3.77
468.956	3.76
469.308	3.75
469.66	3.75
470.012	3.75
470.364	3.75
470.716	3.76
471.068	3.78
471.42	3.8
471.772	3.82
472.123	3.84
472.475	3.85
472.827	3.86
473.178	3.87
473.53	3.88
473.882	3.89
474.233	3.91
474.585	3.95
474.936	4
475.288	4.08
475.639	4.18
475.99	4.31
476.342	4.45
476.693	4.6
477.044	4.75
477.395	4.9
477.746	5.06
478.097	5.22
478.448	5.38
478.8	5.54
479.15	5.68
479.501	5.82
479.852	5.93
480.203	6.04
480.554	6.15
480.905	6.26
481.255	6.36
481.606	6.45
481.957	6.53
482.307	6.62
482.658	6.69
483.009	6.77
483.359	6.84
483.709	6.91
484.06	6.98
484.41	7.05
484.761	7.11
485.111	7.17
485.461	7.23
485.811	7.29
486.162	7.34
486.512	7.38
486.862	7.41
487.212	7.43
487.562	7.45
487.912	7.46
488.262	7.47
488.612	7.46
488.961	7.45
489.311	7.41
489.661	7.35
490.011	7.27
490.36	7.18
490.71	7.06
491.06	6.94
491.409	6.81
491.759	6.68
492.108	6.54
492.458	6.4
492.807	6.25
493.157	6.1
493.506	5.96
493.855	5.82
494.204	5.7
494.554	5.59
494.903	5.49
495.252	5.39
495.601	5.29
495.95	5.19
496.299	5.11
496.648	5.03
496.997	4.95
497.346	4.88
497.695	4.82
498.043	4.76
498.392	4.7
498.741	4.65
499.09	4.59
499.438	4.54
499.787	4.49
500.135	4.46
500.484	4.43
500.832	4.41
501.181	4.4
501.529	4.4
501.878	4.41
502.226	4.43
502.574	4.46
502.923	4.48
503.271	4.52
503.619	4.55
503.967	4.59
504.315	4.62
504.663	4.66
505.011	4.7
505.359	4.74
505.707	4.77
506.055	4.82
506.403	4.87
506.751	4.92
507.098	4.97
507.446	5.03
507.794	5.09
508.141	5.16
508.489	5.24
508.837	5.31
509.184	5.38
509.531	5.46
509.879	5.54
510.226	5.63
510.574	5.72
510.921	5.81
511.268	5.91
511.616	6.01
511.963	6.12
512.31	6.22
512.657	6.33
513.004	6.44
513.351	6.55
513.698	6.64
514.045	6.73
514.392	6.83
514.739	6.92
515.086	7
515.432	7.09
515.779	7.18
516.126	7.28
516.473	7.39
516.819	7.5
517.166	7.62
517.512	7.76
517.859	7.9
518.205	8.05
518.552	8.22
518.898	8.42
519.245	8.63
519.591	8.89
519.937	9.2
520.283	9.56
520.629	9.95
520.976	10.36
521.322	10.78
521.668	11.22
522.014	11.65
522.36	12.09
522.706	12.53
523.052	12.96
523.398	13.37
523.743	13.75
524.089	14.11
524.435	14.44
524.781	14.77
525.126	15.1
525.472	15.43
525.817	15.76
526.163	16.09
526.509	16.41
526.854	16.72
527.199	17.04
527.545	17.36
527.89	17.68
528.235	18.01
528.581	18.33
528.926	18.62
529.271	18.92
529.616	19.19
529.961	19.43
530.306	19.66
530.651	19.9
530.996	20.12
531.341	20.33
531.686	20.53
532.031	20.73
532.376	20.96
532.721	21.19
533.065	21.45
533.41	21.73
533.755	21.99
534.099	22.22
534.444	22.44
534.788	22.64
535.133	22.85
535.477	23.04
535.822	23.21
536.166	23.36
536.51	23.46
536.855	23.54
537.199	23.58
537.543	23.62
537.887	23.68
538.231	23.76
538.576	23.85
538.92	23.93
539.264	24
539.608	24.05
539.951	24.09
540.295	24.12
540.639	24.14
540.983	24.15
541.327	24.17
541.671	24.18
542.014	24.2
542.358	24.24
542.701	24.33
543.045	24.45
543.389	24.6
543.732	24.74
544.075	24.92
544.419	25.11
544.762	25.3
545.105	25.5
545.449	25.72
545.792	25.95
546.135	26.17
546.478	26.36
546.821	26.52
547.165	26.64
547.508	26.72
547.851	26.77
548.194	26.78
548.536	26.77
548.879	26.74
549.222	26.69
549.565	26.63
549.908	26.58
550.25	26.55
550.593	26.57
550.936	26.63
551.278	26.74
551.621	26.87
551.963	27.03
552.306	27.2
552.648	27.39
552.991	27.6
553.333	27.83
553.675	28.1
554.017	28.39
554.36	28.7
554.702	29.05
555.044	29.41
555.386	29.82
555.728	30.2
556.07	30.57
556.412	30.92
556.754	31.19
557.096	31.46
557.438	31.74
557.78	32.01
558.121	32.28
558.463	32.55
558.805	32.83
559.147	33.1
559.488	33.38
559.83	33.65
560.171	33.92
560.513	34.19
560.854	34.44
561.196	34.69
561.537	34.95
561.878	35.19
562.22	35.43
562.561	35.66
562.902	35.9
563.243	36.14
563.584	36.37
563.925	36.6
564.266	36.83
564.607	37.05
564.948	37.28
565.289	37.5
565.63	37.72
565.971	37.94
566.312	38.15
566.653	38.36
566.993	38.57
567.334	38.78
567.675	38.97
568.015	39.17
568.356	39.36
568.696	39.55
569.037	39.73
569.377	39.9
569.718	40.06
570.058	40.22
570.398	40.38
570.739	40.54
571.079	40.68
571.419	40.82
571.759	40.96
572.099	41.09
572.439	41.22
572.779	41.36
573.119	41.48
573.459	41.6
573.799	41.72
574.139	41.85
574.479	41.98
574.819	42.1
575.158	42.23
575.498	42.34
575.838	42.46
576.177	42.58
576.517	42.69
576.856	42.8
577.196	42.9
577.535	43
577.875	43.11
578.214	43.21
578.553	43.32
578.893	43.41
579.232	43.5
579.571	43.61
579.91	43.7
580.25	43.8
580.589	43.89
580.928	43.99
581.267	44.08
581.606	44.18
581.945	44.29
582.283	44.38
582.622	44.47
582.961	44.57
583.3	44.67
583.639	44.78
583.977	44.9
584.316	44.99
584.654	45.08
584.993	45.19
585.332	45.28
585.67	45.38
586.008	45.48
586.347	45.58
586.685	45.67
587.024	45.77
587.362	45.86
587.7	45.97
588.038	46.07
588.376	46.15
588.715	46.25
589.053	46.36
589.391	46.47
589.729	46.57
590.067	46.67
590.404	46.76
590.742	46.86
591.08	46.97
591.418	47.07
591.756	47.15
592.093	47.25
592.431	47.33
592.769	47.41
593.106	47.5
593.444	47.57
593.781	47.63
594.119	47.7
594.456	47.77
594.793	47.83
595.131	47.89
595.468	47.97
595.805	48.02
596.143	48.1
596.48	48.17
596.817	48.26
597.154	48.35
597.491	48.42
597.828	48.5
598.165	48.59
598.502	48.67
598.839	48.74
599.176	48.82
599.512	48.88
599.849	48.94
600.186	49
600.523	49.07
600.859	49.13
601.196	49.18
601.532	49.24
601.869	49.3
602.205	49.36
602.542	49.42
602.878	49.47
603.215	49.51
603.551	49.56
603.887	49.61
604.223	49.65
604.56	49.7
604.896	49.74
605.232	49.78
605.568	49.83
605.904	49.87
606.24	49.91
606.576	49.95
606.912	49.98
607.248	50.02
607.583	50.06
607.919	50.1
608.255	50.14
608.591	50.17
608.926	50.2
609.262	50.24
609.597	50.27
609.933	50.31
610.268	50.35
610.604	50.36
610.939	50.39
611.275	50.42
611.61	50.44
611.945	50.45
612.281	50.47
612.616	50.49
612.951	50.5
613.286	50.54
613.621	50.56
613.956	50.58
614.291	50.6
614.626	50.62
614.961	50.66
615.296	50.68
615.631	50.71
615.966	50.74
616.3	50.76
616.635	50.79
616.97	50.81
617.304	50.84
617.639	50.86
617.973	50.89
618.308	50.93
618.642	50.95
618.977	50.97
619.311	51
619.646	51.03
619.98	51.06
620.314	51.11
620.648	51.16
620.983	51.2
621.317	51.24
621.651	51.27
621.985	51.31
622.319	51.35
622.653	51.4
622.987	51.43
623.321	51.47
623.655	51.5
623.988	51.52
624.322	51.54
624.656	51.56
624.99	51.59
625.323	51.62
625.657	51.64
625.99	51.66
626.324	51.68
626.657	51.71
626.991	51.73
627.324	51.76
627.658	51.79
627.991	51.83
628.324	51.86
628.657	51.89
628.991	51.92
629.324	51.94
629.657	51.98
629.99	52
630.323	52.02
630.656	52.05
630.989	52.07
631.322	52.1
631.655	52.13
631.987	52.15
632.32	52.17
632.653	52.21
632.986	52.22
633.318	52.24
633.651	52.25
633.984	52.26
634.316	52.27
634.649	52.28
634.981	52.3
635.313	52.32
635.646	52.33
635.978	52.35
636.31	52.35
636.643	52.35
636.975	52.37
637.307	52.39
637.639	52.42
637.971	52.46
638.303	52.48
638.635	52.51
638.967	52.53
639.299	52.55
639.631	52.59
639.963	52.62
640.295	52.64
640.626	52.68
640.958	52.71
641.29	52.73
641.621	52.76
641.953	52.77
642.285	52.8
642.616	52.82
642.948	52.82
643.279	52.85
643.61	52.88
643.942	52.89
644.273	52.91
644.604	52.94
644.936	52.96
645.267	52.98
645.598	53
645.929	53.02
646.26	53.04
646.591	53.05
646.922	53.07
647.253	53.09
647.584	53.12
647.915	53.16
648.245	53.19
648.576	53.21
648.907	53.24
649.238	53.25
649.568	53.27
649.899	53.28
650.229	53.32
650.56	53.34
650.89	53.36
651.221	53.4
651.551	53.42
651.882	53.45
652.212	53.46
652.542	53.48
652.872	53.52
653.203	53.56
653.533	53.57
653.863	53.59
654.193	53.59
654.523	53.61
654.853	53.63
655.183	53.66
655.513	53.69
655.843	53.72
656.172	53.72
656.502	53.74
656.832	53.74
657.162	53.76
657.491	53.78
657.821	53.8
658.15	53.82
658.48	53.84
658.809	53.85
659.139	53.88
659.468	53.91
659.798	53.93
660.127	53.97
660.456	54.02
660.785	54.06
661.115	54.07
661.444	54.08
661.773	54.09
662.102	54.11
662.431	54.13
662.76	54.14
663.089	54.15
663.418	54.17
663.747	54.18
664.076	54.21
664.404	54.22
664.733	54.23
665.062	54.25
665.39	54.26
665.719	54.28
666.048	54.29
666.376	54.29
666.705	54.29
667.033	54.31
667.362	54.31
667.69	54.35
668.018	54.36
668.347	54.37
668.675	54.37
669.003	54.38
669.331	54.38
669.659	54.38
669.987	54.42
670.315	54.44
670.643	54.48
670.971	54.49
671.299	54.49
671.627	54.49
671.955	54.49
672.283	54.5
672.61	54.52
672.938	54.54
673.266	54.55
673.593	54.54
673.921	54.54
674.249	54.54
674.576	54.57
674.904	54.6
675.231	54.62
675.558	54.63
675.886	54.66
676.213	54.69
676.54	54.72
676.867	54.73
677.195	54.75
677.522	54.76
677.849	54.8
678.176	54.83
678.503	54.86
678.83	54.86
679.157	54.89
679.484	54.89
679.81	54.92
680.137	54.92
680.464	54.94
680.791	54.97
681.117	54.97
681.444	55
681.771	55.02
682.097	55.04
682.424	55.06
682.75	55.06
683.077	55.1
683.403	55.11
683.729	55.13
684.056	55.14
684.382	55.14
684.708	55.17
685.034	55.2
685.36	55.22
685.686	55.24
686.012	55.26
686.339	55.26
686.664	55.29
686.99	55.33
687.316	55.37
687.642	55.41
687.968	55.42
688.294	55.44
688.619	55.45
688.945	55.48
689.271	55.48
689.596	55.48
689.922	55.49
690.247	55.51
690.573	55.5
690.898	55.52
691.224	55.52
691.549	55.5
691.874	55.51
692.2	55.53
692.525	55.55
692.85	55.55
693.175	55.56
693.5	55.61
693.825	55.62
694.15	55.63
694.475	55.65
694.8	55.65
695.125	55.67
695.45	55.68
695.775	55.68
696.099	55.71
696.424	55.73
696.749	55.72
697.073	55.73
697.398	55.73
697.723	55.75
698.047	55.75
698.372	55.76
698.696	55.77
699.02	55.79
699.345	55.79
699.669	55.8
699.993	55.81
700.318	55.8
700.642	55.79
700.966	55.79
701.29	55.8
701.614	55.8
701.938	55.81
702.262	55.82
702.586	55.86
702.91	55.88
703.234	55.91
703.557	55.94
703.881	55.98
704.205	56.01
704.529	56.04
704.852	56.07
705.176	56.09
705.499	56.11
705.823	56.13
706.146	56.17
706.47	56.2
706.793	56.21
707.117	56.29
707.44	56.31
707.763	56.29
708.086	56.32
708.409	56.31
708.733	56.34
709.056	56.36
709.379	56.38
709.702	56.38
710.025	56.42
710.348	56.35
710.671	56.39
710.993	56.4
711.316	56.42
711.639	56.46
711.962	56.46
712.284	56.45
712.607	56.48
712.93	56.49
713.252	56.53
713.575	56.52
713.897	56.55
714.22	56.58
714.542	56.6
714.864	56.65
715.187	56.69
715.509	56.72
715.831	56.72
716.153	56.71
716.475	56.7
716.798	56.71
717.12	56.8
717.442	56.82
717.764	56.85
718.085	56.83
718.407	56.8
718.729	56.82
719.051	56.85
719.373	56.86
719.695	56.86
720.016	56.86
720.338	56.84
720.659	56.86
720.981	56.9
721.302	56.89
721.624	56.92
721.945	56.92
722.267	56.94
722.588	56.96
722.909	57
723.231	57
723.552	57.03
723.873	57.04
724.194	57.05
724.515	57.09
724.836	57.17
725.157	57.18
725.478	57.17
725.799	57.18
726.12	57.22
726.441	57.2
726.762	57.23
727.083	57.25
727.403	57.24
727.724	57.27
728.045	57.25
728.365	57.27
728.686	57.28
729.006	57.33
729.327	57.35
729.647	57.38
729.967	57.38
730.288	57.38
730.608	57.37
730.928	57.37
731.249	57.38
731.569	57.42
731.889	57.45
732.209	57.43
732.529	57.43
732.849	57.41
733.169	57.42
733.489	57.41
733.809	57.35
734.129	57.33
734.448	57.37
734.768	57.35
735.088	57.35
735.408	57.33
735.727	57.31
736.047	57.34
736.366	57.37
736.686	57.37
737.005	57.37
737.325	57.36
737.644	57.34
737.963	57.31
738.283	57.32
738.602	57.33
738.921	57.36
739.24	57.33
739.56	57.35
739.879	57.3
740.198	57.27
740.517	57.29
740.836	57.25
741.155	57.25
741.473	57.23
741.792	57.24
742.111	57.22
742.43	57.23
742.748	57.2
743.067	57.16
743.386	57.18
743.704	57.17
744.023	57.21
744.341	57.21
744.66	57.22
744.978	57.18
745.297	57.2
745.615	57.17
745.933	57.19
746.252	57.17
746.57	57.15
746.888	57.22
747.206	57.27
747.524	57.25
747.842	57.28
748.16	57.3
748.478	57.3
748.796	57.28
749.114	57.25
749.432	57.23
749.749	57.25
750.067	57.21
750.385	57.18
750.703	57.17
751.02	57.15
751.338	57.12
751.655	57.15
751.973	57.13
752.29	57.13
752.608	57.13
752.925	57.19
753.242	57.24
753.56	57.26
753.877	57.27
754.194	57.29
754.511	57.31
754.828	57.32
755.145	57.36
755.462	57.37
755.779	57.39
756.096	57.45
756.413	57.47
756.73	57.49
757.047	57.5
757.364	57.53
757.68	57.53
757.997	57.54
758.314	57.57
758.63	57.63
758.947	57.71
759.264	57.75
759.58	57.81
759.896	57.85
760.213	57.87
760.529	57.88
760.846	57.87
761.162	57.9
761.478	57.95
761.794	57.99
762.11	58.02
762.426	58.03
762.743	58.04
763.059	58.11
763.375	58.15
763.69	58.18
764.006	58.2
764.322	58.27
764.638	58.29
764.954	58.31
765.27	58.32
765.585	58.33
765.901	58.34
766.216	58.28
766.532	58.25
766.848	58.24
767.163	58.25
767.478	58.26
767.794	58.26
768.109	58.22
768.424	58.24
768.74	58.24
769.055	58.24
769.37	58.25
769.685	58.24
770	58.22
770.315	58.19
770.63	58.18
770.945	58.15
771.26	58.12
771.575	58.07
771.89	57.98
772.205	57.97
772.52	57.93
772.834	57.97
773.149	57.95
773.464	57.93
773.778	57.92
774.093	57.89
774.407	57.84
774.722	57.78
775.036	57.75
775.351	57.73
775.665	57.64
775.979	57.6
776.293	57.61
776.608	57.59
776.922	57.58
777.236	57.61
777.55	57.65
777.864	57.69
778.178	57.69
778.492	57.66
778.806	57.63
779.12	57.59
779.434	57.63
779.747	57.64
780.061	57.71
780.375	57.71
780.689	57.63
781.002	57.62
781.316	57.6
781.629	57.66
781.943	57.67
782.256	57.7
782.57	57.72
782.883	57.74
783.196	57.71
783.51	57.72
783.823	57.68
784.136	57.69
784.449	57.72
784.762	57.78
785.075	57.78
785.388	57.78
785.701	57.78
786.014	57.8
786.327	57.8
786.64	57.79
786.953	57.79
787.266	57.82
787.578	57.87
787.891	57.89
788.204	57.87
788.516	57.92
788.829	57.93
789.141	57.9
789.454	57.91
789.766	57.95
790.079	57.93
790.391	57.88
790.703	57.86
791.016	57.8
791.328	57.82
791.64	57.82
791.952	57.89
792.264	57.88
792.576	57.94
792.888	57.96
793.2	57.94
793.512	57.99
793.824	57.99
794.136	58
794.448	58
794.76	57.99
795.071	57.98
795.383	58.02
795.695	58.11
796.006	58.2
796.318	58.22
796.629	58.29
796.941	58.3
797.252	58.34
797.564	58.36
797.875	58.32
798.186	58.25
798.497	58.27
798.809	58.2
799.12	58.24
799.431	58.23
799.742	58.32
800.053	58.33
800.364	58.39
800.675	58.42
800.986	58.45
801.297	58.51
801.608	58.51
801.918	58.5
802.229	58.5
802.54	58.44
802.851	58.42
803.161	58.48
803.472	58.51
803.782	58.52
804.093	58.56
804.403	58.57
804.714	58.59
805.024	58.63
805.334	58.61
805.645	58.61
805.955	58.63
806.265	58.63
806.575	58.63
806.885	58.6
807.195	58.6
807.505	58.66
807.815	58.7
808.125	58.67
808.435	58.6
808.745	58.61
809.055	58.63
809.365	58.7
809.674	58.7
809.984	58.76
810.294	58.77
810.603	58.8
810.913	58.9
811.222	58.8
811.532	58.84
811.841	58.77
812.151	58.81
812.46	58.73
812.769	58.72
813.079	58.67
813.388	58.67
813.697	58.62
814.006	58.65
814.315	58.65
814.624	58.67
814.933	58.67
815.242	58.69
815.551	58.63
815.86	58.47
816.169	58.46
816.478	58.38
816.786	58.38
817.095	58.37
817.404	58.29
817.712	58.27
818.021	58.21
818.33	58.23
818.638	58.23
818.947	58.23
819.255	58.17
819.563	58.25
819.872	58.31
820.18	58.36
820.488	58.42
820.796	58.45
821.105	58.49
821.413	58.48
821.721	58.5
822.029	58.51
822.337	58.55
822.645	58.54
822.953	58.55
823.26	58.55
823.568	58.56
823.876	58.59
824.184	58.56
824.491	58.58
824.799	58.58
825.107	58.61
825.414	58.63
825.722	58.63
826.029	58.64
826.337	58.65
826.644	58.64
826.951	58.65
827.259	58.66
827.566	58.67
827.873	58.68
828.18	58.68
828.488	58.72
828.795	58.71
829.102	58.73
829.409	58.72
829.716	58.73
830.023	58.79
830.329	58.79
830.636	58.84
830.943	58.86
831.25	58.94
831.557	58.97
831.863	59.05
832.17	59.04
832.476	59.04
832.783	58.98
833.089	58.95
833.396	58.89
833.702	58.84
834.009	58.83
834.315	58.83
834.621	58.82
834.928	58.78
835.234	58.78
835.54	58.74
835.846	58.84
836.152	58.82
836.458	58.8
836.764	58.86
837.07	58.86
837.376	58.79
837.682	58.68
837.988	58.64
838.293	58.57
838.599	58.56
838.905	58.56
839.211	58.58
839.516	58.6
839.822	58.67
840.127	58.66
840.433	58.63
840.738	58.72
841.044	58.76
841.349	58.86
841.654	59.02
841.959	59.07
842.265	59.14
842.57	59.17
842.875	59.33
843.18	59.44
843.485	59.5
843.79	59.5
844.095	59.55
844.4	59.54
844.705	59.54
845.01	59.49
845.315	59.58
845.619	59.46
845.924	59.46
846.229	59.37
846.533	59.37
846.838	59.39
847.142	59.32
847.447	59.42
847.751	59.38
848.056	59.51
848.36	59.36
848.664	59.46
848.969	59.37
849.273	59.26
849.577	59.21
849.881	59.23
850.185	59.45
850.489	59.66
850.794	59.81
851.097	59.69
851.401	59.53
851.705	59.56
852.009	59.56
852.313	59.5
852.617	59.6
852.92	59.7
853.224	59.59
853.528	59.4
853.831	59.4
854.135	59.11
854.438	59.09
854.742	59.09
855.045	59.16
855.349	59.12
855.652	59.22
855.955	59.19
856.259	59.13
856.562	59.21
856.865	59.11
857.168	59.12
857.471	59.19
857.774	59.01
858.077	58.77
858.38	58.86
858.683	58.9
858.986	58.9
859.289	58.92
859.592	59.09
859.894	59.2
860.197	59.17
860.5	59.05
860.802	59.1
861.105	58.99
861.407	59.02
861.71	59.01
862.012	58.95
862.315	58.91
862.617	58.74
862.919	58.51
863.222	58.61
863.524	58.65
863.826	58.9
864.128	58.99
864.43	58.99
864.732	58.93
865.034	58.81
865.336	58.82
865.638	58.83
865.94	58.97
866.242	58.88
866.544	58.67
866.846	58.88
867.147	58.65
867.449	58.61
867.751	58.68
868.052	58.66
868.354	58.65
868.655	58.68
868.957	58.85
869.258	58.89
869.56	58.82
869.861	58.7
870.162	58.81
870.463	58.95
870.765	58.92
871.066	59.03
871.367	59.04
871.668	59.22
871.969	59.19
872.27	58.99
872.571	58.98
872.872	59.19
873.173	59.13
873.473	59.29
873.774	59.4
874.075	59.43
874.376	59.57
874.676	59.63
874.977	59.6
875.277	59.53
875.578	59.42
875.878	59.3
876.179	59.31
876.479	59.18
876.78	59.26
877.08	59.3
877.38	59.53
877.68	59.54
877.981	59.57
878.281	59.38
878.581	59.45
