Data from UWBM59333_Reflection_00006.txt Node
Date: Sun May 02 13:48:02 EDT 2021
User: vgr7
Spectrometer: USB2G7710
Scans to average: 10
Trigger mode: 4
Integration Time (sec): 1.000000E-1
Electric dark correction enabled: true
Boxcar width: 20
XAxis mode: Wavelengths
Number of Pixels in Spectrum: 2048
>>>>>Begin Spectral Data<<<<<
177.721	104.71
178.105	99.72
178.488	102.81
178.871	113.02
179.254	104.57
179.636	105.49
180.019	90.27
180.402	81.64
180.785	65.76
181.168	64.6
181.55	55.4
181.933	54.54
182.316	50.65
182.698	50.64
183.081	45.71
183.463	48.97
183.846	45.36
184.228	46.12
184.611	44.96
184.993	42.26
185.376	43.23
185.758	44.04
186.14	43.27
186.522	42.52
186.904	42.91
187.287	45.45
187.669	44.99
188.051	40.83
188.433	39.06
188.815	34.7
189.197	37.22
189.579	38.64
189.961	36.85
190.342	36.1
190.724	39.14
191.106	41.45
191.488	43.42
191.869	40.36
192.251	38.58
192.633	38.67
193.014	38.55
193.396	35.62
193.777	37.54
194.159	36.29
194.54	34.75
194.922	34.08
195.303	31.95
195.684	31.14
196.065	28.9
196.447	30.13
196.828	29.23
197.209	29.13
197.59	28.12
197.971	28.46
198.352	29.31
198.733	30.24
199.114	28.69
199.495	29.83
199.876	28.72
200.257	29.01
200.638	29.01
201.018	29.66
201.399	30.14
201.78	31.42
202.16	29.5
202.541	28.14
202.922	26.24
203.302	27.15
203.683	29.42
204.063	30.64
204.444	31.05
204.824	28.96
205.204	29.29
205.585	29.69
205.965	29.97
206.345	27.43
206.725	27.45
207.106	26.08
207.486	26.55
207.866	27.41
208.246	26.27
208.626	25.72
209.006	26.38
209.386	25.36
209.766	25.59
210.145	25.27
210.525	24.45
210.905	26.09
211.285	24.58
211.664	26.38
212.044	25.21
212.424	23.77
212.803	24.75
213.183	24.6
213.562	23.96
213.942	22.91
214.321	22.42
214.701	21.11
215.08	21.63
215.459	22.21
215.838	19.89
216.218	19.35
216.597	17.84
216.976	17.09
217.355	16.31
217.734	18.37
218.113	18.24
218.492	16.38
218.871	16.18
219.25	15.91
219.629	14.76
220.008	14.42
220.387	13.35
220.766	11.94
221.144	12.11
221.523	12.38
221.902	12.95
222.28	11.89
222.659	12.26
223.037	11.11
223.416	10.96
223.794	10.92
224.173	10.51
224.551	9.52
224.929	9.89
225.308	9.54
225.686	9.47
226.064	9.4
226.442	8.8
226.821	9.66
227.199	9.94
227.577	10.3
227.955	10.51
228.333	10.71
228.711	10.07
229.089	9.82
229.467	9.73
229.845	9.32
230.222	9.67
230.6	9.18
230.978	8.72
231.356	9
231.733	8.77
232.111	8.54
232.488	8.59
232.866	8.39
233.243	8.02
233.621	8.01
233.998	8.06
234.376	7.81
234.753	7.24
235.13	7.11
235.508	7.05
235.885	7.15
236.262	7.01
236.639	6.99
237.016	6.76
237.393	6.71
237.77	6.7
238.147	6.53
238.524	6.48
238.901	6.28
239.278	6.24
239.655	6.12
240.032	6.07
240.409	5.94
240.785	5.87
241.162	5.84
241.539	5.77
241.915	5.75
242.292	5.67
242.668	5.6
243.045	5.56
243.421	5.53
243.798	5.48
244.174	5.5
244.551	5.47
244.927	5.45
245.303	5.46
245.679	5.43
246.056	5.37
246.432	5.38
246.808	5.34
247.184	5.33
247.56	5.32
247.936	5.25
248.312	5.21
248.688	5.19
249.064	5.14
249.44	5.14
249.815	5.1
250.191	5.08
250.567	5.09
250.943	5.06
251.318	4.99
251.694	4.99
252.069	4.92
252.445	4.92
252.82	4.85
253.196	4.81
253.571	4.79
253.947	4.77
254.322	4.75
254.697	4.74
255.073	4.74
255.448	4.73
255.823	4.7
256.198	4.69
256.573	4.65
256.948	4.65
257.323	4.62
257.698	4.58
258.073	4.55
258.448	4.53
258.823	4.51
259.198	4.49
259.573	4.46
259.948	4.48
260.322	4.47
260.697	4.45
261.072	4.42
261.446	4.43
261.821	4.41
262.195	4.41
262.57	4.42
262.944	4.42
263.319	4.44
263.693	4.45
264.067	4.45
264.442	4.46
264.816	4.44
265.19	4.44
265.564	4.45
265.938	4.42
266.313	4.43
266.687	4.42
267.061	4.4
267.435	4.39
267.809	4.37
268.183	4.38
268.556	4.38
268.93	4.39
269.304	4.4
269.678	4.4
270.051	4.39
270.425	4.38
270.799	4.38
271.172	4.4
271.546	4.39
271.919	4.42
272.293	4.42
272.666	4.43
273.04	4.45
273.413	4.47
273.787	4.47
274.16	4.47
274.533	4.47
274.906	4.48
275.279	4.46
275.653	4.45
276.026	4.46
276.399	4.47
276.772	4.49
277.145	4.49
277.518	4.49
277.891	4.49
278.263	4.47
278.636	4.46
279.009	4.46
279.382	4.47
279.755	4.47
280.127	4.48
280.5	4.48
280.872	4.48
281.245	4.5
281.617	4.49
281.99	4.5
282.362	4.5
282.735	4.51
283.107	4.51
283.479	4.49
283.852	4.5
284.224	4.48
284.596	4.48
284.968	4.48
285.34	4.47
285.713	4.47
286.085	4.46
286.457	4.45
286.829	4.45
287.201	4.42
287.572	4.41
287.944	4.41
288.316	4.39
288.688	4.39
289.06	4.39
289.431	4.38
289.803	4.4
290.175	4.4
290.546	4.41
290.918	4.42
291.289	4.41
291.661	4.4
292.032	4.38
292.403	4.39
292.775	4.39
293.146	4.38
293.517	4.39
293.889	4.39
294.26	4.39
294.631	4.4
295.002	4.4
295.373	4.4
295.744	4.41
296.115	4.4
296.486	4.41
296.857	4.42
297.228	4.41
297.599	4.42
297.97	4.43
298.34	4.42
298.711	4.43
299.082	4.42
299.452	4.44
299.823	4.43
300.194	4.44
300.564	4.44
300.935	4.45
301.305	4.46
301.676	4.46
302.046	4.46
302.416	4.47
302.787	4.47
303.157	4.47
303.527	4.48
303.897	4.47
304.267	4.46
304.637	4.45
305.008	4.44
305.378	4.43
305.748	4.44
306.117	4.43
306.487	4.44
306.857	4.46
307.227	4.46
307.597	4.46
307.967	4.46
308.336	4.46
308.706	4.46
309.076	4.45
309.445	4.45
309.815	4.44
310.184	4.42
310.554	4.41
310.923	4.4
311.293	4.4
311.662	4.38
312.031	4.38
312.401	4.38
312.77	4.38
313.139	4.39
313.508	4.4
313.877	4.39
314.246	4.39
314.616	4.38
314.985	4.38
315.353	4.37
315.722	4.36
316.091	4.36
316.46	4.33
316.829	4.33
317.198	4.32
317.567	4.31
317.935	4.31
318.304	4.3
318.672	4.3
319.041	4.32
319.41	4.32
319.778	4.32
320.147	4.31
320.515	4.31
320.883	4.27
321.252	4.26
321.62	4.24
321.988	4.22
322.357	4.22
322.725	4.21
323.093	4.2
323.461	4.19
323.829	4.18
324.197	4.17
324.565	4.16
324.933	4.16
325.301	4.15
325.669	4.16
326.037	4.16
326.405	4.16
326.772	4.15
327.14	4.14
327.508	4.13
327.875	4.13
328.243	4.11
328.61	4.1
328.978	4.09
329.346	4.08
329.713	4.08
330.08	4.07
330.448	4.04
330.815	4.03
331.182	4.02
331.55	4.03
331.917	4.03
332.284	4.02
332.651	4.03
333.018	4.02
333.385	4.02
333.752	4.01
334.119	4
334.486	3.99
334.853	3.99
335.22	4
335.587	3.99
335.954	3.99
336.32	3.99
336.687	3.99
337.054	4
337.42	4
337.787	3.99
338.153	3.99
338.52	4
338.886	3.99
339.253	4
339.619	4
339.986	3.99
340.352	3.99
340.718	3.98
341.084	3.97
341.451	3.97
341.817	3.96
342.183	3.97
342.549	3.96
342.915	3.95
343.281	3.95
343.647	3.95
344.013	3.95
344.379	3.96
344.745	3.96
345.11	3.96
345.476	3.97
345.842	3.98
346.208	3.99
346.573	3.97
346.939	3.97
347.304	3.98
347.67	3.96
348.035	3.97
348.401	3.96
348.766	3.96
349.132	3.95
349.497	3.96
349.862	3.95
350.228	3.95
350.593	3.94
350.958	3.95
351.323	3.95
351.688	3.95
352.053	3.94
352.418	3.94
352.783	3.94
353.148	3.94
353.513	3.94
353.878	3.94
354.243	3.94
354.608	3.94
354.972	3.94
355.337	3.94
355.702	3.94
356.066	3.95
356.431	3.94
356.795	3.94
357.16	3.93
357.524	3.94
357.889	3.95
358.253	3.94
358.618	3.94
358.982	3.94
359.346	3.94
359.71	3.93
360.075	3.94
360.439	3.93
360.803	3.93
361.167	3.93
361.531	3.94
361.895	3.93
362.259	3.92
362.623	3.93
362.987	3.92
363.351	3.92
363.714	3.92
364.078	3.92
364.442	3.91
364.806	3.91
365.169	3.91
365.533	3.92
365.896	3.91
366.26	3.92
366.623	3.91
366.987	3.91
367.35	3.91
367.714	3.91
368.077	3.91
368.44	3.91
368.803	3.91
369.167	3.9
369.53	3.9
369.893	3.9
370.256	3.9
370.619	3.9
370.982	3.9
371.345	3.9
371.708	3.91
372.071	3.91
372.434	3.9
372.797	3.9
373.159	3.89
373.522	3.9
373.885	3.9
374.247	3.9
374.61	3.89
374.973	3.89
375.335	3.89
375.698	3.88
376.06	3.87
376.423	3.87
376.785	3.88
377.147	3.88
377.51	3.88
377.872	3.88
378.234	3.87
378.596	3.86
378.958	3.86
379.321	3.86
379.683	3.86
380.045	3.85
380.407	3.85
380.769	3.85
381.13	3.84
381.492	3.84
381.854	3.84
382.216	3.83
382.578	3.82
382.939	3.82
383.301	3.82
383.663	3.82
384.024	3.81
384.386	3.81
384.747	3.81
385.109	3.81
385.47	3.81
385.832	3.8
386.193	3.8
386.554	3.79
386.916	3.79
387.277	3.78
387.638	3.78
387.999	3.79
388.36	3.78
388.721	3.78
389.082	3.78
389.443	3.77
389.804	3.77
390.165	3.77
390.526	3.77
390.887	3.77
391.248	3.76
391.609	3.76
391.969	3.76
392.33	3.76
392.691	3.76
393.051	3.76
393.412	3.77
393.772	3.77
394.133	3.76
394.493	3.76
394.854	3.76
395.214	3.76
395.574	3.76
395.935	3.76
396.295	3.76
396.655	3.76
397.015	3.76
397.376	3.76
397.736	3.76
398.096	3.76
398.456	3.76
398.816	3.77
399.176	3.76
399.535	3.76
399.895	3.76
400.255	3.76
400.615	3.77
400.975	3.77
401.334	3.77
401.694	3.77
402.054	3.77
402.413	3.77
402.773	3.77
403.132	3.77
403.492	3.77
403.851	3.77
404.211	3.77
404.57	3.77
404.929	3.77
405.288	3.78
405.648	3.78
406.007	3.79
406.366	3.79
406.725	3.78
407.084	3.79
407.443	3.79
407.802	3.79
408.161	3.78
408.52	3.78
408.879	3.79
409.238	3.79
409.596	3.79
409.955	3.79
410.314	3.79
410.673	3.8
411.031	3.8
411.39	3.81
411.748	3.81
412.107	3.82
412.465	3.83
412.824	3.85
413.182	3.88
413.54	3.9
413.899	3.93
414.257	3.96
414.615	4
414.974	4.03
415.332	4.07
415.69	4.11
416.048	4.13
416.406	4.18
416.764	4.2
417.122	4.24
417.48	4.27
417.838	4.3
418.195	4.33
418.553	4.35
418.911	4.36
419.269	4.37
419.626	4.37
419.984	4.37
420.342	4.36
420.699	4.34
421.057	4.33
421.414	4.31
421.772	4.3
422.129	4.29
422.486	4.29
422.844	4.29
423.201	4.29
423.558	4.29
423.915	4.29
424.273	4.29
424.63	4.29
424.987	4.29
425.344	4.29
425.701	4.28
426.058	4.29
426.415	4.29
426.772	4.29
427.128	4.28
427.485	4.27
427.842	4.26
428.199	4.24
428.555	4.22
428.912	4.2
429.269	4.18
429.625	4.15
429.982	4.12
430.338	4.1
430.695	4.08
431.051	4.05
431.407	4.03
431.764	4.01
432.12	3.99
432.476	3.98
432.832	3.97
433.189	3.97
433.545	3.98
433.901	3.99
434.257	4.01
434.613	4.04
434.969	4.06
435.325	4.08
435.681	4.12
436.036	4.14
436.392	4.16
436.748	4.18
437.104	4.19
437.459	4.21
437.815	4.23
438.171	4.25
438.526	4.27
438.882	4.31
439.237	4.35
439.593	4.38
439.948	4.41
440.304	4.45
440.659	4.47
441.014	4.5
441.369	4.53
441.725	4.55
442.08	4.57
442.435	4.58
442.79	4.59
443.145	4.59
443.5	4.6
443.855	4.6
444.21	4.6
444.565	4.6
444.92	4.59
445.275	4.59
445.629	4.58
445.984	4.57
446.339	4.56
446.693	4.55
447.048	4.53
447.403	4.52
447.757	4.49
448.112	4.47
448.466	4.45
448.82	4.43
449.175	4.4
449.529	4.38
449.883	4.37
450.238	4.34
450.592	4.34
450.946	4.33
451.3	4.33
451.654	4.34
452.008	4.34
452.362	4.35
452.716	4.35
453.07	4.35
453.424	4.35
453.778	4.34
454.132	4.33
454.486	4.32
454.839	4.3
455.193	4.29
455.547	4.27
455.9	4.25
456.254	4.23
456.607	4.2
456.961	4.18
457.314	4.15
457.668	4.14
458.021	4.14
458.375	4.13
458.728	4.13
459.081	4.14
459.434	4.14
459.787	4.15
460.141	4.16
460.494	4.16
460.847	4.17
461.2	4.17
461.553	4.18
461.906	4.18
462.259	4.18
462.611	4.18
462.964	4.19
463.317	4.19
463.67	4.2
464.022	4.21
464.375	4.21
464.728	4.22
465.08	4.22
465.433	4.22
465.785	4.22
466.138	4.2
466.49	4.18
466.843	4.17
467.195	4.14
467.547	4.12
467.899	4.1
468.252	4.07
468.604	4.05
468.956	4.02
469.308	4.01
469.66	4
470.012	4
470.364	4
470.716	4
471.068	4.01
471.42	4.03
471.772	4.05
472.123	4.06
472.475	4.07
472.827	4.08
473.178	4.08
473.53	4.09
473.882	4.11
474.233	4.14
474.585	4.17
474.936	4.24
475.288	4.33
475.639	4.44
475.99	4.57
476.342	4.72
476.693	4.88
477.044	5.05
477.395	5.22
477.746	5.39
478.097	5.56
478.448	5.73
478.8	5.9
479.15	6.06
479.501	6.21
479.852	6.34
480.203	6.47
480.554	6.59
480.905	6.71
481.255	6.82
481.606	6.93
481.957	7.03
482.307	7.13
482.658	7.22
483.009	7.31
483.359	7.39
483.709	7.48
484.06	7.55
484.41	7.63
484.761	7.71
485.111	7.78
485.461	7.85
485.811	7.91
486.162	7.97
486.512	8.02
486.862	8.07
487.212	8.09
487.562	8.11
487.912	8.12
488.262	8.13
488.612	8.12
488.961	8.1
489.311	8.06
489.661	7.99
490.011	7.9
490.36	7.79
490.71	7.67
491.06	7.54
491.409	7.4
491.759	7.25
492.108	7.09
492.458	6.93
492.807	6.77
493.157	6.6
493.506	6.44
493.855	6.29
494.204	6.15
494.554	6.02
494.903	5.89
495.252	5.77
495.601	5.66
495.95	5.54
496.299	5.43
496.648	5.33
496.997	5.23
497.346	5.14
497.695	5.05
498.043	4.96
498.392	4.88
498.741	4.8
499.09	4.72
499.438	4.65
499.787	4.58
500.135	4.51
500.484	4.45
500.832	4.41
501.181	4.37
501.529	4.34
501.878	4.33
502.226	4.32
502.574	4.31
502.923	4.31
503.271	4.31
503.619	4.31
503.967	4.31
504.315	4.3
504.663	4.3
505.011	4.3
505.359	4.29
505.707	4.29
506.055	4.29
506.403	4.29
506.751	4.3
507.098	4.3
507.446	4.31
507.794	4.31
508.141	4.32
508.489	4.33
508.837	4.35
509.184	4.36
509.531	4.38
509.879	4.39
510.226	4.41
510.574	4.42
510.921	4.44
511.268	4.46
511.616	4.48
511.963	4.5
512.31	4.53
512.657	4.55
513.004	4.57
513.351	4.59
513.698	4.61
514.045	4.61
514.392	4.62
514.739	4.62
515.086	4.61
515.432	4.61
515.779	4.6
516.126	4.6
516.473	4.6
516.819	4.6
517.166	4.61
517.512	4.61
517.859	4.63
518.205	4.65
518.552	4.67
518.898	4.7
519.245	4.74
519.591	4.8
519.937	4.88
520.283	4.97
520.629	5.07
520.976	5.18
521.322	5.3
521.668	5.42
522.014	5.55
522.36	5.68
522.706	5.8
523.052	5.92
523.398	6.03
523.743	6.12
524.089	6.2
524.435	6.27
524.781	6.34
525.126	6.4
525.472	6.46
525.817	6.51
526.163	6.56
526.509	6.61
526.854	6.66
527.199	6.7
527.545	6.75
527.89	6.8
528.235	6.85
528.581	6.89
528.926	6.94
529.271	6.98
529.616	7.02
529.961	7.05
530.306	7.09
530.651	7.11
530.996	7.13
531.341	7.14
531.686	7.15
532.031	7.15
532.376	7.15
532.721	7.16
533.065	7.17
533.41	7.17
533.755	7.16
534.099	7.15
534.444	7.13
534.788	7.09
535.133	7.05
535.477	7
535.822	6.95
536.166	6.89
536.51	6.82
536.855	6.75
537.199	6.66
537.543	6.59
537.887	6.51
538.231	6.45
538.576	6.4
538.92	6.34
539.264	6.28
539.608	6.22
539.951	6.16
540.295	6.1
540.639	6.03
540.983	5.97
541.327	5.9
541.671	5.83
542.014	5.77
542.358	5.71
542.701	5.67
543.045	5.63
543.389	5.61
543.732	5.58
544.075	5.56
544.419	5.54
544.762	5.53
545.105	5.52
545.449	5.51
545.792	5.5
546.135	5.49
546.478	5.48
546.821	5.46
547.165	5.43
547.508	5.39
547.851	5.34
548.194	5.28
548.536	5.22
548.879	5.15
549.222	5.08
549.565	5.01
549.908	4.94
550.25	4.87
550.593	4.81
550.936	4.76
551.278	4.72
551.621	4.69
551.963	4.65
552.306	4.63
552.648	4.61
552.991	4.59
553.333	4.58
553.675	4.57
554.017	4.56
554.36	4.56
554.702	4.57
555.044	4.58
555.386	4.59
555.728	4.61
556.07	4.62
556.412	4.64
556.754	4.64
557.096	4.64
557.438	4.65
557.78	4.65
558.121	4.65
558.463	4.65
558.805	4.65
559.147	4.65
559.488	4.66
559.83	4.66
560.171	4.66
560.513	4.66
560.854	4.66
561.196	4.66
561.537	4.66
561.878	4.66
562.22	4.66
562.561	4.66
562.902	4.67
563.243	4.67
563.584	4.67
563.925	4.68
564.266	4.68
564.607	4.68
564.948	4.69
565.289	4.69
565.63	4.69
565.971	4.7
566.312	4.71
566.653	4.71
566.993	4.71
567.334	4.71
567.675	4.71
568.015	4.71
568.356	4.72
568.696	4.72
569.037	4.72
569.377	4.72
569.718	4.72
570.058	4.73
570.398	4.73
570.739	4.73
571.079	4.73
571.419	4.73
571.759	4.73
572.099	4.73
572.439	4.74
572.779	4.74
573.119	4.73
573.459	4.73
573.799	4.73
574.139	4.73
574.479	4.73
574.819	4.74
575.158	4.73
575.498	4.74
575.838	4.73
576.177	4.74
576.517	4.74
576.856	4.74
577.196	4.74
577.535	4.74
577.875	4.73
578.214	4.73
578.553	4.73
578.893	4.74
579.232	4.74
579.571	4.74
579.91	4.73
580.25	4.72
580.589	4.72
580.928	4.72
581.267	4.72
581.606	4.73
581.945	4.72
582.283	4.72
582.622	4.73
582.961	4.73
583.3	4.73
583.639	4.73
583.977	4.73
584.316	4.73
584.654	4.73
584.993	4.73
585.332	4.73
585.67	4.74
586.008	4.74
586.347	4.73
586.685	4.73
587.024	4.73
587.362	4.74
587.7	4.74
588.038	4.75
588.376	4.75
588.715	4.74
589.053	4.75
589.391	4.75
589.729	4.75
590.067	4.75
590.404	4.76
590.742	4.76
591.08	4.76
591.418	4.77
591.756	4.77
592.093	4.78
592.431	4.78
592.769	4.78
593.106	4.78
593.444	4.78
593.781	4.78
594.119	4.79
594.456	4.79
594.793	4.79
595.131	4.79
595.468	4.78
595.805	4.79
596.143	4.79
596.48	4.79
596.817	4.79
597.154	4.79
597.491	4.79
597.828	4.8
598.165	4.8
598.502	4.81
598.839	4.81
599.176	4.81
599.512	4.81
599.849	4.81
600.186	4.81
600.523	4.82
600.859	4.82
601.196	4.82
601.532	4.82
601.869	4.82
602.205	4.82
602.542	4.83
602.878	4.83
603.215	4.83
603.551	4.83
603.887	4.83
604.223	4.83
604.56	4.83
604.896	4.84
605.232	4.84
605.568	4.84
605.904	4.84
606.24	4.84
606.576	4.84
606.912	4.83
607.248	4.83
607.583	4.83
607.919	4.84
608.255	4.84
608.591	4.85
608.926	4.85
609.262	4.85
609.597	4.85
609.933	4.85
610.268	4.85
610.604	4.85
610.939	4.85
611.275	4.85
611.61	4.86
611.945	4.86
612.281	4.86
612.616	4.86
612.951	4.85
613.286	4.86
613.621	4.86
613.956	4.86
614.291	4.87
614.626	4.87
614.961	4.87
615.296	4.87
615.631	4.87
615.966	4.87
616.3	4.87
616.635	4.87
616.97	4.88
617.304	4.88
617.639	4.88
617.973	4.88
618.308	4.88
618.642	4.88
618.977	4.88
619.311	4.88
619.646	4.88
619.98	4.88
620.314	4.89
620.648	4.9
620.983	4.9
621.317	4.9
621.651	4.91
621.985	4.91
622.319	4.91
622.653	4.92
622.987	4.92
623.321	4.92
623.655	4.93
623.988	4.93
624.322	4.93
624.656	4.94
624.99	4.94
625.323	4.94
625.657	4.94
625.99	4.94
626.324	4.95
626.657	4.95
626.991	4.94
627.324	4.94
627.658	4.94
627.991	4.94
628.324	4.94
628.657	4.94
628.991	4.94
629.324	4.95
629.657	4.95
629.99	4.96
630.323	4.96
630.656	4.95
630.989	4.96
631.322	4.96
631.655	4.97
631.987	4.97
632.32	4.97
632.653	4.97
632.986	4.98
633.318	4.98
633.651	4.98
633.984	4.98
634.316	4.99
634.649	4.98
634.981	4.99
635.313	4.99
635.646	4.99
635.978	4.99
636.31	5
636.643	5
636.975	5.01
637.307	5
637.639	5.01
637.971	5.01
638.303	5.01
638.635	5.01
638.967	5.01
639.299	5.01
639.631	5.01
639.963	5.01
640.295	5.02
640.626	5.03
640.958	5.04
641.29	5.05
641.621	5.05
641.953	5.05
642.285	5.06
642.616	5.06
642.948	5.06
643.279	5.06
643.61	5.07
643.942	5.07
644.273	5.08
644.604	5.08
644.936	5.08
645.267	5.08
645.598	5.09
645.929	5.09
646.26	5.09
646.591	5.09
646.922	5.09
647.253	5.09
647.584	5.1
647.915	5.1
648.245	5.11
648.576	5.11
648.907	5.12
649.238	5.12
649.568	5.12
649.899	5.12
650.229	5.11
650.56	5.12
650.89	5.12
651.221	5.12
651.551	5.13
651.882	5.13
652.212	5.13
652.542	5.15
652.872	5.16
653.203	5.17
653.533	5.16
653.863	5.16
654.193	5.17
654.523	5.17
654.853	5.18
655.183	5.18
655.513	5.19
655.843	5.19
656.172	5.19
656.502	5.2
656.832	5.2
657.162	5.2
657.491	5.2
657.821	5.21
658.15	5.21
658.48	5.22
658.809	5.22
659.139	5.23
659.468	5.23
659.798	5.23
660.127	5.24
660.456	5.25
660.785	5.25
661.115	5.25
661.444	5.26
661.773	5.27
662.102	5.26
662.431	5.26
662.76	5.27
663.089	5.27
663.418	5.28
663.747	5.3
664.076	5.31
664.404	5.31
664.733	5.31
665.062	5.33
665.39	5.33
665.719	5.34
666.048	5.34
666.376	5.34
666.705	5.35
667.033	5.36
667.362	5.36
667.69	5.37
668.018	5.36
668.347	5.37
668.675	5.38
669.003	5.39
669.331	5.39
669.659	5.39
669.987	5.4
670.315	5.4
670.643	5.41
670.971	5.42
671.299	5.42
671.627	5.42
671.955	5.42
672.283	5.42
672.61	5.42
672.938	5.43
673.266	5.44
673.593	5.43
673.921	5.43
674.249	5.44
674.576	5.45
674.904	5.45
675.231	5.45
675.558	5.45
675.886	5.46
676.213	5.46
676.54	5.46
676.867	5.47
677.195	5.46
677.522	5.46
677.849	5.46
678.176	5.46
678.503	5.46
678.83	5.46
679.157	5.48
679.484	5.48
679.81	5.49
680.137	5.48
680.464	5.49
680.791	5.5
681.117	5.5
681.444	5.51
681.771	5.52
682.097	5.52
682.424	5.52
682.75	5.53
683.077	5.53
683.403	5.55
683.729	5.56
684.056	5.56
684.382	5.56
684.708	5.57
685.034	5.58
685.36	5.59
685.686	5.6
686.012	5.6
686.339	5.6
686.664	5.6
686.99	5.62
687.316	5.63
687.642	5.64
687.968	5.65
688.294	5.65
688.619	5.65
688.945	5.67
689.271	5.68
689.596	5.68
689.922	5.69
690.247	5.69
690.573	5.69
690.898	5.7
691.224	5.73
691.549	5.73
691.874	5.73
692.2	5.74
692.525	5.74
692.85	5.76
693.175	5.77
693.5	5.79
693.825	5.78
694.15	5.79
694.475	5.79
694.8	5.79
695.125	5.79
695.45	5.79
695.775	5.8
696.099	5.81
696.424	5.81
696.749	5.82
697.073	5.82
697.398	5.82
697.723	5.83
698.047	5.83
698.372	5.84
698.696	5.84
699.02	5.85
699.345	5.86
699.669	5.87
699.993	5.88
700.318	5.89
700.642	5.89
700.966	5.9
701.29	5.9
701.614	5.91
701.938	5.92
702.262	5.93
702.586	5.93
702.91	5.94
703.234	5.95
703.557	5.95
703.881	5.96
704.205	5.96
704.529	5.97
704.852	5.98
705.176	5.99
705.499	6
705.823	6
706.146	6
706.47	6
706.793	6
707.117	6.02
707.44	6.03
707.763	6.05
708.086	6.06
708.409	6.06
708.733	6.06
709.056	6.07
709.379	6.08
709.702	6.09
710.025	6.09
710.348	6.1
710.671	6.09
710.993	6.09
711.316	6.11
711.639	6.11
711.962	6.13
712.284	6.13
712.607	6.14
712.93	6.12
713.252	6.12
713.575	6.13
713.897	6.14
714.22	6.13
714.542	6.14
714.864	6.15
715.187	6.15
715.509	6.16
715.831	6.16
716.153	6.17
716.475	6.19
716.798	6.19
717.12	6.19
717.442	6.2
717.764	6.18
718.085	6.19
718.407	6.2
718.729	6.2
719.051	6.2
719.373	6.21
719.695	6.22
720.016	6.23
720.338	6.22
720.659	6.21
720.981	6.22
721.302	6.23
721.624	6.26
721.945	6.27
722.267	6.26
722.588	6.26
722.909	6.26
723.231	6.26
723.552	6.26
723.873	6.29
724.194	6.31
724.515	6.3
724.836	6.29
725.157	6.28
725.478	6.29
725.799	6.31
726.12	6.32
726.441	6.33
726.762	6.33
727.083	6.33
727.403	6.32
727.724	6.34
728.045	6.35
728.365	6.37
728.686	6.38
729.006	6.38
729.327	6.4
729.647	6.4
729.967	6.41
730.288	6.43
730.608	6.45
730.928	6.47
731.249	6.49
731.569	6.49
731.889	6.49
732.209	6.52
732.529	6.51
732.849	6.52
733.169	6.53
733.489	6.55
733.809	6.56
734.129	6.57
734.448	6.59
734.768	6.6
735.088	6.62
735.408	6.63
735.727	6.65
736.047	6.67
736.366	6.68
736.686	6.68
737.005	6.69
737.325	6.68
737.644	6.69
737.963	6.7
738.283	6.7
738.602	6.7
738.921	6.7
739.24	6.71
739.56	6.72
739.879	6.72
740.198	6.74
740.517	6.76
740.836	6.75
741.155	6.77
741.473	6.76
741.792	6.76
742.111	6.77
742.43	6.76
742.748	6.79
743.067	6.8
743.386	6.83
743.704	6.84
744.023	6.84
744.341	6.83
744.66	6.84
744.978	6.86
745.297	6.87
745.615	6.9
745.933	6.92
746.252	6.93
746.57	6.95
746.888	6.96
747.206	6.96
747.524	6.94
747.842	6.93
748.16	6.94
748.478	6.94
748.796	6.94
749.114	6.95
749.432	6.95
749.749	7
750.067	7.01
750.385	7.05
750.703	7.07
751.02	7.09
751.338	7.1
751.655	7.14
751.973	7.16
752.29	7.18
752.608	7.19
752.925	7.2
753.242	7.22
753.56	7.22
753.877	7.26
754.194	7.26
754.511	7.29
754.828	7.3
755.145	7.3
755.462	7.31
755.779	7.32
756.096	7.33
756.413	7.32
756.73	7.35
757.047	7.37
757.364	7.37
757.68	7.37
757.997	7.38
758.314	7.38
758.63	7.39
758.947	7.4
759.264	7.4
759.58	7.41
759.896	7.44
760.213	7.43
760.529	7.46
760.846	7.47
761.162	7.48
761.478	7.49
761.794	7.5
762.11	7.5
762.426	7.54
762.743	7.54
763.059	7.51
763.375	7.51
763.69	7.54
764.006	7.55
764.322	7.58
764.638	7.59
764.954	7.59
765.27	7.61
765.585	7.61
765.901	7.64
766.216	7.63
766.532	7.64
766.848	7.65
767.163	7.66
767.478	7.64
767.794	7.65
768.109	7.67
768.424	7.67
768.74	7.69
769.055	7.67
769.37	7.67
769.685	7.67
770	7.67
770.315	7.7
770.63	7.74
770.945	7.76
771.26	7.77
771.575	7.77
771.89	7.8
772.205	7.82
772.52	7.82
772.834	7.82
773.149	7.86
773.464	7.86
773.778	7.88
774.093	7.91
774.407	7.92
774.722	7.95
775.036	7.95
775.351	7.95
775.665	7.97
775.979	8.03
776.293	8.01
776.608	8.04
776.922	8.04
777.236	8.01
777.55	8.01
777.864	8.02
778.178	8.02
778.492	8.08
778.806	8.06
779.12	8.07
779.434	8.1
779.747	8.09
780.061	8.11
780.375	8.15
780.689	8.16
781.002	8.18
781.316	8.2
781.629	8.2
781.943	8.24
782.256	8.27
782.57	8.26
782.883	8.28
783.196	8.3
783.51	8.29
783.823	8.28
784.136	8.25
784.449	8.31
784.762	8.31
785.075	8.31
785.388	8.33
785.701	8.32
786.014	8.37
786.327	8.41
786.64	8.41
786.953	8.45
787.266	8.49
787.578	8.49
787.891	8.55
788.204	8.56
788.516	8.57
788.829	8.59
789.141	8.62
789.454	8.59
789.766	8.6
790.079	8.65
790.391	8.62
790.703	8.64
791.016	8.65
791.328	8.66
791.64	8.69
791.952	8.74
792.264	8.7
792.576	8.7
792.888	8.71
793.2	8.71
793.512	8.7
793.824	8.73
794.136	8.73
794.448	8.75
794.76	8.76
795.071	8.73
795.383	8.78
795.695	8.78
796.006	8.78
796.318	8.81
796.629	8.81
796.941	8.88
797.252	8.86
797.564	8.86
797.875	8.85
798.186	8.87
798.497	8.89
798.809	8.86
799.12	8.86
799.431	8.91
799.742	8.84
800.053	8.88
800.364	8.87
800.675	8.84
800.986	8.89
801.297	8.89
801.608	8.92
801.918	8.89
802.229	8.91
802.54	8.92
802.851	8.93
803.161	9
803.472	9.01
803.782	9.02
804.093	9.04
804.403	9.09
804.714	9.1
805.024	9.16
805.334	9.17
805.645	9.23
805.955	9.26
806.265	9.3
806.575	9.32
806.885	9.34
807.195	9.38
807.505	9.43
807.815	9.57
808.125	9.56
808.435	9.58
808.745	9.61
809.055	9.58
809.365	9.72
809.674	9.72
809.984	9.77
810.294	9.81
810.603	9.82
810.913	9.84
811.222	9.84
811.532	9.83
811.841	9.84
812.151	9.85
812.46	9.91
812.769	9.84
813.079	9.89
813.388	9.92
813.697	9.9
814.006	9.94
814.315	9.9
814.624	9.98
814.933	10.03
815.242	10.04
815.551	10
815.86	9.92
816.169	9.89
816.478	9.88
816.786	9.83
817.095	9.77
817.404	9.71
817.712	9.66
818.021	9.66
818.33	9.62
818.638	9.62
818.947	9.6
819.255	9.59
819.563	9.57
819.872	9.56
820.18	9.56
820.488	9.54
820.796	9.54
821.105	9.54
821.413	9.56
821.721	9.58
822.029	9.56
822.337	9.56
822.645	9.53
822.953	9.53
823.26	9.53
823.568	9.55
823.876	9.57
824.184	9.57
824.491	9.57
824.799	9.57
825.107	9.58
825.414	9.6
825.722	9.6
826.029	9.62
826.337	9.61
826.644	9.61
826.951	9.62
827.259	9.62
827.566	9.6
827.873	9.59
828.18	9.61
828.488	9.62
828.795	9.63
829.102	9.63
829.409	9.65
829.716	9.66
830.023	9.71
830.329	9.73
830.636	9.76
830.943	9.81
831.25	9.82
831.557	9.86
831.863	9.9
832.17	9.94
832.476	9.95
832.783	9.95
833.089	9.95
833.396	9.96
833.702	9.99
834.009	10.01
834.315	10.05
834.621	10.07
834.928	10.08
835.234	10.11
835.54	10.12
835.846	10.15
836.152	10.14
836.458	10.16
836.764	10.19
837.07	10.2
837.376	10.23
837.682	10.2
837.988	10.17
838.293	10.23
838.599	10.18
838.905	10.16
839.211	10.16
839.516	10.17
839.822	10.19
840.127	10.26
840.433	10.32
840.738	10.33
841.044	10.4
841.349	10.37
841.654	10.43
841.959	10.48
842.265	10.54
842.57	10.56
842.875	10.61
843.18	10.56
843.485	10.58
843.79	10.65
844.095	10.7
844.4	10.71
844.705	10.78
845.01	10.84
845.315	10.82
845.619	10.83
845.924	10.87
846.229	10.87
846.533	10.9
846.838	10.91
847.142	10.94
847.447	10.98
847.751	11.24
848.056	11.36
848.36	11.45
848.664	11.43
848.969	11.54
849.273	11.66
849.577	11.69
849.881	11.79
850.185	11.85
850.489	11.9
850.794	11.92
851.097	12.07
851.401	12.23
851.705	12.22
852.009	12.41
852.313	12.54
852.617	12.49
852.92	12.5
853.224	12.54
853.528	12.49
853.831	12.64
854.135	12.65
854.438	12.66
854.742	12.67
855.045	12.55
855.349	12.65
855.652	12.83
855.955	12.79
856.259	12.84
856.562	12.82
856.865	12.99
857.168	12.99
857.471	13.12
857.774	13.26
858.077	13.24
858.38	13.48
858.683	13.55
858.986	13.57
859.289	13.48
859.592	13.51
859.894	13.55
860.197	13.25
860.5	13.3
860.802	13.22
861.105	13.4
861.407	13.24
861.71	13.21
862.012	13.29
862.315	13.31
862.617	13.36
862.919	13.61
863.222	13.58
863.524	13.65
863.826	13.63
864.128	13.61
864.43	13.53
864.732	13.43
865.034	13.45
865.336	13.52
865.638	13.52
865.94	13.52
866.242	13.51
866.544	13.69
866.846	13.73
867.147	13.67
867.449	13.78
867.751	13.7
868.052	13.7
868.354	13.76
868.655	13.63
868.957	13.73
869.258	13.52
869.56	13.49
869.861	13.39
870.162	13.55
870.463	13.82
870.765	13.68
871.066	13.83
871.367	13.74
871.668	13.89
871.969	13.97
872.27	13.87
872.571	14.12
872.872	14.05
873.173	14.2
873.473	14.17
873.774	14.24
874.075	14.3
874.376	14.32
874.676	14.29
874.977	14.36
875.277	14.3
875.578	14.31
875.878	14.18
876.179	14.21
876.479	14.37
876.78	14.4
877.08	14.46
877.38	14.49
877.68	14.51
877.981	14.5
878.281	14.68
878.581	14.77
