Data from UWBM86267_Reflection_00011.txt Node
Date: Sun May 02 14:08:31 EDT 2021
User: vgr7
Spectrometer: USB2G7710
Scans to average: 10
Trigger mode: 4
Integration Time (sec): 1.000000E-1
Electric dark correction enabled: true
Boxcar width: 20
XAxis mode: Wavelengths
Number of Pixels in Spectrum: 2048
>>>>>Begin Spectral Data<<<<<
177.721	141.14
178.105	50.5
178.488	153.87
178.871	153.73
179.254	95.05
179.636	83.49
180.019	87.97
180.402	62.07
180.785	45.43
181.168	39.54
181.55	42.33
181.933	44.82
182.316	44.82
182.698	37.95
183.081	34.87
183.463	35.14
183.846	26.75
184.228	24.81
184.611	22.47
184.993	20.56
185.376	25.23
185.758	27.74
186.14	27.87
186.522	28.71
186.904	29.23
187.287	28.98
187.669	34.07
188.051	36.71
188.433	35.67
188.815	33.11
189.197	35.31
189.579	34.25
189.961	31.4
190.342	30.63
190.724	30.41
191.106	27.95
191.488	29
191.869	27.86
192.251	25.53
192.633	25.35
193.014	22.78
193.396	18.19
193.777	20.76
194.159	18.69
194.54	16.75
194.922	14.62
195.303	13.96
195.684	12.49
196.065	13.59
196.447	13.79
196.828	13.57
197.209	11.23
197.59	9.31
197.971	7.25
198.352	9.39
198.733	9.51
199.114	9.97
199.495	12.21
199.876	12.28
200.257	12.5
200.638	12.35
201.018	12.89
201.399	14.32
201.78	14.51
202.16	14.01
202.541	12.01
202.922	10.24
203.302	8.61
203.683	9.25
204.063	9.85
204.444	9.66
204.824	7.7
205.204	7.49
205.585	8.52
205.965	10.79
206.345	10.02
206.725	11.43
207.106	10.92
207.486	11.13
207.866	11.63
208.246	12.18
208.626	12.01
209.006	13.73
209.386	12.2
209.766	10.92
210.145	11.08
210.525	12.96
210.905	14.63
211.285	12.99
211.664	12.86
212.044	13.29
212.424	12.46
212.803	13.46
213.183	14.1
213.562	16.96
213.942	16.33
214.321	16.8
214.701	15.05
215.08	15.1
215.459	14.26
215.838	13.71
216.218	14.27
216.597	12.38
216.976	11.34
217.355	10.87
217.734	11.24
218.113	11.46
218.492	11.73
218.871	12.2
219.25	12.84
219.629	12.13
220.008	13
220.387	12.31
220.766	12.9
221.144	12.67
221.523	10.72
221.902	11.01
222.28	8.96
222.659	8.2
223.037	7.71
223.416	8.29
223.794	7.67
224.173	7.84
224.551	6.91
224.929	8.11
225.308	8.68
225.686	9.43
226.064	9.09
226.442	8.25
226.821	9.16
227.199	9.43
227.577	9.09
227.955	9.37
228.333	9.33
228.711	8.31
229.089	7.35
229.467	7.06
229.845	6.53
230.222	6.79
230.6	6.4
230.978	6.66
231.356	6.87
231.733	6.64
232.111	6.51
232.488	6.26
232.866	5.9
233.243	5.59
233.621	5.63
233.998	5.64
234.376	5.5
234.753	5.06
235.13	4.87
235.508	4.81
235.885	4.82
236.262	4.64
236.639	4.6
237.016	4.64
237.393	4.61
237.77	4.77
238.147	4.72
238.524	4.71
238.901	4.56
239.278	4.59
239.655	4.56
240.032	4.53
240.409	4.46
240.785	4.41
241.162	4.33
241.539	4.28
241.915	4.36
242.292	4.32
242.668	4.27
243.045	4.24
243.421	4.19
243.798	4.17
244.174	4.2
244.551	4.22
244.927	4.23
245.303	4.24
245.679	4.23
246.056	4.21
246.432	4.16
246.808	4.12
247.184	4.13
247.56	4.13
247.936	4.13
248.312	4.15
248.688	4.15
249.064	4.12
249.44	4.11
249.815	4.06
250.191	4.05
250.567	4.09
250.943	4.07
251.318	4.05
251.694	4.05
252.069	4.03
252.445	4.02
252.82	4.01
253.196	3.97
253.571	3.96
253.947	3.93
254.322	3.91
254.697	3.9
255.073	3.87
255.448	3.89
255.823	3.85
256.198	3.86
256.573	3.84
256.948	3.84
257.323	3.78
257.698	3.74
258.073	3.72
258.448	3.72
258.823	3.71
259.198	3.71
259.573	3.7
259.948	3.7
260.322	3.67
260.697	3.65
261.072	3.62
261.446	3.62
261.821	3.63
262.195	3.63
262.57	3.61
262.944	3.61
263.319	3.61
263.693	3.6
264.067	3.6
264.442	3.58
264.816	3.57
265.19	3.59
265.564	3.59
265.938	3.56
266.313	3.57
266.687	3.55
267.061	3.55
267.435	3.54
267.809	3.54
268.183	3.54
268.556	3.52
268.93	3.54
269.304	3.53
269.678	3.53
270.051	3.53
270.425	3.52
270.799	3.5
271.172	3.52
271.546	3.51
271.919	3.51
272.293	3.52
272.666	3.52
273.04	3.53
273.413	3.55
273.787	3.57
274.16	3.57
274.533	3.57
274.906	3.58
275.279	3.57
275.653	3.58
276.026	3.61
276.399	3.63
276.772	3.64
277.145	3.63
277.518	3.65
277.891	3.66
278.263	3.64
278.636	3.65
279.009	3.64
279.382	3.62
279.755	3.64
280.127	3.66
280.5	3.66
280.872	3.67
281.245	3.68
281.617	3.67
281.99	3.69
282.362	3.7
282.735	3.71
283.107	3.71
283.479	3.7
283.852	3.73
284.224	3.72
284.596	3.73
284.968	3.74
285.34	3.75
285.713	3.77
286.085	3.79
286.457	3.79
286.829	3.8
287.201	3.83
287.572	3.83
287.944	3.85
288.316	3.86
288.688	3.87
289.06	3.89
289.431	3.91
289.803	3.94
290.175	3.95
290.546	3.98
290.918	4.01
291.289	4.03
291.661	4.05
292.032	4.06
292.403	4.07
292.775	4.09
293.146	4.12
293.517	4.17
293.889	4.2
294.26	4.24
294.631	4.28
295.002	4.33
295.373	4.36
295.744	4.39
296.115	4.41
296.486	4.46
296.857	4.52
297.228	4.55
297.599	4.59
297.97	4.62
298.34	4.66
298.711	4.71
299.082	4.73
299.452	4.78
299.823	4.84
300.194	4.88
300.564	4.92
300.935	4.96
301.305	5.01
301.676	5.06
302.046	5.11
302.416	5.15
302.787	5.19
303.157	5.25
303.527	5.31
303.897	5.36
304.267	5.42
304.637	5.48
305.008	5.54
305.378	5.6
305.748	5.66
306.117	5.72
306.487	5.77
306.857	5.85
307.227	5.93
307.597	6.01
307.967	6.06
308.336	6.11
308.706	6.15
309.076	6.19
309.445	6.26
309.815	6.3
310.184	6.34
310.554	6.38
310.923	6.44
311.293	6.5
311.662	6.55
312.031	6.59
312.401	6.64
312.77	6.68
313.139	6.75
313.508	6.8
313.877	6.85
314.246	6.91
314.616	6.96
314.985	7.02
315.353	7.07
315.722	7.12
316.091	7.17
316.46	7.22
316.829	7.28
317.198	7.33
317.567	7.4
317.935	7.48
318.304	7.54
318.672	7.61
319.041	7.69
319.41	7.74
319.778	7.79
320.147	7.84
320.515	7.91
320.883	7.96
321.252	8
321.62	8.06
321.988	8.1
322.357	8.13
322.725	8.18
323.093	8.23
323.461	8.29
323.829	8.34
324.197	8.39
324.565	8.43
324.933	8.49
325.301	8.52
325.669	8.58
326.037	8.61
326.405	8.66
326.772	8.69
327.14	8.72
327.508	8.76
327.875	8.78
328.243	8.81
328.61	8.82
328.978	8.84
329.346	8.87
329.713	8.92
330.08	8.95
330.448	8.95
330.815	8.96
331.182	8.98
331.55	9
331.917	9.02
332.284	9.03
332.651	9.06
333.018	9.06
333.385	9.09
333.752	9.11
334.119	9.13
334.486	9.16
334.853	9.19
335.22	9.23
335.587	9.25
335.954	9.28
336.32	9.3
336.687	9.32
337.054	9.35
337.42	9.38
337.787	9.39
338.153	9.41
338.52	9.41
338.886	9.41
339.253	9.43
339.619	9.44
339.986	9.45
340.352	9.49
340.718	9.49
341.084	9.5
341.451	9.51
341.817	9.52
342.183	9.54
342.549	9.54
342.915	9.55
343.281	9.56
343.647	9.57
344.013	9.58
344.379	9.57
344.745	9.55
345.11	9.56
345.476	9.58
345.842	9.59
346.208	9.6
346.573	9.6
346.939	9.6
347.304	9.61
347.67	9.61
348.035	9.61
348.401	9.6
348.766	9.59
349.132	9.6
349.497	9.59
349.862	9.59
350.228	9.57
350.593	9.56
350.958	9.55
351.323	9.54
351.688	9.52
352.053	9.51
352.418	9.49
352.783	9.47
353.148	9.44
353.513	9.43
353.878	9.4
354.243	9.37
354.608	9.34
354.972	9.31
355.337	9.27
355.702	9.25
356.066	9.22
356.431	9.18
356.795	9.15
357.16	9.12
357.524	9.1
357.889	9.07
358.253	9.03
358.618	9
358.982	8.97
359.346	8.94
359.71	8.91
360.075	8.88
360.439	8.84
360.803	8.81
361.167	8.77
361.531	8.74
361.895	8.69
362.259	8.65
362.623	8.6
362.987	8.56
363.351	8.52
363.714	8.48
364.078	8.43
364.442	8.38
364.806	8.33
365.169	8.28
365.533	8.24
365.896	8.19
366.26	8.14
366.623	8.09
366.987	8.03
367.35	7.98
367.714	7.93
368.077	7.87
368.44	7.81
368.803	7.76
369.167	7.7
369.53	7.63
369.893	7.56
370.256	7.5
370.619	7.42
370.982	7.36
371.345	7.29
371.708	7.22
372.071	7.16
372.434	7.09
372.797	7.02
373.159	6.96
373.522	6.9
373.885	6.85
374.247	6.79
374.61	6.72
374.973	6.66
375.335	6.6
375.698	6.54
376.06	6.47
376.423	6.42
376.785	6.36
377.147	6.3
377.51	6.25
377.872	6.2
378.234	6.14
378.596	6.08
378.958	6.02
379.321	5.97
379.683	5.92
380.045	5.86
380.407	5.81
380.769	5.76
381.13	5.7
381.492	5.66
381.854	5.61
382.216	5.57
382.578	5.52
382.939	5.48
383.301	5.44
383.663	5.39
384.024	5.35
384.386	5.31
384.747	5.27
385.109	5.23
385.47	5.19
385.832	5.15
386.193	5.11
386.554	5.07
386.916	5.03
387.277	4.99
387.638	4.96
387.999	4.93
388.36	4.9
388.721	4.87
389.082	4.84
389.443	4.81
389.804	4.78
390.165	4.75
390.526	4.73
390.887	4.7
391.248	4.67
391.609	4.65
391.969	4.62
392.33	4.6
392.691	4.56
393.051	4.54
393.412	4.52
393.772	4.49
394.133	4.46
394.493	4.43
394.854	4.41
395.214	4.38
395.574	4.36
395.935	4.33
396.295	4.31
396.655	4.28
397.015	4.26
397.376	4.23
397.736	4.21
398.096	4.18
398.456	4.16
398.816	4.14
399.176	4.11
399.535	4.09
399.895	4.07
400.255	4.05
400.615	4.03
400.975	4.01
401.334	3.99
401.694	3.98
402.054	3.96
402.413	3.94
402.773	3.92
403.132	3.91
403.492	3.89
403.851	3.87
404.211	3.87
404.57	3.86
404.929	3.84
405.288	3.83
405.648	3.81
406.007	3.81
406.366	3.79
406.725	3.78
407.084	3.77
407.443	3.76
407.802	3.75
408.161	3.74
408.52	3.73
408.879	3.72
409.238	3.71
409.596	3.71
409.955	3.7
410.314	3.69
410.673	3.68
411.031	3.67
411.39	3.67
411.748	3.66
412.107	3.66
412.465	3.66
412.824	3.67
413.182	3.68
413.54	3.69
413.899	3.71
414.257	3.73
414.615	3.76
414.974	3.78
415.332	3.8
415.69	3.82
416.048	3.84
416.406	3.87
416.764	3.89
417.122	3.91
417.48	3.93
417.838	3.95
418.195	3.96
418.553	3.97
418.911	3.97
419.269	3.97
419.626	3.97
419.984	3.96
420.342	3.94
420.699	3.92
421.057	3.9
421.414	3.88
421.772	3.86
422.129	3.85
422.486	3.84
422.844	3.84
423.201	3.83
423.558	3.83
423.915	3.82
424.273	3.82
424.63	3.81
424.987	3.81
425.344	3.8
425.701	3.8
426.058	3.79
426.415	3.79
426.772	3.78
427.128	3.77
427.485	3.76
427.842	3.74
428.199	3.72
428.555	3.7
428.912	3.68
429.269	3.65
429.625	3.63
429.982	3.6
430.338	3.57
430.695	3.55
431.051	3.52
431.407	3.5
431.764	3.49
432.12	3.46
432.476	3.45
432.832	3.44
433.189	3.44
433.545	3.45
433.901	3.46
434.257	3.47
434.613	3.49
434.969	3.51
435.325	3.54
435.681	3.57
436.036	3.58
436.392	3.6
436.748	3.61
437.104	3.62
437.459	3.64
437.815	3.65
438.171	3.67
438.526	3.69
438.882	3.71
439.237	3.74
439.593	3.78
439.948	3.8
440.304	3.83
440.659	3.85
441.014	3.87
441.369	3.89
441.725	3.9
442.08	3.92
442.435	3.93
442.79	3.93
443.145	3.93
443.5	3.93
443.855	3.93
444.21	3.93
444.565	3.93
444.92	3.92
445.275	3.91
445.629	3.9
445.984	3.89
446.339	3.88
446.693	3.87
447.048	3.85
447.403	3.83
447.757	3.81
448.112	3.79
448.466	3.77
448.82	3.75
449.175	3.73
449.529	3.71
449.883	3.69
450.238	3.66
450.592	3.66
450.946	3.65
451.3	3.64
451.654	3.65
452.008	3.65
452.362	3.65
452.716	3.65
453.07	3.65
453.424	3.64
453.778	3.63
454.132	3.62
454.486	3.61
454.839	3.59
455.193	3.57
455.547	3.56
455.9	3.54
456.254	3.53
456.607	3.5
456.961	3.48
457.314	3.46
457.668	3.45
458.021	3.45
458.375	3.44
458.728	3.44
459.081	3.44
459.434	3.45
459.787	3.46
460.141	3.47
460.494	3.47
460.847	3.48
461.2	3.49
461.553	3.5
461.906	3.5
462.259	3.51
462.611	3.51
462.964	3.52
463.317	3.52
463.67	3.53
464.022	3.54
464.375	3.55
464.728	3.55
465.08	3.55
465.433	3.56
465.785	3.56
466.138	3.55
466.49	3.54
466.843	3.52
467.195	3.51
467.547	3.5
467.899	3.48
468.252	3.46
468.604	3.44
468.956	3.43
469.308	3.42
469.66	3.42
470.012	3.42
470.364	3.42
470.716	3.43
471.068	3.45
471.42	3.46
471.772	3.49
472.123	3.5
472.475	3.51
472.827	3.52
473.178	3.53
473.53	3.54
473.882	3.55
474.233	3.57
474.585	3.6
474.936	3.66
475.288	3.73
475.639	3.83
475.99	3.94
476.342	4.06
476.693	4.2
477.044	4.33
477.395	4.48
477.746	4.62
478.097	4.76
478.448	4.91
478.8	5.05
479.15	5.18
479.501	5.3
479.852	5.42
480.203	5.53
480.554	5.63
480.905	5.72
481.255	5.81
481.606	5.91
481.957	5.99
482.307	6.07
482.658	6.14
483.009	6.21
483.359	6.28
483.709	6.35
484.06	6.41
484.41	6.48
484.761	6.54
485.111	6.6
485.461	6.65
485.811	6.71
486.162	6.76
486.512	6.8
486.862	6.83
487.212	6.85
487.562	6.87
487.912	6.88
488.262	6.89
488.612	6.88
488.961	6.87
489.311	6.83
489.661	6.77
490.011	6.7
490.36	6.61
490.71	6.51
491.06	6.4
491.409	6.29
491.759	6.17
492.108	6.04
492.458	5.91
492.807	5.78
493.157	5.65
493.506	5.53
493.855	5.41
494.204	5.3
494.554	5.19
494.903	5.09
495.252	5
495.601	4.91
495.95	4.83
496.299	4.75
496.648	4.68
496.997	4.62
497.346	4.56
497.695	4.5
498.043	4.44
498.392	4.39
498.741	4.34
499.09	4.3
499.438	4.26
499.787	4.22
500.135	4.19
500.484	4.16
500.832	4.15
501.181	4.15
501.529	4.16
501.878	4.18
502.226	4.21
502.574	4.24
502.923	4.28
503.271	4.32
503.619	4.36
503.967	4.41
504.315	4.45
504.663	4.5
505.011	4.54
505.359	4.59
505.707	4.64
506.055	4.7
506.403	4.75
506.751	4.82
507.098	4.88
507.446	4.95
507.794	5.02
508.141	5.09
508.489	5.17
508.837	5.26
509.184	5.34
509.531	5.43
509.879	5.52
510.226	5.62
510.574	5.72
510.921	5.83
511.268	5.95
511.616	6.06
511.963	6.18
512.31	6.31
512.657	6.43
513.004	6.55
513.351	6.67
513.698	6.79
514.045	6.89
514.392	7
514.739	7.09
515.086	7.18
515.432	7.27
515.779	7.36
516.126	7.46
516.473	7.56
516.819	7.68
517.166	7.8
517.512	7.94
517.859	8.08
518.205	8.23
518.552	8.41
518.898	8.59
519.245	8.8
519.591	9.06
519.937	9.36
520.283	9.7
520.629	10.08
520.976	10.47
521.322	10.88
521.668	11.31
522.014	11.74
522.36	12.17
522.706	12.59
523.052	13
523.398	13.39
523.743	13.75
524.089	14.08
524.435	14.38
524.781	14.68
525.126	14.98
525.472	15.27
525.817	15.55
526.163	15.82
526.509	16.09
526.854	16.36
527.199	16.63
527.545	16.9
527.89	17.17
528.235	17.45
528.581	17.71
528.926	17.96
529.271	18.19
529.616	18.42
529.961	18.64
530.306	18.85
530.651	19.04
530.996	19.22
531.341	19.39
531.686	19.54
532.031	19.68
532.376	19.84
532.721	20.02
533.065	20.21
533.41	20.42
533.755	20.6
534.099	20.76
534.444	20.91
534.788	21.03
535.133	21.15
535.477	21.25
535.822	21.34
536.166	21.41
536.51	21.43
536.855	21.43
537.199	21.4
537.543	21.38
537.887	21.38
538.231	21.4
538.576	21.43
538.92	21.45
539.264	21.46
539.608	21.45
539.951	21.44
540.295	21.43
540.639	21.42
540.983	21.38
541.327	21.34
541.671	21.29
542.014	21.25
542.358	21.23
542.701	21.25
543.045	21.31
543.389	21.4
543.732	21.5
544.075	21.62
544.419	21.74
544.762	21.87
545.105	22.02
545.449	22.17
545.792	22.34
546.135	22.5
546.478	22.64
546.821	22.75
547.165	22.83
547.508	22.87
547.851	22.89
548.194	22.88
548.536	22.84
548.879	22.79
549.222	22.72
549.565	22.65
549.908	22.59
550.25	22.55
550.593	22.55
550.936	22.59
551.278	22.67
551.621	22.79
551.963	22.9
552.306	23.04
552.648	23.21
552.991	23.39
553.333	23.6
553.675	23.83
554.017	24.08
554.36	24.35
554.702	24.64
555.044	24.97
555.386	25.32
555.728	25.72
556.07	26.07
556.412	26.44
556.754	26.74
557.096	27.02
557.438	27.3
557.78	27.58
558.121	27.86
558.463	28.16
558.805	28.45
559.147	28.74
559.488	29.04
559.83	29.34
560.171	29.65
560.513	29.94
560.854	30.24
561.196	30.53
561.537	30.83
561.878	31.11
562.22	31.39
562.561	31.67
562.902	31.94
563.243	32.22
563.584	32.51
563.925	32.79
564.266	33.07
564.607	33.35
564.948	33.63
565.289	33.9
565.63	34.18
565.971	34.46
566.312	34.73
566.653	35.01
566.993	35.28
567.334	35.54
567.675	35.8
568.015	36.06
568.356	36.31
568.696	36.56
569.037	36.8
569.377	37.03
569.718	37.26
570.058	37.49
570.398	37.71
570.739	37.94
571.079	38.15
571.419	38.35
571.759	38.56
572.099	38.77
572.439	38.97
572.779	39.17
573.119	39.38
573.459	39.57
573.799	39.77
574.139	39.96
574.479	40.15
574.819	40.36
575.158	40.55
575.498	40.74
575.838	40.94
576.177	41.13
576.517	41.32
576.856	41.51
577.196	41.69
577.535	41.87
577.875	42.05
578.214	42.24
578.553	42.42
578.893	42.61
579.232	42.79
579.571	42.98
579.91	43.17
580.25	43.35
580.589	43.54
580.928	43.73
581.267	43.92
581.606	44.11
581.945	44.3
582.283	44.5
582.622	44.7
582.961	44.89
583.3	45.09
583.639	45.29
583.977	45.48
584.316	45.67
584.654	45.86
584.993	46.05
585.332	46.24
585.67	46.41
586.008	46.59
586.347	46.77
586.685	46.95
587.024	47.11
587.362	47.29
587.7	47.47
588.038	47.64
588.376	47.83
588.715	48.01
589.053	48.19
589.391	48.37
589.729	48.55
590.067	48.72
590.404	48.9
590.742	49.08
591.08	49.25
591.418	49.41
591.756	49.56
592.093	49.71
592.431	49.85
592.769	49.99
593.106	50.12
593.444	50.25
593.781	50.37
594.119	50.5
594.456	50.61
594.793	50.73
595.131	50.85
595.468	50.97
595.805	51.09
596.143	51.21
596.48	51.34
596.817	51.47
597.154	51.6
597.491	51.72
597.828	51.85
598.165	51.99
598.502	52.11
598.839	52.23
599.176	52.34
599.512	52.45
599.849	52.57
600.186	52.65
600.523	52.75
600.859	52.86
601.196	52.95
601.532	53.05
601.869	53.14
602.205	53.23
602.542	53.32
602.878	53.4
603.215	53.49
603.551	53.58
603.887	53.65
604.223	53.72
604.56	53.8
604.896	53.86
605.232	53.94
605.568	54.01
605.904	54.09
606.24	54.15
606.576	54.21
606.912	54.27
607.248	54.33
607.583	54.39
607.919	54.44
608.255	54.5
608.591	54.55
608.926	54.6
609.262	54.66
609.597	54.71
609.933	54.77
610.268	54.81
610.604	54.87
610.939	54.9
611.275	54.95
611.61	54.99
611.945	55.03
612.281	55.07
612.616	55.11
612.951	55.16
613.286	55.22
613.621	55.25
613.956	55.31
614.291	55.35
614.626	55.38
614.961	55.43
615.296	55.47
615.631	55.52
615.966	55.56
616.3	55.6
616.635	55.63
616.97	55.66
617.304	55.7
617.639	55.74
617.973	55.79
618.308	55.82
618.642	55.87
618.977	55.92
619.311	55.97
619.646	56.02
619.98	56.07
620.314	56.1
620.648	56.17
620.983	56.22
621.317	56.26
621.651	56.3
621.985	56.36
622.319	56.41
622.653	56.45
622.987	56.49
623.321	56.54
623.655	56.58
623.988	56.62
624.322	56.65
624.656	56.7
624.99	56.74
625.323	56.79
625.657	56.82
625.99	56.85
626.324	56.88
626.657	56.92
626.991	56.93
627.324	56.97
627.658	57
627.991	57.04
628.324	57.07
628.657	57.11
628.991	57.13
629.324	57.15
629.657	57.18
629.99	57.21
630.323	57.25
630.656	57.29
630.989	57.31
631.322	57.35
631.655	57.4
631.987	57.42
632.32	57.46
632.653	57.46
632.986	57.49
633.318	57.51
633.651	57.54
633.984	57.58
634.316	57.59
634.649	57.62
634.981	57.65
635.313	57.69
635.646	57.71
635.978	57.72
636.31	57.75
636.643	57.78
636.975	57.8
637.307	57.82
637.639	57.85
637.971	57.88
638.303	57.89
638.635	57.92
638.967	57.92
639.299	57.94
639.631	57.96
639.963	57.98
640.295	58.01
640.626	58.04
640.958	58.06
641.29	58.09
641.621	58.11
641.953	58.13
642.285	58.16
642.616	58.18
642.948	58.22
643.279	58.24
643.61	58.27
643.942	58.31
644.273	58.32
644.604	58.35
644.936	58.36
645.267	58.37
645.598	58.39
645.929	58.41
646.26	58.43
646.591	58.47
646.922	58.49
647.253	58.51
647.584	58.52
647.915	58.55
648.245	58.57
648.576	58.59
648.907	58.61
649.238	58.63
649.568	58.65
649.899	58.67
650.229	58.69
650.56	58.71
650.89	58.74
651.221	58.75
651.551	58.77
651.882	58.81
652.212	58.82
652.542	58.88
652.872	58.91
653.203	58.94
653.533	58.98
653.863	58.98
654.193	58.99
654.523	59
654.853	59.02
655.183	59.03
655.513	59.07
655.843	59.08
656.172	59.11
656.502	59.11
656.832	59.12
657.162	59.13
657.491	59.14
657.821	59.16
658.15	59.2
658.48	59.2
658.809	59.22
659.139	59.23
659.468	59.24
659.798	59.28
660.127	59.29
660.456	59.31
660.785	59.33
661.115	59.36
661.444	59.37
661.773	59.37
662.102	59.39
662.431	59.4
662.76	59.42
663.089	59.44
663.418	59.46
663.747	59.47
664.076	59.49
664.404	59.49
664.733	59.51
665.062	59.52
665.39	59.52
665.719	59.52
666.048	59.52
666.376	59.53
666.705	59.55
667.033	59.54
667.362	59.57
667.69	59.59
668.018	59.6
668.347	59.62
668.675	59.65
669.003	59.65
669.331	59.65
669.659	59.66
669.987	59.69
670.315	59.7
670.643	59.72
670.971	59.74
671.299	59.74
671.627	59.73
671.955	59.77
672.283	59.77
672.61	59.79
672.938	59.79
673.266	59.78
673.593	59.79
673.921	59.81
674.249	59.83
674.576	59.84
674.904	59.84
675.231	59.85
675.558	59.85
675.886	59.87
676.213	59.89
676.54	59.9
676.867	59.92
677.195	59.93
677.522	59.93
677.849	59.94
678.176	59.95
678.503	59.97
678.83	59.99
679.157	60.01
679.484	60.02
679.81	60.03
680.137	60.03
680.464	60.06
680.791	60.08
681.117	60.1
681.444	60.12
681.771	60.12
682.097	60.12
682.424	60.12
682.75	60.15
683.077	60.16
683.403	60.15
683.729	60.17
684.056	60.17
684.382	60.19
684.708	60.19
685.034	60.19
685.36	60.19
685.686	60.21
686.012	60.22
686.339	60.24
686.664	60.25
686.99	60.26
687.316	60.27
687.642	60.26
687.968	60.28
688.294	60.28
688.619	60.33
688.945	60.35
689.271	60.36
689.596	60.37
689.922	60.37
690.247	60.39
690.573	60.42
690.898	60.43
691.224	60.46
691.549	60.47
691.874	60.48
692.2	60.47
692.525	60.5
692.85	60.5
693.175	60.53
693.5	60.54
693.825	60.54
694.15	60.53
694.475	60.54
694.8	60.55
695.125	60.54
695.45	60.56
695.775	60.56
696.099	60.57
696.424	60.57
696.749	60.57
697.073	60.59
697.398	60.61
697.723	60.62
698.047	60.65
698.372	60.68
698.696	60.71
699.02	60.72
699.345	60.72
699.669	60.74
699.993	60.75
700.318	60.74
700.642	60.74
700.966	60.76
701.29	60.77
701.614	60.79
701.938	60.77
702.262	60.79
702.586	60.8
702.91	60.82
703.234	60.81
703.557	60.81
703.881	60.81
704.205	60.83
704.529	60.84
704.852	60.86
705.176	60.88
705.499	60.89
705.823	60.87
706.146	60.88
706.47	60.87
706.793	60.9
707.117	60.91
707.44	60.93
707.763	60.94
708.086	60.99
708.409	61
708.733	61.01
709.056	61.04
709.379	61.02
709.702	61.02
710.025	61.06
710.348	61.07
710.671	61.05
710.993	61.06
711.316	61.07
711.639	61.06
711.962	61.07
712.284	61.08
712.607	61.07
712.93	61.07
713.252	61.09
713.575	61.12
713.897	61.14
714.22	61.15
714.542	61.15
714.864	61.16
715.187	61.19
715.509	61.18
715.831	61.19
716.153	61.18
716.475	61.2
716.798	61.21
717.12	61.23
717.442	61.23
717.764	61.25
718.085	61.23
718.407	61.23
718.729	61.25
719.051	61.27
719.373	61.3
719.695	61.32
720.016	61.32
720.338	61.38
720.659	61.4
720.981	61.43
721.302	61.4
721.624	61.43
721.945	61.45
722.267	61.45
722.588	61.49
722.909	61.52
723.231	61.56
723.552	61.57
723.873	61.61
724.194	61.62
724.515	61.62
724.836	61.64
725.157	61.64
725.478	61.64
725.799	61.67
726.12	61.68
726.441	61.67
726.762	61.64
727.083	61.66
727.403	61.66
727.724	61.66
728.045	61.67
728.365	61.67
728.686	61.7
729.006	61.73
729.327	61.74
729.647	61.77
729.967	61.79
730.288	61.79
730.608	61.78
730.928	61.78
731.249	61.79
731.569	61.81
731.889	61.81
732.209	61.82
732.529	61.79
732.849	61.79
733.169	61.79
733.489	61.77
733.809	61.78
734.129	61.76
734.448	61.78
734.768	61.8
735.088	61.79
735.408	61.78
735.727	61.75
736.047	61.74
736.366	61.72
736.686	61.7
737.005	61.68
737.325	61.68
737.644	61.69
737.963	61.68
738.283	61.67
738.602	61.68
738.921	61.69
739.24	61.71
739.56	61.7
739.879	61.72
740.198	61.7
740.517	61.7
740.836	61.7
741.155	61.7
741.473	61.67
741.792	61.64
742.111	61.57
742.43	61.59
742.748	61.55
743.067	61.53
743.386	61.56
743.704	61.54
744.023	61.53
744.341	61.55
744.66	61.54
744.978	61.54
745.297	61.56
745.615	61.58
745.933	61.57
746.252	61.53
746.57	61.53
746.888	61.54
747.206	61.55
747.524	61.54
747.842	61.51
748.16	61.5
748.478	61.52
748.796	61.57
749.114	61.58
749.432	61.6
749.749	61.62
750.067	61.65
750.385	61.67
750.703	61.66
751.02	61.68
751.338	61.71
751.655	61.69
751.973	61.7
752.29	61.68
752.608	61.7
752.925	61.76
753.242	61.76
753.56	61.76
753.877	61.82
754.194	61.85
754.511	61.87
754.828	61.87
755.145	61.91
755.462	61.91
755.779	61.97
756.096	62
756.413	61.96
756.73	61.99
757.047	61.99
757.364	61.97
757.68	62
757.997	62.02
758.314	62.06
758.63	62.09
758.947	62.12
759.264	62.16
759.58	62.16
759.896	62.13
760.213	62.14
760.529	62.17
760.846	62.22
761.162	62.22
761.478	62.22
761.794	62.2
762.11	62.24
762.426	62.23
762.743	62.24
763.059	62.22
763.375	62.22
763.69	62.25
764.006	62.25
764.322	62.23
764.638	62.27
764.954	62.24
765.27	62.23
765.585	62.23
765.901	62.22
766.216	62.23
766.532	62.21
766.848	62.2
767.163	62.19
767.478	62.18
767.794	62.21
768.109	62.22
768.424	62.18
768.74	62.16
769.055	62.14
769.37	62.15
769.685	62.12
770	62.13
770.315	62.13
770.63	62.11
770.945	62.1
771.26	62.06
771.575	62.02
771.89	62
772.205	62.01
772.52	62.02
772.834	62.06
773.149	62.06
773.464	62.03
773.778	62
774.093	61.99
774.407	62
774.722	62.03
775.036	62
775.351	61.98
775.665	61.99
775.979	62.02
776.293	62
776.608	61.97
776.922	61.98
777.236	61.94
777.55	61.93
777.864	61.94
778.178	61.94
778.492	61.93
778.806	61.93
779.12	61.94
779.434	62.03
779.747	61.98
780.061	62.03
780.375	62.04
780.689	62
781.002	61.99
781.316	62.05
781.629	62.09
781.943	62.11
782.256	62.14
782.57	62.19
782.883	62.22
783.196	62.24
783.51	62.25
783.823	62.26
784.136	62.23
784.449	62.28
784.762	62.21
785.075	62.16
785.388	62.13
785.701	62.11
786.014	62.14
786.327	62.14
786.64	62.1
786.953	62.15
787.266	62.14
787.578	62.08
787.891	62.09
788.204	62.1
788.516	62.1
788.829	62.12
789.141	62.12
789.454	62.13
789.766	62.13
790.079	62.23
790.391	62.26
790.703	62.3
791.016	62.36
791.328	62.38
791.64	62.42
791.952	62.37
792.264	62.31
792.576	62.29
792.888	62.25
793.2	62.27
793.512	62.34
793.824	62.37
794.136	62.36
794.448	62.34
794.76	62.36
795.071	62.35
795.383	62.33
795.695	62.28
796.006	62.27
796.318	62.26
796.629	62.21
796.941	62.23
797.252	62.18
797.564	62.23
797.875	62.29
798.186	62.28
798.497	62.24
798.809	62.25
799.12	62.25
799.431	62.27
799.742	62.28
800.053	62.31
800.364	62.36
800.675	62.33
800.986	62.29
801.297	62.26
801.608	62.22
801.918	62.26
802.229	62.25
802.54	62.28
802.851	62.23
803.161	62.19
803.472	62.14
803.782	62.14
804.093	62.14
804.403	62.08
804.714	62.1
805.024	62.09
805.334	62.09
805.645	62.11
805.955	62.09
806.265	62.03
806.575	62.05
806.885	62.05
807.195	62.06
807.505	62.04
807.815	62.11
808.125	62.13
808.435	62.18
808.745	62.18
809.055	62.23
809.365	62.3
809.674	62.32
809.984	62.33
810.294	62.33
810.603	62.32
810.913	62.36
811.222	62.42
811.532	62.41
811.841	62.48
812.151	62.53
812.46	62.45
812.769	62.43
813.079	62.52
813.388	62.55
813.697	62.64
814.006	62.72
814.315	62.78
814.624	62.75
814.933	62.73
815.242	62.72
815.551	62.67
815.86	62.67
816.169	62.7
816.478	62.69
816.786	62.61
817.095	62.61
817.404	62.57
817.712	62.54
818.021	62.51
818.33	62.42
818.638	62.42
818.947	62.41
819.255	62.36
819.563	62.33
819.872	62.35
820.18	62.34
820.488	62.33
820.796	62.35
821.105	62.37
821.413	62.4
821.721	62.4
822.029	62.41
822.337	62.41
822.645	62.44
822.953	62.42
823.26	62.41
823.568	62.42
823.876	62.42
824.184	62.43
824.491	62.43
824.799	62.42
825.107	62.44
825.414	62.43
825.722	62.42
826.029	62.44
826.337	62.43
826.644	62.42
826.951	62.38
827.259	62.4
827.566	62.4
827.873	62.38
828.18	62.4
828.488	62.41
828.795	62.42
829.102	62.41
829.409	62.44
829.716	62.44
830.023	62.46
830.329	62.47
830.636	62.48
830.943	62.54
831.25	62.56
831.557	62.59
831.863	62.6
832.17	62.62
832.476	62.58
832.783	62.58
833.089	62.58
833.396	62.56
833.702	62.49
834.009	62.49
834.315	62.45
834.621	62.41
834.928	62.43
835.234	62.37
835.54	62.37
835.846	62.35
836.152	62.33
836.458	62.27
836.764	62.29
837.07	62.22
837.376	62.18
837.682	62.13
837.988	62.21
838.293	62.18
838.599	62.13
838.905	62.14
839.211	62.13
839.516	62.16
839.822	62.16
840.127	62.17
840.433	62.19
840.738	62.19
841.044	62.23
841.349	62.13
841.654	62.15
841.959	62.08
842.265	62.07
842.57	62.08
842.875	62.07
843.18	62.08
843.485	62.11
843.79	62.04
844.095	61.98
844.4	62.07
844.705	62.2
845.01	62.27
845.315	62.26
845.619	62.2
845.924	62.19
846.229	62.3
846.533	62.24
846.838	62.4
847.142	62.36
847.447	62.22
847.751	62.28
848.056	62.34
848.36	62.42
848.664	62.41
848.969	62.67
849.273	62.4
849.577	62.4
849.881	62.46
850.185	62.55
850.489	62.34
850.794	62.35
851.097	62.41
851.401	62.37
851.705	62.39
852.009	62.55
852.313	62.57
852.617	62.62
852.92	62.71
853.224	62.74
853.528	62.58
853.831	62.76
854.135	62.81
854.438	62.97
854.742	62.88
855.045	62.87
855.349	63.06
855.652	63.15
855.955	63.05
856.259	63.24
856.562	63.25
856.865	63.15
857.168	63.05
857.471	63
857.774	63.01
858.077	62.9
858.38	62.86
858.683	62.73
858.986	62.69
859.289	62.56
859.592	62.63
859.894	62.68
860.197	62.64
860.5	62.72
860.802	62.64
861.105	62.73
861.407	62.61
861.71	62.69
862.012	62.61
862.315	62.59
862.617	62.59
862.919	62.7
863.222	62.67
863.524	62.64
863.826	62.68
864.128	62.72
864.43	62.65
864.732	62.54
865.034	62.54
865.336	62.38
865.638	62.32
865.94	62.3
866.242	62.3
866.544	62.34
866.846	62.35
867.147	62.49
867.449	62.51
867.751	62.34
868.052	62.28
868.354	62.11
868.655	62
868.957	62.1
869.258	62.02
869.56	61.96
869.861	62.03
870.162	61.99
870.463	62.23
870.765	62.28
871.066	62.38
871.367	62.39
871.668	62.37
871.969	62.37
872.27	62.39
872.571	62.33
872.872	62.31
873.173	62.41
873.473	62.26
873.774	62.25
874.075	62.29
874.376	62.49
874.676	62.47
874.977	62.44
875.277	62.47
875.578	62.53
875.878	62.42
876.179	62.42
876.479	62.36
876.78	62.27
877.08	62.26
877.38	62.16
877.68	62.25
877.981	62.26
878.281	62.25
878.581	62.14
