Data from UWBM53665_Reflection_00011.txt Node
Date: Sun May 02 13:14:07 EDT 2021
User: vgr7
Spectrometer: USB2G7710
Scans to average: 10
Trigger mode: 4
Integration Time (sec): 1.000000E-1
Electric dark correction enabled: true
Boxcar width: 20
XAxis mode: Wavelengths
Number of Pixels in Spectrum: 2048
>>>>>Begin Spectral Data<<<<<
177.721	101.54
178.105	101.19
178.488	101.21
178.871	100.96
179.254	99.28
179.636	96.67
180.019	94.62
180.402	93.43
180.785	91.17
181.168	89.13
181.55	84.39
181.933	115.06
182.316	116.24
182.698	116.67
183.081	119.62
183.463	121.17
183.846	122.99
184.228	124.09
184.611	126.14
184.993	130.12
185.376	130.67
185.758	-107.71
186.14	-50.53
186.522	-16.82
186.904	1.45
187.287	14.55
187.669	16.62
188.051	18.66
188.433	23.23
188.815	17.48
189.197	17.51
189.579	16.12
189.961	15.66
190.342	11.75
190.724	13.32
191.106	14.51
191.488	16.5
191.869	10.58
192.251	10.99
192.633	8.2
193.014	6.66
193.396	5.07
193.777	11.99
194.159	11.74
194.54	9.5
194.922	9.5
195.303	12.25
195.684	12.74
196.065	12.16
196.447	9.64
196.828	8.87
197.209	11.59
197.59	3.68
197.971	2.41
198.352	3.65
198.733	6.91
199.114	6.05
199.495	6.15
199.876	9.46
200.257	10.35
200.638	9.22
201.018	2.65
201.399	0.96
201.78	2.24
202.16	2.97
202.541	3.78
202.922	2.56
203.302	1.15
203.683	1.65
204.063	1.01
204.444	2.86
204.824	5.83
205.204	8.87
205.585	17.21
205.965	17.85
206.345	20.19
206.725	14.25
207.106	13.16
207.486	15.4
207.866	15.8
208.246	15.96
208.626	17.62
209.006	23.06
209.386	21.04
209.766	20.87
210.145	21.34
210.525	20.89
210.905	20.9
211.285	22.57
211.664	21.25
212.044	22.37
212.424	21.97
212.803	17.41
213.183	18.83
213.562	19.77
213.942	18.7
214.321	16.68
214.701	16.43
215.08	18.01
215.459	15.7
215.838	14.83
216.218	16.75
216.597	15.71
216.976	13.32
217.355	12.65
217.734	11.85
218.113	11.41
218.492	11.77
218.871	12.01
219.25	12.35
219.629	10.97
220.008	11.37
220.387	11.2
220.766	10.64
221.144	9.24
221.523	10.17
221.902	9.6
222.28	10.65
222.659	12.46
223.037	11.6
223.416	11.93
223.794	12.12
224.173	11.19
224.551	10.36
224.929	9.95
225.308	10.89
225.686	10.59
226.064	11.15
226.442	10.89
226.821	9.79
227.199	9.86
227.577	9.23
227.955	8.33
228.333	7.81
228.711	7.59
229.089	8.19
229.467	7.72
229.845	8.28
230.222	8.35
230.6	8.89
230.978	8.92
231.356	8
231.733	7.69
232.111	7.59
232.488	7.52
232.866	7.19
233.243	6.6
233.621	6.64
233.998	6.58
234.376	6.52
234.753	6.41
235.13	6.45
235.508	6.64
235.885	6.52
236.262	6.48
236.639	6.64
237.016	6.49
237.393	6.41
237.77	6.28
238.147	6.11
238.524	6.05
238.901	6.02
239.278	6.08
239.655	6.08
240.032	5.95
240.409	5.97
240.785	5.85
241.162	5.87
241.539	5.77
241.915	5.77
242.292	5.77
242.668	5.68
243.045	5.66
243.421	5.56
243.798	5.55
244.174	5.51
244.551	5.38
244.927	5.23
245.303	5.17
245.679	5.16
246.056	5.13
246.432	5.11
246.808	4.91
247.184	4.9
247.56	4.89
247.936	4.9
248.312	4.9
248.688	4.98
249.064	4.95
249.44	4.9
249.815	4.9
250.191	4.86
250.567	4.85
250.943	4.93
251.318	4.95
251.694	4.89
252.069	4.79
252.445	4.78
252.82	4.88
253.196	4.88
253.571	4.83
253.947	4.91
254.322	4.85
254.697	4.98
255.073	4.95
255.448	4.94
255.823	4.9
256.198	4.85
256.573	4.69
256.948	4.67
257.323	4.67
257.698	4.63
258.073	4.62
258.448	4.51
258.823	4.52
259.198	4.51
259.573	4.54
259.948	4.58
260.322	4.53
260.697	4.52
261.072	4.53
261.446	4.48
261.821	4.45
262.195	4.42
262.57	4.4
262.944	4.39
263.319	4.34
263.693	4.34
264.067	4.36
264.442	4.46
264.816	4.43
265.19	4.4
265.564	4.43
265.938	4.37
266.313	4.42
266.687	4.39
267.061	4.38
267.435	4.38
267.809	4.37
268.183	4.32
268.556	4.32
268.93	4.34
269.304	4.31
269.678	4.29
270.051	4.25
270.425	4.26
270.799	4.27
271.172	4.28
271.546	4.28
271.919	4.29
272.293	4.28
272.666	4.29
273.04	4.29
273.413	4.24
273.787	4.22
274.16	4.22
274.533	4.23
274.906	4.2
275.279	4.21
275.653	4.21
276.026	4.19
276.399	4.15
276.772	4.15
277.145	4.17
277.518	4.19
277.891	4.2
278.263	4.22
278.636	4.23
279.009	4.26
279.382	4.24
279.755	4.18
280.127	4.22
280.5	4.24
280.872	4.24
281.245	4.38
281.617	4.39
281.99	4.4
282.362	4.45
282.735	4.44
283.107	4.44
283.479	4.48
283.852	4.51
284.224	4.53
284.596	4.52
284.968	4.39
285.34	4.39
285.713	4.38
286.085	4.3
286.457	4.32
286.829	4.3
287.201	4.3
287.572	4.37
287.944	4.37
288.316	4.41
288.688	4.46
289.06	4.47
289.431	4.49
289.803	4.51
290.175	4.54
290.546	4.59
290.918	4.62
291.289	4.61
291.661	4.65
292.032	4.63
292.403	4.68
292.775	4.78
293.146	4.8
293.517	4.84
293.889	4.93
294.26	4.95
294.631	4.98
295.002	5.05
295.373	5.1
295.744	5.11
296.115	5.13
296.486	5.09
296.857	5.12
297.228	5.14
297.599	5.16
297.97	5.18
298.34	5.23
298.711	5.2
299.082	5.22
299.452	5.28
299.823	5.35
300.194	5.41
300.564	5.44
300.935	5.48
301.305	5.51
301.676	5.52
302.046	5.58
302.416	5.61
302.787	5.66
303.157	5.64
303.527	5.69
303.897	5.75
304.267	5.81
304.637	5.88
305.008	5.95
305.378	6.01
305.748	6.05
306.117	6.17
306.487	6.29
306.857	6.38
307.227	6.45
307.597	6.5
307.967	6.56
308.336	6.61
308.706	6.69
309.076	6.75
309.445	6.8
309.815	6.75
310.184	6.81
310.554	6.81
310.923	6.9
311.293	6.98
311.662	7.03
312.031	7.08
312.401	7.13
312.77	7.16
313.139	7.21
313.508	7.3
313.877	7.31
314.246	7.35
314.616	7.38
314.985	7.37
315.353	7.42
315.722	7.47
316.091	7.54
316.46	7.6
316.829	7.67
317.198	7.74
317.567	7.94
317.935	8
318.304	8.12
318.672	8.21
319.041	8.28
319.41	8.35
319.778	8.43
320.147	8.51
320.515	8.57
320.883	8.64
321.252	8.64
321.62	8.72
321.988	8.8
322.357	8.86
322.725	8.97
323.093	9.03
323.461	9.09
323.829	9.14
324.197	9.18
324.565	9.21
324.933	9.26
325.301	9.28
325.669	9.33
326.037	9.37
326.405	9.37
326.772	9.4
327.14	9.43
327.508	9.46
327.875	9.49
328.243	9.53
328.61	9.51
328.978	9.56
329.346	9.59
329.713	9.61
330.08	9.64
330.448	9.68
330.815	9.69
331.182	9.72
331.55	9.74
331.917	9.78
332.284	9.81
332.651	9.86
333.018	9.89
333.385	9.91
333.752	9.95
334.119	9.98
334.486	10.03
334.853	10.03
335.22	10.06
335.587	10.07
335.954	10.09
336.32	10.11
336.687	10.13
337.054	10.13
337.42	10.17
337.787	10.17
338.153	10.19
338.52	10.24
338.886	10.27
339.253	10.26
339.619	10.26
339.986	10.25
340.352	10.27
340.718	10.28
341.084	10.3
341.451	10.3
341.817	10.29
342.183	10.29
342.549	10.33
342.915	10.33
343.281	10.36
343.647	10.38
344.013	10.4
344.379	10.41
344.745	10.4
345.11	10.42
345.476	10.44
345.842	10.45
346.208	10.43
346.573	10.43
346.939	10.44
347.304	10.44
347.67	10.43
348.035	10.44
348.401	10.43
348.766	10.44
349.132	10.43
349.497	10.42
349.862	10.42
350.228	10.43
350.593	10.43
350.958	10.4
351.323	10.38
351.688	10.39
352.053	10.35
352.418	10.34
352.783	10.3
353.148	10.27
353.513	10.22
353.878	10.2
354.243	10.18
354.608	10.15
354.972	10.13
355.337	10.1
355.702	10.06
356.066	10.03
356.431	9.98
356.795	9.94
357.16	9.89
357.524	9.85
357.889	9.81
358.253	9.78
358.618	9.74
358.982	9.72
359.346	9.68
359.71	9.65
360.075	9.62
360.439	9.58
360.803	9.53
361.167	9.49
361.531	9.47
361.895	9.44
362.259	9.39
362.623	9.35
362.987	9.3
363.351	9.26
363.714	9.22
364.078	9.17
364.442	9.13
364.806	9.08
365.169	9.01
365.533	8.95
365.896	8.89
366.26	8.84
366.623	8.78
366.987	8.72
367.35	8.67
367.714	8.62
368.077	8.57
368.44	8.51
368.803	8.44
369.167	8.38
369.53	8.31
369.893	8.25
370.256	8.18
370.619	8.12
370.982	8.04
371.345	7.96
371.708	7.9
372.071	7.84
372.434	7.77
372.797	7.72
373.159	7.66
373.522	7.6
373.885	7.53
374.247	7.45
374.61	7.38
374.973	7.31
375.335	7.24
375.698	7.17
376.06	7.1
376.423	7.02
376.785	6.96
377.147	6.89
377.51	6.84
377.872	6.77
378.234	6.71
378.596	6.66
378.958	6.61
379.321	6.55
379.683	6.5
380.045	6.44
380.407	6.39
380.769	6.32
381.13	6.28
381.492	6.23
381.854	6.18
382.216	6.14
382.578	6.09
382.939	6.05
383.301	6
383.663	5.96
384.024	5.91
384.386	5.87
384.747	5.82
385.109	5.77
385.47	5.72
385.832	5.68
386.193	5.64
386.554	5.6
386.916	5.56
387.277	5.52
387.638	5.49
387.999	5.46
388.36	5.43
388.721	5.39
389.082	5.36
389.443	5.33
389.804	5.3
390.165	5.27
390.526	5.25
390.887	5.22
391.248	5.18
391.609	5.15
391.969	5.12
392.33	5.09
392.691	5.06
393.051	5.03
393.412	4.99
393.772	4.96
394.133	4.94
394.493	4.9
394.854	4.88
395.214	4.84
395.574	4.81
395.935	4.77
396.295	4.74
396.655	4.71
397.015	4.68
397.376	4.63
397.736	4.61
398.096	4.57
398.456	4.55
398.816	4.53
399.176	4.49
399.535	4.47
399.895	4.44
400.255	4.42
400.615	4.4
400.975	4.38
401.334	4.35
401.694	4.32
402.054	4.3
402.413	4.26
402.773	4.24
403.132	4.22
403.492	4.21
403.851	4.19
404.211	4.17
404.57	4.16
404.929	4.15
405.288	4.13
405.648	4.12
406.007	4.11
406.366	4.11
406.725	4.11
407.084	4.09
407.443	4.08
407.802	4.06
408.161	4.04
408.52	4.03
408.879	4.02
409.238	4.01
409.596	4
409.955	4
410.314	4
410.673	3.98
411.031	3.98
411.39	3.97
411.748	3.97
412.107	3.97
412.465	3.97
412.824	3.98
413.182	3.99
413.54	4
413.899	4.01
414.257	4.03
414.615	4.05
414.974	4.07
415.332	4.1
415.69	4.13
416.048	4.14
416.406	4.17
416.764	4.19
417.122	4.21
417.48	4.23
417.838	4.25
418.195	4.26
418.553	4.27
418.911	4.27
419.269	4.27
419.626	4.26
419.984	4.25
420.342	4.22
420.699	4.2
421.057	4.18
421.414	4.16
421.772	4.14
422.129	4.12
422.486	4.11
422.844	4.1
423.201	4.09
423.558	4.09
423.915	4.08
424.273	4.07
424.63	4.07
424.987	4.06
425.344	4.05
425.701	4.05
426.058	4.04
426.415	4.04
426.772	4.02
427.128	4.01
427.485	4
427.842	3.98
428.199	3.97
428.555	3.95
428.912	3.92
429.269	3.89
429.625	3.87
429.982	3.85
430.338	3.82
430.695	3.79
431.051	3.76
431.407	3.74
431.764	3.72
432.12	3.69
432.476	3.68
432.832	3.67
433.189	3.67
433.545	3.68
433.901	3.69
434.257	3.71
434.613	3.73
434.969	3.75
435.325	3.77
435.681	3.81
436.036	3.82
436.392	3.84
436.748	3.84
437.104	3.85
437.459	3.86
437.815	3.88
438.171	3.89
438.526	3.91
438.882	3.94
439.237	3.96
439.593	3.99
439.948	4.02
440.304	4.05
440.659	4.07
441.014	4.08
441.369	4.11
441.725	4.12
442.08	4.14
442.435	4.15
442.79	4.15
443.145	4.15
443.5	4.15
443.855	4.15
444.21	4.15
444.565	4.14
444.92	4.13
445.275	4.13
445.629	4.12
445.984	4.11
446.339	4.09
446.693	4.09
447.048	4.07
447.403	4.05
447.757	4.03
448.112	4
448.466	3.98
448.82	3.96
449.175	3.94
449.529	3.92
449.883	3.9
450.238	3.87
450.592	3.87
450.946	3.86
451.3	3.86
451.654	3.86
452.008	3.86
452.362	3.86
452.716	3.86
453.07	3.86
453.424	3.86
453.778	3.85
454.132	3.83
454.486	3.83
454.839	3.81
455.193	3.79
455.547	3.78
455.9	3.75
456.254	3.73
456.607	3.7
456.961	3.68
457.314	3.67
457.668	3.66
458.021	3.65
458.375	3.65
458.728	3.65
459.081	3.65
459.434	3.66
459.787	3.66
460.141	3.67
460.494	3.68
460.847	3.69
461.2	3.69
461.553	3.7
461.906	3.71
462.259	3.72
462.611	3.73
462.964	3.74
463.317	3.74
463.67	3.75
464.022	3.76
464.375	3.76
464.728	3.77
465.08	3.77
465.433	3.78
465.785	3.78
466.138	3.77
466.49	3.76
466.843	3.75
467.195	3.74
467.547	3.72
467.899	3.71
468.252	3.69
468.604	3.68
468.956	3.66
469.308	3.65
469.66	3.65
470.012	3.65
470.364	3.66
470.716	3.67
471.068	3.69
471.42	3.71
471.772	3.73
472.123	3.74
472.475	3.76
472.827	3.77
473.178	3.78
473.53	3.79
473.882	3.81
474.233	3.83
474.585	3.86
474.936	3.92
475.288	4
475.639	4.1
475.99	4.22
476.342	4.35
476.693	4.5
477.044	4.64
477.395	4.79
477.746	4.94
478.097	5.09
478.448	5.24
478.8	5.4
479.15	5.53
479.501	5.66
479.852	5.78
480.203	5.88
480.554	5.99
480.905	6.09
481.255	6.19
481.606	6.28
481.957	6.35
482.307	6.44
482.658	6.51
483.009	6.59
483.359	6.66
483.709	6.73
484.06	6.79
484.41	6.87
484.761	6.92
485.111	6.98
485.461	7.04
485.811	7.1
486.162	7.15
486.512	7.19
486.862	7.23
487.212	7.25
487.562	7.27
487.912	7.28
488.262	7.29
488.612	7.29
488.961	7.27
489.311	7.24
489.661	7.19
490.011	7.11
490.36	7.02
490.71	6.91
491.06	6.8
491.409	6.68
491.759	6.55
492.108	6.43
492.458	6.3
492.807	6.16
493.157	6.02
493.506	5.89
493.855	5.77
494.204	5.66
494.554	5.55
494.903	5.45
495.252	5.36
495.601	5.27
495.95	5.19
496.299	5.12
496.648	5.05
496.997	4.98
497.346	4.93
497.695	4.88
498.043	4.84
498.392	4.8
498.741	4.76
499.09	4.73
499.438	4.7
499.787	4.68
500.135	4.67
500.484	4.67
500.832	4.68
501.181	4.7
501.529	4.73
501.878	4.78
502.226	4.84
502.574	4.9
502.923	4.97
503.271	5.05
503.619	5.14
503.967	5.23
504.315	5.32
504.663	5.41
505.011	5.51
505.359	5.61
505.707	5.71
506.055	5.82
506.403	5.94
506.751	6.06
507.098	6.18
507.446	6.32
507.794	6.45
508.141	6.6
508.489	6.76
508.837	6.94
509.184	7.11
509.531	7.29
509.879	7.48
510.226	7.69
510.574	7.92
510.921	8.15
511.268	8.4
511.616	8.64
511.963	8.9
512.31	9.17
512.657	9.44
513.004	9.71
513.351	9.97
513.698	10.22
514.045	10.47
514.392	10.71
514.739	10.94
515.086	11.18
515.432	11.41
515.779	11.64
516.126	11.89
516.473	12.15
516.819	12.43
517.166	12.74
517.512	13.07
517.859	13.41
518.205	13.78
518.552	14.19
518.898	14.62
519.245	15.1
519.591	15.67
519.937	16.32
520.283	17.07
520.629	17.89
520.976	18.74
521.322	19.62
521.668	20.51
522.014	21.42
522.36	22.33
522.706	23.22
523.052	24.1
523.398	24.93
523.743	25.71
524.089	26.43
524.435	27.1
524.781	27.77
525.126	28.43
525.472	29.09
525.817	29.73
526.163	30.36
526.509	30.98
526.854	31.6
527.199	32.21
527.545	32.82
527.89	33.45
528.235	34.06
528.581	34.65
528.926	35.2
529.271	35.73
529.616	36.24
529.961	36.73
530.306	37.19
530.651	37.64
530.996	38.03
531.341	38.4
531.686	38.75
532.031	39.08
532.376	39.44
532.721	39.82
533.065	40.24
533.41	40.67
533.755	41.05
534.099	41.4
534.444	41.69
534.788	41.95
535.133	42.19
535.477	42.41
535.822	42.59
536.166	42.71
536.51	42.77
536.855	42.76
537.199	42.7
537.543	42.64
537.887	42.61
538.231	42.63
538.576	42.65
538.92	42.64
539.264	42.62
539.608	42.57
539.951	42.5
540.295	42.41
540.639	42.31
540.983	42.17
541.327	42.02
541.671	41.84
542.014	41.71
542.358	41.58
542.701	41.54
543.045	41.59
543.389	41.67
543.732	41.77
544.075	41.9
544.419	42.04
544.762	42.18
545.105	42.35
545.449	42.53
545.792	42.72
546.135	42.92
546.478	43.04
546.821	43.11
547.165	43.11
547.508	43.03
547.851	42.91
548.194	42.71
548.536	42.48
548.879	42.19
549.222	41.89
549.565	41.56
549.908	41.24
550.25	40.95
550.593	40.73
550.936	40.59
551.278	40.52
551.621	40.5
551.963	40.5
552.306	40.52
552.648	40.58
552.991	40.67
553.333	40.79
553.675	40.93
554.017	41.13
554.36	41.34
554.702	41.6
555.044	41.89
555.386	42.24
555.728	42.63
556.07	42.95
556.412	43.29
556.754	43.55
557.096	43.74
557.438	43.93
557.78	44.13
558.121	44.33
558.463	44.52
558.805	44.72
559.147	44.91
559.488	45.09
559.83	45.29
560.171	45.47
560.513	45.66
560.854	45.83
561.196	46.01
561.537	46.18
561.878	46.34
562.22	46.5
562.561	46.65
562.902	46.83
563.243	46.99
563.584	47.15
563.925	47.31
564.266	47.47
564.607	47.63
564.948	47.8
565.289	47.96
565.63	48.11
565.971	48.26
566.312	48.41
566.653	48.56
566.993	48.7
567.334	48.84
567.675	48.97
568.015	49.1
568.356	49.23
568.696	49.34
569.037	49.46
569.377	49.58
569.718	49.7
570.058	49.81
570.398	49.91
570.739	50.02
571.079	50.11
571.419	50.2
571.759	50.28
572.099	50.35
572.439	50.43
572.779	50.5
573.119	50.57
573.459	50.65
573.799	50.72
574.139	50.78
574.479	50.85
574.819	50.93
575.158	50.99
575.498	51.06
575.838	51.13
576.177	51.2
576.517	51.27
576.856	51.32
577.196	51.39
577.535	51.44
577.875	51.5
578.214	51.56
578.553	51.62
578.893	51.67
579.232	51.71
579.571	51.76
579.91	51.82
580.25	51.87
580.589	51.92
580.928	51.98
581.267	52.03
581.606	52.1
581.945	52.17
582.283	52.23
582.622	52.31
582.961	52.36
583.3	52.43
583.639	52.48
583.977	52.54
584.316	52.6
584.654	52.67
584.993	52.74
585.332	52.82
585.67	52.9
586.008	52.97
586.347	53.05
586.685	53.12
587.024	53.2
587.362	53.28
587.7	53.35
588.038	53.45
588.376	53.53
588.715	53.61
589.053	53.69
589.391	53.78
589.729	53.87
590.067	53.95
590.404	54.04
590.742	54.13
591.08	54.21
591.418	54.29
591.756	54.36
592.093	54.44
592.431	54.5
592.769	54.56
593.106	54.63
593.444	54.69
593.781	54.73
594.119	54.78
594.456	54.83
594.793	54.87
595.131	54.93
595.468	54.99
595.805	55.03
596.143	55.09
596.48	55.14
596.817	55.21
597.154	55.28
597.491	55.36
597.828	55.43
598.165	55.48
598.502	55.55
598.839	55.61
599.176	55.67
599.512	55.73
599.849	55.78
600.186	55.82
600.523	55.87
600.859	55.92
601.196	55.97
601.532	56.02
601.869	56.07
602.205	56.1
602.542	56.14
602.878	56.18
603.215	56.2
603.551	56.24
603.887	56.28
604.223	56.31
604.56	56.34
604.896	56.37
605.232	56.4
605.568	56.44
605.904	56.47
606.24	56.49
606.576	56.52
606.912	56.55
607.248	56.58
607.583	56.61
607.919	56.63
608.255	56.65
608.591	56.68
608.926	56.7
609.262	56.72
609.597	56.75
609.933	56.77
610.268	56.79
610.604	56.8
610.939	56.81
611.275	56.8
611.61	56.81
611.945	56.83
612.281	56.82
612.616	56.82
612.951	56.82
613.286	56.82
613.621	56.83
613.956	56.84
614.291	56.86
614.626	56.86
614.961	56.86
615.296	56.86
615.631	56.86
615.966	56.87
616.3	56.89
616.635	56.9
616.97	56.91
617.304	56.93
617.639	56.93
617.973	56.94
618.308	56.95
618.642	56.96
618.977	56.97
619.311	56.98
619.646	57.02
619.98	57.05
620.314	57.07
620.648	57.11
620.983	57.13
621.317	57.16
621.651	57.18
621.985	57.21
622.319	57.25
622.653	57.29
622.987	57.3
623.321	57.32
623.655	57.34
623.988	57.37
624.322	57.39
624.656	57.41
624.99	57.44
625.323	57.46
625.657	57.48
625.99	57.52
626.324	57.54
626.657	57.56
626.991	57.6
627.324	57.62
627.658	57.66
627.991	57.68
628.324	57.7
628.657	57.72
628.991	57.73
629.324	57.74
629.657	57.77
629.99	57.78
630.323	57.81
630.656	57.81
630.989	57.81
631.322	57.83
631.655	57.84
631.987	57.86
632.32	57.87
632.653	57.89
632.986	57.9
633.318	57.89
633.651	57.9
633.984	57.92
634.316	57.93
634.649	57.93
634.981	57.95
635.313	57.97
635.646	57.97
635.978	57.96
636.31	57.97
636.643	57.98
636.975	58
637.307	58.01
637.639	58.01
637.971	58.03
638.303	58.04
638.635	58.04
638.967	58.06
639.299	58.06
639.631	58.07
639.963	58.09
640.295	58.11
640.626	58.11
640.958	58.11
641.29	58.1
641.621	58.12
641.953	58.13
642.285	58.16
642.616	58.18
642.948	58.2
643.279	58.22
643.61	58.24
643.942	58.25
644.273	58.29
644.604	58.32
644.936	58.33
645.267	58.34
645.598	58.35
645.929	58.36
646.26	58.37
646.591	58.39
646.922	58.41
647.253	58.43
647.584	58.46
647.915	58.47
648.245	58.5
648.576	58.51
648.907	58.51
649.238	58.53
649.568	58.56
649.899	58.57
650.229	58.59
650.56	58.61
650.89	58.63
651.221	58.65
651.551	58.65
651.882	58.68
652.212	58.7
652.542	58.72
652.872	58.76
653.203	58.78
653.533	58.8
653.863	58.82
654.193	58.84
654.523	58.86
654.853	58.9
655.183	58.91
655.513	58.93
655.843	58.94
656.172	58.96
656.502	58.98
656.832	58.98
657.162	58.98
657.491	59.01
657.821	59
658.15	59.02
658.48	59.03
658.809	59.06
659.139	59.08
659.468	59.08
659.798	59.12
660.127	59.12
660.456	59.14
660.785	59.15
661.115	59.15
661.444	59.17
661.773	59.2
662.102	59.21
662.431	59.22
662.76	59.26
663.089	59.25
663.418	59.25
663.747	59.26
664.076	59.27
664.404	59.27
664.733	59.29
665.062	59.32
665.39	59.34
665.719	59.35
666.048	59.35
666.376	59.36
666.705	59.35
667.033	59.34
667.362	59.34
667.69	59.34
668.018	59.35
668.347	59.34
668.675	59.34
669.003	59.35
669.331	59.37
669.659	59.37
669.987	59.38
670.315	59.39
670.643	59.42
670.971	59.42
671.299	59.42
671.627	59.42
671.955	59.43
672.283	59.44
672.61	59.44
672.938	59.47
673.266	59.48
673.593	59.49
673.921	59.53
674.249	59.55
674.576	59.55
674.904	59.58
675.231	59.58
675.558	59.62
675.886	59.63
676.213	59.63
676.54	59.65
676.867	59.66
677.195	59.67
677.522	59.67
677.849	59.68
678.176	59.71
678.503	59.72
678.83	59.73
679.157	59.73
679.484	59.75
679.81	59.75
680.137	59.74
680.464	59.75
680.791	59.77
681.117	59.77
681.444	59.77
681.771	59.77
682.097	59.77
682.424	59.78
682.75	59.77
683.077	59.79
683.403	59.8
683.729	59.8
684.056	59.81
684.382	59.82
684.708	59.86
685.034	59.86
685.36	59.86
685.686	59.86
686.012	59.88
686.339	59.89
686.664	59.88
686.99	59.9
687.316	59.89
687.642	59.9
687.968	59.93
688.294	59.92
688.619	59.92
688.945	59.92
689.271	59.93
689.596	59.94
689.922	59.95
690.247	59.98
690.573	59.98
690.898	60
691.224	60.02
691.549	60.01
691.874	59.99
692.2	60
692.525	60.04
692.85	60.04
693.175	60.06
693.5	60.09
693.825	60.11
694.15	60.11
694.475	60.13
694.8	60.15
695.125	60.16
695.45	60.2
695.775	60.21
696.099	60.22
696.424	60.23
696.749	60.23
697.073	60.26
697.398	60.25
697.723	60.24
698.047	60.23
698.372	60.25
698.696	60.26
699.02	60.28
699.345	60.29
699.669	60.31
699.993	60.31
700.318	60.32
700.642	60.34
700.966	60.33
701.29	60.33
701.614	60.35
701.938	60.37
702.262	60.37
702.586	60.39
702.91	60.4
703.234	60.41
703.557	60.4
703.881	60.42
704.205	60.43
704.529	60.46
704.852	60.46
705.176	60.5
705.499	60.52
705.823	60.49
706.146	60.5
706.47	60.52
706.793	60.53
707.117	60.58
707.44	60.6
707.763	60.6
708.086	60.6
708.409	60.6
708.733	60.59
709.056	60.59
709.379	60.6
709.702	60.61
710.025	60.61
710.348	60.56
710.671	60.57
710.993	60.6
711.316	60.6
711.639	60.62
711.962	60.64
712.284	60.66
712.607	60.68
712.93	60.71
713.252	60.73
713.575	60.7
713.897	60.71
714.22	60.73
714.542	60.76
714.864	60.79
715.187	60.83
715.509	60.84
715.831	60.82
716.153	60.82
716.475	60.81
716.798	60.82
717.12	60.89
717.442	60.91
717.764	60.89
718.085	60.88
718.407	60.88
718.729	60.89
719.051	60.9
719.373	60.9
719.695	60.91
720.016	60.9
720.338	60.88
720.659	60.91
720.981	60.93
721.302	60.93
721.624	60.94
721.945	60.96
722.267	60.99
722.588	60.97
722.909	61.03
723.231	61.08
723.552	61.07
723.873	61.12
724.194	61.11
724.515	61.11
724.836	61.13
725.157	61.16
725.478	61.17
725.799	61.17
726.12	61.17
726.441	61.19
726.762	61.23
727.083	61.19
727.403	61.18
727.724	61.16
728.045	61.16
728.365	61.14
728.686	61.16
729.006	61.19
729.327	61.2
729.647	61.21
729.967	61.23
730.288	61.26
730.608	61.29
730.928	61.31
731.249	61.31
731.569	61.32
731.889	61.3
732.209	61.34
732.529	61.34
732.849	61.35
733.169	61.36
733.489	61.38
733.809	61.36
734.129	61.38
734.448	61.41
734.768	61.42
735.088	61.43
735.408	61.43
735.727	61.44
736.047	61.41
736.366	61.42
736.686	61.41
737.005	61.38
737.325	61.36
737.644	61.37
737.963	61.35
738.283	61.32
738.602	61.3
738.921	61.31
739.24	61.26
739.56	61.25
739.879	61.22
740.198	61.25
740.517	61.25
740.836	61.26
741.155	61.23
741.473	61.24
741.792	61.27
742.111	61.27
742.43	61.27
742.748	61.29
743.067	61.26
743.386	61.23
743.704	61.24
744.023	61.27
744.341	61.26
744.66	61.24
744.978	61.23
745.297	61.23
745.615	61.2
745.933	61.19
746.252	61.17
746.57	61.13
746.888	61.12
747.206	61.08
747.524	61.06
747.842	61.05
748.16	61.01
748.478	61.02
748.796	61
749.114	61.02
749.432	61.01
749.749	61.07
750.067	61.11
750.385	61.14
750.703	61.14
751.02	61.16
751.338	61.16
751.655	61.21
751.973	61.2
752.29	61.24
752.608	61.26
752.925	61.31
753.242	61.37
753.56	61.37
753.877	61.36
754.194	61.43
754.511	61.45
754.828	61.43
755.145	61.44
755.462	61.51
755.779	61.51
756.096	61.51
756.413	61.55
756.73	61.57
757.047	61.57
757.364	61.6
757.68	61.69
757.997	61.75
758.314	61.76
758.63	61.78
758.947	61.85
759.264	61.9
759.58	61.94
759.896	61.98
760.213	62.02
760.529	62.03
760.846	62.05
761.162	62.07
761.478	62.04
761.794	62.06
762.11	62.06
762.426	62.08
762.743	62.03
763.059	62.04
763.375	62.05
763.69	62.05
764.006	62.06
764.322	62.08
764.638	62.08
764.954	62.1
765.27	62.13
765.585	62.11
765.901	62.1
766.216	62.05
766.532	62.07
766.848	62.05
767.163	62.01
767.478	62
767.794	62.02
768.109	62.01
768.424	61.99
768.74	62
769.055	62
769.37	61.98
769.685	61.91
770	61.91
770.315	61.94
770.63	61.87
770.945	61.8
771.26	61.79
771.575	61.78
771.89	61.74
772.205	61.71
772.52	61.65
772.834	61.65
773.149	61.65
773.464	61.63
773.778	61.6
774.093	61.63
774.407	61.63
774.722	61.61
775.036	61.58
775.351	61.57
775.665	61.58
775.979	61.5
776.293	61.48
776.608	61.52
776.922	61.53
777.236	61.56
777.55	61.56
777.864	61.61
778.178	61.59
778.492	61.6
778.806	61.59
779.12	61.56
779.434	61.53
779.747	61.55
780.061	61.62
780.375	61.58
780.689	61.55
781.002	61.58
781.316	61.58
781.629	61.61
781.943	61.64
782.256	61.69
782.57	61.75
782.883	61.81
783.196	61.8
783.51	61.81
783.823	61.82
784.136	61.79
784.449	61.85
784.762	61.87
785.075	61.87
785.388	61.93
785.701	61.91
786.014	61.88
786.327	61.9
786.64	61.88
786.953	61.86
787.266	61.96
787.578	62
787.891	62.03
788.204	62.02
788.516	61.99
788.829	62.03
789.141	62.03
789.454	62.03
789.766	62.04
790.079	62.06
790.391	62.09
790.703	62.09
791.016	62.06
791.328	62.1
791.64	62.12
791.952	62.15
792.264	62.17
792.576	62.18
792.888	62.18
793.2	62.2
793.512	62.2
793.824	62.16
794.136	62.12
794.448	62.12
794.76	62.09
795.071	62.13
795.383	62.08
795.695	62.04
796.006	62.02
796.318	62.02
796.629	62.03
796.941	62.04
797.252	61.97
797.564	61.99
797.875	61.98
798.186	61.93
798.497	61.95
798.809	61.91
799.12	61.87
799.431	61.88
799.742	61.88
800.053	61.75
800.364	61.74
800.675	61.72
800.986	61.75
801.297	61.86
801.608	61.87
801.918	61.91
802.229	61.89
802.54	61.85
802.851	61.85
803.161	61.78
803.472	61.78
803.782	61.74
804.093	61.72
804.403	61.68
804.714	61.73
805.024	61.75
805.334	61.8
805.645	61.76
805.955	61.78
806.265	61.79
806.575	61.85
806.885	61.83
807.195	61.82
807.505	61.87
807.815	61.84
808.125	61.92
808.435	61.92
808.745	61.93
809.055	61.96
809.365	62.03
809.674	62.06
809.984	62.09
810.294	62.07
810.603	62.05
810.913	62.08
811.222	62.08
811.532	62.23
811.841	62.23
812.151	62.31
812.46	62.41
812.769	62.48
813.079	62.55
813.388	62.65
813.697	62.61
814.006	62.55
814.315	62.59
814.624	62.56
814.933	62.58
815.242	62.55
815.551	62.56
815.86	62.59
816.169	62.64
816.478	62.64
816.786	62.64
817.095	62.6
817.404	62.63
817.712	62.58
818.021	62.57
818.33	62.6
818.638	62.63
818.947	62.59
819.255	62.6
819.563	62.67
819.872	62.65
820.18	62.67
820.488	62.69
820.796	62.7
821.105	62.7
821.413	62.73
821.721	62.75
822.029	62.73
822.337	62.74
822.645	62.76
822.953	62.76
823.26	62.76
823.568	62.79
823.876	62.82
824.184	62.8
824.491	62.79
824.799	62.78
825.107	62.78
825.414	62.78
825.722	62.78
826.029	62.75
826.337	62.74
826.644	62.72
826.951	62.71
827.259	62.71
827.566	62.73
827.873	62.76
828.18	62.75
828.488	62.74
828.795	62.69
829.102	62.72
829.409	62.75
829.716	62.77
830.023	62.78
830.329	62.82
830.636	62.85
830.943	62.89
831.25	62.88
831.557	62.89
831.863	62.88
832.17	62.87
832.476	62.9
832.783	62.91
833.089	62.91
833.396	62.87
833.702	62.83
834.009	62.75
834.315	62.71
834.621	62.78
834.928	62.75
835.234	62.75
835.54	62.73
835.846	62.75
836.152	62.73
836.458	62.67
836.764	62.58
837.07	62.62
837.376	62.55
837.682	62.5
837.988	62.51
838.293	62.45
838.599	62.48
838.905	62.53
839.211	62.61
839.516	62.62
839.822	62.66
840.127	62.64
840.433	62.61
840.738	62.58
841.044	62.61
841.349	62.76
841.654	62.76
841.959	62.74
842.265	62.75
842.57	62.73
842.875	62.74
843.18	62.75
843.485	62.72
843.79	62.74
844.095	62.9
844.4	62.91
844.705	62.85
845.01	62.92
845.315	62.85
845.619	62.73
845.924	62.63
846.229	62.69
846.533	62.82
846.838	62.89
847.142	62.8
847.447	62.86
847.751	62.78
848.056	62.83
848.36	62.95
848.664	62.85
848.969	62.73
849.273	62.74
849.577	62.76
849.881	62.69
850.185	62.67
850.489	62.79
850.794	62.96
851.097	62.91
851.401	63.05
851.705	63.09
852.009	63.15
852.313	63.2
852.617	63.25
852.92	63.31
853.224	63.34
853.528	63.25
853.831	63.12
854.135	63.1
854.438	62.94
854.742	62.97
855.045	62.82
855.349	62.84
855.652	62.83
855.955	62.87
856.259	62.88
856.562	63
856.865	62.87
857.168	62.91
857.471	62.81
857.774	62.69
858.077	62.56
858.38	62.64
858.683	62.72
858.986	62.66
859.289	62.64
859.592	62.8
859.894	62.95
860.197	62.98
860.5	63.01
860.802	62.98
861.105	62.98
861.407	63.29
861.71	63.23
862.012	63.31
862.315	63.31
862.617	63.13
862.919	63.04
863.222	63.11
863.524	63.12
863.826	63.16
864.128	63.17
864.43	63.29
864.732	63.21
865.034	63.37
865.336	63.41
865.638	63.37
865.94	63.27
866.242	63.3
866.544	63.06
866.846	63.42
867.147	63.47
867.449	63.46
867.751	63.47
868.052	63.52
868.354	63.51
868.655	63.54
868.957	63.51
869.258	63.46
869.56	63.39
869.861	63.34
870.162	63.33
870.463	63.4
870.765	63.49
871.066	63.5
871.367	63.45
871.668	63.66
871.969	63.56
872.27	63.58
872.571	63.52
872.872	63.65
873.173	63.53
873.473	63.77
873.774	63.67
874.075	63.81
874.376	63.75
874.676	63.9
874.977	63.97
875.277	63.97
875.578	63.83
875.878	63.79
876.179	63.55
876.479	63.53
876.78	63.37
877.08	63.44
877.38	63.32
877.68	63.33
877.981	63.34
878.281	63.54
878.581	63.56
