Data from UWBM88853_Reflection_00015.txt Node
Date: Sun May 02 13:42:42 EDT 2021
User: vgr7
Spectrometer: USB2G7710
Scans to average: 10
Trigger mode: 4
Integration Time (sec): 1.000000E-1
Electric dark correction enabled: true
Boxcar width: 20
XAxis mode: Wavelengths
Number of Pixels in Spectrum: 2048
>>>>>Begin Spectral Data<<<<<
177.721	146.08
178.105	202.16
178.488	213.6
178.871	364.91
179.254	246.79
179.636	132.85
180.019	97.22
180.402	85.32
180.785	71.57
181.168	73.52
181.55	74.94
181.933	77.37
182.316	69.82
182.698	67.17
183.081	60.65
183.463	64.08
183.846	60.01
184.228	58.23
184.611	54.35
184.993	53.15
185.376	49.88
185.758	50.27
186.14	53.12
186.522	49.18
186.904	48.22
187.287	48.36
187.669	47.61
188.051	43.87
188.433	41.53
188.815	40.87
189.197	42.8
189.579	39.56
189.961	38.46
190.342	38.55
190.724	38.98
191.106	39.76
191.488	40.81
191.869	37.52
192.251	33.57
192.633	30.84
193.014	31.06
193.396	29.66
193.777	30.53
194.159	31.79
194.54	28.93
194.922	27.47
195.303	27.86
195.684	26.17
196.065	25.96
196.447	26.43
196.828	25.56
197.209	22.93
197.59	19.57
197.971	19.23
198.352	19.1
198.733	19.94
199.114	18.67
199.495	18.53
199.876	18.03
200.257	18.48
200.638	17.07
201.018	19.08
201.399	19.03
201.78	17.79
202.16	16.24
202.541	15.82
202.922	15.13
203.302	15.02
203.683	15.19
204.063	15.96
204.444	16.94
204.824	15.89
205.204	15.44
205.585	16.89
205.965	16.73
206.345	16.67
206.725	17.24
207.106	16.05
207.486	16.8
207.866	18.87
208.246	18.95
208.626	17.59
209.006	17.58
209.386	15.35
209.766	12.66
210.145	12.84
210.525	13.01
210.905	12.83
211.285	13.45
211.664	13.91
212.044	13.03
212.424	11.56
212.803	11.8
213.183	12.52
213.562	13.72
213.942	13.2
214.321	12.06
214.701	10.94
215.08	11.93
215.459	11.44
215.838	11.09
216.218	10.88
216.597	9.28
216.976	8.49
217.355	9.51
217.734	11.2
218.113	10.66
218.492	10.94
218.871	11.82
219.25	12.78
219.629	12.55
220.008	12.94
220.387	11.87
220.766	12.96
221.144	11.19
221.523	11.11
221.902	10.48
222.28	9.04
222.659	9.79
223.037	9.01
223.416	8.87
223.794	9.1
224.173	9.2
224.551	8.38
224.929	9.28
225.308	10.1
225.686	10.34
226.064	10.38
226.442	10.61
226.821	10.36
227.199	9.9
227.577	10.06
227.955	10.14
228.333	10.28
228.711	9.93
229.089	9.02
229.467	8.68
229.845	8.83
230.222	8.89
230.6	8.56
230.978	8.58
231.356	8.79
231.733	8.69
232.111	8.42
232.488	8.51
232.866	7.99
233.243	7.59
233.621	7.34
233.998	7.28
234.376	6.91
234.753	6.27
235.13	6.01
235.508	5.82
235.885	5.79
236.262	5.56
236.639	5.34
237.016	5.18
237.393	5.16
237.77	5.22
238.147	5.07
238.524	5.07
238.901	4.89
239.278	4.82
239.655	4.84
240.032	4.84
240.409	4.79
240.785	4.8
241.162	4.78
241.539	4.73
241.915	4.76
242.292	4.77
242.668	4.76
243.045	4.7
243.421	4.69
243.798	4.68
244.174	4.72
244.551	4.73
244.927	4.74
245.303	4.72
245.679	4.73
246.056	4.68
246.432	4.68
246.808	4.62
247.184	4.64
247.56	4.64
247.936	4.62
248.312	4.61
248.688	4.61
249.064	4.6
249.44	4.56
249.815	4.56
250.191	4.57
250.567	4.57
250.943	4.53
251.318	4.5
251.694	4.51
252.069	4.53
252.445	4.54
252.82	4.51
253.196	4.47
253.571	4.47
253.947	4.43
254.322	4.43
254.697	4.43
255.073	4.42
255.448	4.41
255.823	4.39
256.198	4.36
256.573	4.34
256.948	4.34
257.323	4.29
257.698	4.25
258.073	4.24
258.448	4.23
258.823	4.21
259.198	4.2
259.573	4.19
259.948	4.17
260.322	4.14
260.697	4.13
261.072	4.11
261.446	4.11
261.821	4.07
262.195	4.05
262.57	4.06
262.944	4.04
263.319	4.03
263.693	4.03
264.067	4.02
264.442	4.01
264.816	4
265.19	4
265.564	4
265.938	4
266.313	4.02
266.687	4.01
267.061	4
267.435	3.99
267.809	3.97
268.183	3.97
268.556	3.97
268.93	3.96
269.304	3.98
269.678	3.99
270.051	3.96
270.425	3.93
270.799	3.93
271.172	3.92
271.546	3.93
271.919	3.92
272.293	3.9
272.666	3.9
273.04	3.92
273.413	3.92
273.787	3.94
274.16	3.95
274.533	3.95
274.906	3.95
275.279	3.96
275.653	3.97
276.026	3.96
276.399	3.98
276.772	3.99
277.145	4
277.518	4.02
277.891	4.01
278.263	4.02
278.636	4.04
279.009	4.03
279.382	4.03
279.755	4.06
280.127	4.07
280.5	4.08
280.872	4.09
281.245	4.09
281.617	4.1
281.99	4.12
282.362	4.11
282.735	4.1
283.107	4.13
283.479	4.13
283.852	4.15
284.224	4.15
284.596	4.15
284.968	4.15
285.34	4.19
285.713	4.21
286.085	4.24
286.457	4.27
286.829	4.27
287.201	4.3
287.572	4.31
287.944	4.34
288.316	4.36
288.688	4.39
289.06	4.4
289.431	4.43
289.803	4.46
290.175	4.49
290.546	4.52
290.918	4.57
291.289	4.62
291.661	4.65
292.032	4.69
292.403	4.72
292.775	4.77
293.146	4.81
293.517	4.84
293.889	4.89
294.26	4.94
294.631	4.99
295.002	5.04
295.373	5.09
295.744	5.13
296.115	5.18
296.486	5.25
296.857	5.3
297.228	5.35
297.599	5.42
297.97	5.48
298.34	5.53
298.711	5.59
299.082	5.63
299.452	5.71
299.823	5.78
300.194	5.85
300.564	5.89
300.935	5.96
301.305	6.02
301.676	6.07
302.046	6.15
302.416	6.21
302.787	6.28
303.157	6.35
303.527	6.42
303.897	6.49
304.267	6.58
304.637	6.67
305.008	6.75
305.378	6.84
305.748	6.92
306.117	7
306.487	7.09
306.857	7.19
307.227	7.28
307.597	7.36
307.967	7.43
308.336	7.51
308.706	7.58
309.076	7.66
309.445	7.73
309.815	7.81
310.184	7.87
310.554	7.94
310.923	8.02
311.293	8.09
311.662	8.16
312.031	8.23
312.401	8.3
312.77	8.38
313.139	8.45
313.508	8.53
313.877	8.61
314.246	8.69
314.616	8.73
314.985	8.78
315.353	8.84
315.722	8.91
316.091	8.98
316.46	9.04
316.829	9.12
317.198	9.2
317.567	9.28
317.935	9.36
318.304	9.45
318.672	9.53
319.041	9.61
319.41	9.68
319.778	9.76
320.147	9.81
320.515	9.87
320.883	9.93
321.252	9.98
321.62	10.05
321.988	10.1
322.357	10.15
322.725	10.21
323.093	10.27
323.461	10.3
323.829	10.36
324.197	10.41
324.565	10.45
324.933	10.49
325.301	10.54
325.669	10.58
326.037	10.6
326.405	10.64
326.772	10.68
327.14	10.73
327.508	10.75
327.875	10.78
328.243	10.81
328.61	10.83
328.978	10.87
329.346	10.89
329.713	10.94
330.08	10.98
330.448	11
330.815	11.03
331.182	11.06
331.55	11.08
331.917	11.1
332.284	11.1
332.651	11.13
333.018	11.16
333.385	11.19
333.752	11.22
334.119	11.25
334.486	11.29
334.853	11.31
335.22	11.36
335.587	11.38
335.954	11.42
336.32	11.44
336.687	11.46
337.054	11.48
337.42	11.52
337.787	11.54
338.153	11.57
338.52	11.59
338.886	11.61
339.253	11.63
339.619	11.65
339.986	11.67
340.352	11.7
340.718	11.73
341.084	11.74
341.451	11.76
341.817	11.78
342.183	11.79
342.549	11.82
342.915	11.84
343.281	11.85
343.647	11.87
344.013	11.87
344.379	11.88
344.745	11.88
345.11	11.9
345.476	11.9
345.842	11.92
346.208	11.93
346.573	11.94
346.939	11.94
347.304	11.97
347.67	11.97
348.035	11.97
348.401	11.96
348.766	11.97
349.132	11.97
349.497	11.96
349.862	11.97
350.228	11.96
350.593	11.95
350.958	11.95
351.323	11.95
351.688	11.93
352.053	11.92
352.418	11.9
352.783	11.88
353.148	11.85
353.513	11.84
353.878	11.82
354.243	11.79
354.608	11.76
354.972	11.74
355.337	11.72
355.702	11.69
356.066	11.66
356.431	11.63
356.795	11.6
357.16	11.57
357.524	11.54
357.889	11.51
358.253	11.48
358.618	11.44
358.982	11.41
359.346	11.39
359.71	11.36
360.075	11.33
360.439	11.29
360.803	11.25
361.167	11.22
361.531	11.18
361.895	11.14
362.259	11.09
362.623	11.05
362.987	11
363.351	10.95
363.714	10.9
364.078	10.85
364.442	10.8
364.806	10.74
365.169	10.69
365.533	10.64
365.896	10.58
366.26	10.52
366.623	10.46
366.987	10.4
367.35	10.34
367.714	10.28
368.077	10.22
368.44	10.15
368.803	10.07
369.167	9.99
369.53	9.92
369.893	9.83
370.256	9.75
370.619	9.66
370.982	9.58
371.345	9.5
371.708	9.42
372.071	9.34
372.434	9.25
372.797	9.17
373.159	9.09
373.522	9.01
373.885	8.93
374.247	8.84
374.61	8.76
374.973	8.68
375.335	8.6
375.698	8.52
376.06	8.44
376.423	8.36
376.785	8.28
377.147	8.21
377.51	8.14
377.872	8.07
378.234	8
378.596	7.92
378.958	7.85
379.321	7.77
379.683	7.71
380.045	7.63
380.407	7.56
380.769	7.49
381.13	7.42
381.492	7.36
381.854	7.29
382.216	7.23
382.578	7.17
382.939	7.11
383.301	7.05
383.663	7
384.024	6.94
384.386	6.89
384.747	6.83
385.109	6.77
385.47	6.71
385.832	6.65
386.193	6.6
386.554	6.54
386.916	6.48
387.277	6.43
387.638	6.38
387.999	6.34
388.36	6.29
388.721	6.24
389.082	6.2
389.443	6.15
389.804	6.1
390.165	6.06
390.526	6.02
390.887	5.97
391.248	5.93
391.609	5.89
391.969	5.85
392.33	5.8
392.691	5.76
393.051	5.71
393.412	5.67
393.772	5.62
394.133	5.58
394.493	5.54
394.854	5.49
395.214	5.45
395.574	5.41
395.935	5.37
396.295	5.32
396.655	5.28
397.015	5.23
397.376	5.19
397.736	5.15
398.096	5.11
398.456	5.06
398.816	5.03
399.176	4.98
399.535	4.95
399.895	4.91
400.255	4.87
400.615	4.84
400.975	4.8
401.334	4.77
401.694	4.74
402.054	4.71
402.413	4.68
402.773	4.64
403.132	4.62
403.492	4.6
403.851	4.57
404.211	4.55
404.57	4.53
404.929	4.51
405.288	4.48
405.648	4.47
406.007	4.45
406.366	4.43
406.725	4.41
407.084	4.4
407.443	4.38
407.802	4.36
408.161	4.35
408.52	4.33
408.879	4.32
409.238	4.3
409.596	4.29
409.955	4.28
410.314	4.26
410.673	4.25
411.031	4.23
411.39	4.22
411.748	4.21
412.107	4.2
412.465	4.19
412.824	4.19
413.182	4.2
413.54	4.2
413.899	4.21
414.257	4.22
414.615	4.24
414.974	4.26
415.332	4.28
415.69	4.3
416.048	4.31
416.406	4.33
416.764	4.34
417.122	4.35
417.48	4.37
417.838	4.38
418.195	4.38
418.553	4.39
418.911	4.39
419.269	4.38
419.626	4.36
419.984	4.34
420.342	4.32
420.699	4.29
421.057	4.26
421.414	4.23
421.772	4.21
422.129	4.19
422.486	4.18
422.844	4.17
423.201	4.15
423.558	4.14
423.915	4.13
424.273	4.13
424.63	4.11
424.987	4.1
425.344	4.1
425.701	4.08
426.058	4.08
426.415	4.07
426.772	4.06
427.128	4.05
427.485	4.03
427.842	4.01
428.199	3.99
428.555	3.96
428.912	3.94
429.269	3.9
429.625	3.88
429.982	3.85
430.338	3.81
430.695	3.79
431.051	3.75
431.407	3.73
431.764	3.71
432.12	3.69
432.476	3.67
432.832	3.66
433.189	3.66
433.545	3.66
433.901	3.67
434.257	3.69
434.613	3.71
434.969	3.73
435.325	3.75
435.681	3.79
436.036	3.81
436.392	3.83
436.748	3.84
437.104	3.84
437.459	3.86
437.815	3.87
438.171	3.89
438.526	3.91
438.882	3.93
439.237	3.96
439.593	3.99
439.948	4.02
440.304	4.05
440.659	4.06
441.014	4.08
441.369	4.1
441.725	4.11
442.08	4.12
442.435	4.13
442.79	4.13
443.145	4.13
443.5	4.13
443.855	4.13
444.21	4.12
444.565	4.11
444.92	4.1
445.275	4.09
445.629	4.08
445.984	4.06
446.339	4.05
446.693	4.03
447.048	4.01
447.403	4
447.757	3.97
448.112	3.95
448.466	3.93
448.82	3.9
449.175	3.87
449.529	3.85
449.883	3.83
450.238	3.8
450.592	3.79
450.946	3.77
451.3	3.77
451.654	3.77
452.008	3.77
452.362	3.77
452.716	3.77
453.07	3.76
453.424	3.75
453.778	3.74
454.132	3.74
454.486	3.72
454.839	3.71
455.193	3.69
455.547	3.68
455.9	3.65
456.254	3.64
456.607	3.62
456.961	3.59
457.314	3.58
457.668	3.57
458.021	3.57
458.375	3.57
458.728	3.57
459.081	3.58
459.434	3.59
459.787	3.6
460.141	3.61
460.494	3.63
460.847	3.64
461.2	3.65
461.553	3.66
461.906	3.67
462.259	3.68
462.611	3.68
462.964	3.7
463.317	3.71
463.67	3.72
464.022	3.74
464.375	3.75
464.728	3.76
465.08	3.77
465.433	3.79
465.785	3.79
466.138	3.79
466.49	3.79
466.843	3.78
467.195	3.77
467.547	3.77
467.899	3.76
468.252	3.74
468.604	3.73
468.956	3.73
469.308	3.72
469.66	3.73
470.012	3.73
470.364	3.74
470.716	3.75
471.068	3.77
471.42	3.8
471.772	3.82
472.123	3.83
472.475	3.85
472.827	3.86
473.178	3.87
473.53	3.88
473.882	3.9
474.233	3.92
474.585	3.95
474.936	4.01
475.288	4.09
475.639	4.19
475.99	4.3
476.342	4.43
476.693	4.57
477.044	4.71
477.395	4.86
477.746	5.01
478.097	5.16
478.448	5.31
478.8	5.45
479.15	5.58
479.501	5.71
479.852	5.82
480.203	5.93
480.554	6.03
480.905	6.13
481.255	6.22
481.606	6.31
481.957	6.4
482.307	6.48
482.658	6.55
483.009	6.62
483.359	6.69
483.709	6.76
484.06	6.83
484.41	6.89
484.761	6.96
485.111	7.02
485.461	7.07
485.811	7.13
486.162	7.18
486.512	7.22
486.862	7.26
487.212	7.28
487.562	7.3
487.912	7.31
488.262	7.32
488.612	7.32
488.961	7.31
489.311	7.28
489.661	7.23
490.011	7.16
490.36	7.07
490.71	6.98
491.06	6.87
491.409	6.76
491.759	6.65
492.108	6.53
492.458	6.41
492.807	6.28
493.157	6.15
493.506	6.04
493.855	5.93
494.204	5.83
494.554	5.73
494.903	5.65
495.252	5.57
495.601	5.5
495.95	5.43
496.299	5.37
496.648	5.32
496.997	5.29
497.346	5.25
497.695	5.22
498.043	5.19
498.392	5.18
498.741	5.16
499.09	5.16
499.438	5.15
499.787	5.17
500.135	5.19
500.484	5.21
500.832	5.26
501.181	5.31
501.529	5.39
501.878	5.48
502.226	5.57
502.574	5.68
502.923	5.79
503.271	5.92
503.619	6.04
503.967	6.18
504.315	6.32
504.663	6.46
505.011	6.61
505.359	6.75
505.707	6.91
506.055	7.07
506.403	7.24
506.751	7.42
507.098	7.6
507.446	7.79
507.794	7.99
508.141	8.2
508.489	8.43
508.837	8.66
509.184	8.89
509.531	9.14
509.879	9.4
510.226	9.69
510.574	9.98
510.921	10.29
511.268	10.61
511.616	10.93
511.963	11.27
512.31	11.62
512.657	11.96
513.004	12.3
513.351	12.64
513.698	12.96
514.045	13.27
514.392	13.57
514.739	13.86
515.086	14.15
515.432	14.44
515.779	14.72
516.126	15.03
516.473	15.35
516.819	15.7
517.166	16.07
517.512	16.46
517.859	16.89
518.205	17.33
518.552	17.82
518.898	18.33
519.245	18.91
519.591	19.59
519.937	20.37
520.283	21.26
520.629	22.22
520.976	23.21
521.322	24.25
521.668	25.31
522.014	26.38
522.36	27.44
522.706	28.47
523.052	29.48
523.398	30.44
523.743	31.33
524.089	32.15
524.435	32.92
524.781	33.67
525.126	34.42
525.472	35.15
525.817	35.87
526.163	36.57
526.509	37.25
526.854	37.94
527.199	38.61
527.545	39.28
527.89	39.97
528.235	40.65
528.581	41.29
528.926	41.9
529.271	42.46
529.616	43.01
529.961	43.54
530.306	44.02
530.651	44.46
530.996	44.88
531.341	45.25
531.686	45.61
532.031	45.94
532.376	46.29
532.721	46.67
533.065	47.09
533.41	47.51
533.755	47.88
534.099	48.19
534.444	48.43
534.788	48.63
535.133	48.81
535.477	48.95
535.822	49.05
536.166	49.08
536.51	49.04
536.855	48.93
537.199	48.76
537.543	48.6
537.887	48.48
538.231	48.41
538.576	48.35
538.92	48.26
539.264	48.15
539.608	48.01
539.951	47.85
540.295	47.67
540.639	47.48
540.983	47.25
541.327	47
541.671	46.74
542.014	46.52
542.358	46.31
542.701	46.24
543.045	46.23
543.389	46.26
543.732	46.33
544.075	46.4
544.419	46.5
544.762	46.61
545.105	46.73
545.449	46.87
545.792	47.02
546.135	47.17
546.478	47.26
546.821	47.28
547.165	47.21
547.508	47.06
547.851	46.86
548.194	46.6
548.536	46.28
548.879	45.91
549.222	45.51
549.565	45.11
549.908	44.71
550.25	44.34
550.593	44.05
550.936	43.85
551.278	43.73
551.621	43.65
551.963	43.61
552.306	43.57
552.648	43.59
552.991	43.65
553.333	43.73
553.675	43.84
554.017	44
554.36	44.18
554.702	44.41
555.044	44.68
555.386	45.01
555.728	45.37
556.07	45.66
556.412	45.98
556.754	46.16
557.096	46.33
557.438	46.48
557.78	46.63
558.121	46.79
558.463	46.96
558.805	47.12
559.147	47.27
559.488	47.42
559.83	47.58
560.171	47.73
560.513	47.87
560.854	48.01
561.196	48.16
561.537	48.3
561.878	48.44
562.22	48.57
562.561	48.69
562.902	48.83
563.243	48.96
563.584	49.09
563.925	49.22
564.266	49.35
564.607	49.49
564.948	49.62
565.289	49.74
565.63	49.87
565.971	49.99
566.312	50.12
566.653	50.23
566.993	50.34
567.334	50.46
567.675	50.57
568.015	50.67
568.356	50.77
568.696	50.87
569.037	50.98
569.377	51.08
569.718	51.18
570.058	51.27
570.398	51.36
570.739	51.44
571.079	51.52
571.419	51.59
571.759	51.66
572.099	51.73
572.439	51.79
572.779	51.86
573.119	51.92
573.459	51.98
573.799	52.03
574.139	52.09
574.479	52.16
574.819	52.22
575.158	52.28
575.498	52.35
575.838	52.41
576.177	52.47
576.517	52.55
576.856	52.59
577.196	52.66
577.535	52.72
577.875	52.77
578.214	52.83
578.553	52.88
578.893	52.93
579.232	52.99
579.571	53.04
579.91	53.08
580.25	53.13
580.589	53.19
580.928	53.24
581.267	53.29
581.606	53.35
581.945	53.41
582.283	53.48
582.622	53.54
582.961	53.6
583.3	53.65
583.639	53.71
583.977	53.77
584.316	53.84
584.654	53.9
584.993	53.97
585.332	54.04
585.67	54.1
586.008	54.16
586.347	54.21
586.685	54.28
587.024	54.34
587.362	54.42
587.7	54.49
588.038	54.57
588.376	54.64
588.715	54.72
589.053	54.78
589.391	54.87
589.729	54.94
590.067	55.01
590.404	55.08
590.742	55.15
591.08	55.22
591.418	55.29
591.756	55.35
592.093	55.4
592.431	55.45
592.769	55.51
593.106	55.55
593.444	55.6
593.781	55.65
594.119	55.7
594.456	55.75
594.793	55.79
595.131	55.85
595.468	55.89
595.805	55.94
596.143	55.99
596.48	56.04
596.817	56.1
597.154	56.17
597.491	56.23
597.828	56.29
598.165	56.35
598.502	56.4
598.839	56.45
599.176	56.49
599.512	56.54
599.849	56.58
600.186	56.63
600.523	56.67
600.859	56.71
601.196	56.75
601.532	56.79
601.869	56.82
602.205	56.85
602.542	56.88
602.878	56.93
603.215	56.95
603.551	56.98
603.887	57.02
604.223	57.05
604.56	57.08
604.896	57.1
605.232	57.12
605.568	57.15
605.904	57.19
606.24	57.21
606.576	57.24
606.912	57.27
607.248	57.29
607.583	57.32
607.919	57.34
608.255	57.37
608.591	57.39
608.926	57.42
609.262	57.44
609.597	57.45
609.933	57.47
610.268	57.49
610.604	57.51
610.939	57.51
611.275	57.52
611.61	57.53
611.945	57.53
612.281	57.54
612.616	57.56
612.951	57.58
613.286	57.59
613.621	57.62
613.956	57.64
614.291	57.66
614.626	57.67
614.961	57.69
615.296	57.71
615.631	57.73
615.966	57.76
616.3	57.78
616.635	57.8
616.97	57.81
617.304	57.84
617.639	57.85
617.973	57.86
618.308	57.89
618.642	57.93
618.977	57.96
619.311	57.99
619.646	58.02
619.98	58.05
620.314	58.08
620.648	58.11
620.983	58.14
621.317	58.19
621.651	58.21
621.985	58.24
622.319	58.27
622.653	58.31
622.987	58.35
623.321	58.36
623.655	58.39
623.988	58.42
624.322	58.44
624.656	58.47
624.99	58.5
625.323	58.53
625.657	58.56
625.99	58.59
626.324	58.61
626.657	58.64
626.991	58.67
627.324	58.69
627.658	58.71
627.991	58.73
628.324	58.75
628.657	58.79
628.991	58.81
629.324	58.83
629.657	58.85
629.99	58.87
630.323	58.9
630.656	58.93
630.989	58.95
631.322	58.97
631.655	59
631.987	59.01
632.32	59.02
632.653	59.03
632.986	59.06
633.318	59.07
633.651	59.1
633.984	59.1
634.316	59.12
634.649	59.12
634.981	59.14
635.313	59.15
635.646	59.17
635.978	59.18
636.31	59.18
636.643	59.2
636.975	59.22
637.307	59.24
637.639	59.25
637.971	59.26
638.303	59.26
638.635	59.27
638.967	59.29
639.299	59.31
639.631	59.32
639.963	59.35
640.295	59.37
640.626	59.41
640.958	59.43
641.29	59.47
641.621	59.48
641.953	59.51
642.285	59.53
642.616	59.55
642.948	59.56
643.279	59.57
643.61	59.59
643.942	59.6
644.273	59.61
644.604	59.63
644.936	59.65
645.267	59.66
645.598	59.69
645.929	59.72
646.26	59.74
646.591	59.75
646.922	59.77
647.253	59.79
647.584	59.81
647.915	59.83
648.245	59.86
648.576	59.87
648.907	59.9
649.238	59.91
649.568	59.93
649.899	59.94
650.229	59.95
650.56	60
650.89	60.02
651.221	60.04
651.551	60.06
651.882	60.09
652.212	60.12
652.542	60.15
652.872	60.17
653.203	60.18
653.533	60.19
653.863	60.22
654.193	60.24
654.523	60.24
654.853	60.25
655.183	60.26
655.513	60.26
655.843	60.25
656.172	60.28
656.502	60.3
656.832	60.32
657.162	60.34
657.491	60.34
657.821	60.38
658.15	60.4
658.48	60.42
658.809	60.45
659.139	60.47
659.468	60.49
659.798	60.51
660.127	60.53
660.456	60.55
660.785	60.56
661.115	60.58
661.444	60.61
661.773	60.64
662.102	60.65
662.431	60.66
662.76	60.69
663.089	60.72
663.418	60.74
663.747	60.75
664.076	60.75
664.404	60.77
664.733	60.78
665.062	60.8
665.39	60.82
665.719	60.83
666.048	60.84
666.376	60.85
666.705	60.87
667.033	60.88
667.362	60.88
667.69	60.88
668.018	60.92
668.347	60.93
668.675	60.95
669.003	60.97
669.331	61
669.659	61.02
669.987	61.03
670.315	61.07
670.643	61.09
670.971	61.12
671.299	61.11
671.627	61.12
671.955	61.14
672.283	61.14
672.61	61.15
672.938	61.16
673.266	61.18
673.593	61.19
673.921	61.19
674.249	61.22
674.576	61.23
674.904	61.24
675.231	61.24
675.558	61.27
675.886	61.27
676.213	61.25
676.54	61.26
676.867	61.28
677.195	61.29
677.522	61.3
677.849	61.3
678.176	61.3
678.503	61.31
678.83	61.33
679.157	61.34
679.484	61.37
679.81	61.38
680.137	61.39
680.464	61.4
680.791	61.41
681.117	61.44
681.444	61.46
681.771	61.46
682.097	61.47
682.424	61.49
682.75	61.51
683.077	61.51
683.403	61.52
683.729	61.52
684.056	61.52
684.382	61.52
684.708	61.55
685.034	61.56
685.36	61.55
685.686	61.56
686.012	61.58
686.339	61.59
686.664	61.59
686.99	61.62
687.316	61.65
687.642	61.66
687.968	61.68
688.294	61.71
688.619	61.72
688.945	61.71
689.271	61.75
689.596	61.8
689.922	61.79
690.247	61.79
690.573	61.83
690.898	61.82
691.224	61.81
691.549	61.84
691.874	61.89
692.2	61.91
692.525	61.91
692.85	61.9
693.175	61.93
693.5	61.94
693.825	61.96
694.15	61.98
694.475	61.96
694.8	61.96
695.125	61.98
695.45	62.01
695.775	62.02
696.099	62.03
696.424	62.02
696.749	62.02
697.073	62.02
697.398	62.03
697.723	62.06
698.047	62.06
698.372	62.07
698.696	62.09
699.02	62.11
699.345	62.12
699.669	62.13
699.993	62.13
700.318	62.14
700.642	62.14
700.966	62.14
701.29	62.15
701.614	62.16
701.938	62.18
702.262	62.2
702.586	62.2
702.91	62.23
703.234	62.25
703.557	62.27
703.881	62.28
704.205	62.29
704.529	62.32
704.852	62.33
705.176	62.33
705.499	62.35
705.823	62.37
706.146	62.41
706.47	62.43
706.793	62.46
707.117	62.47
707.44	62.49
707.763	62.52
708.086	62.55
708.409	62.57
708.733	62.57
709.056	62.58
709.379	62.62
709.702	62.67
710.025	62.72
710.348	62.75
710.671	62.77
710.993	62.79
711.316	62.82
711.639	62.83
711.962	62.84
712.284	62.86
712.607	62.89
712.93	62.91
713.252	62.93
713.575	62.94
713.897	62.95
714.22	62.96
714.542	62.95
714.864	62.96
715.187	62.98
715.509	62.99
715.831	63
716.153	63
716.475	63.03
716.798	63.04
717.12	63.05
717.442	63.11
717.764	63.15
718.085	63.17
718.407	63.17
718.729	63.19
719.051	63.21
719.373	63.21
719.695	63.22
720.016	63.24
720.338	63.26
720.659	63.26
720.981	63.29
721.302	63.29
721.624	63.33
721.945	63.35
722.267	63.38
722.588	63.33
722.909	63.37
723.231	63.38
723.552	63.41
723.873	63.44
724.194	63.45
724.515	63.45
724.836	63.48
725.157	63.49
725.478	63.48
725.799	63.49
726.12	63.5
726.441	63.51
726.762	63.53
727.083	63.56
727.403	63.58
727.724	63.61
728.045	63.63
728.365	63.63
728.686	63.65
729.006	63.66
729.327	63.65
729.647	63.66
729.967	63.68
730.288	63.68
730.608	63.66
730.928	63.66
731.249	63.69
731.569	63.72
731.889	63.71
732.209	63.7
732.529	63.71
732.849	63.71
733.169	63.71
733.489	63.72
733.809	63.75
734.129	63.76
734.448	63.77
734.768	63.78
735.088	63.81
735.408	63.79
735.727	63.83
736.047	63.84
736.366	63.83
736.686	63.82
737.005	63.82
737.325	63.81
737.644	63.81
737.963	63.79
738.283	63.76
738.602	63.8
738.921	63.8
739.24	63.8
739.56	63.82
739.879	63.78
740.198	63.76
740.517	63.75
740.836	63.74
741.155	63.76
741.473	63.81
741.792	63.8
742.111	63.82
742.43	63.82
742.748	63.84
743.067	63.84
743.386	63.85
743.704	63.91
744.023	63.88
744.341	63.87
744.66	63.84
744.978	63.89
745.297	63.91
745.615	63.92
745.933	63.93
746.252	63.96
746.57	63.94
746.888	63.93
747.206	63.95
747.524	63.95
747.842	63.92
748.16	63.91
748.478	63.95
748.796	63.94
749.114	63.92
749.432	63.91
749.749	63.89
750.067	63.91
750.385	63.92
750.703	63.96
751.02	64
751.338	64.04
751.655	64.03
751.973	64.08
752.29	64.08
752.608	64.08
752.925	64.12
753.242	64.14
753.56	64.18
753.877	64.21
754.194	64.16
754.511	64.13
754.828	64.13
755.145	64.11
755.462	64.14
755.779	64.15
756.096	64.18
756.413	64.21
756.73	64.21
757.047	64.23
757.364	64.25
757.68	64.28
757.997	64.26
758.314	64.32
758.63	64.32
758.947	64.34
759.264	64.34
759.58	64.4
759.896	64.42
760.213	64.42
760.529	64.44
760.846	64.47
761.162	64.45
761.478	64.5
761.794	64.54
762.11	64.54
762.426	64.57
762.743	64.59
763.059	64.59
763.375	64.6
763.69	64.63
764.006	64.68
764.322	64.69
764.638	64.71
764.954	64.67
765.27	64.7
765.585	64.72
765.901	64.73
766.216	64.76
766.532	64.73
766.848	64.73
767.163	64.77
767.478	64.8
767.794	64.82
768.109	64.87
768.424	64.86
768.74	64.83
769.055	64.83
769.37	64.82
769.685	64.81
770	64.85
770.315	64.85
770.63	64.82
770.945	64.85
771.26	64.83
771.575	64.84
771.89	64.83
772.205	64.82
772.52	64.79
772.834	64.81
773.149	64.88
773.464	64.87
773.778	64.9
774.093	64.94
774.407	64.89
774.722	64.92
775.036	64.92
775.351	64.97
775.665	65
775.979	64.99
776.293	64.96
776.608	64.96
776.922	64.89
777.236	64.87
777.55	64.84
777.864	64.88
778.178	64.88
778.492	64.88
778.806	64.86
779.12	64.85
779.434	64.91
779.747	64.92
780.061	64.92
780.375	64.94
780.689	64.98
781.002	64.93
781.316	64.99
781.629	65.03
781.943	65.03
782.256	65.05
782.57	65.05
782.883	65.06
783.196	65.08
783.51	65.12
783.823	65.15
784.136	65.12
784.449	65.17
784.762	65.18
785.075	65.2
785.388	65.21
785.701	65.18
786.014	65.11
786.327	65.1
786.64	65.12
786.953	65.16
787.266	65.16
787.578	65.15
787.891	65.17
788.204	65.15
788.516	65.13
788.829	65.15
789.141	65.21
789.454	65.23
789.766	65.23
790.079	65.28
790.391	65.31
790.703	65.27
791.016	65.2
791.328	65.2
791.64	65.28
791.952	65.32
792.264	65.33
792.576	65.33
792.888	65.34
793.2	65.34
793.512	65.32
793.824	65.34
794.136	65.35
794.448	65.31
794.76	65.31
795.071	65.27
795.383	65.29
795.695	65.26
796.006	65.24
796.318	65.25
796.629	65.19
796.941	65.17
797.252	65.13
797.564	65.14
797.875	65.13
798.186	65.18
798.497	65.17
798.809	65.23
799.12	65.24
799.431	65.24
799.742	65.21
800.053	65.25
800.364	65.24
800.675	65.22
800.986	65.17
801.297	65.16
801.608	65.15
801.918	65.12
802.229	65.05
802.54	65.07
802.851	65.06
803.161	65.1
803.472	65.17
803.782	65.2
804.093	65.19
804.403	65.16
804.714	65.11
805.024	65.1
805.334	65.07
805.645	65.07
805.955	65.03
806.265	65.02
806.575	65.02
806.885	65.01
807.195	65
807.505	65
807.815	65.06
808.125	65.08
808.435	65.12
808.745	65.17
809.055	65.17
809.365	65.18
809.674	65.28
809.984	65.28
810.294	65.26
810.603	65.32
810.913	65.27
811.222	65.35
811.532	65.28
811.841	65.28
812.151	65.28
812.46	65.31
812.769	65.28
813.079	65.31
813.388	65.35
813.697	65.45
814.006	65.54
814.315	65.59
814.624	65.61
814.933	65.74
815.242	65.8
815.551	65.87
815.86	65.94
816.169	65.99
816.478	66.17
816.786	66.24
817.095	66.25
817.404	66.26
817.712	66.31
818.021	66.35
818.33	66.39
818.638	66.4
818.947	66.41
819.255	66.45
819.563	66.45
819.872	66.47
820.18	66.48
820.488	66.47
820.796	66.45
821.105	66.46
821.413	66.49
821.721	66.5
822.029	66.5
822.337	66.49
822.645	66.5
822.953	66.52
823.26	66.55
823.568	66.58
823.876	66.58
824.184	66.58
824.491	66.54
824.799	66.55
825.107	66.54
825.414	66.52
825.722	66.52
826.029	66.52
826.337	66.51
826.644	66.49
826.951	66.49
827.259	66.5
827.566	66.47
827.873	66.45
828.18	66.42
828.488	66.38
828.795	66.37
829.102	66.33
829.409	66.34
829.716	66.36
830.023	66.38
830.329	66.37
830.636	66.36
830.943	66.33
831.25	66.34
831.557	66.34
831.863	66.28
832.17	66.29
832.476	66.26
832.783	66.22
833.089	66.18
833.396	66.16
833.702	66.12
834.009	66.07
834.315	66.05
834.621	66.1
834.928	66.06
835.234	66.06
835.54	66.04
835.846	66.01
836.152	65.96
836.458	65.92
836.764	65.97
837.07	66.05
837.376	66.05
837.682	66.05
837.988	66.05
838.293	66.07
838.599	66.07
838.905	66.07
839.211	66.1
839.516	66.06
839.822	66.03
840.127	66.06
840.433	66.11
840.738	66.19
841.044	66.21
841.349	66.23
841.654	66.19
841.959	66.11
842.265	66.03
842.57	65.99
842.875	66
843.18	66.02
843.485	66.06
843.79	66.02
844.095	66.07
844.4	66.08
844.705	66.14
845.01	66.16
845.315	66.21
845.619	66.27
845.924	66.39
846.229	66.48
846.533	66.51
846.838	66.44
847.142	66.38
847.447	66.4
847.751	66.4
848.056	66.39
848.36	66.45
848.664	66.48
848.969	66.42
849.273	66.44
849.577	66.47
849.881	66.51
850.185	66.52
850.489	66.74
850.794	66.56
851.097	66.64
851.401	66.59
851.705	66.6
852.009	66.71
852.313	66.83
852.617	66.83
852.92	66.84
853.224	66.85
853.528	66.85
853.831	66.76
854.135	66.96
854.438	67.09
854.742	67.14
855.045	67.16
855.349	67.07
855.652	67.08
855.955	67.07
856.259	67.14
856.562	67.06
856.865	67.09
857.168	67
857.471	67.18
857.774	67.32
858.077	67.48
858.38	67.46
858.683	67.53
858.986	67.6
859.289	67.75
859.592	67.69
859.894	67.9
860.197	67.88
860.5	67.87
860.802	67.69
861.105	67.59
861.407	67.62
861.71	67.53
862.012	67.64
862.315	67.54
862.617	67.62
862.919	67.61
863.222	67.87
863.524	67.82
863.826	67.85
864.128	67.83
864.43	67.79
864.732	67.66
865.034	67.75
865.336	67.69
865.638	67.68
865.94	67.77
866.242	67.89
866.544	67.76
866.846	67.68
867.147	67.49
867.449	67.46
867.751	67.45
868.052	67.45
868.354	67.37
868.655	67.49
868.957	67.58
869.258	67.62
869.56	67.66
869.861	67.87
870.162	67.66
870.463	67.75
870.765	67.75
871.066	67.73
871.367	67.55
871.668	67.5
871.969	67.44
872.27	67.21
872.571	67.2
872.872	67.3
873.173	67.31
873.473	67.34
873.774	67.43
874.075	67.37
874.376	67.28
874.676	67.38
874.977	67.33
875.277	67.29
875.578	67.15
875.878	67.2
876.179	67.3
876.479	67.23
876.78	67.31
877.08	67.36
877.38	67.32
877.68	67.48
877.981	67.4
878.281	67.36
878.581	67.29
