Data from UWBM48344_Reflection_00011.txt Node
Date: Sun May 02 14:01:39 EDT 2021
User: vgr7
Spectrometer: USB2G7710
Scans to average: 10
Trigger mode: 4
Integration Time (sec): 1.000000E-1
Electric dark correction enabled: true
Boxcar width: 20
XAxis mode: Wavelengths
Number of Pixels in Spectrum: 2048
>>>>>Begin Spectral Data<<<<<
177.721	329.63
178.105	1385.19
178.488	471.6
178.871	307.41
179.254	135.74
179.636	88.05
180.019	75
180.402	57.99
180.785	53.57
181.168	47.97
181.55	36.42
181.933	33.83
182.316	34.42
182.698	34.18
183.081	32.07
183.463	29.31
183.846	24.8
184.228	27.23
184.611	21.38
184.993	20.39
185.376	18.75
185.758	19.63
186.14	22.78
186.522	20.94
186.904	17.13
187.287	18.54
187.669	14.48
188.051	13.48
188.433	14.81
188.815	11.31
189.197	10.48
189.579	12.05
189.961	11.91
190.342	9.81
190.724	8.65
191.106	7.71
191.488	8.8
191.869	10.34
192.251	9.75
192.633	8.88
193.014	9.28
193.396	8.41
193.777	6.29
194.159	6.91
194.54	5.96
194.922	6.61
195.303	5.83
195.684	4.08
196.065	3.52
196.447	2.66
196.828	1.38
197.209	1.45
197.59	-0.76
197.971	-0.84
198.352	0.5
198.733	0.71
199.114	1
199.495	2.58
199.876	1.35
200.257	3.3
200.638	1.79
201.018	3.56
201.399	5.17
201.78	5.63
202.16	5.76
202.541	6.24
202.922	6.42
203.302	5.77
203.683	6.89
204.063	6.97
204.444	7.27
204.824	7.25
205.204	6.96
205.585	8.06
205.965	9.22
206.345	9.88
206.725	10.6
207.106	10.07
207.486	9.73
207.866	12.1
208.246	12.32
208.626	10.79
209.006	11.84
209.386	12.31
209.766	11.68
210.145	11.96
210.525	12.13
210.905	14.21
211.285	15.17
211.664	17.49
212.044	17.19
212.424	18.62
212.803	19.14
213.183	20.54
213.562	20.43
213.942	20.22
214.321	19.66
214.701	19.87
215.08	19.81
215.459	21.08
215.838	19.33
216.218	20.08
216.597	19.09
216.976	17.91
217.355	17.47
217.734	16.49
218.113	16.37
218.492	15.28
218.871	15.35
219.25	15.14
219.629	15.15
220.008	14.61
220.387	13.38
220.766	13.99
221.144	12.87
221.523	11.92
221.902	11.26
222.28	11.02
222.659	11.24
223.037	10.07
223.416	9.6
223.794	9.1
224.173	9.95
224.551	9.52
224.929	10.35
225.308	10.45
225.686	10.11
226.064	9.65
226.442	9.05
226.821	9.03
227.199	8.49
227.577	8.66
227.955	8.74
228.333	8.61
228.711	8.27
229.089	7.92
229.467	7.51
229.845	7.47
230.222	7.2
230.6	6.56
230.978	6.23
231.356	6.54
231.733	6.49
232.111	6.32
232.488	6.39
232.866	6.16
233.243	6.1
233.621	6.19
233.998	6.2
234.376	6.26
234.753	6.06
235.13	5.97
235.508	6.08
235.885	6.2
236.262	6.01
236.639	6.03
237.016	6.05
237.393	6.05
237.77	6.05
238.147	5.91
238.524	5.94
238.901	5.81
239.278	5.78
239.655	5.7
240.032	5.66
240.409	5.63
240.785	5.62
241.162	5.62
241.539	5.63
241.915	5.64
242.292	5.63
242.668	5.65
243.045	5.65
243.421	5.62
243.798	5.64
244.174	5.68
244.551	5.67
244.927	5.67
245.303	5.68
245.679	5.71
246.056	5.71
246.432	5.68
246.808	5.64
247.184	5.65
247.56	5.67
247.936	5.68
248.312	5.69
248.688	5.7
249.064	5.69
249.44	5.67
249.815	5.63
250.191	5.6
250.567	5.61
250.943	5.56
251.318	5.51
251.694	5.5
252.069	5.46
252.445	5.43
252.82	5.4
253.196	5.37
253.571	5.37
253.947	5.36
254.322	5.33
254.697	5.32
255.073	5.3
255.448	5.29
255.823	5.27
256.198	5.26
256.573	5.23
256.948	5.22
257.323	5.19
257.698	5.16
258.073	5.12
258.448	5.09
258.823	5.07
259.198	5.03
259.573	5.01
259.948	4.98
260.322	4.96
260.697	4.96
261.072	4.91
261.446	4.89
261.821	4.9
262.195	4.89
262.57	4.87
262.944	4.87
263.319	4.88
263.693	4.88
264.067	4.85
264.442	4.83
264.816	4.81
265.19	4.83
265.564	4.82
265.938	4.81
266.313	4.82
266.687	4.82
267.061	4.82
267.435	4.82
267.809	4.82
268.183	4.83
268.556	4.82
268.93	4.83
269.304	4.83
269.678	4.84
270.051	4.83
270.425	4.82
270.799	4.81
271.172	4.81
271.546	4.8
271.919	4.8
272.293	4.79
272.666	4.79
273.04	4.8
273.413	4.82
273.787	4.84
274.16	4.83
274.533	4.85
274.906	4.85
275.279	4.85
275.653	4.87
276.026	4.87
276.399	4.89
276.772	4.93
277.145	4.91
277.518	4.93
277.891	4.95
278.263	4.94
278.636	4.94
279.009	4.91
279.382	4.93
279.755	4.95
280.127	4.97
280.5	4.99
280.872	5.01
281.245	5.01
281.617	5.02
281.99	5.03
282.362	5.04
282.735	5.05
283.107	5.05
283.479	5.03
283.852	5.05
284.224	5.04
284.596	5.03
284.968	5.03
285.34	5.03
285.713	5.04
286.085	5.06
286.457	5.07
286.829	5.07
287.201	5.1
287.572	5.11
287.944	5.14
288.316	5.14
288.688	5.14
289.06	5.15
289.431	5.18
289.803	5.2
290.175	5.22
290.546	5.25
290.918	5.27
291.289	5.28
291.661	5.3
292.032	5.31
292.403	5.33
292.775	5.36
293.146	5.38
293.517	5.39
293.889	5.4
294.26	5.44
294.631	5.47
295.002	5.49
295.373	5.51
295.744	5.52
296.115	5.54
296.486	5.58
296.857	5.61
297.228	5.64
297.599	5.67
297.97	5.7
298.34	5.73
298.711	5.76
299.082	5.79
299.452	5.83
299.823	5.87
300.194	5.9
300.564	5.94
300.935	5.96
301.305	5.99
301.676	6.02
302.046	6.06
302.416	6.09
302.787	6.11
303.157	6.14
303.527	6.17
303.897	6.22
304.267	6.25
304.637	6.28
305.008	6.33
305.378	6.37
305.748	6.4
306.117	6.43
306.487	6.49
306.857	6.54
307.227	6.57
307.597	6.62
307.967	6.65
308.336	6.69
308.706	6.74
309.076	6.77
309.445	6.8
309.815	6.83
310.184	6.86
310.554	6.91
310.923	6.96
311.293	6.98
311.662	7
312.031	7.03
312.401	7.07
312.77	7.1
313.139	7.14
313.508	7.18
313.877	7.23
314.246	7.26
314.616	7.29
314.985	7.34
315.353	7.38
315.722	7.41
316.091	7.46
316.46	7.48
316.829	7.54
317.198	7.58
317.567	7.61
317.935	7.65
318.304	7.68
318.672	7.72
319.041	7.76
319.41	7.8
319.778	7.85
320.147	7.86
320.515	7.9
320.883	7.92
321.252	7.96
321.62	7.98
321.988	8.02
322.357	8.05
322.725	8.08
323.093	8.12
323.461	8.12
323.829	8.16
324.197	8.2
324.565	8.2
324.933	8.24
325.301	8.25
325.669	8.28
326.037	8.29
326.405	8.32
326.772	8.35
327.14	8.36
327.508	8.37
327.875	8.38
328.243	8.4
328.61	8.4
328.978	8.41
329.346	8.43
329.713	8.44
330.08	8.45
330.448	8.46
330.815	8.47
331.182	8.48
331.55	8.5
331.917	8.5
332.284	8.5
332.651	8.52
333.018	8.55
333.385	8.57
333.752	8.59
334.119	8.59
334.486	8.62
334.853	8.64
335.22	8.66
335.587	8.67
335.954	8.69
336.32	8.7
336.687	8.71
337.054	8.71
337.42	8.73
337.787	8.75
338.153	8.76
338.52	8.78
338.886	8.78
339.253	8.78
339.619	8.8
339.986	8.82
340.352	8.83
340.718	8.84
341.084	8.84
341.451	8.85
341.817	8.87
342.183	8.88
342.549	8.9
342.915	8.91
343.281	8.93
343.647	8.94
344.013	8.95
344.379	8.96
344.745	8.96
345.11	8.96
345.476	8.97
345.842	8.98
346.208	8.98
346.573	8.99
346.939	8.99
347.304	9.01
347.67	9
348.035	9.01
348.401	9
348.766	9.01
349.132	9
349.497	9
349.862	8.98
350.228	8.99
350.593	8.98
350.958	8.99
351.323	8.99
351.688	9
352.053	9
352.418	8.99
352.783	8.97
353.148	8.96
353.513	8.96
353.878	8.94
354.243	8.93
354.608	8.91
354.972	8.89
355.337	8.88
355.702	8.87
356.066	8.85
356.431	8.83
356.795	8.81
357.16	8.79
357.524	8.78
357.889	8.75
358.253	8.73
358.618	8.7
358.982	8.68
359.346	8.68
359.71	8.66
360.075	8.65
360.439	8.62
360.803	8.6
361.167	8.59
361.531	8.58
361.895	8.56
362.259	8.53
362.623	8.51
362.987	8.48
363.351	8.46
363.714	8.44
364.078	8.41
364.442	8.38
364.806	8.36
365.169	8.33
365.533	8.31
365.896	8.28
366.26	8.25
366.623	8.21
366.987	8.18
367.35	8.14
367.714	8.11
368.077	8.08
368.44	8.04
368.803	8.01
369.167	7.98
369.53	7.94
369.893	7.9
370.256	7.85
370.619	7.81
370.982	7.77
371.345	7.73
371.708	7.69
372.071	7.65
372.434	7.61
372.797	7.57
373.159	7.53
373.522	7.5
373.885	7.46
374.247	7.4
374.61	7.35
374.973	7.31
375.335	7.28
375.698	7.22
376.06	7.18
376.423	7.12
376.785	7.07
377.147	7.04
377.51	7
377.872	6.96
378.234	6.91
378.596	6.87
378.958	6.84
379.321	6.8
379.683	6.76
380.045	6.72
380.407	6.69
380.769	6.65
381.13	6.6
381.492	6.58
381.854	6.54
382.216	6.5
382.578	6.47
382.939	6.44
383.301	6.4
383.663	6.37
384.024	6.32
384.386	6.29
384.747	6.26
385.109	6.23
385.47	6.2
385.832	6.16
386.193	6.13
386.554	6.1
386.916	6.07
387.277	6.04
387.638	6.01
387.999	5.98
388.36	5.95
388.721	5.93
389.082	5.9
389.443	5.88
389.804	5.85
390.165	5.83
390.526	5.81
390.887	5.79
391.248	5.77
391.609	5.75
391.969	5.72
392.33	5.7
392.691	5.67
393.051	5.65
393.412	5.63
393.772	5.61
394.133	5.59
394.493	5.56
394.854	5.54
395.214	5.51
395.574	5.48
395.935	5.46
396.295	5.44
396.655	5.41
397.015	5.39
397.376	5.37
397.736	5.34
398.096	5.32
398.456	5.3
398.816	5.28
399.176	5.26
399.535	5.24
399.895	5.22
400.255	5.2
400.615	5.19
400.975	5.17
401.334	5.15
401.694	5.13
402.054	5.12
402.413	5.1
402.773	5.08
403.132	5.07
403.492	5.05
403.851	5.04
404.211	5.02
404.57	5.01
404.929	4.99
405.288	4.98
405.648	4.98
406.007	4.97
406.366	4.95
406.725	4.95
407.084	4.94
407.443	4.93
407.802	4.92
408.161	4.91
408.52	4.9
408.879	4.89
409.238	4.89
409.596	4.88
409.955	4.88
410.314	4.87
410.673	4.86
411.031	4.86
411.39	4.86
411.748	4.85
412.107	4.85
412.465	4.86
412.824	4.88
413.182	4.89
413.54	4.91
413.899	4.93
414.257	4.96
414.615	5.01
414.974	5.03
415.332	5.07
415.69	5.1
416.048	5.13
416.406	5.17
416.764	5.2
417.122	5.22
417.48	5.26
417.838	5.28
418.195	5.3
418.553	5.32
418.911	5.33
419.269	5.33
419.626	5.32
419.984	5.31
420.342	5.28
420.699	5.26
421.057	5.23
421.414	5.21
421.772	5.19
422.129	5.17
422.486	5.16
422.844	5.15
423.201	5.15
423.558	5.14
423.915	5.13
424.273	5.13
424.63	5.12
424.987	5.12
425.344	5.11
425.701	5.1
426.058	5.1
426.415	5.09
426.772	5.08
427.128	5.07
427.485	5.06
427.842	5.04
428.199	5.02
428.555	4.99
428.912	4.96
429.269	4.92
429.625	4.89
429.982	4.85
430.338	4.82
430.695	4.79
431.051	4.74
431.407	4.72
431.764	4.69
432.12	4.67
432.476	4.66
432.832	4.64
433.189	4.64
433.545	4.64
433.901	4.66
434.257	4.68
434.613	4.71
434.969	4.74
435.325	4.77
435.681	4.82
436.036	4.84
436.392	4.86
436.748	4.88
437.104	4.89
437.459	4.91
437.815	4.93
438.171	4.96
438.526	4.98
438.882	5.02
439.237	5.06
439.593	5.1
439.948	5.13
440.304	5.18
440.659	5.2
441.014	5.23
441.369	5.26
441.725	5.28
442.08	5.3
442.435	5.31
442.79	5.32
443.145	5.32
443.5	5.32
443.855	5.32
444.21	5.32
444.565	5.32
444.92	5.31
445.275	5.29
445.629	5.28
445.984	5.27
446.339	5.25
446.693	5.24
447.048	5.22
447.403	5.2
447.757	5.17
448.112	5.14
448.466	5.11
448.82	5.08
449.175	5.05
449.529	5.03
449.883	5
450.238	4.97
450.592	4.96
450.946	4.95
451.3	4.94
451.654	4.95
452.008	4.94
452.362	4.95
452.716	4.94
453.07	4.94
453.424	4.94
453.778	4.92
454.132	4.91
454.486	4.9
454.839	4.87
455.193	4.85
455.547	4.83
455.9	4.8
456.254	4.78
456.607	4.74
456.961	4.71
457.314	4.68
457.668	4.67
458.021	4.67
458.375	4.66
458.728	4.66
459.081	4.66
459.434	4.67
459.787	4.68
460.141	4.69
460.494	4.7
460.847	4.71
461.2	4.72
461.553	4.73
461.906	4.74
462.259	4.74
462.611	4.75
462.964	4.76
463.317	4.77
463.67	4.77
464.022	4.79
464.375	4.79
464.728	4.8
465.08	4.81
465.433	4.82
465.785	4.82
466.138	4.81
466.49	4.79
466.843	4.78
467.195	4.76
467.547	4.74
467.899	4.71
468.252	4.69
468.604	4.66
468.956	4.64
469.308	4.63
469.66	4.63
470.012	4.63
470.364	4.63
470.716	4.64
471.068	4.67
471.42	4.69
471.772	4.72
472.123	4.74
472.475	4.75
472.827	4.77
473.178	4.78
473.53	4.8
473.882	4.81
474.233	4.84
474.585	4.88
474.936	4.96
475.288	5.06
475.639	5.19
475.99	5.35
476.342	5.51
476.693	5.7
477.044	5.88
477.395	6.08
477.746	6.27
478.097	6.47
478.448	6.67
478.8	6.86
479.15	7.04
479.501	7.21
479.852	7.36
480.203	7.5
480.554	7.64
480.905	7.77
481.255	7.89
481.606	8.01
481.957	8.12
482.307	8.22
482.658	8.32
483.009	8.42
483.359	8.52
483.709	8.61
484.06	8.7
484.41	8.78
484.761	8.86
485.111	8.94
485.461	9.02
485.811	9.09
486.162	9.15
486.512	9.2
486.862	9.25
487.212	9.28
487.562	9.3
487.912	9.31
488.262	9.31
488.612	9.31
488.961	9.29
489.311	9.24
489.661	9.16
490.011	9.06
490.36	8.94
490.71	8.81
491.06	8.66
491.409	8.5
491.759	8.34
492.108	8.16
492.458	7.99
492.807	7.81
493.157	7.63
493.506	7.45
493.855	7.3
494.204	7.14
494.554	7
494.903	6.87
495.252	6.74
495.601	6.62
495.95	6.51
496.299	6.41
496.648	6.31
496.997	6.22
497.346	6.14
497.695	6.05
498.043	5.98
498.392	5.91
498.741	5.84
499.09	5.78
499.438	5.73
499.787	5.68
500.135	5.64
500.484	5.6
500.832	5.59
501.181	5.58
501.529	5.6
501.878	5.62
502.226	5.66
502.574	5.71
502.923	5.76
503.271	5.81
503.619	5.87
503.967	5.92
504.315	5.98
504.663	6.04
505.011	6.1
505.359	6.16
505.707	6.23
506.055	6.29
506.403	6.37
506.751	6.45
507.098	6.53
507.446	6.61
507.794	6.7
508.141	6.79
508.489	6.9
508.837	7.01
509.184	7.12
509.531	7.23
509.879	7.35
510.226	7.47
510.574	7.61
510.921	7.75
511.268	7.89
511.616	8.04
511.963	8.21
512.31	8.36
512.657	8.52
513.004	8.68
513.351	8.83
513.698	8.97
514.045	9.11
514.392	9.24
514.739	9.36
515.086	9.47
515.432	9.59
515.779	9.7
516.126	9.82
516.473	9.95
516.819	10.09
517.166	10.25
517.512	10.42
517.859	10.6
518.205	10.8
518.552	11.02
518.898	11.26
519.245	11.53
519.591	11.86
519.937	12.25
520.283	12.69
520.629	13.18
520.976	13.69
521.322	14.23
521.668	14.78
522.014	15.35
522.36	15.91
522.706	16.47
523.052	17
523.398	17.51
523.743	17.99
524.089	18.41
524.435	18.82
524.781	19.21
525.126	19.6
525.472	19.99
525.817	20.36
526.163	20.72
526.509	21.09
526.854	21.44
527.199	21.79
527.545	22.15
527.89	22.52
528.235	22.89
528.581	23.23
528.926	23.56
529.271	23.88
529.616	24.18
529.961	24.48
530.306	24.76
530.651	25.03
530.996	25.27
531.341	25.49
531.686	25.7
532.031	25.89
532.376	26.11
532.721	26.35
533.065	26.61
533.41	26.88
533.755	27.12
534.099	27.35
534.444	27.54
534.788	27.71
535.133	27.87
535.477	28.02
535.822	28.13
536.166	28.21
536.51	28.25
536.855	28.23
537.199	28.2
537.543	28.17
537.887	28.16
538.231	28.19
538.576	28.21
538.92	28.23
539.264	28.24
539.608	28.23
539.951	28.2
540.295	28.16
540.639	28.12
540.983	28.06
541.327	27.98
541.671	27.9
542.014	27.83
542.358	27.78
542.701	27.8
543.045	27.86
543.389	27.95
543.732	28.06
544.075	28.18
544.419	28.31
544.762	28.45
545.105	28.61
545.449	28.77
545.792	28.94
546.135	29.11
546.478	29.24
546.821	29.34
547.165	29.39
547.508	29.39
547.851	29.36
548.194	29.3
548.536	29.19
548.879	29.06
549.222	28.92
549.565	28.76
549.908	28.61
550.25	28.48
550.593	28.4
550.936	28.38
551.278	28.4
551.621	28.45
551.963	28.52
552.306	28.61
552.648	28.73
552.991	28.86
553.333	29.02
553.675	29.21
554.017	29.42
554.36	29.66
554.702	29.93
555.044	30.22
555.386	30.55
555.728	30.92
556.07	31.25
556.412	31.58
556.754	31.84
557.096	32.06
557.438	32.29
557.78	32.5
558.121	32.73
558.463	32.96
558.805	33.19
559.147	33.41
559.488	33.64
559.83	33.87
560.171	34.09
560.513	34.31
560.854	34.53
561.196	34.75
561.537	34.97
561.878	35.17
562.22	35.38
562.561	35.57
562.902	35.77
563.243	35.97
563.584	36.17
563.925	36.36
564.266	36.56
564.607	36.76
564.948	36.95
565.289	37.14
565.63	37.33
565.971	37.51
566.312	37.71
566.653	37.89
566.993	38.06
567.334	38.23
567.675	38.4
568.015	38.56
568.356	38.72
568.696	38.87
569.037	39.03
569.377	39.17
569.718	39.32
570.058	39.45
570.398	39.59
570.739	39.72
571.079	39.84
571.419	39.96
571.759	40.09
572.099	40.21
572.439	40.33
572.779	40.44
573.119	40.55
573.459	40.67
573.799	40.78
574.139	40.9
574.479	41.01
574.819	41.12
575.158	41.23
575.498	41.33
575.838	41.44
576.177	41.54
576.517	41.65
576.856	41.75
577.196	41.85
577.535	41.96
577.875	42.06
578.214	42.16
578.553	42.25
578.893	42.34
579.232	42.43
579.571	42.54
579.91	42.64
580.25	42.73
580.589	42.83
580.928	42.92
581.267	43.03
581.606	43.13
581.945	43.23
582.283	43.33
582.622	43.44
582.961	43.55
583.3	43.65
583.639	43.75
583.977	43.85
584.316	43.95
584.654	44.06
584.993	44.15
585.332	44.27
585.67	44.36
586.008	44.45
586.347	44.57
586.685	44.65
587.024	44.75
587.362	44.84
587.7	44.94
588.038	45.04
588.376	45.14
588.715	45.24
589.053	45.34
589.391	45.44
589.729	45.55
590.067	45.66
590.404	45.76
590.742	45.86
591.08	45.96
591.418	46.04
591.756	46.13
592.093	46.21
592.431	46.29
592.769	46.36
593.106	46.44
593.444	46.51
593.781	46.58
594.119	46.64
594.456	46.7
594.793	46.78
595.131	46.84
595.468	46.91
595.805	46.99
596.143	47.07
596.48	47.15
596.817	47.22
597.154	47.32
597.491	47.41
597.828	47.48
598.165	47.57
598.502	47.64
598.839	47.71
599.176	47.76
599.512	47.82
599.849	47.88
600.186	47.93
600.523	47.98
600.859	48.05
601.196	48.11
601.532	48.17
601.869	48.22
602.205	48.28
602.542	48.33
602.878	48.39
603.215	48.44
603.551	48.48
603.887	48.52
604.223	48.56
604.56	48.6
604.896	48.63
605.232	48.67
605.568	48.71
605.904	48.73
606.24	48.77
606.576	48.81
606.912	48.85
607.248	48.89
607.583	48.92
607.919	48.96
608.255	49
608.591	49.04
608.926	49.07
609.262	49.09
609.597	49.12
609.933	49.14
610.268	49.17
610.604	49.19
610.939	49.21
611.275	49.23
611.61	49.26
611.945	49.27
612.281	49.3
612.616	49.32
612.951	49.36
613.286	49.39
613.621	49.42
613.956	49.46
614.291	49.49
614.626	49.51
614.961	49.54
615.296	49.57
615.631	49.59
615.966	49.61
616.3	49.64
616.635	49.65
616.97	49.67
617.304	49.69
617.639	49.72
617.973	49.74
618.308	49.78
618.642	49.82
618.977	49.85
619.311	49.89
619.646	49.93
619.98	49.98
620.314	50.02
620.648	50.05
620.983	50.08
621.317	50.1
621.651	50.14
621.985	50.16
622.319	50.2
622.653	50.24
622.987	50.26
623.321	50.28
623.655	50.32
623.988	50.35
624.322	50.37
624.656	50.39
624.99	50.41
625.323	50.43
625.657	50.44
625.99	50.46
626.324	50.48
626.657	50.5
626.991	50.53
627.324	50.55
627.658	50.57
627.991	50.6
628.324	50.61
628.657	50.64
628.991	50.67
629.324	50.7
629.657	50.72
629.99	50.74
630.323	50.76
630.656	50.79
630.989	50.8
631.322	50.82
631.655	50.84
631.987	50.86
632.32	50.89
632.653	50.91
632.986	50.92
633.318	50.94
633.651	50.96
633.984	50.97
634.316	50.98
634.649	51.01
634.981	51.02
635.313	51.04
635.646	51.06
635.978	51.08
636.31	51.09
636.643	51.12
636.975	51.13
637.307	51.14
637.639	51.15
637.971	51.18
638.303	51.2
638.635	51.21
638.967	51.24
639.299	51.27
639.631	51.31
639.963	51.34
640.295	51.37
640.626	51.39
640.958	51.4
641.29	51.42
641.621	51.44
641.953	51.47
642.285	51.49
642.616	51.5
642.948	51.51
643.279	51.54
643.61	51.55
643.942	51.58
644.273	51.6
644.604	51.63
644.936	51.65
645.267	51.68
645.598	51.7
645.929	51.71
646.26	51.74
646.591	51.76
646.922	51.77
647.253	51.78
647.584	51.83
647.915	51.87
648.245	51.89
648.576	51.92
648.907	51.93
649.238	51.95
649.568	51.95
649.899	51.97
650.229	52
650.56	52.02
650.89	52.05
651.221	52.08
651.551	52.1
651.882	52.12
652.212	52.15
652.542	52.17
652.872	52.18
653.203	52.19
653.533	52.22
653.863	52.23
654.193	52.24
654.523	52.27
654.853	52.28
655.183	52.28
655.513	52.29
655.843	52.31
656.172	52.33
656.502	52.35
656.832	52.35
657.162	52.38
657.491	52.41
657.821	52.43
658.15	52.46
658.48	52.47
658.809	52.48
659.139	52.5
659.468	52.51
659.798	52.51
660.127	52.52
660.456	52.53
660.785	52.54
661.115	52.54
661.444	52.56
661.773	52.56
662.102	52.58
662.431	52.59
662.76	52.6
663.089	52.63
663.418	52.64
663.747	52.66
664.076	52.68
664.404	52.69
664.733	52.7
665.062	52.72
665.39	52.74
665.719	52.75
666.048	52.78
666.376	52.81
666.705	52.83
667.033	52.84
667.362	52.87
667.69	52.89
668.018	52.93
668.347	52.97
668.675	53.01
669.003	53.04
669.331	53.05
669.659	53.07
669.987	53.07
670.315	53.1
670.643	53.1
670.971	53.12
671.299	53.13
671.627	53.13
671.955	53.16
672.283	53.19
672.61	53.21
672.938	53.23
673.266	53.26
673.593	53.29
673.921	53.32
674.249	53.34
674.576	53.36
674.904	53.36
675.231	53.38
675.558	53.41
675.886	53.43
676.213	53.44
676.54	53.47
676.867	53.5
677.195	53.48
677.522	53.51
677.849	53.53
678.176	53.54
678.503	53.55
678.83	53.56
679.157	53.57
679.484	53.57
679.81	53.57
680.137	53.6
680.464	53.62
680.791	53.63
681.117	53.64
681.444	53.64
681.771	53.64
682.097	53.64
682.424	53.66
682.75	53.67
683.077	53.7
683.403	53.72
683.729	53.74
684.056	53.73
684.382	53.73
684.708	53.73
685.034	53.76
685.36	53.77
685.686	53.77
686.012	53.79
686.339	53.79
686.664	53.79
686.99	53.8
687.316	53.82
687.642	53.82
687.968	53.86
688.294	53.9
688.619	53.92
688.945	53.95
689.271	53.98
689.596	54.02
689.922	54.03
690.247	54.06
690.573	54.09
690.898	54.1
691.224	54.11
691.549	54.12
691.874	54.14
692.2	54.15
692.525	54.18
692.85	54.21
693.175	54.23
693.5	54.23
693.825	54.23
694.15	54.25
694.475	54.25
694.8	54.25
695.125	54.26
695.45	54.3
695.775	54.3
696.099	54.31
696.424	54.32
696.749	54.33
697.073	54.35
697.398	54.39
697.723	54.4
698.047	54.42
698.372	54.45
698.696	54.48
699.02	54.49
699.345	54.5
699.669	54.52
699.993	54.55
700.318	54.57
700.642	54.59
700.966	54.61
701.29	54.58
701.614	54.59
701.938	54.6
702.262	54.59
702.586	54.59
702.91	54.58
703.234	54.58
703.557	54.58
703.881	54.59
704.205	54.61
704.529	54.65
704.852	54.69
705.176	54.72
705.499	54.74
705.823	54.74
706.146	54.73
706.47	54.75
706.793	54.78
707.117	54.81
707.44	54.82
707.763	54.85
708.086	54.86
708.409	54.89
708.733	54.91
709.056	54.94
709.379	54.95
709.702	54.95
710.025	54.97
710.348	54.99
710.671	54.99
710.993	55.03
711.316	55.04
711.639	55.03
711.962	55.02
712.284	55.05
712.607	55.07
712.93	55.09
713.252	55.11
713.575	55.13
713.897	55.15
714.22	55.15
714.542	55.18
714.864	55.17
715.187	55.21
715.509	55.22
715.831	55.23
716.153	55.26
716.475	55.28
716.798	55.29
717.12	55.31
717.442	55.33
717.764	55.33
718.085	55.32
718.407	55.32
718.729	55.36
719.051	55.37
719.373	55.39
719.695	55.42
720.016	55.43
720.338	55.47
720.659	55.51
720.981	55.55
721.302	55.58
721.624	55.59
721.945	55.57
722.267	55.56
722.588	55.61
722.909	55.61
723.231	55.62
723.552	55.62
723.873	55.65
724.194	55.69
724.515	55.73
724.836	55.77
725.157	55.79
725.478	55.82
725.799	55.85
726.12	55.86
726.441	55.87
726.762	55.88
727.083	55.87
727.403	55.88
727.724	55.9
728.045	55.92
728.365	55.94
728.686	55.93
729.006	55.93
729.327	55.95
729.647	55.95
729.967	55.95
730.288	55.96
730.608	55.95
730.928	55.96
731.249	55.98
731.569	55.99
731.889	56
732.209	56.01
732.529	56.03
732.849	56.03
733.169	56.03
733.489	56.04
733.809	56
734.129	55.98
734.448	56
734.768	55.99
735.088	56.02
735.408	56.05
735.727	56.03
736.047	56.05
736.366	56.05
736.686	56.06
737.005	56.06
737.325	56.06
737.644	56.05
737.963	56.01
738.283	56.02
738.602	56.01
738.921	55.99
739.24	56
739.56	55.98
739.879	55.98
740.198	56
740.517	55.98
740.836	55.99
741.155	56.02
741.473	55.99
741.792	55.99
742.111	56
742.43	55.96
742.748	55.96
743.067	55.98
743.386	56
743.704	56.01
744.023	56.05
744.341	56.07
744.66	56.07
744.978	56.03
745.297	56.03
745.615	56.03
745.933	56.06
746.252	56.07
746.57	56.05
746.888	56.07
747.206	56.04
747.524	56.05
747.842	56.06
748.16	56.01
748.478	56.01
748.796	56.01
749.114	56.02
749.432	56.06
749.749	56.03
750.067	56.01
750.385	56
750.703	55.99
751.02	56
751.338	55.98
751.655	55.97
751.973	55.96
752.29	55.93
752.608	55.95
752.925	55.97
753.242	55.98
753.56	56.03
753.877	56.03
754.194	56.03
754.511	56.08
754.828	56.09
755.145	56.12
755.462	56.16
755.779	56.2
756.096	56.24
756.413	56.27
756.73	56.3
757.047	56.29
757.364	56.29
757.68	56.33
757.997	56.35
758.314	56.41
758.63	56.42
758.947	56.41
759.264	56.42
759.58	56.42
759.896	56.48
760.213	56.53
760.529	56.56
760.846	56.55
761.162	56.63
761.478	56.65
761.794	56.68
762.11	56.71
762.426	56.7
762.743	56.73
763.059	56.74
763.375	56.73
763.69	56.75
764.006	56.78
764.322	56.82
764.638	56.82
764.954	56.84
765.27	56.85
765.585	56.84
765.901	56.84
766.216	56.85
766.532	56.82
766.848	56.83
767.163	56.81
767.478	56.8
767.794	56.82
768.109	56.81
768.424	56.81
768.74	56.79
769.055	56.76
769.37	56.76
769.685	56.72
770	56.74
770.315	56.74
770.63	56.75
770.945	56.73
771.26	56.71
771.575	56.73
771.89	56.7
772.205	56.71
772.52	56.73
772.834	56.7
773.149	56.67
773.464	56.7
773.778	56.71
774.093	56.7
774.407	56.68
774.722	56.65
775.036	56.62
775.351	56.66
775.665	56.68
775.979	56.7
776.293	56.68
776.608	56.73
776.922	56.74
777.236	56.75
777.55	56.77
777.864	56.79
778.178	56.76
778.492	56.8
778.806	56.81
779.12	56.83
779.434	56.87
779.747	56.83
780.061	56.85
780.375	56.88
780.689	56.87
781.002	56.88
781.316	56.87
781.629	56.88
781.943	56.92
782.256	56.88
782.57	56.93
782.883	56.9
783.196	56.92
783.51	56.92
783.823	56.95
784.136	56.93
784.449	56.95
784.762	56.99
785.075	56.96
785.388	56.97
785.701	56.93
786.014	56.97
786.327	56.91
786.64	56.9
786.953	56.85
787.266	56.88
787.578	56.91
787.891	56.9
788.204	56.84
788.516	56.83
788.829	56.84
789.141	56.85
789.454	56.82
789.766	56.82
790.079	56.79
790.391	56.81
790.703	56.81
791.016	56.86
791.328	56.83
791.64	56.82
791.952	56.79
792.264	56.76
792.576	56.85
792.888	56.81
793.2	56.86
793.512	56.88
793.824	56.87
794.136	56.87
794.448	56.83
794.76	56.84
795.071	56.87
795.383	56.84
795.695	56.87
796.006	56.89
796.318	56.85
796.629	56.85
796.941	56.86
797.252	56.83
797.564	56.87
797.875	56.84
798.186	56.9
798.497	56.91
798.809	56.93
799.12	56.93
799.431	56.93
799.742	56.96
800.053	56.97
800.364	56.98
800.675	57.04
800.986	57.06
801.297	57.09
801.608	57.08
801.918	57.15
802.229	57.13
802.54	57.12
802.851	57.14
803.161	57.11
803.472	57.15
803.782	57.17
804.093	57.26
804.403	57.28
804.714	57.36
805.024	57.41
805.334	57.38
805.645	57.45
805.955	57.42
806.265	57.4
806.575	57.41
806.885	57.4
807.195	57.41
807.505	57.4
807.815	57.42
808.125	57.48
808.435	57.45
808.745	57.38
809.055	57.35
809.365	57.35
809.674	57.38
809.984	57.37
810.294	57.38
810.603	57.41
810.913	57.39
811.222	57.42
811.532	57.37
811.841	57.44
812.151	57.45
812.46	57.4
812.769	57.35
813.079	57.36
813.388	57.28
813.697	57.25
814.006	57.24
814.315	57.26
814.624	57.24
814.933	57.25
815.242	57.19
815.551	57.15
815.86	57.24
816.169	57.27
816.478	57.29
816.786	57.3
817.095	57.35
817.404	57.33
817.712	57.35
818.021	57.34
818.33	57.33
818.638	57.33
818.947	57.34
819.255	57.4
819.563	57.43
819.872	57.52
820.18	57.53
820.488	57.55
820.796	57.56
821.105	57.6
821.413	57.65
821.721	57.68
822.029	57.7
822.337	57.7
822.645	57.72
822.953	57.72
823.26	57.72
823.568	57.73
823.876	57.73
824.184	57.74
824.491	57.71
824.799	57.73
825.107	57.77
825.414	57.78
825.722	57.78
826.029	57.82
826.337	57.85
826.644	57.85
826.951	57.85
827.259	57.84
827.566	57.85
827.873	57.86
828.18	57.88
828.488	57.86
828.795	57.86
829.102	57.84
829.409	57.82
829.716	57.84
830.023	57.87
830.329	57.84
830.636	57.88
830.943	57.88
831.25	57.89
831.557	57.91
831.863	57.91
832.17	57.92
832.476	57.85
832.783	57.82
833.089	57.79
833.396	57.78
833.702	57.72
834.009	57.68
834.315	57.69
834.621	57.67
834.928	57.62
835.234	57.6
835.54	57.59
835.846	57.58
836.152	57.51
836.458	57.5
836.764	57.47
837.07	57.51
837.376	57.45
837.682	57.44
837.988	57.42
838.293	57.38
838.599	57.32
838.905	57.23
839.211	57.18
839.516	57.13
839.822	57.15
840.127	57.15
840.433	57.21
840.738	57.21
841.044	57.24
841.349	57.17
841.654	57.18
841.959	57.15
842.265	57.08
842.57	57.03
842.875	57.11
843.18	57.05
843.485	57.05
843.79	57.02
844.095	56.96
844.4	56.9
844.705	56.92
845.01	56.88
845.315	56.9
845.619	56.92
845.924	56.94
846.229	56.98
846.533	57.13
846.838	57.03
847.142	56.96
847.447	57.09
847.751	57.08
848.056	57.08
848.36	57.11
848.664	57.26
848.969	57.3
849.273	57.35
849.577	57.36
849.881	57.59
850.185	57.48
850.489	57.51
850.794	57.61
851.097	57.57
851.401	57.65
851.705	57.76
852.009	57.92
852.313	57.85
852.617	57.75
852.92	57.72
853.224	57.74
853.528	57.8
853.831	57.9
854.135	58.03
854.438	58.05
854.742	57.95
855.045	57.97
855.349	58.03
855.652	58.01
855.955	58.08
856.259	58.12
856.562	58.17
856.865	58.23
857.168	58.21
857.471	58.26
857.774	58.32
858.077	58.31
858.38	58.17
858.683	58.3
858.986	58.1
859.289	58.16
859.592	58.49
859.894	58.54
860.197	58.46
860.5	58.47
860.802	58.43
861.105	58.37
861.407	58.34
861.71	58.29
862.012	58.4
862.315	58.35
862.617	58.38
862.919	58.45
863.222	58.46
863.524	58.63
863.826	58.67
864.128	58.68
864.43	58.6
864.732	58.58
865.034	58.71
865.336	58.74
865.638	58.7
865.94	58.51
866.242	58.55
866.544	58.42
866.846	58.54
867.147	58.57
867.449	58.62
867.751	58.52
868.052	58.56
868.354	58.64
868.655	58.6
868.957	58.51
869.258	58.47
869.56	58.56
869.861	58.64
870.162	58.64
870.463	58.7
870.765	58.73
871.066	58.69
871.367	58.63
871.668	58.63
871.969	58.5
872.27	58.4
872.571	58.43
872.872	58.43
873.173	58.57
873.473	58.6
873.774	58.56
874.075	58.6
874.376	58.44
874.676	58.37
874.977	58.37
875.277	58.27
875.578	58.26
875.878	58.11
876.179	58.11
876.479	58.15
876.78	58.23
877.08	58.33
877.38	58.24
877.68	58.19
877.981	58.13
878.281	58.35
878.581	58.26
