Data from UWBM122617_Reflection_00016.txt Node
Date: Sun May 02 12:18:50 EDT 2021
User: vgr7
Spectrometer: USB2G7710
Scans to average: 10
Trigger mode: 4
Integration Time (sec): 1.000000E-1
Electric dark correction enabled: true
Boxcar width: 10
XAxis mode: Wavelengths
Number of Pixels in Spectrum: 2048
>>>>>Begin Spectral Data<<<<<
177.721	-1585
178.105	63.64
178.488	44.26
178.871	59.49
179.254	-13.46
179.636	276.36
180.019	56.7
180.402	85
180.785	50.6
181.168	52.44
181.55	60.07
181.933	43.35
182.316	80.66
182.698	223.24
183.081	122.54
183.463	55.36
183.846	20.11
184.228	-15.69
184.611	-19.5
184.993	1.81
185.376	12.77
185.758	9.07
186.14	0.38
186.522	5.25
186.904	6.15
187.287	1.17
187.669	6.89
188.051	4.45
188.433	6.55
188.815	4.71
189.197	4.78
189.579	4.99
189.961	8.52
190.342	2.25
190.724	4.72
191.106	6.39
191.488	7.28
191.869	7.5
192.251	8.95
192.633	11.57
193.014	8.62
193.396	7.78
193.777	13.32
194.159	12.22
194.54	8.49
194.922	6.54
195.303	9.83
195.684	8.12
196.065	6.58
196.447	4.73
196.828	2.93
197.209	-1.82
197.59	-7.5
197.971	-11.49
198.352	-8.96
198.733	-4.4
199.114	-7.48
199.495	-4.85
199.876	-6.27
200.257	-6.55
200.638	-6.24
201.018	-4.65
201.399	-7.26
201.78	-16.4
202.16	-15.57
202.541	-13.01
202.922	-11.79
203.302	-13.25
203.683	-11.81
204.063	-12.23
204.444	-9.71
204.824	-5.94
205.204	-2.1
205.585	-0.91
205.965	-0.75
206.345	3.06
206.725	-5.9
207.106	-4.12
207.486	-6.94
207.866	-6.1
208.246	-8.32
208.626	-8.14
209.006	-5.49
209.386	-5.82
209.766	-0.2
210.145	1.17
210.525	-4.15
210.905	-4.8
211.285	-2.91
211.664	-4.2
212.044	-4.73
212.424	-4.18
212.803	-8.79
213.183	-6.59
213.562	-6.51
213.942	-7.85
214.321	-12.53
214.701	-12.71
215.08	-11.56
215.459	-10
215.838	-9.98
216.218	-4.79
216.597	-3.23
216.976	-6.95
217.355	-6.61
217.734	-7.98
218.113	-9.7
218.492	-6.55
218.871	-4.09
219.25	-4.3
219.629	-1.38
220.008	-1.66
220.387	-4
220.766	-5.19
221.144	-7.22
221.523	-3.2
221.902	-1.56
222.28	0.79
222.659	1.16
223.037	1.54
223.416	4.19
223.794	5.32
224.173	4.77
224.551	3.5
224.929	3.73
225.308	5.71
225.686	4.91
226.064	4.42
226.442	5.68
226.821	5.57
227.199	4.68
227.577	2.86
227.955	3.55
228.333	4
228.711	4.44
229.089	5.55
229.467	4.55
229.845	4.96
230.222	5.07
230.6	6.17
230.978	6.64
231.356	5.04
231.733	4.5
232.111	4.23
232.488	3.75
232.866	2.98
233.243	2.36
233.621	3.07
233.998	2.65
234.376	3.13
234.753	3.46
235.13	4.05
235.508	5.33
235.885	5.15
236.262	5.56
236.639	6.45
237.016	6.12
237.393	6.07
237.77	5.61
238.147	5.48
238.524	5.59
238.901	5.42
239.278	5.51
239.655	5.74
240.032	5.7
240.409	5.88
240.785	5.94
241.162	5.98
241.539	6.02
241.915	6.11
242.292	6.08
242.668	5.87
243.045	5.7
243.421	5.38
243.798	5.37
244.174	5.34
244.551	5.13
244.927	5.02
245.303	5.04
245.679	5.15
246.056	5.06
246.432	5.04
246.808	5.03
247.184	5.05
247.56	4.98
247.936	4.98
248.312	4.95
248.688	4.99
249.064	4.99
249.44	4.89
249.815	4.87
250.191	4.75
250.567	4.71
250.943	4.76
251.318	4.85
251.694	4.8
252.069	4.7
252.445	4.85
252.82	4.86
253.196	4.84
253.571	4.75
253.947	4.86
254.322	4.85
254.697	4.81
255.073	4.74
255.448	4.7
255.823	4.61
256.198	4.54
256.573	4.52
256.948	4.44
257.323	4.5
257.698	4.43
258.073	4.43
258.448	4.5
258.823	4.49
259.198	4.45
259.573	4.43
259.948	4.46
260.322	4.4
260.697	4.4
261.072	4.36
261.446	4.38
261.821	4.4
262.195	4.34
262.57	4.34
262.944	4.33
263.319	4.35
263.693	4.37
264.067	4.39
264.442	4.4
264.816	4.4
265.19	4.38
265.564	4.46
265.938	4.44
266.313	4.38
266.687	4.29
267.061	4.31
267.435	4.3
267.809	4.29
268.183	4.3
268.556	4.33
268.93	4.4
269.304	4.33
269.678	4.24
270.051	4.22
270.425	4.21
270.799	4.24
271.172	4.23
271.546	4.25
271.919	4.28
272.293	4.2
272.666	4.15
273.04	4.14
273.413	4.03
273.787	4.02
274.16	4.03
274.533	4.05
274.906	4.03
275.279	4.06
275.653	4.04
276.026	3.95
276.399	3.89
276.772	3.86
277.145	3.95
277.518	3.96
277.891	4.02
278.263	4.01
278.636	4.04
279.009	4.05
279.382	3.99
279.755	3.95
280.127	4.06
280.5	4.12
280.872	4.09
281.245	4.19
281.617	4.23
281.99	4.26
282.362	4.27
282.735	4.28
283.107	4.28
283.479	4.32
283.852	4.38
284.224	4.42
284.596	4.42
284.968	4.36
285.34	4.35
285.713	4.37
286.085	4.36
286.457	4.34
286.829	4.34
287.201	4.36
287.572	4.4
287.944	4.38
288.316	4.42
288.688	4.47
289.06	4.47
289.431	4.46
289.803	4.42
290.175	4.45
290.546	4.46
290.918	4.47
291.289	4.46
291.661	4.48
292.032	4.49
292.403	4.49
292.775	4.51
293.146	4.55
293.517	4.55
293.889	4.6
294.26	4.58
294.631	4.61
295.002	4.64
295.373	4.64
295.744	4.64
296.115	4.65
296.486	4.64
296.857	4.67
297.228	4.7
297.599	4.73
297.97	4.74
298.34	4.79
298.711	4.81
299.082	4.8
299.452	4.82
299.823	4.85
300.194	4.91
300.564	4.93
300.935	4.93
301.305	4.96
301.676	4.95
302.046	5.01
302.416	5.01
302.787	5.08
303.157	5.12
303.527	5.19
303.897	5.2
304.267	5.26
304.637	5.29
305.008	5.34
305.378	5.42
305.748	5.48
306.117	5.53
306.487	5.53
306.857	5.62
307.227	5.66
307.597	5.7
307.967	5.73
308.336	5.78
308.706	5.86
309.076	5.87
309.445	5.93
309.815	5.96
310.184	6.01
310.554	6.01
310.923	6.02
311.293	6.04
311.662	6.06
312.031	6.07
312.401	6.11
312.77	6.14
313.139	6.2
313.508	6.19
313.877	6.22
314.246	6.26
314.616	6.3
314.985	6.32
315.353	6.35
315.722	6.38
316.091	6.41
316.46	6.45
316.829	6.51
317.198	6.57
317.567	6.61
317.935	6.66
318.304	6.72
318.672	6.81
319.041	6.87
319.41	6.93
319.778	7.02
320.147	7.06
320.515	7.1
320.883	7.1
321.252	7.17
321.62	7.17
321.988	7.28
322.357	7.33
322.725	7.38
323.093	7.44
323.461	7.49
323.829	7.58
324.197	7.62
324.565	7.67
324.933	7.7
325.301	7.75
325.669	7.8
326.037	7.83
326.405	7.84
326.772	7.85
327.14	7.88
327.508	7.87
327.875	7.9
328.243	7.9
328.61	7.94
328.978	8
329.346	8.05
329.713	8.02
330.08	8.03
330.448	8.06
330.815	8.05
331.182	8.05
331.55	8.03
331.917	8.07
332.284	8.08
332.651	8.09
333.018	8.1
333.385	8.09
333.752	8.11
334.119	8.12
334.486	8.17
334.853	8.2
335.22	8.23
335.587	8.25
335.954	8.3
336.32	8.34
336.687	8.3
337.054	8.3
337.42	8.32
337.787	8.32
338.153	8.38
338.52	8.42
338.886	8.45
339.253	8.46
339.619	8.46
339.986	8.45
340.352	8.5
340.718	8.54
341.084	8.57
341.451	8.57
341.817	8.59
342.183	8.63
342.549	8.64
342.915	8.62
343.281	8.63
343.647	8.66
344.013	8.65
344.379	8.7
344.745	8.71
345.11	8.73
345.476	8.76
345.842	8.76
346.208	8.78
346.573	8.75
346.939	8.76
347.304	8.75
347.67	8.76
348.035	8.75
348.401	8.72
348.766	8.75
349.132	8.76
349.497	8.76
349.862	8.74
350.228	8.72
350.593	8.75
350.958	8.74
351.323	8.73
351.688	8.74
352.053	8.71
352.418	8.75
352.783	8.73
353.148	8.72
353.513	8.69
353.878	8.69
354.243	8.7
354.608	8.7
354.972	8.7
355.337	8.7
355.702	8.67
356.066	8.65
356.431	8.6
356.795	8.59
357.16	8.55
357.524	8.52
357.889	8.51
358.253	8.5
358.618	8.48
358.982	8.46
359.346	8.42
359.71	8.39
360.075	8.35
360.439	8.35
360.803	8.33
361.167	8.31
361.531	8.29
361.895	8.27
362.259	8.24
362.623	8.23
362.987	8.21
363.351	8.19
363.714	8.2
364.078	8.18
364.442	8.13
364.806	8.12
365.169	8.1
365.533	8.06
365.896	8
366.26	7.97
366.623	7.94
366.987	7.94
367.35	7.91
367.714	7.87
368.077	7.81
368.44	7.77
368.803	7.73
369.167	7.67
369.53	7.62
369.893	7.58
370.256	7.52
370.619	7.48
370.982	7.42
371.345	7.34
371.708	7.28
372.071	7.25
372.434	7.21
372.797	7.16
373.159	7.11
373.522	7.08
373.885	7.03
374.247	6.96
374.61	6.9
374.973	6.84
375.335	6.79
375.698	6.76
376.06	6.71
376.423	6.66
376.785	6.62
377.147	6.58
377.51	6.54
377.872	6.49
378.234	6.45
378.596	6.41
378.958	6.38
379.321	6.36
379.683	6.32
380.045	6.27
380.407	6.24
380.769	6.21
381.13	6.18
381.492	6.12
381.854	6.1
382.216	6.08
382.578	6.05
382.939	6.04
383.301	5.99
383.663	5.97
384.024	5.96
384.386	5.93
384.747	5.89
385.109	5.86
385.47	5.84
385.832	5.81
386.193	5.8
386.554	5.76
386.916	5.73
387.277	5.7
387.638	5.68
387.999	5.66
388.36	5.64
388.721	5.61
389.082	5.6
389.443	5.57
389.804	5.52
390.165	5.49
390.526	5.45
390.887	5.42
391.248	5.4
391.609	5.36
391.969	5.32
392.33	5.31
392.691	5.27
393.051	5.24
393.412	5.22
393.772	5.18
394.133	5.17
394.493	5.13
394.854	5.12
395.214	5.08
395.574	5.04
395.935	5.03
396.295	4.99
396.655	4.95
397.015	4.93
397.376	4.9
397.736	4.89
398.096	4.88
398.456	4.85
398.816	4.82
399.176	4.8
399.535	4.79
399.895	4.77
400.255	4.75
400.615	4.72
400.975	4.71
401.334	4.69
401.694	4.67
402.054	4.65
402.413	4.64
402.773	4.63
403.132	4.62
403.492	4.6
403.851	4.59
404.211	4.58
404.57	4.58
404.929	4.57
405.288	4.55
405.648	4.54
406.007	4.53
406.366	4.53
406.725	4.52
407.084	4.51
407.443	4.5
407.802	4.49
408.161	4.49
408.52	4.48
408.879	4.48
409.238	4.48
409.596	4.47
409.955	4.46
410.314	4.45
410.673	4.44
411.031	4.44
411.39	4.44
411.748	4.44
412.107	4.42
412.465	4.4
412.824	4.4
413.182	4.39
413.54	4.38
413.899	4.37
414.257	4.36
414.615	4.35
414.974	4.34
415.332	4.34
415.69	4.32
416.048	4.32
416.406	4.31
416.764	4.31
417.122	4.31
417.48	4.31
417.838	4.32
418.195	4.32
418.553	4.31
418.911	4.3
419.269	4.29
419.626	4.3
419.984	4.3
420.342	4.29
420.699	4.29
421.057	4.29
421.414	4.28
421.772	4.28
422.129	4.28
422.486	4.28
422.844	4.28
423.201	4.28
423.558	4.27
423.915	4.26
424.273	4.25
424.63	4.24
424.987	4.23
425.344	4.22
425.701	4.2
426.058	4.2
426.415	4.19
426.772	4.18
427.128	4.17
427.485	4.16
427.842	4.16
428.199	4.15
428.555	4.14
428.912	4.13
429.269	4.13
429.625	4.13
429.982	4.12
430.338	4.11
430.695	4.11
431.051	4.1
431.407	4.1
431.764	4.1
432.12	4.1
432.476	4.1
432.832	4.1
433.189	4.11
433.545	4.1
433.901	4.11
434.257	4.11
434.613	4.11
434.969	4.11
435.325	4.11
435.681	4.11
436.036	4.12
436.392	4.13
436.748	4.13
437.104	4.13
437.459	4.13
437.815	4.14
438.171	4.14
438.526	4.15
438.882	4.15
439.237	4.16
439.593	4.16
439.948	4.16
440.304	4.17
440.659	4.17
441.014	4.18
441.369	4.18
441.725	4.18
442.08	4.18
442.435	4.18
442.79	4.18
443.145	4.18
443.5	4.18
443.855	4.17
444.21	4.17
444.565	4.17
444.92	4.17
445.275	4.17
445.629	4.16
445.984	4.17
446.339	4.16
446.693	4.15
447.048	4.15
447.403	4.15
447.757	4.14
448.112	4.13
448.466	4.12
448.82	4.12
449.175	4.11
449.529	4.1
449.883	4.09
450.238	4.08
450.592	4.07
450.946	4.07
451.3	4.07
451.654	4.06
452.008	4.05
452.362	4.04
452.716	4.03
453.07	4.03
453.424	4.02
453.778	4.02
454.132	4.02
454.486	4.02
454.839	4.02
455.193	4.02
455.547	4.03
455.9	4.03
456.254	4.03
456.607	4.04
456.961	4.05
457.314	4.06
457.668	4.07
458.021	4.07
458.375	4.07
458.728	4.07
459.081	4.08
459.434	4.08
459.787	4.09
460.141	4.09
460.494	4.09
460.847	4.09
461.2	4.09
461.553	4.1
461.906	4.1
462.259	4.1
462.611	4.11
462.964	4.11
463.317	4.11
463.67	4.11
464.022	4.12
464.375	4.12
464.728	4.12
465.08	4.13
465.433	4.13
465.785	4.14
466.138	4.14
466.49	4.14
466.843	4.15
467.195	4.15
467.547	4.16
467.899	4.17
468.252	4.17
468.604	4.18
468.956	4.19
469.308	4.2
469.66	4.2
470.012	4.2
470.364	4.2
470.716	4.21
471.068	4.22
471.42	4.22
471.772	4.22
472.123	4.23
472.475	4.23
472.827	4.23
473.178	4.23
473.53	4.23
473.882	4.23
474.233	4.23
474.585	4.24
474.936	4.24
475.288	4.24
475.639	4.24
475.99	4.24
476.342	4.25
476.693	4.25
477.044	4.25
477.395	4.25
477.746	4.25
478.097	4.25
478.448	4.27
478.8	4.34
479.15	4.46
479.501	4.59
479.852	4.75
480.203	4.92
480.554	5.09
480.905	5.27
481.255	5.44
481.606	5.61
481.957	5.78
482.307	5.95
482.658	6.09
483.009	6.22
483.359	6.32
483.709	6.42
484.06	6.51
484.41	6.59
484.761	6.67
485.111	6.75
485.461	6.82
485.811	6.9
486.162	6.93
486.512	6.92
486.862	6.89
487.212	6.84
487.562	6.76
487.912	6.67
488.262	6.56
488.612	6.45
488.961	6.32
489.311	6.18
489.661	6.05
490.011	5.91
490.36	5.77
490.71	5.63
491.06	5.48
491.409	5.33
491.759	5.21
492.108	5.12
492.458	5.04
492.807	4.96
493.157	4.88
493.506	4.81
493.855	4.74
494.204	4.67
494.554	4.61
494.903	4.56
495.252	4.51
495.601	4.46
495.95	4.43
496.299	4.39
496.648	4.36
496.997	4.34
497.346	4.34
497.695	4.36
498.043	4.4
498.392	4.46
498.741	4.53
499.09	4.59
499.438	4.63
499.787	4.66
500.135	4.68
500.484	4.72
500.832	4.76
501.181	4.8
501.529	4.84
501.878	4.88
502.226	4.91
502.574	4.96
502.923	5
503.271	5.05
503.619	5.1
503.967	5.15
504.315	5.21
504.663	5.26
505.011	5.33
505.359	5.39
505.707	5.46
506.055	5.53
506.403	5.6
506.751	5.67
507.098	5.75
507.446	5.82
507.794	5.9
508.141	5.97
508.489	6.05
508.837	6.13
509.184	6.21
509.531	6.3
509.879	6.38
510.226	6.47
510.574	6.56
510.921	6.65
511.268	6.74
511.616	6.83
511.963	6.94
512.31	7.04
512.657	7.15
513.004	7.27
513.351	7.4
513.698	7.53
514.045	7.66
514.392	7.8
514.739	7.95
515.086	8.09
515.432	8.25
515.779	8.39
516.126	8.54
516.473	8.68
516.819	8.82
517.166	8.96
517.512	9.1
517.859	9.23
518.205	9.36
518.552	9.49
518.898	9.62
519.245	9.75
519.591	9.88
519.937	10.02
520.283	10.15
520.629	10.29
520.976	10.44
521.322	10.6
521.668	10.76
522.014	10.92
522.36	11.1
522.706	11.28
523.052	11.52
523.398	11.85
523.743	12.25
524.089	12.71
524.435	13.2
524.781	13.7
525.126	14.2
525.472	14.69
525.817	15.17
526.163	15.63
526.509	16.06
526.854	16.44
527.199	16.76
527.545	17.02
527.89	17.26
528.235	17.49
528.581	17.71
528.926	17.93
529.271	18.16
529.616	18.37
529.961	18.58
530.306	18.76
530.651	18.88
530.996	18.92
531.341	18.92
531.686	18.86
532.031	18.75
532.376	18.59
532.721	18.39
533.065	18.16
533.41	17.99
533.755	17.83
534.099	17.74
534.444	17.73
534.788	17.77
535.133	17.85
535.477	17.95
535.822	18.07
536.166	18.21
536.51	18.38
536.855	18.59
537.199	18.83
537.543	19.11
537.887	19.42
538.231	19.76
538.576	20.1
538.92	20.47
539.264	20.86
539.608	21.26
539.951	21.65
540.295	22.04
540.639	22.34
540.983	22.6
541.327	22.82
541.671	22.99
542.014	23.22
542.358	23.45
542.701	23.67
543.045	23.89
543.389	24.1
543.732	24.31
544.075	24.52
544.419	24.72
544.762	24.89
545.105	25.04
545.449	25.16
545.792	25.27
546.135	25.39
546.478	25.51
546.821	25.68
547.165	25.92
547.508	26.21
547.851	26.54
548.194	26.91
548.536	27.33
548.879	27.74
549.222	28.03
549.565	28.32
549.908	28.61
550.25	28.89
550.593	29.2
550.936	29.49
551.278	29.8
551.621	30.07
551.963	30.34
552.306	30.64
552.648	30.93
552.991	31.18
553.333	31.44
553.675	31.72
554.017	31.99
554.36	32.24
554.702	32.5
555.044	32.75
555.386	33.01
555.728	33.25
556.07	33.51
556.412	33.75
556.754	34.01
557.096	34.26
557.438	34.51
557.78	34.74
558.121	34.98
558.463	35.22
558.805	35.49
559.147	35.74
559.488	35.95
559.83	36.2
560.171	36.46
560.513	36.71
560.854	36.94
561.196	37.18
561.537	37.43
561.878	37.65
562.22	37.89
562.561	38.11
562.902	38.34
563.243	38.56
563.584	38.77
563.925	39
564.266	39.2
564.607	39.41
564.948	39.62
565.289	39.82
565.63	40.02
565.971	40.2
566.312	40.4
566.653	40.61
566.993	40.78
567.334	40.96
567.675	41.15
568.015	41.33
568.356	41.51
568.696	41.68
569.037	41.85
569.377	42.03
569.718	42.2
570.058	42.37
570.398	42.53
570.739	42.72
571.079	42.88
571.419	43.02
571.759	43.17
572.099	43.3
572.439	43.44
572.779	43.56
573.119	43.7
573.459	43.82
573.799	43.94
574.139	44.07
574.479	44.19
574.819	44.3
575.158	44.41
575.498	44.52
575.838	44.62
576.177	44.72
576.517	44.8
576.856	44.91
577.196	45
577.535	45.13
577.875	45.19
578.214	45.28
578.553	45.39
578.893	45.48
579.232	45.59
579.571	45.68
579.91	45.78
580.25	45.88
580.589	45.96
580.928	46.04
581.267	46.14
581.606	46.24
581.945	46.33
582.283	46.41
582.622	46.53
582.961	46.65
583.3	46.77
583.639	46.88
583.977	46.98
584.316	47.08
584.654	47.16
584.993	47.24
585.332	47.33
585.67	47.41
586.008	47.5
586.347	47.59
586.685	47.69
587.024	47.78
587.362	47.86
587.7	47.95
588.038	48.05
588.376	48.14
588.715	48.21
589.053	48.29
589.391	48.38
589.729	48.43
590.067	48.5
590.404	48.56
590.742	48.63
591.08	48.7
591.418	48.78
591.756	48.84
592.093	48.94
592.431	49.05
592.769	49.13
593.106	49.18
593.444	49.27
593.781	49.35
594.119	49.44
594.456	49.51
594.793	49.6
595.131	49.66
595.468	49.73
595.805	49.79
596.143	49.83
596.48	49.89
596.817	49.96
597.154	49.99
597.491	50.04
597.828	50.1
598.165	50.16
598.502	50.2
598.839	50.29
599.176	50.37
599.512	50.4
599.849	50.45
600.186	50.53
600.523	50.57
600.859	50.63
601.196	50.66
601.532	50.72
601.869	50.78
602.205	50.85
602.542	50.92
602.878	50.97
603.215	51.04
603.551	51.09
603.887	51.14
604.223	51.2
604.56	51.25
604.896	51.28
605.232	51.33
605.568	51.39
605.904	51.39
606.24	51.42
606.576	51.46
606.912	51.52
607.248	51.56
607.583	51.6
607.919	51.63
608.255	51.66
608.591	51.68
608.926	51.72
609.262	51.74
609.597	51.74
609.933	51.76
610.268	51.78
610.604	51.8
610.939	51.82
611.275	51.85
611.61	51.89
611.945	51.93
612.281	51.97
612.616	51.98
612.951	52.03
613.286	52.06
613.621	52.09
613.956	52.08
614.291	52.12
614.626	52.15
614.961	52.19
615.296	52.25
615.631	52.3
615.966	52.31
616.3	52.35
616.635	52.41
616.97	52.47
617.304	52.5
617.639	52.54
617.973	52.58
618.308	52.6
618.642	52.62
618.977	52.62
619.311	52.62
619.646	52.64
619.98	52.66
620.314	52.69
620.648	52.73
620.983	52.78
621.317	52.8
621.651	52.83
621.985	52.87
622.319	52.91
622.653	52.92
622.987	52.93
623.321	52.94
623.655	52.95
623.988	52.98
624.322	53.03
624.656	53.08
624.99	53.1
625.323	53.13
625.657	53.18
625.99	53.26
626.324	53.29
626.657	53.32
626.991	53.37
627.324	53.39
627.658	53.42
627.991	53.42
628.324	53.45
628.657	53.47
628.991	53.49
629.324	53.51
629.657	53.52
629.99	53.54
630.323	53.58
630.656	53.59
630.989	53.59
631.322	53.58
631.655	53.56
631.987	53.55
632.32	53.58
632.653	53.58
632.986	53.6
633.318	53.62
633.651	53.65
633.984	53.67
634.316	53.67
634.649	53.69
634.981	53.72
635.313	53.73
635.646	53.78
635.978	53.82
636.31	53.84
636.643	53.83
636.975	53.88
637.307	53.88
637.639	53.9
637.971	53.93
638.303	53.98
638.635	54.02
638.967	54.06
639.299	54.07
639.631	54.11
639.963	54.1
640.295	54.09
640.626	54.1
640.958	54.14
641.29	54.13
641.621	54.15
641.953	54.19
642.285	54.23
642.616	54.23
642.948	54.22
643.279	54.22
643.61	54.28
643.942	54.29
644.273	54.35
644.604	54.41
644.936	54.45
645.267	54.45
645.598	54.48
645.929	54.49
646.26	54.51
646.591	54.52
646.922	54.54
647.253	54.59
647.584	54.63
647.915	54.64
648.245	54.71
648.576	54.72
648.907	54.75
649.238	54.75
649.568	54.77
649.899	54.8
650.229	54.85
650.56	54.89
650.89	54.93
651.221	54.97
651.551	54.99
651.882	55.02
652.212	55.02
652.542	55.04
652.872	55.07
653.203	55.09
653.533	55.11
653.863	55.12
654.193	55.13
654.523	55.11
654.853	55.13
655.183	55.16
655.513	55.21
655.843	55.18
656.172	55.2
656.502	55.2
656.832	55.21
657.162	55.19
657.491	55.2
657.821	55.19
658.15	55.2
658.48	55.22
658.809	55.2
659.139	55.25
659.468	55.27
659.798	55.3
660.127	55.32
660.456	55.32
660.785	55.33
661.115	55.35
661.444	55.37
661.773	55.36
662.102	55.36
662.431	55.34
662.76	55.37
663.089	55.38
663.418	55.4
663.747	55.42
664.076	55.43
664.404	55.46
664.733	55.5
665.062	55.5
665.39	55.48
665.719	55.55
666.048	55.56
666.376	55.56
666.705	55.56
667.033	55.57
667.362	55.6
667.69	55.6
668.018	55.61
668.347	55.64
668.675	55.67
669.003	55.68
669.331	55.72
669.659	55.77
669.987	55.82
670.315	55.79
670.643	55.8
670.971	55.82
671.299	55.82
671.627	55.83
671.955	55.81
672.283	55.86
672.61	55.86
672.938	55.87
673.266	55.89
673.593	55.93
673.921	55.93
674.249	55.93
674.576	55.98
674.904	56.01
675.231	56
675.558	56.02
675.886	56.07
676.213	56.1
676.54	56.04
676.867	56.01
677.195	56.09
677.522	56.11
677.849	56.11
678.176	56.14
678.503	56.16
678.83	56.17
679.157	56.17
679.484	56.16
679.81	56.17
680.137	56.21
680.464	56.2
680.791	56.21
681.117	56.2
681.444	56.22
681.771	56.24
682.097	56.29
682.424	56.31
682.75	56.28
683.077	56.3
683.403	56.38
683.729	56.4
684.056	56.44
684.382	56.46
684.708	56.48
685.034	56.49
685.36	56.45
685.686	56.47
686.012	56.46
686.339	56.52
686.664	56.54
686.99	56.55
687.316	56.61
687.642	56.65
687.968	56.75
688.294	56.78
688.619	56.75
688.945	56.73
689.271	56.76
689.596	56.74
689.922	56.72
690.247	56.72
690.573	56.77
690.898	56.78
691.224	56.81
691.549	56.82
691.874	56.85
692.2	56.94
692.525	56.99
692.85	57.01
693.175	57
693.5	56.98
693.825	56.94
694.15	56.93
694.475	56.92
694.8	56.88
695.125	56.86
695.45	56.9
695.775	56.93
696.099	56.91
696.424	57.02
696.749	57.06
697.073	57.08
697.398	57.1
697.723	57.05
698.047	57.07
698.372	57.12
698.696	57.11
699.02	57.06
699.345	57.02
699.669	57.07
699.993	57.04
700.318	57.07
700.642	57.08
700.966	57.06
701.29	57.05
701.614	57.04
701.938	57.04
702.262	57.04
702.586	57.04
702.91	57.04
703.234	56.96
703.557	56.93
703.881	56.93
704.205	56.9
704.529	56.89
704.852	56.87
705.176	56.86
705.499	56.81
705.823	56.88
706.146	56.91
706.47	56.87
706.793	56.91
707.117	56.87
707.44	56.9
707.763	56.94
708.086	56.99
708.409	57.05
708.733	57.07
709.056	57.1
709.379	57.12
709.702	57.16
710.025	57.23
710.348	57.22
710.671	57.23
710.993	57.26
711.316	57.31
711.639	57.29
711.962	57.23
712.284	57.31
712.607	57.35
712.93	57.41
713.252	57.43
713.575	57.47
713.897	57.51
714.22	57.51
714.542	57.51
714.864	57.48
715.187	57.45
715.509	57.49
715.831	57.46
716.153	57.42
716.475	57.41
716.798	57.37
717.12	57.34
717.442	57.35
717.764	57.38
718.085	57.45
718.407	57.46
718.729	57.46
719.051	57.48
719.373	57.42
719.695	57.37
720.016	57.35
720.338	57.33
720.659	57.34
720.981	57.33
721.302	57.29
721.624	57.3
721.945	57.28
722.267	57.21
722.588	57.25
722.909	57.3
723.231	57.32
723.552	57.31
723.873	57.36
724.194	57.36
724.515	57.33
724.836	57.2
725.157	57.22
725.478	57.25
725.799	57.23
726.12	57.28
726.441	57.26
726.762	57.28
727.083	57.3
727.403	57.32
727.724	57.32
728.045	57.39
728.365	57.47
728.686	57.51
729.006	57.56
729.327	57.51
729.647	57.53
729.967	57.48
730.288	57.53
730.608	57.55
730.928	57.5
731.249	57.53
731.569	57.61
731.889	57.64
732.209	57.6
732.529	57.55
732.849	57.5
733.169	57.51
733.489	57.48
733.809	57.44
734.129	57.38
734.448	57.44
734.768	57.35
735.088	57.33
735.408	57.3
735.727	57.28
736.047	57.29
736.366	57.21
736.686	57.25
737.005	57.19
737.325	57.18
737.644	57.2
737.963	57.13
738.283	57.06
738.602	56.99
738.921	57.01
739.24	57.01
739.56	57.01
739.879	57.08
740.198	57.11
740.517	57.16
740.836	57.18
741.155	57.16
741.473	57.21
741.792	57.21
742.111	57.11
742.43	57.17
742.748	57.15
743.067	57.18
743.386	57.16
743.704	57.15
744.023	57.2
744.341	57.19
744.66	57.25
744.978	57.32
745.297	57.36
745.615	57.34
745.933	57.36
746.252	57.36
746.57	57.26
746.888	57.3
747.206	57.25
747.524	57.28
747.842	57.28
748.16	57.36
748.478	57.23
748.796	57.32
749.114	57.22
749.432	57.27
749.749	57.27
750.067	57.27
750.385	57.31
750.703	57.24
751.02	57.2
751.338	57.16
751.655	57.08
751.973	57.06
752.29	57.12
752.608	57.2
752.925	57.18
753.242	57.23
753.56	57.19
753.877	57.22
754.194	57.23
754.511	57.22
754.828	57.22
755.145	57.33
755.462	57.39
755.779	57.44
756.096	57.46
756.413	57.43
756.73	57.52
757.047	57.56
757.364	57.6
757.68	57.72
757.997	57.81
758.314	57.88
758.63	57.9
758.947	57.98
759.264	57.98
759.58	58.03
759.896	58.08
760.213	58.16
760.529	58.21
760.846	58.21
761.162	58.31
761.478	58.34
761.794	58.34
762.11	58.4
762.426	58.43
762.743	58.45
763.059	58.52
763.375	58.58
763.69	58.54
764.006	58.52
764.322	58.5
764.638	58.43
764.954	58.42
765.27	58.47
765.585	58.46
765.901	58.49
766.216	58.47
766.532	58.51
766.848	58.43
767.163	58.43
767.478	58.41
767.794	58.33
768.109	58.37
768.424	58.43
768.74	58.39
769.055	58.34
769.37	58.33
769.685	58.27
770	58.17
770.315	58.19
770.63	58.12
770.945	58.15
771.26	58.26
771.575	58.29
771.89	58.28
772.205	58.28
772.52	58.2
772.834	58.16
773.149	58.08
773.464	58.16
773.778	58.14
774.093	58.22
774.407	58.17
774.722	58.06
775.036	57.95
775.351	57.91
775.665	57.95
775.979	57.91
776.293	57.91
776.608	57.83
776.922	57.81
777.236	57.84
777.55	57.76
777.864	57.64
778.178	57.66
778.492	57.73
778.806	57.68
779.12	57.83
779.434	57.9
779.747	57.93
780.061	57.86
780.375	57.91
780.689	57.81
781.002	57.9
781.316	57.87
781.629	57.84
781.943	57.96
782.256	57.98
782.57	58.07
782.883	57.98
783.196	58.1
783.51	58.14
783.823	58.31
784.136	58.34
784.449	58.36
784.762	58.38
785.075	58.24
785.388	58.22
785.701	58.01
786.014	58.1
786.327	58.13
786.64	58.27
786.953	58.19
787.266	58.3
787.578	58.28
787.891	58.46
788.204	58.58
788.516	58.61
788.829	58.57
789.141	58.52
789.454	58.56
789.766	58.59
790.079	58.74
790.391	58.66
790.703	58.61
791.016	58.63
791.328	58.63
791.64	58.59
791.952	58.71
792.264	58.86
792.576	58.83
792.888	58.76
793.2	58.65
793.512	58.76
793.824	58.61
794.136	58.73
794.448	58.63
794.76	58.65
795.071	58.62
795.383	58.61
795.695	58.66
796.006	58.84
796.318	58.78
796.629	58.67
796.941	58.68
797.252	58.74
797.564	58.72
797.875	58.68
798.186	58.85
798.497	58.86
798.809	58.76
799.12	58.8
799.431	58.89
799.742	58.95
800.053	58.93
800.364	59.11
800.675	58.94
800.986	58.98
801.297	59.02
801.608	58.95
801.918	58.9
802.229	58.98
802.54	58.95
802.851	59.04
803.161	59.03
803.472	58.93
803.782	58.95
804.093	59.03
804.403	59.02
804.714	58.84
805.024	58.82
805.334	58.88
805.645	58.81
805.955	58.81
806.265	58.78
806.575	58.76
806.885	58.68
807.195	58.92
807.505	58.86
807.815	58.67
808.125	58.61
808.435	58.86
808.745	58.83
809.055	58.96
809.365	58.96
809.674	59.18
809.984	59.39
810.294	59.43
810.603	59.36
810.913	59.53
811.222	59.66
811.532	59.66
811.841	59.69
812.151	59.79
812.46	59.69
812.769	59.62
813.079	59.68
813.388	59.74
813.697	59.54
814.006	59.62
814.315	59.78
814.624	59.98
814.933	59.81
815.242	59.73
815.551	59.71
815.86	59.62
816.169	59.45
816.478	59.46
816.786	59.44
817.095	59.52
817.404	59.45
817.712	59.42
818.021	59.39
818.33	59.3
818.638	59.24
818.947	59.41
819.255	59.53
819.563	59.54
819.872	59.71
820.18	59.81
820.488	59.91
820.796	59.96
821.105	59.99
821.413	60.03
821.721	60.1
822.029	60.06
822.337	60.18
822.645	60.2
822.953	60.24
823.26	60.36
823.568	60.44
823.876	60.45
824.184	60.51
824.491	60.53
824.799	60.53
825.107	60.58
825.414	60.62
825.722	60.63
826.029	60.67
826.337	60.61
826.644	60.62
826.951	60.58
827.259	60.61
827.566	60.62
827.873	60.62
828.18	60.55
828.488	60.64
828.795	60.54
829.102	60.49
829.409	60.43
829.716	60.27
830.023	60.12
830.329	60.14
830.636	60.06
830.943	60.01
831.25	60.1
831.557	60.1
831.863	59.96
832.17	59.94
832.476	59.86
832.783	59.89
833.089	59.87
833.396	59.82
833.702	59.75
834.009	59.65
834.315	59.68
834.621	59.81
834.928	59.6
835.234	59.61
835.54	59.62
835.846	59.63
836.152	59.64
836.458	59.66
836.764	59.61
837.07	59.52
837.376	59.46
837.682	59.33
837.988	59.29
838.293	59.31
838.599	59.21
838.905	59.19
839.211	59.21
839.516	59.12
839.822	59.25
840.127	59.1
840.433	59.09
840.738	59.11
841.044	59.05
841.349	59.25
841.654	59.19
841.959	59.36
842.265	59.32
842.57	59.23
842.875	59.38
843.18	59.26
843.485	59.27
843.79	59.17
844.095	59.21
844.4	58.83
844.705	58.76
845.01	58.84
845.315	58.94
845.619	58.79
845.924	58.77
846.229	58.41
846.533	58.35
846.838	57.98
847.142	57.66
847.447	57.47
847.751	57.34
848.056	57.37
848.36	56.98
848.664	56.81
848.969	56.73
849.273	56.4
849.577	56.17
849.881	56.38
850.185	56.4
850.489	56.44
850.794	56.78
851.097	56.96
851.401	56.82
851.705	56.65
852.009	56.66
852.313	56.93
852.617	56.91
852.92	57.29
853.224	57.76
853.528	58.05
853.831	58.04
854.135	58.02
854.438	58.3
854.742	58.53
855.045	58.84
855.349	58.85
855.652	58.8
855.955	58.85
856.259	58.52
856.562	58.91
856.865	59.18
857.168	59.18
857.471	58.83
857.774	59.07
858.077	58.93
858.38	59.13
858.683	58.91
858.986	59.26
859.289	59.2
859.592	59.09
859.894	59.28
860.197	59.31
860.5	59.26
860.802	58.99
861.105	58.3
861.407	58.09
861.71	58.26
862.012	58.28
862.315	58.78
862.617	59.13
862.919	58.51
863.222	58.37
863.524	58.39
863.826	58.54
864.128	58.37
864.43	58.4
864.732	58.44
865.034	58.54
865.336	58.42
865.638	58.64
865.94	58.6
866.242	58.26
866.544	57.98
866.846	58.42
867.147	58.21
867.449	58.8
867.751	58.9
868.052	58.66
868.354	58.74
868.655	58.67
868.957	58.38
869.258	58.39
869.56	58.17
869.861	57.68
870.162	57.59
870.463	57.82
870.765	58.1
871.066	57.68
871.367	57.82
871.668	57.8
871.969	57.67
872.27	57.49
872.571	57.53
872.872	57.69
873.173	57
873.473	56.97
873.774	56.99
874.075	57.15
874.376	57.26
874.676	56.83
874.977	56.83
875.277	56.96
875.578	57.33
875.878	57.3
876.179	57.77
876.479	57.97
876.78	57.84
877.08	57.68
877.38	57.84
877.68	57.42
877.981	57.34
878.281	57.05
878.581	57.24
