Data from UWBM55954_Reflection_00015.txt Node
Date: Sun May 02 13:52:28 EDT 2021
User: vgr7
Spectrometer: USB2G7710
Scans to average: 10
Trigger mode: 4
Integration Time (sec): 1.000000E-1
Electric dark correction enabled: true
Boxcar width: 20
XAxis mode: Wavelengths
Number of Pixels in Spectrum: 2048
>>>>>Begin Spectral Data<<<<<
177.721	70
178.105	26.18
178.488	2.44
178.871	14.62
179.254	19.91
179.636	19.51
180.019	14.34
180.402	8.09
180.785	3
181.168	7.39
181.55	7.27
181.933	9.6
182.316	11.52
182.698	10.2
183.081	9.41
183.463	8.24
183.846	8
184.228	11.54
184.611	13.23
184.993	13.47
185.376	11.58
185.758	12.74
186.14	15.81
186.522	14.31
186.904	10.85
187.287	9.56
187.669	9.86
188.051	10.62
188.433	9.42
188.815	5.14
189.197	5.78
189.579	9.61
189.961	7.95
190.342	8.24
190.724	10.26
191.106	10.7
191.488	10.12
191.869	9.37
192.251	8.6
192.633	9.44
193.014	8.47
193.396	6
193.777	7.73
194.159	8.17
194.54	6.66
194.922	6.17
195.303	5.84
195.684	5.66
196.065	6.48
196.447	8.67
196.828	8.95
197.209	6.97
197.59	4.83
197.971	4.49
198.352	5.5
198.733	8.18
199.114	8.93
199.495	9.14
199.876	8.06
200.257	7.15
200.638	4.87
201.018	7.73
201.399	7.23
201.78	6.01
202.16	6
202.541	6.36
202.922	5.62
203.302	4.77
203.683	4.23
204.063	5.78
204.444	5.81
204.824	6.61
205.204	5.69
205.585	5.5
205.965	5.88
206.345	4.43
206.725	5.74
207.106	5.52
207.486	5.45
207.866	6.09
208.246	4.71
208.626	4.77
209.006	6.19
209.386	5.5
209.766	5.49
210.145	6.57
210.525	7.2
210.905	8.83
211.285	7.95
211.664	8.21
212.044	7.69
212.424	6.41
212.803	7.62
213.183	8.18
213.562	8.7
213.942	8.98
214.321	7.13
214.701	4.93
215.08	5.28
215.459	5.22
215.838	5.37
216.218	5.73
216.597	3.62
216.976	4.56
217.355	5.1
217.734	4.34
218.113	4.39
218.492	4.67
218.871	4.77
219.25	5.22
219.629	4.42
220.008	4.44
220.387	2.61
220.766	3.36
221.144	3.01
221.523	3.35
221.902	3.64
222.28	2.77
222.659	3.26
223.037	3.34
223.416	3.94
223.794	4.83
224.173	4.61
224.551	4.07
224.929	5.11
225.308	5.28
225.686	5.19
226.064	4.65
226.442	4.21
226.821	4.74
227.199	4.54
227.577	4.85
227.955	4.57
228.333	4.45
228.711	4.54
229.089	4
229.467	3.55
229.845	3.64
230.222	3.99
230.6	4.02
230.978	4.02
231.356	4.01
231.733	4.26
232.111	4.3
232.488	4.09
232.866	3.91
233.243	3.87
233.621	4.17
233.998	4.35
234.376	4.51
234.753	4.43
235.13	4.42
235.508	4.58
235.885	4.57
236.262	4.52
236.639	4.64
237.016	4.56
237.393	4.53
237.77	4.62
238.147	4.63
238.524	4.64
238.901	4.48
239.278	4.5
239.655	4.59
240.032	4.61
240.409	4.57
240.785	4.56
241.162	4.54
241.539	4.55
241.915	4.59
242.292	4.57
242.668	4.55
243.045	4.51
243.421	4.54
243.798	4.56
244.174	4.59
244.551	4.58
244.927	4.61
245.303	4.6
245.679	4.63
246.056	4.53
246.432	4.55
246.808	4.53
247.184	4.53
247.56	4.55
247.936	4.53
248.312	4.52
248.688	4.54
249.064	4.51
249.44	4.51
249.815	4.44
250.191	4.4
250.567	4.41
250.943	4.38
251.318	4.36
251.694	4.34
252.069	4.31
252.445	4.31
252.82	4.33
253.196	4.28
253.571	4.26
253.947	4.24
254.322	4.26
254.697	4.24
255.073	4.21
255.448	4.22
255.823	4.18
256.198	4.16
256.573	4.15
256.948	4.15
257.323	4.1
257.698	4.07
258.073	4.06
258.448	4.04
258.823	4.03
259.198	4.01
259.573	3.99
259.948	4
260.322	3.98
260.697	3.95
261.072	3.92
261.446	3.94
261.821	3.93
262.195	3.93
262.57	3.91
262.944	3.9
263.319	3.94
263.693	3.94
264.067	3.94
264.442	3.92
264.816	3.87
265.19	3.89
265.564	3.89
265.938	3.88
266.313	3.89
266.687	3.88
267.061	3.89
267.435	3.9
267.809	3.88
268.183	3.87
268.556	3.87
268.93	3.87
269.304	3.87
269.678	3.86
270.051	3.84
270.425	3.82
270.799	3.79
271.172	3.79
271.546	3.79
271.919	3.78
272.293	3.78
272.666	3.78
273.04	3.8
273.413	3.83
273.787	3.83
274.16	3.83
274.533	3.84
274.906	3.85
275.279	3.86
275.653	3.85
276.026	3.86
276.399	3.88
276.772	3.89
277.145	3.87
277.518	3.89
277.891	3.91
278.263	3.89
278.636	3.88
279.009	3.87
279.382	3.87
279.755	3.88
280.127	3.91
280.5	3.93
280.872	3.96
281.245	3.96
281.617	3.96
281.99	3.99
282.362	3.98
282.735	3.97
283.107	3.98
283.479	3.97
283.852	3.98
284.224	3.99
284.596	3.98
284.968	3.99
285.34	4.01
285.713	4.02
286.085	4.05
286.457	4.06
286.829	4.06
287.201	4.08
287.572	4.07
287.944	4.09
288.316	4.09
288.688	4.09
289.06	4.1
289.431	4.11
289.803	4.11
290.175	4.11
290.546	4.12
290.918	4.15
291.289	4.17
291.661	4.19
292.032	4.19
292.403	4.21
292.775	4.23
293.146	4.24
293.517	4.27
293.889	4.3
294.26	4.33
294.631	4.36
295.002	4.38
295.373	4.39
295.744	4.41
296.115	4.4
296.486	4.44
296.857	4.47
297.228	4.48
297.599	4.51
297.97	4.53
298.34	4.55
298.711	4.58
299.082	4.59
299.452	4.62
299.823	4.65
300.194	4.67
300.564	4.68
300.935	4.71
301.305	4.72
301.676	4.75
302.046	4.77
302.416	4.79
302.787	4.82
303.157	4.84
303.527	4.86
303.897	4.88
304.267	4.92
304.637	4.94
305.008	4.97
305.378	5.02
305.748	5.04
306.117	5.08
306.487	5.11
306.857	5.15
307.227	5.18
307.597	5.21
307.967	5.24
308.336	5.27
308.706	5.27
309.076	5.29
309.445	5.32
309.815	5.32
310.184	5.34
310.554	5.36
310.923	5.39
311.293	5.42
311.662	5.43
312.031	5.48
312.401	5.5
312.77	5.52
313.139	5.55
313.508	5.57
313.877	5.6
314.246	5.64
314.616	5.65
314.985	5.67
315.353	5.72
315.722	5.74
316.091	5.78
316.46	5.8
316.829	5.84
317.198	5.89
317.567	5.92
317.935	5.96
318.304	5.99
318.672	6.02
319.041	6.08
319.41	6.11
319.778	6.15
320.147	6.18
320.515	6.22
320.883	6.23
321.252	6.25
321.62	6.28
321.988	6.29
322.357	6.33
322.725	6.34
323.093	6.37
323.461	6.39
323.829	6.42
324.197	6.44
324.565	6.47
324.933	6.5
325.301	6.52
325.669	6.55
326.037	6.57
326.405	6.59
326.772	6.61
327.14	6.62
327.508	6.62
327.875	6.65
328.243	6.67
328.61	6.68
328.978	6.7
329.346	6.72
329.713	6.76
330.08	6.79
330.448	6.78
330.815	6.8
331.182	6.81
331.55	6.84
331.917	6.84
332.284	6.84
332.651	6.85
333.018	6.89
333.385	6.9
333.752	6.93
334.119	6.94
334.486	6.96
334.853	6.98
335.22	7
335.587	7.01
335.954	7.02
336.32	7.04
336.687	7.06
337.054	7.07
337.42	7.09
337.787	7.11
338.153	7.12
338.52	7.13
338.886	7.14
339.253	7.15
339.619	7.16
339.986	7.18
340.352	7.19
340.718	7.2
341.084	7.22
341.451	7.23
341.817	7.24
342.183	7.25
342.549	7.27
342.915	7.28
343.281	7.3
343.647	7.32
344.013	7.32
344.379	7.31
344.745	7.32
345.11	7.33
345.476	7.35
345.842	7.36
346.208	7.36
346.573	7.36
346.939	7.36
347.304	7.39
347.67	7.4
348.035	7.38
348.401	7.38
348.766	7.38
349.132	7.38
349.497	7.39
349.862	7.41
350.228	7.4
350.593	7.41
350.958	7.42
351.323	7.43
351.688	7.43
352.053	7.44
352.418	7.44
352.783	7.44
353.148	7.43
353.513	7.43
353.878	7.43
354.243	7.42
354.608	7.41
354.972	7.41
355.337	7.4
355.702	7.4
356.066	7.39
356.431	7.39
356.795	7.37
357.16	7.36
357.524	7.35
357.889	7.35
358.253	7.33
358.618	7.31
358.982	7.3
359.346	7.29
359.71	7.27
360.075	7.26
360.439	7.24
360.803	7.23
361.167	7.21
361.531	7.2
361.895	7.18
362.259	7.16
362.623	7.13
362.987	7.12
363.351	7.1
363.714	7.08
364.078	7.05
364.442	7.02
364.806	6.99
365.169	6.97
365.533	6.95
365.896	6.92
366.26	6.9
366.623	6.87
366.987	6.83
367.35	6.81
367.714	6.78
368.077	6.75
368.44	6.72
368.803	6.69
369.167	6.66
369.53	6.63
369.893	6.58
370.256	6.54
370.619	6.5
370.982	6.46
371.345	6.42
371.708	6.39
372.071	6.35
372.434	6.32
372.797	6.28
373.159	6.24
373.522	6.21
373.885	6.17
374.247	6.13
374.61	6.1
374.973	6.06
375.335	6.03
375.698	5.99
376.06	5.96
376.423	5.92
376.785	5.89
377.147	5.86
377.51	5.83
377.872	5.8
378.234	5.77
378.596	5.74
378.958	5.71
379.321	5.67
379.683	5.65
380.045	5.62
380.407	5.58
380.769	5.56
381.13	5.52
381.492	5.49
381.854	5.46
382.216	5.43
382.578	5.4
382.939	5.38
383.301	5.35
383.663	5.32
384.024	5.29
384.386	5.26
384.747	5.24
385.109	5.22
385.47	5.19
385.832	5.17
386.193	5.14
386.554	5.11
386.916	5.09
387.277	5.07
387.638	5.04
387.999	5.03
388.36	5
388.721	4.98
389.082	4.96
389.443	4.94
389.804	4.92
390.165	4.91
390.526	4.89
390.887	4.87
391.248	4.85
391.609	4.83
391.969	4.81
392.33	4.8
392.691	4.78
393.051	4.76
393.412	4.74
393.772	4.72
394.133	4.7
394.493	4.68
394.854	4.66
395.214	4.64
395.574	4.62
395.935	4.6
396.295	4.58
396.655	4.56
397.015	4.54
397.376	4.52
397.736	4.51
398.096	4.49
398.456	4.47
398.816	4.46
399.176	4.45
399.535	4.43
399.895	4.42
400.255	4.4
400.615	4.39
400.975	4.38
401.334	4.36
401.694	4.35
402.054	4.33
402.413	4.32
402.773	4.31
403.132	4.3
403.492	4.29
403.851	4.28
404.211	4.27
404.57	4.26
404.929	4.24
405.288	4.23
405.648	4.22
406.007	4.22
406.366	4.21
406.725	4.2
407.084	4.2
407.443	4.19
407.802	4.19
408.161	4.18
408.52	4.18
408.879	4.17
409.238	4.17
409.596	4.16
409.955	4.16
410.314	4.16
410.673	4.15
411.031	4.16
411.39	4.15
411.748	4.15
412.107	4.15
412.465	4.16
412.824	4.17
413.182	4.18
413.54	4.2
413.899	4.22
414.257	4.25
414.615	4.28
414.974	4.3
415.332	4.34
415.69	4.37
416.048	4.39
416.406	4.43
416.764	4.45
417.122	4.48
417.48	4.51
417.838	4.53
418.195	4.55
418.553	4.57
418.911	4.57
419.269	4.58
419.626	4.57
419.984	4.56
420.342	4.55
420.699	4.53
421.057	4.5
421.414	4.48
421.772	4.47
422.129	4.45
422.486	4.45
422.844	4.44
423.201	4.44
423.558	4.43
423.915	4.43
424.273	4.43
424.63	4.42
424.987	4.42
425.344	4.42
425.701	4.41
426.058	4.41
426.415	4.41
426.772	4.41
427.128	4.4
427.485	4.39
427.842	4.38
428.199	4.36
428.555	4.34
428.912	4.32
429.269	4.29
429.625	4.26
429.982	4.23
430.338	4.2
430.695	4.18
431.051	4.15
431.407	4.13
431.764	4.11
432.12	4.09
432.476	4.08
432.832	4.07
433.189	4.07
433.545	4.08
433.901	4.09
434.257	4.11
434.613	4.14
434.969	4.16
435.325	4.19
435.681	4.23
436.036	4.25
436.392	4.27
436.748	4.29
437.104	4.29
437.459	4.31
437.815	4.33
438.171	4.35
438.526	4.38
438.882	4.41
439.237	4.45
439.593	4.48
439.948	4.52
440.304	4.55
440.659	4.58
441.014	4.59
441.369	4.62
441.725	4.64
442.08	4.66
442.435	4.67
442.79	4.67
443.145	4.68
443.5	4.68
443.855	4.68
444.21	4.68
444.565	4.68
444.92	4.67
445.275	4.66
445.629	4.65
445.984	4.64
446.339	4.62
446.693	4.61
447.048	4.59
447.403	4.58
447.757	4.55
448.112	4.53
448.466	4.51
448.82	4.48
449.175	4.46
449.529	4.44
449.883	4.42
450.238	4.4
450.592	4.39
450.946	4.38
451.3	4.38
451.654	4.39
452.008	4.38
452.362	4.39
452.716	4.39
453.07	4.39
453.424	4.38
453.778	4.37
454.132	4.36
454.486	4.35
454.839	4.34
455.193	4.31
455.547	4.3
455.9	4.27
456.254	4.26
456.607	4.23
456.961	4.2
457.314	4.18
457.668	4.17
458.021	4.17
458.375	4.17
458.728	4.17
459.081	4.17
459.434	4.18
459.787	4.19
460.141	4.2
460.494	4.21
460.847	4.22
461.2	4.23
461.553	4.23
461.906	4.24
462.259	4.25
462.611	4.25
462.964	4.26
463.317	4.26
463.67	4.27
464.022	4.28
464.375	4.28
464.728	4.29
465.08	4.29
465.433	4.3
465.785	4.3
466.138	4.28
466.49	4.27
466.843	4.26
467.195	4.24
467.547	4.22
467.899	4.2
468.252	4.18
468.604	4.16
468.956	4.14
469.308	4.13
469.66	4.13
470.012	4.12
470.364	4.13
470.716	4.14
471.068	4.15
471.42	4.17
471.772	4.2
472.123	4.21
472.475	4.22
472.827	4.23
473.178	4.24
473.53	4.25
473.882	4.27
474.233	4.29
474.585	4.33
474.936	4.39
475.288	4.49
475.639	4.6
475.99	4.74
476.342	4.89
476.693	5.05
477.044	5.21
477.395	5.39
477.746	5.56
478.097	5.74
478.448	5.92
478.8	6.09
479.15	6.24
479.501	6.39
479.852	6.53
480.203	6.66
480.554	6.78
480.905	6.9
481.255	7.01
481.606	7.12
481.957	7.22
482.307	7.31
482.658	7.41
483.009	7.5
483.359	7.58
483.709	7.66
484.06	7.74
484.41	7.82
484.761	7.89
485.111	7.96
485.461	8.03
485.811	8.09
486.162	8.15
486.512	8.2
486.862	8.24
487.212	8.27
487.562	8.28
487.912	8.3
488.262	8.3
488.612	8.3
488.961	8.28
489.311	8.24
489.661	8.17
490.011	8.08
490.36	7.98
490.71	7.86
491.06	7.73
491.409	7.59
491.759	7.44
492.108	7.29
492.458	7.13
492.807	6.97
493.157	6.82
493.506	6.66
493.855	6.52
494.204	6.39
494.554	6.26
494.903	6.14
495.252	6.03
495.601	5.92
495.95	5.82
496.299	5.72
496.648	5.64
496.997	5.56
497.346	5.48
497.695	5.41
498.043	5.34
498.392	5.28
498.741	5.22
499.09	5.17
499.438	5.12
499.787	5.08
500.135	5.04
500.484	5.01
500.832	4.99
501.181	4.99
501.529	5.01
501.878	5.04
502.226	5.07
502.574	5.11
502.923	5.15
503.271	5.2
503.619	5.25
503.967	5.3
504.315	5.35
504.663	5.41
505.011	5.46
505.359	5.51
505.707	5.58
506.055	5.63
506.403	5.7
506.751	5.77
507.098	5.84
507.446	5.91
507.794	5.99
508.141	6.08
508.489	6.17
508.837	6.27
509.184	6.36
509.531	6.46
509.879	6.56
510.226	6.68
510.574	6.79
510.921	6.91
511.268	7.04
511.616	7.17
511.963	7.3
512.31	7.44
512.657	7.58
513.004	7.71
513.351	7.83
513.698	7.95
514.045	8.07
514.392	8.17
514.739	8.27
515.086	8.37
515.432	8.46
515.779	8.55
516.126	8.66
516.473	8.77
516.819	8.89
517.166	9.02
517.512	9.16
517.859	9.32
518.205	9.48
518.552	9.66
518.898	9.86
519.245	10.09
519.591	10.37
519.937	10.7
520.283	11.08
520.629	11.49
520.976	11.93
521.322	12.4
521.668	12.87
522.014	13.35
522.36	13.83
522.706	14.31
523.052	14.76
523.398	15.2
523.743	15.61
524.089	15.98
524.435	16.32
524.781	16.67
525.126	17.01
525.472	17.34
525.817	17.66
526.163	17.98
526.509	18.3
526.854	18.62
527.199	18.93
527.545	19.25
527.89	19.59
528.235	19.92
528.581	20.23
528.926	20.53
529.271	20.82
529.616	21.09
529.961	21.36
530.306	21.62
530.651	21.85
530.996	22.07
531.341	22.28
531.686	22.47
532.031	22.66
532.376	22.88
532.721	23.11
533.065	23.38
533.41	23.65
533.755	23.9
534.099	24.13
534.444	24.35
534.788	24.55
535.133	24.73
535.477	24.9
535.822	25.05
536.166	25.18
536.51	25.26
536.855	25.3
537.199	25.32
537.543	25.34
537.887	25.37
538.231	25.44
538.576	25.51
538.92	25.56
539.264	25.61
539.608	25.65
539.951	25.67
540.295	25.68
540.639	25.68
540.983	25.67
541.327	25.64
541.671	25.6
542.014	25.58
542.358	25.58
542.701	25.63
543.045	25.73
543.389	25.85
543.732	25.99
544.075	26.15
544.419	26.32
544.762	26.49
545.105	26.68
545.449	26.88
545.792	27.08
546.135	27.28
546.478	27.45
546.821	27.58
547.165	27.67
547.508	27.72
547.851	27.73
548.194	27.71
548.536	27.66
548.879	27.58
549.222	27.48
549.565	27.38
549.908	27.29
550.25	27.22
550.593	27.19
550.936	27.21
551.278	27.28
551.621	27.38
551.963	27.49
552.306	27.62
552.648	27.78
552.991	27.96
553.333	28.15
553.675	28.37
554.017	28.63
554.36	28.9
554.702	29.19
555.044	29.52
555.386	29.88
555.728	30.28
556.07	30.63
556.412	30.98
556.754	31.27
557.096	31.51
557.438	31.76
557.78	32
558.121	32.24
558.463	32.49
558.805	32.74
559.147	32.98
559.488	33.23
559.83	33.48
560.171	33.72
560.513	33.96
560.854	34.2
561.196	34.43
561.537	34.66
561.878	34.89
562.22	35.11
562.561	35.32
562.902	35.54
563.243	35.74
563.584	35.95
563.925	36.16
564.266	36.36
564.607	36.56
564.948	36.77
565.289	36.96
565.63	37.15
565.971	37.34
566.312	37.53
566.653	37.73
566.993	37.9
567.334	38.07
567.675	38.25
568.015	38.42
568.356	38.58
568.696	38.75
569.037	38.9
569.377	39.06
569.718	39.21
570.058	39.34
570.398	39.48
570.739	39.62
571.079	39.75
571.419	39.88
571.759	40
572.099	40.13
572.439	40.25
572.779	40.37
573.119	40.49
573.459	40.6
573.799	40.71
574.139	40.82
574.479	40.93
574.819	41.03
575.158	41.13
575.498	41.24
575.838	41.35
576.177	41.45
576.517	41.56
576.856	41.66
577.196	41.76
577.535	41.86
577.875	41.95
578.214	42.05
578.553	42.15
578.893	42.25
579.232	42.34
579.571	42.44
579.91	42.54
580.25	42.64
580.589	42.73
580.928	42.83
581.267	42.94
581.606	43.04
581.945	43.13
582.283	43.25
582.622	43.34
582.961	43.46
583.3	43.56
583.639	43.66
583.977	43.76
584.316	43.87
584.654	43.98
584.993	44.08
585.332	44.18
585.67	44.29
586.008	44.39
586.347	44.49
586.685	44.59
587.024	44.68
587.362	44.78
587.7	44.89
588.038	44.99
588.376	45.1
588.715	45.22
589.053	45.34
589.391	45.44
589.729	45.55
590.067	45.65
590.404	45.76
590.742	45.86
591.08	45.97
591.418	46.08
591.756	46.18
592.093	46.27
592.431	46.35
592.769	46.44
593.106	46.51
593.444	46.58
593.781	46.66
594.119	46.73
594.456	46.8
594.793	46.88
595.131	46.95
595.468	47.03
595.805	47.11
596.143	47.19
596.48	47.28
596.817	47.36
597.154	47.45
597.491	47.54
597.828	47.64
598.165	47.73
598.502	47.8
598.839	47.88
599.176	47.96
599.512	48.02
599.849	48.09
600.186	48.16
600.523	48.23
600.859	48.3
601.196	48.37
601.532	48.43
601.869	48.49
602.205	48.55
602.542	48.6
602.878	48.66
603.215	48.73
603.551	48.78
603.887	48.84
604.223	48.9
604.56	48.95
604.896	49
605.232	49.05
605.568	49.09
605.904	49.14
606.24	49.19
606.576	49.23
606.912	49.29
607.248	49.33
607.583	49.37
607.919	49.41
608.255	49.45
608.591	49.5
608.926	49.54
609.262	49.58
609.597	49.62
609.933	49.65
610.268	49.69
610.604	49.72
610.939	49.75
611.275	49.78
611.61	49.81
611.945	49.82
612.281	49.85
612.616	49.89
612.951	49.91
613.286	49.94
613.621	49.98
613.956	50.01
614.291	50.05
614.626	50.07
614.961	50.11
615.296	50.15
615.631	50.18
615.966	50.21
616.3	50.26
616.635	50.29
616.97	50.31
617.304	50.35
617.639	50.39
617.973	50.42
618.308	50.46
618.642	50.49
618.977	50.52
619.311	50.58
619.646	50.63
619.98	50.67
620.314	50.72
620.648	50.77
620.983	50.82
621.317	50.87
621.651	50.93
621.985	50.98
622.319	51.01
622.653	51.06
622.987	51.09
623.321	51.12
623.655	51.15
623.988	51.17
624.322	51.19
624.656	51.23
624.99	51.26
625.323	51.29
625.657	51.34
625.99	51.37
626.324	51.4
626.657	51.45
626.991	51.48
627.324	51.52
627.658	51.55
627.991	51.58
628.324	51.62
628.657	51.66
628.991	51.69
629.324	51.74
629.657	51.77
629.99	51.8
630.323	51.84
630.656	51.88
630.989	51.91
631.322	51.95
631.655	51.99
631.987	52.02
632.32	52.05
632.653	52.09
632.986	52.1
633.318	52.13
633.651	52.16
633.984	52.18
634.316	52.2
634.649	52.23
634.981	52.24
635.313	52.28
635.646	52.31
635.978	52.35
636.31	52.37
636.643	52.43
636.975	52.47
637.307	52.52
637.639	52.56
637.971	52.61
638.303	52.64
638.635	52.68
638.967	52.72
639.299	52.77
639.631	52.79
639.963	52.84
640.295	52.88
640.626	52.92
640.958	52.95
641.29	53
641.621	53.04
641.953	53.05
642.285	53.07
642.616	53.11
642.948	53.15
643.279	53.19
643.61	53.23
643.942	53.26
644.273	53.3
644.604	53.34
644.936	53.39
645.267	53.42
645.598	53.47
645.929	53.52
646.26	53.55
646.591	53.61
646.922	53.65
647.253	53.69
647.584	53.75
647.915	53.8
648.245	53.84
648.576	53.9
648.907	53.93
649.238	53.98
649.568	54.02
649.899	54.05
650.229	54.08
650.56	54.13
650.89	54.16
651.221	54.2
651.551	54.25
651.882	54.31
652.212	54.36
652.542	54.41
652.872	54.46
653.203	54.53
653.533	54.56
653.863	54.61
654.193	54.66
654.523	54.71
654.853	54.75
655.183	54.8
655.513	54.87
655.843	54.91
656.172	54.96
656.502	54.98
656.832	55.02
657.162	55.06
657.491	55.1
657.821	55.14
658.15	55.17
658.48	55.2
658.809	55.24
659.139	55.28
659.468	55.32
659.798	55.38
660.127	55.4
660.456	55.44
660.785	55.46
661.115	55.5
661.444	55.53
661.773	55.57
662.102	55.59
662.431	55.63
662.76	55.66
663.089	55.71
663.418	55.76
663.747	55.79
664.076	55.82
664.404	55.85
664.733	55.9
665.062	55.93
665.39	55.95
665.719	56
666.048	56.04
666.376	56.1
666.705	56.14
667.033	56.17
667.362	56.22
667.69	56.25
668.018	56.31
668.347	56.36
668.675	56.38
669.003	56.42
669.331	56.48
669.659	56.5
669.987	56.55
670.315	56.61
670.643	56.66
670.971	56.71
671.299	56.73
671.627	56.78
671.955	56.81
672.283	56.86
672.61	56.92
672.938	56.96
673.266	57
673.593	57.06
673.921	57.12
674.249	57.18
674.576	57.22
674.904	57.28
675.231	57.34
675.558	57.39
675.886	57.42
676.213	57.47
676.54	57.5
676.867	57.53
677.195	57.56
677.522	57.6
677.849	57.64
678.176	57.66
678.503	57.69
678.83	57.7
679.157	57.72
679.484	57.75
679.81	57.76
680.137	57.78
680.464	57.82
680.791	57.85
681.117	57.87
681.444	57.88
681.771	57.9
682.097	57.93
682.424	57.96
682.75	57.98
683.077	58.01
683.403	58.04
683.729	58.05
684.056	58.07
684.382	58.08
684.708	58.11
685.034	58.14
685.36	58.17
685.686	58.18
686.012	58.19
686.339	58.21
686.664	58.23
686.99	58.25
687.316	58.28
687.642	58.31
687.968	58.32
688.294	58.34
688.619	58.35
688.945	58.36
689.271	58.4
689.596	58.42
689.922	58.44
690.247	58.46
690.573	58.49
690.898	58.55
691.224	58.6
691.549	58.64
691.874	58.66
692.2	58.71
692.525	58.75
692.85	58.78
693.175	58.81
693.5	58.85
693.825	58.87
694.15	58.91
694.475	58.94
694.8	58.96
695.125	58.99
695.45	59.01
695.775	59.03
696.099	59.06
696.424	59.08
696.749	59.09
697.073	59.12
697.398	59.14
697.723	59.19
698.047	59.22
698.372	59.24
698.696	59.27
699.02	59.29
699.345	59.31
699.669	59.32
699.993	59.33
700.318	59.33
700.642	59.35
700.966	59.36
701.29	59.37
701.614	59.39
701.938	59.42
702.262	59.46
702.586	59.48
702.91	59.5
703.234	59.53
703.557	59.56
703.881	59.59
704.205	59.59
704.529	59.61
704.852	59.64
705.176	59.67
705.499	59.71
705.823	59.74
706.146	59.79
706.47	59.8
706.793	59.83
707.117	59.86
707.44	59.87
707.763	59.86
708.086	59.9
708.409	59.93
708.733	59.96
709.056	60
709.379	60.02
709.702	60.07
710.025	60.11
710.348	60.11
710.671	60.12
710.993	60.15
711.316	60.17
711.639	60.19
711.962	60.23
712.284	60.26
712.607	60.28
712.93	60.3
713.252	60.33
713.575	60.37
713.897	60.38
714.22	60.42
714.542	60.43
714.864	60.44
715.187	60.45
715.509	60.44
715.831	60.44
716.153	60.47
716.475	60.49
716.798	60.5
717.12	60.52
717.442	60.56
717.764	60.58
718.085	60.6
718.407	60.65
718.729	60.66
719.051	60.68
719.373	60.67
719.695	60.73
720.016	60.74
720.338	60.75
720.659	60.78
720.981	60.83
721.302	60.86
721.624	60.87
721.945	60.9
722.267	60.91
722.588	60.95
722.909	60.92
723.231	60.96
723.552	61.01
723.873	61.08
724.194	61.08
724.515	61.13
724.836	61.15
725.157	61.14
725.478	61.15
725.799	61.18
726.12	61.22
726.441	61.24
726.762	61.24
727.083	61.26
727.403	61.25
727.724	61.29
728.045	61.33
728.365	61.35
728.686	61.39
729.006	61.43
729.327	61.46
729.647	61.46
729.967	61.5
730.288	61.52
730.608	61.54
730.928	61.56
731.249	61.58
731.569	61.54
731.889	61.57
732.209	61.58
732.529	61.61
732.849	61.62
733.169	61.65
733.489	61.68
733.809	61.68
734.129	61.71
734.448	61.72
734.768	61.73
735.088	61.75
735.408	61.74
735.727	61.74
736.047	61.76
736.366	61.75
736.686	61.75
737.005	61.73
737.325	61.74
737.644	61.74
737.963	61.72
738.283	61.73
738.602	61.73
738.921	61.75
739.24	61.75
739.56	61.75
739.879	61.74
740.198	61.71
740.517	61.73
740.836	61.73
741.155	61.7
741.473	61.68
741.792	61.65
742.111	61.65
742.43	61.61
742.748	61.6
743.067	61.62
743.386	61.6
743.704	61.57
744.023	61.59
744.341	61.58
744.66	61.61
744.978	61.58
745.297	61.57
745.615	61.56
745.933	61.53
746.252	61.55
746.57	61.52
746.888	61.55
747.206	61.55
747.524	61.56
747.842	61.56
748.16	61.56
748.478	61.59
748.796	61.63
749.114	61.66
749.432	61.69
749.749	61.71
750.067	61.73
750.385	61.72
750.703	61.74
751.02	61.77
751.338	61.8
751.655	61.82
751.973	61.81
752.29	61.82
752.608	61.87
752.925	61.88
753.242	61.93
753.56	61.93
753.877	61.98
754.194	62.01
754.511	62.07
754.828	62.11
755.145	62.13
755.462	62.17
755.779	62.22
756.096	62.2
756.413	62.25
756.73	62.31
757.047	62.29
757.364	62.33
757.68	62.35
757.997	62.4
758.314	62.47
758.63	62.48
758.947	62.54
759.264	62.57
759.58	62.64
759.896	62.65
760.213	62.68
760.529	62.7
760.846	62.72
761.162	62.75
761.478	62.73
761.794	62.75
762.11	62.75
762.426	62.77
762.743	62.81
763.059	62.8
763.375	62.83
763.69	62.82
764.006	62.82
764.322	62.86
764.638	62.91
764.954	62.92
765.27	62.94
765.585	62.92
765.901	62.97
766.216	63.02
766.532	63.05
766.848	63.06
767.163	63.04
767.478	63.06
767.794	63.07
768.109	63.05
768.424	63.08
768.74	63.05
769.055	63.05
769.37	63.05
769.685	63.04
770	63.07
770.315	63.06
770.63	63.08
770.945	63.1
771.26	63.1
771.575	63.1
771.89	63.11
772.205	63.09
772.52	63.06
772.834	63.08
773.149	63.08
773.464	63.08
773.778	63.1
774.093	63.05
774.407	63.15
774.722	63.14
775.036	63.17
775.351	63.17
775.665	63.11
775.979	63.1
776.293	63.1
776.608	63.09
776.922	63.09
777.236	63.07
777.55	63.02
777.864	63.05
778.178	63.04
778.492	63.06
778.806	63.02
779.12	63
779.434	62.97
779.747	62.94
780.061	62.96
780.375	63
780.689	63
781.002	63.02
781.316	63.01
781.629	63.01
781.943	63.06
782.256	63.09
782.57	63.1
782.883	63.09
783.196	63.12
783.51	63.15
783.823	63.14
784.136	63.09
784.449	63.18
784.762	63.18
785.075	63.21
785.388	63.22
785.701	63.24
786.014	63.27
786.327	63.3
786.64	63.32
786.953	63.42
787.266	63.39
787.578	63.43
787.891	63.47
788.204	63.47
788.516	63.5
788.829	63.56
789.141	63.6
789.454	63.61
789.766	63.65
790.079	63.7
790.391	63.75
790.703	63.75
791.016	63.81
791.328	63.81
791.64	63.85
791.952	63.86
792.264	63.87
792.576	63.88
792.888	63.9
793.2	63.84
793.512	63.84
793.824	63.88
794.136	63.92
794.448	64.01
794.76	64.01
795.071	63.96
795.383	63.96
795.695	63.99
796.006	63.99
796.318	63.95
796.629	63.96
796.941	63.97
797.252	63.97
797.564	63.91
797.875	63.9
798.186	63.93
798.497	63.88
798.809	63.84
799.12	63.83
799.431	63.83
799.742	63.82
800.053	63.83
800.364	63.79
800.675	63.74
800.986	63.74
801.297	63.73
801.608	63.69
801.918	63.66
802.229	63.77
802.54	63.76
802.851	63.72
803.161	63.69
803.472	63.67
803.782	63.62
804.093	63.7
804.403	63.66
804.714	63.62
805.024	63.64
805.334	63.68
805.645	63.67
805.955	63.67
806.265	63.72
806.575	63.68
806.885	63.7
807.195	63.65
807.505	63.68
807.815	63.76
808.125	63.82
808.435	63.83
808.745	63.86
809.055	63.91
809.365	63.88
809.674	63.89
809.984	63.91
810.294	64
810.603	64.01
810.913	64.02
811.222	64.1
811.532	64.09
811.841	64.03
812.151	64.08
812.46	64.05
812.769	64.03
813.079	64.05
813.388	64.08
813.697	64.13
814.006	64.2
814.315	64.23
814.624	64.31
814.933	64.25
815.242	64.28
815.551	64.27
815.86	64.37
816.169	64.35
816.478	64.38
816.786	64.43
817.095	64.45
817.404	64.42
817.712	64.45
818.021	64.5
818.33	64.54
818.638	64.58
818.947	64.56
819.255	64.55
819.563	64.55
819.872	64.62
820.18	64.63
820.488	64.66
820.796	64.68
821.105	64.68
821.413	64.7
821.721	64.7
822.029	64.68
822.337	64.74
822.645	64.73
822.953	64.71
823.26	64.71
823.568	64.69
823.876	64.67
824.184	64.68
824.491	64.72
824.799	64.72
825.107	64.72
825.414	64.72
825.722	64.72
826.029	64.73
826.337	64.73
826.644	64.72
826.951	64.72
827.259	64.72
827.566	64.73
827.873	64.74
828.18	64.75
828.488	64.73
828.795	64.76
829.102	64.77
829.409	64.73
829.716	64.75
830.023	64.79
830.329	64.81
830.636	64.82
830.943	64.83
831.25	64.83
831.557	64.86
831.863	64.9
832.17	64.89
832.476	64.81
832.783	64.79
833.089	64.74
833.396	64.71
833.702	64.74
834.009	64.71
834.315	64.66
834.621	64.7
834.928	64.65
835.234	64.64
835.54	64.63
835.846	64.66
836.152	64.69
836.458	64.7
836.764	64.7
837.07	64.65
837.376	64.68
837.682	64.66
837.988	64.71
838.293	64.71
838.599	64.66
838.905	64.61
839.211	64.63
839.516	64.6
839.822	64.59
840.127	64.55
840.433	64.52
840.738	64.53
841.044	64.5
841.349	64.46
841.654	64.41
841.959	64.41
842.265	64.39
842.57	64.42
842.875	64.35
843.18	64.3
843.485	64.26
843.79	64.31
844.095	64.34
844.4	64.3
844.705	64.38
845.01	64.35
845.315	64.45
845.619	64.43
845.924	64.43
846.229	64.3
846.533	64.24
846.838	64.37
847.142	64.45
847.447	64.31
847.751	64.29
848.056	64.32
848.36	64.26
848.664	64.17
848.969	64.15
849.273	64.04
849.577	64.06
849.881	63.92
850.185	64.02
850.489	63.91
850.794	64.02
851.097	64.1
851.401	64.21
851.705	64.29
852.009	64.36
852.313	64.41
852.617	64.49
852.92	64.51
853.224	64.63
853.528	64.64
853.831	64.68
854.135	64.84
854.438	64.76
854.742	64.7
855.045	64.58
855.349	64.68
855.652	64.45
855.955	64.37
856.259	64.16
856.562	64.11
856.865	64.21
857.168	64.18
857.471	64.26
857.774	64.22
858.077	64.2
858.38	64.37
858.683	64.44
858.986	64.5
859.289	64.41
859.592	64.25
859.894	64.51
860.197	64.58
860.5	64.58
860.802	64.62
861.105	64.74
861.407	64.87
861.71	65.01
862.012	65.02
862.315	65.05
862.617	64.92
862.919	64.9
863.222	64.8
863.524	64.69
863.826	64.49
864.128	64.35
864.43	64.3
864.732	64.35
865.034	64.35
865.336	64.3
865.638	64.26
865.94	64.4
866.242	64.48
866.544	64.42
866.846	64.45
867.147	64.41
867.449	64.42
867.751	64.31
868.052	64.27
868.354	64.38
868.655	64.48
868.957	64.35
869.258	64.22
869.56	64.26
869.861	64.27
870.162	64.24
870.463	64.27
870.765	64.1
871.066	64.33
871.367	64.31
871.668	64.32
871.969	64.31
872.27	64.09
872.571	64.15
872.872	64.17
873.173	64.14
873.473	64.13
873.774	64.12
874.075	64.16
874.376	64.16
874.676	64.14
874.977	64.25
875.277	64.19
875.578	64.19
875.878	64.29
876.179	64.5
876.479	64.59
876.78	64.63
877.08	64.43
877.38	64.21
877.68	64.29
877.981	64.31
878.281	64.06
878.581	63.91
