Data from UWBM37214_Reflection_00014.txt Node
Date: Sun May 02 14:05:25 EDT 2021
User: vgr7
Spectrometer: USB2G7710
Scans to average: 10
Trigger mode: 4
Integration Time (sec): 1.000000E-1
Electric dark correction enabled: true
Boxcar width: 20
XAxis mode: Wavelengths
Number of Pixels in Spectrum: 2048
>>>>>Begin Spectral Data<<<<<
177.721	231.58
178.105	372.88
178.488	-8020
178.871	800
179.254	248.55
179.636	155.36
180.019	82.19
180.402	58.94
180.785	50.97
181.168	49.71
181.55	47.18
181.933	44.73
182.316	40.87
182.698	39.29
183.081	32.04
183.463	34.96
183.846	34.46
184.228	35.72
184.611	34.8
184.993	32.08
185.376	32.14
185.758	32.99
186.14	35.58
186.522	37.58
186.904	34.98
187.287	32.71
187.669	30.72
188.051	30.85
188.433	31.65
188.815	29.2
189.197	32.42
189.579	30.72
189.961	30.26
190.342	29.16
190.724	29.25
191.106	27.83
191.488	27.85
191.869	25.83
192.251	23.91
192.633	22.83
193.014	22.16
193.396	19.56
193.777	20.88
194.159	19.16
194.54	17.73
194.922	17.62
195.303	16.02
195.684	15.23
196.065	15.31
196.447	15.71
196.828	14.74
197.209	14.1
197.59	13.3
197.971	12.87
198.352	13.14
198.733	13.59
199.114	11.09
199.495	12
199.876	10.51
200.257	10.62
200.638	10.27
201.018	10.55
201.399	11.17
201.78	10.79
202.16	8.68
202.541	9.55
202.922	9.67
203.302	9.71
203.683	10.33
204.063	10.48
204.444	9.99
204.824	9.14
205.204	7.89
205.585	8.85
205.965	9.62
206.345	8.59
206.725	9.13
207.106	9.02
207.486	10.25
207.866	11.36
208.246	10.97
208.626	11.04
209.006	11.74
209.386	10.71
209.766	10.68
210.145	12.11
210.525	12.19
210.905	14.03
211.285	14.22
211.664	14.95
212.044	14.44
212.424	14.58
212.803	15.29
213.183	15.55
213.562	15.47
213.942	15.38
214.321	15.34
214.701	16.33
215.08	16.14
215.459	17.13
215.838	16.11
216.218	15.41
216.597	14.76
216.976	15.17
217.355	14.21
217.734	15
218.113	14.54
218.492	13.44
218.871	12.15
219.25	12.32
219.629	12.82
220.008	11.63
220.387	10.37
220.766	11.68
221.144	10.95
221.523	10.54
221.902	11.52
222.28	10.33
222.659	10.52
223.037	9.77
223.416	9.34
223.794	9.63
224.173	9.41
224.551	9.17
224.929	9.41
225.308	9.36
225.686	8.81
226.064	8.49
226.442	7.77
226.821	8.03
227.199	7.85
227.577	7.88
227.955	7.99
228.333	7.64
228.711	7.06
229.089	6.52
229.467	6.44
229.845	6.31
230.222	6.13
230.6	5.95
230.978	5.89
231.356	6.27
231.733	6.36
232.111	6.08
232.488	5.84
232.866	5.77
233.243	5.72
233.621	5.59
233.998	5.81
234.376	5.79
234.753	5.31
235.13	5.15
235.508	5.4
235.885	5.24
236.262	5.03
236.639	4.9
237.016	4.83
237.393	4.76
237.77	4.77
238.147	4.68
238.524	4.69
238.901	4.63
239.278	4.52
239.655	4.5
240.032	4.48
240.409	4.44
240.785	4.44
241.162	4.47
241.539	4.46
241.915	4.54
242.292	4.53
242.668	4.5
243.045	4.44
243.421	4.41
243.798	4.39
244.174	4.44
244.551	4.48
244.927	4.48
245.303	4.49
245.679	4.5
246.056	4.49
246.432	4.45
246.808	4.41
247.184	4.4
247.56	4.43
247.936	4.41
248.312	4.4
248.688	4.41
249.064	4.4
249.44	4.37
249.815	4.36
250.191	4.34
250.567	4.35
250.943	4.31
251.318	4.3
251.694	4.33
252.069	4.34
252.445	4.32
252.82	4.28
253.196	4.24
253.571	4.22
253.947	4.2
254.322	4.18
254.697	4.18
255.073	4.18
255.448	4.18
255.823	4.15
256.198	4.14
256.573	4.12
256.948	4.11
257.323	4.07
257.698	4.01
258.073	4.01
258.448	4
258.823	3.99
259.198	3.99
259.573	3.95
259.948	3.96
260.322	3.96
260.697	3.94
261.072	3.91
261.446	3.88
261.821	3.88
262.195	3.87
262.57	3.87
262.944	3.86
263.319	3.87
263.693	3.87
264.067	3.86
264.442	3.85
264.816	3.84
265.19	3.84
265.564	3.87
265.938	3.85
266.313	3.85
266.687	3.84
267.061	3.83
267.435	3.82
267.809	3.82
268.183	3.82
268.556	3.84
268.93	3.85
269.304	3.85
269.678	3.87
270.051	3.85
270.425	3.83
270.799	3.82
271.172	3.84
271.546	3.85
271.919	3.85
272.293	3.85
272.666	3.84
273.04	3.89
273.413	3.9
273.787	3.91
274.16	3.9
274.533	3.9
274.906	3.91
275.279	3.88
275.653	3.88
276.026	3.89
276.399	3.91
276.772	3.92
277.145	3.92
277.518	3.92
277.891	3.93
278.263	3.92
278.636	3.92
279.009	3.91
279.382	3.91
279.755	3.93
280.127	3.95
280.5	3.95
280.872	3.95
281.245	3.95
281.617	3.95
281.99	3.96
282.362	3.96
282.735	3.96
283.107	3.96
283.479	3.96
283.852	3.98
284.224	3.97
284.596	3.98
284.968	3.99
285.34	4.01
285.713	4.02
286.085	4.05
286.457	4.04
286.829	4.04
287.201	4.06
287.572	4.08
287.944	4.1
288.316	4.09
288.688	4.09
289.06	4.12
289.431	4.13
289.803	4.17
290.175	4.2
290.546	4.24
290.918	4.27
291.289	4.3
291.661	4.33
292.032	4.35
292.403	4.38
292.775	4.41
293.146	4.44
293.517	4.48
293.889	4.5
294.26	4.54
294.631	4.57
295.002	4.61
295.373	4.63
295.744	4.66
296.115	4.69
296.486	4.74
296.857	4.79
297.228	4.83
297.599	4.88
297.97	4.92
298.34	4.96
298.711	5
299.082	5.02
299.452	5.07
299.823	5.1
300.194	5.13
300.564	5.18
300.935	5.22
301.305	5.26
301.676	5.3
302.046	5.35
302.416	5.39
302.787	5.4
303.157	5.43
303.527	5.48
303.897	5.53
304.267	5.59
304.637	5.65
305.008	5.69
305.378	5.73
305.748	5.77
306.117	5.82
306.487	5.88
306.857	5.93
307.227	5.99
307.597	6.04
307.967	6.09
308.336	6.15
308.706	6.18
309.076	6.21
309.445	6.24
309.815	6.29
310.184	6.33
310.554	6.36
310.923	6.42
311.293	6.45
311.662	6.49
312.031	6.52
312.401	6.57
312.77	6.6
313.139	6.66
313.508	6.71
313.877	6.76
314.246	6.8
314.616	6.84
314.985	6.89
315.353	6.93
315.722	6.97
316.091	7.03
316.46	7.05
316.829	7.11
317.198	7.16
317.567	7.21
317.935	7.29
318.304	7.36
318.672	7.41
319.041	7.47
319.41	7.51
319.778	7.55
320.147	7.6
320.515	7.64
320.883	7.68
321.252	7.71
321.62	7.74
321.988	7.78
322.357	7.81
322.725	7.86
323.093	7.89
323.461	7.92
323.829	7.95
324.197	8.01
324.565	8.05
324.933	8.08
325.301	8.1
325.669	8.15
326.037	8.17
326.405	8.21
326.772	8.24
327.14	8.26
327.508	8.28
327.875	8.31
328.243	8.32
328.61	8.34
328.978	8.35
329.346	8.38
329.713	8.4
330.08	8.43
330.448	8.43
330.815	8.45
331.182	8.46
331.55	8.49
331.917	8.51
332.284	8.51
332.651	8.52
333.018	8.54
333.385	8.56
333.752	8.58
334.119	8.59
334.486	8.62
334.853	8.66
335.22	8.69
335.587	8.72
335.954	8.75
336.32	8.78
336.687	8.81
337.054	8.83
337.42	8.86
337.787	8.88
338.153	8.91
338.52	8.91
338.886	8.93
339.253	8.94
339.619	8.96
339.986	8.98
340.352	9.02
340.718	9.04
341.084	9.05
341.451	9.07
341.817	9.09
342.183	9.1
342.549	9.12
342.915	9.13
343.281	9.16
343.647	9.18
344.013	9.19
344.379	9.2
344.745	9.22
345.11	9.24
345.476	9.27
345.842	9.29
346.208	9.29
346.573	9.31
346.939	9.33
347.304	9.37
347.67	9.38
348.035	9.38
348.401	9.39
348.766	9.4
349.132	9.41
349.497	9.41
349.862	9.4
350.228	9.41
350.593	9.41
350.958	9.41
351.323	9.42
351.688	9.43
352.053	9.42
352.418	9.41
352.783	9.39
353.148	9.39
353.513	9.39
353.878	9.39
354.243	9.39
354.608	9.37
354.972	9.37
355.337	9.35
355.702	9.34
356.066	9.32
356.431	9.31
356.795	9.29
357.16	9.28
357.524	9.27
357.889	9.25
358.253	9.23
358.618	9.2
358.982	9.18
359.346	9.16
359.71	9.15
360.075	9.13
360.439	9.11
360.803	9.08
361.167	9.07
361.531	9.04
361.895	9.01
362.259	8.97
362.623	8.94
362.987	8.92
363.351	8.9
363.714	8.88
364.078	8.85
364.442	8.83
364.806	8.8
365.169	8.76
365.533	8.73
365.896	8.7
366.26	8.66
366.623	8.62
366.987	8.57
367.35	8.54
367.714	8.5
368.077	8.46
368.44	8.41
368.803	8.37
369.167	8.32
369.53	8.28
369.893	8.22
370.256	8.17
370.619	8.11
370.982	8.08
371.345	8.03
371.708	7.98
372.071	7.93
372.434	7.87
372.797	7.82
373.159	7.77
373.522	7.73
373.885	7.68
374.247	7.63
374.61	7.57
374.973	7.51
375.335	7.46
375.698	7.41
376.06	7.36
376.423	7.31
376.785	7.26
377.147	7.21
377.51	7.16
377.872	7.11
378.234	7.06
378.596	7
378.958	6.96
379.321	6.9
379.683	6.86
380.045	6.81
380.407	6.77
380.769	6.72
381.13	6.67
381.492	6.63
381.854	6.59
382.216	6.54
382.578	6.5
382.939	6.46
383.301	6.42
383.663	6.38
384.024	6.34
384.386	6.29
384.747	6.25
385.109	6.22
385.47	6.18
385.832	6.13
386.193	6.09
386.554	6.05
386.916	6.01
387.277	5.97
387.638	5.93
387.999	5.9
388.36	5.87
388.721	5.84
389.082	5.81
389.443	5.78
389.804	5.74
390.165	5.71
390.526	5.68
390.887	5.65
391.248	5.61
391.609	5.58
391.969	5.55
392.33	5.52
392.691	5.49
393.051	5.46
393.412	5.43
393.772	5.4
394.133	5.37
394.493	5.33
394.854	5.3
395.214	5.26
395.574	5.24
395.935	5.2
396.295	5.17
396.655	5.14
397.015	5.11
397.376	5.08
397.736	5.05
398.096	5.02
398.456	4.99
398.816	4.97
399.176	4.94
399.535	4.92
399.895	4.89
400.255	4.86
400.615	4.84
400.975	4.81
401.334	4.78
401.694	4.76
402.054	4.74
402.413	4.72
402.773	4.69
403.132	4.67
403.492	4.65
403.851	4.63
404.211	4.62
404.57	4.6
404.929	4.58
405.288	4.57
405.648	4.55
406.007	4.54
406.366	4.53
406.725	4.51
407.084	4.5
407.443	4.48
407.802	4.47
408.161	4.45
408.52	4.44
408.879	4.43
409.238	4.42
409.596	4.41
409.955	4.4
410.314	4.39
410.673	4.38
411.031	4.37
411.39	4.36
411.748	4.35
412.107	4.35
412.465	4.34
412.824	4.35
413.182	4.36
413.54	4.37
413.899	4.38
414.257	4.4
414.615	4.43
414.974	4.45
415.332	4.47
415.69	4.5
416.048	4.52
416.406	4.55
416.764	4.57
417.122	4.58
417.48	4.6
417.838	4.62
418.195	4.63
418.553	4.64
418.911	4.65
419.269	4.64
419.626	4.63
419.984	4.62
420.342	4.59
420.699	4.57
421.057	4.54
421.414	4.52
421.772	4.5
422.129	4.48
422.486	4.46
422.844	4.45
423.201	4.44
423.558	4.43
423.915	4.42
424.273	4.42
424.63	4.41
424.987	4.4
425.344	4.39
425.701	4.38
426.058	4.38
426.415	4.37
426.772	4.36
427.128	4.35
427.485	4.33
427.842	4.31
428.199	4.29
428.555	4.27
428.912	4.24
429.269	4.2
429.625	4.18
429.982	4.14
430.338	4.11
430.695	4.08
431.051	4.04
431.407	4.02
431.764	4
432.12	3.98
432.476	3.97
432.832	3.96
433.189	3.96
433.545	3.96
433.901	3.97
434.257	3.99
434.613	4.02
434.969	4.04
435.325	4.06
435.681	4.1
436.036	4.12
436.392	4.14
436.748	4.16
437.104	4.17
437.459	4.18
437.815	4.2
438.171	4.22
438.526	4.25
438.882	4.27
439.237	4.31
439.593	4.34
439.948	4.36
440.304	4.4
440.659	4.42
441.014	4.44
441.369	4.46
441.725	4.47
442.08	4.49
442.435	4.5
442.79	4.5
443.145	4.5
443.5	4.5
443.855	4.5
444.21	4.5
444.565	4.49
444.92	4.48
445.275	4.47
445.629	4.45
445.984	4.44
446.339	4.42
446.693	4.4
447.048	4.38
447.403	4.36
447.757	4.33
448.112	4.31
448.466	4.28
448.82	4.25
449.175	4.22
449.529	4.2
449.883	4.17
450.238	4.14
450.592	4.14
450.946	4.12
451.3	4.12
451.654	4.12
452.008	4.12
452.362	4.12
452.716	4.11
453.07	4.11
453.424	4.1
453.778	4.09
454.132	4.08
454.486	4.07
454.839	4.06
455.193	4.03
455.547	4.02
455.9	4
456.254	3.98
456.607	3.95
456.961	3.93
457.314	3.91
457.668	3.9
458.021	3.9
458.375	3.9
458.728	3.9
459.081	3.9
459.434	3.91
459.787	3.92
460.141	3.93
460.494	3.95
460.847	3.96
461.2	3.97
461.553	3.98
461.906	3.99
462.259	4
462.611	4.01
462.964	4.02
463.317	4.03
463.67	4.04
464.022	4.06
464.375	4.07
464.728	4.08
465.08	4.09
465.433	4.1
465.785	4.1
466.138	4.1
466.49	4.09
466.843	4.08
467.195	4.06
467.547	4.05
467.899	4.04
468.252	4.02
468.604	4
468.956	3.99
469.308	3.98
469.66	3.98
470.012	3.98
470.364	3.99
470.716	4
471.068	4.02
471.42	4.04
471.772	4.06
472.123	4.08
472.475	4.09
472.827	4.1
473.178	4.12
473.53	4.13
473.882	4.14
474.233	4.17
474.585	4.2
474.936	4.26
475.288	4.35
475.639	4.45
475.99	4.57
476.342	4.72
476.693	4.87
477.044	5.02
477.395	5.18
477.746	5.34
478.097	5.5
478.448	5.67
478.8	5.83
479.15	5.98
479.501	6.12
479.852	6.25
480.203	6.37
480.554	6.48
480.905	6.59
481.255	6.69
481.606	6.8
481.957	6.89
482.307	6.98
482.658	7.07
483.009	7.15
483.359	7.23
483.709	7.31
484.06	7.39
484.41	7.46
484.761	7.53
485.111	7.6
485.461	7.67
485.811	7.73
486.162	7.79
486.512	7.85
486.862	7.89
487.212	7.92
487.562	7.94
487.912	7.96
488.262	7.97
488.612	7.97
488.961	7.96
489.311	7.92
489.661	7.86
490.011	7.79
490.36	7.7
490.71	7.59
491.06	7.48
491.409	7.35
491.759	7.23
492.108	7.09
492.458	6.96
492.807	6.81
493.157	6.67
493.506	6.54
493.855	6.41
494.204	6.3
494.554	6.18
494.903	6.08
495.252	5.99
495.601	5.9
495.95	5.82
496.299	5.74
496.648	5.67
496.997	5.61
497.346	5.55
497.695	5.51
498.043	5.46
498.392	5.42
498.741	5.38
499.09	5.35
499.438	5.33
499.787	5.31
500.135	5.3
500.484	5.3
500.832	5.31
501.181	5.33
501.529	5.37
501.878	5.42
502.226	5.49
502.574	5.56
502.923	5.64
503.271	5.72
503.619	5.81
503.967	5.9
504.315	5.98
504.663	6.07
505.011	6.16
505.359	6.26
505.707	6.36
506.055	6.46
506.403	6.57
506.751	6.68
507.098	6.8
507.446	6.91
507.794	7.04
508.141	7.16
508.489	7.3
508.837	7.44
509.184	7.59
509.531	7.74
509.879	7.9
510.226	8.07
510.574	8.25
510.921	8.45
511.268	8.64
511.616	8.84
511.963	9.05
512.31	9.26
512.657	9.47
513.004	9.67
513.351	9.87
513.698	10.06
514.045	10.24
514.392	10.41
514.739	10.57
515.086	10.72
515.432	10.88
515.779	11.03
516.126	11.2
516.473	11.37
516.819	11.55
517.166	11.75
517.512	11.97
517.859	12.2
518.205	12.45
518.552	12.73
518.898	13.02
519.245	13.36
519.591	13.76
519.937	14.23
520.283	14.77
520.629	15.36
520.976	15.98
521.322	16.63
521.668	17.29
522.014	17.96
522.36	18.64
522.706	19.3
523.052	19.95
523.398	20.56
523.743	21.12
524.089	21.63
524.435	22.11
524.781	22.58
525.126	23.03
525.472	23.48
525.817	23.92
526.163	24.35
526.509	24.77
526.854	25.19
527.199	25.61
527.545	26.02
527.89	26.46
528.235	26.88
528.581	27.29
528.926	27.67
529.271	28.04
529.616	28.39
529.961	28.72
530.306	29.04
530.651	29.34
530.996	29.62
531.341	29.88
531.686	30.12
532.031	30.33
532.376	30.57
532.721	30.83
533.065	31.12
533.41	31.42
533.755	31.68
534.099	31.92
534.444	32.11
534.788	32.28
535.133	32.43
535.477	32.57
535.822	32.68
536.166	32.75
536.51	32.76
536.855	32.72
537.199	32.65
537.543	32.59
537.887	32.54
538.231	32.54
538.576	32.53
538.92	32.52
539.264	32.49
539.608	32.44
539.951	32.38
540.295	32.31
540.639	32.22
540.983	32.12
541.327	32
541.671	31.87
542.014	31.75
542.358	31.66
542.701	31.63
543.045	31.67
543.389	31.73
543.732	31.82
544.075	31.93
544.419	32.05
544.762	32.18
545.105	32.32
545.449	32.47
545.792	32.63
546.135	32.78
546.478	32.9
546.821	32.96
547.165	32.98
547.508	32.94
547.851	32.86
548.194	32.74
548.536	32.57
548.879	32.38
549.222	32.17
549.565	31.94
549.908	31.72
550.25	31.53
550.593	31.38
550.936	31.31
551.278	31.29
551.621	31.3
551.963	31.34
552.306	31.38
552.648	31.48
552.991	31.59
553.333	31.71
553.675	31.88
554.017	32.06
554.36	32.27
554.702	32.51
555.044	32.78
555.386	33.08
555.728	33.44
556.07	33.75
556.412	34.06
556.754	34.32
557.096	34.51
557.438	34.7
557.78	34.89
558.121	35.07
558.463	35.27
558.805	35.45
559.147	35.64
559.488	35.83
559.83	36.02
560.171	36.22
560.513	36.41
560.854	36.6
561.196	36.78
561.537	36.96
561.878	37.12
562.22	37.28
562.561	37.45
562.902	37.61
563.243	37.78
563.584	37.94
563.925	38.09
564.266	38.25
564.607	38.42
564.948	38.58
565.289	38.73
565.63	38.88
565.971	39.03
566.312	39.18
566.653	39.31
566.993	39.45
567.334	39.59
567.675	39.72
568.015	39.85
568.356	39.97
568.696	40.09
569.037	40.2
569.377	40.32
569.718	40.44
570.058	40.54
570.398	40.65
570.739	40.75
571.079	40.85
571.419	40.95
571.759	41.05
572.099	41.14
572.439	41.23
572.779	41.33
573.119	41.42
573.459	41.51
573.799	41.59
574.139	41.68
574.479	41.76
574.819	41.84
575.158	41.93
575.498	42.01
575.838	42.1
576.177	42.18
576.517	42.26
576.856	42.35
577.196	42.43
577.535	42.51
577.875	42.6
578.214	42.68
578.553	42.75
578.893	42.82
579.232	42.89
579.571	42.97
579.91	43.04
580.25	43.1
580.589	43.17
580.928	43.24
581.267	43.32
581.606	43.39
581.945	43.46
582.283	43.53
582.622	43.62
582.961	43.69
583.3	43.75
583.639	43.83
583.977	43.91
584.316	43.97
584.654	44.03
584.993	44.11
585.332	44.17
585.67	44.24
586.008	44.31
586.347	44.37
586.685	44.44
587.024	44.51
587.362	44.58
587.7	44.64
588.038	44.71
588.376	44.78
588.715	44.83
589.053	44.89
589.391	44.97
589.729	45.03
590.067	45.1
590.404	45.15
590.742	45.21
591.08	45.27
591.418	45.32
591.756	45.36
592.093	45.41
592.431	45.45
592.769	45.5
593.106	45.55
593.444	45.59
593.781	45.64
594.119	45.68
594.456	45.72
594.793	45.76
595.131	45.81
595.468	45.85
595.805	45.91
596.143	45.96
596.48	46.01
596.817	46.07
597.154	46.13
597.491	46.18
597.828	46.23
598.165	46.3
598.502	46.35
598.839	46.4
599.176	46.44
599.512	46.48
599.849	46.52
600.186	46.56
600.523	46.59
600.859	46.63
601.196	46.66
601.532	46.71
601.869	46.74
602.205	46.77
602.542	46.81
602.878	46.85
603.215	46.87
603.551	46.91
603.887	46.94
604.223	46.97
604.56	47
604.896	47.02
605.232	47.06
605.568	47.09
605.904	47.13
606.24	47.16
606.576	47.18
606.912	47.19
607.248	47.22
607.583	47.25
607.919	47.28
608.255	47.32
608.591	47.35
608.926	47.37
609.262	47.39
609.597	47.41
609.933	47.42
610.268	47.45
610.604	47.47
610.939	47.47
611.275	47.49
611.61	47.51
611.945	47.52
612.281	47.54
612.616	47.56
612.951	47.57
613.286	47.59
613.621	47.62
613.956	47.63
614.291	47.65
614.626	47.67
614.961	47.68
615.296	47.7
615.631	47.71
615.966	47.73
616.3	47.75
616.635	47.78
616.97	47.79
617.304	47.81
617.639	47.82
617.973	47.84
618.308	47.87
618.642	47.89
618.977	47.91
619.311	47.92
619.646	47.94
619.98	47.95
620.314	47.97
620.648	47.99
620.983	48.02
621.317	48.03
621.651	48.06
621.985	48.06
622.319	48.06
622.653	48.08
622.987	48.09
623.321	48.11
623.655	48.13
623.988	48.13
624.322	48.14
624.656	48.15
624.99	48.16
625.323	48.16
625.657	48.17
625.99	48.17
626.324	48.19
626.657	48.2
626.991	48.22
627.324	48.23
627.658	48.24
627.991	48.26
628.324	48.27
628.657	48.3
628.991	48.31
629.324	48.33
629.657	48.35
629.99	48.36
630.323	48.38
630.656	48.4
630.989	48.41
631.322	48.43
631.655	48.44
631.987	48.45
632.32	48.46
632.653	48.48
632.986	48.49
633.318	48.49
633.651	48.5
633.984	48.51
634.316	48.53
634.649	48.55
634.981	48.56
635.313	48.57
635.646	48.59
635.978	48.63
636.31	48.65
636.643	48.66
636.975	48.69
637.307	48.71
637.639	48.72
637.971	48.74
638.303	48.76
638.635	48.78
638.967	48.81
639.299	48.84
639.631	48.86
639.963	48.88
640.295	48.9
640.626	48.91
640.958	48.92
641.29	48.93
641.621	48.95
641.953	48.95
642.285	48.97
642.616	48.98
642.948	48.98
643.279	48.98
643.61	49
643.942	49.01
644.273	49.02
644.604	49.03
644.936	49.03
645.267	49.04
645.598	49.06
645.929	49.08
646.26	49.1
646.591	49.11
646.922	49.12
647.253	49.14
647.584	49.15
647.915	49.16
648.245	49.15
648.576	49.17
648.907	49.18
649.238	49.17
649.568	49.16
649.899	49.16
650.229	49.18
650.56	49.18
650.89	49.19
651.221	49.2
651.551	49.2
651.882	49.21
652.212	49.2
652.542	49.22
652.872	49.21
653.203	49.21
653.533	49.21
653.863	49.2
654.193	49.21
654.523	49.22
654.853	49.23
655.183	49.23
655.513	49.25
655.843	49.26
656.172	49.28
656.502	49.29
656.832	49.3
657.162	49.32
657.491	49.34
657.821	49.34
658.15	49.35
658.48	49.36
658.809	49.37
659.139	49.38
659.468	49.39
659.798	49.39
660.127	49.41
660.456	49.43
660.785	49.43
661.115	49.44
661.444	49.46
661.773	49.47
662.102	49.47
662.431	49.49
662.76	49.52
663.089	49.53
663.418	49.54
663.747	49.54
664.076	49.56
664.404	49.57
664.733	49.57
665.062	49.6
665.39	49.61
665.719	49.65
666.048	49.67
666.376	49.69
666.705	49.72
667.033	49.73
667.362	49.76
667.69	49.79
668.018	49.8
668.347	49.82
668.675	49.84
669.003	49.85
669.331	49.85
669.659	49.85
669.987	49.86
670.315	49.87
670.643	49.87
670.971	49.86
671.299	49.87
671.627	49.87
671.955	49.88
672.283	49.89
672.61	49.89
672.938	49.89
673.266	49.88
673.593	49.88
673.921	49.88
674.249	49.89
674.576	49.89
674.904	49.89
675.231	49.9
675.558	49.91
675.886	49.91
676.213	49.9
676.54	49.91
676.867	49.92
677.195	49.93
677.522	49.92
677.849	49.9
678.176	49.9
678.503	49.9
678.83	49.91
679.157	49.89
679.484	49.89
679.81	49.89
680.137	49.89
680.464	49.9
680.791	49.91
681.117	49.91
681.444	49.91
681.771	49.92
682.097	49.92
682.424	49.91
682.75	49.91
683.077	49.9
683.403	49.9
683.729	49.91
684.056	49.91
684.382	49.92
684.708	49.92
685.034	49.93
685.36	49.94
685.686	49.93
686.012	49.94
686.339	49.95
686.664	49.97
686.99	49.96
687.316	49.98
687.642	49.99
687.968	50
688.294	50.01
688.619	50
688.945	50
689.271	50.01
689.596	50.02
689.922	50.02
690.247	50.02
690.573	50.02
690.898	50.04
691.224	50.06
691.549	50.08
691.874	50.09
692.2	50.08
692.525	50.11
692.85	50.11
693.175	50.1
693.5	50.09
693.825	50.09
694.15	50.09
694.475	50.09
694.8	50.08
695.125	50.08
695.45	50.09
695.775	50.1
696.099	50.1
696.424	50.12
696.749	50.13
697.073	50.15
697.398	50.15
697.723	50.16
698.047	50.16
698.372	50.18
698.696	50.2
699.02	50.2
699.345	50.21
699.669	50.22
699.993	50.25
700.318	50.27
700.642	50.29
700.966	50.3
701.29	50.3
701.614	50.32
701.938	50.33
702.262	50.35
702.586	50.35
702.91	50.36
703.234	50.37
703.557	50.38
703.881	50.42
704.205	50.42
704.529	50.43
704.852	50.44
705.176	50.45
705.499	50.48
705.823	50.48
706.146	50.52
706.47	50.56
706.793	50.59
707.117	50.63
707.44	50.66
707.763	50.68
708.086	50.72
708.409	50.76
708.733	50.78
709.056	50.8
709.379	50.84
709.702	50.84
710.025	50.84
710.348	50.83
710.671	50.83
710.993	50.83
711.316	50.84
711.639	50.83
711.962	50.83
712.284	50.84
712.607	50.82
712.93	50.82
713.252	50.79
713.575	50.81
713.897	50.78
714.22	50.79
714.542	50.8
714.864	50.77
715.187	50.79
715.509	50.79
715.831	50.81
716.153	50.81
716.475	50.81
716.798	50.81
717.12	50.81
717.442	50.81
717.764	50.83
718.085	50.84
718.407	50.82
718.729	50.81
719.051	50.81
719.373	50.79
719.695	50.77
720.016	50.77
720.338	50.75
720.659	50.74
720.981	50.74
721.302	50.74
721.624	50.74
721.945	50.74
722.267	50.74
722.588	50.72
722.909	50.73
723.231	50.75
723.552	50.74
723.873	50.75
724.194	50.76
724.515	50.76
724.836	50.75
725.157	50.75
725.478	50.73
725.799	50.76
726.12	50.77
726.441	50.77
726.762	50.76
727.083	50.77
727.403	50.76
727.724	50.74
728.045	50.75
728.365	50.74
728.686	50.75
729.006	50.74
729.327	50.77
729.647	50.78
729.967	50.78
730.288	50.77
730.608	50.78
730.928	50.75
731.249	50.75
731.569	50.74
731.889	50.74
732.209	50.78
732.529	50.77
732.849	50.79
733.169	50.79
733.489	50.82
733.809	50.8
734.129	50.81
734.448	50.82
734.768	50.81
735.088	50.81
735.408	50.83
735.727	50.85
736.047	50.87
736.366	50.89
736.686	50.92
737.005	50.93
737.325	50.95
737.644	50.93
737.963	50.96
738.283	50.98
738.602	50.98
738.921	50.99
739.24	51.01
739.56	51.04
739.879	51.03
740.198	51.03
740.517	51.07
740.836	51.09
741.155	51.11
741.473	51.15
741.792	51.16
742.111	51.16
742.43	51.14
742.748	51.15
743.067	51.16
743.386	51.17
743.704	51.17
744.023	51.19
744.341	51.21
744.66	51.27
744.978	51.31
745.297	51.31
745.615	51.34
745.933	51.36
746.252	51.39
746.57	51.41
746.888	51.44
747.206	51.43
747.524	51.44
747.842	51.44
748.16	51.45
748.478	51.42
748.796	51.41
749.114	51.41
749.432	51.4
749.749	51.39
750.067	51.4
750.385	51.43
750.703	51.43
751.02	51.42
751.338	51.41
751.655	51.4
751.973	51.37
752.29	51.34
752.608	51.34
752.925	51.33
753.242	51.36
753.56	51.35
753.877	51.34
754.194	51.32
754.511	51.25
754.828	51.25
755.145	51.27
755.462	51.29
755.779	51.29
756.096	51.3
756.413	51.3
756.73	51.28
757.047	51.26
757.364	51.25
757.68	51.22
757.997	51.21
758.314	51.17
758.63	51.16
758.947	51.12
759.264	51.12
759.58	51.09
759.896	51.06
760.213	51.08
760.529	51.07
760.846	51.07
761.162	51.06
761.478	51.09
761.794	51.11
762.11	51.13
762.426	51.15
762.743	51.13
763.059	51.11
763.375	51.09
763.69	51.12
764.006	51.17
764.322	51.17
764.638	51.22
764.954	51.25
765.27	51.27
765.585	51.25
765.901	51.29
766.216	51.28
766.532	51.27
766.848	51.29
767.163	51.31
767.478	51.35
767.794	51.34
768.109	51.32
768.424	51.31
768.74	51.3
769.055	51.32
769.37	51.36
769.685	51.38
770	51.41
770.315	51.42
770.63	51.41
770.945	51.39
771.26	51.43
771.575	51.42
771.89	51.45
772.205	51.45
772.52	51.46
772.834	51.47
773.149	51.48
773.464	51.48
773.778	51.48
774.093	51.47
774.407	51.45
774.722	51.44
775.036	51.4
775.351	51.38
775.665	51.42
775.979	51.48
776.293	51.5
776.608	51.51
776.922	51.43
777.236	51.43
777.55	51.44
777.864	51.44
778.178	51.4
778.492	51.4
778.806	51.37
779.12	51.34
779.434	51.34
779.747	51.35
780.061	51.36
780.375	51.37
780.689	51.33
781.002	51.34
781.316	51.35
781.629	51.35
781.943	51.31
782.256	51.27
782.57	51.28
782.883	51.27
783.196	51.28
783.51	51.31
783.823	51.36
784.136	51.4
784.449	51.44
784.762	51.45
785.075	51.39
785.388	51.41
785.701	51.42
786.014	51.44
786.327	51.43
786.64	51.45
786.953	51.5
787.266	51.51
787.578	51.49
787.891	51.52
788.204	51.57
788.516	51.53
788.829	51.48
789.141	51.51
789.454	51.5
789.766	51.54
790.079	51.56
790.391	51.48
790.703	51.49
791.016	51.52
791.328	51.5
791.64	51.5
791.952	51.52
792.264	51.52
792.576	51.48
792.888	51.45
793.2	51.44
793.512	51.49
793.824	51.5
794.136	51.51
794.448	51.53
794.76	51.54
795.071	51.56
795.383	51.52
795.695	51.53
796.006	51.51
796.318	51.48
796.629	51.42
796.941	51.35
797.252	51.36
797.564	51.36
797.875	51.35
798.186	51.36
798.497	51.33
798.809	51.28
799.12	51.27
799.431	51.21
799.742	51.14
800.053	51.13
800.364	51.17
800.675	51.14
800.986	51.08
801.297	51.11
801.608	51.13
801.918	51.12
802.229	51.07
802.54	51.07
802.851	51.08
803.161	51.07
803.472	51.08
803.782	51.1
804.093	51.12
804.403	51.15
804.714	51.17
805.024	51.17
805.334	51.2
805.645	51.27
805.955	51.28
806.265	51.34
806.575	51.33
806.885	51.34
807.195	51.32
807.505	51.31
807.815	51.27
808.125	51.33
808.435	51.29
808.745	51.23
809.055	51.24
809.365	51.24
809.674	51.25
809.984	51.21
810.294	51.22
810.603	51.26
810.913	51.27
811.222	51.27
811.532	51.24
811.841	51.26
812.151	51.33
812.46	51.35
812.769	51.35
813.079	51.38
813.388	51.39
813.697	51.45
814.006	51.45
814.315	51.41
814.624	51.41
814.933	51.42
815.242	51.42
815.551	51.39
815.86	51.48
816.169	51.42
816.478	51.42
816.786	51.49
817.095	51.49
817.404	51.44
817.712	51.46
818.021	51.51
818.33	51.47
818.638	51.45
818.947	51.43
819.255	51.44
819.563	51.41
819.872	51.45
820.18	51.45
820.488	51.49
820.796	51.47
821.105	51.49
821.413	51.51
821.721	51.51
822.029	51.53
822.337	51.53
822.645	51.56
822.953	51.54
823.26	51.53
823.568	51.53
823.876	51.51
824.184	51.53
824.491	51.55
824.799	51.55
825.107	51.58
825.414	51.59
825.722	51.57
826.029	51.58
826.337	51.56
826.644	51.57
826.951	51.58
827.259	51.56
827.566	51.56
827.873	51.56
828.18	51.56
828.488	51.55
828.795	51.59
829.102	51.57
829.409	51.56
829.716	51.54
830.023	51.58
830.329	51.55
830.636	51.55
830.943	51.53
831.25	51.53
831.557	51.52
831.863	51.51
832.17	51.53
832.476	51.5
832.783	51.5
833.089	51.44
833.396	51.45
833.702	51.46
834.009	51.46
834.315	51.47
834.621	51.45
834.928	51.41
835.234	51.38
835.54	51.39
835.846	51.37
836.152	51.37
836.458	51.4
836.764	51.43
837.07	51.36
837.376	51.4
837.682	51.37
837.988	51.33
838.293	51.32
838.599	51.3
838.905	51.32
839.211	51.31
839.516	51.31
839.822	51.3
840.127	51.33
840.433	51.32
840.738	51.28
841.044	51.29
841.349	51.16
841.654	51.13
841.959	51.11
842.265	51.16
842.57	51.11
842.875	51.18
843.18	51.11
843.485	51.16
843.79	51.23
844.095	51.28
844.4	51.38
844.705	51.39
845.01	51.43
845.315	51.46
845.619	51.55
845.924	51.48
846.229	51.5
846.533	51.47
846.838	51.51
847.142	51.47
847.447	51.59
847.751	51.55
848.056	51.59
848.36	51.69
848.664	51.63
848.969	51.77
849.273	51.75
849.577	51.75
849.881	51.64
850.185	51.7
850.489	51.89
850.794	51.97
851.097	52.06
851.401	52.04
851.705	51.95
852.009	52.04
852.313	52.15
852.617	52.07
852.92	52.15
853.224	52.32
853.528	52.25
853.831	52.38
854.135	52.63
854.438	52.66
854.742	52.49
855.045	52.38
855.349	52.39
855.652	52.43
855.955	52.45
856.259	52.43
856.562	52.54
856.865	52.59
857.168	52.52
857.471	52.35
857.774	52.4
858.077	52.34
858.38	52.51
858.683	52.48
858.986	52.44
859.289	52.44
859.592	52.62
859.894	52.5
860.197	52.68
860.5	52.69
860.802	52.57
861.105	52.57
861.407	52.46
861.71	52.36
862.012	52.41
862.315	52.39
862.617	52.36
862.919	52.18
863.222	52.12
863.524	51.95
863.826	52.09
864.128	52.06
864.43	52
864.732	51.79
865.034	51.83
865.336	51.9
865.638	51.79
865.94	51.89
866.242	51.79
866.544	51.59
866.846	51.47
867.147	51.59
867.449	51.69
867.751	51.7
868.052	51.69
868.354	51.66
868.655	51.49
868.957	51.15
869.258	51.05
869.56	51.07
869.861	51.16
870.162	51.15
870.463	51.32
870.765	51.29
871.066	51.32
871.367	51.32
871.668	51.17
871.969	51.12
872.27	51.1
872.571	51.06
872.872	51.05
873.173	51.15
873.473	51.23
873.774	51.23
874.075	51.24
874.376	51.26
874.676	51.22
874.977	51.19
875.277	51.19
875.578	51.22
875.878	51.36
876.179	51.18
876.479	51.29
876.78	51.24
877.08	51.5
877.38	51.53
877.68	51.29
877.981	51.29
878.281	51.15
878.581	51.45
