Data from UWBM59333_Reflection_00008.txt Node
Date: Sun May 02 13:48:23 EDT 2021
User: vgr7
Spectrometer: USB2G7710
Scans to average: 10
Trigger mode: 4
Integration Time (sec): 1.000000E-1
Electric dark correction enabled: true
Boxcar width: 20
XAxis mode: Wavelengths
Number of Pixels in Spectrum: 2048
>>>>>Begin Spectral Data<<<<<
177.721	136.96
178.105	190.76
178.488	127.91
178.871	137.5
179.254	96.62
179.636	71.52
180.019	63.09
180.402	57.65
180.785	46.56
181.168	38.37
181.55	35.74
181.933	37.33
182.316	33.15
182.698	33.36
183.081	33.22
183.463	32.73
183.846	29.77
184.228	28.18
184.611	26.92
184.993	25.19
185.376	25.58
185.758	28.59
186.14	29.93
186.522	29.85
186.904	28.71
187.287	24.33
187.669	22.86
188.051	22.82
188.433	22.23
188.815	21.12
189.197	19.96
189.579	18.1
189.961	15.81
190.342	14.75
190.724	15.61
191.106	15.32
191.488	15.32
191.869	13.39
192.251	11.85
192.633	11.89
193.014	12.17
193.396	8.01
193.777	7.47
194.159	7.77
194.54	5.86
194.922	5.27
195.303	6.27
195.684	5.07
196.065	3.71
196.447	5.1
196.828	5.71
197.209	4.62
197.59	2.27
197.971	2.06
198.352	2.85
198.733	3.49
199.114	3.61
199.495	4.39
199.876	4.11
200.257	2.48
200.638	2.68
201.018	3.25
201.399	2.45
201.78	-0.51
202.16	-2.19
202.541	-2.01
202.922	-0.81
203.302	1.29
203.683	1.98
204.063	2.41
204.444	3.25
204.824	3.5
205.204	2.88
205.585	4.32
205.965	5.49
206.345	4.58
206.725	5.66
207.106	6.16
207.486	7.26
207.866	7.91
208.246	6.75
208.626	6.02
209.006	6.83
209.386	6.1
209.766	7.22
210.145	8.31
210.525	9.85
210.905	9.44
211.285	7.64
211.664	7.96
212.044	6.84
212.424	6.16
212.803	6.38
213.183	7.23
213.562	8.14
213.942	8.48
214.321	7.5
214.701	6.54
215.08	6.45
215.459	6.39
215.838	6.52
216.218	5.25
216.597	5.03
216.976	6.16
217.355	7.96
217.734	9.49
218.113	8.44
218.492	9.34
218.871	7.95
219.25	7.92
219.629	8.58
220.008	7.17
220.387	6.84
220.766	7.41
221.144	6.71
221.523	6.03
221.902	6.21
222.28	5.75
222.659	5.42
223.037	4.65
223.416	5.01
223.794	5.56
224.173	5.83
224.551	5.68
224.929	6.1
225.308	5.83
225.686	5.43
226.064	5.21
226.442	5.47
226.821	6.75
227.199	7.12
227.577	7.16
227.955	7.37
228.333	7.8
228.711	7.83
229.089	7.29
229.467	6.56
229.845	6.59
230.222	6.69
230.6	6.65
230.978	6.71
231.356	7.32
231.733	7.45
232.111	7.27
232.488	6.83
232.866	6.46
233.243	6.09
233.621	6.05
233.998	5.9
234.376	5.81
234.753	5.37
235.13	5.36
235.508	5.46
235.885	5.47
236.262	5.34
236.639	5.35
237.016	5.3
237.393	5.33
237.77	5.26
238.147	5.21
238.524	5.24
238.901	5.18
239.278	5.14
239.655	5.09
240.032	5.07
240.409	5.07
240.785	5.06
241.162	5.08
241.539	5.01
241.915	5.05
242.292	4.99
242.668	4.94
243.045	4.92
243.421	4.91
243.798	4.89
244.174	4.91
244.551	4.92
244.927	4.94
245.303	4.97
245.679	4.96
246.056	4.93
246.432	4.94
246.808	4.85
247.184	4.85
247.56	4.83
247.936	4.85
248.312	4.86
248.688	4.86
249.064	4.88
249.44	4.86
249.815	4.86
250.191	4.84
250.567	4.81
250.943	4.79
251.318	4.78
251.694	4.79
252.069	4.75
252.445	4.75
252.82	4.73
253.196	4.71
253.571	4.72
253.947	4.69
254.322	4.67
254.697	4.66
255.073	4.66
255.448	4.65
255.823	4.61
256.198	4.59
256.573	4.57
256.948	4.58
257.323	4.55
257.698	4.52
258.073	4.51
258.448	4.5
258.823	4.47
259.198	4.44
259.573	4.4
259.948	4.39
260.322	4.37
260.697	4.34
261.072	4.33
261.446	4.32
261.821	4.29
262.195	4.3
262.57	4.28
262.944	4.28
263.319	4.29
263.693	4.27
264.067	4.26
264.442	4.23
264.816	4.22
265.19	4.23
265.564	4.24
265.938	4.22
266.313	4.22
266.687	4.21
267.061	4.19
267.435	4.18
267.809	4.17
268.183	4.17
268.556	4.16
268.93	4.15
269.304	4.15
269.678	4.14
270.051	4.12
270.425	4.11
270.799	4.09
271.172	4.11
271.546	4.1
271.919	4.08
272.293	4.07
272.666	4.05
273.04	4.06
273.413	4.1
273.787	4.11
274.16	4.14
274.533	4.14
274.906	4.14
275.279	4.14
275.653	4.15
276.026	4.15
276.399	4.14
276.772	4.15
277.145	4.16
277.518	4.16
277.891	4.17
278.263	4.16
278.636	4.17
279.009	4.17
279.382	4.18
279.755	4.2
280.127	4.21
280.5	4.22
280.872	4.25
281.245	4.26
281.617	4.27
281.99	4.28
282.362	4.29
282.735	4.3
283.107	4.31
283.479	4.3
283.852	4.33
284.224	4.35
284.596	4.36
284.968	4.38
285.34	4.42
285.713	4.45
286.085	4.47
286.457	4.48
286.829	4.5
287.201	4.52
287.572	4.55
287.944	4.57
288.316	4.58
288.688	4.58
289.06	4.6
289.431	4.62
289.803	4.66
290.175	4.69
290.546	4.72
290.918	4.76
291.289	4.79
291.661	4.83
292.032	4.86
292.403	4.89
292.775	4.92
293.146	4.97
293.517	5.01
293.889	5.03
294.26	5.08
294.631	5.12
295.002	5.17
295.373	5.21
295.744	5.25
296.115	5.28
296.486	5.33
296.857	5.39
297.228	5.43
297.599	5.5
297.97	5.55
298.34	5.6
298.711	5.66
299.082	5.72
299.452	5.77
299.823	5.83
300.194	5.89
300.564	5.93
300.935	5.96
301.305	6.03
301.676	6.1
302.046	6.16
302.416	6.23
302.787	6.29
303.157	6.35
303.527	6.42
303.897	6.52
304.267	6.59
304.637	6.68
305.008	6.76
305.378	6.84
305.748	6.93
306.117	7.01
306.487	7.12
306.857	7.21
307.227	7.3
307.597	7.39
307.967	7.47
308.336	7.54
308.706	7.63
309.076	7.7
309.445	7.79
309.815	7.86
310.184	7.93
310.554	8
310.923	8.06
311.293	8.15
311.662	8.22
312.031	8.29
312.401	8.37
312.77	8.44
313.139	8.5
313.508	8.58
313.877	8.66
314.246	8.74
314.616	8.81
314.985	8.87
315.353	8.95
315.722	9.02
316.091	9.1
316.46	9.16
316.829	9.24
317.198	9.32
317.567	9.39
317.935	9.5
318.304	9.6
318.672	9.7
319.041	9.78
319.41	9.88
319.778	9.96
320.147	10.04
320.515	10.12
320.883	10.19
321.252	10.27
321.62	10.34
321.988	10.41
322.357	10.49
322.725	10.55
323.093	10.62
323.461	10.69
323.829	10.75
324.197	10.82
324.565	10.87
324.933	10.94
325.301	10.99
325.669	11.05
326.037	11.12
326.405	11.16
326.772	11.2
327.14	11.25
327.508	11.28
327.875	11.33
328.243	11.37
328.61	11.41
328.978	11.43
329.346	11.46
329.713	11.51
330.08	11.55
330.448	11.57
330.815	11.6
331.182	11.63
331.55	11.67
331.917	11.7
332.284	11.73
332.651	11.78
333.018	11.8
333.385	11.84
333.752	11.89
334.119	11.92
334.486	11.95
334.853	11.98
335.22	12.04
335.587	12.07
335.954	12.1
336.32	12.12
336.687	12.15
337.054	12.2
337.42	12.22
337.787	12.27
338.153	12.3
338.52	12.32
338.886	12.33
339.253	12.36
339.619	12.39
339.986	12.41
340.352	12.43
340.718	12.46
341.084	12.48
341.451	12.51
341.817	12.54
342.183	12.57
342.549	12.6
342.915	12.62
343.281	12.65
343.647	12.69
344.013	12.72
344.379	12.74
344.745	12.76
345.11	12.78
345.476	12.81
345.842	12.84
346.208	12.86
346.573	12.87
346.939	12.87
347.304	12.89
347.67	12.91
348.035	12.92
348.401	12.93
348.766	12.94
349.132	12.95
349.497	12.96
349.862	12.97
350.228	12.97
350.593	12.98
350.958	12.99
351.323	12.99
351.688	12.98
352.053	12.97
352.418	12.97
352.783	12.96
353.148	12.94
353.513	12.94
353.878	12.94
354.243	12.92
354.608	12.91
354.972	12.88
355.337	12.87
355.702	12.85
356.066	12.84
356.431	12.81
356.795	12.79
357.16	12.75
357.524	12.74
357.889	12.72
358.253	12.69
358.618	12.66
358.982	12.63
359.346	12.6
359.71	12.57
360.075	12.54
360.439	12.5
360.803	12.47
361.167	12.44
361.531	12.41
361.895	12.38
362.259	12.34
362.623	12.29
362.987	12.25
363.351	12.21
363.714	12.17
364.078	12.12
364.442	12.07
364.806	12.02
365.169	11.96
365.533	11.92
365.896	11.86
366.26	11.81
366.623	11.76
366.987	11.69
367.35	11.63
367.714	11.57
368.077	11.51
368.44	11.44
368.803	11.36
369.167	11.29
369.53	11.21
369.893	11.13
370.256	11.05
370.619	10.96
370.982	10.88
371.345	10.79
371.708	10.7
372.071	10.63
372.434	10.55
372.797	10.46
373.159	10.38
373.522	10.3
373.885	10.22
374.247	10.14
374.61	10.05
374.973	9.96
375.335	9.88
375.698	9.79
376.06	9.71
376.423	9.63
376.785	9.55
377.147	9.47
377.51	9.39
377.872	9.31
378.234	9.22
378.596	9.14
378.958	9.06
379.321	8.98
379.683	8.9
380.045	8.82
380.407	8.75
380.769	8.67
381.13	8.59
381.492	8.52
381.854	8.45
382.216	8.38
382.578	8.31
382.939	8.25
383.301	8.18
383.663	8.11
384.024	8.05
384.386	7.98
384.747	7.92
385.109	7.86
385.47	7.79
385.832	7.72
386.193	7.67
386.554	7.6
386.916	7.54
387.277	7.48
387.638	7.42
387.999	7.37
388.36	7.31
388.721	7.26
389.082	7.21
389.443	7.17
389.804	7.12
390.165	7.07
390.526	7.02
390.887	6.97
391.248	6.93
391.609	6.88
391.969	6.83
392.33	6.78
392.691	6.73
393.051	6.69
393.412	6.64
393.772	6.59
394.133	6.54
394.493	6.49
394.854	6.44
395.214	6.39
395.574	6.35
395.935	6.3
396.295	6.26
396.655	6.21
397.015	6.17
397.376	6.12
397.736	6.07
398.096	6.02
398.456	5.98
398.816	5.94
399.176	5.89
399.535	5.85
399.895	5.81
400.255	5.77
400.615	5.74
400.975	5.69
401.334	5.66
401.694	5.62
402.054	5.59
402.413	5.55
402.773	5.52
403.132	5.49
403.492	5.46
403.851	5.43
404.211	5.4
404.57	5.37
404.929	5.34
405.288	5.32
405.648	5.3
406.007	5.28
406.366	5.26
406.725	5.24
407.084	5.22
407.443	5.2
407.802	5.18
408.161	5.16
408.52	5.14
408.879	5.13
409.238	5.11
409.596	5.1
409.955	5.09
410.314	5.07
410.673	5.05
411.031	5.04
411.39	5.02
411.748	5
412.107	5
412.465	4.99
412.824	5
413.182	5
413.54	5.02
413.899	5.03
414.257	5.05
414.615	5.07
414.974	5.1
415.332	5.12
415.69	5.15
416.048	5.16
416.406	5.19
416.764	5.21
417.122	5.23
417.48	5.25
417.838	5.27
418.195	5.28
418.553	5.29
418.911	5.28
419.269	5.28
419.626	5.26
419.984	5.24
420.342	5.21
420.699	5.18
421.057	5.15
421.414	5.11
421.772	5.09
422.129	5.06
422.486	5.05
422.844	5.03
423.201	5.02
423.558	5.01
423.915	4.99
424.273	4.98
424.63	4.96
424.987	4.95
425.344	4.94
425.701	4.93
426.058	4.92
426.415	4.91
426.772	4.89
427.128	4.88
427.485	4.85
427.842	4.83
428.199	4.79
428.555	4.76
428.912	4.73
429.269	4.69
429.625	4.65
429.982	4.61
430.338	4.57
430.695	4.54
431.051	4.49
431.407	4.46
431.764	4.44
432.12	4.41
432.476	4.39
432.832	4.37
433.189	4.37
433.545	4.37
433.901	4.38
434.257	4.4
434.613	4.42
434.969	4.45
435.325	4.48
435.681	4.52
436.036	4.54
436.392	4.56
436.748	4.57
437.104	4.58
437.459	4.61
437.815	4.62
438.171	4.64
438.526	4.67
438.882	4.7
439.237	4.74
439.593	4.77
439.948	4.8
440.304	4.84
440.659	4.87
441.014	4.89
441.369	4.92
441.725	4.93
442.08	4.95
442.435	4.96
442.79	4.97
443.145	4.97
443.5	4.97
443.855	4.96
444.21	4.96
444.565	4.96
444.92	4.94
445.275	4.93
445.629	4.92
445.984	4.9
446.339	4.88
446.693	4.86
447.048	4.84
447.403	4.82
447.757	4.79
448.112	4.76
448.466	4.73
448.82	4.7
449.175	4.67
449.529	4.64
449.883	4.61
450.238	4.58
450.592	4.57
450.946	4.55
451.3	4.54
451.654	4.55
452.008	4.54
452.362	4.54
452.716	4.53
453.07	4.53
453.424	4.52
453.778	4.5
454.132	4.49
454.486	4.47
454.839	4.45
455.193	4.42
455.547	4.41
455.9	4.37
456.254	4.35
456.607	4.32
456.961	4.29
457.314	4.27
457.668	4.26
458.021	4.25
458.375	4.24
458.728	4.24
459.081	4.25
459.434	4.26
459.787	4.27
460.141	4.28
460.494	4.29
460.847	4.31
461.2	4.32
461.553	4.33
461.906	4.34
462.259	4.35
462.611	4.36
462.964	4.37
463.317	4.38
463.67	4.39
464.022	4.41
464.375	4.42
464.728	4.43
465.08	4.44
465.433	4.46
465.785	4.46
466.138	4.46
466.49	4.45
466.843	4.44
467.195	4.43
467.547	4.42
467.899	4.4
468.252	4.39
468.604	4.37
468.956	4.36
469.308	4.36
469.66	4.37
470.012	4.37
470.364	4.38
470.716	4.4
471.068	4.42
471.42	4.45
471.772	4.48
472.123	4.5
472.475	4.52
472.827	4.54
473.178	4.55
473.53	4.57
473.882	4.6
474.233	4.63
474.585	4.67
474.936	4.74
475.288	4.84
475.639	4.96
475.99	5.11
476.342	5.27
476.693	5.44
477.044	5.61
477.395	5.79
477.746	5.98
478.097	6.16
478.448	6.35
478.8	6.53
479.15	6.7
479.501	6.85
479.852	6.98
480.203	7.12
480.554	7.24
480.905	7.35
481.255	7.47
481.606	7.58
481.957	7.68
482.307	7.78
482.658	7.87
483.009	7.95
483.359	8.04
483.709	8.12
484.06	8.19
484.41	8.27
484.761	8.35
485.111	8.42
485.461	8.49
485.811	8.55
486.162	8.61
486.512	8.66
486.862	8.7
487.212	8.73
487.562	8.74
487.912	8.75
488.262	8.75
488.612	8.74
488.961	8.72
489.311	8.68
489.661	8.61
490.011	8.52
490.36	8.41
490.71	8.28
491.06	8.15
491.409	8.01
491.759	7.86
492.108	7.71
492.458	7.55
492.807	7.39
493.157	7.23
493.506	7.07
493.855	6.93
494.204	6.8
494.554	6.68
494.903	6.57
495.252	6.47
495.601	6.37
495.95	6.28
496.299	6.2
496.648	6.12
496.997	6.06
497.346	6
497.695	5.95
498.043	5.9
498.392	5.86
498.741	5.82
499.09	5.79
499.438	5.77
499.787	5.76
500.135	5.75
500.484	5.75
500.832	5.77
501.181	5.81
501.529	5.86
501.878	5.94
502.226	6.02
502.574	6.1
502.923	6.2
503.271	6.3
503.619	6.41
503.967	6.52
504.315	6.63
504.663	6.74
505.011	6.87
505.359	6.99
505.707	7.12
506.055	7.25
506.403	7.38
506.751	7.53
507.098	7.68
507.446	7.83
507.794	7.98
508.141	8.15
508.489	8.33
508.837	8.51
509.184	8.7
509.531	8.9
509.879	9.1
510.226	9.33
510.574	9.56
510.921	9.81
511.268	10.06
511.616	10.32
511.963	10.59
512.31	10.87
512.657	11.14
513.004	11.41
513.351	11.67
513.698	11.92
514.045	12.17
514.392	12.4
514.739	12.62
515.086	12.83
515.432	13.04
515.779	13.26
516.126	13.48
516.473	13.71
516.819	13.97
517.166	14.25
517.512	14.55
517.859	14.87
518.205	15.21
518.552	15.57
518.898	15.97
519.245	16.41
519.591	16.94
519.937	17.55
520.283	18.26
520.629	19.02
520.976	19.83
521.322	20.66
521.668	21.52
522.014	22.38
522.36	23.25
522.706	24.1
523.052	24.93
523.398	25.72
523.743	26.44
524.089	27.11
524.435	27.72
524.781	28.33
525.126	28.93
525.472	29.52
525.817	30.09
526.163	30.65
526.509	31.2
526.854	31.75
527.199	32.29
527.545	32.83
527.89	33.39
528.235	33.94
528.581	34.46
528.926	34.95
529.271	35.42
529.616	35.87
529.961	36.31
530.306	36.73
530.651	37.12
530.996	37.47
531.341	37.78
531.686	38.08
532.031	38.36
532.376	38.66
532.721	38.99
533.065	39.36
533.41	39.74
533.755	40.08
534.099	40.37
534.444	40.62
534.788	40.82
535.133	41.01
535.477	41.16
535.822	41.28
536.166	41.35
536.51	41.35
536.855	41.3
537.199	41.21
537.543	41.11
537.887	41.06
538.231	41.04
538.576	41.03
538.92	41
539.264	40.97
539.608	40.9
539.951	40.81
540.295	40.71
540.639	40.6
540.983	40.45
541.327	40.29
541.671	40.12
542.014	39.97
542.358	39.85
542.701	39.81
543.045	39.85
543.389	39.93
543.732	40.03
544.075	40.15
544.419	40.28
544.762	40.43
545.105	40.6
545.449	40.79
545.792	40.97
546.135	41.16
546.478	41.3
546.821	41.38
547.165	41.39
547.508	41.33
547.851	41.23
548.194	41.07
548.536	40.85
548.879	40.61
549.222	40.34
549.565	40.05
549.908	39.77
550.25	39.53
550.593	39.34
550.936	39.25
551.278	39.21
551.621	39.22
551.963	39.24
552.306	39.29
552.648	39.38
552.991	39.51
553.333	39.66
553.675	39.85
554.017	40.07
554.36	40.32
554.702	40.6
555.044	40.93
555.386	41.32
555.728	41.74
556.07	42.09
556.412	42.47
556.754	42.75
557.096	42.97
557.438	43.21
557.78	43.44
558.121	43.68
558.463	43.91
558.805	44.13
559.147	44.35
559.488	44.58
559.83	44.81
560.171	45.03
560.513	45.24
560.854	45.47
561.196	45.67
561.537	45.87
561.878	46.07
562.22	46.27
562.561	46.45
562.902	46.64
563.243	46.83
563.584	47.02
563.925	47.21
564.266	47.4
564.607	47.59
564.948	47.77
565.289	47.94
565.63	48.12
565.971	48.3
566.312	48.47
566.653	48.65
566.993	48.81
567.334	48.96
567.675	49.11
568.015	49.26
568.356	49.41
568.696	49.56
569.037	49.71
569.377	49.83
569.718	49.98
570.058	50.11
570.398	50.23
570.739	50.36
571.079	50.48
571.419	50.59
571.759	50.69
572.099	50.79
572.439	50.89
572.779	51
573.119	51.1
573.459	51.2
573.799	51.29
574.139	51.38
574.479	51.47
574.819	51.56
575.158	51.65
575.498	51.73
575.838	51.83
576.177	51.92
576.517	52.01
576.856	52.1
577.196	52.18
577.535	52.26
577.875	52.34
578.214	52.42
578.553	52.5
578.893	52.58
579.232	52.66
579.571	52.73
579.91	52.8
580.25	52.87
580.589	52.95
580.928	53.03
581.267	53.11
581.606	53.18
581.945	53.26
582.283	53.34
582.622	53.41
582.961	53.48
583.3	53.56
583.639	53.63
583.977	53.69
584.316	53.76
584.654	53.84
584.993	53.91
585.332	53.99
585.67	54.08
586.008	54.15
586.347	54.23
586.685	54.29
587.024	54.37
587.362	54.44
587.7	54.52
588.038	54.61
588.376	54.69
588.715	54.76
589.053	54.85
589.391	54.93
589.729	55.01
590.067	55.08
590.404	55.16
590.742	55.22
591.08	55.3
591.418	55.38
591.756	55.44
592.093	55.49
592.431	55.55
592.769	55.61
593.106	55.67
593.444	55.72
593.781	55.78
594.119	55.83
594.456	55.88
594.793	55.93
595.131	55.98
595.468	56.02
595.805	56.08
596.143	56.13
596.48	56.2
596.817	56.26
597.154	56.34
597.491	56.4
597.828	56.49
598.165	56.55
598.502	56.6
598.839	56.65
599.176	56.71
599.512	56.77
599.849	56.81
600.186	56.85
600.523	56.89
600.859	56.92
601.196	56.97
601.532	57.01
601.869	57.05
602.205	57.1
602.542	57.15
602.878	57.19
603.215	57.22
603.551	57.27
603.887	57.31
604.223	57.35
604.56	57.39
604.896	57.41
605.232	57.44
605.568	57.48
605.904	57.51
606.24	57.54
606.576	57.56
606.912	57.59
607.248	57.62
607.583	57.64
607.919	57.66
608.255	57.69
608.591	57.72
608.926	57.74
609.262	57.77
609.597	57.79
609.933	57.81
610.268	57.83
610.604	57.84
610.939	57.84
611.275	57.85
611.61	57.84
611.945	57.85
612.281	57.87
612.616	57.88
612.951	57.88
613.286	57.88
613.621	57.91
613.956	57.94
614.291	57.96
614.626	57.99
614.961	58
615.296	58.01
615.631	58.04
615.966	58.05
616.3	58.06
616.635	58.07
616.97	58.09
617.304	58.08
617.639	58.1
617.973	58.1
618.308	58.13
618.642	58.16
618.977	58.19
619.311	58.2
619.646	58.24
619.98	58.25
620.314	58.27
620.648	58.3
620.983	58.34
621.317	58.36
621.651	58.4
621.985	58.42
622.319	58.43
622.653	58.46
622.987	58.47
623.321	58.49
623.655	58.51
623.988	58.51
624.322	58.52
624.656	58.54
624.99	58.56
625.323	58.6
625.657	58.62
625.99	58.62
626.324	58.65
626.657	58.65
626.991	58.67
627.324	58.67
627.658	58.69
627.991	58.7
628.324	58.71
628.657	58.72
628.991	58.73
629.324	58.75
629.657	58.77
629.99	58.77
630.323	58.78
630.656	58.79
630.989	58.8
631.322	58.8
631.655	58.82
631.987	58.83
632.32	58.83
632.653	58.84
632.986	58.85
633.318	58.85
633.651	58.87
633.984	58.89
634.316	58.89
634.649	58.88
634.981	58.9
635.313	58.9
635.646	58.91
635.978	58.94
636.31	58.94
636.643	58.96
636.975	58.97
637.307	58.98
637.639	58.99
637.971	59.02
638.303	59.04
638.635	59.05
638.967	59.05
639.299	59.06
639.631	59.09
639.963	59.1
640.295	59.12
640.626	59.14
640.958	59.15
641.29	59.16
641.621	59.19
641.953	59.2
642.285	59.24
642.616	59.25
642.948	59.26
643.279	59.27
643.61	59.3
643.942	59.31
644.273	59.33
644.604	59.37
644.936	59.41
645.267	59.4
645.598	59.42
645.929	59.46
646.26	59.48
646.591	59.49
646.922	59.5
647.253	59.52
647.584	59.55
647.915	59.58
648.245	59.6
648.576	59.61
648.907	59.64
649.238	59.65
649.568	59.67
649.899	59.68
650.229	59.71
650.56	59.74
650.89	59.75
651.221	59.77
651.551	59.77
651.882	59.77
652.212	59.78
652.542	59.8
652.872	59.83
653.203	59.84
653.533	59.88
653.863	59.9
654.193	59.92
654.523	59.96
654.853	59.96
655.183	59.97
655.513	59.99
655.843	60
656.172	60.02
656.502	60.03
656.832	60.05
657.162	60.06
657.491	60.08
657.821	60.1
658.15	60.12
658.48	60.12
658.809	60.15
659.139	60.16
659.468	60.17
659.798	60.18
660.127	60.21
660.456	60.24
660.785	60.24
661.115	60.25
661.444	60.26
661.773	60.27
662.102	60.28
662.431	60.28
662.76	60.28
663.089	60.29
663.418	60.3
663.747	60.31
664.076	60.33
664.404	60.36
664.733	60.37
665.062	60.38
665.39	60.42
665.719	60.43
666.048	60.44
666.376	60.46
666.705	60.46
667.033	60.43
667.362	60.44
667.69	60.45
668.018	60.44
668.347	60.45
668.675	60.46
669.003	60.46
669.331	60.47
669.659	60.49
669.987	60.49
670.315	60.49
670.643	60.48
670.971	60.49
671.299	60.49
671.627	60.47
671.955	60.48
672.283	60.48
672.61	60.48
672.938	60.48
673.266	60.47
673.593	60.46
673.921	60.46
674.249	60.47
674.576	60.47
674.904	60.49
675.231	60.49
675.558	60.5
675.886	60.52
676.213	60.55
676.54	60.55
676.867	60.56
677.195	60.57
677.522	60.56
677.849	60.56
678.176	60.57
678.503	60.59
678.83	60.59
679.157	60.6
679.484	60.6
679.81	60.63
680.137	60.64
680.464	60.66
680.791	60.68
681.117	60.68
681.444	60.71
681.771	60.73
682.097	60.74
682.424	60.76
682.75	60.77
683.077	60.77
683.403	60.79
683.729	60.79
684.056	60.82
684.382	60.82
684.708	60.82
685.034	60.84
685.36	60.84
685.686	60.84
686.012	60.85
686.339	60.86
686.664	60.87
686.99	60.92
687.316	60.91
687.642	60.92
687.968	60.92
688.294	60.93
688.619	60.94
688.945	60.94
689.271	60.94
689.596	60.94
689.922	60.96
690.247	60.98
690.573	60.98
690.898	60.99
691.224	60.99
691.549	60.99
691.874	60.99
692.2	61.01
692.525	61.01
692.85	61.01
693.175	60.99
693.5	61.02
693.825	61.03
694.15	61.03
694.475	61.03
694.8	61.05
695.125	61.04
695.45	61.05
695.775	61.05
696.099	61.06
696.424	61.07
696.749	61.09
697.073	61.11
697.398	61.12
697.723	61.14
698.047	61.15
698.372	61.13
698.696	61.16
699.02	61.18
699.345	61.18
699.669	61.2
699.993	61.22
700.318	61.22
700.642	61.24
700.966	61.23
701.29	61.24
701.614	61.28
701.938	61.27
702.262	61.28
702.586	61.3
702.91	61.33
703.234	61.33
703.557	61.34
703.881	61.33
704.205	61.33
704.529	61.36
704.852	61.39
705.176	61.4
705.499	61.4
705.823	61.44
706.146	61.46
706.47	61.47
706.793	61.48
707.117	61.48
707.44	61.51
707.763	61.53
708.086	61.51
708.409	61.53
708.733	61.55
709.056	61.56
709.379	61.57
709.702	61.61
710.025	61.6
710.348	61.61
710.671	61.62
710.993	61.64
711.316	61.66
711.639	61.7
711.962	61.7
712.284	61.74
712.607	61.75
712.93	61.74
713.252	61.75
713.575	61.75
713.897	61.77
714.22	61.79
714.542	61.82
714.864	61.81
715.187	61.83
715.509	61.84
715.831	61.84
716.153	61.84
716.475	61.86
716.798	61.88
717.12	61.9
717.442	61.93
717.764	61.93
718.085	61.94
718.407	61.95
718.729	61.94
719.051	61.94
719.373	61.97
719.695	62
720.016	62
720.338	62
720.659	61.98
720.981	62.03
721.302	62.07
721.624	62.1
721.945	62.13
722.267	62.13
722.588	62.14
722.909	62.12
723.231	62.12
723.552	62.12
723.873	62.15
724.194	62.14
724.515	62.13
724.836	62.15
725.157	62.16
725.478	62.17
725.799	62.16
726.12	62.18
726.441	62.2
726.762	62.21
727.083	62.21
727.403	62.21
727.724	62.22
728.045	62.23
728.365	62.24
728.686	62.27
729.006	62.28
729.327	62.28
729.647	62.28
729.967	62.27
730.288	62.29
730.608	62.3
730.928	62.33
731.249	62.32
731.569	62.32
731.889	62.3
732.209	62.34
732.529	62.33
732.849	62.32
733.169	62.34
733.489	62.37
733.809	62.39
734.129	62.33
734.448	62.32
734.768	62.32
735.088	62.3
735.408	62.34
735.727	62.34
736.047	62.34
736.366	62.35
736.686	62.33
737.005	62.3
737.325	62.31
737.644	62.32
737.963	62.29
738.283	62.27
738.602	62.25
738.921	62.25
739.24	62.29
739.56	62.26
739.879	62.25
740.198	62.25
740.517	62.25
740.836	62.2
741.155	62.2
741.473	62.19
741.792	62.16
742.111	62.15
742.43	62.15
742.748	62.19
743.067	62.18
743.386	62.17
743.704	62.16
744.023	62.14
744.341	62.14
744.66	62.18
744.978	62.18
745.297	62.16
745.615	62.18
745.933	62.21
746.252	62.21
746.57	62.24
746.888	62.28
747.206	62.32
747.524	62.34
747.842	62.33
748.16	62.31
748.478	62.26
748.796	62.27
749.114	62.31
749.432	62.33
749.749	62.36
750.067	62.35
750.385	62.35
750.703	62.37
751.02	62.38
751.338	62.42
751.655	62.43
751.973	62.47
752.29	62.44
752.608	62.47
752.925	62.46
753.242	62.49
753.56	62.54
753.877	62.58
754.194	62.59
754.511	62.58
754.828	62.6
755.145	62.62
755.462	62.64
755.779	62.64
756.096	62.62
756.413	62.64
756.73	62.68
757.047	62.69
757.364	62.67
757.68	62.66
757.997	62.73
758.314	62.73
758.63	62.72
758.947	62.7
759.264	62.72
759.58	62.72
759.896	62.73
760.213	62.75
760.529	62.72
760.846	62.74
761.162	62.74
761.478	62.77
761.794	62.73
762.11	62.71
762.426	62.71
762.743	62.68
763.059	62.68
763.375	62.67
763.69	62.68
764.006	62.7
764.322	62.73
764.638	62.73
764.954	62.7
765.27	62.73
765.585	62.72
765.901	62.73
766.216	62.69
766.532	62.66
766.848	62.65
767.163	62.61
767.478	62.62
767.794	62.64
768.109	62.64
768.424	62.61
768.74	62.57
769.055	62.61
769.37	62.59
769.685	62.53
770	62.51
770.315	62.56
770.63	62.57
770.945	62.56
771.26	62.54
771.575	62.51
771.89	62.51
772.205	62.46
772.52	62.41
772.834	62.36
773.149	62.33
773.464	62.34
773.778	62.3
774.093	62.27
774.407	62.27
774.722	62.31
775.036	62.32
775.351	62.32
775.665	62.38
775.979	62.44
776.293	62.42
776.608	62.4
776.922	62.37
777.236	62.34
777.55	62.3
777.864	62.35
778.178	62.32
778.492	62.32
778.806	62.34
779.12	62.39
779.434	62.4
779.747	62.45
780.061	62.49
780.375	62.49
780.689	62.44
781.002	62.42
781.316	62.44
781.629	62.43
781.943	62.42
782.256	62.47
782.57	62.45
782.883	62.47
783.196	62.42
783.51	62.37
783.823	62.37
784.136	62.37
784.449	62.39
784.762	62.39
785.075	62.44
785.388	62.51
785.701	62.5
786.014	62.54
786.327	62.53
786.64	62.52
786.953	62.62
787.266	62.6
787.578	62.62
787.891	62.65
788.204	62.63
788.516	62.62
788.829	62.59
789.141	62.61
789.454	62.63
789.766	62.66
790.079	62.67
790.391	62.71
790.703	62.66
791.016	62.66
791.328	62.6
791.64	62.59
791.952	62.54
792.264	62.52
792.576	62.46
792.888	62.43
793.2	62.43
793.512	62.49
793.824	62.49
794.136	62.53
794.448	62.6
794.76	62.6
795.071	62.58
795.383	62.63
795.695	62.59
796.006	62.63
796.318	62.64
796.629	62.61
796.941	62.6
797.252	62.62
797.564	62.59
797.875	62.55
798.186	62.53
798.497	62.51
798.809	62.45
799.12	62.48
799.431	62.56
799.742	62.52
800.053	62.5
800.364	62.49
800.675	62.49
800.986	62.48
801.297	62.49
801.608	62.5
801.918	62.5
802.229	62.47
802.54	62.44
802.851	62.42
803.161	62.42
803.472	62.46
803.782	62.46
804.093	62.46
804.403	62.48
804.714	62.51
805.024	62.5
805.334	62.48
805.645	62.5
805.955	62.52
806.265	62.48
806.575	62.51
806.885	62.52
807.195	62.53
807.505	62.52
807.815	62.49
808.125	62.47
808.435	62.49
808.745	62.38
809.055	62.36
809.365	62.4
809.674	62.51
809.984	62.56
810.294	62.61
810.603	62.62
810.913	62.56
811.222	62.6
811.532	62.58
811.841	62.58
812.151	62.49
812.46	62.49
812.769	62.5
813.079	62.49
813.388	62.49
813.697	62.51
814.006	62.51
814.315	62.49
814.624	62.52
814.933	62.57
815.242	62.64
815.551	62.63
815.86	62.62
816.169	62.68
816.478	62.71
816.786	62.74
817.095	62.78
817.404	62.86
817.712	62.95
818.021	62.99
818.33	63.03
818.638	63.11
818.947	63.13
819.255	63.16
819.563	63.16
819.872	63.17
820.18	63.18
820.488	63.21
820.796	63.27
821.105	63.31
821.413	63.36
821.721	63.37
822.029	63.34
822.337	63.32
822.645	63.32
822.953	63.33
823.26	63.35
823.568	63.37
823.876	63.38
824.184	63.41
824.491	63.42
824.799	63.43
825.107	63.43
825.414	63.43
825.722	63.43
826.029	63.43
826.337	63.44
826.644	63.44
826.951	63.44
827.259	63.44
827.566	63.42
827.873	63.39
828.18	63.4
828.488	63.41
828.795	63.39
829.102	63.4
829.409	63.42
829.716	63.41
830.023	63.39
830.329	63.36
830.636	63.37
830.943	63.37
831.25	63.29
831.557	63.31
831.863	63.3
832.17	63.28
832.476	63.22
832.783	63.23
833.089	63.22
833.396	63.16
833.702	63.14
834.009	63.14
834.315	63.13
834.621	63.17
834.928	63.17
835.234	63.14
835.54	63.11
835.846	63.08
836.152	63.05
836.458	63.03
836.764	62.99
837.07	62.95
837.376	62.92
837.682	62.93
837.988	62.96
838.293	63.01
838.599	63.01
838.905	62.91
839.211	62.89
839.516	62.94
839.822	62.93
840.127	62.98
840.433	63.02
840.738	63.1
841.044	63.1
841.349	63.15
841.654	63.16
841.959	63.15
842.265	63.15
842.57	63.17
842.875	63.21
843.18	63.17
843.485	63.25
843.79	63.38
844.095	63.3
844.4	63.31
844.705	63.37
845.01	63.46
845.315	63.49
845.619	63.48
845.924	63.5
846.229	63.47
846.533	63.38
846.838	63.38
847.142	63.38
847.447	63.38
847.751	63.54
848.056	63.54
848.36	63.59
848.664	63.48
848.969	63.44
849.273	63.48
849.577	63.47
849.881	63.64
850.185	63.5
850.489	63.32
850.794	63.15
851.097	63.28
851.401	63.42
851.705	63.35
852.009	63.23
852.313	63.26
852.617	63.4
852.92	63.39
853.224	63.28
853.528	63.09
853.831	63.05
854.135	63.01
854.438	62.9
854.742	62.99
855.045	62.83
855.349	62.84
855.652	62.91
855.955	62.71
856.259	62.72
856.562	62.82
856.865	62.9
857.168	62.85
857.471	62.77
857.774	62.72
858.077	62.65
858.38	62.7
858.683	62.77
858.986	62.8
859.289	62.85
859.592	62.94
859.894	62.92
860.197	62.62
860.5	62.71
860.802	62.65
861.105	62.9
861.407	62.92
861.71	62.87
862.012	62.88
862.315	62.8
862.617	62.99
862.919	63.29
863.222	63.24
863.524	63.2
863.826	63.24
864.128	63.37
864.43	63.53
864.732	63.52
865.034	63.41
865.336	63.39
865.638	63.33
865.94	63.51
866.242	63.46
866.544	63.46
866.846	63.71
867.147	63.74
867.449	63.81
867.751	63.7
868.052	63.81
868.354	63.8
868.655	63.8
868.957	63.66
869.258	63.42
869.56	63.41
869.861	63.48
870.162	63.51
870.463	63.75
870.765	63.68
871.066	63.65
871.367	63.71
871.668	63.52
871.969	63.5
872.27	63.47
872.571	63.76
872.872	63.67
873.173	63.72
873.473	63.6
873.774	63.65
874.075	63.66
874.376	63.69
874.676	63.76
874.977	63.67
875.277	63.53
875.578	63.63
875.878	63.57
876.179	63.57
876.479	63.54
876.78	63.39
877.08	63.27
877.38	63.29
877.68	63.37
877.981	63.39
878.281	63.3
878.581	63.54
