Data from UWBM122453_Reflection_00015.txt Node
Date: Sun May 02 12:46:10 EDT 2021
User: vgr7
Spectrometer: USB2G7710
Scans to average: 10
Trigger mode: 4
Integration Time (sec): 1.000000E-1
Electric dark correction enabled: true
Boxcar width: 20
XAxis mode: Wavelengths
Number of Pixels in Spectrum: 2048
>>>>>Begin Spectral Data<<<<<
177.721	99.48
178.105	98.94
178.488	99.03
178.871	99.29
179.254	98.75
179.636	97.52
180.019	94.64
180.402	90.26
180.785	87.27
181.168	84.56
181.55	83.47
181.933	114.42
182.316	115.86
182.698	115.62
183.081	115.34
183.463	116.25
183.846	118.26
184.228	120.14
184.611	122.06
184.993	127.59
185.376	129.16
185.758	-89.4
186.14	-43.3
186.522	-12.11
186.904	4.08
187.287	13.4
187.669	18.73
188.051	20.28
188.433	24.79
188.815	21.67
189.197	18.54
189.579	20
189.961	20.97
190.342	16.21
190.724	17.19
191.106	16.83
191.488	17.61
191.869	12.35
192.251	11.81
192.633	9.06
193.014	8.44
193.396	8.33
193.777	18.48
194.159	18.53
194.54	16.67
194.922	16.39
195.303	18.76
195.684	19.06
196.065	21.61
196.447	20.39
196.828	20.14
197.209	20.32
197.59	10.98
197.971	10.21
198.352	10.13
198.733	12.51
199.114	11.83
199.495	11.68
199.876	12.11
200.257	12.34
200.638	12.12
201.018	3.84
201.399	5.03
201.78	2.91
202.16	1.25
202.541	1.74
202.922	0.95
203.302	-2.63
203.683	-3.01
204.063	-4.51
204.444	-3.54
204.824	0.25
205.204	1.05
205.585	8.84
205.965	8.86
206.345	10.86
206.725	6.84
207.106	8.43
207.486	8.85
207.866	10.91
208.246	11.33
208.626	12.58
209.006	15.7
209.386	10.82
209.766	9.72
210.145	8.81
210.525	8.49
210.905	9.52
211.285	10.75
211.664	8.66
212.044	10.67
212.424	10.91
212.803	7.1
213.183	10.03
213.562	9.11
213.942	8.01
214.321	4.92
214.701	4.18
215.08	5.29
215.459	4.94
215.838	2.75
216.218	4.35
216.597	4.41
216.976	0.37
217.355	1.42
217.734	1.85
218.113	2.03
218.492	3.71
218.871	4.31
219.25	4.33
219.629	3.46
220.008	3.6
220.387	4.39
220.766	5.35
221.144	5.11
221.523	6.66
221.902	6.96
222.28	7.92
222.659	8.16
223.037	7.92
223.416	8.38
223.794	9.34
224.173	9.32
224.551	8.87
224.929	9.56
225.308	10.82
225.686	10.75
226.064	10.74
226.442	10.51
226.821	10.16
227.199	10.39
227.577	9.46
227.955	8.62
228.333	8.53
228.711	8.28
229.089	8.78
229.467	8.09
229.845	8.57
230.222	8.51
230.6	8.48
230.978	8.76
231.356	8.5
231.733	8.23
232.111	8.43
232.488	8.48
232.866	8.46
233.243	8.15
233.621	8.38
233.998	8.12
234.376	8.23
234.753	8.35
235.13	8.41
235.508	8.85
235.885	8.72
236.262	8.6
236.639	8.57
237.016	8.56
237.393	8.36
237.77	8.17
238.147	8.02
238.524	8
238.901	7.96
239.278	7.97
239.655	7.88
240.032	7.89
240.409	7.91
240.785	7.85
241.162	7.95
241.539	7.91
241.915	7.85
242.292	7.84
242.668	7.75
243.045	7.74
243.421	7.69
243.798	7.64
244.174	7.63
244.551	7.57
244.927	7.44
245.303	7.43
245.679	7.47
246.056	7.44
246.432	7.39
246.808	7.18
247.184	7.17
247.56	7.14
247.936	7.14
248.312	7.12
248.688	7.19
249.064	7.15
249.44	7.13
249.815	7.13
250.191	7.07
250.567	7.04
250.943	7.08
251.318	7.09
251.694	7.01
252.069	6.95
252.445	6.91
252.82	7.03
253.196	7
253.571	6.94
253.947	7.02
254.322	6.96
254.697	7.09
255.073	7.06
255.448	7.03
255.823	6.97
256.198	6.91
256.573	6.71
256.948	6.7
257.323	6.71
257.698	6.65
258.073	6.65
258.448	6.53
258.823	6.5
259.198	6.47
259.573	6.47
259.948	6.5
260.322	6.46
260.697	6.44
261.072	6.4
261.446	6.38
261.821	6.32
262.195	6.26
262.57	6.22
262.944	6.2
263.319	6.18
263.693	6.18
264.067	6.19
264.442	6.29
264.816	6.27
265.19	6.24
265.564	6.27
265.938	6.24
266.313	6.3
266.687	6.24
267.061	6.24
267.435	6.2
267.809	6.17
268.183	6.14
268.556	6.16
268.93	6.16
269.304	6.12
269.678	6.09
270.051	6.05
270.425	6.04
270.799	6.04
271.172	6.05
271.546	6.04
271.919	6.04
272.293	6.01
272.666	6
273.04	5.99
273.413	5.92
273.787	5.91
274.16	5.91
274.533	5.95
274.906	5.92
275.279	5.93
275.653	5.92
276.026	5.91
276.399	5.87
276.772	5.87
277.145	5.9
277.518	5.92
277.891	5.94
278.263	5.98
278.636	6
279.009	6.03
279.382	6
279.755	5.94
280.127	5.97
280.5	5.99
280.872	6
281.245	6.13
281.617	6.14
281.99	6.19
282.362	6.25
282.735	6.27
283.107	6.31
283.479	6.34
283.852	6.38
284.224	6.44
284.596	6.45
284.968	6.38
285.34	6.41
285.713	6.42
286.085	6.39
286.457	6.42
286.829	6.46
287.201	6.5
287.572	6.59
287.944	6.63
288.316	6.72
288.688	6.82
289.06	6.88
289.431	6.94
289.803	7
290.175	7.08
290.546	7.18
290.918	7.27
291.289	7.31
291.661	7.4
292.032	7.43
292.403	7.54
292.775	7.72
293.146	7.79
293.517	7.88
293.889	8
294.26	8.08
294.631	8.19
295.002	8.33
295.373	8.44
295.744	8.51
296.115	8.58
296.486	8.62
296.857	8.71
297.228	8.79
297.599	8.87
297.97	8.97
298.34	9.06
298.711	9.1
299.082	9.2
299.452	9.31
299.823	9.43
300.194	9.53
300.564	9.61
300.935	9.71
301.305	9.78
301.676	9.87
302.046	9.96
302.416	10.07
302.787	10.17
303.157	10.23
303.527	10.34
303.897	10.45
304.267	10.57
304.637	10.69
305.008	10.82
305.378	10.94
305.748	11.04
306.117	11.21
306.487	11.37
306.857	11.54
307.227	11.67
307.597	11.77
307.967	11.87
308.336	11.97
308.706	12.09
309.076	12.18
309.445	12.26
309.815	12.26
310.184	12.33
310.554	12.36
310.923	12.5
311.293	12.62
311.662	12.7
312.031	12.77
312.401	12.86
312.77	12.92
313.139	12.99
313.508	13.1
313.877	13.12
314.246	13.18
314.616	13.24
314.985	13.26
315.353	13.34
315.722	13.43
316.091	13.54
316.46	13.62
316.829	13.71
317.198	13.81
317.567	14
317.935	14.09
318.304	14.22
318.672	14.32
319.041	14.41
319.41	14.52
319.778	14.64
320.147	14.74
320.515	14.81
320.883	14.88
321.252	14.91
321.62	15.03
321.988	15.1
322.357	15.16
322.725	15.27
323.093	15.33
323.461	15.4
323.829	15.46
324.197	15.51
324.565	15.57
324.933	15.6
325.301	15.65
325.669	15.71
326.037	15.74
326.405	15.76
326.772	15.79
327.14	15.83
327.508	15.87
327.875	15.91
328.243	15.96
328.61	15.97
328.978	16.03
329.346	16.06
329.713	16.07
330.08	16.1
330.448	16.15
330.815	16.16
331.182	16.2
331.55	16.22
331.917	16.29
332.284	16.32
332.651	16.39
333.018	16.43
333.385	16.47
333.752	16.52
334.119	16.57
334.486	16.62
334.853	16.64
335.22	16.69
335.587	16.72
335.954	16.77
336.32	16.81
336.687	16.84
337.054	16.88
337.42	16.94
337.787	16.98
338.153	17.04
338.52	17.11
338.886	17.16
339.253	17.19
339.619	17.21
339.986	17.24
340.352	17.27
340.718	17.31
341.084	17.36
341.451	17.36
341.817	17.38
342.183	17.41
342.549	17.47
342.915	17.51
343.281	17.56
343.647	17.58
344.013	17.62
344.379	17.67
344.745	17.72
345.11	17.75
345.476	17.8
345.842	17.83
346.208	17.84
346.573	17.88
346.939	17.92
347.304	17.93
347.67	17.96
348.035	18
348.401	18.02
348.766	18.06
349.132	18.08
349.497	18.11
349.862	18.14
350.228	18.17
350.593	18.2
350.958	18.21
351.323	18.23
351.688	18.24
352.053	18.24
352.418	18.26
352.783	18.28
353.148	18.28
353.513	18.27
353.878	18.29
354.243	18.29
354.608	18.3
354.972	18.31
355.337	18.31
355.702	18.3
356.066	18.3
356.431	18.3
356.795	18.31
357.16	18.3
357.524	18.3
357.889	18.28
358.253	18.28
358.618	18.28
358.982	18.29
359.346	18.29
359.71	18.29
360.075	18.28
360.439	18.27
360.803	18.25
361.167	18.23
361.531	18.22
361.895	18.21
362.259	18.19
362.623	18.16
362.987	18.14
363.351	18.14
363.714	18.11
364.078	18.09
364.442	18.06
364.806	18.04
365.169	17.99
365.533	17.95
365.896	17.9
366.26	17.87
366.623	17.82
366.987	17.78
367.35	17.73
367.714	17.68
368.077	17.63
368.44	17.59
368.803	17.53
369.167	17.48
369.53	17.43
369.893	17.36
370.256	17.29
370.619	17.24
370.982	17.16
371.345	17.08
371.708	17.01
372.071	16.93
372.434	16.85
372.797	16.8
373.159	16.73
373.522	16.66
373.885	16.57
374.247	16.47
374.61	16.39
374.973	16.3
375.335	16.21
375.698	16.13
376.06	16.05
376.423	15.97
376.785	15.89
377.147	15.8
377.51	15.72
377.872	15.64
378.234	15.55
378.596	15.48
378.958	15.41
379.321	15.33
379.683	15.25
380.045	15.16
380.407	15.09
380.769	15.01
381.13	14.94
381.492	14.87
381.854	14.8
382.216	14.72
382.578	14.65
382.939	14.59
383.301	14.5
383.663	14.43
384.024	14.34
384.386	14.25
384.747	14.17
385.109	14.09
385.47	14.01
385.832	13.93
386.193	13.85
386.554	13.78
386.916	13.7
387.277	13.62
387.638	13.55
387.999	13.48
388.36	13.4
388.721	13.34
389.082	13.27
389.443	13.19
389.804	13.12
390.165	13.05
390.526	12.98
390.887	12.9
391.248	12.82
391.609	12.75
391.969	12.67
392.33	12.6
392.691	12.52
393.051	12.44
393.412	12.35
393.772	12.27
394.133	12.19
394.493	12.11
394.854	12.03
395.214	11.94
395.574	11.85
395.935	11.77
396.295	11.68
396.655	11.6
397.015	11.52
397.376	11.43
397.736	11.35
398.096	11.27
398.456	11.19
398.816	11.13
399.176	11.04
399.535	10.97
399.895	10.91
400.255	10.83
400.615	10.77
400.975	10.69
401.334	10.62
401.694	10.55
402.054	10.49
402.413	10.41
402.773	10.34
403.132	10.29
403.492	10.23
403.851	10.18
404.211	10.13
404.57	10.08
404.929	10.04
405.288	9.99
405.648	9.95
406.007	9.91
406.366	9.88
406.725	9.85
407.084	9.8
407.443	9.76
407.802	9.71
408.161	9.67
408.52	9.63
408.879	9.6
409.238	9.57
409.596	9.53
409.955	9.51
410.314	9.47
410.673	9.42
411.031	9.39
411.39	9.36
411.748	9.32
412.107	9.28
412.465	9.26
412.824	9.25
413.182	9.24
413.54	9.24
413.899	9.24
414.257	9.25
414.615	9.27
414.974	9.28
415.332	9.31
415.69	9.35
416.048	9.35
416.406	9.39
416.764	9.4
417.122	9.42
417.48	9.43
417.838	9.44
418.195	9.44
418.553	9.44
418.911	9.43
419.269	9.4
419.626	9.35
419.984	9.29
420.342	9.22
420.699	9.16
421.057	9.09
421.414	9.02
421.772	8.97
422.129	8.92
422.486	8.88
422.844	8.85
423.201	8.81
423.558	8.78
423.915	8.75
424.273	8.72
424.63	8.69
424.987	8.66
425.344	8.63
425.701	8.6
426.058	8.57
426.415	8.54
426.772	8.51
427.128	8.47
427.485	8.43
427.842	8.39
428.199	8.34
428.555	8.29
428.912	8.23
429.269	8.16
429.625	8.11
429.982	8.04
430.338	7.97
430.695	7.92
431.051	7.85
431.407	7.8
431.764	7.76
432.12	7.71
432.476	7.68
432.832	7.66
433.189	7.66
433.545	7.66
433.901	7.68
434.257	7.71
434.613	7.76
434.969	7.8
435.325	7.85
435.681	7.92
436.036	7.94
436.392	7.98
436.748	7.99
437.104	8
437.459	8.03
437.815	8.06
438.171	8.09
438.526	8.13
438.882	8.18
439.237	8.23
439.593	8.28
439.948	8.33
440.304	8.38
440.659	8.42
441.014	8.44
441.369	8.48
441.725	8.49
442.08	8.51
442.435	8.51
442.79	8.51
443.145	8.49
443.5	8.48
443.855	8.46
444.21	8.44
444.565	8.42
444.92	8.38
445.275	8.35
445.629	8.32
445.984	8.28
446.339	8.25
446.693	8.21
447.048	8.16
447.403	8.12
447.757	8.05
448.112	7.99
448.466	7.93
448.82	7.88
449.175	7.82
449.529	7.77
449.883	7.72
450.238	7.66
450.592	7.64
450.946	7.61
451.3	7.59
451.654	7.59
452.008	7.57
452.362	7.56
452.716	7.55
453.07	7.54
453.424	7.51
453.778	7.48
454.132	7.45
454.486	7.42
454.839	7.39
455.193	7.34
455.547	7.32
455.9	7.27
456.254	7.24
456.607	7.19
456.961	7.15
457.314	7.12
457.668	7.12
458.021	7.12
458.375	7.11
458.728	7.13
459.081	7.15
459.434	7.18
459.787	7.21
460.141	7.24
460.494	7.27
460.847	7.3
461.2	7.33
461.553	7.37
461.906	7.4
462.259	7.44
462.611	7.47
462.964	7.5
463.317	7.54
463.67	7.58
464.022	7.62
464.375	7.65
464.728	7.68
465.08	7.72
465.433	7.76
465.785	7.78
466.138	7.79
466.49	7.81
466.843	7.81
467.195	7.81
467.547	7.81
467.899	7.81
468.252	7.8
468.604	7.79
468.956	7.79
469.308	7.8
469.66	7.82
470.012	7.84
470.364	7.87
470.716	7.91
471.068	7.97
471.42	8.03
471.772	8.08
472.123	8.11
472.475	8.15
472.827	8.18
473.178	8.21
473.53	8.23
473.882	8.26
474.233	8.3
474.585	8.36
474.936	8.47
475.288	8.63
475.639	8.84
475.99	9.09
476.342	9.35
476.693	9.64
477.044	9.93
477.395	10.23
477.746	10.53
478.097	10.83
478.448	11.14
478.8	11.43
479.15	11.7
479.501	11.94
479.852	12.17
480.203	12.37
480.554	12.57
480.905	12.76
481.255	12.94
481.606	13.11
481.957	13.27
482.307	13.42
482.658	13.57
483.009	13.71
483.359	13.85
483.709	13.98
484.06	14.11
484.41	14.25
484.761	14.37
485.111	14.49
485.461	14.61
485.811	14.72
486.162	14.82
486.512	14.91
486.862	14.98
487.212	15.04
487.562	15.08
487.912	15.11
488.262	15.13
488.612	15.14
488.961	15.12
489.311	15.07
489.661	14.97
490.011	14.84
490.36	14.68
490.71	14.48
491.06	14.27
491.409	14.06
491.759	13.84
492.108	13.61
492.458	13.37
492.807	13.13
493.157	12.89
493.506	12.66
493.855	12.46
494.204	12.28
494.554	12.12
494.903	11.98
495.252	11.85
495.601	11.73
495.95	11.62
496.299	11.55
496.648	11.49
496.997	11.44
497.346	11.4
497.695	11.37
498.043	11.36
498.392	11.35
498.741	11.36
499.09	11.38
499.438	11.41
499.787	11.46
500.135	11.54
500.484	11.63
500.832	11.76
501.181	11.91
501.529	12.1
501.878	12.32
502.226	12.55
502.574	12.81
502.923	13.08
503.271	13.36
503.619	13.66
503.967	13.96
504.315	14.26
504.663	14.56
505.011	14.87
505.359	15.19
505.707	15.51
506.055	15.84
506.403	16.18
506.751	16.53
507.098	16.89
507.446	17.26
507.794	17.64
508.141	18.04
508.489	18.46
508.837	18.87
509.184	19.28
509.531	19.71
509.879	20.15
510.226	20.61
510.574	21.07
510.921	21.55
511.268	22.04
511.616	22.55
511.963	23.07
512.31	23.59
512.657	24.1
513.004	24.6
513.351	25.07
513.698	25.51
514.045	25.93
514.392	26.33
514.739	26.69
515.086	27.04
515.432	27.38
515.779	27.74
516.126	28.11
516.473	28.5
516.819	28.91
517.166	29.34
517.512	29.8
517.859	30.29
518.205	30.81
518.552	31.37
518.898	31.99
519.245	32.67
519.591	33.5
519.937	34.46
520.283	35.57
520.629	36.76
520.976	38.01
521.322	39.29
521.668	40.58
522.014	41.87
522.36	43.15
522.706	44.4
523.052	45.63
523.398	46.78
523.743	47.83
524.089	48.78
524.435	49.66
524.781	50.5
525.126	51.32
525.472	52.12
525.817	52.89
526.163	53.63
526.509	54.33
526.854	55.05
527.199	55.75
527.545	56.44
527.89	57.18
528.235	57.89
528.581	58.57
528.926	59.2
529.271	59.8
529.616	60.35
529.961	60.83
530.306	61.27
530.651	61.67
530.996	62.03
531.341	62.34
531.686	62.62
532.031	62.85
532.376	63.14
532.721	63.44
533.065	63.77
533.41	64.11
533.755	64.36
534.099	64.52
534.444	64.6
534.788	64.62
535.133	64.6
535.477	64.53
535.822	64.41
536.166	64.22
536.51	63.94
536.855	63.57
537.199	63.14
537.543	62.72
537.887	62.36
538.231	62.08
538.576	61.81
538.92	61.52
539.264	61.22
539.608	60.88
539.951	60.52
540.295	60.13
540.639	59.74
540.983	59.31
541.327	58.87
541.671	58.46
542.014	58.07
542.358	57.72
542.701	57.53
543.045	57.41
543.389	57.34
543.732	57.32
544.075	57.33
544.419	57.36
544.762	57.4
545.105	57.46
545.449	57.55
545.792	57.65
546.135	57.76
546.478	57.78
546.821	57.73
547.165	57.57
547.508	57.32
547.851	56.99
548.194	56.59
548.536	56.12
548.879	55.6
549.222	55.04
549.565	54.47
549.908	53.9
550.25	53.38
550.593	52.95
550.936	52.63
551.278	52.4
551.621	52.24
551.963	52.11
552.306	52.01
552.648	51.97
552.991	51.97
553.333	51.98
553.675	52.05
554.017	52.18
554.36	52.34
554.702	52.55
555.044	52.81
555.386	53.15
555.728	53.46
556.07	53.72
556.412	54
556.754	54.12
557.096	54.23
557.438	54.35
557.78	54.47
558.121	54.58
558.463	54.69
558.805	54.8
559.147	54.93
559.488	55.05
559.83	55.16
560.171	55.27
560.513	55.38
560.854	55.48
561.196	55.58
561.537	55.68
561.878	55.79
562.22	55.9
562.561	55.99
562.902	56.08
563.243	56.19
563.584	56.29
563.925	56.39
564.266	56.48
564.607	56.58
564.948	56.69
565.289	56.77
565.63	56.87
565.971	56.97
566.312	57.06
566.653	57.14
566.993	57.23
567.334	57.33
567.675	57.42
568.015	57.5
568.356	57.58
568.696	57.65
569.037	57.73
569.377	57.8
569.718	57.87
570.058	57.93
570.398	57.99
570.739	58.05
571.079	58.1
571.419	58.14
571.759	58.19
572.099	58.24
572.439	58.27
572.779	58.33
573.119	58.36
573.459	58.4
573.799	58.43
574.139	58.47
574.479	58.51
574.819	58.53
575.158	58.57
575.498	58.61
575.838	58.63
576.177	58.66
576.517	58.69
576.856	58.71
577.196	58.74
577.535	58.77
577.875	58.8
578.214	58.82
578.553	58.85
578.893	58.85
579.232	58.88
579.571	58.89
579.91	58.91
580.25	58.91
580.589	58.93
580.928	58.95
581.267	58.96
581.606	58.97
581.945	58.99
582.283	59.03
582.622	59.05
582.961	59.08
583.3	59.09
583.639	59.13
583.977	59.17
584.316	59.2
584.654	59.23
584.993	59.26
585.332	59.3
585.67	59.32
586.008	59.35
586.347	59.39
586.685	59.42
587.024	59.45
587.362	59.49
587.7	59.53
588.038	59.57
588.376	59.62
588.715	59.68
589.053	59.73
589.391	59.78
589.729	59.84
590.067	59.9
590.404	59.96
590.742	60.02
591.08	60.06
591.418	60.1
591.756	60.13
592.093	60.18
592.431	60.21
592.769	60.26
593.106	60.28
593.444	60.32
593.781	60.34
594.119	60.37
594.456	60.39
594.793	60.41
595.131	60.43
595.468	60.47
595.805	60.51
596.143	60.54
596.48	60.58
596.817	60.61
597.154	60.67
597.491	60.71
597.828	60.76
598.165	60.81
598.502	60.85
598.839	60.9
599.176	60.92
599.512	60.96
599.849	60.99
600.186	61.02
600.523	61.04
600.859	61.07
601.196	61.1
601.532	61.13
601.869	61.16
602.205	61.18
602.542	61.19
602.878	61.21
603.215	61.23
603.551	61.24
603.887	61.24
604.223	61.26
604.56	61.26
604.896	61.28
605.232	61.3
605.568	61.32
605.904	61.33
606.24	61.34
606.576	61.35
606.912	61.37
607.248	61.38
607.583	61.4
607.919	61.42
608.255	61.43
608.591	61.45
608.926	61.46
609.262	61.47
609.597	61.46
609.933	61.46
610.268	61.47
610.604	61.48
610.939	61.46
611.275	61.44
611.61	61.43
611.945	61.41
612.281	61.4
612.616	61.39
612.951	61.38
613.286	61.38
613.621	61.37
613.956	61.37
614.291	61.38
614.626	61.38
614.961	61.39
615.296	61.39
615.631	61.38
615.966	61.39
616.3	61.39
616.635	61.4
616.97	61.39
617.304	61.39
617.639	61.4
617.973	61.4
618.308	61.4
618.642	61.41
618.977	61.42
619.311	61.43
619.646	61.44
619.98	61.46
620.314	61.49
620.648	61.51
620.983	61.54
621.317	61.56
621.651	61.58
621.985	61.6
622.319	61.62
622.653	61.64
622.987	61.67
623.321	61.69
623.655	61.69
623.988	61.7
624.322	61.72
624.656	61.73
624.99	61.76
625.323	61.77
625.657	61.79
625.99	61.81
626.324	61.82
626.657	61.84
626.991	61.87
627.324	61.9
627.658	61.92
627.991	61.93
628.324	61.96
628.657	61.97
628.991	61.99
629.324	62.01
629.657	62.03
629.99	62.04
630.323	62.06
630.656	62.07
630.989	62.08
631.322	62.1
631.655	62.11
631.987	62.12
632.32	62.12
632.653	62.13
632.986	62.14
633.318	62.15
633.651	62.16
633.984	62.16
634.316	62.16
634.649	62.15
634.981	62.17
635.313	62.17
635.646	62.18
635.978	62.19
636.31	62.18
636.643	62.19
636.975	62.2
637.307	62.23
637.639	62.25
637.971	62.26
638.303	62.29
638.635	62.29
638.967	62.31
639.299	62.31
639.631	62.34
639.963	62.35
640.295	62.36
640.626	62.36
640.958	62.36
641.29	62.36
641.621	62.36
641.953	62.36
642.285	62.37
642.616	62.39
642.948	62.39
643.279	62.4
643.61	62.39
643.942	62.41
644.273	62.39
644.604	62.39
644.936	62.38
645.267	62.4
645.598	62.41
645.929	62.43
646.26	62.43
646.591	62.43
646.922	62.45
647.253	62.46
647.584	62.46
647.915	62.47
648.245	62.49
648.576	62.51
648.907	62.51
649.238	62.51
649.568	62.54
649.899	62.56
650.229	62.57
650.56	62.58
650.89	62.58
651.221	62.59
651.551	62.6
651.882	62.61
652.212	62.61
652.542	62.62
652.872	62.64
653.203	62.65
653.533	62.68
653.863	62.71
654.193	62.72
654.523	62.72
654.853	62.72
655.183	62.74
655.513	62.76
655.843	62.76
656.172	62.76
656.502	62.77
656.832	62.76
657.162	62.76
657.491	62.79
657.821	62.83
658.15	62.84
658.48	62.86
658.809	62.87
659.139	62.89
659.468	62.9
659.798	62.92
660.127	62.94
660.456	62.96
660.785	62.97
661.115	62.99
661.444	63.01
661.773	63.03
662.102	63.05
662.431	63.06
662.76	63.07
663.089	63.06
663.418	63.07
663.747	63.08
664.076	63.08
664.404	63.11
664.733	63.13
665.062	63.15
665.39	63.15
665.719	63.16
666.048	63.15
666.376	63.17
666.705	63.16
667.033	63.16
667.362	63.16
667.69	63.17
668.018	63.2
668.347	63.22
668.675	63.21
669.003	63.22
669.331	63.24
669.659	63.25
669.987	63.25
670.315	63.25
670.643	63.28
670.971	63.28
671.299	63.28
671.627	63.29
671.955	63.3
672.283	63.31
672.61	63.32
672.938	63.33
673.266	63.35
673.593	63.37
673.921	63.37
674.249	63.39
674.576	63.39
674.904	63.42
675.231	63.41
675.558	63.43
675.886	63.46
676.213	63.45
676.54	63.48
676.867	63.48
677.195	63.48
677.522	63.5
677.849	63.5
678.176	63.5
678.503	63.51
678.83	63.53
679.157	63.53
679.484	63.56
679.81	63.55
680.137	63.55
680.464	63.54
680.791	63.54
681.117	63.56
681.444	63.54
681.771	63.56
682.097	63.58
682.424	63.61
682.75	63.61
683.077	63.64
683.403	63.67
683.729	63.67
684.056	63.67
684.382	63.66
684.708	63.68
685.034	63.68
685.36	63.67
685.686	63.68
686.012	63.69
686.339	63.71
686.664	63.69
686.99	63.69
687.316	63.7
687.642	63.7
687.968	63.72
688.294	63.72
688.619	63.72
688.945	63.72
689.271	63.73
689.596	63.77
689.922	63.78
690.247	63.77
690.573	63.79
690.898	63.81
691.224	63.83
691.549	63.85
691.874	63.85
692.2	63.86
692.525	63.9
692.85	63.9
693.175	63.92
693.5	63.96
693.825	63.96
694.15	63.98
694.475	63.98
694.8	64.01
695.125	64
695.45	64
695.775	63.99
696.099	63.98
696.424	63.98
696.749	63.98
697.073	64.01
697.398	64.02
697.723	64.04
698.047	64.04
698.372	64.06
698.696	64.07
699.02	64.08
699.345	64.08
699.669	64.09
699.993	64.11
700.318	64.13
700.642	64.15
700.966	64.15
701.29	64.17
701.614	64.18
701.938	64.2
702.262	64.21
702.586	64.2
702.91	64.21
703.234	64.22
703.557	64.24
703.881	64.24
704.205	64.26
704.529	64.28
704.852	64.28
705.176	64.3
705.499	64.32
705.823	64.29
706.146	64.3
706.47	64.29
706.793	64.28
707.117	64.33
707.44	64.32
707.763	64.31
708.086	64.31
708.409	64.31
708.733	64.3
709.056	64.3
709.379	64.32
709.702	64.34
710.025	64.37
710.348	64.3
710.671	64.3
710.993	64.32
711.316	64.31
711.639	64.32
711.962	64.32
712.284	64.33
712.607	64.35
712.93	64.38
713.252	64.42
713.575	64.4
713.897	64.41
714.22	64.44
714.542	64.44
714.864	64.48
715.187	64.51
715.509	64.51
715.831	64.53
716.153	64.54
716.475	64.54
716.798	64.55
717.12	64.61
717.442	64.62
717.764	64.61
718.085	64.6
718.407	64.59
718.729	64.58
719.051	64.63
719.373	64.65
719.695	64.68
720.016	64.7
720.338	64.72
720.659	64.75
720.981	64.77
721.302	64.77
721.624	64.82
721.945	64.84
722.267	64.85
722.588	64.84
722.909	64.85
723.231	64.86
723.552	64.89
723.873	64.96
724.194	64.97
724.515	65.01
724.836	65.07
725.157	65.08
725.478	65.13
725.799	65.13
726.12	65.11
726.441	65.09
726.762	65.13
727.083	65.12
727.403	65.12
727.724	65.13
728.045	65.1
728.365	65.07
728.686	65.13
729.006	65.1
729.327	65.11
729.647	65.13
729.967	65.1
730.288	65.13
730.608	65.15
730.928	65.16
731.249	65.17
731.569	65.16
731.889	65.16
732.209	65.16
732.529	65.2
732.849	65.16
733.169	65.12
733.489	65.11
733.809	65.14
734.129	65.15
734.448	65.18
734.768	65.18
735.088	65.18
735.408	65.2
735.727	65.2
736.047	65.22
736.366	65.22
736.686	65.2
737.005	65.19
737.325	65.16
737.644	65.13
737.963	65.14
738.283	65.12
738.602	65.06
738.921	65.06
739.24	65.07
739.56	65.07
739.879	65.05
740.198	65.01
740.517	64.99
740.836	64.99
741.155	64.99
741.473	65.02
741.792	64.99
742.111	65.01
742.43	64.96
742.748	64.93
743.067	64.94
743.386	64.94
743.704	64.92
744.023	64.95
744.341	64.91
744.66	64.92
744.978	64.91
745.297	64.89
745.615	64.85
745.933	64.88
746.252	64.92
746.57	64.9
746.888	64.89
747.206	64.86
747.524	64.88
747.842	64.89
748.16	64.89
748.478	64.88
748.796	64.91
749.114	64.88
749.432	64.86
749.749	64.9
750.067	64.88
750.385	64.93
750.703	64.95
751.02	64.92
751.338	64.96
751.655	65
751.973	65.01
752.29	65
752.608	65.01
752.925	65.01
753.242	65.09
753.56	65.13
753.877	65.1
754.194	65.12
754.511	65.11
754.828	65.14
755.145	65.15
755.462	65.19
755.779	65.19
756.096	65.26
756.413	65.27
756.73	65.3
757.047	65.31
757.364	65.34
757.68	65.43
757.997	65.45
758.314	65.47
758.63	65.52
758.947	65.56
759.264	65.58
759.58	65.58
759.896	65.53
760.213	65.58
760.529	65.55
760.846	65.56
761.162	65.6
761.478	65.59
761.794	65.59
762.11	65.59
762.426	65.64
762.743	65.6
763.059	65.62
763.375	65.61
763.69	65.6
764.006	65.61
764.322	65.65
764.638	65.64
764.954	65.65
765.27	65.66
765.585	65.64
765.901	65.65
766.216	65.58
766.532	65.54
766.848	65.55
767.163	65.55
767.478	65.56
767.794	65.57
768.109	65.58
768.424	65.56
768.74	65.58
769.055	65.57
769.37	65.55
769.685	65.52
770	65.51
770.315	65.5
770.63	65.41
770.945	65.38
771.26	65.34
771.575	65.29
771.89	65.26
772.205	65.25
772.52	65.22
772.834	65.35
773.149	65.31
773.464	65.26
773.778	65.22
774.093	65.18
774.407	65.19
774.722	65.21
775.036	65.16
775.351	65.1
775.665	65.13
775.979	65.11
776.293	65.04
776.608	65.05
776.922	65.04
777.236	65.04
777.55	65.07
777.864	65.08
778.178	65.09
778.492	65.1
778.806	65.07
779.12	65.12
779.434	65.15
779.747	65.12
780.061	65.19
780.375	65.2
780.689	65.13
781.002	65.17
781.316	65.17
781.629	65.16
781.943	65.13
782.256	65.2
782.57	65.28
782.883	65.29
783.196	65.3
783.51	65.31
783.823	65.34
784.136	65.35
784.449	65.39
784.762	65.39
785.075	65.43
785.388	65.41
785.701	65.37
786.014	65.37
786.327	65.39
786.64	65.37
786.953	65.35
787.266	65.37
787.578	65.3
787.891	65.36
788.204	65.37
788.516	65.35
788.829	65.38
789.141	65.43
789.454	65.44
789.766	65.45
790.079	65.44
790.391	65.43
790.703	65.47
791.016	65.47
791.328	65.49
791.64	65.5
791.952	65.49
792.264	65.48
792.576	65.51
792.888	65.49
793.2	65.48
793.512	65.51
793.824	65.42
794.136	65.45
794.448	65.53
794.76	65.56
795.071	65.55
795.383	65.5
795.695	65.54
796.006	65.54
796.318	65.56
796.629	65.53
796.941	65.53
797.252	65.45
797.564	65.49
797.875	65.45
798.186	65.46
798.497	65.47
798.809	65.45
799.12	65.46
799.431	65.48
799.742	65.5
800.053	65.47
800.364	65.57
800.675	65.57
800.986	65.54
801.297	65.62
801.608	65.58
801.918	65.55
802.229	65.52
802.54	65.53
802.851	65.5
803.161	65.51
803.472	65.51
803.782	65.44
804.093	65.48
804.403	65.48
804.714	65.52
805.024	65.54
805.334	65.6
805.645	65.57
805.955	65.66
806.265	65.61
806.575	65.63
806.885	65.63
807.195	65.63
807.505	65.59
807.815	65.55
808.125	65.5
808.435	65.47
808.745	65.41
809.055	65.46
809.365	65.47
809.674	65.54
809.984	65.62
810.294	65.57
810.603	65.58
810.913	65.64
811.222	65.6
811.532	65.59
811.841	65.61
812.151	65.62
812.46	65.6
812.769	65.59
813.079	65.64
813.388	65.67
813.697	65.68
814.006	65.68
814.315	65.71
814.624	65.77
814.933	65.82
815.242	65.83
815.551	65.82
815.86	65.82
816.169	65.8
816.478	65.88
816.786	65.92
817.095	65.94
817.404	65.98
817.712	66.06
818.021	66.02
818.33	66.1
818.638	66.08
818.947	66.2
819.255	66.23
819.563	66.25
819.872	66.24
820.18	66.3
820.488	66.33
820.796	66.4
821.105	66.42
821.413	66.44
821.721	66.43
822.029	66.47
822.337	66.47
822.645	66.47
822.953	66.49
823.26	66.48
823.568	66.48
823.876	66.49
824.184	66.49
824.491	66.5
824.799	66.52
825.107	66.54
825.414	66.58
825.722	66.58
826.029	66.57
826.337	66.59
826.644	66.57
826.951	66.6
827.259	66.6
827.566	66.62
827.873	66.63
828.18	66.63
828.488	66.64
828.795	66.7
829.102	66.71
829.409	66.72
829.716	66.73
830.023	66.74
830.329	66.73
830.636	66.77
830.943	66.77
831.25	66.83
831.557	66.77
831.863	66.78
832.17	66.78
832.476	66.79
832.783	66.75
833.089	66.72
833.396	66.69
833.702	66.65
834.009	66.69
834.315	66.72
834.621	66.71
834.928	66.69
835.234	66.66
835.54	66.68
835.846	66.7
836.152	66.72
836.458	66.69
836.764	66.68
837.07	66.69
837.376	66.61
837.682	66.59
837.988	66.52
838.293	66.41
838.599	66.43
838.905	66.42
839.211	66.47
839.516	66.39
839.822	66.43
840.127	66.37
840.433	66.4
840.738	66.43
841.044	66.45
841.349	66.4
841.654	66.44
841.959	66.46
842.265	66.4
842.57	66.36
842.875	66.3
843.18	66.27
843.485	66.2
843.79	66.12
844.095	66.18
844.4	66.07
844.705	66.18
845.01	66.25
845.315	66.34
845.619	66.35
845.924	66.25
846.229	66.15
846.533	66.1
846.838	66.01
847.142	65.84
847.447	65.89
847.751	65.88
848.056	65.82
848.36	65.74
848.664	65.7
848.969	65.66
849.273	65.68
849.577	65.54
849.881	65.55
850.185	65.47
850.489	65.66
850.794	65.88
851.097	65.92
851.401	65.8
851.705	65.81
852.009	65.86
852.313	65.71
852.617	65.8
852.92	65.74
853.224	65.75
853.528	65.66
853.831	65.56
854.135	65.36
854.438	65.26
854.742	65.29
855.045	65.32
855.349	65.49
855.652	65.53
855.955	65.59
856.259	65.63
856.562	65.56
856.865	65.67
857.168	65.5
857.471	65.54
857.774	65.43
858.077	65.37
858.38	65.28
858.683	65.27
858.986	65.23
859.289	65.41
859.592	65.58
859.894	65.69
860.197	65.68
860.5	65.76
860.802	65.89
861.105	65.89
861.407	65.81
861.71	65.96
862.012	65.97
862.315	65.94
862.617	65.87
862.919	65.61
863.222	65.61
863.524	65.6
863.826	65.76
864.128	65.8
864.43	65.9
864.732	66.08
865.034	66.16
865.336	66.03
865.638	66.02
865.94	65.85
866.242	65.9
866.544	65.73
866.846	65.88
867.147	65.79
867.449	65.7
867.751	65.67
868.052	65.68
868.354	65.72
868.655	65.77
868.957	65.83
869.258	65.82
869.56	65.92
869.861	65.95
870.162	65.92
870.463	65.87
870.765	65.88
871.066	65.96
871.367	65.79
871.668	65.81
871.969	65.94
872.27	65.93
872.571	65.97
872.872	66.02
873.173	65.95
873.473	66.03
873.774	66.23
874.075	66.07
874.376	66.13
874.676	66.09
874.977	66.14
875.277	66.16
875.578	66.05
875.878	65.86
876.179	65.9
876.479	65.81
876.78	65.82
877.08	65.65
877.38	65.52
877.68	65.64
877.981	65.68
878.281	65.83
878.581	65.75
