Data from UWBM41002_Reflection_00004.txt Node
Date: Sun May 02 14:13:39 EDT 2021
User: vgr7
Spectrometer: USB2G7710
Scans to average: 10
Trigger mode: 4
Integration Time (sec): 1.000000E-1
Electric dark correction enabled: true
Boxcar width: 20
XAxis mode: Wavelengths
Number of Pixels in Spectrum: 2048
>>>>>Begin Spectral Data<<<<<
177.721	153.57
178.105	147.65
178.488	159.21
178.871	103.59
179.254	65.43
179.636	44.82
180.019	31.76
180.402	20.46
180.785	15.9
181.168	21.21
181.55	14.98
181.933	17.71
182.316	22.32
182.698	22.21
183.081	17.83
183.463	12.06
183.846	8.94
184.228	14.49
184.611	13.57
184.993	12.75
185.376	12.03
185.758	18.89
186.14	20.24
186.522	20.22
186.904	20.62
187.287	22.49
187.669	21.23
188.051	22.33
188.433	21.26
188.815	16.98
189.197	17.27
189.579	17.62
189.961	18.17
190.342	19.5
190.724	22.44
191.106	22.94
191.488	20.77
191.869	20.99
192.251	18.75
192.633	16.09
193.014	14.86
193.396	12.22
193.777	12.78
194.159	12.67
194.54	12.99
194.922	12.53
195.303	14.1
195.684	12.72
196.065	13.14
196.447	14.73
196.828	12.5
197.209	12.89
197.59	10.74
197.971	8.76
198.352	9.91
198.733	11.48
199.114	13.4
199.495	14.53
199.876	12.99
200.257	13.54
200.638	14.11
201.018	16.26
201.399	14.2
201.78	13.61
202.16	12.83
202.541	12.1
202.922	10.67
203.302	9.89
203.683	9.51
204.063	9.94
204.444	10.31
204.824	10.01
205.204	8.31
205.585	9.09
205.965	8.83
206.345	6.4
206.725	5.58
207.106	5.59
207.486	4.17
207.866	4.4
208.246	3.74
208.626	3.3
209.006	4
209.386	2.73
209.766	2.04
210.145	2.43
210.525	3.35
210.905	3.95
211.285	3.78
211.664	4.07
212.044	3.24
212.424	3.84
212.803	4.36
213.183	4.59
213.562	5.86
213.942	5.97
214.321	4.1
214.701	2.64
215.08	2.86
215.459	2.29
215.838	1.76
216.218	0.96
216.597	-1
216.976	-0.55
217.355	0.01
217.734	0.28
218.113	0.39
218.492	-0.97
218.871	-0.75
219.25	-0.8
219.629	-0.84
220.008	-0.66
220.387	-1.21
220.766	0.3
221.144	0.15
221.523	0.24
221.902	0.87
222.28	0.88
222.659	1.36
223.037	1.71
223.416	2.5
223.794	3.87
224.173	4.28
224.551	3.38
224.929	4.63
225.308	4.37
225.686	4.48
226.064	4.6
226.442	3.93
226.821	4.67
227.199	5.22
227.577	4.94
227.955	5.15
228.333	5.08
228.711	5.07
229.089	4.6
229.467	4.27
229.845	4.8
230.222	4.99
230.6	4.86
230.978	4.9
231.356	5.09
231.733	4.91
232.111	4.75
232.488	4.62
232.866	4.37
233.243	4.41
233.621	4.37
233.998	4.64
234.376	4.71
234.753	4.48
235.13	4.55
235.508	4.73
235.885	4.68
236.262	4.55
236.639	4.48
237.016	4.41
237.393	4.53
237.77	4.57
238.147	4.52
238.524	4.5
238.901	4.4
239.278	4.3
239.655	4.42
240.032	4.46
240.409	4.43
240.785	4.51
241.162	4.5
241.539	4.47
241.915	4.52
242.292	4.53
242.668	4.5
243.045	4.52
243.421	4.52
243.798	4.53
244.174	4.56
244.551	4.57
244.927	4.58
245.303	4.57
245.679	4.56
246.056	4.54
246.432	4.54
246.808	4.5
247.184	4.55
247.56	4.58
247.936	4.57
248.312	4.59
248.688	4.57
249.064	4.58
249.44	4.57
249.815	4.53
250.191	4.53
250.567	4.52
250.943	4.47
251.318	4.45
251.694	4.45
252.069	4.45
252.445	4.46
252.82	4.46
253.196	4.43
253.571	4.43
253.947	4.44
254.322	4.43
254.697	4.46
255.073	4.41
255.448	4.43
255.823	4.38
256.198	4.34
256.573	4.33
256.948	4.34
257.323	4.31
257.698	4.28
258.073	4.25
258.448	4.24
258.823	4.21
259.198	4.19
259.573	4.17
259.948	4.16
260.322	4.13
260.697	4.1
261.072	4.08
261.446	4.06
261.821	4.04
262.195	4.04
262.57	4.01
262.944	4.01
263.319	4.03
263.693	4.04
264.067	4.05
264.442	4.02
264.816	4.01
265.19	4.02
265.564	4.02
265.938	4.01
266.313	4.02
266.687	4.03
267.061	4.04
267.435	4.03
267.809	4
268.183	3.98
268.556	3.98
268.93	3.98
269.304	3.98
269.678	3.97
270.051	3.95
270.425	3.93
270.799	3.92
271.172	3.94
271.546	3.95
271.919	3.95
272.293	3.94
272.666	3.93
273.04	3.94
273.413	3.97
273.787	3.98
274.16	3.98
274.533	3.98
274.906	4
275.279	4
275.653	4.01
276.026	4.01
276.399	4.03
276.772	4.05
277.145	4.05
277.518	4.06
277.891	4.06
278.263	4.04
278.636	4.03
279.009	4.01
279.382	4.01
279.755	4.02
280.127	4.03
280.5	4.03
280.872	4.05
281.245	4.06
281.617	4.07
281.99	4.06
282.362	4.03
282.735	4.04
283.107	4.05
283.479	4.05
283.852	4.05
284.224	4.05
284.596	4.04
284.968	4.04
285.34	4.04
285.713	4.04
286.085	4.06
286.457	4.05
286.829	4.05
287.201	4.05
287.572	4.03
287.944	4.04
288.316	4.03
288.688	4.01
289.06	4.01
289.431	4.01
289.803	4.01
290.175	4
290.546	4.01
290.918	4.04
291.289	4.04
291.661	4.05
292.032	4.04
292.403	4.04
292.775	4.04
293.146	4.05
293.517	4.05
293.889	4.04
294.26	4.06
294.631	4.05
295.002	4.06
295.373	4.05
295.744	4.05
296.115	4.04
296.486	4.04
296.857	4.04
297.228	4.05
297.599	4.06
297.97	4.06
298.34	4.06
298.711	4.07
299.082	4.06
299.452	4.07
299.823	4.07
300.194	4.07
300.564	4.07
300.935	4.07
301.305	4.07
301.676	4.08
302.046	4.08
302.416	4.08
302.787	4.07
303.157	4.08
303.527	4.08
303.897	4.08
304.267	4.08
304.637	4.07
305.008	4.07
305.378	4.07
305.748	4.05
306.117	4.02
306.487	4.03
306.857	4.03
307.227	4.02
307.597	4.02
307.967	4.02
308.336	4.02
308.706	4.02
309.076	4
309.445	3.98
309.815	3.98
310.184	3.96
310.554	3.95
310.923	3.96
311.293	3.95
311.662	3.94
312.031	3.94
312.401	3.94
312.77	3.93
313.139	3.92
313.508	3.92
313.877	3.91
314.246	3.91
314.616	3.9
314.985	3.89
315.353	3.88
315.722	3.86
316.091	3.86
316.46	3.84
316.829	3.83
317.198	3.82
317.567	3.82
317.935	3.82
318.304	3.81
318.672	3.8
319.041	3.8
319.41	3.78
319.778	3.78
320.147	3.76
320.515	3.75
320.883	3.73
321.252	3.73
321.62	3.72
321.988	3.7
322.357	3.7
322.725	3.7
323.093	3.69
323.461	3.68
323.829	3.68
324.197	3.69
324.565	3.69
324.933	3.69
325.301	3.7
325.669	3.7
326.037	3.69
326.405	3.68
326.772	3.68
327.14	3.66
327.508	3.65
327.875	3.65
328.243	3.64
328.61	3.63
328.978	3.62
329.346	3.62
329.713	3.63
330.08	3.64
330.448	3.63
330.815	3.63
331.182	3.62
331.55	3.63
331.917	3.62
332.284	3.6
332.651	3.6
333.018	3.61
333.385	3.61
333.752	3.61
334.119	3.62
334.486	3.61
334.853	3.62
335.22	3.63
335.587	3.64
335.954	3.63
336.32	3.63
336.687	3.62
337.054	3.62
337.42	3.62
337.787	3.62
338.153	3.62
338.52	3.62
338.886	3.62
339.253	3.62
339.619	3.62
339.986	3.63
340.352	3.62
340.718	3.62
341.084	3.63
341.451	3.62
341.817	3.63
342.183	3.64
342.549	3.63
342.915	3.63
343.281	3.63
343.647	3.63
344.013	3.63
344.379	3.62
344.745	3.62
345.11	3.61
345.476	3.62
345.842	3.64
346.208	3.64
346.573	3.64
346.939	3.64
347.304	3.66
347.67	3.65
348.035	3.65
348.401	3.65
348.766	3.64
349.132	3.63
349.497	3.65
349.862	3.65
350.228	3.65
350.593	3.65
350.958	3.67
351.323	3.67
351.688	3.68
352.053	3.67
352.418	3.68
352.783	3.67
353.148	3.66
353.513	3.67
353.878	3.67
354.243	3.66
354.608	3.66
354.972	3.66
355.337	3.66
355.702	3.67
356.066	3.67
356.431	3.67
356.795	3.67
357.16	3.66
357.524	3.67
357.889	3.68
358.253	3.67
358.618	3.68
358.982	3.67
359.346	3.68
359.71	3.69
360.075	3.69
360.439	3.68
360.803	3.68
361.167	3.68
361.531	3.69
361.895	3.68
362.259	3.68
362.623	3.67
362.987	3.67
363.351	3.67
363.714	3.67
364.078	3.67
364.442	3.66
364.806	3.66
365.169	3.65
365.533	3.65
365.896	3.65
366.26	3.64
366.623	3.65
366.987	3.64
367.35	3.64
367.714	3.65
368.077	3.66
368.44	3.65
368.803	3.66
369.167	3.66
369.53	3.65
369.893	3.65
370.256	3.65
370.619	3.65
370.982	3.65
371.345	3.66
371.708	3.66
372.071	3.66
372.434	3.66
372.797	3.66
373.159	3.66
373.522	3.66
373.885	3.66
374.247	3.66
374.61	3.66
374.973	3.66
375.335	3.65
375.698	3.65
376.06	3.64
376.423	3.64
376.785	3.64
377.147	3.64
377.51	3.65
377.872	3.64
378.234	3.64
378.596	3.64
378.958	3.64
379.321	3.64
379.683	3.65
380.045	3.64
380.407	3.65
380.769	3.66
381.13	3.65
381.492	3.65
381.854	3.66
382.216	3.66
382.578	3.66
382.939	3.66
383.301	3.66
383.663	3.66
384.024	3.66
384.386	3.66
384.747	3.66
385.109	3.66
385.47	3.66
385.832	3.65
386.193	3.65
386.554	3.65
386.916	3.65
387.277	3.65
387.638	3.65
387.999	3.65
388.36	3.65
388.721	3.65
389.082	3.64
389.443	3.65
389.804	3.64
390.165	3.65
390.526	3.65
390.887	3.66
391.248	3.65
391.609	3.66
391.969	3.66
392.33	3.66
392.691	3.67
393.051	3.67
393.412	3.67
393.772	3.67
394.133	3.67
394.493	3.67
394.854	3.67
395.214	3.66
395.574	3.66
395.935	3.66
396.295	3.66
396.655	3.66
397.015	3.66
397.376	3.66
397.736	3.66
398.096	3.67
398.456	3.67
398.816	3.67
399.176	3.68
399.535	3.68
399.895	3.67
400.255	3.68
400.615	3.68
400.975	3.68
401.334	3.68
401.694	3.69
402.054	3.69
402.413	3.7
402.773	3.7
403.132	3.7
403.492	3.7
403.851	3.7
404.211	3.71
404.57	3.71
404.929	3.71
405.288	3.71
405.648	3.71
406.007	3.71
406.366	3.71
406.725	3.71
407.084	3.71
407.443	3.71
407.802	3.71
408.161	3.71
408.52	3.72
408.879	3.72
409.238	3.72
409.596	3.72
409.955	3.73
410.314	3.74
410.673	3.74
411.031	3.75
411.39	3.76
411.748	3.76
412.107	3.77
412.465	3.78
412.824	3.8
413.182	3.83
413.54	3.85
413.899	3.88
414.257	3.92
414.615	3.96
414.974	3.99
415.332	4.03
415.69	4.07
416.048	4.1
416.406	4.14
416.764	4.17
417.122	4.2
417.48	4.23
417.838	4.27
418.195	4.29
418.553	4.32
418.911	4.33
419.269	4.34
419.626	4.34
419.984	4.34
420.342	4.33
420.699	4.32
421.057	4.3
421.414	4.29
421.772	4.28
422.129	4.27
422.486	4.27
422.844	4.27
423.201	4.27
423.558	4.26
423.915	4.27
424.273	4.27
424.63	4.27
424.987	4.27
425.344	4.27
425.701	4.27
426.058	4.27
426.415	4.28
426.772	4.27
427.128	4.27
427.485	4.26
427.842	4.25
428.199	4.24
428.555	4.22
428.912	4.2
429.269	4.17
429.625	4.15
429.982	4.12
430.338	4.1
430.695	4.07
431.051	4.04
431.407	4.03
431.764	4.01
432.12	3.99
432.476	3.98
432.832	3.97
433.189	3.97
433.545	3.98
433.901	3.99
434.257	4.01
434.613	4.04
434.969	4.06
435.325	4.09
435.681	4.13
436.036	4.15
436.392	4.17
436.748	4.19
437.104	4.2
437.459	4.22
437.815	4.24
438.171	4.26
438.526	4.29
438.882	4.32
439.237	4.36
439.593	4.39
439.948	4.42
440.304	4.46
440.659	4.49
441.014	4.51
441.369	4.54
441.725	4.56
442.08	4.58
442.435	4.59
442.79	4.6
443.145	4.61
443.5	4.61
443.855	4.61
444.21	4.61
444.565	4.61
444.92	4.6
445.275	4.6
445.629	4.59
445.984	4.58
446.339	4.57
446.693	4.56
447.048	4.54
447.403	4.53
447.757	4.5
448.112	4.49
448.466	4.46
448.82	4.44
449.175	4.42
449.529	4.4
449.883	4.38
450.238	4.36
450.592	4.36
450.946	4.35
451.3	4.35
451.654	4.36
452.008	4.36
452.362	4.37
452.716	4.37
453.07	4.37
453.424	4.37
453.778	4.36
454.132	4.35
454.486	4.34
454.839	4.32
455.193	4.3
455.547	4.29
455.9	4.26
456.254	4.24
456.607	4.22
456.961	4.19
457.314	4.17
457.668	4.16
458.021	4.15
458.375	4.15
458.728	4.15
459.081	4.15
459.434	4.16
459.787	4.17
460.141	4.18
460.494	4.18
460.847	4.19
461.2	4.2
461.553	4.2
461.906	4.21
462.259	4.21
462.611	4.21
462.964	4.21
463.317	4.22
463.67	4.22
464.022	4.23
464.375	4.23
464.728	4.24
465.08	4.24
465.433	4.24
465.785	4.23
466.138	4.22
466.49	4.2
466.843	4.17
467.195	4.15
467.547	4.13
467.899	4.1
468.252	4.07
468.604	4.04
468.956	4.02
469.308	4
469.66	4
470.012	3.99
470.364	3.99
470.716	3.99
471.068	4
471.42	4.02
471.772	4.04
472.123	4.05
472.475	4.06
472.827	4.07
473.178	4.07
473.53	4.08
473.882	4.1
474.233	4.12
474.585	4.16
474.936	4.22
475.288	4.31
475.639	4.42
475.99	4.55
476.342	4.7
476.693	4.86
477.044	5.02
477.395	5.19
477.746	5.37
478.097	5.54
478.448	5.71
478.8	5.88
479.15	6.04
479.501	6.19
479.852	6.33
480.203	6.46
480.554	6.59
480.905	6.71
481.255	6.82
481.606	6.93
481.957	7.03
482.307	7.13
482.658	7.22
483.009	7.31
483.359	7.4
483.709	7.48
484.06	7.56
484.41	7.64
484.761	7.72
485.111	7.79
485.461	7.86
485.811	7.92
486.162	7.98
486.512	8.03
486.862	8.07
487.212	8.1
487.562	8.12
487.912	8.13
488.262	8.14
488.612	8.13
488.961	8.11
489.311	8.06
489.661	8
490.011	7.91
490.36	7.8
490.71	7.68
491.06	7.54
491.409	7.4
491.759	7.25
492.108	7.1
492.458	6.93
492.807	6.77
493.157	6.6
493.506	6.44
493.855	6.29
494.204	6.15
494.554	6.01
494.903	5.88
495.252	5.76
495.601	5.64
495.95	5.52
496.299	5.41
496.648	5.31
496.997	5.21
497.346	5.12
497.695	5.03
498.043	4.94
498.392	4.85
498.741	4.77
499.09	4.69
499.438	4.61
499.787	4.54
500.135	4.47
500.484	4.41
500.832	4.36
501.181	4.32
501.529	4.29
501.878	4.27
502.226	4.26
502.574	4.25
502.923	4.25
503.271	4.24
503.619	4.24
503.967	4.24
504.315	4.23
504.663	4.23
505.011	4.22
505.359	4.21
505.707	4.21
506.055	4.2
506.403	4.2
506.751	4.2
507.098	4.2
507.446	4.2
507.794	4.21
508.141	4.21
508.489	4.22
508.837	4.23
509.184	4.24
509.531	4.25
509.879	4.26
510.226	4.27
510.574	4.28
510.921	4.3
511.268	4.31
511.616	4.33
511.963	4.35
512.31	4.37
512.657	4.39
513.004	4.41
513.351	4.43
513.698	4.44
514.045	4.44
514.392	4.45
514.739	4.45
515.086	4.44
515.432	4.44
515.779	4.43
516.126	4.42
516.473	4.42
516.819	4.42
517.166	4.43
517.512	4.43
517.859	4.44
518.205	4.46
518.552	4.48
518.898	4.51
519.245	4.55
519.591	4.6
519.937	4.67
520.283	4.76
520.629	4.86
520.976	4.96
521.322	5.08
521.668	5.19
522.014	5.32
522.36	5.43
522.706	5.55
523.052	5.66
523.398	5.76
523.743	5.86
524.089	5.93
524.435	6
524.781	6.06
525.126	6.12
525.472	6.18
525.817	6.23
526.163	6.27
526.509	6.31
526.854	6.36
527.199	6.4
527.545	6.44
527.89	6.49
528.235	6.53
528.581	6.58
528.926	6.62
529.271	6.65
529.616	6.69
529.961	6.72
530.306	6.75
530.651	6.77
530.996	6.79
531.341	6.8
531.686	6.81
532.031	6.81
532.376	6.81
532.721	6.81
533.065	6.82
533.41	6.82
533.755	6.82
534.099	6.8
534.444	6.78
534.788	6.74
535.133	6.7
535.477	6.65
535.822	6.6
536.166	6.54
536.51	6.47
536.855	6.4
537.199	6.32
537.543	6.25
537.887	6.18
538.231	6.12
538.576	6.06
538.92	6
539.264	5.94
539.608	5.88
539.951	5.82
540.295	5.76
540.639	5.7
540.983	5.64
541.327	5.57
541.671	5.5
542.014	5.44
542.358	5.39
542.701	5.35
543.045	5.31
543.389	5.29
543.732	5.26
544.075	5.25
544.419	5.23
544.762	5.21
545.105	5.2
545.449	5.19
545.792	5.18
546.135	5.17
546.478	5.15
546.821	5.13
547.165	5.1
547.508	5.06
547.851	5.01
548.194	4.96
548.536	4.9
548.879	4.84
549.222	4.77
549.565	4.7
549.908	4.63
550.25	4.57
550.593	4.51
550.936	4.46
551.278	4.42
551.621	4.39
551.963	4.36
552.306	4.34
552.648	4.32
552.991	4.3
553.333	4.29
553.675	4.28
554.017	4.28
554.36	4.27
554.702	4.28
555.044	4.29
555.386	4.3
555.728	4.32
556.07	4.33
556.412	4.34
556.754	4.35
557.096	4.35
557.438	4.34
557.78	4.35
558.121	4.35
558.463	4.35
558.805	4.35
559.147	4.35
559.488	4.35
559.83	4.35
560.171	4.35
560.513	4.35
560.854	4.35
561.196	4.36
561.537	4.36
561.878	4.36
562.22	4.35
562.561	4.35
562.902	4.35
563.243	4.35
563.584	4.35
563.925	4.35
564.266	4.35
564.607	4.35
564.948	4.35
565.289	4.35
565.63	4.35
565.971	4.36
566.312	4.36
566.653	4.36
566.993	4.37
567.334	4.37
567.675	4.38
568.015	4.38
568.356	4.38
568.696	4.38
569.037	4.38
569.377	4.38
569.718	4.38
570.058	4.38
570.398	4.38
570.739	4.38
571.079	4.38
571.419	4.39
571.759	4.39
572.099	4.38
572.439	4.38
572.779	4.38
573.119	4.38
573.459	4.38
573.799	4.38
574.139	4.38
574.479	4.38
574.819	4.38
575.158	4.38
575.498	4.38
575.838	4.38
576.177	4.38
576.517	4.38
576.856	4.38
577.196	4.38
577.535	4.38
577.875	4.38
578.214	4.38
578.553	4.38
578.893	4.38
579.232	4.37
579.571	4.37
579.91	4.37
580.25	4.36
580.589	4.36
580.928	4.35
581.267	4.35
581.606	4.34
581.945	4.34
582.283	4.34
582.622	4.34
582.961	4.34
583.3	4.34
583.639	4.34
583.977	4.34
584.316	4.34
584.654	4.34
584.993	4.33
585.332	4.33
585.67	4.33
586.008	4.33
586.347	4.33
586.685	4.33
587.024	4.33
587.362	4.33
587.7	4.33
588.038	4.33
588.376	4.33
588.715	4.33
589.053	4.33
589.391	4.34
589.729	4.34
590.067	4.34
590.404	4.35
590.742	4.35
591.08	4.35
591.418	4.35
591.756	4.36
592.093	4.36
592.431	4.36
592.769	4.36
593.106	4.37
593.444	4.37
593.781	4.37
594.119	4.37
594.456	4.37
594.793	4.37
595.131	4.38
595.468	4.38
595.805	4.38
596.143	4.37
596.48	4.37
596.817	4.38
597.154	4.38
597.491	4.38
597.828	4.38
598.165	4.39
598.502	4.39
598.839	4.4
599.176	4.4
599.512	4.4
599.849	4.41
600.186	4.41
600.523	4.41
600.859	4.41
601.196	4.41
601.532	4.41
601.869	4.41
602.205	4.42
602.542	4.42
602.878	4.42
603.215	4.41
603.551	4.41
603.887	4.42
604.223	4.41
604.56	4.41
604.896	4.42
605.232	4.42
605.568	4.42
605.904	4.42
606.24	4.42
606.576	4.42
606.912	4.41
607.248	4.41
607.583	4.41
607.919	4.41
608.255	4.42
608.591	4.42
608.926	4.42
609.262	4.42
609.597	4.42
609.933	4.42
610.268	4.43
610.604	4.42
610.939	4.42
611.275	4.42
611.61	4.42
611.945	4.42
612.281	4.41
612.616	4.41
612.951	4.41
613.286	4.4
613.621	4.41
613.956	4.4
614.291	4.4
614.626	4.4
614.961	4.4
615.296	4.4
615.631	4.4
615.966	4.4
616.3	4.4
616.635	4.4
616.97	4.41
617.304	4.41
617.639	4.41
617.973	4.41
618.308	4.41
618.642	4.4
618.977	4.4
619.311	4.4
619.646	4.4
619.98	4.4
620.314	4.41
620.648	4.41
620.983	4.41
621.317	4.42
621.651	4.42
621.985	4.42
622.319	4.42
622.653	4.43
622.987	4.43
623.321	4.43
623.655	4.44
623.988	4.44
624.322	4.44
624.656	4.44
624.99	4.45
625.323	4.45
625.657	4.45
625.99	4.45
626.324	4.45
626.657	4.46
626.991	4.46
627.324	4.46
627.658	4.46
627.991	4.46
628.324	4.46
628.657	4.47
628.991	4.47
629.324	4.48
629.657	4.48
629.99	4.48
630.323	4.48
630.656	4.48
630.989	4.49
631.322	4.49
631.655	4.49
631.987	4.49
632.32	4.5
632.653	4.5
632.986	4.51
633.318	4.51
633.651	4.52
633.984	4.52
634.316	4.52
634.649	4.52
634.981	4.52
635.313	4.52
635.646	4.52
635.978	4.52
636.31	4.52
636.643	4.53
636.975	4.54
637.307	4.54
637.639	4.53
637.971	4.54
638.303	4.54
638.635	4.54
638.967	4.54
639.299	4.53
639.631	4.54
639.963	4.54
640.295	4.54
640.626	4.54
640.958	4.54
641.29	4.55
641.621	4.55
641.953	4.55
642.285	4.55
642.616	4.55
642.948	4.56
643.279	4.56
643.61	4.57
643.942	4.57
644.273	4.57
644.604	4.57
644.936	4.57
645.267	4.58
645.598	4.58
645.929	4.58
646.26	4.57
646.591	4.56
646.922	4.56
647.253	4.57
647.584	4.57
647.915	4.57
648.245	4.57
648.576	4.57
648.907	4.58
649.238	4.58
649.568	4.57
649.899	4.56
650.229	4.56
650.56	4.56
650.89	4.56
651.221	4.57
651.551	4.57
651.882	4.57
652.212	4.56
652.542	4.57
652.872	4.57
653.203	4.58
653.533	4.58
653.863	4.59
654.193	4.6
654.523	4.59
654.853	4.59
655.183	4.6
655.513	4.6
655.843	4.6
656.172	4.6
656.502	4.61
656.832	4.61
657.162	4.6
657.491	4.61
657.821	4.61
658.15	4.61
658.48	4.61
658.809	4.62
659.139	4.62
659.468	4.62
659.798	4.63
660.127	4.64
660.456	4.65
660.785	4.65
661.115	4.65
661.444	4.65
661.773	4.66
662.102	4.66
662.431	4.66
662.76	4.67
663.089	4.67
663.418	4.67
663.747	4.68
664.076	4.69
664.404	4.69
664.733	4.69
665.062	4.7
665.39	4.7
665.719	4.71
666.048	4.72
666.376	4.73
666.705	4.72
667.033	4.73
667.362	4.73
667.69	4.72
668.018	4.73
668.347	4.73
668.675	4.73
669.003	4.74
669.331	4.74
669.659	4.74
669.987	4.74
670.315	4.74
670.643	4.76
670.971	4.75
671.299	4.76
671.627	4.76
671.955	4.77
672.283	4.77
672.61	4.77
672.938	4.78
673.266	4.78
673.593	4.77
673.921	4.77
674.249	4.79
674.576	4.78
674.904	4.79
675.231	4.78
675.558	4.78
675.886	4.79
676.213	4.8
676.54	4.8
676.867	4.8
677.195	4.8
677.522	4.8
677.849	4.81
678.176	4.81
678.503	4.8
678.83	4.81
679.157	4.81
679.484	4.8
679.81	4.8
680.137	4.8
680.464	4.81
680.791	4.81
681.117	4.82
681.444	4.84
681.771	4.84
682.097	4.84
682.424	4.84
682.75	4.85
683.077	4.84
683.403	4.85
683.729	4.85
684.056	4.85
684.382	4.85
684.708	4.85
685.034	4.86
685.36	4.86
685.686	4.86
686.012	4.86
686.339	4.86
686.664	4.86
686.99	4.86
687.316	4.87
687.642	4.87
687.968	4.89
688.294	4.9
688.619	4.9
688.945	4.91
689.271	4.92
689.596	4.92
689.922	4.91
690.247	4.93
690.573	4.93
690.898	4.93
691.224	4.95
691.549	4.96
691.874	4.96
692.2	4.97
692.525	4.98
692.85	4.99
693.175	5.01
693.5	5.01
693.825	5.01
694.15	5.02
694.475	5.02
694.8	5.01
695.125	5.01
695.45	5.02
695.775	5.03
696.099	5.04
696.424	5.04
696.749	5.04
697.073	5.04
697.398	5.04
697.723	5.05
698.047	5.05
698.372	5.06
698.696	5.06
699.02	5.07
699.345	5.06
699.669	5.08
699.993	5.09
700.318	5.09
700.642	5.09
700.966	5.09
701.29	5.09
701.614	5.09
701.938	5.1
702.262	5.11
702.586	5.11
702.91	5.12
703.234	5.12
703.557	5.12
703.881	5.12
704.205	5.12
704.529	5.13
704.852	5.13
705.176	5.14
705.499	5.14
705.823	5.14
706.146	5.13
706.47	5.13
706.793	5.14
707.117	5.15
707.44	5.14
707.763	5.15
708.086	5.17
708.409	5.17
708.733	5.17
709.056	5.19
709.379	5.18
709.702	5.2
710.025	5.21
710.348	5.21
710.671	5.21
710.993	5.21
711.316	5.22
711.639	5.22
711.962	5.23
712.284	5.24
712.607	5.24
712.93	5.22
713.252	5.22
713.575	5.23
713.897	5.24
714.22	5.24
714.542	5.25
714.864	5.23
715.187	5.24
715.509	5.23
715.831	5.22
716.153	5.22
716.475	5.26
716.798	5.24
717.12	5.23
717.442	5.24
717.764	5.23
718.085	5.22
718.407	5.23
718.729	5.23
719.051	5.23
719.373	5.23
719.695	5.23
720.016	5.24
720.338	5.25
720.659	5.25
720.981	5.25
721.302	5.24
721.624	5.24
721.945	5.25
722.267	5.25
722.588	5.26
722.909	5.25
723.231	5.25
723.552	5.25
723.873	5.27
724.194	5.28
724.515	5.28
724.836	5.29
725.157	5.3
725.478	5.3
725.799	5.31
726.12	5.33
726.441	5.34
726.762	5.34
727.083	5.33
727.403	5.34
727.724	5.35
728.045	5.37
728.365	5.38
728.686	5.41
729.006	5.42
729.327	5.44
729.647	5.42
729.967	5.45
730.288	5.46
730.608	5.46
730.928	5.48
731.249	5.5
731.569	5.5
731.889	5.52
732.209	5.53
732.529	5.54
732.849	5.56
733.169	5.56
733.489	5.57
733.809	5.57
734.129	5.59
734.448	5.61
734.768	5.63
735.088	5.64
735.408	5.64
735.727	5.65
736.047	5.65
736.366	5.65
736.686	5.66
737.005	5.68
737.325	5.67
737.644	5.66
737.963	5.66
738.283	5.65
738.602	5.65
738.921	5.66
739.24	5.68
739.56	5.68
739.879	5.68
740.198	5.68
740.517	5.71
740.836	5.7
741.155	5.7
741.473	5.69
741.792	5.68
742.111	5.68
742.43	5.66
742.748	5.68
743.067	5.69
743.386	5.71
743.704	5.71
744.023	5.71
744.341	5.69
744.66	5.69
744.978	5.7
745.297	5.72
745.615	5.75
745.933	5.74
746.252	5.74
746.57	5.75
746.888	5.77
747.206	5.75
747.524	5.75
747.842	5.73
748.16	5.73
748.478	5.73
748.796	5.73
749.114	5.73
749.432	5.73
749.749	5.77
750.067	5.75
750.385	5.78
750.703	5.81
751.02	5.82
751.338	5.84
751.655	5.87
751.973	5.87
752.29	5.89
752.608	5.89
752.925	5.9
753.242	5.94
753.56	5.92
753.877	5.92
754.194	5.94
754.511	5.95
754.828	5.94
755.145	5.97
755.462	6
755.779	6
756.096	6.01
756.413	6
756.73	6.03
757.047	6.03
757.364	6.05
757.68	6.07
757.997	6.07
758.314	6.06
758.63	6.05
758.947	6.06
759.264	6.07
759.58	6.08
759.896	6.1
760.213	6.11
760.529	6.13
760.846	6.15
761.162	6.17
761.478	6.19
761.794	6.2
762.11	6.23
762.426	6.26
762.743	6.26
763.059	6.25
763.375	6.25
763.69	6.27
764.006	6.27
764.322	6.27
764.638	6.27
764.954	6.27
765.27	6.27
765.585	6.3
765.901	6.33
766.216	6.3
766.532	6.31
766.848	6.32
767.163	6.32
767.478	6.31
767.794	6.32
768.109	6.3
768.424	6.29
768.74	6.29
769.055	6.28
769.37	6.27
769.685	6.28
770	6.31
770.315	6.31
770.63	6.3
770.945	6.32
771.26	6.33
771.575	6.34
771.89	6.36
772.205	6.37
772.52	6.36
772.834	6.36
773.149	6.38
773.464	6.39
773.778	6.39
774.093	6.38
774.407	6.38
774.722	6.37
775.036	6.36
775.351	6.36
775.665	6.37
775.979	6.39
776.293	6.36
776.608	6.36
776.922	6.38
777.236	6.37
777.55	6.36
777.864	6.36
778.178	6.35
778.492	6.36
778.806	6.33
779.12	6.35
779.434	6.4
779.747	6.42
780.061	6.45
780.375	6.47
780.689	6.53
781.002	6.55
781.316	6.57
781.629	6.57
781.943	6.56
782.256	6.59
782.57	6.58
782.883	6.59
783.196	6.61
783.51	6.61
783.823	6.6
784.136	6.59
784.449	6.6
784.762	6.58
785.075	6.61
785.388	6.62
785.701	6.6
786.014	6.64
786.327	6.66
786.64	6.65
786.953	6.66
787.266	6.66
787.578	6.69
787.891	6.72
788.204	6.73
788.516	6.75
788.829	6.77
789.141	6.83
789.454	6.83
789.766	6.87
790.079	6.91
790.391	6.94
790.703	6.99
791.016	7
791.328	6.97
791.64	6.99
791.952	6.97
792.264	6.93
792.576	6.9
792.888	6.87
793.2	6.89
793.512	6.89
793.824	6.91
794.136	6.9
794.448	6.91
794.76	7.01
795.071	7
795.383	7.02
795.695	7.02
796.006	7.02
796.318	7.02
796.629	7.04
796.941	7.07
797.252	7.1
797.564	7.11
797.875	7.08
798.186	7.09
798.497	7.13
798.809	7.09
799.12	7.08
799.431	7.12
799.742	7.1
800.053	7.15
800.364	7.15
800.675	7.11
800.986	7.14
801.297	7.15
801.608	7.15
801.918	7.12
802.229	7.09
802.54	7.08
802.851	7.01
803.161	7.04
803.472	7.03
803.782	6.99
804.093	7.02
804.403	7.09
804.714	7.13
805.024	7.18
805.334	7.17
805.645	7.19
805.955	7.19
806.265	7.16
806.575	7.16
806.885	7.16
807.195	7.16
807.505	7.13
807.815	7.23
808.125	7.24
808.435	7.26
808.745	7.23
809.055	7.3
809.365	7.32
809.674	7.32
809.984	7.35
810.294	7.43
810.603	7.43
810.913	7.39
811.222	7.33
811.532	7.3
811.841	7.34
812.151	7.33
812.46	7.4
812.769	7.31
813.079	7.35
813.388	7.37
813.697	7.35
814.006	7.39
814.315	7.38
814.624	7.44
814.933	7.46
815.242	7.45
815.551	7.52
815.86	7.51
816.169	7.5
816.478	7.55
816.786	7.58
817.095	7.54
817.404	7.47
817.712	7.45
818.021	7.49
818.33	7.49
818.638	7.51
818.947	7.52
819.255	7.53
819.563	7.52
819.872	7.54
820.18	7.54
820.488	7.52
820.796	7.51
821.105	7.51
821.413	7.55
821.721	7.57
822.029	7.58
822.337	7.59
822.645	7.57
822.953	7.56
823.26	7.56
823.568	7.6
823.876	7.62
824.184	7.65
824.491	7.63
824.799	7.64
825.107	7.62
825.414	7.64
825.722	7.64
826.029	7.66
826.337	7.68
826.644	7.68
826.951	7.68
827.259	7.68
827.566	7.69
827.873	7.68
828.18	7.69
828.488	7.69
828.795	7.7
829.102	7.7
829.409	7.68
829.716	7.7
830.023	7.74
830.329	7.75
830.636	7.77
830.943	7.79
831.25	7.81
831.557	7.84
831.863	7.85
832.17	7.9
832.476	7.9
832.783	7.89
833.089	7.9
833.396	7.9
833.702	7.92
834.009	7.92
834.315	7.89
834.621	7.87
834.928	7.87
835.234	7.88
835.54	7.86
835.846	7.85
836.152	7.82
836.458	7.82
836.764	7.8
837.07	7.85
837.376	7.87
837.682	7.89
837.988	7.85
838.293	7.88
838.599	7.88
838.905	7.82
839.211	7.79
839.516	7.8
839.822	7.83
840.127	7.87
840.433	7.92
840.738	7.93
841.044	7.94
841.349	7.94
841.654	7.99
841.959	8.01
842.265	8.01
842.57	8.03
842.875	8.09
843.18	8.02
843.485	8.02
843.79	8.05
844.095	8.05
844.4	8.06
844.705	8.05
845.01	8.01
845.315	8.02
845.619	7.96
845.924	8.03
846.229	7.98
846.533	7.99
846.838	8.04
847.142	8.13
847.447	8.21
847.751	8.35
848.056	8.49
848.36	8.63
848.664	8.72
848.969	8.8
849.273	8.87
849.577	8.84
849.881	8.78
850.185	8.92
850.489	8.93
850.794	8.97
851.097	8.89
851.401	9
851.705	9.08
852.009	9.18
852.313	9.21
852.617	9.04
852.92	9.05
853.224	9.02
853.528	9.04
853.831	8.97
854.135	8.95
854.438	9.03
854.742	9.06
855.045	8.95
855.349	9.05
855.652	9.16
855.955	9.22
856.259	9.22
856.562	9.22
856.865	9.33
857.168	9.28
857.471	9.53
857.774	9.57
858.077	9.65
858.38	9.67
858.683	9.86
858.986	9.79
859.289	9.75
859.592	9.78
859.894	9.62
860.197	9.42
860.5	9.45
860.802	9.33
861.105	9.35
861.407	9.13
861.71	8.96
862.012	8.97
862.315	9
862.617	8.88
862.919	9.05
863.222	8.93
863.524	8.96
863.826	8.98
864.128	8.82
864.43	8.85
864.732	8.75
865.034	8.87
865.336	8.7
865.638	8.57
865.94	8.58
866.242	8.72
866.544	8.88
866.846	8.87
867.147	8.77
867.449	8.83
867.751	8.67
868.052	8.76
868.354	8.58
868.655	8.46
868.957	8.49
869.258	8.51
869.56	8.69
869.861	8.73
870.162	8.91
870.463	9.09
870.765	8.92
871.066	8.92
871.367	8.95
871.668	8.91
871.969	8.76
872.27	8.77
872.571	8.93
872.872	8.9
873.173	8.97
873.473	8.9
873.774	9.05
874.075	9.21
874.376	9.29
874.676	9.32
874.977	9.36
875.277	9.36
875.578	9.41
875.878	9.45
876.179	9.44
876.479	9.58
876.78	9.49
877.08	9.57
877.38	9.54
877.68	9.73
877.981	9.97
878.281	10.03
878.581	10.08
