Data from UWBM79812_Reflection_00011.txt Node
Date: Sun May 02 13:58:25 EDT 2021
User: vgr7
Spectrometer: USB2G7710
Scans to average: 10
Trigger mode: 4
Integration Time (sec): 1.000000E-1
Electric dark correction enabled: true
Boxcar width: 20
XAxis mode: Wavelengths
Number of Pixels in Spectrum: 2048
>>>>>Begin Spectral Data<<<<<
177.721	31.72
178.105	44.27
178.488	61.59
178.871	56.8
179.254	81.75
179.636	71.58
180.019	54.59
180.402	45.97
180.785	40.73
181.168	36.38
181.55	22.55
181.933	21.56
182.316	13.96
182.698	15.75
183.081	13.09
183.463	11.6
183.846	7.6
184.228	11.74
184.611	12.01
184.993	9.85
185.376	10.94
185.758	12.94
186.14	16.8
186.522	14.97
186.904	13.42
187.287	13.19
187.669	14.11
188.051	16.86
188.433	17.39
188.815	16.65
189.197	18.72
189.579	19.39
189.961	17.12
190.342	14.39
190.724	16.41
191.106	16.04
191.488	17.95
191.869	13.99
192.251	12.39
192.633	12.13
193.014	13.5
193.396	10.2
193.777	11.39
194.159	11.35
194.54	11.61
194.922	8.88
195.303	7.62
195.684	6.52
196.065	7.1
196.447	8.03
196.828	7.48
197.209	8.34
197.59	5.79
197.971	7.18
198.352	7.67
198.733	10.39
199.114	10.54
199.495	11.79
199.876	11.11
200.257	10.42
200.638	9.35
201.018	10.46
201.399	10.42
201.78	10.36
202.16	10.55
202.541	10.35
202.922	11.06
203.302	11.35
203.683	10.37
204.063	10.65
204.444	9.92
204.824	9.39
205.204	8.98
205.585	11.82
205.965	13.93
206.345	12.31
206.725	12.4
207.106	11.79
207.486	12.32
207.866	13.98
208.246	13.36
208.626	11.6
209.006	12.55
209.386	11.53
209.766	10.79
210.145	10.83
210.525	11.82
210.905	13.72
211.285	14.05
211.664	13.56
212.044	13.34
212.424	12.89
212.803	13.54
213.183	14.39
213.562	15.29
213.942	14.19
214.321	12.22
214.701	12.05
215.08	12.41
215.459	12.31
215.838	12.4
216.218	13.39
216.597	12.79
216.976	13.79
217.355	13.13
217.734	12.54
218.113	12.48
218.492	11.79
218.871	11.17
219.25	11.65
219.629	13.07
220.008	13.5
220.387	13.09
220.766	13.64
221.144	11.97
221.523	11.75
221.902	11.47
222.28	10.38
222.659	9.69
223.037	9.06
223.416	8.98
223.794	9.04
224.173	9.82
224.551	9.3
224.929	9.72
225.308	9.81
225.686	9.33
226.064	8.79
226.442	8.31
226.821	8.48
227.199	8.57
227.577	8.48
227.955	9.04
228.333	9.21
228.711	9.04
229.089	7.89
229.467	7.76
229.845	7.63
230.222	7.65
230.6	7.4
230.978	7.32
231.356	7.67
231.733	7.38
232.111	7.04
232.488	6.8
232.866	6.69
233.243	6.66
233.621	6.52
233.998	6.48
234.376	6.43
234.753	6.1
235.13	5.83
235.508	5.88
235.885	5.68
236.262	5.54
236.639	5.46
237.016	5.5
237.393	5.61
237.77	5.62
238.147	5.48
238.524	5.44
238.901	5.33
239.278	5.33
239.655	5.28
240.032	5.28
240.409	5.25
240.785	5.25
241.162	5.21
241.539	5.19
241.915	5.22
242.292	5.24
242.668	5.21
243.045	5.16
243.421	5.09
243.798	5.08
244.174	5.11
244.551	5.19
244.927	5.19
245.303	5.22
245.679	5.2
246.056	5.18
246.432	5.18
246.808	5.13
247.184	5.18
247.56	5.16
247.936	5.16
248.312	5.15
248.688	5.15
249.064	5.16
249.44	5.17
249.815	5.13
250.191	5.12
250.567	5.12
250.943	5.11
251.318	5.15
251.694	5.15
252.069	5.14
252.445	5.12
252.82	5.08
253.196	5.06
253.571	5.05
253.947	5.05
254.322	5.01
254.697	5.03
255.073	5
255.448	5.01
255.823	4.97
256.198	4.95
256.573	4.96
256.948	4.98
257.323	4.95
257.698	4.9
258.073	4.88
258.448	4.86
258.823	4.86
259.198	4.85
259.573	4.83
259.948	4.82
260.322	4.81
260.697	4.79
261.072	4.78
261.446	4.77
261.821	4.75
262.195	4.74
262.57	4.72
262.944	4.72
263.319	4.71
263.693	4.69
264.067	4.68
264.442	4.68
264.816	4.65
265.19	4.65
265.564	4.65
265.938	4.64
266.313	4.61
266.687	4.58
267.061	4.59
267.435	4.58
267.809	4.57
268.183	4.56
268.556	4.56
268.93	4.57
269.304	4.57
269.678	4.58
270.051	4.54
270.425	4.53
270.799	4.53
271.172	4.55
271.546	4.55
271.919	4.54
272.293	4.53
272.666	4.53
273.04	4.54
273.413	4.56
273.787	4.58
274.16	4.58
274.533	4.58
274.906	4.57
275.279	4.56
275.653	4.56
276.026	4.56
276.399	4.57
276.772	4.59
277.145	4.57
277.518	4.57
277.891	4.57
278.263	4.58
278.636	4.59
279.009	4.59
279.382	4.59
279.755	4.59
280.127	4.61
280.5	4.63
280.872	4.64
281.245	4.65
281.617	4.66
281.99	4.67
282.362	4.65
282.735	4.66
283.107	4.66
283.479	4.65
283.852	4.67
284.224	4.67
284.596	4.68
284.968	4.68
285.34	4.7
285.713	4.71
286.085	4.72
286.457	4.73
286.829	4.74
287.201	4.75
287.572	4.76
287.944	4.77
288.316	4.78
288.688	4.78
289.06	4.8
289.431	4.82
289.803	4.85
290.175	4.86
290.546	4.89
290.918	4.92
291.289	4.93
291.661	4.96
292.032	4.96
292.403	5
292.775	5.03
293.146	5.05
293.517	5.06
293.889	5.07
294.26	5.11
294.631	5.13
295.002	5.16
295.373	5.19
295.744	5.21
296.115	5.25
296.486	5.29
296.857	5.32
297.228	5.36
297.599	5.4
297.97	5.43
298.34	5.47
298.711	5.51
299.082	5.54
299.452	5.58
299.823	5.6
300.194	5.64
300.564	5.68
300.935	5.72
301.305	5.76
301.676	5.79
302.046	5.83
302.416	5.87
302.787	5.89
303.157	5.93
303.527	5.98
303.897	6.03
304.267	6.07
304.637	6.11
305.008	6.14
305.378	6.2
305.748	6.24
306.117	6.3
306.487	6.38
306.857	6.43
307.227	6.47
307.597	6.53
307.967	6.58
308.336	6.63
308.706	6.67
309.076	6.73
309.445	6.78
309.815	6.82
310.184	6.86
310.554	6.89
310.923	6.94
311.293	6.98
311.662	7.01
312.031	7.05
312.401	7.11
312.77	7.15
313.139	7.2
313.508	7.25
313.877	7.3
314.246	7.35
314.616	7.39
314.985	7.44
315.353	7.49
315.722	7.52
316.091	7.57
316.46	7.58
316.829	7.65
317.198	7.71
317.567	7.76
317.935	7.82
318.304	7.89
318.672	7.94
319.041	8
319.41	8.05
319.778	8.12
320.147	8.18
320.515	8.23
320.883	8.27
321.252	8.29
321.62	8.33
321.988	8.39
322.357	8.44
322.725	8.47
323.093	8.52
323.461	8.55
323.829	8.61
324.197	8.64
324.565	8.67
324.933	8.72
325.301	8.76
325.669	8.8
326.037	8.83
326.405	8.87
326.772	8.9
327.14	8.94
327.508	8.96
327.875	8.99
328.243	9.02
328.61	9.06
328.978	9.09
329.346	9.11
329.713	9.15
330.08	9.19
330.448	9.21
330.815	9.24
331.182	9.26
331.55	9.32
331.917	9.34
332.284	9.35
332.651	9.39
333.018	9.44
333.385	9.47
333.752	9.5
334.119	9.54
334.486	9.58
334.853	9.6
335.22	9.65
335.587	9.68
335.954	9.73
336.32	9.76
336.687	9.78
337.054	9.8
337.42	9.84
337.787	9.87
338.153	9.9
338.52	9.94
338.886	9.97
339.253	10.01
339.619	10.05
339.986	10.08
340.352	10.1
340.718	10.13
341.084	10.15
341.451	10.18
341.817	10.21
342.183	10.24
342.549	10.26
342.915	10.3
343.281	10.32
343.647	10.34
344.013	10.36
344.379	10.38
344.745	10.41
345.11	10.43
345.476	10.48
345.842	10.5
346.208	10.53
346.573	10.55
346.939	10.58
347.304	10.62
347.67	10.64
348.035	10.66
348.401	10.69
348.766	10.72
349.132	10.74
349.497	10.77
349.862	10.8
350.228	10.82
350.593	10.85
350.958	10.87
351.323	10.9
351.688	10.93
352.053	10.96
352.418	10.97
352.783	10.99
353.148	11
353.513	11.01
353.878	11.03
354.243	11.05
354.608	11.06
354.972	11.07
355.337	11.08
355.702	11.1
356.066	11.11
356.431	11.11
356.795	11.12
357.16	11.1
357.524	11.12
357.889	11.12
358.253	11.13
358.618	11.13
358.982	11.13
359.346	11.14
359.71	11.13
360.075	11.13
360.439	11.12
360.803	11.12
361.167	11.12
361.531	11.11
361.895	11.11
362.259	11.09
362.623	11.08
362.987	11.07
363.351	11.06
363.714	11.04
364.078	11.02
364.442	11.01
364.806	11
365.169	10.99
365.533	10.98
365.896	10.96
366.26	10.94
366.623	10.91
366.987	10.88
367.35	10.87
367.714	10.85
368.077	10.84
368.44	10.81
368.803	10.78
369.167	10.75
369.53	10.72
369.893	10.68
370.256	10.65
370.619	10.61
370.982	10.58
371.345	10.55
371.708	10.51
372.071	10.49
372.434	10.45
372.797	10.4
373.159	10.37
373.522	10.33
373.885	10.3
374.247	10.26
374.61	10.22
374.973	10.18
375.335	10.14
375.698	10.09
376.06	10.04
376.423	9.99
376.785	9.95
377.147	9.91
377.51	9.87
377.872	9.83
378.234	9.78
378.596	9.74
378.958	9.69
379.321	9.65
379.683	9.61
380.045	9.55
380.407	9.51
380.769	9.46
381.13	9.42
381.492	9.38
381.854	9.34
382.216	9.3
382.578	9.26
382.939	9.22
383.301	9.17
383.663	9.13
384.024	9.09
384.386	9.05
384.747	9.01
385.109	8.97
385.47	8.93
385.832	8.89
386.193	8.85
386.554	8.81
386.916	8.76
387.277	8.72
387.638	8.68
387.999	8.65
388.36	8.61
388.721	8.58
389.082	8.54
389.443	8.5
389.804	8.47
390.165	8.43
390.526	8.4
390.887	8.37
391.248	8.34
391.609	8.3
391.969	8.27
392.33	8.24
392.691	8.2
393.051	8.17
393.412	8.14
393.772	8.1
394.133	8.06
394.493	8.02
394.854	7.98
395.214	7.94
395.574	7.9
395.935	7.87
396.295	7.83
396.655	7.79
397.015	7.75
397.376	7.71
397.736	7.68
398.096	7.64
398.456	7.59
398.816	7.56
399.176	7.51
399.535	7.47
399.895	7.44
400.255	7.41
400.615	7.37
400.975	7.34
401.334	7.3
401.694	7.27
402.054	7.24
402.413	7.22
402.773	7.18
403.132	7.16
403.492	7.13
403.851	7.11
404.211	7.08
404.57	7.06
404.929	7.03
405.288	7.01
405.648	6.98
406.007	6.96
406.366	6.94
406.725	6.92
407.084	6.9
407.443	6.88
407.802	6.86
408.161	6.84
408.52	6.82
408.879	6.81
409.238	6.79
409.596	6.78
409.955	6.77
410.314	6.75
410.673	6.74
411.031	6.73
411.39	6.72
411.748	6.71
412.107	6.7
412.465	6.69
412.824	6.71
413.182	6.73
413.54	6.75
413.899	6.78
414.257	6.81
414.615	6.86
414.974	6.88
415.332	6.92
415.69	6.97
416.048	7
416.406	7.05
416.764	7.08
417.122	7.1
417.48	7.14
417.838	7.16
418.195	7.18
418.553	7.2
418.911	7.2
419.269	7.2
419.626	7.18
419.984	7.16
420.342	7.12
420.699	7.09
421.057	7.04
421.414	7
421.772	6.97
422.129	6.94
422.486	6.92
422.844	6.91
423.201	6.9
423.558	6.88
423.915	6.87
424.273	6.85
424.63	6.84
424.987	6.83
425.344	6.81
425.701	6.79
426.058	6.78
426.415	6.77
426.772	6.75
427.128	6.73
427.485	6.7
427.842	6.67
428.199	6.64
428.555	6.6
428.912	6.56
429.269	6.5
429.625	6.46
429.982	6.41
430.338	6.35
430.695	6.31
431.051	6.25
431.407	6.21
431.764	6.17
432.12	6.14
432.476	6.11
432.832	6.09
433.189	6.09
433.545	6.08
433.901	6.1
434.257	6.13
434.613	6.16
434.969	6.19
435.325	6.23
435.681	6.29
436.036	6.32
436.392	6.34
436.748	6.36
437.104	6.37
437.459	6.4
437.815	6.42
438.171	6.45
438.526	6.48
438.882	6.53
439.237	6.58
439.593	6.63
439.948	6.68
440.304	6.73
440.659	6.76
441.014	6.79
441.369	6.83
441.725	6.85
442.08	6.87
442.435	6.89
442.79	6.89
443.145	6.9
443.5	6.89
443.855	6.89
444.21	6.89
444.565	6.88
444.92	6.87
445.275	6.85
445.629	6.84
445.984	6.81
446.339	6.79
446.693	6.77
447.048	6.73
447.403	6.71
447.757	6.67
448.112	6.64
448.466	6.59
448.82	6.55
449.175	6.51
449.529	6.48
449.883	6.44
450.238	6.4
450.592	6.39
450.946	6.36
451.3	6.35
451.654	6.36
452.008	6.36
452.362	6.36
452.716	6.35
453.07	6.35
453.424	6.33
453.778	6.32
454.132	6.3
454.486	6.28
454.839	6.25
455.193	6.21
455.547	6.19
455.9	6.15
456.254	6.12
456.607	6.07
456.961	6.03
457.314	6
457.668	5.98
458.021	5.98
458.375	5.97
458.728	5.97
459.081	5.97
459.434	5.98
459.787	5.99
460.141	6.01
460.494	6.02
460.847	6.04
461.2	6.05
461.553	6.06
461.906	6.08
462.259	6.09
462.611	6.09
462.964	6.1
463.317	6.12
463.67	6.13
464.022	6.15
464.375	6.17
464.728	6.18
465.08	6.19
465.433	6.2
465.785	6.21
466.138	6.2
466.49	6.18
466.843	6.17
467.195	6.15
467.547	6.13
467.899	6.11
468.252	6.07
468.604	6.05
468.956	6.03
469.308	6.02
469.66	6.03
470.012	6.03
470.364	6.05
470.716	6.06
471.068	6.09
471.42	6.13
471.772	6.17
472.123	6.2
472.475	6.22
472.827	6.24
473.178	6.27
473.53	6.29
473.882	6.32
474.233	6.37
474.585	6.43
474.936	6.53
475.288	6.67
475.639	6.84
475.99	7.05
476.342	7.28
476.693	7.52
477.044	7.78
477.395	8.04
477.746	8.3
478.097	8.56
478.448	8.83
478.8	9.09
479.15	9.33
479.501	9.54
479.852	9.74
480.203	9.94
480.554	10.12
480.905	10.29
481.255	10.45
481.606	10.61
481.957	10.76
482.307	10.9
482.658	11.03
483.009	11.15
483.359	11.27
483.709	11.4
484.06	11.51
484.41	11.62
484.761	11.73
485.111	11.83
485.461	11.92
485.811	12.02
486.162	12.1
486.512	12.17
486.862	12.23
487.212	12.27
487.562	12.29
487.912	12.31
488.262	12.31
488.612	12.3
488.961	12.27
489.311	12.21
489.661	12.1
490.011	11.97
490.36	11.81
490.71	11.64
491.06	11.44
491.409	11.24
491.759	11.02
492.108	10.79
492.458	10.57
492.807	10.33
493.157	10.09
493.506	9.87
493.855	9.66
494.204	9.47
494.554	9.28
494.903	9.11
495.252	8.95
495.601	8.8
495.95	8.66
496.299	8.52
496.648	8.4
496.997	8.29
497.346	8.19
497.695	8.09
498.043	7.99
498.392	7.91
498.741	7.83
499.09	7.76
499.438	7.7
499.787	7.64
500.135	7.6
500.484	7.56
500.832	7.54
501.181	7.54
501.529	7.57
501.878	7.61
502.226	7.67
502.574	7.73
502.923	7.8
503.271	7.88
503.619	7.95
503.967	8.03
504.315	8.11
504.663	8.19
505.011	8.28
505.359	8.36
505.707	8.44
506.055	8.54
506.403	8.63
506.751	8.74
507.098	8.84
507.446	8.95
507.794	9.07
508.141	9.19
508.489	9.32
508.837	9.46
509.184	9.61
509.531	9.75
509.879	9.9
510.226	10.06
510.574	10.23
510.921	10.41
511.268	10.6
511.616	10.79
511.963	10.98
512.31	11.19
512.657	11.39
513.004	11.59
513.351	11.78
513.698	11.96
514.045	12.13
514.392	12.29
514.739	12.44
515.086	12.58
515.432	12.72
515.779	12.86
516.126	13.01
516.473	13.16
516.819	13.34
517.166	13.53
517.512	13.74
517.859	13.97
518.205	14.21
518.552	14.48
518.898	14.77
519.245	15.11
519.591	15.52
519.937	16.01
520.283	16.56
520.629	17.18
520.976	17.82
521.322	18.49
521.668	19.18
522.014	19.88
522.36	20.58
522.706	21.27
523.052	21.93
523.398	22.56
523.743	23.14
524.089	23.66
524.435	24.15
524.781	24.63
525.126	25.09
525.472	25.55
525.817	25.99
526.163	26.42
526.509	26.84
526.854	27.26
527.199	27.67
527.545	28.08
527.89	28.51
528.235	28.93
528.581	29.33
528.926	29.7
529.271	30.06
529.616	30.4
529.961	30.74
530.306	31.05
530.651	31.35
530.996	31.62
531.341	31.85
531.686	32.06
532.031	32.26
532.376	32.48
532.721	32.71
533.065	32.98
533.41	33.25
533.755	33.49
534.099	33.69
534.444	33.85
534.788	33.98
535.133	34.09
535.477	34.17
535.822	34.23
536.166	34.26
536.51	34.22
536.855	34.13
537.199	34.01
537.543	33.9
537.887	33.82
538.231	33.77
538.576	33.74
538.92	33.69
539.264	33.63
539.608	33.56
539.951	33.47
540.295	33.36
540.639	33.25
540.983	33.12
541.327	32.98
541.671	32.82
542.014	32.68
542.358	32.57
542.701	32.53
543.045	32.56
543.389	32.61
543.732	32.69
544.075	32.78
544.419	32.89
544.762	33.02
545.105	33.16
545.449	33.31
545.792	33.47
546.135	33.63
546.478	33.75
546.821	33.83
547.165	33.85
547.508	33.81
547.851	33.74
548.194	33.62
548.536	33.46
548.879	33.28
549.222	33.07
549.565	32.85
549.908	32.64
550.25	32.45
550.593	32.32
550.936	32.26
551.278	32.25
551.621	32.28
551.963	32.33
552.306	32.39
552.648	32.49
552.991	32.63
553.333	32.77
553.675	32.96
554.017	33.17
554.36	33.41
554.702	33.68
555.044	33.98
555.386	34.33
555.728	34.72
556.07	35.07
556.412	35.42
556.754	35.7
557.096	35.93
557.438	36.16
557.78	36.39
558.121	36.62
558.463	36.86
558.805	37.09
559.147	37.31
559.488	37.54
559.83	37.78
560.171	38.01
560.513	38.24
560.854	38.46
561.196	38.68
561.537	38.9
561.878	39.11
562.22	39.32
562.561	39.52
562.902	39.72
563.243	39.92
563.584	40.13
563.925	40.34
564.266	40.54
564.607	40.73
564.948	40.93
565.289	41.11
565.63	41.3
565.971	41.49
566.312	41.69
566.653	41.88
566.993	42.05
567.334	42.23
567.675	42.4
568.015	42.57
568.356	42.74
568.696	42.9
569.037	43.06
569.377	43.21
569.718	43.35
570.058	43.49
570.398	43.63
570.739	43.76
571.079	43.89
571.419	44.01
571.759	44.13
572.099	44.24
572.439	44.37
572.779	44.48
573.119	44.58
573.459	44.69
573.799	44.8
574.139	44.9
574.479	45
574.819	45.11
575.158	45.2
575.498	45.3
575.838	45.41
576.177	45.5
576.517	45.6
576.856	45.69
577.196	45.79
577.535	45.88
577.875	45.96
578.214	46.04
578.553	46.13
578.893	46.21
579.232	46.3
579.571	46.39
579.91	46.49
580.25	46.57
580.589	46.65
580.928	46.72
581.267	46.81
581.606	46.89
581.945	46.97
582.283	47.04
582.622	47.12
582.961	47.2
583.3	47.29
583.639	47.38
583.977	47.46
584.316	47.55
584.654	47.64
584.993	47.72
585.332	47.79
585.67	47.88
586.008	47.96
586.347	48.03
586.685	48.12
587.024	48.2
587.362	48.28
587.7	48.37
588.038	48.45
588.376	48.54
588.715	48.64
589.053	48.73
589.391	48.81
589.729	48.89
590.067	48.99
590.404	49.07
590.742	49.16
591.08	49.24
591.418	49.32
591.756	49.41
592.093	49.48
592.431	49.55
592.769	49.61
593.106	49.66
593.444	49.73
593.781	49.78
594.119	49.82
594.456	49.88
594.793	49.94
595.131	50
595.468	50.06
595.805	50.12
596.143	50.19
596.48	50.25
596.817	50.32
597.154	50.38
597.491	50.46
597.828	50.53
598.165	50.59
598.502	50.65
598.839	50.71
599.176	50.77
599.512	50.82
599.849	50.87
600.186	50.93
600.523	50.98
600.859	51.03
601.196	51.08
601.532	51.12
601.869	51.17
602.205	51.23
602.542	51.26
602.878	51.31
603.215	51.36
603.551	51.4
603.887	51.43
604.223	51.47
604.56	51.5
604.896	51.53
605.232	51.55
605.568	51.58
605.904	51.61
606.24	51.64
606.576	51.67
606.912	51.7
607.248	51.73
607.583	51.77
607.919	51.8
608.255	51.83
608.591	51.86
608.926	51.89
609.262	51.91
609.597	51.94
609.933	51.96
610.268	51.97
610.604	51.99
610.939	52.01
611.275	52.02
611.61	52.03
611.945	52.04
612.281	52.06
612.616	52.07
612.951	52.08
613.286	52.1
613.621	52.12
613.956	52.13
614.291	52.15
614.626	52.16
614.961	52.18
615.296	52.19
615.631	52.21
615.966	52.21
616.3	52.23
616.635	52.24
616.97	52.25
617.304	52.26
617.639	52.26
617.973	52.28
618.308	52.3
618.642	52.34
618.977	52.37
619.311	52.39
619.646	52.42
619.98	52.44
620.314	52.48
620.648	52.52
620.983	52.55
621.317	52.57
621.651	52.6
621.985	52.63
622.319	52.66
622.653	52.67
622.987	52.71
623.321	52.72
623.655	52.75
623.988	52.77
624.322	52.79
624.656	52.83
624.99	52.85
625.323	52.87
625.657	52.89
625.99	52.9
626.324	52.94
626.657	52.96
626.991	52.99
627.324	53.01
627.658	53.03
627.991	53.05
628.324	53.08
628.657	53.11
628.991	53.14
629.324	53.15
629.657	53.17
629.99	53.2
630.323	53.23
630.656	53.25
630.989	53.27
631.322	53.3
631.655	53.31
631.987	53.32
632.32	53.33
632.653	53.34
632.986	53.38
633.318	53.39
633.651	53.43
633.984	53.42
634.316	53.42
634.649	53.45
634.981	53.46
635.313	53.47
635.646	53.48
635.978	53.5
636.31	53.52
636.643	53.53
636.975	53.55
637.307	53.56
637.639	53.59
637.971	53.6
638.303	53.61
638.635	53.62
638.967	53.64
639.299	53.64
639.631	53.67
639.963	53.69
640.295	53.72
640.626	53.73
640.958	53.76
641.29	53.78
641.621	53.8
641.953	53.82
642.285	53.82
642.616	53.85
642.948	53.86
643.279	53.87
643.61	53.88
643.942	53.88
644.273	53.89
644.604	53.91
644.936	53.93
645.267	53.94
645.598	53.97
645.929	53.98
646.26	54.01
646.591	54.02
646.922	54.02
647.253	54.03
647.584	54.07
647.915	54.09
648.245	54.1
648.576	54.12
648.907	54.15
649.238	54.16
649.568	54.19
649.899	54.23
650.229	54.24
650.56	54.26
650.89	54.3
651.221	54.32
651.551	54.36
651.882	54.37
652.212	54.41
652.542	54.44
652.872	54.46
653.203	54.48
653.533	54.49
653.863	54.49
654.193	54.52
654.523	54.53
654.853	54.56
655.183	54.57
655.513	54.59
655.843	54.61
656.172	54.61
656.502	54.64
656.832	54.66
657.162	54.67
657.491	54.69
657.821	54.72
658.15	54.72
658.48	54.74
658.809	54.77
659.139	54.79
659.468	54.81
659.798	54.83
660.127	54.85
660.456	54.88
660.785	54.89
661.115	54.91
661.444	54.93
661.773	54.95
662.102	54.96
662.431	54.97
662.76	54.99
663.089	54.98
663.418	55
663.747	55.02
664.076	55.05
664.404	55.06
664.733	55.07
665.062	55.07
665.39	55.09
665.719	55.09
666.048	55.11
666.376	55.14
666.705	55.16
667.033	55.17
667.362	55.2
667.69	55.21
668.018	55.21
668.347	55.22
668.675	55.23
669.003	55.25
669.331	55.27
669.659	55.29
669.987	55.31
670.315	55.34
670.643	55.36
670.971	55.37
671.299	55.38
671.627	55.4
671.955	55.42
672.283	55.42
672.61	55.44
672.938	55.46
673.266	55.46
673.593	55.47
673.921	55.48
674.249	55.49
674.576	55.51
674.904	55.53
675.231	55.54
675.558	55.56
675.886	55.57
676.213	55.58
676.54	55.62
676.867	55.63
677.195	55.62
677.522	55.63
677.849	55.66
678.176	55.68
678.503	55.7
678.83	55.71
679.157	55.71
679.484	55.72
679.81	55.73
680.137	55.74
680.464	55.76
680.791	55.77
681.117	55.78
681.444	55.81
681.771	55.83
682.097	55.84
682.424	55.85
682.75	55.86
683.077	55.87
683.403	55.87
683.729	55.88
684.056	55.9
684.382	55.92
684.708	55.95
685.034	55.97
685.36	55.98
685.686	56
686.012	56.02
686.339	56.05
686.664	56.07
686.99	56.09
687.316	56.11
687.642	56.14
687.968	56.14
688.294	56.17
688.619	56.18
688.945	56.19
689.271	56.21
689.596	56.23
689.922	56.23
690.247	56.26
690.573	56.28
690.898	56.29
691.224	56.31
691.549	56.32
691.874	56.33
692.2	56.35
692.525	56.39
692.85	56.42
693.175	56.44
693.5	56.48
693.825	56.5
694.15	56.52
694.475	56.55
694.8	56.57
695.125	56.58
695.45	56.58
695.775	56.6
696.099	56.62
696.424	56.63
696.749	56.66
697.073	56.68
697.398	56.69
697.723	56.7
698.047	56.7
698.372	56.72
698.696	56.74
699.02	56.75
699.345	56.74
699.669	56.73
699.993	56.75
700.318	56.75
700.642	56.77
700.966	56.78
701.29	56.77
701.614	56.79
701.938	56.82
702.262	56.84
702.586	56.86
702.91	56.89
703.234	56.89
703.557	56.88
703.881	56.9
704.205	56.91
704.529	56.92
704.852	56.95
705.176	56.95
705.499	56.99
705.823	57.01
706.146	57
706.47	57.02
706.793	57.03
707.117	57.05
707.44	57.07
707.763	57.07
708.086	57.08
708.409	57.09
708.733	57.13
709.056	57.13
709.379	57.14
709.702	57.16
710.025	57.19
710.348	57.19
710.671	57.21
710.993	57.24
711.316	57.25
711.639	57.27
711.962	57.3
712.284	57.3
712.607	57.33
712.93	57.35
713.252	57.35
713.575	57.36
713.897	57.4
714.22	57.38
714.542	57.41
714.864	57.41
715.187	57.41
715.509	57.42
715.831	57.43
716.153	57.42
716.475	57.45
716.798	57.48
717.12	57.48
717.442	57.51
717.764	57.49
718.085	57.47
718.407	57.48
718.729	57.47
719.051	57.49
719.373	57.53
719.695	57.53
720.016	57.53
720.338	57.53
720.659	57.53
720.981	57.54
721.302	57.56
721.624	57.58
721.945	57.57
722.267	57.62
722.588	57.64
722.909	57.67
723.231	57.64
723.552	57.65
723.873	57.68
724.194	57.69
724.515	57.72
724.836	57.72
725.157	57.72
725.478	57.76
725.799	57.77
726.12	57.78
726.441	57.79
726.762	57.81
727.083	57.79
727.403	57.82
727.724	57.83
728.045	57.81
728.365	57.83
728.686	57.85
729.006	57.85
729.327	57.85
729.647	57.83
729.967	57.86
730.288	57.86
730.608	57.87
730.928	57.91
731.249	57.94
731.569	57.96
731.889	57.96
732.209	57.95
732.529	57.92
732.849	57.92
733.169	57.93
733.489	57.97
733.809	57.95
734.129	57.96
734.448	57.97
734.768	57.97
735.088	58
735.408	57.99
735.727	57.99
736.047	57.98
736.366	57.99
736.686	58
737.005	58
737.325	57.98
737.644	57.99
737.963	57.97
738.283	57.96
738.602	57.96
738.921	57.97
739.24	57.98
739.56	57.99
739.879	57.94
740.198	57.93
740.517	57.92
740.836	57.93
741.155	57.98
741.473	57.97
741.792	57.96
742.111	57.97
742.43	57.98
742.748	58.01
743.067	58
743.386	58.02
743.704	58.02
744.023	58.02
744.341	57.99
744.66	57.99
744.978	58.01
745.297	58.01
745.615	58.05
745.933	58.07
746.252	58.06
746.57	58.03
746.888	58.03
747.206	58.03
747.524	58.06
747.842	58.03
748.16	58.03
748.478	58.03
748.796	58.02
749.114	58.02
749.432	58.05
749.749	58.06
750.067	58.03
750.385	58.03
750.703	58.03
751.02	58.03
751.338	58.02
751.655	58.03
751.973	57.99
752.29	57.98
752.608	58
752.925	58.06
753.242	58.1
753.56	58.12
753.877	58.13
754.194	58.15
754.511	58.15
754.828	58.16
755.145	58.14
755.462	58.15
755.779	58.14
756.096	58.14
756.413	58.15
756.73	58.17
757.047	58.2
757.364	58.19
757.68	58.21
757.997	58.22
758.314	58.24
758.63	58.21
758.947	58.22
759.264	58.26
759.58	58.25
759.896	58.29
760.213	58.34
760.529	58.33
760.846	58.36
761.162	58.37
761.478	58.36
761.794	58.43
762.11	58.44
762.426	58.42
762.743	58.43
763.059	58.44
763.375	58.44
763.69	58.41
764.006	58.44
764.322	58.5
764.638	58.48
764.954	58.49
765.27	58.52
765.585	58.51
765.901	58.51
766.216	58.5
766.532	58.47
766.848	58.46
767.163	58.45
767.478	58.46
767.794	58.47
768.109	58.48
768.424	58.51
768.74	58.5
769.055	58.54
769.37	58.52
769.685	58.51
770	58.5
770.315	58.55
770.63	58.53
770.945	58.51
771.26	58.49
771.575	58.55
771.89	58.55
772.205	58.51
772.52	58.49
772.834	58.51
773.149	58.49
773.464	58.49
773.778	58.48
774.093	58.49
774.407	58.48
774.722	58.43
775.036	58.4
775.351	58.41
775.665	58.4
775.979	58.4
776.293	58.41
776.608	58.41
776.922	58.41
777.236	58.36
777.55	58.4
777.864	58.44
778.178	58.43
778.492	58.48
778.806	58.44
779.12	58.44
779.434	58.51
779.747	58.5
780.061	58.46
780.375	58.45
780.689	58.47
781.002	58.51
781.316	58.46
781.629	58.5
781.943	58.48
782.256	58.54
782.57	58.53
782.883	58.53
783.196	58.52
783.51	58.55
783.823	58.57
784.136	58.57
784.449	58.52
784.762	58.54
785.075	58.57
785.388	58.57
785.701	58.55
786.014	58.58
786.327	58.61
786.64	58.59
786.953	58.62
787.266	58.63
787.578	58.66
787.891	58.7
788.204	58.74
788.516	58.7
788.829	58.7
789.141	58.72
789.454	58.69
789.766	58.71
790.079	58.71
790.391	58.65
790.703	58.64
791.016	58.64
791.328	58.57
791.64	58.62
791.952	58.63
792.264	58.57
792.576	58.6
792.888	58.55
793.2	58.62
793.512	58.63
793.824	58.63
794.136	58.68
794.448	58.65
794.76	58.63
795.071	58.63
795.383	58.67
795.695	58.63
796.006	58.6
796.318	58.5
796.629	58.54
796.941	58.56
797.252	58.54
797.564	58.5
797.875	58.47
798.186	58.51
798.497	58.53
798.809	58.5
799.12	58.46
799.431	58.46
799.742	58.42
800.053	58.43
800.364	58.36
800.675	58.29
800.986	58.26
801.297	58.31
801.608	58.31
801.918	58.32
802.229	58.35
802.54	58.3
802.851	58.37
803.161	58.35
803.472	58.33
803.782	58.33
804.093	58.38
804.403	58.36
804.714	58.37
805.024	58.39
805.334	58.34
805.645	58.42
805.955	58.35
806.265	58.38
806.575	58.35
806.885	58.33
807.195	58.37
807.505	58.37
807.815	58.37
808.125	58.39
808.435	58.44
808.745	58.45
809.055	58.54
809.365	58.54
809.674	58.53
809.984	58.55
810.294	58.55
810.603	58.59
810.913	58.63
811.222	58.6
811.532	58.51
811.841	58.54
812.151	58.61
812.46	58.61
812.769	58.6
813.079	58.68
813.388	58.71
813.697	58.65
814.006	58.68
814.315	58.71
814.624	58.73
814.933	58.79
815.242	58.84
815.551	58.78
815.86	58.79
816.169	58.86
816.478	58.89
816.786	58.85
817.095	58.88
817.404	58.83
817.712	58.83
818.021	58.85
818.33	58.84
818.638	58.86
818.947	58.89
819.255	58.87
819.563	58.89
819.872	58.91
820.18	58.94
820.488	58.93
820.796	58.93
821.105	58.94
821.413	58.96
821.721	58.97
822.029	58.96
822.337	58.99
822.645	59.01
822.953	59.01
823.26	59.01
823.568	59
823.876	59.03
824.184	59.06
824.491	59.07
824.799	59.06
825.107	59.05
825.414	59.07
825.722	59.05
826.029	59.07
826.337	59.11
826.644	59.11
826.951	59.13
827.259	59.13
827.566	59.12
827.873	59.11
828.18	59.12
828.488	59.14
828.795	59.13
829.102	59.12
829.409	59.13
829.716	59.14
830.023	59.14
830.329	59.15
830.636	59.18
830.943	59.21
831.25	59.23
831.557	59.21
831.863	59.23
832.17	59.23
832.476	59.2
832.783	59.16
833.089	59.17
833.396	59.13
833.702	59.12
834.009	59.12
834.315	59.12
834.621	59.12
834.928	59.1
835.234	59.07
835.54	59.08
835.846	59.03
836.152	59
836.458	58.96
836.764	58.95
837.07	58.92
837.376	58.92
837.682	58.93
837.988	58.89
838.293	58.92
838.599	58.86
838.905	58.8
839.211	58.82
839.516	58.78
839.822	58.76
840.127	58.8
840.433	58.83
840.738	58.89
841.044	58.87
841.349	58.83
841.654	58.81
841.959	58.86
842.265	58.8
842.57	58.9
842.875	58.93
843.18	58.81
843.485	58.74
843.79	58.62
844.095	58.58
844.4	58.6
844.705	58.61
845.01	58.61
845.315	58.68
845.619	58.67
845.924	58.76
846.229	58.67
846.533	58.66
846.838	58.72
847.142	58.77
847.447	58.86
847.751	59.03
848.056	59.08
848.36	59.27
848.664	59.25
848.969	59.3
849.273	59.29
849.577	59.29
849.881	59.35
850.185	59.43
850.489	59.37
850.794	59.34
851.097	59.53
851.401	59.49
851.705	59.55
852.009	59.6
852.313	59.68
852.617	59.7
852.92	59.6
853.224	59.54
853.528	59.54
853.831	59.69
854.135	59.76
854.438	59.72
854.742	59.75
855.045	59.77
855.349	59.83
855.652	59.92
855.955	60
856.259	60.17
856.562	60.18
856.865	60.27
857.168	60.23
857.471	60.37
857.774	60.36
858.077	60.34
858.38	60.43
858.683	60.56
858.986	60.48
859.289	60.43
859.592	60.29
859.894	60.18
860.197	60.08
860.5	60.15
860.802	60.05
861.105	60.13
861.407	59.99
861.71	59.96
862.012	59.88
862.315	59.72
862.617	59.62
862.919	59.82
863.222	59.77
863.524	59.66
863.826	59.76
864.128	59.65
864.43	59.63
864.732	59.57
865.034	59.56
865.336	59.46
865.638	59.22
865.94	59.35
866.242	59.38
866.544	59.28
866.846	59.35
867.147	59.27
867.449	59.11
867.751	59.09
868.052	59.09
868.354	59.11
868.655	59.06
868.957	59.18
869.258	59.11
869.56	59.11
869.861	59.12
870.162	59.14
870.463	59.26
870.765	59.12
871.066	59.15
871.367	59.18
871.668	59.09
871.969	59.1
872.27	59.08
872.571	58.93
872.872	58.86
873.173	58.86
873.473	58.88
873.774	59
874.075	59.03
874.376	59.16
874.676	59.25
874.977	59.31
875.277	59.24
875.578	59.28
875.878	59.26
876.179	59.12
876.479	59.19
876.78	59.04
877.08	58.97
877.38	58.7
877.68	58.89
877.981	59.1
878.281	59
878.581	58.86
