Data from UWBM50074_Reflection_00005.txt Node
Date: Sun May 02 12:34:34 EDT 2021
User: vgr7
Spectrometer: USB2G7710
Scans to average: 10
Trigger mode: 4
Integration Time (sec): 1.000000E-1
Electric dark correction enabled: true
Boxcar width: 10
XAxis mode: Wavelengths
Number of Pixels in Spectrum: 2048
>>>>>Begin Spectral Data<<<<<
177.721	84.33
178.105	95.45
178.488	388.52
178.871	11.32
179.254	348
179.636	57.69
180.019	135.11
180.402	110.53
180.785	77.53
181.168	41.01
181.55	-44.88
181.933	180
182.316	122.4
182.698	84.27
183.081	45.6
183.463	-41.77
183.846	43.54
184.228	47.37
184.611	63.33
184.993	50.78
185.376	47.73
185.758	45.04
186.14	41.44
186.522	36.55
186.904	34.88
187.287	37.79
187.669	27.16
188.051	19.48
188.433	24.92
188.815	22.81
189.197	26.9
189.579	28.17
189.961	26.76
190.342	28.39
190.724	28.65
191.106	24.67
191.488	22.66
191.869	18.82
192.251	19.41
192.633	16.66
193.014	15.74
193.396	16.15
193.777	15.68
194.159	15.35
194.54	7.57
194.922	7.83
195.303	9.3
195.684	10.85
196.065	13.01
196.447	9.53
196.828	8.16
197.209	5.19
197.59	6.82
197.971	5.09
198.352	4.72
198.733	7.29
199.114	12.75
199.495	15.08
199.876	15.24
200.257	14.5
200.638	13.83
201.018	12.84
201.399	9.19
201.78	7.5
202.16	7.3
202.541	12.35
202.922	14.39
203.302	10.84
203.683	12.77
204.063	12.65
204.444	11.94
204.824	13.83
205.204	14.42
205.585	13.53
205.965	14.22
206.345	14.96
206.725	10.18
207.106	5.76
207.486	4.7
207.866	5.91
208.246	4.8
208.626	6.33
209.006	6.69
209.386	8.56
209.766	6.44
210.145	7.09
210.525	6.55
210.905	6.81
211.285	8.87
211.664	7.56
212.044	8.7
212.424	10.5
212.803	9.77
213.183	11.55
213.562	12.63
213.942	12.86
214.321	10.02
214.701	10.58
215.08	12.16
215.459	12.4
215.838	11.41
216.218	12.04
216.597	11.12
216.976	12.55
217.355	11.16
217.734	10.71
218.113	8.44
218.492	8.25
218.871	7.22
219.25	8.09
219.629	9.23
220.008	6.91
220.387	3.43
220.766	1.08
221.144	0.67
221.523	2.16
221.902	1.31
222.28	2.67
222.659	4.01
223.037	4.32
223.416	3.48
223.794	3.36
224.173	3.29
224.551	3.79
224.929	1.53
225.308	3.46
225.686	4.71
226.064	5.8
226.442	5.82
226.821	5.37
227.199	5.17
227.577	4.13
227.955	4
228.333	4.23
228.711	4.87
229.089	5
229.467	4.68
229.845	5.18
230.222	5.33
230.6	5.39
230.978	5.09
231.356	5.36
231.733	5.33
232.111	5.73
232.488	5.22
232.866	5.58
233.243	4.96
233.621	5.08
233.998	4.75
234.376	5.28
234.753	5.8
235.13	5.61
235.508	6.33
235.885	6.65
236.262	6.99
236.639	7.01
237.016	6.97
237.393	6.78
237.77	6.59
238.147	6.4
238.524	6.39
238.901	6.48
239.278	6.13
239.655	6.07
240.032	5.91
240.409	6.1
240.785	5.9
241.162	5.91
241.539	5.82
241.915	5.77
242.292	5.67
242.668	5.53
243.045	5.47
243.421	5.23
243.798	5.13
244.174	5.07
244.551	4.99
244.927	4.9
245.303	4.86
245.679	4.92
246.056	4.85
246.432	4.8
246.808	4.72
247.184	4.71
247.56	4.7
247.936	4.72
248.312	4.65
248.688	4.68
249.064	4.64
249.44	4.65
249.815	4.69
250.191	4.59
250.567	4.56
250.943	4.53
251.318	4.59
251.694	4.56
252.069	4.51
252.445	4.51
252.82	4.49
253.196	4.56
253.571	4.43
253.947	4.52
254.322	4.53
254.697	4.55
255.073	4.53
255.448	4.47
255.823	4.35
256.198	4.28
256.573	4.18
256.948	4.15
257.323	4.13
257.698	4.07
258.073	4.13
258.448	4.14
258.823	4.14
259.198	4.15
259.573	4.14
259.948	4.16
260.322	4.14
260.697	4.15
261.072	4.12
261.446	4.1
261.821	4.11
262.195	4.05
262.57	4.03
262.944	4
263.319	3.98
263.693	4.02
264.067	4.05
264.442	4.09
264.816	4.11
265.19	4.12
265.564	4.11
265.938	4.07
266.313	4.07
266.687	4.03
267.061	3.99
267.435	3.98
267.809	4.01
268.183	4
268.556	4
268.93	3.97
269.304	3.95
269.678	3.92
270.051	3.93
270.425	3.94
270.799	4
271.172	4.01
271.546	3.98
271.919	3.98
272.293	3.95
272.666	3.96
273.04	3.95
273.413	3.92
273.787	3.9
274.16	3.91
274.533	3.93
274.906	3.91
275.279	3.9
275.653	3.87
276.026	3.82
276.399	3.79
276.772	3.81
277.145	3.85
277.518	3.86
277.891	3.9
278.263	3.92
278.636	3.91
279.009	3.92
279.382	3.91
279.755	3.91
280.127	3.94
280.5	3.94
280.872	3.92
281.245	3.94
281.617	3.96
281.99	3.95
282.362	3.95
282.735	3.95
283.107	3.96
283.479	3.98
283.852	3.99
284.224	4.03
284.596	4
284.968	3.99
285.34	3.96
285.713	3.96
286.085	3.93
286.457	3.93
286.829	3.91
287.201	3.91
287.572	3.91
287.944	3.9
288.316	3.91
288.688	3.93
289.06	3.93
289.431	3.92
289.803	3.91
290.175	3.9
290.546	3.91
290.918	3.94
291.289	3.93
291.661	3.95
292.032	3.92
292.403	3.93
292.775	3.91
293.146	3.91
293.517	3.89
293.889	3.9
294.26	3.91
294.631	3.93
295.002	3.93
295.373	3.94
295.744	3.93
296.115	3.9
296.486	3.9
296.857	3.9
297.228	3.92
297.599	3.92
297.97	3.92
298.34	3.92
298.711	3.9
299.082	3.88
299.452	3.86
299.823	3.87
300.194	3.88
300.564	3.87
300.935	3.88
301.305	3.87
301.676	3.86
302.046	3.82
302.416	3.82
302.787	3.81
303.157	3.81
303.527	3.84
303.897	3.86
304.267	3.84
304.637	3.84
305.008	3.86
305.378	3.85
305.748	3.82
306.117	3.79
306.487	3.78
306.857	3.82
307.227	3.83
307.597	3.8
307.967	3.8
308.336	3.82
308.706	3.84
309.076	3.83
309.445	3.8
309.815	3.81
310.184	3.79
310.554	3.78
310.923	3.74
311.293	3.73
311.662	3.71
312.031	3.71
312.401	3.71
312.77	3.68
313.139	3.71
313.508	3.71
313.877	3.71
314.246	3.7
314.616	3.69
314.985	3.72
315.353	3.71
315.722	3.7
316.091	3.68
316.46	3.67
316.829	3.68
317.198	3.71
317.567	3.7
317.935	3.68
318.304	3.7
318.672	3.72
319.041	3.73
319.41	3.75
319.778	3.76
320.147	3.78
320.515	3.77
320.883	3.73
321.252	3.73
321.62	3.71
321.988	3.71
322.357	3.7
322.725	3.66
323.093	3.68
323.461	3.69
323.829	3.7
324.197	3.69
324.565	3.67
324.933	3.65
325.301	3.65
325.669	3.66
326.037	3.67
326.405	3.64
326.772	3.63
327.14	3.6
327.508	3.58
327.875	3.56
328.243	3.56
328.61	3.57
328.978	3.61
329.346	3.61
329.713	3.61
330.08	3.59
330.448	3.62
330.815	3.61
331.182	3.58
331.55	3.58
331.917	3.58
332.284	3.59
332.651	3.59
333.018	3.61
333.385	3.61
333.752	3.62
334.119	3.63
334.486	3.61
334.853	3.63
335.22	3.62
335.587	3.62
335.954	3.63
336.32	3.62
336.687	3.59
337.054	3.6
337.42	3.61
337.787	3.62
338.153	3.61
338.52	3.6
338.886	3.64
339.253	3.62
339.619	3.61
339.986	3.62
340.352	3.63
340.718	3.64
341.084	3.63
341.451	3.61
341.817	3.6
342.183	3.62
342.549	3.62
342.915	3.62
343.281	3.64
343.647	3.64
344.013	3.65
344.379	3.66
344.745	3.67
345.11	3.65
345.476	3.66
345.842	3.67
346.208	3.68
346.573	3.66
346.939	3.68
347.304	3.67
347.67	3.66
348.035	3.67
348.401	3.64
348.766	3.67
349.132	3.68
349.497	3.68
349.862	3.68
350.228	3.68
350.593	3.71
350.958	3.71
351.323	3.69
351.688	3.69
352.053	3.7
352.418	3.71
352.783	3.72
353.148	3.72
353.513	3.72
353.878	3.73
354.243	3.72
354.608	3.71
354.972	3.73
355.337	3.73
355.702	3.71
356.066	3.71
356.431	3.69
356.795	3.71
357.16	3.7
357.524	3.69
357.889	3.7
358.253	3.68
358.618	3.67
358.982	3.68
359.346	3.68
359.71	3.68
360.075	3.67
360.439	3.67
360.803	3.66
361.167	3.64
361.531	3.64
361.895	3.64
362.259	3.65
362.623	3.65
362.987	3.65
363.351	3.67
363.714	3.69
364.078	3.69
364.442	3.69
364.806	3.68
365.169	3.7
365.533	3.69
365.896	3.69
366.26	3.69
366.623	3.69
366.987	3.69
367.35	3.69
367.714	3.7
368.077	3.69
368.44	3.7
368.803	3.71
369.167	3.72
369.53	3.74
369.893	3.73
370.256	3.73
370.619	3.73
370.982	3.72
371.345	3.71
371.708	3.72
372.071	3.72
372.434	3.73
372.797	3.72
373.159	3.73
373.522	3.74
373.885	3.76
374.247	3.75
374.61	3.74
374.973	3.74
375.335	3.74
375.698	3.75
376.06	3.75
376.423	3.75
376.785	3.74
377.147	3.73
377.51	3.74
377.872	3.74
378.234	3.75
378.596	3.76
378.958	3.76
379.321	3.75
379.683	3.76
380.045	3.76
380.407	3.76
380.769	3.76
381.13	3.76
381.492	3.74
381.854	3.74
382.216	3.76
382.578	3.75
382.939	3.76
383.301	3.75
383.663	3.75
384.024	3.76
384.386	3.77
384.747	3.77
385.109	3.77
385.47	3.77
385.832	3.76
386.193	3.77
386.554	3.76
386.916	3.78
387.277	3.78
387.638	3.79
387.999	3.78
388.36	3.79
388.721	3.78
389.082	3.8
389.443	3.8
389.804	3.79
390.165	3.79
390.526	3.79
390.887	3.79
391.248	3.8
391.609	3.8
391.969	3.79
392.33	3.8
392.691	3.8
393.051	3.79
393.412	3.79
393.772	3.8
394.133	3.8
394.493	3.79
394.854	3.8
395.214	3.79
395.574	3.79
395.935	3.79
396.295	3.8
396.655	3.79
397.015	3.79
397.376	3.8
397.736	3.81
398.096	3.81
398.456	3.82
398.816	3.81
399.176	3.81
399.535	3.82
399.895	3.82
400.255	3.83
400.615	3.83
400.975	3.84
401.334	3.84
401.694	3.84
402.054	3.84
402.413	3.84
402.773	3.84
403.132	3.85
403.492	3.86
403.851	3.86
404.211	3.86
404.57	3.87
404.929	3.86
405.288	3.87
405.648	3.87
406.007	3.87
406.366	3.87
406.725	3.87
407.084	3.87
407.443	3.87
407.802	3.86
408.161	3.87
408.52	3.87
408.879	3.87
409.238	3.87
409.596	3.88
409.955	3.88
410.314	3.88
410.673	3.88
411.031	3.88
411.39	3.88
411.748	3.89
412.107	3.89
412.465	3.89
412.824	3.89
413.182	3.9
413.54	3.91
413.899	3.91
414.257	3.92
414.615	3.93
414.974	3.94
415.332	3.95
415.69	3.96
416.048	3.98
416.406	4.02
416.764	4.06
417.122	4.1
417.48	4.15
417.838	4.2
418.195	4.26
418.553	4.31
418.911	4.37
419.269	4.43
419.626	4.48
419.984	4.55
420.342	4.6
420.699	4.64
421.057	4.7
421.414	4.75
421.772	4.79
422.129	4.82
422.486	4.85
422.844	4.88
423.201	4.88
423.558	4.87
423.915	4.83
424.273	4.79
424.63	4.73
424.987	4.67
425.344	4.61
425.701	4.55
426.058	4.51
426.415	4.46
426.772	4.4
427.128	4.35
427.485	4.28
427.842	4.23
428.199	4.18
428.555	4.12
428.912	4.06
429.269	4.02
429.625	3.99
429.982	3.95
430.338	3.92
430.695	3.92
431.051	3.93
431.407	3.95
431.764	3.96
432.12	4
432.476	4.03
432.832	4.06
433.189	4.07
433.545	4.08
433.901	4.08
434.257	4.09
434.613	4.09
434.969	4.11
435.325	4.13
435.681	4.15
436.036	4.18
436.392	4.21
436.748	4.26
437.104	4.29
437.459	4.33
437.815	4.37
438.171	4.42
438.526	4.44
438.882	4.47
439.237	4.52
439.593	4.53
439.948	4.55
440.304	4.57
440.659	4.59
441.014	4.62
441.369	4.66
441.725	4.69
442.08	4.74
442.435	4.79
442.79	4.85
443.145	4.9
443.5	4.93
443.855	4.97
444.21	4.98
444.565	4.98
444.92	4.99
445.275	4.99
445.629	4.99
445.984	4.99
446.339	4.97
446.693	4.94
447.048	4.93
447.403	4.92
447.757	4.9
448.112	4.88
448.466	4.84
448.82	4.79
449.175	4.74
449.529	4.68
449.883	4.61
450.238	4.53
450.592	4.46
450.946	4.4
451.3	4.32
451.654	4.27
452.008	4.23
452.362	4.17
452.716	4.13
453.07	4.07
453.424	4.05
453.778	4.02
454.132	4.02
454.486	4.02
454.839	4.03
455.193	4.06
455.547	4.11
455.9	4.16
456.254	4.22
456.607	4.28
456.961	4.34
457.314	4.42
457.668	4.47
458.021	4.52
458.375	4.56
458.728	4.58
459.081	4.6
459.434	4.6
459.787	4.6
460.141	4.59
460.494	4.57
460.847	4.55
461.2	4.54
461.553	4.53
461.906	4.52
462.259	4.5
462.611	4.47
462.964	4.43
463.317	4.39
463.67	4.34
464.022	4.3
464.375	4.25
464.728	4.19
465.08	4.14
465.433	4.1
465.785	4.06
466.138	4.05
466.49	4.03
466.843	4.03
467.195	4.04
467.547	4.06
467.899	4.1
468.252	4.13
468.604	4.14
468.956	4.15
469.308	4.17
469.66	4.17
470.012	4.17
470.364	4.18
470.716	4.17
471.068	4.18
471.42	4.18
471.772	4.18
472.123	4.18
472.475	4.19
472.827	4.19
473.178	4.19
473.53	4.19
473.882	4.19
474.233	4.19
474.585	4.2
474.936	4.2
475.288	4.2
475.639	4.2
475.99	4.21
476.342	4.22
476.693	4.23
477.044	4.24
477.395	4.26
477.746	4.3
478.097	4.37
478.448	4.49
478.8	4.66
479.15	4.87
479.501	5.12
479.852	5.4
480.203	5.69
480.554	6
480.905	6.32
481.255	6.65
481.606	6.97
481.957	7.3
482.307	7.63
482.658	7.93
483.009	8.22
483.359	8.49
483.709	8.74
484.06	8.99
484.41	9.23
484.761	9.44
485.111	9.64
485.461	9.79
485.811	9.9
486.162	9.94
486.512	9.93
486.862	9.87
487.212	9.79
487.562	9.66
487.912	9.53
488.262	9.37
488.612	9.2
488.961	9.02
489.311	8.82
489.661	8.61
490.011	8.41
490.36	8.2
490.71	7.99
491.06	7.77
491.409	7.55
491.759	7.34
492.108	7.12
492.458	6.92
492.807	6.72
493.157	6.53
493.506	6.35
493.855	6.18
494.204	6.02
494.554	5.86
494.903	5.71
495.252	5.56
495.601	5.41
495.95	5.26
496.299	5.11
496.648	4.98
496.997	4.84
497.346	4.73
497.695	4.63
498.043	4.55
498.392	4.5
498.741	4.46
499.09	4.43
499.438	4.4
499.787	4.38
500.135	4.36
500.484	4.34
500.832	4.32
501.181	4.3
501.529	4.28
501.878	4.26
502.226	4.24
502.574	4.23
502.923	4.22
503.271	4.22
503.619	4.23
503.967	4.23
504.315	4.25
504.663	4.27
505.011	4.29
505.359	4.32
505.707	4.35
506.055	4.37
506.403	4.39
506.751	4.41
507.098	4.43
507.446	4.44
507.794	4.46
508.141	4.46
508.489	4.47
508.837	4.48
509.184	4.49
509.531	4.5
509.879	4.5
510.226	4.5
510.574	4.51
510.921	4.5
511.268	4.5
511.616	4.5
511.963	4.5
512.31	4.5
512.657	4.5
513.004	4.5
513.351	4.51
513.698	4.52
514.045	4.54
514.392	4.56
514.739	4.59
515.086	4.62
515.432	4.66
515.779	4.7
516.126	4.73
516.473	4.77
516.819	4.79
517.166	4.82
517.512	4.83
517.859	4.84
518.205	4.85
518.552	4.85
518.898	4.85
519.245	4.84
519.591	4.84
519.937	4.83
520.283	4.84
520.629	4.84
520.976	4.86
521.322	4.87
521.668	4.88
522.014	4.91
522.36	4.94
522.706	4.98
523.052	5.05
523.398	5.17
523.743	5.31
524.089	5.49
524.435	5.69
524.781	5.92
525.126	6.15
525.472	6.39
525.817	6.64
526.163	6.89
526.509	7.14
526.854	7.36
527.199	7.56
527.545	7.72
527.89	7.86
528.235	7.98
528.581	8.09
528.926	8.19
529.271	8.28
529.616	8.35
529.961	8.4
530.306	8.42
530.651	8.39
530.996	8.33
531.341	8.24
531.686	8.13
532.031	8
532.376	7.84
532.721	7.67
533.065	7.49
533.41	7.3
533.755	7.12
534.099	6.95
534.444	6.8
534.788	6.67
535.133	6.55
535.477	6.44
535.822	6.34
536.166	6.26
536.51	6.2
536.855	6.16
537.199	6.14
537.543	6.13
537.887	6.14
538.231	6.15
538.576	6.17
538.92	6.2
539.264	6.24
539.608	6.28
539.951	6.32
540.295	6.34
540.639	6.36
540.983	6.36
541.327	6.36
541.671	6.37
542.014	6.37
542.358	6.37
542.701	6.36
543.045	6.34
543.389	6.29
543.732	6.22
544.075	6.13
544.419	6.02
544.762	5.88
545.105	5.73
545.449	5.59
545.792	5.44
546.135	5.31
546.478	5.18
546.821	5.06
547.165	4.95
547.508	4.87
547.851	4.8
548.194	4.74
548.536	4.69
548.879	4.65
549.222	4.61
549.565	4.58
549.908	4.55
550.25	4.53
550.593	4.51
550.936	4.51
551.278	4.52
551.621	4.53
551.963	4.56
552.306	4.6
552.648	4.62
552.991	4.65
553.333	4.66
553.675	4.65
554.017	4.66
554.36	4.66
554.702	4.66
555.044	4.66
555.386	4.65
555.728	4.65
556.07	4.65
556.412	4.65
556.754	4.65
557.096	4.65
557.438	4.65
557.78	4.65
558.121	4.65
558.463	4.65
558.805	4.65
559.147	4.65
559.488	4.65
559.83	4.66
560.171	4.66
560.513	4.66
560.854	4.66
561.196	4.67
561.537	4.67
561.878	4.67
562.22	4.68
562.561	4.68
562.902	4.69
563.243	4.7
563.584	4.7
563.925	4.71
564.266	4.71
564.607	4.72
564.948	4.73
565.289	4.73
565.63	4.73
565.971	4.73
566.312	4.74
566.653	4.74
566.993	4.74
567.334	4.74
567.675	4.74
568.015	4.74
568.356	4.75
568.696	4.75
569.037	4.75
569.377	4.76
569.718	4.77
570.058	4.77
570.398	4.77
570.739	4.77
571.079	4.77
571.419	4.77
571.759	4.78
572.099	4.77
572.439	4.77
572.779	4.78
573.119	4.78
573.459	4.77
573.799	4.78
574.139	4.78
574.479	4.78
574.819	4.78
575.158	4.78
575.498	4.78
575.838	4.77
576.177	4.76
576.517	4.76
576.856	4.75
577.196	4.74
577.535	4.74
577.875	4.73
578.214	4.73
578.553	4.73
578.893	4.71
579.232	4.71
579.571	4.71
579.91	4.7
580.25	4.7
580.589	4.7
580.928	4.7
581.267	4.7
581.606	4.7
581.945	4.69
582.283	4.69
582.622	4.69
582.961	4.7
583.3	4.7
583.639	4.7
583.977	4.71
584.316	4.71
584.654	4.71
584.993	4.71
585.332	4.71
585.67	4.72
586.008	4.73
586.347	4.74
586.685	4.74
587.024	4.74
587.362	4.74
587.7	4.75
588.038	4.75
588.376	4.75
588.715	4.76
589.053	4.77
589.391	4.77
589.729	4.77
590.067	4.77
590.404	4.77
590.742	4.77
591.08	4.77
591.418	4.77
591.756	4.77
592.093	4.79
592.431	4.79
592.769	4.79
593.106	4.79
593.444	4.79
593.781	4.79
594.119	4.79
594.456	4.79
594.793	4.79
595.131	4.8
595.468	4.8
595.805	4.8
596.143	4.8
596.48	4.8
596.817	4.81
597.154	4.82
597.491	4.81
597.828	4.82
598.165	4.81
598.502	4.81
598.839	4.81
599.176	4.81
599.512	4.81
599.849	4.8
600.186	4.81
600.523	4.81
600.859	4.82
601.196	4.82
601.532	4.83
601.869	4.83
602.205	4.84
602.542	4.85
602.878	4.86
603.215	4.86
603.551	4.87
603.887	4.86
604.223	4.87
604.56	4.87
604.896	4.88
605.232	4.89
605.568	4.89
605.904	4.9
606.24	4.91
606.576	4.91
606.912	4.91
607.248	4.92
607.583	4.92
607.919	4.92
608.255	4.91
608.591	4.91
608.926	4.9
609.262	4.9
609.597	4.89
609.933	4.89
610.268	4.9
610.604	4.9
610.939	4.89
611.275	4.89
611.61	4.89
611.945	4.89
612.281	4.89
612.616	4.89
612.951	4.88
613.286	4.89
613.621	4.88
613.956	4.87
614.291	4.88
614.626	4.87
614.961	4.88
615.296	4.88
615.631	4.89
615.966	4.9
616.3	4.89
616.635	4.89
616.97	4.88
617.304	4.88
617.639	4.88
617.973	4.89
618.308	4.89
618.642	4.88
618.977	4.87
619.311	4.86
619.646	4.87
619.98	4.86
620.314	4.86
620.648	4.88
620.983	4.89
621.317	4.89
621.651	4.88
621.985	4.89
622.319	4.89
622.653	4.89
622.987	4.89
623.321	4.89
623.655	4.9
623.988	4.92
624.322	4.91
624.656	4.91
624.99	4.92
625.323	4.92
625.657	4.92
625.99	4.94
626.324	4.95
626.657	4.96
626.991	4.96
627.324	4.95
627.658	4.96
627.991	4.96
628.324	4.96
628.657	4.97
628.991	4.97
629.324	4.98
629.657	4.99
629.99	5
630.323	5
630.656	5
630.989	5
631.322	5.01
631.655	5.01
631.987	5
632.32	5.01
632.653	5.02
632.986	5.03
633.318	5.03
633.651	5.02
633.984	5.03
634.316	5.05
634.649	5.05
634.981	5.06
635.313	5.06
635.646	5.06
635.978	5.06
636.31	5.05
636.643	5.04
636.975	5.04
637.307	5.03
637.639	5.03
637.971	5.03
638.303	5.04
638.635	5.04
638.967	5.04
639.299	5.04
639.631	5.04
639.963	5.03
640.295	5.02
640.626	5.05
640.958	5.04
641.29	5.03
641.621	5.03
641.953	5.04
642.285	5.04
642.616	5.06
642.948	5.05
643.279	5.06
643.61	5.07
643.942	5.08
644.273	5.08
644.604	5.08
644.936	5.08
645.267	5.08
645.598	5.09
645.929	5.09
646.26	5.11
646.591	5.12
646.922	5.13
647.253	5.15
647.584	5.14
647.915	5.15
648.245	5.15
648.576	5.17
648.907	5.16
649.238	5.16
649.568	5.16
649.899	5.17
650.229	5.17
650.56	5.18
650.89	5.19
651.221	5.21
651.551	5.23
651.882	5.24
652.212	5.24
652.542	5.24
652.872	5.23
653.203	5.25
653.533	5.25
653.863	5.24
654.193	5.23
654.523	5.23
654.853	5.22
655.183	5.22
655.513	5.21
655.843	5.21
656.172	5.21
656.502	5.22
656.832	5.21
657.162	5.21
657.491	5.22
657.821	5.22
658.15	5.2
658.48	5.19
658.809	5.18
659.139	5.19
659.468	5.2
659.798	5.21
660.127	5.2
660.456	5.2
660.785	5.22
661.115	5.24
661.444	5.25
661.773	5.26
662.102	5.26
662.431	5.26
662.76	5.27
663.089	5.28
663.418	5.28
663.747	5.28
664.076	5.3
664.404	5.29
664.733	5.3
665.062	5.33
665.39	5.33
665.719	5.34
666.048	5.35
666.376	5.35
666.705	5.34
667.033	5.34
667.362	5.34
667.69	5.34
668.018	5.33
668.347	5.32
668.675	5.32
669.003	5.32
669.331	5.32
669.659	5.3
669.987	5.3
670.315	5.31
670.643	5.31
670.971	5.31
671.299	5.31
671.627	5.31
671.955	5.3
672.283	5.31
672.61	5.31
672.938	5.31
673.266	5.32
673.593	5.34
673.921	5.35
674.249	5.36
674.576	5.38
674.904	5.39
675.231	5.39
675.558	5.41
675.886	5.43
676.213	5.45
676.54	5.47
676.867	5.48
677.195	5.5
677.522	5.52
677.849	5.53
678.176	5.54
678.503	5.55
678.83	5.55
679.157	5.56
679.484	5.57
679.81	5.57
680.137	5.57
680.464	5.58
680.791	5.56
681.117	5.58
681.444	5.56
681.771	5.56
682.097	5.57
682.424	5.57
682.75	5.56
683.077	5.56
683.403	5.56
683.729	5.55
684.056	5.56
684.382	5.55
684.708	5.55
685.034	5.58
685.36	5.56
685.686	5.58
686.012	5.59
686.339	5.58
686.664	5.59
686.99	5.59
687.316	5.6
687.642	5.61
687.968	5.6
688.294	5.61
688.619	5.63
688.945	5.63
689.271	5.64
689.596	5.64
689.922	5.66
690.247	5.67
690.573	5.68
690.898	5.67
691.224	5.7
691.549	5.7
691.874	5.67
692.2	5.68
692.525	5.7
692.85	5.68
693.175	5.69
693.5	5.7
693.825	5.71
694.15	5.69
694.475	5.7
694.8	5.69
695.125	5.72
695.45	5.74
695.775	5.75
696.099	5.74
696.424	5.76
696.749	5.75
697.073	5.74
697.398	5.74
697.723	5.76
698.047	5.75
698.372	5.75
698.696	5.79
699.02	5.79
699.345	5.77
699.669	5.8
699.993	5.8
700.318	5.8
700.642	5.81
700.966	5.82
701.29	5.83
701.614	5.86
701.938	5.87
702.262	5.85
702.586	5.84
702.91	5.84
703.234	5.86
703.557	5.85
703.881	5.86
704.205	5.89
704.529	5.91
704.852	5.91
705.176	5.93
705.499	5.9
705.823	5.91
706.146	5.93
706.47	5.93
706.793	5.95
707.117	5.96
707.44	5.97
707.763	5.99
708.086	6
708.409	5.99
708.733	5.96
709.056	5.98
709.379	6
709.702	6.04
710.025	6.04
710.348	6.08
710.671	6.08
710.993	6.07
711.316	6.05
711.639	6.06
711.962	6.08
712.284	6.09
712.607	6.11
712.93	6.11
713.252	6.13
713.575	6.13
713.897	6.13
714.22	6.14
714.542	6.14
714.864	6.13
715.187	6.15
715.509	6.17
715.831	6.17
716.153	6.18
716.475	6.17
716.798	6.21
717.12	6.19
717.442	6.22
717.764	6.24
718.085	6.3
718.407	6.29
718.729	6.25
719.051	6.27
719.373	6.29
719.695	6.28
720.016	6.25
720.338	6.28
720.659	6.31
720.981	6.34
721.302	6.34
721.624	6.36
721.945	6.33
722.267	6.34
722.588	6.33
722.909	6.3
723.231	6.31
723.552	6.31
723.873	6.31
724.194	6.29
724.515	6.3
724.836	6.23
725.157	6.29
725.478	6.29
725.799	6.29
726.12	6.31
726.441	6.34
726.762	6.38
727.083	6.37
727.403	6.37
727.724	6.32
728.045	6.36
728.365	6.39
728.686	6.46
729.006	6.47
729.327	6.48
729.647	6.5
729.967	6.5
730.288	6.5
730.608	6.52
730.928	6.55
731.249	6.53
731.569	6.54
731.889	6.52
732.209	6.56
732.529	6.58
732.849	6.58
733.169	6.58
733.489	6.58
733.809	6.61
734.129	6.63
734.448	6.68
734.768	6.66
735.088	6.67
735.408	6.67
735.727	6.68
736.047	6.73
736.366	6.75
736.686	6.76
737.005	6.77
737.325	6.76
737.644	6.76
737.963	6.78
738.283	6.79
738.602	6.83
738.921	6.84
739.24	6.82
739.56	6.82
739.879	6.84
740.198	6.88
740.517	6.86
740.836	6.85
741.155	6.82
741.473	6.86
741.792	6.85
742.111	6.83
742.43	6.85
742.748	6.83
743.067	6.85
743.386	6.83
743.704	6.82
744.023	6.84
744.341	6.87
744.66	6.89
744.978	6.93
745.297	6.91
745.615	6.89
745.933	6.9
746.252	6.91
746.57	6.9
746.888	6.85
747.206	6.86
747.524	6.88
747.842	6.91
748.16	6.9
748.478	6.92
748.796	6.9
749.114	6.86
749.432	6.85
749.749	6.89
750.067	6.91
750.385	6.97
750.703	6.99
751.02	7
751.338	6.98
751.655	6.96
751.973	6.95
752.29	6.94
752.608	6.98
752.925	7.03
753.242	7.05
753.56	7.09
753.877	7.05
754.194	7.04
754.511	7.05
754.828	7.07
755.145	7.08
755.462	7.12
755.779	7.16
756.096	7.19
756.413	7.17
756.73	7.17
757.047	7.15
757.364	7.16
757.68	7.18
757.997	7.23
758.314	7.23
758.63	7.25
758.947	7.31
759.264	7.31
759.58	7.3
759.896	7.27
760.213	7.27
760.529	7.28
760.846	7.28
761.162	7.3
761.478	7.29
761.794	7.29
762.11	7.3
762.426	7.28
762.743	7.27
763.059	7.28
763.375	7.31
763.69	7.35
764.006	7.35
764.322	7.31
764.638	7.29
764.954	7.3
765.27	7.35
765.585	7.36
765.901	7.4
766.216	7.35
766.532	7.35
766.848	7.35
767.163	7.42
767.478	7.45
767.794	7.47
768.109	7.49
768.424	7.52
768.74	7.52
769.055	7.54
769.37	7.63
769.685	7.68
770	7.69
770.315	7.67
770.63	7.68
770.945	7.71
771.26	7.73
771.575	7.75
771.89	7.71
772.205	7.72
772.52	7.69
772.834	7.76
773.149	7.81
773.464	7.86
773.778	7.81
774.093	7.86
774.407	7.83
774.722	7.88
775.036	7.87
775.351	7.87
775.665	7.87
775.979	7.76
776.293	7.75
776.608	7.7
776.922	7.69
777.236	7.7
777.55	7.79
777.864	7.84
778.178	7.79
778.492	7.83
778.806	7.79
779.12	7.83
779.434	7.86
779.747	7.88
780.061	7.86
780.375	7.9
780.689	7.91
781.002	7.95
781.316	7.98
781.629	7.99
781.943	8
782.256	8.07
782.57	8.14
782.883	8.09
783.196	8.12
783.51	8.15
783.823	8.16
784.136	8.11
784.449	8.08
784.762	8.18
785.075	8.14
785.388	8.15
785.701	8.12
786.014	8.11
786.327	8.13
786.64	8.11
786.953	8.11
787.266	8.07
787.578	8.06
787.891	8.01
788.204	8.08
788.516	8.07
788.829	8.06
789.141	8.06
789.454	8.06
789.766	8.16
790.079	8.21
790.391	8.23
790.703	8.28
791.016	8.32
791.328	8.38
791.64	8.47
791.952	8.55
792.264	8.55
792.576	8.63
792.888	8.66
793.2	8.71
793.512	8.79
793.824	8.77
794.136	8.72
794.448	8.81
794.76	8.79
795.071	8.85
795.383	8.81
795.695	8.88
796.006	8.98
796.318	8.89
796.629	8.86
796.941	8.85
797.252	8.84
797.564	8.78
797.875	8.64
798.186	8.6
798.497	8.52
798.809	8.54
799.12	8.45
799.431	8.41
799.742	8.41
800.053	8.36
800.364	8.48
800.675	8.55
800.986	8.51
801.297	8.5
801.608	8.5
801.918	8.54
802.229	8.59
802.54	8.55
802.851	8.62
803.161	8.68
803.472	8.69
803.782	8.73
804.093	8.78
804.403	8.86
804.714	8.91
805.024	9.01
805.334	8.97
805.645	9.01
805.955	9.11
806.265	9.12
806.575	9.19
806.885	9.16
807.195	9.15
807.505	9.1
807.815	9.16
808.125	9.3
808.435	9.4
808.745	9.33
809.055	9.34
809.365	9.37
809.674	9.45
809.984	9.55
810.294	9.49
810.603	9.5
810.913	9.62
811.222	9.62
811.532	9.68
811.841	9.8
812.151	9.86
812.46	9.8
812.769	9.84
813.079	9.81
813.388	9.8
813.697	9.85
814.006	9.97
814.315	10.03
814.624	9.96
814.933	9.9
815.242	9.91
815.551	9.91
815.86	9.77
816.169	9.74
816.478	9.71
816.786	9.65
817.095	9.68
817.404	9.66
817.712	9.73
818.021	9.59
818.33	9.64
818.638	9.67
818.947	9.69
819.255	9.64
819.563	9.65
819.872	9.55
820.18	9.49
820.488	9.42
820.796	9.38
821.105	9.39
821.413	9.37
821.721	9.39
822.029	9.39
822.337	9.43
822.645	9.44
822.953	9.46
823.26	9.52
823.568	9.52
823.876	9.52
824.184	9.51
824.491	9.54
824.799	9.52
825.107	9.51
825.414	9.53
825.722	9.53
826.029	9.52
826.337	9.58
826.644	9.61
826.951	9.65
827.259	9.67
827.566	9.71
827.873	9.75
828.18	9.71
828.488	9.76
828.795	9.82
829.102	9.82
829.409	9.83
829.716	9.85
830.023	9.87
830.329	9.91
830.636	9.93
830.943	9.96
831.25	10.02
831.557	10
831.863	9.95
832.17	9.95
832.476	10.05
832.783	10.01
833.089	10.06
833.396	10.09
833.702	10.12
834.009	10.06
834.315	10.08
834.621	10.18
834.928	10.15
835.234	10.13
835.54	10.18
835.846	10.19
836.152	10.2
836.458	10.25
836.764	10.21
837.07	10.24
837.376	10.19
837.682	10.21
837.988	10.35
838.293	10.43
838.599	10.53
838.905	10.5
839.211	10.59
839.516	10.6
839.822	10.66
840.127	10.64
840.433	10.74
840.738	10.87
841.044	10.88
841.349	10.98
841.654	11.06
841.959	11.06
842.265	11.09
842.57	11
842.875	11.02
843.18	11.11
843.485	11.13
843.79	11.2
844.095	11.13
844.4	11.04
844.705	11.15
845.01	11.18
845.315	11.16
845.619	11.12
845.924	10.9
846.229	10.67
846.533	10.79
846.838	10.72
847.142	10.52
847.447	10.44
847.751	10.53
848.056	10.47
848.36	10.4
848.664	10.23
848.969	10.28
849.273	10.35
849.577	10.41
849.881	10.51
850.185	10.56
850.489	10.59
850.794	10.67
851.097	10.67
851.401	10.7
851.705	10.81
852.009	10.8
852.313	10.91
852.617	11.21
852.92	11.04
853.224	11.19
853.528	11.54
853.831	11.68
854.135	11.41
854.438	11.52
854.742	11.7
855.045	11.77
855.349	11.65
855.652	11.73
855.955	11.55
856.259	11.52
856.562	11.57
856.865	11.77
857.168	11.73
857.471	11.54
857.774	11.57
858.077	11.52
858.38	11.56
858.683	11.73
858.986	11.62
859.289	11.9
859.592	11.91
859.894	11.49
860.197	11.67
860.5	11.71
860.802	11.59
861.105	11.42
861.407	11.59
861.71	11.96
862.012	11.9
862.315	12.01
862.617	11.88
862.919	11.94
863.222	11.89
863.524	11.72
863.826	12.26
864.128	12.23
864.43	12.25
864.732	12.2
865.034	12.18
865.336	12.15
865.638	12.08
865.94	12.1
866.242	12.18
866.544	12.08
866.846	12.25
867.147	12.22
867.449	12.35
867.751	12.16
868.052	11.85
868.354	11.84
868.655	11.83
868.957	12.23
869.258	12.03
869.56	12.1
869.861	12.21
870.162	11.83
870.463	11.96
870.765	12.02
871.066	12.2
871.367	12.46
871.668	12.46
871.969	12.71
872.27	12.65
872.571	12.68
872.872	12.6
873.173	12.51
873.473	12.5
873.774	12.45
874.075	12.75
874.376	12.92
874.676	12.73
874.977	12.74
875.277	12.54
875.578	12.61
875.878	12.48
876.179	12.49
876.479	12.51
876.78	12.44
877.08	12.4
877.38	12.32
877.68	11.99
877.981	12.15
878.281	11.79
878.581	11.9
