Data from UWBM109429_Reflection_00004.txt Node
Date: Sun May 02 13:53:50 EDT 2021
User: vgr7
Spectrometer: USB2G7710
Scans to average: 10
Trigger mode: 4
Integration Time (sec): 1.000000E-1
Electric dark correction enabled: true
Boxcar width: 20
XAxis mode: Wavelengths
Number of Pixels in Spectrum: 2048
>>>>>Begin Spectral Data<<<<<
177.721	70.46
178.105	53.12
178.488	75.82
178.871	72.35
179.254	57.37
179.636	51.49
180.019	42.94
180.402	40.14
180.785	42.8
181.168	43.05
181.55	40.18
181.933	34.45
182.316	27.67
182.698	26.17
183.081	26.06
183.463	26.15
183.846	23.85
184.228	25.81
184.611	23.97
184.993	21.52
185.376	22.15
185.758	22.27
186.14	24.21
186.522	21.45
186.904	20.56
187.287	19.68
187.669	21.35
188.051	21.05
188.433	20.67
188.815	17.19
189.197	18.22
189.579	18.03
189.961	17.78
190.342	15.5
190.724	14.11
191.106	15.25
191.488	14.72
191.869	12.54
192.251	10.95
192.633	10.62
193.014	10.58
193.396	7.62
193.777	8.39
194.159	8.19
194.54	7.97
194.922	7.06
195.303	5.65
195.684	5.31
196.065	5.79
196.447	4.62
196.828	2.86
197.209	1.94
197.59	1.23
197.971	1.39
198.352	2.39
198.733	2.84
199.114	2.79
199.495	4.28
199.876	3.34
200.257	3.88
200.638	3.35
201.018	4.2
201.399	5.99
201.78	5.2
202.16	4.95
202.541	5.24
202.922	5.18
203.302	6.07
203.683	6.45
204.063	6.82
204.444	7.84
204.824	6.37
205.204	4.25
205.585	3.98
205.965	6.38
206.345	7.42
206.725	7.05
207.106	6.92
207.486	8.04
207.866	8.46
208.246	8.55
208.626	8.28
209.006	9.39
209.386	9.14
209.766	7.65
210.145	7.26
210.525	7.68
210.905	9.65
211.285	7.68
211.664	8.18
212.044	8.7
212.424	8.29
212.803	7.16
213.183	7.47
213.562	9.35
213.942	8.94
214.321	8.12
214.701	7.29
215.08	7.63
215.459	8.18
215.838	7.56
216.218	8.26
216.597	6.98
216.976	6.47
217.355	6.66
217.734	7.69
218.113	8.24
218.492	7.7
218.871	6.85
219.25	6.66
219.629	5.66
220.008	5.13
220.387	4.7
220.766	6.54
221.144	6.68
221.523	6.39
221.902	6.02
222.28	5.67
222.659	5.48
223.037	5.43
223.416	5.96
223.794	6.51
224.173	6.23
224.551	5.34
224.929	5.99
225.308	5.9
225.686	5.74
226.064	5.72
226.442	5.34
226.821	6.31
227.199	6.15
227.577	5.46
227.955	5.57
228.333	6.21
228.711	5.54
229.089	4.87
229.467	4.82
229.845	4.9
230.222	5
230.6	4.67
230.978	4.69
231.356	4.82
231.733	4.84
232.111	4.82
232.488	4.83
232.866	4.71
233.243	4.64
233.621	4.67
233.998	4.88
234.376	4.83
234.753	4.69
235.13	4.94
235.508	5.07
235.885	5.16
236.262	5.12
236.639	5.16
237.016	5.06
237.393	5.11
237.77	5.13
238.147	5.12
238.524	5.12
238.901	5.06
239.278	5.04
239.655	5.12
240.032	5.13
240.409	5.11
240.785	5.13
241.162	5.17
241.539	5.14
241.915	5.17
242.292	5.18
242.668	5.15
243.045	5.2
243.421	5.2
243.798	5.2
244.174	5.27
244.551	5.31
244.927	5.3
245.303	5.32
245.679	5.32
246.056	5.29
246.432	5.31
246.808	5.29
247.184	5.29
247.56	5.31
247.936	5.27
248.312	5.26
248.688	5.28
249.064	5.28
249.44	5.27
249.815	5.27
250.191	5.25
250.567	5.24
250.943	5.21
251.318	5.18
251.694	5.2
252.069	5.18
252.445	5.2
252.82	5.14
253.196	5.12
253.571	5.1
253.947	5.1
254.322	5.08
254.697	5.08
255.073	5.05
255.448	5.07
255.823	5.04
256.198	5.05
256.573	5.03
256.948	5.04
257.323	5.01
257.698	4.98
258.073	4.95
258.448	4.92
258.823	4.91
259.198	4.9
259.573	4.86
259.948	4.84
260.322	4.83
260.697	4.77
261.072	4.77
261.446	4.77
261.821	4.72
262.195	4.7
262.57	4.7
262.944	4.67
263.319	4.7
263.693	4.7
264.067	4.67
264.442	4.64
264.816	4.61
265.19	4.62
265.564	4.63
265.938	4.61
266.313	4.61
266.687	4.61
267.061	4.6
267.435	4.59
267.809	4.57
268.183	4.59
268.556	4.6
268.93	4.6
269.304	4.61
269.678	4.6
270.051	4.58
270.425	4.57
270.799	4.54
271.172	4.55
271.546	4.55
271.919	4.55
272.293	4.55
272.666	4.55
273.04	4.53
273.413	4.56
273.787	4.59
274.16	4.59
274.533	4.57
274.906	4.58
275.279	4.57
275.653	4.58
276.026	4.62
276.399	4.61
276.772	4.62
277.145	4.63
277.518	4.65
277.891	4.65
278.263	4.66
278.636	4.66
279.009	4.66
279.382	4.67
279.755	4.67
280.127	4.7
280.5	4.7
280.872	4.71
281.245	4.7
281.617	4.7
281.99	4.69
282.362	4.67
282.735	4.67
283.107	4.67
283.479	4.65
283.852	4.65
284.224	4.64
284.596	4.62
284.968	4.62
285.34	4.64
285.713	4.65
286.085	4.66
286.457	4.66
286.829	4.63
287.201	4.63
287.572	4.63
287.944	4.63
288.316	4.62
288.688	4.62
289.06	4.62
289.431	4.63
289.803	4.65
290.175	4.66
290.546	4.67
290.918	4.67
291.289	4.66
291.661	4.66
292.032	4.64
292.403	4.65
292.775	4.64
293.146	4.65
293.517	4.65
293.889	4.64
294.26	4.64
294.631	4.64
295.002	4.65
295.373	4.65
295.744	4.64
296.115	4.63
296.486	4.65
296.857	4.67
297.228	4.68
297.599	4.7
297.97	4.7
298.34	4.68
298.711	4.7
299.082	4.7
299.452	4.71
299.823	4.72
300.194	4.73
300.564	4.72
300.935	4.72
301.305	4.72
301.676	4.71
302.046	4.72
302.416	4.72
302.787	4.71
303.157	4.71
303.527	4.72
303.897	4.71
304.267	4.71
304.637	4.69
305.008	4.67
305.378	4.65
305.748	4.65
306.117	4.64
306.487	4.65
306.857	4.66
307.227	4.66
307.597	4.66
307.967	4.65
308.336	4.65
308.706	4.62
309.076	4.62
309.445	4.61
309.815	4.6
310.184	4.59
310.554	4.57
310.923	4.58
311.293	4.58
311.662	4.56
312.031	4.55
312.401	4.54
312.77	4.54
313.139	4.54
313.508	4.57
313.877	4.56
314.246	4.55
314.616	4.55
314.985	4.56
315.353	4.54
315.722	4.53
316.091	4.53
316.46	4.5
316.829	4.51
317.198	4.52
317.567	4.51
317.935	4.53
318.304	4.51
318.672	4.5
319.041	4.5
319.41	4.47
319.778	4.5
320.147	4.49
320.515	4.49
320.883	4.49
321.252	4.47
321.62	4.46
321.988	4.47
322.357	4.47
322.725	4.46
323.093	4.45
323.461	4.43
323.829	4.44
324.197	4.45
324.565	4.44
324.933	4.45
325.301	4.44
325.669	4.45
326.037	4.43
326.405	4.43
326.772	4.43
327.14	4.42
327.508	4.4
327.875	4.4
328.243	4.38
328.61	4.36
328.978	4.36
329.346	4.34
329.713	4.34
330.08	4.32
330.448	4.31
330.815	4.29
331.182	4.28
331.55	4.29
331.917	4.28
332.284	4.26
332.651	4.25
333.018	4.23
333.385	4.22
333.752	4.22
334.119	4.23
334.486	4.23
334.853	4.22
335.22	4.21
335.587	4.21
335.954	4.2
336.32	4.19
336.687	4.18
337.054	4.18
337.42	4.18
337.787	4.18
338.153	4.18
338.52	4.18
338.886	4.17
339.253	4.16
339.619	4.17
339.986	4.17
340.352	4.18
340.718	4.17
341.084	4.18
341.451	4.17
341.817	4.18
342.183	4.18
342.549	4.18
342.915	4.18
343.281	4.19
343.647	4.2
344.013	4.18
344.379	4.19
344.745	4.19
345.11	4.19
345.476	4.2
345.842	4.22
346.208	4.23
346.573	4.21
346.939	4.21
347.304	4.22
347.67	4.23
348.035	4.23
348.401	4.24
348.766	4.25
349.132	4.24
349.497	4.25
349.862	4.25
350.228	4.25
350.593	4.25
350.958	4.25
351.323	4.25
351.688	4.26
352.053	4.26
352.418	4.26
352.783	4.26
353.148	4.26
353.513	4.26
353.878	4.26
354.243	4.28
354.608	4.27
354.972	4.28
355.337	4.28
355.702	4.28
356.066	4.28
356.431	4.28
356.795	4.27
357.16	4.26
357.524	4.27
357.889	4.27
358.253	4.27
358.618	4.26
358.982	4.26
359.346	4.27
359.71	4.26
360.075	4.27
360.439	4.26
360.803	4.26
361.167	4.27
361.531	4.27
361.895	4.27
362.259	4.27
362.623	4.26
362.987	4.26
363.351	4.27
363.714	4.27
364.078	4.27
364.442	4.28
364.806	4.27
365.169	4.27
365.533	4.28
365.896	4.29
366.26	4.29
366.623	4.29
366.987	4.28
367.35	4.29
367.714	4.29
368.077	4.29
368.44	4.29
368.803	4.29
369.167	4.28
369.53	4.29
369.893	4.28
370.256	4.28
370.619	4.28
370.982	4.29
371.345	4.3
371.708	4.31
372.071	4.32
372.434	4.32
372.797	4.33
373.159	4.34
373.522	4.34
373.885	4.34
374.247	4.35
374.61	4.34
374.973	4.34
375.335	4.35
375.698	4.35
376.06	4.35
376.423	4.35
376.785	4.35
377.147	4.36
377.51	4.37
377.872	4.37
378.234	4.36
378.596	4.37
378.958	4.37
379.321	4.37
379.683	4.38
380.045	4.38
380.407	4.38
380.769	4.38
381.13	4.38
381.492	4.39
381.854	4.4
382.216	4.41
382.578	4.41
382.939	4.42
383.301	4.43
383.663	4.43
384.024	4.43
384.386	4.44
384.747	4.44
385.109	4.45
385.47	4.45
385.832	4.45
386.193	4.45
386.554	4.45
386.916	4.45
387.277	4.45
387.638	4.45
387.999	4.45
388.36	4.46
388.721	4.46
389.082	4.46
389.443	4.47
389.804	4.47
390.165	4.48
390.526	4.48
390.887	4.48
391.248	4.48
391.609	4.49
391.969	4.49
392.33	4.49
392.691	4.5
393.051	4.51
393.412	4.51
393.772	4.51
394.133	4.51
394.493	4.52
394.854	4.52
395.214	4.52
395.574	4.52
395.935	4.52
396.295	4.52
396.655	4.52
397.015	4.52
397.376	4.52
397.736	4.52
398.096	4.53
398.456	4.53
398.816	4.53
399.176	4.54
399.535	4.54
399.895	4.55
400.255	4.55
400.615	4.55
400.975	4.55
401.334	4.56
401.694	4.56
402.054	4.57
402.413	4.57
402.773	4.57
403.132	4.58
403.492	4.58
403.851	4.58
404.211	4.59
404.57	4.59
404.929	4.59
405.288	4.6
405.648	4.6
406.007	4.61
406.366	4.61
406.725	4.62
407.084	4.62
407.443	4.62
407.802	4.62
408.161	4.63
408.52	4.63
408.879	4.63
409.238	4.64
409.596	4.64
409.955	4.65
410.314	4.66
410.673	4.66
411.031	4.67
411.39	4.68
411.748	4.69
412.107	4.7
412.465	4.72
412.824	4.75
413.182	4.78
413.54	4.81
413.899	4.85
414.257	4.89
414.615	4.94
414.974	4.98
415.332	5.03
415.69	5.08
416.048	5.12
416.406	5.18
416.764	5.22
417.122	5.26
417.48	5.3
417.838	5.34
418.195	5.37
418.553	5.4
418.911	5.42
419.269	5.44
419.626	5.44
419.984	5.43
420.342	5.42
420.699	5.41
421.057	5.39
421.414	5.37
421.772	5.35
422.129	5.35
422.486	5.34
422.844	5.34
423.201	5.34
423.558	5.34
423.915	5.34
424.273	5.34
424.63	5.35
424.987	5.35
425.344	5.35
425.701	5.35
426.058	5.35
426.415	5.36
426.772	5.36
427.128	5.35
427.485	5.34
427.842	5.33
428.199	5.31
428.555	5.29
428.912	5.27
429.269	5.24
429.625	5.21
429.982	5.18
430.338	5.14
430.695	5.12
431.051	5.08
431.407	5.05
431.764	5.03
432.12	5.01
432.476	5
432.832	4.99
433.189	4.99
433.545	5
433.901	5.01
434.257	5.04
434.613	5.07
434.969	5.1
435.325	5.14
435.681	5.19
436.036	5.21
436.392	5.24
436.748	5.26
437.104	5.27
437.459	5.3
437.815	5.32
438.171	5.35
438.526	5.38
438.882	5.42
439.237	5.47
439.593	5.52
439.948	5.56
440.304	5.6
440.659	5.64
441.014	5.66
441.369	5.7
441.725	5.72
442.08	5.75
442.435	5.77
442.79	5.78
443.145	5.79
443.5	5.79
443.855	5.79
444.21	5.8
444.565	5.79
444.92	5.79
445.275	5.78
445.629	5.77
445.984	5.76
446.339	5.75
446.693	5.73
447.048	5.71
447.403	5.7
447.757	5.67
448.112	5.65
448.466	5.62
448.82	5.59
449.175	5.56
449.529	5.53
449.883	5.51
450.238	5.48
450.592	5.48
450.946	5.47
451.3	5.46
451.654	5.48
452.008	5.48
452.362	5.49
452.716	5.49
453.07	5.5
453.424	5.49
453.778	5.48
454.132	5.47
454.486	5.46
454.839	5.43
455.193	5.41
455.547	5.39
455.9	5.36
456.254	5.34
456.607	5.3
456.961	5.27
457.314	5.24
457.668	5.23
458.021	5.22
458.375	5.21
458.728	5.21
459.081	5.21
459.434	5.22
459.787	5.23
460.141	5.25
460.494	5.25
460.847	5.26
461.2	5.27
461.553	5.27
461.906	5.28
462.259	5.28
462.611	5.28
462.964	5.29
463.317	5.29
463.67	5.3
464.022	5.31
464.375	5.32
464.728	5.32
465.08	5.32
465.433	5.32
465.785	5.31
466.138	5.3
466.49	5.27
466.843	5.25
467.195	5.22
467.547	5.18
467.899	5.15
468.252	5.11
468.604	5.08
468.956	5.06
469.308	5.03
469.66	5.03
470.012	5.02
470.364	5.02
470.716	5.02
471.068	5.04
471.42	5.06
471.772	5.08
472.123	5.1
472.475	5.11
472.827	5.12
473.178	5.13
473.53	5.14
473.882	5.16
474.233	5.18
474.585	5.22
474.936	5.3
475.288	5.41
475.639	5.56
475.99	5.72
476.342	5.91
476.693	6.12
477.044	6.32
477.395	6.54
477.746	6.75
478.097	6.97
478.448	7.2
478.8	7.41
479.15	7.62
479.501	7.8
479.852	7.97
480.203	8.14
480.554	8.29
480.905	8.44
481.255	8.58
481.606	8.72
481.957	8.85
482.307	8.97
482.658	9.09
483.009	9.2
483.359	9.31
483.709	9.42
484.06	9.52
484.41	9.61
484.761	9.71
485.111	9.8
485.461	9.89
485.811	9.97
486.162	10.05
486.512	10.11
486.862	10.16
487.212	10.2
487.562	10.22
487.912	10.23
488.262	10.24
488.612	10.23
488.961	10.21
489.311	10.15
489.661	10.06
490.011	9.95
490.36	9.81
490.71	9.66
491.06	9.49
491.409	9.31
491.759	9.12
492.108	8.93
492.458	8.73
492.807	8.51
493.157	8.3
493.506	8.1
493.855	7.91
494.204	7.73
494.554	7.56
494.903	7.4
495.252	7.25
495.601	7.1
495.95	6.95
496.299	6.81
496.648	6.68
496.997	6.56
497.346	6.44
497.695	6.33
498.043	6.22
498.392	6.11
498.741	6
499.09	5.9
499.438	5.81
499.787	5.71
500.135	5.63
500.484	5.55
500.832	5.48
501.181	5.43
501.529	5.4
501.878	5.37
502.226	5.36
502.574	5.35
502.923	5.34
503.271	5.34
503.619	5.33
503.967	5.33
504.315	5.32
504.663	5.31
505.011	5.3
505.359	5.29
505.707	5.28
506.055	5.27
506.403	5.27
506.751	5.27
507.098	5.27
507.446	5.27
507.794	5.27
508.141	5.28
508.489	5.3
508.837	5.31
509.184	5.32
509.531	5.33
509.879	5.34
510.226	5.36
510.574	5.37
510.921	5.39
511.268	5.41
511.616	5.43
511.963	5.45
512.31	5.47
512.657	5.5
513.004	5.52
513.351	5.53
513.698	5.55
514.045	5.56
514.392	5.56
514.739	5.56
515.086	5.56
515.432	5.55
515.779	5.54
516.126	5.54
516.473	5.53
516.819	5.53
517.166	5.54
517.512	5.55
517.859	5.56
518.205	5.58
518.552	5.61
518.898	5.65
519.245	5.69
519.591	5.76
519.937	5.85
520.283	5.95
520.629	6.08
520.976	6.2
521.322	6.34
521.668	6.49
522.014	6.64
522.36	6.78
522.706	6.92
523.052	7.06
523.398	7.19
523.743	7.3
524.089	7.4
524.435	7.48
524.781	7.56
525.126	7.63
525.472	7.7
525.817	7.76
526.163	7.82
526.509	7.87
526.854	7.92
527.199	7.98
527.545	8.03
527.89	8.09
528.235	8.14
528.581	8.2
528.926	8.25
529.271	8.29
529.616	8.33
529.961	8.38
530.306	8.41
530.651	8.44
530.996	8.46
531.341	8.47
531.686	8.48
532.031	8.48
532.376	8.48
532.721	8.49
533.065	8.49
533.41	8.5
533.755	8.49
534.099	8.47
534.444	8.44
534.788	8.4
535.133	8.35
535.477	8.29
535.822	8.23
536.166	8.16
536.51	8.08
536.855	7.99
537.199	7.89
537.543	7.79
537.887	7.71
538.231	7.63
538.576	7.57
538.92	7.5
539.264	7.43
539.608	7.36
539.951	7.28
540.295	7.21
540.639	7.13
540.983	7.05
541.327	6.97
541.671	6.89
542.014	6.81
542.358	6.74
542.701	6.69
543.045	6.65
543.389	6.62
543.732	6.6
544.075	6.57
544.419	6.55
544.762	6.53
545.105	6.51
545.449	6.5
545.792	6.49
546.135	6.47
546.478	6.46
546.821	6.43
547.165	6.39
547.508	6.34
547.851	6.29
548.194	6.22
548.536	6.15
548.879	6.07
549.222	5.98
549.565	5.9
549.908	5.81
550.25	5.73
550.593	5.66
550.936	5.6
551.278	5.56
551.621	5.52
551.963	5.48
552.306	5.44
552.648	5.42
552.991	5.4
553.333	5.38
553.675	5.37
554.017	5.36
554.36	5.36
554.702	5.37
555.044	5.38
555.386	5.4
555.728	5.42
556.07	5.43
556.412	5.45
556.754	5.46
557.096	5.46
557.438	5.45
557.78	5.46
558.121	5.46
558.463	5.46
558.805	5.46
559.147	5.46
559.488	5.46
559.83	5.47
560.171	5.47
560.513	5.47
560.854	5.47
561.196	5.48
561.537	5.48
561.878	5.48
562.22	5.48
562.561	5.48
562.902	5.48
563.243	5.48
563.584	5.48
563.925	5.48
564.266	5.49
564.607	5.49
564.948	5.49
565.289	5.49
565.63	5.49
565.971	5.5
566.312	5.51
566.653	5.51
566.993	5.52
567.334	5.52
567.675	5.52
568.015	5.53
568.356	5.53
568.696	5.53
569.037	5.53
569.377	5.53
569.718	5.54
570.058	5.54
570.398	5.54
570.739	5.54
571.079	5.54
571.419	5.54
571.759	5.54
572.099	5.54
572.439	5.54
572.779	5.54
573.119	5.54
573.459	5.54
573.799	5.54
574.139	5.54
574.479	5.54
574.819	5.55
575.158	5.55
575.498	5.55
575.838	5.55
576.177	5.55
576.517	5.54
576.856	5.54
577.196	5.54
577.535	5.54
577.875	5.54
578.214	5.54
578.553	5.54
578.893	5.54
579.232	5.54
579.571	5.54
579.91	5.54
580.25	5.54
580.589	5.54
580.928	5.53
581.267	5.53
581.606	5.53
581.945	5.53
582.283	5.53
582.622	5.53
582.961	5.53
583.3	5.53
583.639	5.53
583.977	5.53
584.316	5.53
584.654	5.54
584.993	5.54
585.332	5.54
585.67	5.54
586.008	5.54
586.347	5.54
586.685	5.54
587.024	5.54
587.362	5.54
587.7	5.54
588.038	5.54
588.376	5.54
588.715	5.54
589.053	5.54
589.391	5.55
589.729	5.55
590.067	5.55
590.404	5.56
590.742	5.57
591.08	5.57
591.418	5.58
591.756	5.58
592.093	5.58
592.431	5.58
592.769	5.59
593.106	5.59
593.444	5.59
593.781	5.59
594.119	5.59
594.456	5.59
594.793	5.6
595.131	5.6
595.468	5.6
595.805	5.6
596.143	5.6
596.48	5.6
596.817	5.6
597.154	5.6
597.491	5.61
597.828	5.61
598.165	5.61
598.502	5.62
598.839	5.63
599.176	5.63
599.512	5.63
599.849	5.63
600.186	5.63
600.523	5.64
600.859	5.64
601.196	5.65
601.532	5.65
601.869	5.65
602.205	5.65
602.542	5.66
602.878	5.66
603.215	5.66
603.551	5.66
603.887	5.66
604.223	5.66
604.56	5.66
604.896	5.66
605.232	5.66
605.568	5.66
605.904	5.66
606.24	5.66
606.576	5.66
606.912	5.66
607.248	5.66
607.583	5.67
607.919	5.67
608.255	5.67
608.591	5.67
608.926	5.67
609.262	5.68
609.597	5.68
609.933	5.67
610.268	5.68
610.604	5.67
610.939	5.67
611.275	5.67
611.61	5.67
611.945	5.67
612.281	5.67
612.616	5.66
612.951	5.66
613.286	5.66
613.621	5.67
613.956	5.66
614.291	5.66
614.626	5.66
614.961	5.66
615.296	5.66
615.631	5.66
615.966	5.67
616.3	5.67
616.635	5.66
616.97	5.67
617.304	5.67
617.639	5.67
617.973	5.67
618.308	5.68
618.642	5.68
618.977	5.68
619.311	5.68
619.646	5.69
619.98	5.69
620.314	5.7
620.648	5.7
620.983	5.71
621.317	5.7
621.651	5.71
621.985	5.71
622.319	5.71
622.653	5.72
622.987	5.73
623.321	5.73
623.655	5.74
623.988	5.75
624.322	5.75
624.656	5.76
624.99	5.76
625.323	5.77
625.657	5.76
625.99	5.76
626.324	5.76
626.657	5.76
626.991	5.77
627.324	5.77
627.658	5.77
627.991	5.78
628.324	5.78
628.657	5.78
628.991	5.79
629.324	5.8
629.657	5.8
629.99	5.8
630.323	5.81
630.656	5.81
630.989	5.81
631.322	5.81
631.655	5.81
631.987	5.82
632.32	5.82
632.653	5.83
632.986	5.84
633.318	5.84
633.651	5.84
633.984	5.84
634.316	5.84
634.649	5.84
634.981	5.84
635.313	5.84
635.646	5.84
635.978	5.84
636.31	5.85
636.643	5.85
636.975	5.86
637.307	5.86
637.639	5.86
637.971	5.86
638.303	5.86
638.635	5.86
638.967	5.86
639.299	5.87
639.631	5.87
639.963	5.88
640.295	5.88
640.626	5.88
640.958	5.89
641.29	5.89
641.621	5.9
641.953	5.9
642.285	5.9
642.616	5.91
642.948	5.9
643.279	5.9
643.61	5.91
643.942	5.93
644.273	5.93
644.604	5.94
644.936	5.94
645.267	5.94
645.598	5.94
645.929	5.95
646.26	5.95
646.591	5.95
646.922	5.95
647.253	5.95
647.584	5.96
647.915	5.96
648.245	5.97
648.576	5.98
648.907	5.98
649.238	5.99
649.568	5.99
649.899	5.99
650.229	5.99
650.56	5.99
650.89	5.99
651.221	5.99
651.551	6
651.882	6.01
652.212	6.01
652.542	6.02
652.872	6.02
653.203	6.03
653.533	6.03
653.863	6.04
654.193	6.05
654.523	6.05
654.853	6.05
655.183	6.05
655.513	6.06
655.843	6.06
656.172	6.06
656.502	6.06
656.832	6.07
657.162	6.07
657.491	6.07
657.821	6.07
658.15	6.07
658.48	6.08
658.809	6.08
659.139	6.09
659.468	6.09
659.798	6.1
660.127	6.1
660.456	6.12
660.785	6.12
661.115	6.13
661.444	6.14
661.773	6.15
662.102	6.15
662.431	6.15
662.76	6.15
663.089	6.15
663.418	6.16
663.747	6.16
664.076	6.17
664.404	6.18
664.733	6.19
665.062	6.2
665.39	6.21
665.719	6.21
666.048	6.21
666.376	6.22
666.705	6.22
667.033	6.23
667.362	6.24
667.69	6.24
668.018	6.24
668.347	6.26
668.675	6.27
669.003	6.27
669.331	6.27
669.659	6.28
669.987	6.28
670.315	6.28
670.643	6.28
670.971	6.29
671.299	6.29
671.627	6.28
671.955	6.29
672.283	6.3
672.61	6.3
672.938	6.31
673.266	6.31
673.593	6.31
673.921	6.31
674.249	6.32
674.576	6.32
674.904	6.32
675.231	6.33
675.558	6.33
675.886	6.34
676.213	6.35
676.54	6.36
676.867	6.36
677.195	6.36
677.522	6.36
677.849	6.36
678.176	6.36
678.503	6.36
678.83	6.37
679.157	6.37
679.484	6.37
679.81	6.38
680.137	6.38
680.464	6.39
680.791	6.4
681.117	6.4
681.444	6.41
681.771	6.41
682.097	6.41
682.424	6.42
682.75	6.42
683.077	6.42
683.403	6.43
683.729	6.44
684.056	6.44
684.382	6.45
684.708	6.47
685.034	6.49
685.36	6.5
685.686	6.49
686.012	6.5
686.339	6.5
686.664	6.5
686.99	6.51
687.316	6.51
687.642	6.51
687.968	6.52
688.294	6.53
688.619	6.52
688.945	6.52
689.271	6.52
689.596	6.52
689.922	6.54
690.247	6.54
690.573	6.55
690.898	6.55
691.224	6.56
691.549	6.57
691.874	6.57
692.2	6.57
692.525	6.59
692.85	6.61
693.175	6.63
693.5	6.64
693.825	6.64
694.15	6.65
694.475	6.66
694.8	6.66
695.125	6.65
695.45	6.67
695.775	6.68
696.099	6.68
696.424	6.69
696.749	6.69
697.073	6.7
697.398	6.7
697.723	6.72
698.047	6.71
698.372	6.7
698.696	6.71
699.02	6.72
699.345	6.71
699.669	6.72
699.993	6.73
700.318	6.73
700.642	6.74
700.966	6.73
701.29	6.74
701.614	6.75
701.938	6.76
702.262	6.78
702.586	6.78
702.91	6.78
703.234	6.78
703.557	6.78
703.881	6.8
704.205	6.8
704.529	6.81
704.852	6.81
705.176	6.81
705.499	6.82
705.823	6.81
706.146	6.81
706.47	6.81
706.793	6.8
707.117	6.82
707.44	6.82
707.763	6.82
708.086	6.84
708.409	6.86
708.733	6.87
709.056	6.87
709.379	6.87
709.702	6.89
710.025	6.89
710.348	6.9
710.671	6.91
710.993	6.9
711.316	6.91
711.639	6.93
711.962	6.94
712.284	6.95
712.607	6.97
712.93	6.97
713.252	6.99
713.575	7.01
713.897	7.02
714.22	7.02
714.542	7.03
714.864	7.03
715.187	7.03
715.509	7.04
715.831	7.04
716.153	7.04
716.475	7.06
716.798	7.05
717.12	7.05
717.442	7.07
717.764	7.08
718.085	7.08
718.407	7.1
718.729	7.1
719.051	7.11
719.373	7.11
719.695	7.11
720.016	7.14
720.338	7.12
720.659	7.13
720.981	7.14
721.302	7.12
721.624	7.12
721.945	7.11
722.267	7.12
722.588	7.13
722.909	7.13
723.231	7.14
723.552	7.13
723.873	7.14
724.194	7.15
724.515	7.17
724.836	7.17
725.157	7.18
725.478	7.18
725.799	7.19
726.12	7.21
726.441	7.2
726.762	7.2
727.083	7.21
727.403	7.21
727.724	7.23
728.045	7.24
728.365	7.25
728.686	7.27
729.006	7.29
729.327	7.31
729.647	7.31
729.967	7.35
730.288	7.36
730.608	7.35
730.928	7.36
731.249	7.37
731.569	7.38
731.889	7.39
732.209	7.4
732.529	7.4
732.849	7.43
733.169	7.43
733.489	7.46
733.809	7.47
734.129	7.49
734.448	7.52
734.768	7.54
735.088	7.57
735.408	7.58
735.727	7.58
736.047	7.6
736.366	7.61
736.686	7.64
737.005	7.64
737.325	7.64
737.644	7.64
737.963	7.64
738.283	7.63
738.602	7.64
738.921	7.66
739.24	7.67
739.56	7.69
739.879	7.68
740.198	7.69
740.517	7.7
740.836	7.67
741.155	7.67
741.473	7.66
741.792	7.64
742.111	7.63
742.43	7.61
742.748	7.63
743.067	7.64
743.386	7.66
743.704	7.68
744.023	7.68
744.341	7.68
744.66	7.69
744.978	7.7
745.297	7.72
745.615	7.75
745.933	7.77
746.252	7.77
746.57	7.78
746.888	7.78
747.206	7.78
747.524	7.78
747.842	7.77
748.16	7.77
748.478	7.77
748.796	7.77
749.114	7.77
749.432	7.77
749.749	7.76
750.067	7.79
750.385	7.81
750.703	7.81
751.02	7.81
751.338	7.81
751.655	7.84
751.973	7.84
752.29	7.84
752.608	7.86
752.925	7.86
753.242	7.9
753.56	7.92
753.877	7.97
754.194	7.98
754.511	7.99
754.828	8
755.145	8.03
755.462	8.05
755.779	8.08
756.096	8.09
756.413	8.09
756.73	8.12
757.047	8.12
757.364	8.15
757.68	8.17
757.997	8.19
758.314	8.17
758.63	8.18
758.947	8.18
759.264	8.19
759.58	8.18
759.896	8.2
760.213	8.21
760.529	8.23
760.846	8.25
761.162	8.27
761.478	8.29
761.794	8.32
762.11	8.34
762.426	8.38
762.743	8.39
763.059	8.37
763.375	8.37
763.69	8.38
764.006	8.42
764.322	8.43
764.638	8.43
764.954	8.45
765.27	8.47
765.585	8.46
765.901	8.5
766.216	8.5
766.532	8.51
766.848	8.53
767.163	8.57
767.478	8.56
767.794	8.6
768.109	8.59
768.424	8.58
768.74	8.59
769.055	8.57
769.37	8.57
769.685	8.57
770	8.6
770.315	8.61
770.63	8.62
770.945	8.61
771.26	8.63
771.575	8.65
771.89	8.68
772.205	8.69
772.52	8.7
772.834	8.72
773.149	8.75
773.464	8.75
773.778	8.75
774.093	8.73
774.407	8.74
774.722	8.74
775.036	8.73
775.351	8.74
775.665	8.77
775.979	8.79
776.293	8.8
776.608	8.86
776.922	8.87
777.236	8.87
777.55	8.9
777.864	8.93
778.178	8.92
778.492	8.95
778.806	8.89
779.12	8.88
779.434	8.9
779.747	8.91
780.061	8.9
780.375	8.92
780.689	8.93
781.002	8.94
781.316	8.98
781.629	8.98
781.943	9.03
782.256	9.07
782.57	9.06
782.883	9.06
783.196	9.06
783.51	9.1
783.823	9.13
784.136	9.12
784.449	9.12
784.762	9.1
785.075	9.13
785.388	9.15
785.701	9.15
786.014	9.18
786.327	9.22
786.64	9.23
786.953	9.28
787.266	9.29
787.578	9.33
787.891	9.37
788.204	9.35
788.516	9.33
788.829	9.39
789.141	9.42
789.454	9.43
789.766	9.46
790.079	9.5
790.391	9.47
790.703	9.46
791.016	9.49
791.328	9.47
791.64	9.52
791.952	9.53
792.264	9.54
792.576	9.5
792.888	9.5
793.2	9.58
793.512	9.6
793.824	9.65
794.136	9.63
794.448	9.63
794.76	9.66
795.071	9.68
795.383	9.73
795.695	9.77
796.006	9.75
796.318	9.72
796.629	9.74
796.941	9.81
797.252	9.8
797.564	9.83
797.875	9.78
798.186	9.82
798.497	9.81
798.809	9.76
799.12	9.75
799.431	9.83
799.742	9.84
800.053	9.85
800.364	9.85
800.675	9.84
800.986	9.86
801.297	9.89
801.608	9.88
801.918	9.9
802.229	9.85
802.54	9.83
802.851	9.85
803.161	9.89
803.472	9.92
803.782	9.91
804.093	9.98
804.403	9.99
804.714	10.03
805.024	10.07
805.334	10.1
805.645	10.1
805.955	10.06
806.265	10.08
806.575	10.06
806.885	10.1
807.195	10.15
807.505	10.21
807.815	10.25
808.125	10.23
808.435	10.21
808.745	10.21
809.055	10.19
809.365	10.21
809.674	10.17
809.984	10.21
810.294	10.24
810.603	10.3
810.913	10.27
811.222	10.27
811.532	10.25
811.841	10.25
812.151	10.22
812.46	10.19
812.769	10.13
813.079	10.19
813.388	10.28
813.697	10.29
814.006	10.32
814.315	10.29
814.624	10.32
814.933	10.34
815.242	10.4
815.551	10.43
815.86	10.46
816.169	10.47
816.478	10.51
816.786	10.51
817.095	10.49
817.404	10.46
817.712	10.43
818.021	10.43
818.33	10.46
818.638	10.5
818.947	10.48
819.255	10.48
819.563	10.49
819.872	10.51
820.18	10.49
820.488	10.49
820.796	10.49
821.105	10.5
821.413	10.54
821.721	10.58
822.029	10.58
822.337	10.6
822.645	10.6
822.953	10.62
823.26	10.63
823.568	10.65
823.876	10.67
824.184	10.71
824.491	10.73
824.799	10.75
825.107	10.77
825.414	10.8
825.722	10.79
826.029	10.79
826.337	10.8
826.644	10.8
826.951	10.82
827.259	10.81
827.566	10.82
827.873	10.8
828.18	10.81
828.488	10.81
828.795	10.81
829.102	10.8
829.409	10.82
829.716	10.85
830.023	10.88
830.329	10.92
830.636	10.95
830.943	10.97
831.25	10.96
831.557	11
831.863	11.03
832.17	11.04
832.476	11.03
832.783	11.03
833.089	11
833.396	11.03
833.702	11.05
834.009	11.07
834.315	11.09
834.621	11.14
834.928	11.14
835.234	11.17
835.54	11.15
835.846	11.15
836.152	11.12
836.458	11.14
836.764	11.11
837.07	11.08
837.376	11.04
837.682	11.01
837.988	10.95
838.293	10.96
838.599	10.89
838.905	10.87
839.211	10.88
839.516	10.87
839.822	10.91
840.127	10.94
840.433	11
840.738	10.99
841.044	10.97
841.349	10.97
841.654	10.96
841.959	10.95
842.265	10.92
842.57	10.88
842.875	10.86
843.18	10.8
843.485	10.8
843.79	10.86
844.095	10.85
844.4	10.79
844.705	10.89
845.01	10.91
845.315	10.94
845.619	11
845.924	10.97
846.229	10.98
846.533	10.96
846.838	10.9
847.142	10.86
847.447	10.91
847.751	10.94
848.056	11.01
848.36	11.04
848.664	11.06
848.969	11.09
849.273	11.09
849.577	11.1
849.881	11.24
850.185	11.4
850.489	11.43
850.794	11.5
851.097	11.62
851.401	11.66
851.705	11.62
852.009	11.8
852.313	11.74
852.617	11.82
852.92	11.74
853.224	11.85
853.528	11.87
853.831	11.89
854.135	11.97
854.438	11.96
854.742	12.06
855.045	12.13
855.349	12.27
855.652	12.42
855.955	12.48
856.259	12.53
856.562	12.48
856.865	12.76
857.168	12.57
857.471	12.74
857.774	12.93
858.077	13.05
858.38	13.11
858.683	13.1
858.986	13.15
859.289	13.09
859.592	13.09
859.894	12.97
860.197	12.93
860.5	13.03
860.802	13.02
861.105	13.07
861.407	12.96
861.71	12.88
862.012	12.97
862.315	13
862.617	13
862.919	13.15
863.222	13.1
863.524	13.05
863.826	13.13
864.128	13.25
864.43	13.12
864.732	13.26
865.034	13.15
865.336	13.02
865.638	12.92
865.94	13.05
866.242	13.15
866.544	13.29
866.846	13.29
867.147	13.15
867.449	13.2
867.751	13.1
868.052	13.17
868.354	13.27
868.655	13.19
868.957	13.21
869.258	13.1
869.56	13.36
869.861	13.4
870.162	13.38
870.463	13.43
870.765	13.47
871.066	13.63
871.367	13.66
871.668	13.74
871.969	13.71
872.27	13.83
872.571	13.84
872.872	13.74
873.173	13.83
873.473	13.89
873.774	14.03
874.075	14.21
874.376	14.23
874.676	14.23
874.977	14.2
875.277	14.25
875.578	14.31
875.878	14.38
876.179	14.4
876.479	14.33
876.78	14.31
877.08	14.29
877.38	14.31
877.68	14.57
877.981	14.57
878.281	14.51
878.581	14.55
