Data from UWBM59058_Reflection_00003.txt Node
Date: Sun May 02 12:56:57 EDT 2021
User: vgr7
Spectrometer: USB2G7710
Scans to average: 10
Trigger mode: 4
Integration Time (sec): 1.000000E-1
Electric dark correction enabled: true
Boxcar width: 20
XAxis mode: Wavelengths
Number of Pixels in Spectrum: 2048
>>>>>Begin Spectral Data<<<<<
177.721	101.85
178.105	101.29
178.488	100.88
178.871	101.53
179.254	102.55
179.636	100.64
180.019	99.83
180.402	99.66
180.785	96.82
181.168	94.8
181.55	91.6
181.933	109.06
182.316	111.2
182.698	113.89
183.081	115.52
183.463	116.81
183.846	118.9
184.228	119.61
184.611	121.11
184.993	125.15
185.376	127.91
185.758	-95.16
186.14	-41.71
186.522	-6.7
186.904	6.49
187.287	14.7
187.669	18.73
188.051	16.85
188.433	19.68
188.815	16.92
189.197	16.98
189.579	14.39
189.961	14.04
190.342	12.41
190.724	14.68
191.106	14.88
191.488	16.65
191.869	11.7
192.251	12.2
192.633	7.76
193.014	4.88
193.396	4.59
193.777	11.56
194.159	10.88
194.54	8.78
194.922	7.31
195.303	8.14
195.684	9.52
196.065	9.04
196.447	8.06
196.828	7.17
197.209	9.06
197.59	-2.04
197.971	-2.82
198.352	-0.5
198.733	3.07
199.114	2.34
199.495	2.74
199.876	1.38
200.257	-0.61
200.638	-0.27
201.018	-7.38
201.399	-9.93
201.78	-9.89
202.16	-10.85
202.541	-9.14
202.922	-10.17
203.302	-13.52
203.683	-12.63
204.063	-14.4
204.444	-14.19
204.824	-12.34
205.204	-8.94
205.585	0.28
205.965	0.38
206.345	1.29
206.725	-6.43
207.106	-6.1
207.486	-6.15
207.866	-5.48
208.246	-5.59
208.626	-1.18
209.006	3.5
209.386	-1.35
209.766	-0.57
210.145	-1.21
210.525	-1.85
210.905	0.15
211.285	1.02
211.664	-0.69
212.044	-0.17
212.424	-0.73
212.803	-6.15
213.183	-2.89
213.562	-3.02
213.942	-3.78
214.321	-6.64
214.701	-7.67
215.08	-6.82
215.459	-5.97
215.838	-6.3
216.218	-6.13
216.597	-7.18
216.976	-11.37
217.355	-12.41
217.734	-13.21
218.113	-13.88
218.492	-11.7
218.871	-10.31
219.25	-10.44
219.629	-10.26
220.008	-10.26
220.387	-9.82
220.766	-8.75
221.144	-9.08
221.523	-6.87
221.902	-5.18
222.28	-2.18
222.659	-0.9
223.037	-0.24
223.416	0.85
223.794	2.12
224.173	1.28
224.551	1.43
224.929	1.87
225.308	3.59
225.686	3.86
226.064	4.48
226.442	4.2
226.821	3.81
227.199	3.6
227.577	3.14
227.955	2.73
228.333	2.56
228.711	2.83
229.089	3.57
229.467	2.88
229.845	3.57
230.222	4.01
230.6	4.69
230.978	4.94
231.356	4.55
231.733	4.59
232.111	4.64
232.488	4.89
232.866	5.07
233.243	4.91
233.621	5.04
233.998	4.8
234.376	4.86
234.753	4.97
235.13	5.12
235.508	5.81
235.885	5.93
236.262	5.88
236.639	5.86
237.016	5.78
237.393	5.64
237.77	5.36
238.147	5.25
238.524	5.29
238.901	5.29
239.278	5.32
239.655	5.34
240.032	5.16
240.409	5.22
240.785	5.13
241.162	5.22
241.539	5.16
241.915	5.18
242.292	5.14
242.668	5.08
243.045	5.09
243.421	5
243.798	4.99
244.174	4.97
244.551	4.88
244.927	4.77
245.303	4.7
245.679	4.73
246.056	4.64
246.432	4.6
246.808	4.38
247.184	4.39
247.56	4.36
247.936	4.38
248.312	4.4
248.688	4.46
249.064	4.43
249.44	4.38
249.815	4.4
250.191	4.36
250.567	4.34
250.943	4.4
251.318	4.41
251.694	4.36
252.069	4.32
252.445	4.31
252.82	4.41
253.196	4.44
253.571	4.4
253.947	4.48
254.322	4.43
254.697	4.58
255.073	4.55
255.448	4.56
255.823	4.51
256.198	4.45
256.573	4.26
256.948	4.25
257.323	4.26
257.698	4.21
258.073	4.23
258.448	4.09
258.823	4.07
259.198	4.05
259.573	4.07
259.948	4.13
260.322	4.09
260.697	4.08
261.072	4.07
261.446	4.06
261.821	4.04
262.195	4.02
262.57	3.99
262.944	3.98
263.319	3.97
263.693	3.97
264.067	3.99
264.442	4.09
264.816	4.09
265.19	4.07
265.564	4.12
265.938	4.07
266.313	4.13
266.687	4.08
267.061	4.08
267.435	4.07
267.809	4.06
268.183	4.03
268.556	4.05
268.93	4.05
269.304	4.03
269.678	4
270.051	3.98
270.425	3.99
270.799	4.01
271.172	4.02
271.546	4.01
271.919	4.02
272.293	3.99
272.666	3.97
273.04	3.99
273.413	3.92
273.787	3.92
274.16	3.93
274.533	3.96
274.906	3.94
275.279	3.97
275.653	3.95
276.026	3.95
276.399	3.9
276.772	3.89
277.145	3.92
277.518	3.93
277.891	3.95
278.263	3.98
278.636	3.97
279.009	3.99
279.382	3.97
279.755	3.9
280.127	3.92
280.5	3.91
280.872	3.9
281.245	4.02
281.617	4.04
281.99	4.06
282.362	4.1
282.735	4.08
283.107	4.07
283.479	4.09
283.852	4.1
284.224	4.12
284.596	4.1
284.968	3.99
285.34	3.98
285.713	3.95
286.085	3.85
286.457	3.86
286.829	3.84
287.201	3.84
287.572	3.9
287.944	3.92
288.316	3.95
288.688	3.98
289.06	3.98
289.431	3.98
289.803	3.98
290.175	3.98
290.546	3.97
290.918	3.98
291.289	3.96
291.661	3.98
292.032	3.94
292.403	3.95
292.775	4.05
293.146	4.05
293.517	4.06
293.889	4.14
294.26	4.13
294.631	4.14
295.002	4.19
295.373	4.23
295.744	4.22
296.115	4.21
296.486	4.14
296.857	4.14
297.228	4.12
297.599	4.11
297.97	4.11
298.34	4.13
298.711	4.07
299.082	4.06
299.452	4.1
299.823	4.13
300.194	4.13
300.564	4.12
300.935	4.13
301.305	4.13
301.676	4.1
302.046	4.11
302.416	4.1
302.787	4.1
303.157	4.02
303.527	4.02
303.897	4.02
304.267	4.01
304.637	4.01
305.008	4.02
305.378	4.04
305.748	4.03
306.117	4.08
306.487	4.13
306.857	4.17
307.227	4.17
307.597	4.16
307.967	4.14
308.336	4.15
308.706	4.17
309.076	4.17
309.445	4.16
309.815	4.05
310.184	4.04
310.554	3.98
310.923	4.01
311.293	4.03
311.662	4.03
312.031	4.01
312.401	4
312.77	3.97
313.139	3.95
313.508	3.98
313.877	3.93
314.246	3.91
314.616	3.88
314.985	3.82
315.353	3.84
315.722	3.84
316.091	3.84
316.46	3.83
316.829	3.86
317.198	3.87
317.567	4.01
317.935	4.01
318.304	4.05
318.672	4.08
319.041	4.07
319.41	4.1
319.778	4.12
320.147	4.13
320.515	4.12
320.883	4.12
321.252	4.05
321.62	4.09
321.988	4.09
322.357	4.09
322.725	4.16
323.093	4.16
323.461	4.16
323.829	4.17
324.197	4.16
324.565	4.15
324.933	4.17
325.301	4.15
325.669	4.16
326.037	4.17
326.405	4.12
326.772	4.11
327.14	4.09
327.508	4.09
327.875	4.09
328.243	4.1
328.61	4.05
328.978	4.05
329.346	4.05
329.713	4.02
330.08	4.02
330.448	4.01
330.815	3.98
331.182	3.99
331.55	3.99
331.917	4.01
332.284	4.01
332.651	4.01
333.018	4.01
333.385	4.01
333.752	4.02
334.119	4.03
334.486	4.03
334.853	4.01
335.22	4.02
335.587	4.01
335.954	4.02
336.32	4.03
336.687	4.03
337.054	4.04
337.42	4.06
337.787	4.05
338.153	4.07
338.52	4.1
338.886	4.13
339.253	4.11
339.619	4.09
339.986	4.06
340.352	4.06
340.718	4.07
341.084	4.06
341.451	4.06
341.817	4.05
342.183	4.05
342.549	4.07
342.915	4.07
343.281	4.08
343.647	4.09
344.013	4.11
344.379	4.12
344.745	4.13
345.11	4.14
345.476	4.15
345.842	4.16
346.208	4.14
346.573	4.13
346.939	4.14
347.304	4.13
347.67	4.13
348.035	4.15
348.401	4.14
348.766	4.16
349.132	4.16
349.497	4.18
349.862	4.18
350.228	4.2
350.593	4.21
350.958	4.2
351.323	4.19
351.688	4.2
352.053	4.19
352.418	4.19
352.783	4.18
353.148	4.17
353.513	4.16
353.878	4.16
354.243	4.16
354.608	4.16
354.972	4.16
355.337	4.15
355.702	4.13
356.066	4.14
356.431	4.12
356.795	4.13
357.16	4.11
357.524	4.1
357.889	4.09
358.253	4.09
358.618	4.1
358.982	4.11
359.346	4.11
359.71	4.11
360.075	4.11
360.439	4.11
360.803	4.1
361.167	4.1
361.531	4.11
361.895	4.11
362.259	4.11
362.623	4.11
362.987	4.09
363.351	4.1
363.714	4.1
364.078	4.09
364.442	4.09
364.806	4.11
365.169	4.09
365.533	4.07
365.896	4.07
366.26	4.07
366.623	4.07
366.987	4.06
367.35	4.06
367.714	4.06
368.077	4.07
368.44	4.06
368.803	4.06
369.167	4.07
369.53	4.07
369.893	4.08
370.256	4.09
370.619	4.1
370.982	4.1
371.345	4.09
371.708	4.1
372.071	4.1
372.434	4.11
372.797	4.13
373.159	4.15
373.522	4.14
373.885	4.13
374.247	4.11
374.61	4.11
374.973	4.11
375.335	4.1
375.698	4.1
376.06	4.1
376.423	4.09
376.785	4.09
377.147	4.09
377.51	4.1
377.872	4.1
378.234	4.1
378.596	4.12
378.958	4.14
379.321	4.14
379.683	4.13
380.045	4.13
380.407	4.13
380.769	4.13
381.13	4.13
381.492	4.14
381.854	4.14
382.216	4.14
382.578	4.14
382.939	4.15
383.301	4.15
383.663	4.15
384.024	4.14
384.386	4.14
384.747	4.14
385.109	4.13
385.47	4.13
385.832	4.14
386.193	4.13
386.554	4.12
386.916	4.13
387.277	4.12
387.638	4.14
387.999	4.14
388.36	4.14
388.721	4.14
389.082	4.14
389.443	4.15
389.804	4.15
390.165	4.16
390.526	4.16
390.887	4.15
391.248	4.15
391.609	4.16
391.969	4.16
392.33	4.17
392.691	4.17
393.051	4.18
393.412	4.16
393.772	4.17
394.133	4.17
394.493	4.17
394.854	4.17
395.214	4.16
395.574	4.16
395.935	4.16
396.295	4.15
396.655	4.16
397.015	4.16
397.376	4.15
397.736	4.16
398.096	4.16
398.456	4.16
398.816	4.18
399.176	4.17
399.535	4.17
399.895	4.18
400.255	4.17
400.615	4.17
400.975	4.19
401.334	4.19
401.694	4.19
402.054	4.19
402.413	4.17
402.773	4.17
403.132	4.18
403.492	4.18
403.851	4.18
404.211	4.18
404.57	4.19
404.929	4.2
405.288	4.21
405.648	4.22
406.007	4.22
406.366	4.22
406.725	4.23
407.084	4.23
407.443	4.23
407.802	4.22
408.161	4.22
408.52	4.22
408.879	4.23
409.238	4.23
409.596	4.23
409.955	4.25
410.314	4.25
410.673	4.25
411.031	4.26
411.39	4.27
411.748	4.28
412.107	4.29
412.465	4.31
412.824	4.33
413.182	4.36
413.54	4.38
413.899	4.41
414.257	4.44
414.615	4.49
414.974	4.52
415.332	4.57
415.69	4.62
416.048	4.64
416.406	4.69
416.764	4.73
417.122	4.77
417.48	4.8
417.838	4.84
418.195	4.87
418.553	4.89
418.911	4.91
419.269	4.91
419.626	4.91
419.984	4.9
420.342	4.89
420.699	4.87
421.057	4.85
421.414	4.84
421.772	4.83
422.129	4.82
422.486	4.82
422.844	4.82
423.201	4.82
423.558	4.82
423.915	4.82
424.273	4.82
424.63	4.82
424.987	4.82
425.344	4.82
425.701	4.82
426.058	4.83
426.415	4.83
426.772	4.82
427.128	4.82
427.485	4.81
427.842	4.81
428.199	4.8
428.555	4.78
428.912	4.76
429.269	4.74
429.625	4.72
429.982	4.69
430.338	4.66
430.695	4.64
431.051	4.6
431.407	4.58
431.764	4.57
432.12	4.54
432.476	4.54
432.832	4.53
433.189	4.53
433.545	4.54
433.901	4.55
434.257	4.58
434.613	4.61
434.969	4.63
435.325	4.67
435.681	4.71
436.036	4.72
436.392	4.75
436.748	4.76
437.104	4.76
437.459	4.78
437.815	4.8
438.171	4.83
438.526	4.85
438.882	4.89
439.237	4.93
439.593	4.97
439.948	5
440.304	5.04
440.659	5.07
441.014	5.09
441.369	5.12
441.725	5.14
442.08	5.16
442.435	5.17
442.79	5.18
443.145	5.18
443.5	5.18
443.855	5.18
444.21	5.18
444.565	5.18
444.92	5.17
445.275	5.16
445.629	5.15
445.984	5.14
446.339	5.14
446.693	5.13
447.048	5.11
447.403	5.1
447.757	5.07
448.112	5.06
448.466	5.03
448.82	5.01
449.175	4.99
449.529	4.98
449.883	4.96
450.238	4.93
450.592	4.93
450.946	4.93
451.3	4.93
451.654	4.94
452.008	4.94
452.362	4.95
452.716	4.95
453.07	4.96
453.424	4.95
453.778	4.94
454.132	4.92
454.486	4.91
454.839	4.89
455.193	4.87
455.547	4.85
455.9	4.82
456.254	4.8
456.607	4.76
456.961	4.73
457.314	4.71
457.668	4.7
458.021	4.7
458.375	4.69
458.728	4.7
459.081	4.7
459.434	4.71
459.787	4.72
460.141	4.73
460.494	4.73
460.847	4.74
461.2	4.74
461.553	4.75
461.906	4.76
462.259	4.76
462.611	4.77
462.964	4.77
463.317	4.78
463.67	4.78
464.022	4.78
464.375	4.78
464.728	4.78
465.08	4.78
465.433	4.78
465.785	4.77
466.138	4.76
466.49	4.74
466.843	4.72
467.195	4.69
467.547	4.67
467.899	4.64
468.252	4.61
468.604	4.58
468.956	4.56
469.308	4.54
469.66	4.54
470.012	4.53
470.364	4.53
470.716	4.53
471.068	4.55
471.42	4.58
471.772	4.59
472.123	4.61
472.475	4.62
472.827	4.63
473.178	4.64
473.53	4.65
473.882	4.66
474.233	4.69
474.585	4.73
474.936	4.79
475.288	4.89
475.639	5.02
475.99	5.18
476.342	5.35
476.693	5.53
477.044	5.72
477.395	5.91
477.746	6.11
478.097	6.3
478.448	6.5
478.8	6.7
479.15	6.88
479.501	7.05
479.852	7.2
480.203	7.34
480.554	7.47
480.905	7.61
481.255	7.73
481.606	7.85
481.957	7.96
482.307	8.07
482.658	8.18
483.009	8.27
483.359	8.37
483.709	8.46
484.06	8.54
484.41	8.63
484.761	8.71
485.111	8.8
485.461	8.87
485.811	8.94
486.162	9
486.512	9.06
486.862	9.1
487.212	9.13
487.562	9.16
487.912	9.17
488.262	9.17
488.612	9.17
488.961	9.15
489.311	9.1
489.661	9.03
490.011	8.92
490.36	8.8
490.71	8.65
491.06	8.49
491.409	8.33
491.759	8.16
492.108	7.99
492.458	7.81
492.807	7.62
493.157	7.43
493.506	7.25
493.855	7.07
494.204	6.91
494.554	6.76
494.903	6.62
495.252	6.48
495.601	6.35
495.95	6.22
496.299	6.1
496.648	5.99
496.997	5.88
497.346	5.78
497.695	5.67
498.043	5.58
498.392	5.49
498.741	5.4
499.09	5.31
499.438	5.22
499.787	5.15
500.135	5.07
500.484	5.01
500.832	4.95
501.181	4.91
501.529	4.87
501.878	4.85
502.226	4.84
502.574	4.83
502.923	4.83
503.271	4.82
503.619	4.83
503.967	4.82
504.315	4.82
504.663	4.81
505.011	4.8
505.359	4.8
505.707	4.79
506.055	4.79
506.403	4.79
506.751	4.78
507.098	4.78
507.446	4.79
507.794	4.8
508.141	4.81
508.489	4.83
508.837	4.84
509.184	4.85
509.531	4.87
509.879	4.88
510.226	4.89
510.574	4.91
510.921	4.92
511.268	4.94
511.616	4.96
511.963	4.98
512.31	5
512.657	5.02
513.004	5.04
513.351	5.06
513.698	5.06
514.045	5.06
514.392	5.07
514.739	5.07
515.086	5.07
515.432	5.06
515.779	5.06
516.126	5.06
516.473	5.06
516.819	5.06
517.166	5.07
517.512	5.08
517.859	5.09
518.205	5.11
518.552	5.13
518.898	5.17
519.245	5.22
519.591	5.27
519.937	5.35
520.283	5.45
520.629	5.56
520.976	5.68
521.322	5.81
521.668	5.94
522.014	6.07
522.36	6.19
522.706	6.32
523.052	6.44
523.398	6.55
523.743	6.65
524.089	6.74
524.435	6.81
524.781	6.88
525.126	6.94
525.472	7
525.817	7.06
526.163	7.11
526.509	7.17
526.854	7.22
527.199	7.26
527.545	7.31
527.89	7.37
528.235	7.42
528.581	7.47
528.926	7.51
529.271	7.56
529.616	7.6
529.961	7.63
530.306	7.66
530.651	7.69
530.996	7.71
531.341	7.72
531.686	7.72
532.031	7.71
532.376	7.72
532.721	7.72
533.065	7.72
533.41	7.72
533.755	7.72
534.099	7.68
534.444	7.65
534.788	7.61
535.133	7.57
535.477	7.52
535.822	7.46
536.166	7.39
536.51	7.32
536.855	7.24
537.199	7.15
537.543	7.06
537.887	6.98
538.231	6.91
538.576	6.85
538.92	6.79
539.264	6.73
539.608	6.67
539.951	6.6
540.295	6.53
540.639	6.46
540.983	6.39
541.327	6.34
541.671	6.27
542.014	6.21
542.358	6.14
542.701	6.1
543.045	6.06
543.389	6.03
543.732	6.01
544.075	5.99
544.419	5.98
544.762	5.95
545.105	5.93
545.449	5.93
545.792	5.92
546.135	5.92
546.478	5.9
546.821	5.88
547.165	5.84
547.508	5.79
547.851	5.74
548.194	5.68
548.536	5.61
548.879	5.54
549.222	5.46
549.565	5.38
549.908	5.3
550.25	5.23
550.593	5.16
550.936	5.11
551.278	5.07
551.621	5.04
551.963	5.01
552.306	4.99
552.648	4.97
552.991	4.95
553.333	4.93
553.675	4.92
554.017	4.92
554.36	4.93
554.702	4.94
555.044	4.95
555.386	4.96
555.728	4.97
556.07	4.98
556.412	4.99
556.754	5
557.096	4.99
557.438	5
557.78	5
558.121	4.99
558.463	5
558.805	5
559.147	5
559.488	5
559.83	5.01
560.171	5.02
560.513	5.01
560.854	5.01
561.196	5
561.537	5.01
561.878	5.01
562.22	5.01
562.561	5.01
562.902	5.02
563.243	5.03
563.584	5.03
563.925	5.04
564.266	5.04
564.607	5.04
564.948	5.04
565.289	5.05
565.63	5.05
565.971	5.05
566.312	5.06
566.653	5.06
566.993	5.06
567.334	5.06
567.675	5.07
568.015	5.07
568.356	5.07
568.696	5.08
569.037	5.08
569.377	5.08
569.718	5.09
570.058	5.09
570.398	5.09
570.739	5.09
571.079	5.09
571.419	5.09
571.759	5.1
572.099	5.1
572.439	5.09
572.779	5.1
573.119	5.09
573.459	5.08
573.799	5.09
574.139	5.09
574.479	5.1
574.819	5.09
575.158	5.09
575.498	5.09
575.838	5.09
576.177	5.08
576.517	5.09
576.856	5.08
577.196	5.08
577.535	5.07
577.875	5.08
578.214	5.07
578.553	5.08
578.893	5.07
579.232	5.07
579.571	5.07
579.91	5.06
580.25	5.05
580.589	5.05
580.928	5.04
581.267	5.04
581.606	5.04
581.945	5.04
582.283	5.04
582.622	5.05
582.961	5.05
583.3	5.05
583.639	5.05
583.977	5.05
584.316	5.05
584.654	5.06
584.993	5.06
585.332	5.06
585.67	5.05
586.008	5.05
586.347	5.06
586.685	5.06
587.024	5.07
587.362	5.07
587.7	5.08
588.038	5.08
588.376	5.07
588.715	5.08
589.053	5.09
589.391	5.09
589.729	5.09
590.067	5.09
590.404	5.1
590.742	5.1
591.08	5.1
591.418	5.11
591.756	5.11
592.093	5.12
592.431	5.13
592.769	5.14
593.106	5.14
593.444	5.15
593.781	5.14
594.119	5.15
594.456	5.15
594.793	5.15
595.131	5.15
595.468	5.16
595.805	5.15
596.143	5.16
596.48	5.15
596.817	5.16
597.154	5.17
597.491	5.17
597.828	5.17
598.165	5.18
598.502	5.18
598.839	5.18
599.176	5.18
599.512	5.18
599.849	5.19
600.186	5.19
600.523	5.19
600.859	5.19
601.196	5.2
601.532	5.2
601.869	5.21
602.205	5.21
602.542	5.21
602.878	5.21
603.215	5.2
603.551	5.2
603.887	5.2
604.223	5.2
604.56	5.21
604.896	5.21
605.232	5.21
605.568	5.21
605.904	5.21
606.24	5.21
606.576	5.21
606.912	5.21
607.248	5.21
607.583	5.21
607.919	5.21
608.255	5.2
608.591	5.21
608.926	5.21
609.262	5.21
609.597	5.22
609.933	5.22
610.268	5.23
610.604	5.24
610.939	5.24
611.275	5.23
611.61	5.23
611.945	5.22
612.281	5.23
612.616	5.22
612.951	5.21
613.286	5.21
613.621	5.2
613.956	5.2
614.291	5.2
614.626	5.2
614.961	5.2
615.296	5.2
615.631	5.2
615.966	5.2
616.3	5.21
616.635	5.21
616.97	5.21
617.304	5.2
617.639	5.2
617.973	5.2
618.308	5.19
618.642	5.18
618.977	5.18
619.311	5.18
619.646	5.18
619.98	5.19
620.314	5.2
620.648	5.21
620.983	5.21
621.317	5.21
621.651	5.22
621.985	5.21
622.319	5.21
622.653	5.21
622.987	5.22
623.321	5.2
623.655	5.21
623.988	5.22
624.322	5.22
624.656	5.22
624.99	5.23
625.323	5.23
625.657	5.24
625.99	5.25
626.324	5.26
626.657	5.26
626.991	5.27
627.324	5.27
627.658	5.27
627.991	5.27
628.324	5.27
628.657	5.27
628.991	5.28
629.324	5.29
629.657	5.31
629.99	5.31
630.323	5.32
630.656	5.32
630.989	5.32
631.322	5.32
631.655	5.32
631.987	5.32
632.32	5.32
632.653	5.33
632.986	5.34
633.318	5.34
633.651	5.33
633.984	5.34
634.316	5.34
634.649	5.34
634.981	5.34
635.313	5.35
635.646	5.35
635.978	5.35
636.31	5.35
636.643	5.34
636.975	5.35
637.307	5.34
637.639	5.34
637.971	5.35
638.303	5.35
638.635	5.35
638.967	5.35
639.299	5.35
639.631	5.36
639.963	5.37
640.295	5.38
640.626	5.39
640.958	5.39
641.29	5.4
641.621	5.4
641.953	5.41
642.285	5.42
642.616	5.43
642.948	5.42
643.279	5.44
643.61	5.44
643.942	5.43
644.273	5.44
644.604	5.44
644.936	5.44
645.267	5.44
645.598	5.46
645.929	5.46
646.26	5.46
646.591	5.45
646.922	5.45
647.253	5.46
647.584	5.45
647.915	5.46
648.245	5.47
648.576	5.47
648.907	5.46
649.238	5.46
649.568	5.46
649.899	5.45
650.229	5.47
650.56	5.49
650.89	5.51
651.221	5.5
651.551	5.51
651.882	5.51
652.212	5.51
652.542	5.51
652.872	5.51
653.203	5.52
653.533	5.52
653.863	5.51
654.193	5.5
654.523	5.51
654.853	5.51
655.183	5.51
655.513	5.52
655.843	5.52
656.172	5.53
656.502	5.53
656.832	5.51
657.162	5.52
657.491	5.51
657.821	5.51
658.15	5.5
658.48	5.49
658.809	5.49
659.139	5.49
659.468	5.5
659.798	5.51
660.127	5.51
660.456	5.54
660.785	5.55
661.115	5.57
661.444	5.57
661.773	5.58
662.102	5.58
662.431	5.59
662.76	5.59
663.089	5.59
663.418	5.6
663.747	5.59
664.076	5.6
664.404	5.59
664.733	5.61
665.062	5.62
665.39	5.63
665.719	5.64
666.048	5.64
666.376	5.63
666.705	5.63
667.033	5.61
667.362	5.61
667.69	5.63
668.018	5.61
668.347	5.61
668.675	5.59
669.003	5.6
669.331	5.59
669.659	5.59
669.987	5.6
670.315	5.6
670.643	5.62
670.971	5.63
671.299	5.64
671.627	5.64
671.955	5.64
672.283	5.65
672.61	5.66
672.938	5.68
673.266	5.69
673.593	5.69
673.921	5.7
674.249	5.7
674.576	5.71
674.904	5.72
675.231	5.73
675.558	5.75
675.886	5.76
676.213	5.76
676.54	5.77
676.867	5.78
677.195	5.8
677.522	5.81
677.849	5.83
678.176	5.83
678.503	5.85
678.83	5.85
679.157	5.86
679.484	5.86
679.81	5.85
680.137	5.86
680.464	5.86
680.791	5.86
681.117	5.86
681.444	5.86
681.771	5.86
682.097	5.87
682.424	5.87
682.75	5.86
683.077	5.87
683.403	5.87
683.729	5.87
684.056	5.87
684.382	5.86
684.708	5.86
685.034	5.87
685.36	5.87
685.686	5.88
686.012	5.89
686.339	5.91
686.664	5.92
686.99	5.93
687.316	5.94
687.642	5.96
687.968	5.99
688.294	6
688.619	5.99
688.945	6
689.271	6.01
689.596	6.02
689.922	6.05
690.247	6.05
690.573	6.05
690.898	6.07
691.224	6.07
691.549	6.08
691.874	6.05
692.2	6.06
692.525	6.07
692.85	6.06
693.175	6.07
693.5	6.1
693.825	6.1
694.15	6.09
694.475	6.1
694.8	6.1
695.125	6.11
695.45	6.14
695.775	6.13
696.099	6.12
696.424	6.13
696.749	6.13
697.073	6.15
697.398	6.15
697.723	6.16
698.047	6.15
698.372	6.17
698.696	6.17
699.02	6.17
699.345	6.17
699.669	6.17
699.993	6.16
700.318	6.15
700.642	6.15
700.966	6.14
701.29	6.14
701.614	6.15
701.938	6.14
702.262	6.16
702.586	6.16
702.91	6.16
703.234	6.17
703.557	6.16
703.881	6.15
704.205	6.17
704.529	6.2
704.852	6.18
705.176	6.21
705.499	6.23
705.823	6.25
706.146	6.26
706.47	6.26
706.793	6.26
707.117	6.37
707.44	6.38
707.763	6.36
708.086	6.37
708.409	6.36
708.733	6.36
709.056	6.37
709.379	6.38
709.702	6.4
710.025	6.42
710.348	6.26
710.671	6.27
710.993	6.28
711.316	6.28
711.639	6.28
711.962	6.28
712.284	6.3
712.607	6.31
712.93	6.33
713.252	6.35
713.575	6.35
713.897	6.33
714.22	6.35
714.542	6.4
714.864	6.45
715.187	6.47
715.509	6.46
715.831	6.45
716.153	6.47
716.475	6.45
716.798	6.45
717.12	6.63
717.442	6.64
717.764	6.64
718.085	6.56
718.407	6.57
718.729	6.56
719.051	6.57
719.373	6.57
719.695	6.57
720.016	6.55
720.338	6.49
720.659	6.51
720.981	6.53
721.302	6.53
721.624	6.54
721.945	6.53
722.267	6.52
722.588	6.52
722.909	6.54
723.231	6.57
723.552	6.59
723.873	6.61
724.194	6.6
724.515	6.61
724.836	6.75
725.157	6.75
725.478	6.76
725.799	6.78
726.12	6.78
726.441	6.77
726.762	6.79
727.083	6.78
727.403	6.77
727.724	6.73
728.045	6.67
728.365	6.7
728.686	6.74
729.006	6.74
729.327	6.73
729.647	6.74
729.967	6.74
730.288	6.76
730.608	6.77
730.928	6.77
731.249	6.76
731.569	6.78
731.889	6.77
732.209	6.78
732.529	6.78
732.849	6.81
733.169	6.83
733.489	6.83
733.809	6.84
734.129	6.85
734.448	6.89
734.768	6.89
735.088	6.91
735.408	6.9
735.727	6.91
736.047	6.93
736.366	6.93
736.686	6.93
737.005	6.92
737.325	6.9
737.644	6.91
737.963	6.89
738.283	6.89
738.602	6.89
738.921	6.9
739.24	6.9
739.56	6.93
739.879	6.93
740.198	6.96
740.517	6.96
740.836	6.97
741.155	6.97
741.473	7.01
741.792	7.04
742.111	7.06
742.43	7.09
742.748	7.08
743.067	7.07
743.386	7.09
743.704	7.08
744.023	7.11
744.341	7.12
744.66	7.13
744.978	7.07
745.297	7.1
745.615	7.08
745.933	7.08
746.252	7.07
746.57	7.01
746.888	7.02
747.206	7.01
747.524	6.99
747.842	7.03
748.16	7.04
748.478	7.04
748.796	7.04
749.114	7.01
749.432	7.01
749.749	7.06
750.067	7.07
750.385	7.07
750.703	7.07
751.02	7.07
751.338	7.08
751.655	7.16
751.973	7.14
752.29	7.13
752.608	7.17
752.925	7.16
753.242	7.26
753.56	7.31
753.877	7.28
754.194	7.34
754.511	7.3
754.828	7.28
755.145	7.31
755.462	7.35
755.779	7.36
756.096	7.38
756.413	7.37
756.73	7.35
757.047	7.35
757.364	7.37
757.68	7.42
757.997	7.42
758.314	7.43
758.63	7.45
758.947	7.5
759.264	7.52
759.58	7.52
759.896	7.53
760.213	7.56
760.529	7.56
760.846	7.51
761.162	7.52
761.478	7.52
761.794	7.5
762.11	7.52
762.426	7.55
762.743	7.51
763.059	7.61
763.375	7.65
763.69	7.67
764.006	7.71
764.322	7.73
764.638	7.72
764.954	7.76
765.27	7.77
765.585	7.73
765.901	7.76
766.216	7.63
766.532	7.58
766.848	7.58
767.163	7.62
767.478	7.7
767.794	7.72
768.109	7.74
768.424	7.75
768.74	7.76
769.055	7.77
769.37	7.81
769.685	7.8
770	7.82
770.315	7.83
770.63	7.73
770.945	7.69
771.26	7.7
771.575	7.68
771.89	7.63
772.205	7.65
772.52	7.64
772.834	7.81
773.149	7.84
773.464	7.79
773.778	7.79
774.093	7.82
774.407	7.89
774.722	7.89
775.036	7.88
775.351	7.86
775.665	7.86
775.979	7.71
776.293	7.7
776.608	7.69
776.922	7.65
777.236	7.77
777.55	7.84
777.864	7.87
778.178	7.91
778.492	7.9
778.806	7.87
779.12	7.9
779.434	7.93
779.747	7.93
780.061	8.04
780.375	7.99
780.689	7.96
781.002	7.93
781.316	7.94
781.629	7.97
781.943	8.03
782.256	8.07
782.57	8.15
782.883	8.15
783.196	8.11
783.51	8.19
783.823	8.24
784.136	8.16
784.449	8.19
784.762	8.23
785.075	8.27
785.388	8.26
785.701	8.23
786.014	8.21
786.327	8.29
786.64	8.27
786.953	8.29
787.266	8.3
787.578	8.31
787.891	8.39
788.204	8.36
788.516	8.4
788.829	8.4
789.141	8.37
789.454	8.4
789.766	8.42
790.079	8.41
790.391	8.44
790.703	8.55
791.016	8.43
791.328	8.45
791.64	8.48
791.952	8.5
792.264	8.54
792.576	8.55
792.888	8.56
793.2	8.56
793.512	8.61
793.824	8.58
794.136	8.53
794.448	8.6
794.76	8.63
795.071	8.69
795.383	8.69
795.695	8.78
796.006	8.88
796.318	8.85
796.629	8.86
796.941	8.87
797.252	8.91
797.564	9.01
797.875	8.95
798.186	8.91
798.497	8.93
798.809	8.82
799.12	8.75
799.431	8.77
799.742	8.78
800.053	8.72
800.364	8.81
800.675	8.8
800.986	8.81
801.297	8.92
801.608	8.94
801.918	8.95
802.229	8.96
802.54	8.93
802.851	8.89
803.161	8.87
803.472	8.88
803.782	8.87
804.093	8.92
804.403	8.84
804.714	8.94
805.024	8.95
805.334	9.06
805.645	9.01
805.955	9.08
806.265	9.06
806.575	9.11
806.885	9.06
807.195	9.05
807.505	9.02
807.815	8.92
808.125	8.98
808.435	8.96
808.745	8.97
809.055	9.03
809.365	9.15
809.674	9.23
809.984	9.28
810.294	9.26
810.603	9.26
810.913	9.53
811.222	9.47
811.532	9.56
811.841	9.63
812.151	9.69
812.46	9.69
812.769	9.74
813.079	9.76
813.388	9.78
813.697	9.77
814.006	9.67
814.315	9.78
814.624	9.77
814.933	9.74
815.242	9.69
815.551	9.72
815.86	9.67
816.169	9.63
816.478	9.64
816.786	9.61
817.095	9.59
817.404	9.61
817.712	9.62
818.021	9.52
818.33	9.55
818.638	9.56
818.947	9.5
819.255	9.5
819.563	9.51
819.872	9.52
820.18	9.56
820.488	9.59
820.796	9.54
821.105	9.54
821.413	9.56
821.721	9.59
822.029	9.59
822.337	9.61
822.645	9.59
822.953	9.58
823.26	9.61
823.568	9.62
823.876	9.59
824.184	9.59
824.491	9.58
824.799	9.58
825.107	9.58
825.414	9.59
825.722	9.6
826.029	9.58
826.337	9.59
826.644	9.59
826.951	9.59
827.259	9.63
827.566	9.67
827.873	9.69
828.18	9.67
828.488	9.66
828.795	9.68
829.102	9.66
829.409	9.69
829.716	9.71
830.023	9.7
830.329	9.73
830.636	9.77
830.943	9.85
831.25	9.88
831.557	9.92
831.863	9.93
832.17	9.95
832.476	9.97
832.783	9.93
833.089	9.93
833.396	9.93
833.702	9.89
834.009	9.84
834.315	9.83
834.621	9.92
834.928	9.93
835.234	9.96
835.54	9.95
835.846	10
836.152	9.98
836.458	10.03
836.764	9.97
837.07	10.01
837.376	9.91
837.682	9.81
837.988	9.85
838.293	9.72
838.599	9.81
838.905	9.76
839.211	9.86
839.516	9.9
839.822	9.96
840.127	9.9
840.433	9.95
840.738	9.95
841.044	9.99
841.349	10.01
841.654	10.12
841.959	10.15
842.265	10.14
842.57	10.18
842.875	10.18
843.18	10.37
843.485	10.41
843.79	10.54
844.095	10.66
844.4	10.57
844.705	10.79
845.01	10.76
845.315	10.79
845.619	10.73
845.924	10.55
846.229	10.46
846.533	10.48
846.838	10.52
847.142	10.24
847.447	10.22
847.751	9.99
848.056	10.08
848.36	9.98
848.664	9.91
848.969	9.88
849.273	9.87
849.577	9.67
849.881	9.56
850.185	9.66
850.489	10.11
850.794	10.39
851.097	10.34
851.401	10.46
851.705	10.47
852.009	10.5
852.313	10.48
852.617	10.6
852.92	10.55
853.224	10.47
853.528	10.29
853.831	10.3
854.135	10.13
854.438	10.07
854.742	10.22
855.045	10.26
855.349	10.35
855.652	10.51
855.955	10.56
856.259	10.62
856.562	10.85
856.865	10.81
857.168	10.65
857.471	10.76
857.774	10.87
858.077	10.75
858.38	10.86
858.683	10.85
858.986	10.8
859.289	11.07
859.592	11.29
859.894	11.63
860.197	11.94
860.5	11.81
860.802	12.06
861.105	12.06
861.407	12.23
861.71	12.26
862.012	12.28
862.315	12.51
862.617	12.3
862.919	11.7
863.222	11.67
863.524	11.74
863.826	12.15
864.128	12.42
864.43	12.52
864.732	12.42
865.034	12.65
865.336	12.69
865.638	12.66
865.94	12.61
866.242	12.53
866.544	12.19
866.846	12.53
867.147	12.12
867.449	12
867.751	12.11
868.052	12.12
868.354	11.87
868.655	11.91
868.957	11.99
869.258	12
869.56	12.06
869.861	12.31
870.162	12
870.463	11.91
870.765	11.95
871.066	12.09
871.367	12.06
871.668	12.09
871.969	12.18
872.27	12.12
872.571	12.03
872.872	12.57
873.173	12.32
873.473	12.67
873.774	12.76
874.075	12.66
874.376	12.87
874.676	12.8
874.977	12.86
875.277	12.83
875.578	12.84
875.878	12.48
876.179	12.22
876.479	11.9
876.78	11.86
877.08	11.91
877.38	11.9
877.68	12.05
877.981	12.02
878.281	12
878.581	12.12
