Data from UWBM104549_Reflection_00009.txt Node
Date: Sun May 02 12:25:20 EDT 2021
User: vgr7
Spectrometer: USB2G7710
Scans to average: 10
Trigger mode: 4
Integration Time (sec): 1.000000E-1
Electric dark correction enabled: true
Boxcar width: 10
XAxis mode: Wavelengths
Number of Pixels in Spectrum: 2048
>>>>>Begin Spectral Data<<<<<
177.721	-1674
178.105	-222.86
178.488	-91.59
178.871	-422.45
179.254	89.52
179.636	50.56
180.019	405
180.402	-33.33
180.785	64.04
181.168	55.31
181.55	50.3
181.933	70.11
182.316	86.84
182.698	120.35
183.081	123.84
183.463	181.45
183.846	121.81
184.228	129.64
184.611	142.15
184.993	116.28
185.376	108.35
185.758	97.2
186.14	71.79
186.522	75.7
186.904	69.67
187.287	54.22
187.669	47.83
188.051	42.17
188.433	42.58
188.815	39.39
189.197	40.21
189.579	35.34
189.961	37.05
190.342	39.01
190.724	42.8
191.106	38.23
191.488	38.57
191.869	33.24
192.251	35.36
192.633	31.4
193.014	31.88
193.396	29.56
193.777	35.61
194.159	39.52
194.54	29.06
194.922	28.42
195.303	31.17
195.684	30.87
196.065	31.07
196.447	30.68
196.828	31.66
197.209	30.5
197.59	33.71
197.971	25.32
198.352	25.09
198.733	31.31
199.114	35.36
199.495	33.32
199.876	29.73
200.257	28.43
200.638	29.01
201.018	29.51
201.399	29.84
201.78	27.48
202.16	25.71
202.541	27.71
202.922	30.86
203.302	28.97
203.683	29.92
204.063	34.51
204.444	33.12
204.824	35.83
205.204	35.39
205.585	33.32
205.965	35.59
206.345	32.79
206.725	24.51
207.106	19.09
207.486	20.1
207.866	24.75
208.246	25.06
208.626	27.26
209.006	26.75
209.386	29.24
209.766	29.95
210.145	34.38
210.525	33.32
210.905	31.25
211.285	32.85
211.664	31.47
212.044	31.42
212.424	33.65
212.803	28.42
213.183	29.64
213.562	33.67
213.942	32.1
214.321	29.55
214.701	28.52
215.08	31.9
215.459	29.72
215.838	22.49
216.218	20.43
216.597	16.79
216.976	14.16
217.355	11.29
217.734	10.49
218.113	5.68
218.492	10.73
218.871	16.52
219.25	18.43
219.629	20.44
220.008	19.49
220.387	15.56
220.766	14.41
221.144	13.79
221.523	14.02
221.902	12.61
222.28	16.83
222.659	16.93
223.037	17.88
223.416	18.92
223.794	23.13
224.173	22.81
224.551	23.55
224.929	21.97
225.308	23.2
225.686	24.07
226.064	24.09
226.442	20.71
226.821	18.24
227.199	15.83
227.577	12.9
227.955	11.41
228.333	12.7
228.711	11.53
229.089	11.82
229.467	11.81
229.845	12.89
230.222	11.89
230.6	11.58
230.978	11.73
231.356	10.82
231.733	9.94
232.111	10.62
232.488	9.89
232.866	9.87
233.243	9.27
233.621	8.78
233.998	8.6
234.376	9.07
234.753	9.45
235.13	9.83
235.508	10.84
235.885	10.75
236.262	10.2
236.639	10.96
237.016	10.09
237.393	9.63
237.77	8.68
238.147	8.38
238.524	8.57
238.901	8.4
239.278	8
239.655	7.7
240.032	7.25
240.409	7.42
240.785	7.43
241.162	7.36
241.539	7.14
241.915	6.99
242.292	6.81
242.668	6.37
243.045	6.32
243.421	6.18
243.798	6.16
244.174	6.16
244.551	6.04
244.927	5.96
245.303	5.86
245.679	5.94
246.056	5.87
246.432	5.84
246.808	5.78
247.184	5.83
247.56	5.79
247.936	5.82
248.312	5.73
248.688	5.67
249.064	5.65
249.44	5.66
249.815	5.67
250.191	5.65
250.567	5.67
250.943	5.68
251.318	5.7
251.694	5.61
252.069	5.5
252.445	5.58
252.82	5.63
253.196	5.69
253.571	5.74
253.947	5.88
254.322	5.72
254.697	5.7
255.073	5.63
255.448	5.62
255.823	5.56
256.198	5.42
256.573	5.28
256.948	5.18
257.323	5.18
257.698	5.1
258.073	5.09
258.448	5.12
258.823	5.07
259.198	5.02
259.573	5.03
259.948	5.05
260.322	4.97
260.697	4.96
261.072	4.92
261.446	4.83
261.821	4.8
262.195	4.82
262.57	4.8
262.944	4.83
263.319	4.84
263.693	4.85
264.067	4.86
264.442	4.88
264.816	4.91
265.19	4.87
265.564	4.91
265.938	4.88
266.313	4.83
266.687	4.77
267.061	4.8
267.435	4.81
267.809	4.86
268.183	4.85
268.556	4.83
268.93	4.83
269.304	4.79
269.678	4.71
270.051	4.7
270.425	4.69
270.799	4.65
271.172	4.62
271.546	4.6
271.919	4.62
272.293	4.63
272.666	4.62
273.04	4.6
273.413	4.53
273.787	4.53
274.16	4.58
274.533	4.63
274.906	4.61
275.279	4.62
275.653	4.55
276.026	4.47
276.399	4.46
276.772	4.47
277.145	4.52
277.518	4.59
277.891	4.59
278.263	4.59
278.636	4.64
279.009	4.7
279.382	4.63
279.755	4.62
280.127	4.63
280.5	4.66
280.872	4.61
281.245	4.7
281.617	4.69
281.99	4.65
282.362	4.64
282.735	4.63
283.107	4.6
283.479	4.63
283.852	4.67
284.224	4.67
284.596	4.65
284.968	4.65
285.34	4.65
285.713	4.7
286.085	4.67
286.457	4.66
286.829	4.6
287.201	4.63
287.572	4.67
287.944	4.69
288.316	4.68
288.688	4.75
289.06	4.73
289.431	4.75
289.803	4.74
290.175	4.75
290.546	4.76
290.918	4.78
291.289	4.8
291.661	4.85
292.032	4.87
292.403	4.9
292.775	4.91
293.146	4.89
293.517	4.88
293.889	4.93
294.26	4.94
294.631	5.01
295.002	5.03
295.373	5.05
295.744	5.03
296.115	5.06
296.486	5.05
296.857	5.06
297.228	5.08
297.599	5.11
297.97	5.11
298.34	5.14
298.711	5.16
299.082	5.16
299.452	5.16
299.823	5.2
300.194	5.26
300.564	5.27
300.935	5.32
301.305	5.35
301.676	5.34
302.046	5.34
302.416	5.33
302.787	5.37
303.157	5.43
303.527	5.47
303.897	5.51
304.267	5.55
304.637	5.6
305.008	5.67
305.378	5.69
305.748	5.74
306.117	5.77
306.487	5.81
306.857	5.85
307.227	5.88
307.597	5.9
307.967	5.92
308.336	5.96
308.706	6
309.076	6.04
309.445	6.12
309.815	6.16
310.184	6.19
310.554	6.23
310.923	6.19
311.293	6.25
311.662	6.28
312.031	6.3
312.401	6.33
312.77	6.34
313.139	6.41
313.508	6.43
313.877	6.47
314.246	6.48
314.616	6.52
314.985	6.58
315.353	6.64
315.722	6.7
316.091	6.71
316.46	6.78
316.829	6.86
317.198	6.9
317.567	6.93
317.935	7.03
318.304	7.05
318.672	7.14
319.041	7.17
319.41	7.25
319.778	7.33
320.147	7.4
320.515	7.41
320.883	7.45
321.252	7.48
321.62	7.52
321.988	7.6
322.357	7.67
322.725	7.73
323.093	7.75
323.461	7.75
323.829	7.82
324.197	7.85
324.565	7.86
324.933	7.9
325.301	7.96
325.669	8
326.037	8.05
326.405	8.06
326.772	8.1
327.14	8.12
327.508	8.12
327.875	8.14
328.243	8.21
328.61	8.26
328.978	8.35
329.346	8.36
329.713	8.39
330.08	8.41
330.448	8.43
330.815	8.45
331.182	8.51
331.55	8.55
331.917	8.59
332.284	8.65
332.651	8.67
333.018	8.69
333.385	8.7
333.752	8.73
334.119	8.78
334.486	8.8
334.853	8.83
335.22	8.88
335.587	8.91
335.954	8.95
336.32	8.99
336.687	9.03
337.054	9.07
337.42	9.1
337.787	9.14
338.153	9.18
338.52	9.24
338.886	9.28
339.253	9.3
339.619	9.32
339.986	9.33
340.352	9.35
340.718	9.45
341.084	9.48
341.451	9.51
341.817	9.53
342.183	9.56
342.549	9.6
342.915	9.63
343.281	9.69
343.647	9.72
344.013	9.72
344.379	9.77
344.745	9.81
345.11	9.84
345.476	9.89
345.842	9.92
346.208	9.96
346.573	9.97
346.939	9.99
347.304	10
347.67	9.99
348.035	10.03
348.401	10
348.766	10.03
349.132	10.03
349.497	10.07
349.862	10.09
350.228	10.09
350.593	10.11
350.958	10.1
351.323	10.1
351.688	10.14
352.053	10.1
352.418	10.14
352.783	10.14
353.148	10.15
353.513	10.14
353.878	10.15
354.243	10.14
354.608	10.14
354.972	10.14
355.337	10.17
355.702	10.14
356.066	10.14
356.431	10.12
356.795	10.12
357.16	10.11
357.524	10.1
357.889	10.09
358.253	10.08
358.618	10.07
358.982	10.08
359.346	10.05
359.71	10.05
360.075	10.01
360.439	10.01
360.803	9.98
361.167	9.97
361.531	9.93
361.895	9.93
362.259	9.94
362.623	9.93
362.987	9.93
363.351	9.93
363.714	9.92
364.078	9.89
364.442	9.88
364.806	9.86
365.169	9.85
365.533	9.83
365.896	9.8
366.26	9.79
366.623	9.75
366.987	9.73
367.35	9.7
367.714	9.66
368.077	9.63
368.44	9.61
368.803	9.56
369.167	9.54
369.53	9.5
369.893	9.45
370.256	9.41
370.619	9.36
370.982	9.32
371.345	9.27
371.708	9.25
372.071	9.21
372.434	9.16
372.797	9.11
373.159	9.07
373.522	9.02
373.885	8.98
374.247	8.93
374.61	8.87
374.973	8.82
375.335	8.75
375.698	8.7
376.06	8.64
376.423	8.61
376.785	8.57
377.147	8.49
377.51	8.46
377.872	8.4
378.234	8.35
378.596	8.3
378.958	8.25
379.321	8.22
379.683	8.15
380.045	8.1
380.407	8.06
380.769	8.01
381.13	7.95
381.492	7.9
381.854	7.85
382.216	7.82
382.578	7.78
382.939	7.77
383.301	7.72
383.663	7.67
384.024	7.63
384.386	7.59
384.747	7.56
385.109	7.53
385.47	7.49
385.832	7.46
386.193	7.42
386.554	7.38
386.916	7.34
387.277	7.31
387.638	7.29
387.999	7.25
388.36	7.22
388.721	7.21
389.082	7.17
389.443	7.13
389.804	7.07
390.165	7.04
390.526	7
390.887	6.96
391.248	6.93
391.609	6.91
391.969	6.88
392.33	6.85
392.691	6.81
393.051	6.77
393.412	6.73
393.772	6.7
394.133	6.67
394.493	6.63
394.854	6.6
395.214	6.55
395.574	6.51
395.935	6.47
396.295	6.43
396.655	6.39
397.015	6.34
397.376	6.32
397.736	6.28
398.096	6.23
398.456	6.2
398.816	6.14
399.176	6.09
399.535	6.05
399.895	6.01
400.255	5.98
400.615	5.94
400.975	5.91
401.334	5.86
401.694	5.84
402.054	5.81
402.413	5.77
402.773	5.76
403.132	5.73
403.492	5.7
403.851	5.66
404.211	5.65
404.57	5.64
404.929	5.61
405.288	5.59
405.648	5.57
406.007	5.55
406.366	5.55
406.725	5.53
407.084	5.51
407.443	5.49
407.802	5.48
408.161	5.48
408.52	5.46
408.879	5.46
409.238	5.44
409.596	5.43
409.955	5.42
410.314	5.4
410.673	5.37
411.031	5.37
411.39	5.36
411.748	5.35
412.107	5.34
412.465	5.34
412.824	5.33
413.182	5.33
413.54	5.32
413.899	5.31
414.257	5.3
414.615	5.29
414.974	5.28
415.332	5.27
415.69	5.24
416.048	5.24
416.406	5.23
416.764	5.22
417.122	5.21
417.48	5.2
417.838	5.2
418.195	5.2
418.553	5.19
418.911	5.19
419.269	5.18
419.626	5.17
419.984	5.16
420.342	5.15
420.699	5.13
421.057	5.12
421.414	5.11
421.772	5.1
422.129	5.1
422.486	5.09
422.844	5.08
423.201	5.07
423.558	5.06
423.915	5.04
424.273	5.03
424.63	5.01
424.987	4.99
425.344	4.98
425.701	4.96
426.058	4.95
426.415	4.94
426.772	4.91
427.128	4.89
427.485	4.88
427.842	4.86
428.199	4.85
428.555	4.84
428.912	4.82
429.269	4.81
429.625	4.79
429.982	4.78
430.338	4.77
430.695	4.78
431.051	4.77
431.407	4.76
431.764	4.76
432.12	4.76
432.476	4.76
432.832	4.75
433.189	4.76
433.545	4.75
433.901	4.76
434.257	4.77
434.613	4.76
434.969	4.77
435.325	4.78
435.681	4.79
436.036	4.79
436.392	4.8
436.748	4.8
437.104	4.81
437.459	4.81
437.815	4.81
438.171	4.82
438.526	4.82
438.882	4.83
439.237	4.83
439.593	4.84
439.948	4.84
440.304	4.84
440.659	4.84
441.014	4.85
441.369	4.84
441.725	4.85
442.08	4.85
442.435	4.85
442.79	4.85
443.145	4.85
443.5	4.85
443.855	4.85
444.21	4.84
444.565	4.84
444.92	4.84
445.275	4.84
445.629	4.83
445.984	4.83
446.339	4.82
446.693	4.82
447.048	4.81
447.403	4.81
447.757	4.8
448.112	4.79
448.466	4.78
448.82	4.78
449.175	4.77
449.529	4.75
449.883	4.74
450.238	4.72
450.592	4.71
450.946	4.7
451.3	4.69
451.654	4.68
452.008	4.67
452.362	4.65
452.716	4.64
453.07	4.63
453.424	4.62
453.778	4.61
454.132	4.61
454.486	4.6
454.839	4.6
455.193	4.59
455.547	4.59
455.9	4.6
456.254	4.6
456.607	4.61
456.961	4.63
457.314	4.64
457.668	4.64
458.021	4.65
458.375	4.65
458.728	4.66
459.081	4.67
459.434	4.67
459.787	4.68
460.141	4.68
460.494	4.69
460.847	4.69
461.2	4.7
461.553	4.7
461.906	4.7
462.259	4.7
462.611	4.72
462.964	4.72
463.317	4.72
463.67	4.73
464.022	4.73
464.375	4.73
464.728	4.72
465.08	4.73
465.433	4.74
465.785	4.75
466.138	4.75
466.49	4.75
466.843	4.76
467.195	4.77
467.547	4.78
467.899	4.79
468.252	4.8
468.604	4.82
468.956	4.83
469.308	4.85
469.66	4.86
470.012	4.87
470.364	4.88
470.716	4.89
471.068	4.9
471.42	4.91
471.772	4.93
472.123	4.95
472.475	4.97
472.827	4.98
473.178	4.99
473.53	5
473.882	5.02
474.233	5.03
474.585	5.04
474.936	5.06
475.288	5.07
475.639	5.07
475.99	5.08
476.342	5.09
476.693	5.09
477.044	5.1
477.395	5.1
477.746	5.1
478.097	5.1
478.448	5.13
478.8	5.21
479.15	5.33
479.501	5.48
479.852	5.66
480.203	5.85
480.554	6.04
480.905	6.23
481.255	6.42
481.606	6.61
481.957	6.79
482.307	6.97
482.658	7.12
483.009	7.25
483.359	7.36
483.709	7.46
484.06	7.55
484.41	7.63
484.761	7.71
485.111	7.8
485.461	7.88
485.811	7.95
486.162	7.97
486.512	7.95
486.862	7.91
487.212	7.83
487.562	7.73
487.912	7.61
488.262	7.49
488.612	7.36
488.961	7.21
489.311	7.05
489.661	6.89
490.011	6.73
490.36	6.58
490.71	6.41
491.06	6.24
491.409	6.08
491.759	5.95
492.108	5.84
492.458	5.75
492.807	5.66
493.157	5.58
493.506	5.51
493.855	5.44
494.204	5.38
494.554	5.32
494.903	5.27
495.252	5.22
495.601	5.18
495.95	5.15
496.299	5.12
496.648	5.11
496.997	5.1
497.346	5.12
497.695	5.15
498.043	5.22
498.392	5.31
498.741	5.42
499.09	5.49
499.438	5.55
499.787	5.59
500.135	5.65
500.484	5.71
500.832	5.78
501.181	5.83
501.529	5.89
501.878	5.96
502.226	6.03
502.574	6.11
502.923	6.19
503.271	6.28
503.619	6.37
503.967	6.46
504.315	6.56
504.663	6.67
505.011	6.77
505.359	6.88
505.707	6.99
506.055	7.1
506.403	7.23
506.751	7.34
507.098	7.47
507.446	7.6
507.794	7.72
508.141	7.85
508.489	7.98
508.837	8.11
509.184	8.25
509.531	8.38
509.879	8.52
510.226	8.65
510.574	8.78
510.921	8.92
511.268	9.05
511.616	9.19
511.963	9.32
512.31	9.48
512.657	9.64
513.004	9.8
513.351	9.97
513.698	10.15
514.045	10.33
514.392	10.52
514.739	10.7
515.086	10.88
515.432	11.07
515.779	11.26
516.126	11.43
516.473	11.6
516.819	11.76
517.166	11.92
517.512	12.09
517.859	12.24
518.205	12.39
518.552	12.54
518.898	12.69
519.245	12.84
519.591	12.99
519.937	13.14
520.283	13.29
520.629	13.46
520.976	13.63
521.322	13.8
521.668	13.98
522.014	14.17
522.36	14.37
522.706	14.58
523.052	14.86
523.398	15.23
523.743	15.71
524.089	16.25
524.435	16.81
524.781	17.39
525.126	17.98
525.472	18.56
525.817	19.13
526.163	19.66
526.509	20.16
526.854	20.59
527.199	20.95
527.545	21.24
527.89	21.49
528.235	21.72
528.581	21.96
528.926	22.19
529.271	22.42
529.616	22.64
529.961	22.85
530.306	23.04
530.651	23.15
530.996	23.16
531.341	23.12
531.686	23.01
532.031	22.83
532.376	22.59
532.721	22.29
533.065	21.99
533.41	21.76
533.755	21.53
534.099	21.39
534.444	21.34
534.788	21.37
535.133	21.43
535.477	21.52
535.822	21.62
536.166	21.75
536.51	21.92
536.855	22.12
537.199	22.36
537.543	22.62
537.887	22.92
538.231	23.25
538.576	23.58
538.92	23.96
539.264	24.37
539.608	24.79
539.951	25.2
540.295	25.58
540.639	25.86
540.983	26.11
541.327	26.28
541.671	26.48
542.014	26.71
542.358	26.93
542.701	27.14
543.045	27.34
543.389	27.55
543.732	27.74
544.075	27.92
544.419	28.09
544.762	28.25
545.105	28.39
545.449	28.49
545.792	28.59
546.135	28.67
546.478	28.77
546.821	28.92
547.165	29.14
547.508	29.42
547.851	29.73
548.194	30.12
548.536	30.53
548.879	30.85
549.222	31.11
549.565	31.36
549.908	31.62
550.25	31.89
550.593	32.16
550.936	32.4
551.278	32.67
551.621	32.93
551.963	33.2
552.306	33.46
552.648	33.71
552.991	33.96
553.333	34.21
553.675	34.46
554.017	34.71
554.36	34.93
554.702	35.17
555.044	35.41
555.386	35.63
555.728	35.86
556.07	36.08
556.412	36.3
556.754	36.55
557.096	36.79
557.438	37.03
557.78	37.25
558.121	37.5
558.463	37.73
558.805	37.97
559.147	38.2
559.488	38.41
559.83	38.64
560.171	38.88
560.513	39.1
560.854	39.33
561.196	39.56
561.537	39.79
561.878	40.01
562.22	40.24
562.561	40.49
562.902	40.7
563.243	40.91
563.584	41.12
563.925	41.33
564.266	41.51
564.607	41.69
564.948	41.88
565.289	42.07
565.63	42.25
565.971	42.42
566.312	42.59
566.653	42.8
566.993	42.97
567.334	43.12
567.675	43.29
568.015	43.47
568.356	43.63
568.696	43.83
569.037	44
569.377	44.18
569.718	44.32
570.058	44.47
570.398	44.62
570.739	44.77
571.079	44.91
571.419	45.06
571.759	45.22
572.099	45.34
572.439	45.46
572.779	45.58
573.119	45.69
573.459	45.82
573.799	45.91
574.139	45.98
574.479	46.09
574.819	46.19
575.158	46.27
575.498	46.36
575.838	46.42
576.177	46.48
576.517	46.54
576.856	46.62
577.196	46.71
577.535	46.8
577.875	46.87
578.214	46.95
578.553	47.04
578.893	47.09
579.232	47.17
579.571	47.25
579.91	47.33
580.25	47.39
580.589	47.43
580.928	47.51
581.267	47.62
581.606	47.72
581.945	47.8
582.283	47.89
582.622	47.99
582.961	48.07
583.3	48.17
583.639	48.26
583.977	48.37
584.316	48.46
584.654	48.56
584.993	48.67
585.332	48.76
585.67	48.83
586.008	48.94
586.347	49.03
586.685	49.12
587.024	49.23
587.362	49.31
587.7	49.44
588.038	49.52
588.376	49.61
588.715	49.69
589.053	49.79
589.391	49.87
589.729	49.92
590.067	49.98
590.404	50.05
590.742	50.12
591.08	50.18
591.418	50.25
591.756	50.31
592.093	50.37
592.431	50.43
592.769	50.51
593.106	50.58
593.444	50.64
593.781	50.72
594.119	50.78
594.456	50.87
594.793	50.93
595.131	51.01
595.468	51.05
595.805	51.09
596.143	51.12
596.48	51.15
596.817	51.22
597.154	51.27
597.491	51.33
597.828	51.36
598.165	51.39
598.502	51.43
598.839	51.47
599.176	51.52
599.512	51.56
599.849	51.61
600.186	51.68
600.523	51.73
600.859	51.78
601.196	51.85
601.532	51.9
601.869	51.93
602.205	51.96
602.542	52
602.878	52.06
603.215	52.12
603.551	52.15
603.887	52.2
604.223	52.24
604.56	52.29
604.896	52.35
605.232	52.4
605.568	52.44
605.904	52.49
606.24	52.54
606.576	52.59
606.912	52.62
607.248	52.63
607.583	52.67
607.919	52.68
608.255	52.69
608.591	52.71
608.926	52.73
609.262	52.75
609.597	52.81
609.933	52.84
610.268	52.85
610.604	52.87
610.939	52.87
611.275	52.89
611.61	52.91
611.945	52.91
612.281	52.94
612.616	52.98
612.951	52.99
613.286	53.03
613.621	53.06
613.956	53.1
614.291	53.13
614.626	53.13
614.961	53.15
615.296	53.19
615.631	53.21
615.966	53.27
616.3	53.3
616.635	53.3
616.97	53.3
617.304	53.35
617.639	53.39
617.973	53.43
618.308	53.45
618.642	53.49
618.977	53.51
619.311	53.52
619.646	53.56
619.98	53.6
620.314	53.61
620.648	53.64
620.983	53.67
621.317	53.7
621.651	53.75
621.985	53.77
622.319	53.78
622.653	53.81
622.987	53.84
623.321	53.85
623.655	53.88
623.988	53.94
624.322	53.95
624.656	53.99
624.99	54.02
625.323	54.05
625.657	54.05
625.99	54.09
626.324	54.11
626.657	54.12
626.991	54.11
627.324	54.14
627.658	54.14
627.991	54.14
628.324	54.17
628.657	54.18
628.991	54.23
629.324	54.25
629.657	54.24
629.99	54.23
630.323	54.28
630.656	54.31
630.989	54.32
631.322	54.36
631.655	54.36
631.987	54.37
632.32	54.42
632.653	54.46
632.986	54.48
633.318	54.5
633.651	54.51
633.984	54.56
634.316	54.57
634.649	54.59
634.981	54.63
635.313	54.65
635.646	54.67
635.978	54.68
636.31	54.74
636.643	54.79
636.975	54.83
637.307	54.85
637.639	54.89
637.971	54.9
638.303	54.87
638.635	54.93
638.967	54.97
639.299	54.96
639.631	54.96
639.963	54.97
640.295	54.98
640.626	55.02
640.958	55
641.29	55.03
641.621	55.06
641.953	55.08
642.285	55.07
642.616	55.11
642.948	55.13
643.279	55.1
643.61	55.09
643.942	55.11
644.273	55.12
644.604	55.12
644.936	55.14
645.267	55.17
645.598	55.18
645.929	55.19
646.26	55.21
646.591	55.24
646.922	55.28
647.253	55.32
647.584	55.33
647.915	55.37
648.245	55.35
648.576	55.37
648.907	55.38
649.238	55.41
649.568	55.39
649.899	55.39
650.229	55.43
650.56	55.48
650.89	55.49
651.221	55.5
651.551	55.55
651.882	55.56
652.212	55.6
652.542	55.58
652.872	55.58
653.203	55.61
653.533	55.65
653.863	55.66
654.193	55.68
654.523	55.71
654.853	55.73
655.183	55.78
655.513	55.81
655.843	55.82
656.172	55.9
656.502	55.96
656.832	56.01
657.162	56.01
657.491	56.06
657.821	56.07
658.15	56.09
658.48	56.07
658.809	56.12
659.139	56.12
659.468	56.17
659.798	56.19
660.127	56.21
660.456	56.23
660.785	56.21
661.115	56.21
661.444	56.23
661.773	56.24
662.102	56.26
662.431	56.22
662.76	56.23
663.089	56.2
663.418	56.21
663.747	56.21
664.076	56.25
664.404	56.2
664.733	56.21
665.062	56.27
665.39	56.27
665.719	56.25
666.048	56.27
666.376	56.3
666.705	56.31
667.033	56.3
667.362	56.29
667.69	56.33
668.018	56.38
668.347	56.36
668.675	56.37
669.003	56.4
669.331	56.44
669.659	56.46
669.987	56.48
670.315	56.46
670.643	56.46
670.971	56.47
671.299	56.5
671.627	56.54
671.955	56.54
672.283	56.57
672.61	56.59
672.938	56.58
673.266	56.57
673.593	56.6
673.921	56.64
674.249	56.69
674.576	56.73
674.904	56.72
675.231	56.77
675.558	56.8
675.886	56.79
676.213	56.78
676.54	56.8
676.867	56.83
677.195	56.86
677.522	56.88
677.849	56.85
678.176	56.84
678.503	56.84
678.83	56.79
679.157	56.79
679.484	56.8
679.81	56.83
680.137	56.86
680.464	56.87
680.791	56.88
681.117	56.87
681.444	56.88
681.771	56.9
682.097	56.89
682.424	56.88
682.75	56.91
683.077	56.96
683.403	56.98
683.729	56.97
684.056	56.98
684.382	57.01
684.708	57.05
685.034	57.09
685.36	57.15
685.686	57.22
686.012	57.26
686.339	57.31
686.664	57.34
686.99	57.37
687.316	57.4
687.642	57.41
687.968	57.42
688.294	57.39
688.619	57.42
688.945	57.43
689.271	57.44
689.596	57.44
689.922	57.46
690.247	57.53
690.573	57.59
690.898	57.63
691.224	57.62
691.549	57.63
691.874	57.64
692.2	57.66
692.525	57.68
692.85	57.67
693.175	57.64
693.5	57.66
693.825	57.66
694.15	57.68
694.475	57.65
694.8	57.68
695.125	57.74
695.45	57.73
695.775	57.7
696.099	57.73
696.424	57.73
696.749	57.71
697.073	57.64
697.398	57.6
697.723	57.61
698.047	57.61
698.372	57.63
698.696	57.66
699.02	57.61
699.345	57.58
699.669	57.59
699.993	57.53
700.318	57.49
700.642	57.47
700.966	57.44
701.29	57.45
701.614	57.43
701.938	57.41
702.262	57.38
702.586	57.42
702.91	57.43
703.234	57.41
703.557	57.44
703.881	57.5
704.205	57.53
704.529	57.51
704.852	57.54
705.176	57.58
705.499	57.51
705.823	57.6
706.146	57.65
706.47	57.62
706.793	57.69
707.117	57.72
707.44	57.75
707.763	57.79
708.086	57.84
708.409	57.83
708.733	57.85
709.056	57.86
709.379	57.87
709.702	57.87
710.025	57.88
710.348	57.94
710.671	57.93
710.993	57.91
711.316	57.89
711.639	57.86
711.962	57.85
712.284	57.87
712.607	57.86
712.93	57.83
713.252	57.87
713.575	57.95
713.897	57.95
714.22	57.93
714.542	57.96
714.864	57.92
715.187	57.97
715.509	58.01
715.831	58.04
716.153	58.05
716.475	58.09
716.798	58.06
717.12	57.99
717.442	57.94
717.764	57.92
718.085	57.99
718.407	58.05
718.729	58.08
719.051	58.13
719.373	58.16
719.695	58.2
720.016	58.21
720.338	58.18
720.659	58.19
720.981	58.24
721.302	58.24
721.624	58.24
721.945	58.23
722.267	58.26
722.588	58.25
722.909	58.3
723.231	58.29
723.552	58.35
723.873	58.35
724.194	58.4
724.515	58.41
724.836	58.34
725.157	58.34
725.478	58.31
725.799	58.36
726.12	58.3
726.441	58.34
726.762	58.34
727.083	58.3
727.403	58.3
727.724	58.3
728.045	58.28
728.365	58.34
728.686	58.35
729.006	58.34
729.327	58.36
729.647	58.29
729.967	58.24
730.288	58.21
730.608	58.23
730.928	58.24
731.249	58.28
731.569	58.29
731.889	58.25
732.209	58.23
732.529	58.17
732.849	58.15
733.169	58.12
733.489	58.1
733.809	58.11
734.129	58.07
734.448	58.04
734.768	58.03
735.088	58.05
735.408	58.06
735.727	57.99
736.047	58.02
736.366	58.01
736.686	58.05
737.005	58.08
737.325	58.04
737.644	58.11
737.963	58.11
738.283	58.07
738.602	58.06
738.921	57.98
739.24	57.97
739.56	57.99
739.879	57.97
740.198	58.02
740.517	58.09
740.836	58.11
741.155	58.09
741.473	58.11
741.792	58.08
742.111	58.05
742.43	58.1
742.748	58.06
743.067	58.08
743.386	58
743.704	57.96
744.023	57.97
744.341	57.85
744.66	57.85
744.978	57.93
745.297	57.97
745.615	58.07
745.933	58.1
746.252	58.1
746.57	58.14
746.888	58.09
747.206	58.08
747.524	58.11
747.842	58.18
748.16	58.16
748.478	58.16
748.796	58.17
749.114	58.13
749.432	58.07
749.749	58.05
750.067	58.15
750.385	58.17
750.703	58.14
751.02	58.17
751.338	58.22
751.655	58.19
751.973	58.16
752.29	58.15
752.608	58.19
752.925	58.2
753.242	58.16
753.56	58.18
753.877	58.05
754.194	58.1
754.511	58.04
754.828	58.07
755.145	58.03
755.462	58.09
755.779	58.18
756.096	58.33
756.413	58.43
756.73	58.49
757.047	58.55
757.364	58.63
757.68	58.68
757.997	58.6
758.314	58.68
758.63	58.79
758.947	58.89
759.264	58.93
759.58	58.93
759.896	59.04
760.213	59.1
760.529	59.19
760.846	59.17
761.162	59.23
761.478	59.27
761.794	59.35
762.11	59.37
762.426	59.31
762.743	59.25
763.059	59.29
763.375	59.29
763.69	59.2
764.006	59.26
764.322	59.27
764.638	59.29
764.954	59.25
765.27	59.22
765.585	59.14
765.901	59.11
766.216	59.1
766.532	59.04
766.848	59.01
767.163	58.94
767.478	58.92
767.794	58.9
768.109	58.83
768.424	58.77
768.74	58.69
769.055	58.68
769.37	58.66
769.685	58.59
770	58.51
770.315	58.61
770.63	58.5
770.945	58.42
771.26	58.46
771.575	58.42
771.89	58.31
772.205	58.26
772.52	58.22
772.834	58.17
773.149	58.18
773.464	58.25
773.778	58.36
774.093	58.43
774.407	58.5
774.722	58.56
775.036	58.55
775.351	58.59
775.665	58.54
775.979	58.55
776.293	58.57
776.608	58.59
776.922	58.52
777.236	58.52
777.55	58.55
777.864	58.54
778.178	58.62
778.492	58.7
778.806	58.73
779.12	58.76
779.434	58.75
779.747	58.69
780.061	58.66
780.375	58.51
780.689	58.42
781.002	58.36
781.316	58.43
781.629	58.49
781.943	58.48
782.256	58.65
782.57	58.72
782.883	58.66
783.196	58.72
783.51	58.84
783.823	58.82
784.136	58.81
784.449	58.77
784.762	58.67
785.075	58.63
785.388	58.65
785.701	58.63
786.014	58.71
786.327	58.92
786.64	58.84
786.953	59.02
787.266	59.09
787.578	59.12
787.891	59.05
788.204	58.99
788.516	58.99
788.829	59.04
789.141	59.07
789.454	59
789.766	58.91
790.079	58.77
790.391	58.82
790.703	58.98
791.016	59.02
791.328	59.13
791.64	59.18
791.952	59.24
792.264	59.15
792.576	59.08
792.888	59.05
793.2	59.2
793.512	59.18
793.824	59.1
794.136	59.07
794.448	59.06
794.76	59.19
795.071	59.21
795.383	59.17
795.695	59.1
796.006	59.23
796.318	59.21
796.629	59.35
796.941	59.26
797.252	59.2
797.564	59.3
797.875	59.26
798.186	59.3
798.497	59.35
798.809	59.45
799.12	59.54
799.431	59.41
799.742	59.31
800.053	59.32
800.364	59.32
800.675	59.4
800.986	59.5
801.297	59.5
801.608	59.43
801.918	59.4
802.229	59.51
802.54	59.5
802.851	59.56
803.161	59.55
803.472	59.61
803.782	59.63
804.093	59.58
804.403	59.67
804.714	59.63
805.024	59.71
805.334	59.84
805.645	59.77
805.955	59.86
806.265	59.98
806.575	60.05
806.885	60.22
807.195	60.08
807.505	59.92
807.815	59.79
808.125	59.77
808.435	59.8
808.745	59.78
809.055	59.82
809.365	59.88
809.674	59.89
809.984	59.83
810.294	59.8
810.603	59.76
810.913	59.69
811.222	59.85
811.532	59.61
811.841	59.51
812.151	59.58
812.46	59.77
812.769	59.6
813.079	59.52
813.388	59.29
813.697	59.43
814.006	59.55
814.315	59.64
814.624	59.63
814.933	59.65
815.242	59.59
815.551	59.74
815.86	59.81
816.169	59.9
816.478	60.03
816.786	59.83
817.095	59.82
817.404	59.82
817.712	59.65
818.021	59.65
818.33	59.8
818.638	59.82
818.947	59.66
819.255	59.82
819.563	59.79
819.872	59.9
820.18	60.03
820.488	60.12
820.796	60.19
821.105	60.28
821.413	60.26
821.721	60.26
822.029	60.25
822.337	60.36
822.645	60.36
822.953	60.43
823.26	60.51
823.568	60.5
823.876	60.46
824.184	60.43
824.491	60.45
824.799	60.45
825.107	60.48
825.414	60.5
825.722	60.45
826.029	60.46
826.337	60.45
826.644	60.4
826.951	60.36
827.259	60.31
827.566	60.34
827.873	60.33
828.18	60.26
828.488	60.22
828.795	60.07
829.102	60.03
829.409	59.96
829.716	59.9
830.023	59.84
830.329	59.96
830.636	60.03
830.943	60.01
831.25	59.99
831.557	59.91
831.863	59.85
832.17	59.91
832.476	59.99
832.783	60
833.089	60.01
833.396	59.99
833.702	59.92
834.009	59.74
834.315	59.81
834.621	59.87
834.928	59.79
835.234	59.84
835.54	59.78
835.846	59.79
836.152	59.71
836.458	59.93
836.764	59.84
837.07	59.86
837.376	59.92
837.682	59.77
837.988	59.91
838.293	59.96
838.599	59.97
838.905	59.97
839.211	60.02
839.516	59.89
839.822	60
840.127	60.26
840.433	60.43
840.738	60.2
841.044	60.56
841.349	60.7
841.654	60.66
841.959	60.69
842.265	60.59
842.57	60.62
842.875	60.25
843.18	60.31
843.485	60.44
843.79	60.34
844.095	60.57
844.4	60.51
844.705	60.59
845.01	60.69
845.315	60.86
845.619	61.13
845.924	61.42
846.229	61.19
846.533	61.19
846.838	60.93
847.142	61.19
847.447	60.87
847.751	60.96
848.056	61.2
848.36	61.25
848.664	61.21
848.969	61.59
849.273	61.66
849.577	61.7
849.881	61.82
850.185	61.92
850.489	61.85
850.794	61.86
851.097	61.66
851.401	61.88
851.705	61.48
852.009	61.01
852.313	60.66
852.617	61.03
852.92	60.82
853.224	61.01
853.528	61.35
853.831	61.51
854.135	61.72
854.438	61.53
854.742	61.72
855.045	62.06
855.349	62.06
855.652	62.22
855.955	62.37
856.259	62
856.562	62.32
856.865	62.57
857.168	62.24
857.471	62.47
857.774	62.5
858.077	62.57
858.38	63.22
858.683	63.43
858.986	63.66
859.289	63.78
859.592	63.76
859.894	63.62
860.197	63.8
860.5	63.63
860.802	63.97
861.105	63.79
861.407	63.61
861.71	63.54
862.012	63.64
862.315	63.66
862.617	63.77
862.919	63.62
863.222	63.59
863.524	63.93
863.826	64.36
864.128	64.21
864.43	64.13
864.732	63.73
865.034	63.78
865.336	63.53
865.638	63.48
865.94	63.31
866.242	62.97
866.544	62.75
866.846	63.01
867.147	62.53
867.449	62.56
867.751	62.49
868.052	62.52
868.354	62.17
868.655	62.38
868.957	62.22
869.258	62.11
869.56	61.81
869.861	62
870.162	61.56
870.463	61.18
870.765	61.28
871.066	61.18
871.367	61.35
871.668	61.56
871.969	61.66
872.27	62.44
872.571	62.79
872.872	62.62
873.173	62.24
873.473	62.35
873.774	62.47
874.075	62.39
874.376	62.63
874.676	62.7
874.977	62.24
875.277	62.59
875.578	62.96
875.878	63.1
876.179	62.93
876.479	62.97
876.78	63.41
877.08	63.59
877.38	63.83
877.68	63.9
877.981	63.49
878.281	63.48
878.581	62.73
