Data from UWBM104549_Reflection_00007.txt Node
Date: Sun May 02 12:25:00 EDT 2021
User: vgr7
Spectrometer: USB2G7710
Scans to average: 10
Trigger mode: 4
Integration Time (sec): 1.000000E-1
Electric dark correction enabled: true
Boxcar width: 10
XAxis mode: Wavelengths
Number of Pixels in Spectrum: 2048
>>>>>Begin Spectral Data<<<<<
177.721	-254
178.105	-71.43
178.488	114.6
178.871	240.82
179.254	20.16
179.636	118.54
180.019	25
180.402	300
180.785	9.42
181.168	-31.56
181.55	-49.09
181.933	-110.33
182.316	-116.32
182.698	-100.58
183.081	-62.21
183.463	-125
183.846	-5.7
184.228	-18.93
184.611	4.97
184.993	7.06
185.376	15.73
185.758	18.95
186.14	18.43
186.522	11.91
186.904	8.51
187.287	14.2
187.669	21.23
188.051	12.12
188.433	13.96
188.815	18.29
189.197	26.87
189.579	37.6
189.961	36.64
190.342	34.79
190.724	34.12
191.106	31.8
191.488	32.7
191.869	27.72
192.251	25.49
192.633	21.56
193.014	21.3
193.396	17.09
193.777	13.81
194.159	13.26
194.54	5.15
194.922	9.1
195.303	13.19
195.684	15.54
196.065	17.46
196.447	17.86
196.828	16.97
197.209	18.14
197.59	13.42
197.971	9.12
198.352	16.59
198.733	27.39
199.114	23.27
199.495	23.38
199.876	24.26
200.257	22.31
200.638	27.41
201.018	25.3
201.399	23.26
201.78	26.2
202.16	25.63
202.541	30.88
202.922	25.95
203.302	24.26
203.683	25.15
204.063	26.26
204.444	23.33
204.824	22.98
205.204	23.12
205.585	24.13
205.965	25.6
206.345	26.83
206.725	19.53
207.106	19.93
207.486	19.5
207.866	22.38
208.246	25
208.626	23.85
209.006	24.91
209.386	28.99
209.766	28.98
210.145	30.39
210.525	28.82
210.905	32.18
211.285	31.76
211.664	30.97
212.044	28.31
212.424	34.98
212.803	34.95
213.183	31.18
213.562	30.68
213.942	27.96
214.321	20.31
214.701	17.25
215.08	20.52
215.459	18.86
215.838	12.95
216.218	8.56
216.597	7.62
216.976	8.25
217.355	9.39
217.734	12.02
218.113	9.65
218.492	11.61
218.871	11.66
219.25	14.81
219.629	10.37
220.008	11.33
220.387	6.56
220.766	4.33
221.144	4.54
221.523	7.83
221.902	8.65
222.28	11.72
222.659	11.01
223.037	11.04
223.416	15.19
223.794	16.67
224.173	17.65
224.551	18.64
224.929	17.69
225.308	17.33
225.686	15.14
226.064	14.72
226.442	14.17
226.821	11.8
227.199	10.49
227.577	10.32
227.955	9.46
228.333	8.14
228.711	8.38
229.089	8.97
229.467	8.17
229.845	10.24
230.222	10.79
230.6	11.38
230.978	10.82
231.356	9.47
231.733	9.84
232.111	10.33
232.488	9.57
232.866	9.4
233.243	8.64
233.621	9.26
233.998	8.96
234.376	8.93
234.753	10.12
235.13	9.51
235.508	10.13
235.885	10.4
236.262	10.62
236.639	10.57
237.016	10.4
237.393	9.65
237.77	8.45
238.147	7.47
238.524	7.32
238.901	7.31
239.278	7.19
239.655	6.66
240.032	6.45
240.409	6.38
240.785	6.09
241.162	6.05
241.539	6.05
241.915	6.13
242.292	6.02
242.668	5.77
243.045	5.84
243.421	5.72
243.798	5.61
244.174	5.54
244.551	5.46
244.927	5.38
245.303	5.37
245.679	5.44
246.056	5.5
246.432	5.52
246.808	5.39
247.184	5.39
247.56	5.41
247.936	5.39
248.312	5.37
248.688	5.38
249.064	5.36
249.44	5.27
249.815	5.26
250.191	5.21
250.567	5.22
250.943	5.16
251.318	5.17
251.694	5.12
252.069	5.1
252.445	5.12
252.82	5.07
253.196	5.12
253.571	5.02
253.947	5.07
254.322	4.97
254.697	4.99
255.073	4.92
255.448	4.9
255.823	4.81
256.198	4.77
256.573	4.72
256.948	4.67
257.323	4.64
257.698	4.63
258.073	4.69
258.448	4.71
258.823	4.73
259.198	4.68
259.573	4.7
259.948	4.73
260.322	4.67
260.697	4.67
261.072	4.67
261.446	4.63
261.821	4.59
262.195	4.54
262.57	4.56
262.944	4.52
263.319	4.51
263.693	4.54
264.067	4.53
264.442	4.56
264.816	4.57
265.19	4.57
265.564	4.6
265.938	4.5
266.313	4.41
266.687	4.35
267.061	4.37
267.435	4.37
267.809	4.35
268.183	4.43
268.556	4.41
268.93	4.36
269.304	4.35
269.678	4.3
270.051	4.32
270.425	4.31
270.799	4.36
271.172	4.37
271.546	4.36
271.919	4.37
272.293	4.35
272.666	4.32
273.04	4.36
273.413	4.25
273.787	4.23
274.16	4.31
274.533	4.31
274.906	4.28
275.279	4.29
275.653	4.27
276.026	4.17
276.399	4.16
276.772	4.22
277.145	4.28
277.518	4.36
277.891	4.38
278.263	4.39
278.636	4.42
279.009	4.45
279.382	4.44
279.755	4.39
280.127	4.41
280.5	4.41
280.872	4.28
281.245	4.4
281.617	4.45
281.99	4.4
282.362	4.37
282.735	4.37
283.107	4.35
283.479	4.38
283.852	4.41
284.224	4.43
284.596	4.37
284.968	4.34
285.34	4.34
285.713	4.39
286.085	4.34
286.457	4.36
286.829	4.33
287.201	4.35
287.572	4.41
287.944	4.42
288.316	4.49
288.688	4.59
289.06	4.55
289.431	4.53
289.803	4.57
290.175	4.63
290.546	4.66
290.918	4.68
291.289	4.67
291.661	4.72
292.032	4.71
292.403	4.75
292.775	4.77
293.146	4.74
293.517	4.76
293.889	4.79
294.26	4.78
294.631	4.84
295.002	4.84
295.373	4.86
295.744	4.87
296.115	4.86
296.486	4.84
296.857	4.88
297.228	4.91
297.599	4.92
297.97	4.91
298.34	4.95
298.711	4.96
299.082	4.99
299.452	4.99
299.823	5.04
300.194	5.06
300.564	5.1
300.935	5.17
301.305	5.14
301.676	5.14
302.046	5.15
302.416	5.16
302.787	5.22
303.157	5.22
303.527	5.26
303.897	5.29
304.267	5.35
304.637	5.37
305.008	5.44
305.378	5.49
305.748	5.58
306.117	5.61
306.487	5.66
306.857	5.71
307.227	5.75
307.597	5.78
307.967	5.84
308.336	5.89
308.706	5.96
309.076	6.02
309.445	6.11
309.815	6.15
310.184	6.19
310.554	6.21
310.923	6.24
311.293	6.28
311.662	6.31
312.031	6.36
312.401	6.42
312.77	6.44
313.139	6.49
313.508	6.51
313.877	6.56
314.246	6.59
314.616	6.64
314.985	6.66
315.353	6.71
315.722	6.76
316.091	6.8
316.46	6.85
316.829	6.93
317.198	6.99
317.567	7.04
317.935	7.09
318.304	7.18
318.672	7.26
319.041	7.33
319.41	7.41
319.778	7.47
320.147	7.53
320.515	7.59
320.883	7.64
321.252	7.69
321.62	7.71
321.988	7.76
322.357	7.8
322.725	7.9
323.093	7.94
323.461	7.95
323.829	8.01
324.197	8.01
324.565	8.03
324.933	8.06
325.301	8.1
325.669	8.17
326.037	8.17
326.405	8.17
326.772	8.18
327.14	8.22
327.508	8.24
327.875	8.24
328.243	8.24
328.61	8.22
328.978	8.26
329.346	8.3
329.713	8.31
330.08	8.39
330.448	8.39
330.815	8.44
331.182	8.48
331.55	8.47
331.917	8.53
332.284	8.55
332.651	8.57
333.018	8.6
333.385	8.64
333.752	8.72
334.119	8.78
334.486	8.78
334.853	8.8
335.22	8.83
335.587	8.89
335.954	8.95
336.32	9.04
336.687	9.06
337.054	9.07
337.42	9.14
337.787	9.17
338.153	9.22
338.52	9.26
338.886	9.32
339.253	9.36
339.619	9.39
339.986	9.45
340.352	9.52
340.718	9.57
341.084	9.58
341.451	9.57
341.817	9.61
342.183	9.69
342.549	9.72
342.915	9.76
343.281	9.77
343.647	9.82
344.013	9.83
344.379	9.87
344.745	9.9
345.11	9.93
345.476	9.97
345.842	10.02
346.208	10.04
346.573	10.06
346.939	10.08
347.304	10.08
347.67	10.08
348.035	10.1
348.401	10.09
348.766	10.11
349.132	10.15
349.497	10.17
349.862	10.17
350.228	10.18
350.593	10.17
350.958	10.22
351.323	10.22
351.688	10.24
352.053	10.23
352.418	10.26
352.783	10.25
353.148	10.22
353.513	10.2
353.878	10.23
354.243	10.22
354.608	10.22
354.972	10.26
355.337	10.26
355.702	10.23
356.066	10.24
356.431	10.22
356.795	10.21
357.16	10.18
357.524	10.17
357.889	10.2
358.253	10.2
358.618	10.19
358.982	10.18
359.346	10.17
359.71	10.19
360.075	10.16
360.439	10.16
360.803	10.16
361.167	10.13
361.531	10.11
361.895	10.1
362.259	10.09
362.623	10.06
362.987	10.07
363.351	10.08
363.714	10.08
364.078	10.06
364.442	10.04
364.806	10.04
365.169	10.05
365.533	9.98
365.896	9.97
366.26	9.94
366.623	9.93
366.987	9.89
367.35	9.84
367.714	9.83
368.077	9.78
368.44	9.76
368.803	9.73
369.167	9.7
369.53	9.68
369.893	9.65
370.256	9.6
370.619	9.55
370.982	9.48
371.345	9.41
371.708	9.37
372.071	9.33
372.434	9.28
372.797	9.22
373.159	9.18
373.522	9.13
373.885	9.08
374.247	9.02
374.61	8.97
374.973	8.91
375.335	8.86
375.698	8.8
376.06	8.74
376.423	8.69
376.785	8.63
377.147	8.56
377.51	8.5
377.872	8.45
378.234	8.4
378.596	8.34
378.958	8.3
379.321	8.27
379.683	8.21
380.045	8.16
380.407	8.11
380.769	8.05
381.13	7.99
381.492	7.92
381.854	7.87
382.216	7.82
382.578	7.78
382.939	7.74
383.301	7.7
383.663	7.66
384.024	7.62
384.386	7.58
384.747	7.54
385.109	7.5
385.47	7.46
385.832	7.42
386.193	7.4
386.554	7.36
386.916	7.33
387.277	7.29
387.638	7.27
387.999	7.23
388.36	7.21
388.721	7.18
389.082	7.16
389.443	7.13
389.804	7.08
390.165	7.04
390.526	7
390.887	6.97
391.248	6.93
391.609	6.9
391.969	6.86
392.33	6.83
392.691	6.79
393.051	6.76
393.412	6.73
393.772	6.68
394.133	6.64
394.493	6.6
394.854	6.57
395.214	6.51
395.574	6.48
395.935	6.44
396.295	6.39
396.655	6.35
397.015	6.3
397.376	6.25
397.736	6.22
398.096	6.16
398.456	6.11
398.816	6.06
399.176	6.01
399.535	5.98
399.895	5.95
400.255	5.91
400.615	5.86
400.975	5.83
401.334	5.79
401.694	5.75
402.054	5.72
402.413	5.69
402.773	5.66
403.132	5.64
403.492	5.6
403.851	5.58
404.211	5.56
404.57	5.54
404.929	5.52
405.288	5.49
405.648	5.48
406.007	5.47
406.366	5.46
406.725	5.45
407.084	5.42
407.443	5.41
407.802	5.4
408.161	5.39
408.52	5.38
408.879	5.36
409.238	5.36
409.596	5.34
409.955	5.32
410.314	5.32
410.673	5.31
411.031	5.29
411.39	5.29
411.748	5.28
412.107	5.26
412.465	5.25
412.824	5.25
413.182	5.24
413.54	5.23
413.899	5.22
414.257	5.21
414.615	5.2
414.974	5.18
415.332	5.17
415.69	5.15
416.048	5.14
416.406	5.13
416.764	5.12
417.122	5.12
417.48	5.1
417.838	5.09
418.195	5.09
418.553	5.07
418.911	5.06
419.269	5.05
419.626	5.04
419.984	5.03
420.342	5.02
420.699	5.01
421.057	5
421.414	4.99
421.772	4.97
422.129	4.96
422.486	4.95
422.844	4.94
423.201	4.93
423.558	4.92
423.915	4.9
424.273	4.89
424.63	4.87
424.987	4.85
425.344	4.84
425.701	4.81
426.058	4.8
426.415	4.79
426.772	4.76
427.128	4.75
427.485	4.73
427.842	4.72
428.199	4.71
428.555	4.69
428.912	4.68
429.269	4.67
429.625	4.66
429.982	4.65
430.338	4.64
430.695	4.64
431.051	4.63
431.407	4.63
431.764	4.62
432.12	4.62
432.476	4.62
432.832	4.62
433.189	4.62
433.545	4.62
433.901	4.62
434.257	4.63
434.613	4.64
434.969	4.64
435.325	4.65
435.681	4.65
436.036	4.66
436.392	4.66
436.748	4.67
437.104	4.68
437.459	4.68
437.815	4.68
438.171	4.69
438.526	4.7
438.882	4.7
439.237	4.71
439.593	4.72
439.948	4.73
440.304	4.73
440.659	4.74
441.014	4.74
441.369	4.75
441.725	4.75
442.08	4.75
442.435	4.75
442.79	4.75
443.145	4.75
443.5	4.75
443.855	4.75
444.21	4.74
444.565	4.74
444.92	4.73
445.275	4.73
445.629	4.73
445.984	4.73
446.339	4.72
446.693	4.71
447.048	4.7
447.403	4.69
447.757	4.68
448.112	4.68
448.466	4.67
448.82	4.66
449.175	4.65
449.529	4.64
449.883	4.62
450.238	4.6
450.592	4.59
450.946	4.58
451.3	4.56
451.654	4.55
452.008	4.54
452.362	4.52
452.716	4.51
453.07	4.5
453.424	4.49
453.778	4.49
454.132	4.48
454.486	4.48
454.839	4.48
455.193	4.47
455.547	4.47
455.9	4.48
456.254	4.48
456.607	4.48
456.961	4.5
457.314	4.51
457.668	4.51
458.021	4.52
458.375	4.53
458.728	4.53
459.081	4.54
459.434	4.54
459.787	4.55
460.141	4.55
460.494	4.55
460.847	4.56
461.2	4.56
461.553	4.57
461.906	4.57
462.259	4.57
462.611	4.58
462.964	4.59
463.317	4.59
463.67	4.59
464.022	4.6
464.375	4.6
464.728	4.61
465.08	4.62
465.433	4.62
465.785	4.63
466.138	4.64
466.49	4.64
466.843	4.65
467.195	4.67
467.547	4.69
467.899	4.7
468.252	4.71
468.604	4.73
468.956	4.75
469.308	4.77
469.66	4.77
470.012	4.78
470.364	4.79
470.716	4.81
471.068	4.83
471.42	4.84
471.772	4.85
472.123	4.87
472.475	4.89
472.827	4.9
473.178	4.92
473.53	4.92
473.882	4.93
474.233	4.95
474.585	4.96
474.936	4.97
475.288	4.97
475.639	4.98
475.99	4.99
476.342	4.99
476.693	4.99
477.044	4.99
477.395	5
477.746	4.99
478.097	4.99
478.448	5.01
478.8	5.09
479.15	5.2
479.501	5.35
479.852	5.52
480.203	5.69
480.554	5.87
480.905	6.07
481.255	6.26
481.606	6.43
481.957	6.62
482.307	6.79
482.658	6.94
483.009	7.07
483.359	7.17
483.709	7.27
484.06	7.36
484.41	7.45
484.761	7.52
485.111	7.6
485.461	7.68
485.811	7.75
486.162	7.77
486.512	7.76
486.862	7.72
487.212	7.64
487.562	7.55
487.912	7.45
488.262	7.32
488.612	7.19
488.961	7.05
489.311	6.9
489.661	6.74
490.011	6.58
490.36	6.43
490.71	6.27
491.06	6.1
491.409	5.94
491.759	5.82
492.108	5.71
492.458	5.62
492.807	5.54
493.157	5.46
493.506	5.39
493.855	5.33
494.204	5.27
494.554	5.21
494.903	5.16
495.252	5.12
495.601	5.08
495.95	5.05
496.299	5.03
496.648	5
496.997	4.99
497.346	5.01
497.695	5.05
498.043	5.12
498.392	5.22
498.741	5.33
499.09	5.4
499.438	5.46
499.787	5.52
500.135	5.57
500.484	5.64
500.832	5.7
501.181	5.77
501.529	5.84
501.878	5.91
502.226	5.98
502.574	6.06
502.923	6.15
503.271	6.24
503.619	6.34
503.967	6.45
504.315	6.56
504.663	6.68
505.011	6.79
505.359	6.91
505.707	7.03
506.055	7.14
506.403	7.27
506.751	7.4
507.098	7.53
507.446	7.67
507.794	7.79
508.141	7.94
508.489	8.08
508.837	8.21
509.184	8.36
509.531	8.51
509.879	8.65
510.226	8.79
510.574	8.93
510.921	9.07
511.268	9.21
511.616	9.36
511.963	9.51
512.31	9.66
512.657	9.82
513.004	9.99
513.351	10.17
513.698	10.35
514.045	10.54
514.392	10.73
514.739	10.92
515.086	11.11
515.432	11.3
515.779	11.49
516.126	11.68
516.473	11.86
516.819	12.04
517.166	12.21
517.512	12.38
517.859	12.54
518.205	12.7
518.552	12.84
518.898	12.99
519.245	13.15
519.591	13.3
519.937	13.45
520.283	13.62
520.629	13.78
520.976	13.95
521.322	14.13
521.668	14.32
522.014	14.52
522.36	14.72
522.706	14.93
523.052	15.2
523.398	15.56
523.743	16.03
524.089	16.57
524.435	17.13
524.781	17.72
525.126	18.31
525.472	18.9
525.817	19.47
526.163	20.01
526.509	20.51
526.854	20.94
527.199	21.29
527.545	21.58
527.89	21.83
528.235	22.06
528.581	22.3
528.926	22.52
529.271	22.73
529.616	22.96
529.961	23.17
530.306	23.37
530.651	23.47
530.996	23.47
531.341	23.43
531.686	23.32
532.031	23.14
532.376	22.88
532.721	22.58
533.065	22.27
533.41	22.02
533.755	21.79
534.099	21.65
534.444	21.61
534.788	21.63
535.133	21.68
535.477	21.75
535.822	21.84
536.166	21.97
536.51	22.12
536.855	22.3
537.199	22.51
537.543	22.75
537.887	23.04
538.231	23.36
538.576	23.69
538.92	24.04
539.264	24.43
539.608	24.83
539.951	25.22
540.295	25.59
540.639	25.85
540.983	26.08
541.327	26.25
541.671	26.42
542.014	26.63
542.358	26.83
542.701	27.04
543.045	27.23
543.389	27.42
543.732	27.61
544.075	27.79
544.419	27.97
544.762	28.12
545.105	28.24
545.449	28.34
545.792	28.42
546.135	28.51
546.478	28.61
546.821	28.76
547.165	28.97
547.508	29.22
547.851	29.54
548.194	29.91
548.536	30.3
548.879	30.59
549.222	30.83
549.565	31.06
549.908	31.31
550.25	31.55
550.593	31.79
550.936	32.03
551.278	32.26
551.621	32.48
551.963	32.74
552.306	32.98
552.648	33.23
552.991	33.46
553.333	33.67
553.675	33.89
554.017	34.1
554.36	34.32
554.702	34.54
555.044	34.73
555.386	34.94
555.728	35.16
556.07	35.38
556.412	35.6
556.754	35.81
557.096	36.03
557.438	36.26
557.78	36.47
558.121	36.69
558.463	36.91
558.805	37.15
559.147	37.35
559.488	37.55
559.83	37.76
560.171	37.97
560.513	38.17
560.854	38.38
561.196	38.59
561.537	38.78
561.878	38.98
562.22	39.18
562.561	39.39
562.902	39.59
563.243	39.79
563.584	39.97
563.925	40.16
564.266	40.31
564.607	40.45
564.948	40.61
565.289	40.77
565.63	40.93
565.971	41.06
566.312	41.2
566.653	41.36
566.993	41.49
567.334	41.64
567.675	41.79
568.015	41.92
568.356	42.05
568.696	42.21
569.037	42.36
569.377	42.5
569.718	42.62
570.058	42.75
570.398	42.86
570.739	42.98
571.079	43.08
571.419	43.21
571.759	43.35
572.099	43.46
572.439	43.57
572.779	43.67
573.119	43.78
573.459	43.87
573.799	43.97
574.139	44.07
574.479	44.16
574.819	44.24
575.158	44.34
575.498	44.42
575.838	44.49
576.177	44.56
576.517	44.65
576.856	44.73
577.196	44.8
577.535	44.89
577.875	44.97
578.214	45.08
578.553	45.17
578.893	45.25
579.232	45.33
579.571	45.42
579.91	45.5
580.25	45.57
580.589	45.68
580.928	45.75
581.267	45.86
581.606	45.94
581.945	46.01
582.283	46.07
582.622	46.17
582.961	46.26
583.3	46.35
583.639	46.43
583.977	46.52
584.316	46.59
584.654	46.71
584.993	46.79
585.332	46.85
585.67	46.93
586.008	47
586.347	47.07
586.685	47.14
587.024	47.23
587.362	47.28
587.7	47.34
588.038	47.4
588.376	47.45
588.715	47.52
589.053	47.59
589.391	47.67
589.729	47.7
590.067	47.75
590.404	47.8
590.742	47.88
591.08	47.93
591.418	48
591.756	48.05
592.093	48.1
592.431	48.15
592.769	48.22
593.106	48.28
593.444	48.34
593.781	48.41
594.119	48.46
594.456	48.56
594.793	48.6
595.131	48.66
595.468	48.7
595.805	48.72
596.143	48.76
596.48	48.81
596.817	48.89
597.154	48.93
597.491	48.96
597.828	48.97
598.165	49.01
598.502	49.03
598.839	49.06
599.176	49.1
599.512	49.15
599.849	49.21
600.186	49.25
600.523	49.3
600.859	49.35
601.196	49.42
601.532	49.45
601.869	49.48
602.205	49.51
602.542	49.56
602.878	49.61
603.215	49.66
603.551	49.68
603.887	49.68
604.223	49.71
604.56	49.75
604.896	49.8
605.232	49.85
605.568	49.89
605.904	49.94
606.24	49.98
606.576	50.02
606.912	50.05
607.248	50.08
607.583	50.11
607.919	50.13
608.255	50.12
608.591	50.14
608.926	50.19
609.262	50.23
609.597	50.27
609.933	50.3
610.268	50.3
610.604	50.33
610.939	50.37
611.275	50.4
611.61	50.42
611.945	50.44
612.281	50.47
612.616	50.49
612.951	50.49
613.286	50.53
613.621	50.53
613.956	50.55
614.291	50.58
614.626	50.6
614.961	50.6
615.296	50.63
615.631	50.62
615.966	50.66
616.3	50.68
616.635	50.69
616.97	50.72
617.304	50.77
617.639	50.8
617.973	50.83
618.308	50.89
618.642	50.93
618.977	50.95
619.311	50.95
619.646	51
619.98	51.03
620.314	51.05
620.648	51.08
620.983	51.09
621.317	51.12
621.651	51.15
621.985	51.22
622.319	51.24
622.653	51.28
622.987	51.29
623.321	51.29
623.655	51.3
623.988	51.33
624.322	51.35
624.656	51.35
624.99	51.36
625.323	51.37
625.657	51.37
625.99	51.38
626.324	51.39
626.657	51.36
626.991	51.38
627.324	51.4
627.658	51.41
627.991	51.42
628.324	51.42
628.657	51.41
628.991	51.38
629.324	51.43
629.657	51.44
629.99	51.42
630.323	51.46
630.656	51.49
630.989	51.49
631.322	51.51
631.655	51.53
631.987	51.53
632.32	51.53
632.653	51.56
632.986	51.58
633.318	51.61
633.651	51.64
633.984	51.68
634.316	51.71
634.649	51.71
634.981	51.73
635.313	51.76
635.646	51.79
635.978	51.82
636.31	51.84
636.643	51.89
636.975	51.94
637.307	51.96
637.639	51.96
637.971	51.99
638.303	51.99
638.635	52.03
638.967	52.05
639.299	52.08
639.631	52.08
639.963	52.11
640.295	52.16
640.626	52.22
640.958	52.22
641.29	52.23
641.621	52.28
641.953	52.31
642.285	52.33
642.616	52.38
642.948	52.4
643.279	52.38
643.61	52.38
643.942	52.39
644.273	52.4
644.604	52.42
644.936	52.45
645.267	52.51
645.598	52.53
645.929	52.6
646.26	52.65
646.591	52.67
646.922	52.71
647.253	52.68
647.584	52.65
647.915	52.68
648.245	52.68
648.576	52.68
648.907	52.68
649.238	52.69
649.568	52.68
649.899	52.68
650.229	52.76
650.56	52.77
650.89	52.8
651.221	52.82
651.551	52.87
651.882	52.85
652.212	52.84
652.542	52.85
652.872	52.8
653.203	52.8
653.533	52.84
653.863	52.82
654.193	52.83
654.523	52.85
654.853	52.83
655.183	52.82
655.513	52.85
655.843	52.87
656.172	52.86
656.502	52.88
656.832	52.9
657.162	52.89
657.491	52.91
657.821	52.91
658.15	52.89
658.48	52.86
658.809	52.89
659.139	52.88
659.468	52.9
659.798	52.93
660.127	52.93
660.456	52.91
660.785	52.91
661.115	52.94
661.444	52.96
661.773	53.01
662.102	53.06
662.431	53.08
662.76	53.09
663.089	53.09
663.418	53.11
663.747	53.14
664.076	53.15
664.404	53.16
664.733	53.19
665.062	53.24
665.39	53.29
665.719	53.28
666.048	53.32
666.376	53.33
666.705	53.34
667.033	53.35
667.362	53.38
667.69	53.44
668.018	53.44
668.347	53.44
668.675	53.43
669.003	53.45
669.331	53.43
669.659	53.45
669.987	53.5
670.315	53.51
670.643	53.52
670.971	53.53
671.299	53.57
671.627	53.58
671.955	53.56
672.283	53.54
672.61	53.54
672.938	53.56
673.266	53.58
673.593	53.64
673.921	53.66
674.249	53.67
674.576	53.67
674.904	53.68
675.231	53.72
675.558	53.75
675.886	53.73
676.213	53.74
676.54	53.72
676.867	53.73
677.195	53.71
677.522	53.73
677.849	53.69
678.176	53.65
678.503	53.63
678.83	53.64
679.157	53.66
679.484	53.68
679.81	53.65
680.137	53.66
680.464	53.62
680.791	53.6
681.117	53.63
681.444	53.68
681.771	53.68
682.097	53.68
682.424	53.68
682.75	53.71
683.077	53.76
683.403	53.81
683.729	53.83
684.056	53.86
684.382	53.87
684.708	53.91
685.034	53.92
685.36	53.99
685.686	54.01
686.012	54.04
686.339	54.05
686.664	54.11
686.99	54.07
687.316	54.12
687.642	54.12
687.968	54.12
688.294	54.05
688.619	54.1
688.945	54.12
689.271	54.1
689.596	54.12
689.922	54.14
690.247	54.17
690.573	54.14
690.898	54.15
691.224	54.14
691.549	54.15
691.874	54.22
692.2	54.27
692.525	54.27
692.85	54.29
693.175	54.29
693.5	54.27
693.825	54.33
694.15	54.3
694.475	54.32
694.8	54.32
695.125	54.31
695.45	54.21
695.775	54.18
696.099	54.17
696.424	54.15
696.749	54.13
697.073	54.07
697.398	54.07
697.723	54.07
698.047	54.09
698.372	54.08
698.696	54.09
699.02	54.02
699.345	54.05
699.669	54.06
699.993	54.03
700.318	54.04
700.642	54.02
700.966	54.06
701.29	54.07
701.614	54.07
701.938	54.13
702.262	54.17
702.586	54.18
702.91	54.2
703.234	54.21
703.557	54.19
703.881	54.26
704.205	54.29
704.529	54.3
704.852	54.33
705.176	54.39
705.499	54.28
705.823	54.32
706.146	54.31
706.47	54.23
706.793	54.32
707.117	54.34
707.44	54.35
707.763	54.35
708.086	54.37
708.409	54.38
708.733	54.38
709.056	54.45
709.379	54.46
709.702	54.5
710.025	54.52
710.348	54.56
710.671	54.57
710.993	54.55
711.316	54.55
711.639	54.52
711.962	54.48
712.284	54.57
712.607	54.58
712.93	54.59
713.252	54.66
713.575	54.62
713.897	54.59
714.22	54.59
714.542	54.58
714.864	54.59
715.187	54.59
715.509	54.58
715.831	54.6
716.153	54.61
716.475	54.57
716.798	54.52
717.12	54.54
717.442	54.48
717.764	54.49
718.085	54.48
718.407	54.46
718.729	54.48
719.051	54.49
719.373	54.51
719.695	54.51
720.016	54.52
720.338	54.53
720.659	54.52
720.981	54.54
721.302	54.54
721.624	54.53
721.945	54.54
722.267	54.53
722.588	54.49
722.909	54.53
723.231	54.57
723.552	54.63
723.873	54.64
724.194	54.67
724.515	54.65
724.836	54.7
725.157	54.71
725.478	54.66
725.799	54.63
726.12	54.61
726.441	54.64
726.762	54.62
727.083	54.57
727.403	54.63
727.724	54.58
728.045	54.59
728.365	54.58
728.686	54.61
729.006	54.7
729.327	54.71
729.647	54.66
729.967	54.63
730.288	54.62
730.608	54.6
730.928	54.64
731.249	54.66
731.569	54.67
731.889	54.65
732.209	54.64
732.529	54.64
732.849	54.6
733.169	54.58
733.489	54.54
733.809	54.59
734.129	54.52
734.448	54.58
734.768	54.61
735.088	54.63
735.408	54.6
735.727	54.52
736.047	54.56
736.366	54.56
736.686	54.59
737.005	54.57
737.325	54.53
737.644	54.54
737.963	54.52
738.283	54.48
738.602	54.5
738.921	54.53
739.24	54.52
739.56	54.56
739.879	54.63
740.198	54.64
740.517	54.71
740.836	54.73
741.155	54.72
741.473	54.68
741.792	54.66
742.111	54.64
742.43	54.62
742.748	54.61
743.067	54.65
743.386	54.56
743.704	54.64
744.023	54.67
744.341	54.69
744.66	54.69
744.978	54.67
745.297	54.65
745.615	54.7
745.933	54.69
746.252	54.61
746.57	54.49
746.888	54.52
747.206	54.48
747.524	54.56
747.842	54.57
748.16	54.56
748.478	54.51
748.796	54.52
749.114	54.52
749.432	54.4
749.749	54.36
750.067	54.44
750.385	54.44
750.703	54.4
751.02	54.33
751.338	54.42
751.655	54.47
751.973	54.5
752.29	54.52
752.608	54.54
752.925	54.63
753.242	54.74
753.56	54.71
753.877	54.68
754.194	54.69
754.511	54.68
754.828	54.71
755.145	54.78
755.462	54.83
755.779	54.85
756.096	54.89
756.413	54.91
756.73	55
757.047	55.02
757.364	55.08
757.68	55.14
757.997	55
758.314	54.97
758.63	55.02
758.947	55.05
759.264	55.04
759.58	54.98
759.896	54.92
760.213	54.98
760.529	54.96
760.846	54.86
761.162	54.81
761.478	54.81
761.794	54.81
762.11	54.79
762.426	54.79
762.743	54.81
763.059	54.83
763.375	54.83
763.69	54.75
764.006	54.74
764.322	54.73
764.638	54.77
764.954	54.8
765.27	54.78
765.585	54.75
765.901	54.82
766.216	54.81
766.532	54.78
766.848	54.73
767.163	54.7
767.478	54.69
767.794	54.8
768.109	54.77
768.424	54.77
768.74	54.79
769.055	54.74
769.37	54.72
769.685	54.74
770	54.68
770.315	54.78
770.63	54.83
770.945	54.85
771.26	54.83
771.575	54.81
771.89	54.7
772.205	54.64
772.52	54.52
772.834	54.54
773.149	54.59
773.464	54.61
773.778	54.78
774.093	54.89
774.407	54.85
774.722	54.87
775.036	54.83
775.351	54.81
775.665	54.86
775.979	54.93
776.293	54.97
776.608	54.92
776.922	54.91
777.236	54.95
777.55	54.94
777.864	54.96
778.178	55.03
778.492	55.21
778.806	55.19
779.12	55.21
779.434	55.29
779.747	55.28
780.061	55.43
780.375	55.35
780.689	55.29
781.002	55.28
781.316	55.27
781.629	55.38
781.943	55.46
782.256	55.51
782.57	55.58
782.883	55.4
783.196	55.46
783.51	55.5
783.823	55.46
784.136	55.45
784.449	55.43
784.762	55.4
785.075	55.37
785.388	55.43
785.701	55.44
786.014	55.35
786.327	55.34
786.64	55.22
786.953	55.32
787.266	55.28
787.578	55.34
787.891	55.26
788.204	55.23
788.516	55.12
788.829	55.19
789.141	55.04
789.454	55.19
789.766	55.16
790.079	55.05
790.391	54.9
790.703	54.91
791.016	55.03
791.328	55.12
791.64	55.18
791.952	55.15
792.264	55.18
792.576	55.17
792.888	55.24
793.2	55.27
793.512	55.19
793.824	55.27
794.136	55.21
794.448	55.29
794.76	55.32
795.071	55.38
795.383	55.23
795.695	55.42
796.006	55.35
796.318	55.42
796.629	55.57
796.941	55.62
797.252	55.61
797.564	55.45
797.875	55.3
798.186	55.24
798.497	55.29
798.809	55.33
799.12	55.36
799.431	55.33
799.742	55.35
800.053	55.25
800.364	55.19
800.675	55.2
800.986	55.28
801.297	55.33
801.608	55.44
801.918	55.54
802.229	55.41
802.54	55.45
802.851	55.33
803.161	55.24
803.472	55.23
803.782	55.23
804.093	55.29
804.403	55.32
804.714	55.26
805.024	55.22
805.334	55.31
805.645	55.34
805.955	55.37
806.265	55.39
806.575	55.46
806.885	55.55
807.195	55.51
807.505	55.43
807.815	55.42
808.125	55.14
808.435	55.14
808.745	55.31
809.055	55.43
809.365	55.47
809.674	55.5
809.984	55.43
810.294	55.55
810.603	55.58
810.913	55.65
811.222	55.88
811.532	55.91
811.841	55.76
812.151	55.86
812.46	55.88
812.769	55.83
813.079	55.82
813.388	55.71
813.697	55.86
814.006	55.94
814.315	55.89
814.624	56.25
814.933	56.25
815.242	56.25
815.551	56.17
815.86	56.29
816.169	56.4
816.478	56.67
816.786	56.47
817.095	56.39
817.404	56.17
817.712	56.05
818.021	55.86
818.33	55.87
818.638	55.71
818.947	55.52
819.255	55.5
819.563	55.53
819.872	55.4
820.18	55.38
820.488	55.32
820.796	55.43
821.105	55.46
821.413	55.46
821.721	55.35
822.029	55.42
822.337	55.47
822.645	55.51
822.953	55.49
823.26	55.51
823.568	55.55
823.876	55.59
824.184	55.54
824.491	55.6
824.799	55.61
825.107	55.66
825.414	55.69
825.722	55.63
826.029	55.67
826.337	55.75
826.644	55.73
826.951	55.75
827.259	55.69
827.566	55.71
827.873	55.72
828.18	55.7
828.488	55.62
828.795	55.54
829.102	55.43
829.409	55.4
829.716	55.39
830.023	55.35
830.329	55.38
830.636	55.41
830.943	55.35
831.25	55.37
831.557	55.31
831.863	55.34
832.17	55.39
832.476	55.43
832.783	55.41
833.089	55.42
833.396	55.56
833.702	55.49
834.009	55.35
834.315	55.39
834.621	55.56
834.928	55.52
835.234	55.61
835.54	55.58
835.846	55.68
836.152	55.66
836.458	55.76
836.764	55.67
837.07	55.8
837.376	55.8
837.682	55.68
837.988	55.8
838.293	55.74
838.599	55.97
838.905	55.85
839.211	55.95
839.516	55.99
839.822	55.86
840.127	56.07
840.433	56.1
840.738	55.85
841.044	55.94
841.349	56.08
841.654	55.91
841.959	56.13
842.265	56.04
842.57	56.08
842.875	56.02
843.18	56.13
843.485	56.23
843.79	56.41
844.095	56.27
844.4	56.21
844.705	56.49
845.01	56.33
845.315	56.41
845.619	56.34
845.924	56.46
846.229	56.61
846.533	56.52
846.838	56.47
847.142	56.73
847.447	56.61
847.751	56.69
848.056	56.93
848.36	56.82
848.664	56.85
848.969	57.16
849.273	56.91
849.577	56.99
849.881	56.61
850.185	56.48
850.489	56.95
850.794	56.9
851.097	56.83
851.401	57.13
851.705	56.82
852.009	56.47
852.313	56.07
852.617	56.07
852.92	56.05
853.224	56.21
853.528	56.47
853.831	56.42
854.135	56.42
854.438	56.13
854.742	56.13
855.045	55.98
855.349	55.32
855.652	55.77
855.955	55.77
856.259	55.81
856.562	56.34
856.865	56.36
857.168	56.42
857.471	56.32
857.774	56.32
858.077	56.52
858.38	57.01
858.683	57.06
858.986	56.63
859.289	56.92
859.592	57
859.894	56.67
860.197	56.62
860.5	56.41
860.802	56.96
861.105	57.07
861.407	57.63
861.71	58.25
862.012	57.8
862.315	57.61
862.617	57.52
862.919	56.95
863.222	56.99
863.524	57.06
863.826	57.52
864.128	57.46
864.43	57.61
864.732	57.45
865.034	58.05
865.336	58.35
865.638	58.36
865.94	58.36
866.242	58.14
866.544	58.59
866.846	58.9
867.147	58.3
867.449	58.04
867.751	57.62
868.052	57.48
868.354	58.23
868.655	58.86
868.957	58.89
869.258	58.58
869.56	58.67
869.861	58.65
870.162	57.93
870.463	57.61
870.765	57.39
871.066	57.13
871.367	56.88
871.668	57
871.969	56.62
872.27	56.95
872.571	57.58
872.872	56.98
873.173	56.96
873.473	57.31
873.774	57.66
874.075	57.74
874.376	57.38
874.676	56.67
874.977	55.88
875.277	56.08
875.578	56.44
875.878	56.31
876.179	56.04
876.479	56.4
876.78	56.58
877.08	56.75
877.38	57.02
877.68	56.88
877.981	56.67
878.281	56.93
878.581	56.27
