Data from UWBM59333_Reflection_00005.txt Node
Date: Sun May 02 13:47:53 EDT 2021
User: vgr7
Spectrometer: USB2G7710
Scans to average: 10
Trigger mode: 4
Integration Time (sec): 1.000000E-1
Electric dark correction enabled: true
Boxcar width: 20
XAxis mode: Wavelengths
Number of Pixels in Spectrum: 2048
>>>>>Begin Spectral Data<<<<<
177.721	119.93
178.105	121.57
178.488	136.53
178.871	113.02
179.254	77.13
179.636	65.93
180.019	60.74
180.402	60.57
180.785	50.44
181.168	44.06
181.55	33.98
181.933	33.33
182.316	28.37
182.698	29.14
183.081	25.87
183.463	23.71
183.846	17.39
184.228	22.11
184.611	22.19
184.993	21.12
185.376	20.96
185.758	21.07
186.14	19.6
186.522	21.16
186.904	22.2
187.287	21.62
187.669	21.46
188.051	20.27
188.433	20.69
188.815	18.27
189.197	18.93
189.579	20.83
189.961	18.46
190.342	16.52
190.724	15.61
191.106	15.22
191.488	15.79
191.869	14.32
192.251	11.66
192.633	11.34
193.014	9.31
193.396	7.38
193.777	7.89
194.159	4.85
194.54	4.15
194.922	4.28
195.303	3.31
195.684	2.01
196.065	0.43
196.447	1.91
196.828	1.51
197.209	3.47
197.59	1.35
197.971	0.96
198.352	2.1
198.733	3.72
199.114	4.15
199.495	6.22
199.876	3.33
200.257	2.62
200.638	2.28
201.018	3.17
201.399	4.79
201.78	5.72
202.16	4.84
202.541	5.15
202.922	4.04
203.302	4.65
203.683	4.67
204.063	4.71
204.444	3.91
204.824	2.83
205.204	1.45
205.585	3.72
205.965	4.83
206.345	3.42
206.725	2.23
207.106	2.21
207.486	2.83
207.866	4
208.246	4.29
208.626	3.3
209.006	3.59
209.386	3.44
209.766	4.39
210.145	4.76
210.525	4.06
210.905	5.58
211.285	4.35
211.664	5.58
212.044	3.56
212.424	2.5
212.803	1.73
213.183	2.06
213.562	3.68
213.942	1.55
214.321	0.02
214.701	-0.12
215.08	-0.25
215.459	1.48
215.838	0.55
216.218	0.35
216.597	-1.56
216.976	-2
217.355	-2.27
217.734	-2.29
218.113	-2.41
218.492	-2.25
218.871	-3.05
219.25	-2.59
219.629	-1.38
220.008	-1.55
220.387	-1.38
220.766	0.4
221.144	-0.3
221.523	0.27
221.902	0.49
222.28	0.43
222.659	0.85
223.037	1.01
223.416	1.26
223.794	1.19
224.173	2.17
224.551	1.97
224.929	2.94
225.308	2.72
225.686	3.59
226.064	4.55
226.442	4.31
226.821	5.22
227.199	5.49
227.577	5.88
227.955	6.59
228.333	6.21
228.711	5.77
229.089	4.81
229.467	4.75
229.845	4.77
230.222	4.61
230.6	4.73
230.978	4.62
231.356	5.03
231.733	5.24
232.111	5.44
232.488	5.38
232.866	5.17
233.243	5.02
233.621	5.04
233.998	5.01
234.376	5.02
234.753	4.77
235.13	4.83
235.508	5.07
235.885	4.91
236.262	4.68
236.639	4.56
237.016	4.47
237.393	4.66
237.77	4.75
238.147	4.72
238.524	4.73
238.901	4.65
239.278	4.66
239.655	4.63
240.032	4.63
240.409	4.64
240.785	4.65
241.162	4.62
241.539	4.58
241.915	4.68
242.292	4.68
242.668	4.65
243.045	4.61
243.421	4.55
243.798	4.61
244.174	4.69
244.551	4.75
244.927	4.76
245.303	4.79
245.679	4.79
246.056	4.73
246.432	4.75
246.808	4.72
247.184	4.69
247.56	4.7
247.936	4.67
248.312	4.69
248.688	4.71
249.064	4.69
249.44	4.68
249.815	4.65
250.191	4.65
250.567	4.64
250.943	4.62
251.318	4.63
251.694	4.65
252.069	4.64
252.445	4.64
252.82	4.61
253.196	4.6
253.571	4.59
253.947	4.57
254.322	4.56
254.697	4.55
255.073	4.53
255.448	4.55
255.823	4.5
256.198	4.49
256.573	4.49
256.948	4.47
257.323	4.41
257.698	4.36
258.073	4.32
258.448	4.32
258.823	4.32
259.198	4.3
259.573	4.28
259.948	4.26
260.322	4.26
260.697	4.24
261.072	4.22
261.446	4.23
261.821	4.21
262.195	4.2
262.57	4.19
262.944	4.17
263.319	4.19
263.693	4.19
264.067	4.17
264.442	4.15
264.816	4.13
265.19	4.15
265.564	4.15
265.938	4.13
266.313	4.13
266.687	4.12
267.061	4.13
267.435	4.13
267.809	4.12
268.183	4.12
268.556	4.12
268.93	4.12
269.304	4.11
269.678	4.13
270.051	4.1
270.425	4.1
270.799	4.08
271.172	4.09
271.546	4.09
271.919	4.08
272.293	4.08
272.666	4.08
273.04	4.1
273.413	4.13
273.787	4.14
274.16	4.13
274.533	4.13
274.906	4.13
275.279	4.12
275.653	4.13
276.026	4.14
276.399	4.17
276.772	4.18
277.145	4.16
277.518	4.17
277.891	4.18
278.263	4.18
278.636	4.18
279.009	4.17
279.382	4.19
279.755	4.21
280.127	4.23
280.5	4.24
280.872	4.25
281.245	4.25
281.617	4.25
281.99	4.27
282.362	4.25
282.735	4.25
283.107	4.24
283.479	4.24
283.852	4.24
284.224	4.24
284.596	4.23
284.968	4.23
285.34	4.25
285.713	4.25
286.085	4.26
286.457	4.26
286.829	4.25
287.201	4.25
287.572	4.25
287.944	4.27
288.316	4.25
288.688	4.25
289.06	4.24
289.431	4.25
289.803	4.26
290.175	4.25
290.546	4.26
290.918	4.27
291.289	4.27
291.661	4.27
292.032	4.25
292.403	4.26
292.775	4.26
293.146	4.26
293.517	4.27
293.889	4.27
294.26	4.28
294.631	4.27
295.002	4.28
295.373	4.27
295.744	4.27
296.115	4.27
296.486	4.29
296.857	4.29
297.228	4.29
297.599	4.31
297.97	4.31
298.34	4.31
298.711	4.33
299.082	4.33
299.452	4.33
299.823	4.34
300.194	4.33
300.564	4.34
300.935	4.33
301.305	4.33
301.676	4.33
302.046	4.33
302.416	4.33
302.787	4.32
303.157	4.31
303.527	4.32
303.897	4.31
304.267	4.32
304.637	4.31
305.008	4.32
305.378	4.32
305.748	4.31
306.117	4.29
306.487	4.3
306.857	4.3
307.227	4.31
307.597	4.31
307.967	4.3
308.336	4.3
308.706	4.29
309.076	4.27
309.445	4.27
309.815	4.26
310.184	4.24
310.554	4.24
310.923	4.23
311.293	4.22
311.662	4.21
312.031	4.2
312.401	4.2
312.77	4.18
313.139	4.18
313.508	4.18
313.877	4.17
314.246	4.17
314.616	4.16
314.985	4.17
315.353	4.17
315.722	4.15
316.091	4.16
316.46	4.16
316.829	4.15
317.198	4.15
317.567	4.16
317.935	4.16
318.304	4.16
318.672	4.15
319.041	4.16
319.41	4.14
319.778	4.16
320.147	4.15
320.515	4.14
320.883	4.14
321.252	4.14
321.62	4.13
321.988	4.12
322.357	4.13
322.725	4.12
323.093	4.12
323.461	4.11
323.829	4.12
324.197	4.11
324.565	4.1
324.933	4.09
325.301	4.1
325.669	4.1
326.037	4.09
326.405	4.09
326.772	4.09
327.14	4.07
327.508	4.05
327.875	4.04
328.243	4.03
328.61	4.02
328.978	4
329.346	3.99
329.713	3.99
330.08	3.98
330.448	3.98
330.815	3.96
331.182	3.94
331.55	3.93
331.917	3.92
332.284	3.9
332.651	3.89
333.018	3.9
333.385	3.9
333.752	3.9
334.119	3.88
334.486	3.89
334.853	3.88
335.22	3.87
335.587	3.88
335.954	3.88
336.32	3.87
336.687	3.87
337.054	3.86
337.42	3.85
337.787	3.86
338.153	3.86
338.52	3.85
338.886	3.84
339.253	3.84
339.619	3.84
339.986	3.83
340.352	3.85
340.718	3.84
341.084	3.86
341.451	3.85
341.817	3.85
342.183	3.87
342.549	3.88
342.915	3.89
343.281	3.9
343.647	3.91
344.013	3.91
344.379	3.91
344.745	3.92
345.11	3.93
345.476	3.94
345.842	3.94
346.208	3.96
346.573	3.96
346.939	3.97
347.304	3.99
347.67	3.98
348.035	3.97
348.401	3.96
348.766	3.97
349.132	3.98
349.497	3.98
349.862	3.97
350.228	3.98
350.593	3.97
350.958	3.97
351.323	3.97
351.688	3.97
352.053	3.98
352.418	3.99
352.783	3.99
353.148	3.98
353.513	3.99
353.878	4
354.243	4
354.608	4.01
354.972	4.02
355.337	4.01
355.702	4.02
356.066	4.01
356.431	4.01
356.795	4
357.16	3.99
357.524	3.99
357.889	3.99
358.253	3.98
358.618	3.97
358.982	3.98
359.346	3.98
359.71	3.97
360.075	3.97
360.439	3.97
360.803	3.97
361.167	3.97
361.531	3.96
361.895	3.96
362.259	3.95
362.623	3.95
362.987	3.96
363.351	3.95
363.714	3.95
364.078	3.95
364.442	3.95
364.806	3.95
365.169	3.94
365.533	3.95
365.896	3.95
366.26	3.95
366.623	3.95
366.987	3.94
367.35	3.93
367.714	3.93
368.077	3.94
368.44	3.93
368.803	3.94
369.167	3.94
369.53	3.94
369.893	3.93
370.256	3.93
370.619	3.92
370.982	3.92
371.345	3.92
371.708	3.92
372.071	3.93
372.434	3.93
372.797	3.93
373.159	3.93
373.522	3.94
373.885	3.94
374.247	3.93
374.61	3.93
374.973	3.92
375.335	3.92
375.698	3.91
376.06	3.91
376.423	3.91
376.785	3.91
377.147	3.91
377.51	3.9
377.872	3.9
378.234	3.9
378.596	3.89
378.958	3.89
379.321	3.89
379.683	3.9
380.045	3.9
380.407	3.89
380.769	3.89
381.13	3.88
381.492	3.88
381.854	3.88
382.216	3.87
382.578	3.87
382.939	3.87
383.301	3.86
383.663	3.86
384.024	3.85
384.386	3.85
384.747	3.85
385.109	3.86
385.47	3.85
385.832	3.84
386.193	3.84
386.554	3.84
386.916	3.83
387.277	3.83
387.638	3.82
387.999	3.82
388.36	3.82
388.721	3.81
389.082	3.81
389.443	3.81
389.804	3.81
390.165	3.82
390.526	3.82
390.887	3.82
391.248	3.81
391.609	3.81
391.969	3.81
392.33	3.82
392.691	3.81
393.051	3.81
393.412	3.82
393.772	3.82
394.133	3.81
394.493	3.81
394.854	3.8
395.214	3.8
395.574	3.8
395.935	3.8
396.295	3.8
396.655	3.8
397.015	3.8
397.376	3.8
397.736	3.8
398.096	3.8
398.456	3.8
398.816	3.8
399.176	3.8
399.535	3.8
399.895	3.8
400.255	3.8
400.615	3.8
400.975	3.8
401.334	3.8
401.694	3.8
402.054	3.81
402.413	3.81
402.773	3.81
403.132	3.81
403.492	3.81
403.851	3.82
404.211	3.82
404.57	3.82
404.929	3.82
405.288	3.82
405.648	3.82
406.007	3.83
406.366	3.82
406.725	3.82
407.084	3.82
407.443	3.82
407.802	3.83
408.161	3.83
408.52	3.83
408.879	3.83
409.238	3.83
409.596	3.84
409.955	3.84
410.314	3.85
410.673	3.85
411.031	3.85
411.39	3.86
411.748	3.86
412.107	3.87
412.465	3.88
412.824	3.91
413.182	3.93
413.54	3.95
413.899	3.98
414.257	4.01
414.615	4.05
414.974	4.08
415.332	4.12
415.69	4.16
416.048	4.19
416.406	4.24
416.764	4.27
417.122	4.3
417.48	4.33
417.838	4.36
418.195	4.39
418.553	4.41
418.911	4.42
419.269	4.43
419.626	4.43
419.984	4.43
420.342	4.42
420.699	4.4
421.057	4.39
421.414	4.37
421.772	4.36
422.129	4.35
422.486	4.35
422.844	4.35
423.201	4.34
423.558	4.34
423.915	4.34
424.273	4.35
424.63	4.35
424.987	4.35
425.344	4.34
425.701	4.34
426.058	4.34
426.415	4.35
426.772	4.35
427.128	4.35
427.485	4.33
427.842	4.32
428.199	4.31
428.555	4.29
428.912	4.27
429.269	4.24
429.625	4.22
429.982	4.19
430.338	4.16
430.695	4.14
431.051	4.11
431.407	4.09
431.764	4.07
432.12	4.05
432.476	4.04
432.832	4.03
433.189	4.03
433.545	4.03
433.901	4.05
434.257	4.06
434.613	4.09
434.969	4.11
435.325	4.14
435.681	4.18
436.036	4.2
436.392	4.23
436.748	4.24
437.104	4.25
437.459	4.27
437.815	4.29
438.171	4.31
438.526	4.33
438.882	4.36
439.237	4.4
439.593	4.44
439.948	4.47
440.304	4.51
440.659	4.53
441.014	4.55
441.369	4.58
441.725	4.6
442.08	4.62
442.435	4.63
442.79	4.64
443.145	4.65
443.5	4.65
443.855	4.65
444.21	4.65
444.565	4.65
444.92	4.64
445.275	4.63
445.629	4.63
445.984	4.62
446.339	4.61
446.693	4.6
447.048	4.58
447.403	4.57
447.757	4.54
448.112	4.52
448.466	4.5
448.82	4.48
449.175	4.46
449.529	4.44
449.883	4.42
450.238	4.39
450.592	4.39
450.946	4.38
451.3	4.37
451.654	4.38
452.008	4.38
452.362	4.39
452.716	4.39
453.07	4.4
453.424	4.39
453.778	4.38
454.132	4.37
454.486	4.36
454.839	4.35
455.193	4.32
455.547	4.31
455.9	4.29
456.254	4.27
456.607	4.24
456.961	4.22
457.314	4.2
457.668	4.18
458.021	4.18
458.375	4.17
458.728	4.17
459.081	4.18
459.434	4.18
459.787	4.19
460.141	4.2
460.494	4.2
460.847	4.21
461.2	4.22
461.553	4.22
461.906	4.23
462.259	4.23
462.611	4.23
462.964	4.24
463.317	4.24
463.67	4.25
464.022	4.26
464.375	4.26
464.728	4.27
465.08	4.27
465.433	4.27
465.785	4.27
466.138	4.25
466.49	4.24
466.843	4.21
467.195	4.19
467.547	4.17
467.899	4.15
468.252	4.12
468.604	4.09
468.956	4.07
469.308	4.06
469.66	4.05
470.012	4.04
470.364	4.04
470.716	4.05
471.068	4.06
471.42	4.08
471.772	4.1
472.123	4.11
472.475	4.12
472.827	4.13
473.178	4.13
473.53	4.14
473.882	4.16
474.233	4.18
474.585	4.22
474.936	4.28
475.288	4.37
475.639	4.48
475.99	4.62
476.342	4.76
476.693	4.92
477.044	5.09
477.395	5.26
477.746	5.43
478.097	5.6
478.448	5.78
478.8	5.95
479.15	6.12
479.501	6.26
479.852	6.4
480.203	6.53
480.554	6.65
480.905	6.77
481.255	6.88
481.606	7
481.957	7.1
482.307	7.19
482.658	7.29
483.009	7.38
483.359	7.46
483.709	7.55
484.06	7.63
484.41	7.71
484.761	7.78
485.111	7.86
485.461	7.93
485.811	7.99
486.162	8.05
486.512	8.1
486.862	8.15
487.212	8.17
487.562	8.19
487.912	8.2
488.262	8.21
488.612	8.2
488.961	8.18
489.311	8.14
489.661	8.07
490.011	7.98
490.36	7.88
490.71	7.75
491.06	7.62
491.409	7.48
491.759	7.33
492.108	7.18
492.458	7.02
492.807	6.85
493.157	6.68
493.506	6.53
493.855	6.38
494.204	6.24
494.554	6.1
494.903	5.97
495.252	5.85
495.601	5.73
495.95	5.62
496.299	5.51
496.648	5.4
496.997	5.31
497.346	5.22
497.695	5.13
498.043	5.04
498.392	4.96
498.741	4.87
499.09	4.8
499.438	4.73
499.787	4.66
500.135	4.59
500.484	4.53
500.832	4.48
501.181	4.44
501.529	4.42
501.878	4.4
502.226	4.4
502.574	4.39
502.923	4.39
503.271	4.39
503.619	4.38
503.967	4.39
504.315	4.38
504.663	4.38
505.011	4.38
505.359	4.37
505.707	4.37
506.055	4.37
506.403	4.37
506.751	4.37
507.098	4.37
507.446	4.38
507.794	4.39
508.141	4.4
508.489	4.41
508.837	4.43
509.184	4.44
509.531	4.46
509.879	4.47
510.226	4.49
510.574	4.5
510.921	4.53
511.268	4.55
511.616	4.56
511.963	4.59
512.31	4.61
512.657	4.63
513.004	4.66
513.351	4.68
513.698	4.69
514.045	4.7
514.392	4.71
514.739	4.71
515.086	4.7
515.432	4.7
515.779	4.7
516.126	4.7
516.473	4.7
516.819	4.7
517.166	4.71
517.512	4.72
517.859	4.73
518.205	4.75
518.552	4.77
518.898	4.81
519.245	4.85
519.591	4.91
519.937	4.99
520.283	5.08
520.629	5.19
520.976	5.31
521.322	5.43
521.668	5.56
522.014	5.69
522.36	5.81
522.706	5.94
523.052	6.06
523.398	6.17
523.743	6.27
524.089	6.35
524.435	6.42
524.781	6.49
525.126	6.55
525.472	6.61
525.817	6.67
526.163	6.73
526.509	6.77
526.854	6.82
527.199	6.87
527.545	6.92
527.89	6.97
528.235	7.02
528.581	7.07
528.926	7.11
529.271	7.15
529.616	7.19
529.961	7.23
530.306	7.27
530.651	7.29
530.996	7.31
531.341	7.32
531.686	7.33
532.031	7.33
532.376	7.33
532.721	7.34
533.065	7.35
533.41	7.35
533.755	7.35
534.099	7.33
534.444	7.31
534.788	7.27
535.133	7.23
535.477	7.18
535.822	7.13
536.166	7.07
536.51	7
536.855	6.92
537.199	6.84
537.543	6.76
537.887	6.69
538.231	6.63
538.576	6.57
538.92	6.51
539.264	6.45
539.608	6.39
539.951	6.32
540.295	6.26
540.639	6.19
540.983	6.12
541.327	6.06
541.671	5.98
542.014	5.92
542.358	5.86
542.701	5.81
543.045	5.78
543.389	5.75
543.732	5.73
544.075	5.7
544.419	5.68
544.762	5.67
545.105	5.65
545.449	5.64
545.792	5.63
546.135	5.62
546.478	5.61
546.821	5.59
547.165	5.56
547.508	5.51
547.851	5.46
548.194	5.41
548.536	5.34
548.879	5.27
549.222	5.2
549.565	5.12
549.908	5.05
550.25	4.97
550.593	4.91
550.936	4.86
551.278	4.82
551.621	4.78
551.963	4.75
552.306	4.72
552.648	4.7
552.991	4.69
553.333	4.67
553.675	4.66
554.017	4.66
554.36	4.66
554.702	4.66
555.044	4.66
555.386	4.68
555.728	4.7
556.07	4.71
556.412	4.73
556.754	4.73
557.096	4.73
557.438	4.73
557.78	4.73
558.121	4.74
558.463	4.74
558.805	4.74
559.147	4.74
559.488	4.74
559.83	4.74
560.171	4.75
560.513	4.75
560.854	4.75
561.196	4.75
561.537	4.75
561.878	4.75
562.22	4.75
562.561	4.75
562.902	4.75
563.243	4.75
563.584	4.75
563.925	4.76
564.266	4.76
564.607	4.76
564.948	4.77
565.289	4.77
565.63	4.78
565.971	4.78
566.312	4.79
566.653	4.79
566.993	4.8
567.334	4.8
567.675	4.81
568.015	4.81
568.356	4.82
568.696	4.82
569.037	4.82
569.377	4.82
569.718	4.83
570.058	4.83
570.398	4.83
570.739	4.83
571.079	4.83
571.419	4.83
571.759	4.83
572.099	4.83
572.439	4.83
572.779	4.83
573.119	4.84
573.459	4.84
573.799	4.83
574.139	4.83
574.479	4.83
574.819	4.84
575.158	4.84
575.498	4.84
575.838	4.84
576.177	4.83
576.517	4.83
576.856	4.84
577.196	4.84
577.535	4.83
577.875	4.83
578.214	4.83
578.553	4.83
578.893	4.83
579.232	4.83
579.571	4.82
579.91	4.82
580.25	4.82
580.589	4.82
580.928	4.81
581.267	4.81
581.606	4.81
581.945	4.81
582.283	4.8
582.622	4.8
582.961	4.8
583.3	4.8
583.639	4.8
583.977	4.8
584.316	4.8
584.654	4.8
584.993	4.8
585.332	4.8
585.67	4.8
586.008	4.8
586.347	4.8
586.685	4.8
587.024	4.8
587.362	4.8
587.7	4.81
588.038	4.81
588.376	4.81
588.715	4.81
589.053	4.81
589.391	4.82
589.729	4.82
590.067	4.83
590.404	4.83
590.742	4.83
591.08	4.84
591.418	4.84
591.756	4.85
592.093	4.85
592.431	4.85
592.769	4.85
593.106	4.86
593.444	4.86
593.781	4.86
594.119	4.86
594.456	4.86
594.793	4.87
595.131	4.86
595.468	4.86
595.805	4.87
596.143	4.87
596.48	4.87
596.817	4.87
597.154	4.87
597.491	4.87
597.828	4.88
598.165	4.88
598.502	4.88
598.839	4.89
599.176	4.89
599.512	4.89
599.849	4.9
600.186	4.9
600.523	4.91
600.859	4.91
601.196	4.91
601.532	4.91
601.869	4.91
602.205	4.91
602.542	4.91
602.878	4.92
603.215	4.92
603.551	4.91
603.887	4.92
604.223	4.92
604.56	4.92
604.896	4.92
605.232	4.92
605.568	4.92
605.904	4.93
606.24	4.93
606.576	4.93
606.912	4.93
607.248	4.92
607.583	4.93
607.919	4.93
608.255	4.93
608.591	4.93
608.926	4.93
609.262	4.93
609.597	4.93
609.933	4.93
610.268	4.94
610.604	4.94
610.939	4.93
611.275	4.93
611.61	4.93
611.945	4.93
612.281	4.93
612.616	4.93
612.951	4.92
613.286	4.92
613.621	4.92
613.956	4.92
614.291	4.91
614.626	4.92
614.961	4.92
615.296	4.92
615.631	4.92
615.966	4.93
616.3	4.92
616.635	4.92
616.97	4.92
617.304	4.93
617.639	4.92
617.973	4.92
618.308	4.92
618.642	4.91
618.977	4.91
619.311	4.91
619.646	4.91
619.98	4.91
620.314	4.91
620.648	4.92
620.983	4.93
621.317	4.93
621.651	4.93
621.985	4.94
622.319	4.94
622.653	4.94
622.987	4.94
623.321	4.95
623.655	4.95
623.988	4.95
624.322	4.95
624.656	4.96
624.99	4.96
625.323	4.96
625.657	4.96
625.99	4.97
626.324	4.97
626.657	4.97
626.991	4.98
627.324	4.98
627.658	4.99
627.991	4.99
628.324	4.99
628.657	4.99
628.991	5
629.324	5.01
629.657	5.01
629.99	5.02
630.323	5.02
630.656	5.02
630.989	5.02
631.322	5.02
631.655	5.03
631.987	5.03
632.32	5.04
632.653	5.04
632.986	5.05
633.318	5.06
633.651	5.05
633.984	5.06
634.316	5.05
634.649	5.05
634.981	5.05
635.313	5.05
635.646	5.05
635.978	5.06
636.31	5.06
636.643	5.07
636.975	5.07
637.307	5.07
637.639	5.07
637.971	5.08
638.303	5.07
638.635	5.08
638.967	5.07
639.299	5.08
639.631	5.08
639.963	5.09
640.295	5.1
640.626	5.09
640.958	5.1
641.29	5.1
641.621	5.11
641.953	5.11
642.285	5.11
642.616	5.11
642.948	5.11
643.279	5.12
643.61	5.12
643.942	5.13
644.273	5.13
644.604	5.14
644.936	5.15
645.267	5.15
645.598	5.15
645.929	5.15
646.26	5.15
646.591	5.15
646.922	5.14
647.253	5.15
647.584	5.15
647.915	5.16
648.245	5.17
648.576	5.17
648.907	5.18
649.238	5.18
649.568	5.19
649.899	5.19
650.229	5.19
650.56	5.2
650.89	5.2
651.221	5.21
651.551	5.21
651.882	5.21
652.212	5.21
652.542	5.21
652.872	5.22
653.203	5.22
653.533	5.22
653.863	5.22
654.193	5.23
654.523	5.22
654.853	5.23
655.183	5.23
655.513	5.24
655.843	5.24
656.172	5.24
656.502	5.24
656.832	5.24
657.162	5.24
657.491	5.24
657.821	5.24
658.15	5.23
658.48	5.24
658.809	5.25
659.139	5.25
659.468	5.25
659.798	5.26
660.127	5.26
660.456	5.28
660.785	5.27
661.115	5.29
661.444	5.29
661.773	5.3
662.102	5.3
662.431	5.3
662.76	5.3
663.089	5.3
663.418	5.32
663.747	5.32
664.076	5.32
664.404	5.33
664.733	5.33
665.062	5.34
665.39	5.35
665.719	5.35
666.048	5.37
666.376	5.36
666.705	5.37
667.033	5.38
667.362	5.38
667.69	5.39
668.018	5.39
668.347	5.4
668.675	5.41
669.003	5.41
669.331	5.42
669.659	5.43
669.987	5.43
670.315	5.43
670.643	5.44
670.971	5.45
671.299	5.45
671.627	5.46
671.955	5.45
672.283	5.46
672.61	5.47
672.938	5.47
673.266	5.47
673.593	5.47
673.921	5.46
674.249	5.47
674.576	5.47
674.904	5.47
675.231	5.46
675.558	5.46
675.886	5.47
676.213	5.47
676.54	5.47
676.867	5.46
677.195	5.46
677.522	5.46
677.849	5.46
678.176	5.46
678.503	5.46
678.83	5.45
679.157	5.45
679.484	5.45
679.81	5.47
680.137	5.47
680.464	5.47
680.791	5.48
681.117	5.49
681.444	5.49
681.771	5.49
682.097	5.5
682.424	5.5
682.75	5.5
683.077	5.5
683.403	5.5
683.729	5.51
684.056	5.51
684.382	5.52
684.708	5.52
685.034	5.54
685.36	5.54
685.686	5.54
686.012	5.54
686.339	5.54
686.664	5.54
686.99	5.56
687.316	5.56
687.642	5.57
687.968	5.58
688.294	5.59
688.619	5.6
688.945	5.6
689.271	5.62
689.596	5.62
689.922	5.63
690.247	5.65
690.573	5.65
690.898	5.65
691.224	5.67
691.549	5.67
691.874	5.68
692.2	5.7
692.525	5.7
692.85	5.71
693.175	5.71
693.5	5.73
693.825	5.74
694.15	5.74
694.475	5.73
694.8	5.74
695.125	5.74
695.45	5.74
695.775	5.75
696.099	5.75
696.424	5.76
696.749	5.76
697.073	5.76
697.398	5.77
697.723	5.78
698.047	5.78
698.372	5.79
698.696	5.8
699.02	5.8
699.345	5.81
699.669	5.83
699.993	5.85
700.318	5.85
700.642	5.85
700.966	5.85
701.29	5.85
701.614	5.85
701.938	5.86
702.262	5.86
702.586	5.86
702.91	5.86
703.234	5.86
703.557	5.87
703.881	5.87
704.205	5.87
704.529	5.88
704.852	5.9
705.176	5.89
705.499	5.89
705.823	5.89
706.146	5.9
706.47	5.9
706.793	5.9
707.117	5.91
707.44	5.91
707.763	5.93
708.086	5.94
708.409	5.94
708.733	5.95
709.056	5.95
709.379	5.96
709.702	5.97
710.025	5.98
710.348	5.98
710.671	5.97
710.993	5.98
711.316	5.98
711.639	5.99
711.962	5.99
712.284	6.01
712.607	6.01
712.93	5.99
713.252	5.99
713.575	6.01
713.897	6.02
714.22	6.01
714.542	6.02
714.864	6.01
715.187	6.02
715.509	6.04
715.831	6.04
716.153	6.06
716.475	6.08
716.798	6.06
717.12	6.07
717.442	6.09
717.764	6.09
718.085	6.08
718.407	6.11
718.729	6.12
719.051	6.12
719.373	6.11
719.695	6.12
720.016	6.11
720.338	6.1
720.659	6.11
720.981	6.12
721.302	6.11
721.624	6.11
721.945	6.12
722.267	6.12
722.588	6.13
722.909	6.12
723.231	6.12
723.552	6.12
723.873	6.14
724.194	6.15
724.515	6.17
724.836	6.17
725.157	6.18
725.478	6.17
725.799	6.18
726.12	6.2
726.441	6.19
726.762	6.18
727.083	6.18
727.403	6.19
727.724	6.19
728.045	6.21
728.365	6.23
728.686	6.24
729.006	6.25
729.327	6.26
729.647	6.27
729.967	6.28
730.288	6.3
730.608	6.3
730.928	6.31
731.249	6.34
731.569	6.34
731.889	6.34
732.209	6.35
732.529	6.35
732.849	6.38
733.169	6.4
733.489	6.43
733.809	6.43
734.129	6.45
734.448	6.46
734.768	6.47
735.088	6.48
735.408	6.48
735.727	6.48
736.047	6.49
736.366	6.51
736.686	6.54
737.005	6.55
737.325	6.55
737.644	6.53
737.963	6.53
738.283	6.52
738.602	6.52
738.921	6.54
739.24	6.56
739.56	6.58
739.879	6.59
740.198	6.61
740.517	6.63
740.836	6.61
741.155	6.6
741.473	6.6
741.792	6.59
742.111	6.57
742.43	6.57
742.748	6.57
743.067	6.59
743.386	6.62
743.704	6.62
744.023	6.61
744.341	6.59
744.66	6.59
744.978	6.6
745.297	6.62
745.615	6.64
745.933	6.64
746.252	6.64
746.57	6.65
746.888	6.67
747.206	6.66
747.524	6.67
747.842	6.69
748.16	6.69
748.478	6.7
748.796	6.71
749.114	6.71
749.432	6.72
749.749	6.71
750.067	6.7
750.385	6.73
750.703	6.76
751.02	6.77
751.338	6.79
751.655	6.82
751.973	6.83
752.29	6.83
752.608	6.87
752.925	6.87
753.242	6.87
753.56	6.89
753.877	6.92
754.194	6.93
754.511	6.92
754.828	6.95
755.145	6.98
755.462	7
755.779	7.02
756.096	7.02
756.413	7.01
756.73	7.03
757.047	7.03
757.364	7.03
757.68	7.07
757.997	7.09
758.314	7.1
758.63	7.11
758.947	7.1
759.264	7.11
759.58	7.13
759.896	7.14
760.213	7.15
760.529	7.16
760.846	7.17
761.162	7.18
761.478	7.17
761.794	7.2
762.11	7.23
762.426	7.25
762.743	7.25
763.059	7.22
763.375	7.24
763.69	7.25
764.006	7.27
764.322	7.28
764.638	7.29
764.954	7.29
765.27	7.31
765.585	7.3
765.901	7.32
766.216	7.34
766.532	7.35
766.848	7.37
767.163	7.39
767.478	7.39
767.794	7.42
768.109	7.42
768.424	7.42
768.74	7.43
769.055	7.43
769.37	7.43
769.685	7.43
770	7.46
770.315	7.51
770.63	7.51
770.945	7.51
771.26	7.52
771.575	7.52
771.89	7.55
772.205	7.56
772.52	7.54
772.834	7.54
773.149	7.54
773.464	7.55
773.778	7.53
774.093	7.54
774.407	7.57
774.722	7.55
775.036	7.55
775.351	7.6
775.665	7.63
775.979	7.71
776.293	7.69
776.608	7.7
776.922	7.72
777.236	7.73
777.55	7.72
777.864	7.73
778.178	7.71
778.492	7.7
778.806	7.69
779.12	7.67
779.434	7.67
779.747	7.66
780.061	7.66
780.375	7.68
780.689	7.66
781.002	7.67
781.316	7.66
781.629	7.66
781.943	7.67
782.256	7.72
782.57	7.73
782.883	7.74
783.196	7.73
783.51	7.73
783.823	7.73
784.136	7.71
784.449	7.74
784.762	7.73
785.075	7.73
785.388	7.73
785.701	7.72
786.014	7.75
786.327	7.77
786.64	7.78
786.953	7.83
787.266	7.85
787.578	7.88
787.891	7.87
788.204	7.83
788.516	7.85
788.829	7.83
789.141	7.84
789.454	7.81
789.766	7.81
790.079	7.83
790.391	7.81
790.703	7.84
791.016	7.9
791.328	7.9
791.64	7.9
791.952	7.94
792.264	7.91
792.576	7.89
792.888	7.93
793.2	8
793.512	8
793.824	8.02
794.136	8
794.448	7.98
794.76	8.03
795.071	8.01
795.383	8.01
795.695	8.05
796.006	8.04
796.318	8.04
796.629	8.07
796.941	8.08
797.252	8.1
797.564	8.1
797.875	8.11
798.186	8.18
798.497	8.21
798.809	8.2
799.12	8.21
799.431	8.24
799.742	8.22
800.053	8.23
800.364	8.24
800.675	8.23
800.986	8.26
801.297	8.29
801.608	8.29
801.918	8.29
802.229	8.33
802.54	8.32
802.851	8.31
803.161	8.35
803.472	8.35
803.782	8.34
804.093	8.36
804.403	8.41
804.714	8.42
805.024	8.47
805.334	8.47
805.645	8.44
805.955	8.42
806.265	8.41
806.575	8.4
806.885	8.47
807.195	8.55
807.505	8.54
807.815	8.59
808.125	8.63
808.435	8.62
808.745	8.64
809.055	8.67
809.365	8.69
809.674	8.71
809.984	8.73
810.294	8.82
810.603	8.82
810.913	8.77
811.222	8.78
811.532	8.78
811.841	8.77
812.151	8.78
812.46	8.78
812.769	8.74
813.079	8.81
813.388	8.85
813.697	8.85
814.006	8.84
814.315	8.85
814.624	8.94
814.933	8.95
815.242	9
815.551	8.98
815.86	9
816.169	9
816.478	9.02
816.786	9.04
817.095	9.05
817.404	9.04
817.712	9.04
818.021	9.08
818.33	9.11
818.638	9.13
818.947	9.16
819.255	9.18
819.563	9.18
819.872	9.18
820.18	9.18
820.488	9.17
820.796	9.16
821.105	9.15
821.413	9.16
821.721	9.18
822.029	9.19
822.337	9.18
822.645	9.18
822.953	9.18
823.26	9.18
823.568	9.2
823.876	9.21
824.184	9.23
824.491	9.24
824.799	9.23
825.107	9.24
825.414	9.26
825.722	9.24
826.029	9.26
826.337	9.26
826.644	9.27
826.951	9.28
827.259	9.27
827.566	9.26
827.873	9.24
828.18	9.27
828.488	9.26
828.795	9.25
829.102	9.25
829.409	9.27
829.716	9.29
830.023	9.3
830.329	9.33
830.636	9.34
830.943	9.35
831.25	9.36
831.557	9.37
831.863	9.4
832.17	9.4
832.476	9.39
832.783	9.39
833.089	9.4
833.396	9.4
833.702	9.4
834.009	9.41
834.315	9.4
834.621	9.41
834.928	9.42
835.234	9.43
835.54	9.41
835.846	9.41
836.152	9.36
836.458	9.35
836.764	9.35
837.07	9.35
837.376	9.38
837.682	9.38
837.988	9.34
838.293	9.36
838.599	9.36
838.905	9.29
839.211	9.29
839.516	9.29
839.822	9.27
840.127	9.31
840.433	9.37
840.738	9.36
841.044	9.38
841.349	9.4
841.654	9.4
841.959	9.34
842.265	9.37
842.57	9.42
842.875	9.38
843.18	9.35
843.485	9.34
843.79	9.35
844.095	9.33
844.4	9.29
844.705	9.42
845.01	9.37
845.315	9.42
845.619	9.4
845.924	9.4
846.229	9.44
846.533	9.47
846.838	9.5
847.142	9.47
847.447	9.55
847.751	9.57
848.056	9.62
848.36	9.77
848.664	9.88
848.969	9.96
849.273	10.04
849.577	10.11
849.881	10.22
850.185	10.26
850.489	10.26
850.794	10.41
851.097	10.47
851.401	10.63
851.705	10.64
852.009	10.67
852.313	10.77
852.617	10.74
852.92	10.79
853.224	10.83
853.528	10.74
853.831	10.84
854.135	10.95
854.438	10.97
854.742	10.86
855.045	10.83
855.349	10.97
855.652	11.03
855.955	11.07
856.259	11.05
856.562	11.17
856.865	11.2
857.168	11.06
857.471	11.24
857.774	11.16
858.077	11.08
858.38	11.25
858.683	11.46
858.986	11.63
859.289	11.55
859.592	11.64
859.894	11.8
860.197	11.71
860.5	11.81
860.802	11.81
861.105	11.9
861.407	11.82
861.71	11.57
862.012	11.51
862.315	11.53
862.617	11.56
862.919	11.77
863.222	11.62
863.524	11.63
863.826	11.8
864.128	11.75
864.43	11.78
864.732	11.8
865.034	11.91
865.336	11.87
865.638	11.9
865.94	11.97
866.242	11.9
866.544	12.02
866.846	12.15
867.147	12.05
867.449	12
867.751	11.94
868.052	12.09
868.354	11.94
868.655	11.94
868.957	11.86
869.258	11.86
869.56	11.97
869.861	12.11
870.162	12.29
870.463	12.5
870.765	12.43
871.066	12.36
871.367	12.21
871.668	12.31
871.969	12.38
872.27	12.3
872.571	12.52
872.872	12.45
873.173	12.46
873.473	12.39
873.774	12.47
874.075	12.72
874.376	12.79
874.676	12.74
874.977	12.85
875.277	12.78
875.578	12.86
875.878	12.77
876.179	12.56
876.479	12.64
876.78	12.7
877.08	12.73
877.38	12.69
877.68	12.85
877.981	12.83
878.281	12.98
878.581	13.14
