Data from UWBM41002_Reflection_00010.txt Node
Date: Sun May 02 14:14:50 EDT 2021
User: vgr7
Spectrometer: USB2G7710
Scans to average: 10
Trigger mode: 4
Integration Time (sec): 1.000000E-1
Electric dark correction enabled: true
Boxcar width: 20
XAxis mode: Wavelengths
Number of Pixels in Spectrum: 2048
>>>>>Begin Spectral Data<<<<<
177.721	154.91
178.105	126.47
178.488	120.13
178.871	110.78
179.254	101.92
179.636	61.11
180.019	53.72
180.402	36.98
180.785	36.92
181.168	33.43
181.55	27.16
181.933	27.18
182.316	25.63
182.698	23.13
183.081	19.16
183.463	16.09
183.846	12.85
184.228	14.94
184.611	18.04
184.993	18.01
185.376	15.99
185.758	18.32
186.14	22.56
186.522	23.52
186.904	22.31
187.287	19.7
187.669	19.07
188.051	18.89
188.433	18.16
188.815	16.04
189.197	17.33
189.579	18.88
189.961	18.73
190.342	18.37
190.724	18.13
191.106	19.97
191.488	19.06
191.869	17.81
192.251	16.47
192.633	15.29
193.014	15.72
193.396	12.51
193.777	13.62
194.159	14.48
194.54	14.49
194.922	11.27
195.303	11.59
195.684	10.42
196.065	12.4
196.447	12.52
196.828	12.38
197.209	12.7
197.59	11.81
197.971	10.13
198.352	12.27
198.733	13.38
199.114	13.88
199.495	15.51
199.876	14.25
200.257	12.57
200.638	11.14
201.018	12.7
201.399	14.87
201.78	13.86
202.16	13.67
202.541	13.28
202.922	13.53
203.302	14.05
203.683	14.78
204.063	13.53
204.444	13.29
204.824	13.11
205.204	10.76
205.585	11.75
205.965	11.37
206.345	11.31
206.725	10.47
207.106	11.33
207.486	11.56
207.866	12.77
208.246	12.52
208.626	11.57
209.006	11.77
209.386	11.53
209.766	11.24
210.145	11.12
210.525	13.28
210.905	15.48
211.285	14.71
211.664	13.82
212.044	12.9
212.424	12.25
212.803	11.94
213.183	11.28
213.562	13.57
213.942	11.34
214.321	9.78
214.701	9.17
215.08	8.87
215.459	10.09
215.838	10.57
216.218	9.56
216.597	8.38
216.976	7.15
217.355	6.16
217.734	6.2
218.113	6.44
218.492	7.31
218.871	7.02
219.25	7.24
219.629	8.17
220.008	8.82
220.387	8.06
220.766	9.84
221.144	9.37
221.523	9.29
221.902	9.86
222.28	9.38
222.659	8.88
223.037	8.25
223.416	8.47
223.794	8.23
224.173	8.07
224.551	7.62
224.929	7.92
225.308	7.57
225.686	7.42
226.064	7.03
226.442	6.69
226.821	7.56
227.199	7.95
227.577	8.18
227.955	8.56
228.333	8.84
228.711	8.34
229.089	7.69
229.467	7.72
229.845	8.05
230.222	7.97
230.6	7.94
230.978	7.4
231.356	7.52
231.733	7.69
232.111	7.36
232.488	7.15
232.866	7.06
233.243	6.7
233.621	6.67
233.998	6.62
234.376	6.51
234.753	6.21
235.13	6.13
235.508	6.13
235.885	6.07
236.262	5.97
236.639	5.92
237.016	5.82
237.393	5.77
237.77	5.74
238.147	5.69
238.524	5.72
238.901	5.62
239.278	5.62
239.655	5.62
240.032	5.6
240.409	5.6
240.785	5.59
241.162	5.57
241.539	5.54
241.915	5.53
242.292	5.48
242.668	5.44
243.045	5.38
243.421	5.32
243.798	5.32
244.174	5.36
244.551	5.38
244.927	5.38
245.303	5.36
245.679	5.36
246.056	5.31
246.432	5.33
246.808	5.28
247.184	5.31
247.56	5.37
247.936	5.36
248.312	5.36
248.688	5.33
249.064	5.32
249.44	5.3
249.815	5.26
250.191	5.22
250.567	5.21
250.943	5.17
251.318	5.14
251.694	5.11
252.069	5.06
252.445	5.05
252.82	5.01
253.196	4.98
253.571	4.95
253.947	4.9
254.322	4.87
254.697	4.86
255.073	4.85
255.448	4.83
255.823	4.76
256.198	4.73
256.573	4.69
256.948	4.7
257.323	4.65
257.698	4.61
258.073	4.59
258.448	4.59
258.823	4.58
259.198	4.56
259.573	4.53
259.948	4.53
260.322	4.54
260.697	4.53
261.072	4.53
261.446	4.52
261.821	4.49
262.195	4.48
262.57	4.47
262.944	4.45
263.319	4.45
263.693	4.44
264.067	4.46
264.442	4.44
264.816	4.41
265.19	4.42
265.564	4.44
265.938	4.43
266.313	4.45
266.687	4.44
267.061	4.45
267.435	4.47
267.809	4.46
268.183	4.46
268.556	4.46
268.93	4.46
269.304	4.48
269.678	4.48
270.051	4.47
270.425	4.45
270.799	4.44
271.172	4.46
271.546	4.46
271.919	4.47
272.293	4.46
272.666	4.47
273.04	4.48
273.413	4.51
273.787	4.52
274.16	4.53
274.533	4.53
274.906	4.54
275.279	4.52
275.653	4.51
276.026	4.52
276.399	4.53
276.772	4.54
277.145	4.54
277.518	4.56
277.891	4.56
278.263	4.55
278.636	4.58
279.009	4.58
279.382	4.58
279.755	4.59
280.127	4.63
280.5	4.64
280.872	4.65
281.245	4.64
281.617	4.63
281.99	4.64
282.362	4.63
282.735	4.62
283.107	4.64
283.479	4.64
283.852	4.67
284.224	4.68
284.596	4.68
284.968	4.69
285.34	4.7
285.713	4.72
286.085	4.76
286.457	4.77
286.829	4.8
287.201	4.83
287.572	4.85
287.944	4.86
288.316	4.87
288.688	4.89
289.06	4.9
289.431	4.91
289.803	4.95
290.175	4.98
290.546	5.02
290.918	5.06
291.289	5.09
291.661	5.12
292.032	5.14
292.403	5.18
292.775	5.21
293.146	5.25
293.517	5.3
293.889	5.32
294.26	5.37
294.631	5.41
295.002	5.45
295.373	5.48
295.744	5.52
296.115	5.55
296.486	5.61
296.857	5.66
297.228	5.72
297.599	5.77
297.97	5.83
298.34	5.86
298.711	5.92
299.082	5.97
299.452	6.02
299.823	6.06
300.194	6.11
300.564	6.16
300.935	6.21
301.305	6.25
301.676	6.3
302.046	6.34
302.416	6.38
302.787	6.42
303.157	6.49
303.527	6.56
303.897	6.62
304.267	6.7
304.637	6.77
305.008	6.83
305.378	6.89
305.748	6.96
306.117	7.02
306.487	7.09
306.857	7.15
307.227	7.24
307.597	7.32
307.967	7.37
308.336	7.43
308.706	7.47
309.076	7.52
309.445	7.58
309.815	7.64
310.184	7.7
310.554	7.75
310.923	7.82
311.293	7.88
311.662	7.93
312.031	8
312.401	8.05
312.77	8.11
313.139	8.15
313.508	8.21
313.877	8.25
314.246	8.3
314.616	8.34
314.985	8.4
315.353	8.47
315.722	8.51
316.091	8.57
316.46	8.62
316.829	8.69
317.198	8.76
317.567	8.82
317.935	8.9
318.304	8.96
318.672	9.01
319.041	9.08
319.41	9.13
319.778	9.19
320.147	9.26
320.515	9.3
320.883	9.34
321.252	9.41
321.62	9.46
321.988	9.51
322.357	9.55
322.725	9.6
323.093	9.65
323.461	9.69
323.829	9.75
324.197	9.82
324.565	9.85
324.933	9.89
325.301	9.93
325.669	9.97
326.037	10
326.405	10.03
326.772	10.06
327.14	10.09
327.508	10.12
327.875	10.17
328.243	10.2
328.61	10.22
328.978	10.26
329.346	10.29
329.713	10.34
330.08	10.38
330.448	10.39
330.815	10.42
331.182	10.43
331.55	10.47
331.917	10.49
332.284	10.49
332.651	10.53
333.018	10.56
333.385	10.59
333.752	10.64
334.119	10.66
334.486	10.68
334.853	10.72
335.22	10.75
335.587	10.78
335.954	10.82
336.32	10.83
336.687	10.85
337.054	10.87
337.42	10.89
337.787	10.9
338.153	10.92
338.52	10.94
338.886	10.96
339.253	10.98
339.619	11.01
339.986	11.02
340.352	11.04
340.718	11.06
341.084	11.07
341.451	11.09
341.817	11.11
342.183	11.12
342.549	11.13
342.915	11.13
343.281	11.14
343.647	11.17
344.013	11.18
344.379	11.2
344.745	11.2
345.11	11.22
345.476	11.24
345.842	11.26
346.208	11.29
346.573	11.28
346.939	11.29
347.304	11.32
347.67	11.31
348.035	11.32
348.401	11.33
348.766	11.33
349.132	11.34
349.497	11.35
349.862	11.35
350.228	11.34
350.593	11.35
350.958	11.35
351.323	11.36
351.688	11.36
352.053	11.36
352.418	11.35
352.783	11.35
353.148	11.35
353.513	11.34
353.878	11.33
354.243	11.32
354.608	11.31
354.972	11.31
355.337	11.29
355.702	11.28
356.066	11.27
356.431	11.26
356.795	11.24
357.16	11.22
357.524	11.22
357.889	11.21
358.253	11.2
358.618	11.17
358.982	11.15
359.346	11.13
359.71	11.11
360.075	11.09
360.439	11.06
360.803	11.04
361.167	11.01
361.531	10.99
361.895	10.97
362.259	10.94
362.623	10.9
362.987	10.87
363.351	10.84
363.714	10.8
364.078	10.77
364.442	10.74
364.806	10.7
365.169	10.67
365.533	10.63
365.896	10.59
366.26	10.55
366.623	10.51
366.987	10.47
367.35	10.42
367.714	10.37
368.077	10.32
368.44	10.27
368.803	10.22
369.167	10.16
369.53	10.09
369.893	10.02
370.256	9.96
370.619	9.9
370.982	9.83
371.345	9.77
371.708	9.71
372.071	9.65
372.434	9.58
372.797	9.51
373.159	9.44
373.522	9.38
373.885	9.32
374.247	9.25
374.61	9.19
374.973	9.11
375.335	9.05
375.698	8.98
376.06	8.91
376.423	8.84
376.785	8.77
377.147	8.7
377.51	8.64
377.872	8.58
378.234	8.52
378.596	8.46
378.958	8.39
379.321	8.32
379.683	8.25
380.045	8.19
380.407	8.14
380.769	8.07
381.13	8.01
381.492	7.95
381.854	7.89
382.216	7.84
382.578	7.78
382.939	7.73
383.301	7.67
383.663	7.61
384.024	7.56
384.386	7.51
384.747	7.46
385.109	7.41
385.47	7.35
385.832	7.29
386.193	7.24
386.554	7.19
386.916	7.14
387.277	7.09
387.638	7.04
387.999	7
388.36	6.96
388.721	6.92
389.082	6.87
389.443	6.83
389.804	6.79
390.165	6.74
390.526	6.7
390.887	6.66
391.248	6.62
391.609	6.58
391.969	6.55
392.33	6.5
392.691	6.46
393.051	6.42
393.412	6.38
393.772	6.34
394.133	6.29
394.493	6.25
394.854	6.21
395.214	6.17
395.574	6.13
395.935	6.09
396.295	6.04
396.655	6
397.015	5.96
397.376	5.91
397.736	5.88
398.096	5.84
398.456	5.79
398.816	5.75
399.176	5.71
399.535	5.68
399.895	5.64
400.255	5.6
400.615	5.57
400.975	5.54
401.334	5.5
401.694	5.46
402.054	5.43
402.413	5.4
402.773	5.37
403.132	5.34
403.492	5.31
403.851	5.29
404.211	5.27
404.57	5.25
404.929	5.22
405.288	5.2
405.648	5.18
406.007	5.16
406.366	5.14
406.725	5.11
407.084	5.1
407.443	5.08
407.802	5.07
408.161	5.05
408.52	5.03
408.879	5.02
409.238	5.01
409.596	4.99
409.955	4.98
410.314	4.97
410.673	4.95
411.031	4.94
411.39	4.93
411.748	4.92
412.107	4.92
412.465	4.91
412.824	4.92
413.182	4.93
413.54	4.94
413.899	4.96
414.257	4.98
414.615	5.01
414.974	5.03
415.332	5.05
415.69	5.08
416.048	5.1
416.406	5.13
416.764	5.15
417.122	5.17
417.48	5.19
417.838	5.21
418.195	5.22
418.553	5.24
418.911	5.24
419.269	5.23
419.626	5.22
419.984	5.2
420.342	5.18
420.699	5.15
421.057	5.12
421.414	5.09
421.772	5.06
422.129	5.04
422.486	5.03
422.844	5.01
423.201	5
423.558	4.99
423.915	4.98
424.273	4.97
424.63	4.96
424.987	4.95
425.344	4.94
425.701	4.92
426.058	4.91
426.415	4.9
426.772	4.89
427.128	4.87
427.485	4.85
427.842	4.83
428.199	4.81
428.555	4.78
428.912	4.74
429.269	4.7
429.625	4.67
429.982	4.64
430.338	4.6
430.695	4.57
431.051	4.52
431.407	4.5
431.764	4.47
432.12	4.45
432.476	4.43
432.832	4.42
433.189	4.42
433.545	4.42
433.901	4.43
434.257	4.44
434.613	4.47
434.969	4.49
435.325	4.52
435.681	4.56
436.036	4.59
436.392	4.61
436.748	4.63
437.104	4.64
437.459	4.66
437.815	4.68
438.171	4.7
438.526	4.73
438.882	4.76
439.237	4.8
439.593	4.84
439.948	4.87
440.304	4.91
440.659	4.93
441.014	4.95
441.369	4.98
441.725	5
442.08	5.02
442.435	5.03
442.79	5.03
443.145	5.03
443.5	5.03
443.855	5.03
444.21	5.03
444.565	5.02
444.92	5.01
445.275	4.99
445.629	4.98
445.984	4.96
446.339	4.95
446.693	4.93
447.048	4.91
447.403	4.89
447.757	4.86
448.112	4.83
448.466	4.8
448.82	4.77
449.175	4.74
449.529	4.71
449.883	4.69
450.238	4.66
450.592	4.64
450.946	4.63
451.3	4.62
451.654	4.62
452.008	4.62
452.362	4.62
452.716	4.62
453.07	4.61
453.424	4.6
453.778	4.59
454.132	4.58
454.486	4.56
454.839	4.54
455.193	4.51
455.547	4.5
455.9	4.47
456.254	4.45
456.607	4.42
456.961	4.39
457.314	4.37
457.668	4.36
458.021	4.35
458.375	4.34
458.728	4.35
459.081	4.35
459.434	4.36
459.787	4.37
460.141	4.39
460.494	4.4
460.847	4.42
461.2	4.43
461.553	4.43
461.906	4.44
462.259	4.45
462.611	4.46
462.964	4.47
463.317	4.48
463.67	4.5
464.022	4.51
464.375	4.52
464.728	4.54
465.08	4.54
465.433	4.56
465.785	4.56
466.138	4.56
466.49	4.55
466.843	4.53
467.195	4.52
467.547	4.5
467.899	4.49
468.252	4.47
468.604	4.45
468.956	4.44
469.308	4.43
469.66	4.44
470.012	4.44
470.364	4.46
470.716	4.47
471.068	4.49
471.42	4.52
471.772	4.55
472.123	4.56
472.475	4.58
472.827	4.6
473.178	4.61
473.53	4.62
473.882	4.64
474.233	4.67
474.585	4.71
474.936	4.78
475.288	4.88
475.639	5
475.99	5.14
476.342	5.3
476.693	5.48
477.044	5.65
477.395	5.83
477.746	6.02
478.097	6.2
478.448	6.39
478.8	6.57
479.15	6.74
479.501	6.9
479.852	7.03
480.203	7.17
480.554	7.29
480.905	7.41
481.255	7.52
481.606	7.63
481.957	7.74
482.307	7.83
482.658	7.92
483.009	8.01
483.359	8.1
483.709	8.18
484.06	8.26
484.41	8.34
484.761	8.42
485.111	8.49
485.461	8.56
485.811	8.63
486.162	8.69
486.512	8.74
486.862	8.78
487.212	8.81
487.562	8.83
487.912	8.84
488.262	8.85
488.612	8.84
488.961	8.82
489.311	8.78
489.661	8.71
490.011	8.62
490.36	8.51
490.71	8.38
491.06	8.25
491.409	8.11
491.759	7.96
492.108	7.81
492.458	7.64
492.807	7.48
493.157	7.31
493.506	7.16
493.855	7.02
494.204	6.89
494.554	6.76
494.903	6.65
495.252	6.55
495.601	6.45
495.95	6.36
496.299	6.28
496.648	6.21
496.997	6.14
497.346	6.08
497.695	6.03
498.043	5.98
498.392	5.93
498.741	5.9
499.09	5.87
499.438	5.84
499.787	5.83
500.135	5.82
500.484	5.82
500.832	5.84
501.181	5.87
501.529	5.92
501.878	5.99
502.226	6.07
502.574	6.16
502.923	6.26
503.271	6.36
503.619	6.47
503.967	6.58
504.315	6.68
504.663	6.79
505.011	6.91
505.359	7.03
505.707	7.15
506.055	7.27
506.403	7.4
506.751	7.55
507.098	7.69
507.446	7.83
507.794	7.98
508.141	8.14
508.489	8.31
508.837	8.49
509.184	8.66
509.531	8.85
509.879	9.04
510.226	9.25
510.574	9.46
510.921	9.68
511.268	9.91
511.616	10.15
511.963	10.39
512.31	10.64
512.657	10.88
513.004	11.12
513.351	11.35
513.698	11.57
514.045	11.78
514.392	11.97
514.739	12.16
515.086	12.33
515.432	12.51
515.779	12.69
516.126	12.87
516.473	13.06
516.819	13.27
517.166	13.49
517.512	13.73
517.859	14
518.205	14.28
518.552	14.58
518.898	14.9
519.245	15.27
519.591	15.71
519.937	16.23
520.283	16.82
520.629	17.47
520.976	18.15
521.322	18.85
521.668	19.58
522.014	20.31
522.36	21.04
522.706	21.75
523.052	22.44
523.398	23.1
523.743	23.71
524.089	24.25
524.435	24.76
524.781	25.26
525.126	25.75
525.472	26.22
525.817	26.68
526.163	27.14
526.509	27.58
526.854	28.03
527.199	28.47
527.545	28.9
527.89	29.35
528.235	29.8
528.581	30.22
528.926	30.63
529.271	31.01
529.616	31.38
529.961	31.74
530.306	32.08
530.651	32.38
530.996	32.67
531.341	32.92
531.686	33.16
532.031	33.37
532.376	33.62
532.721	33.88
533.065	34.18
533.41	34.48
533.755	34.75
534.099	34.98
534.444	35.18
534.788	35.34
535.133	35.48
535.477	35.6
535.822	35.69
536.166	35.74
536.51	35.74
536.855	35.68
537.199	35.59
537.543	35.48
537.887	35.42
538.231	35.4
538.576	35.38
538.92	35.36
539.264	35.32
539.608	35.26
539.951	35.18
540.295	35.09
540.639	34.99
540.983	34.86
541.327	34.73
541.671	34.58
542.014	34.46
542.358	34.35
542.701	34.32
543.045	34.35
543.389	34.42
543.732	34.52
544.075	34.62
544.419	34.74
544.762	34.88
545.105	35.02
545.449	35.19
545.792	35.36
546.135	35.53
546.478	35.66
546.821	35.74
547.165	35.76
547.508	35.73
547.851	35.64
548.194	35.51
548.536	35.33
548.879	35.12
549.222	34.89
549.565	34.65
549.908	34.41
550.25	34.19
550.593	34.04
550.936	33.96
551.278	33.93
551.621	33.94
551.963	33.98
552.306	34.04
552.648	34.12
552.991	34.24
553.333	34.37
553.675	34.54
554.017	34.74
554.36	34.96
554.702	35.22
555.044	35.51
555.386	35.85
555.728	36.22
556.07	36.54
556.412	36.88
556.754	37.14
557.096	37.34
557.438	37.54
557.78	37.75
558.121	37.95
558.463	38.16
558.805	38.36
559.147	38.56
559.488	38.76
559.83	38.96
560.171	39.15
560.513	39.34
560.854	39.52
561.196	39.7
561.537	39.88
561.878	40.06
562.22	40.23
562.561	40.4
562.902	40.56
563.243	40.73
563.584	40.89
563.925	41.05
564.266	41.23
564.607	41.39
564.948	41.55
565.289	41.71
565.63	41.87
565.971	42.02
566.312	42.17
566.653	42.32
566.993	42.46
567.334	42.61
567.675	42.74
568.015	42.87
568.356	43
568.696	43.12
569.037	43.24
569.377	43.36
569.718	43.47
570.058	43.58
570.398	43.69
570.739	43.8
571.079	43.89
571.419	43.98
571.759	44.06
572.099	44.15
572.439	44.23
572.779	44.31
573.119	44.39
573.459	44.46
573.799	44.55
574.139	44.62
574.479	44.7
574.819	44.78
575.158	44.86
575.498	44.93
575.838	45.01
576.177	45.09
576.517	45.16
576.856	45.23
577.196	45.29
577.535	45.36
577.875	45.43
578.214	45.49
578.553	45.56
578.893	45.62
579.232	45.68
579.571	45.73
579.91	45.79
580.25	45.84
580.589	45.89
580.928	45.94
581.267	46
581.606	46.06
581.945	46.11
582.283	46.17
582.622	46.23
582.961	46.29
583.3	46.35
583.639	46.41
583.977	46.47
584.316	46.52
584.654	46.57
584.993	46.64
585.332	46.7
585.67	46.77
586.008	46.82
586.347	46.89
586.685	46.97
587.024	47.04
587.362	47.11
587.7	47.17
588.038	47.23
588.376	47.29
588.715	47.36
589.053	47.43
589.391	47.48
589.729	47.55
590.067	47.62
590.404	47.69
590.742	47.75
591.08	47.81
591.418	47.87
591.756	47.93
592.093	47.98
592.431	48.03
592.769	48.08
593.106	48.13
593.444	48.19
593.781	48.23
594.119	48.27
594.456	48.31
594.793	48.36
595.131	48.4
595.468	48.44
595.805	48.49
596.143	48.53
596.48	48.58
596.817	48.63
597.154	48.69
597.491	48.75
597.828	48.8
598.165	48.86
598.502	48.93
598.839	48.98
599.176	49.02
599.512	49.07
599.849	49.12
600.186	49.15
600.523	49.18
600.859	49.21
601.196	49.25
601.532	49.28
601.869	49.32
602.205	49.36
602.542	49.4
602.878	49.44
603.215	49.47
603.551	49.5
603.887	49.53
604.223	49.55
604.56	49.58
604.896	49.61
605.232	49.64
605.568	49.66
605.904	49.68
606.24	49.7
606.576	49.72
606.912	49.74
607.248	49.76
607.583	49.78
607.919	49.8
608.255	49.83
608.591	49.86
608.926	49.87
609.262	49.89
609.597	49.91
609.933	49.93
610.268	49.95
610.604	49.96
610.939	49.96
611.275	49.98
611.61	49.99
611.945	50
612.281	50
612.616	50
612.951	50.02
613.286	50.02
613.621	50.04
613.956	50.07
614.291	50.09
614.626	50.09
614.961	50.11
615.296	50.14
615.631	50.15
615.966	50.16
616.3	50.15
616.635	50.16
616.97	50.18
617.304	50.2
617.639	50.22
617.973	50.23
618.308	50.25
618.642	50.28
618.977	50.29
619.311	50.32
619.646	50.35
619.98	50.38
620.314	50.4
620.648	50.43
620.983	50.45
621.317	50.48
621.651	50.51
621.985	50.55
622.319	50.56
622.653	50.59
622.987	50.63
623.321	50.65
623.655	50.69
623.988	50.71
624.322	50.72
624.656	50.74
624.99	50.75
625.323	50.77
625.657	50.79
625.99	50.81
626.324	50.83
626.657	50.85
626.991	50.87
627.324	50.89
627.658	50.89
627.991	50.9
628.324	50.93
628.657	50.95
628.991	50.96
629.324	50.98
629.657	51.01
629.99	51.03
630.323	51.04
630.656	51.06
630.989	51.08
631.322	51.08
631.655	51.11
631.987	51.13
632.32	51.14
632.653	51.16
632.986	51.18
633.318	51.19
633.651	51.21
633.984	51.22
634.316	51.23
634.649	51.24
634.981	51.27
635.313	51.28
635.646	51.29
635.978	51.31
636.31	51.33
636.643	51.33
636.975	51.34
637.307	51.35
637.639	51.35
637.971	51.37
638.303	51.39
638.635	51.41
638.967	51.41
639.299	51.44
639.631	51.46
639.963	51.5
640.295	51.5
640.626	51.52
640.958	51.53
641.29	51.55
641.621	51.56
641.953	51.57
642.285	51.58
642.616	51.58
642.948	51.6
643.279	51.62
643.61	51.64
643.942	51.67
644.273	51.68
644.604	51.7
644.936	51.73
645.267	51.75
645.598	51.77
645.929	51.77
646.26	51.78
646.591	51.82
646.922	51.83
647.253	51.85
647.584	51.87
647.915	51.9
648.245	51.92
648.576	51.93
648.907	51.94
649.238	51.95
649.568	51.97
649.899	51.97
650.229	51.99
650.56	52.01
650.89	52.03
651.221	52.06
651.551	52.08
651.882	52.09
652.212	52.1
652.542	52.13
652.872	52.14
653.203	52.17
653.533	52.17
653.863	52.21
654.193	52.23
654.523	52.24
654.853	52.27
655.183	52.3
655.513	52.31
655.843	52.33
656.172	52.37
656.502	52.37
656.832	52.39
657.162	52.4
657.491	52.42
657.821	52.43
658.15	52.45
658.48	52.47
658.809	52.46
659.139	52.47
659.468	52.5
659.798	52.5
660.127	52.5
660.456	52.52
660.785	52.53
661.115	52.54
661.444	52.55
661.773	52.56
662.102	52.57
662.431	52.58
662.76	52.6
663.089	52.6
663.418	52.64
663.747	52.66
664.076	52.68
664.404	52.69
664.733	52.7
665.062	52.72
665.39	52.74
665.719	52.75
666.048	52.76
666.376	52.78
666.705	52.78
667.033	52.78
667.362	52.79
667.69	52.79
668.018	52.8
668.347	52.8
668.675	52.81
669.003	52.82
669.331	52.83
669.659	52.83
669.987	52.87
670.315	52.88
670.643	52.88
670.971	52.87
671.299	52.9
671.627	52.9
671.955	52.9
672.283	52.92
672.61	52.94
672.938	52.95
673.266	52.98
673.593	52.99
673.921	53
674.249	53.01
674.576	53.01
674.904	53.02
675.231	53.05
675.558	53.07
675.886	53.09
676.213	53.09
676.54	53.11
676.867	53.1
677.195	53.12
677.522	53.12
677.849	53.12
678.176	53.13
678.503	53.15
678.83	53.16
679.157	53.17
679.484	53.17
679.81	53.21
680.137	53.21
680.464	53.25
680.791	53.25
681.117	53.27
681.444	53.3
681.771	53.33
682.097	53.34
682.424	53.36
682.75	53.38
683.077	53.38
683.403	53.37
683.729	53.38
684.056	53.41
684.382	53.42
684.708	53.42
685.034	53.44
685.36	53.46
685.686	53.47
686.012	53.47
686.339	53.47
686.664	53.48
686.99	53.49
687.316	53.5
687.642	53.51
687.968	53.53
688.294	53.55
688.619	53.54
688.945	53.58
689.271	53.59
689.596	53.6
689.922	53.63
690.247	53.66
690.573	53.67
690.898	53.71
691.224	53.72
691.549	53.74
691.874	53.71
692.2	53.71
692.525	53.73
692.85	53.74
693.175	53.74
693.5	53.75
693.825	53.74
694.15	53.76
694.475	53.78
694.8	53.78
695.125	53.79
695.45	53.79
695.775	53.8
696.099	53.81
696.424	53.83
696.749	53.85
697.073	53.85
697.398	53.87
697.723	53.87
698.047	53.9
698.372	53.91
698.696	53.94
699.02	53.97
699.345	53.98
699.669	54.02
699.993	54.02
700.318	54.03
700.642	54.04
700.966	54.07
701.29	54.07
701.614	54.08
701.938	54.09
702.262	54.08
702.586	54.09
702.91	54.09
703.234	54.07
703.557	54.09
703.881	54.1
704.205	54.11
704.529	54.14
704.852	54.16
705.176	54.2
705.499	54.22
705.823	54.21
706.146	54.25
706.47	54.28
706.793	54.31
707.117	54.33
707.44	54.35
707.763	54.37
708.086	54.37
708.409	54.36
708.733	54.41
709.056	54.43
709.379	54.45
709.702	54.48
710.025	54.48
710.348	54.5
710.671	54.5
710.993	54.55
711.316	54.55
711.639	54.56
711.962	54.57
712.284	54.57
712.607	54.59
712.93	54.57
713.252	54.58
713.575	54.61
713.897	54.64
714.22	54.62
714.542	54.65
714.864	54.67
715.187	54.68
715.509	54.7
715.831	54.71
716.153	54.71
716.475	54.73
716.798	54.73
717.12	54.76
717.442	54.74
717.764	54.74
718.085	54.76
718.407	54.78
718.729	54.79
719.051	54.83
719.373	54.85
719.695	54.85
720.016	54.86
720.338	54.88
720.659	54.91
720.981	54.92
721.302	54.94
721.624	54.96
721.945	54.93
722.267	54.91
722.588	54.94
722.909	54.95
723.231	54.94
723.552	54.95
723.873	54.99
724.194	55.01
724.515	54.99
724.836	54.99
725.157	55
725.478	55
725.799	55.02
726.12	55.05
726.441	55.08
726.762	55.06
727.083	55.05
727.403	55.08
727.724	55.06
728.045	55.09
728.365	55.11
728.686	55.12
729.006	55.14
729.327	55.15
729.647	55.15
729.967	55.15
730.288	55.16
730.608	55.17
730.928	55.2
731.249	55.2
731.569	55.17
731.889	55.21
732.209	55.23
732.529	55.22
732.849	55.23
733.169	55.24
733.489	55.26
733.809	55.24
734.129	55.26
734.448	55.29
734.768	55.28
735.088	55.3
735.408	55.33
735.727	55.3
736.047	55.3
736.366	55.33
736.686	55.34
737.005	55.3
737.325	55.27
737.644	55.3
737.963	55.28
738.283	55.27
738.602	55.28
738.921	55.28
739.24	55.27
739.56	55.23
739.879	55.25
740.198	55.24
740.517	55.25
740.836	55.27
741.155	55.27
741.473	55.23
741.792	55.24
742.111	55.23
742.43	55.25
742.748	55.26
743.067	55.29
743.386	55.3
743.704	55.31
744.023	55.27
744.341	55.29
744.66	55.31
744.978	55.27
745.297	55.25
745.615	55.27
745.933	55.28
746.252	55.31
746.57	55.32
746.888	55.31
747.206	55.29
747.524	55.27
747.842	55.28
748.16	55.29
748.478	55.26
748.796	55.31
749.114	55.33
749.432	55.34
749.749	55.37
750.067	55.41
750.385	55.41
750.703	55.42
751.02	55.45
751.338	55.48
751.655	55.47
751.973	55.47
752.29	55.46
752.608	55.51
752.925	55.53
753.242	55.56
753.56	55.57
753.877	55.59
754.194	55.6
754.511	55.65
754.828	55.62
755.145	55.65
755.462	55.65
755.779	55.67
756.096	55.68
756.413	55.69
756.73	55.72
757.047	55.76
757.364	55.78
757.68	55.81
757.997	55.86
758.314	55.9
758.63	55.92
758.947	55.93
759.264	55.92
759.58	55.93
759.896	55.98
760.213	56.01
760.529	56.01
760.846	56.05
761.162	56.05
761.478	56.1
761.794	56.09
762.11	56.07
762.426	56.07
762.743	56.05
763.059	56.06
763.375	56.1
763.69	56.1
764.006	56.1
764.322	56.08
764.638	56.09
764.954	56.07
765.27	56.09
765.585	56.08
765.901	56.09
766.216	56.11
766.532	56.13
766.848	56.09
767.163	56.08
767.478	56.03
767.794	56.05
768.109	56.06
768.424	56.08
768.74	56.09
769.055	56.06
769.37	56.05
769.685	56.02
770	56.02
770.315	56
770.63	55.97
770.945	55.96
771.26	55.93
771.575	55.89
771.89	55.89
772.205	55.88
772.52	55.84
772.834	55.82
773.149	55.79
773.464	55.8
773.778	55.79
774.093	55.79
774.407	55.78
774.722	55.77
775.036	55.81
775.351	55.81
775.665	55.82
775.979	55.83
776.293	55.8
776.608	55.82
776.922	55.84
777.236	55.87
777.55	55.92
777.864	55.97
778.178	55.98
778.492	55.98
778.806	55.92
779.12	55.88
779.434	55.87
779.747	55.91
780.061	55.92
780.375	55.98
780.689	55.98
781.002	55.92
781.316	55.93
781.629	55.88
781.943	55.92
782.256	55.94
782.57	55.92
782.883	55.93
783.196	55.97
783.51	55.99
783.823	55.98
784.136	56
784.449	56.04
784.762	56.02
785.075	56.05
785.388	56.04
785.701	56.01
786.014	56.03
786.327	56.04
786.64	56.04
786.953	56.05
787.266	56
787.578	56.04
787.891	56.06
788.204	56.08
788.516	56.09
788.829	56.04
789.141	56.05
789.454	56.01
789.766	56.02
790.079	56.04
790.391	56
790.703	56.03
791.016	56.08
791.328	56.1
791.64	56.14
791.952	56.2
792.264	56.17
792.576	56.15
792.888	56.16
793.2	56.19
793.512	56.18
793.824	56.19
794.136	56.18
794.448	56.19
794.76	56.2
795.071	56.18
795.383	56.25
795.695	56.22
796.006	56.22
796.318	56.15
796.629	56.16
796.941	56.19
797.252	56.16
797.564	56.19
797.875	56.14
798.186	56.16
798.497	56.21
798.809	56.22
799.12	56.18
799.431	56.18
799.742	56.19
800.053	56.19
800.364	56.13
800.675	56.09
800.986	56.06
801.297	56.07
801.608	56.11
801.918	56.06
802.229	56.07
802.54	56.08
802.851	56.06
803.161	56.05
803.472	56.02
803.782	56.06
804.093	56.06
804.403	56.06
804.714	56.02
805.024	56.04
805.334	56.03
805.645	56.07
805.955	56.08
806.265	56.15
806.575	56.09
806.885	56.13
807.195	56.17
807.505	56.18
807.815	56.21
808.125	56.23
808.435	56.25
808.745	56.23
809.055	56.32
809.365	56.35
809.674	56.33
809.984	56.36
810.294	56.39
810.603	56.43
810.913	56.46
811.222	56.43
811.532	56.44
811.841	56.49
812.151	56.53
812.46	56.54
812.769	56.57
813.079	56.66
813.388	56.62
813.697	56.58
814.006	56.56
814.315	56.59
814.624	56.64
814.933	56.69
815.242	56.7
815.551	56.71
815.86	56.79
816.169	56.78
816.478	56.83
816.786	56.89
817.095	56.94
817.404	56.99
817.712	57.04
818.021	57.07
818.33	57.09
818.638	57.08
818.947	57.08
819.255	57.12
819.563	57.16
819.872	57.19
820.18	57.24
820.488	57.24
820.796	57.25
821.105	57.28
821.413	57.29
821.721	57.31
822.029	57.3
822.337	57.32
822.645	57.32
822.953	57.34
823.26	57.35
823.568	57.35
823.876	57.38
824.184	57.38
824.491	57.38
824.799	57.38
825.107	57.39
825.414	57.38
825.722	57.36
826.029	57.38
826.337	57.42
826.644	57.42
826.951	57.41
827.259	57.41
827.566	57.42
827.873	57.39
828.18	57.42
828.488	57.4
828.795	57.41
829.102	57.37
829.409	57.35
829.716	57.37
830.023	57.36
830.329	57.37
830.636	57.38
830.943	57.38
831.25	57.39
831.557	57.39
831.863	57.41
832.17	57.38
832.476	57.33
832.783	57.31
833.089	57.27
833.396	57.23
833.702	57.21
834.009	57.2
834.315	57.15
834.621	57.14
834.928	57.15
835.234	57.12
835.54	57.03
835.846	56.99
836.152	56.97
836.458	56.88
836.764	56.85
837.07	56.88
837.376	56.89
837.682	56.88
837.988	56.85
838.293	56.9
838.599	56.89
838.905	56.84
839.211	56.87
839.516	56.85
839.822	56.87
840.127	56.84
840.433	56.91
840.738	56.86
841.044	56.84
841.349	56.8
841.654	56.83
841.959	56.84
842.265	56.79
842.57	56.72
842.875	56.6
843.18	56.57
843.485	56.43
843.79	56.4
844.095	56.33
844.4	56.26
844.705	56.28
845.01	56.28
845.315	56.13
845.619	56.14
845.924	56.16
846.229	56.09
846.533	56.11
846.838	56.14
847.142	56.13
847.447	56.12
847.751	56.2
848.056	56.13
848.36	56.16
848.664	56.11
848.969	56.24
849.273	56.33
849.577	56.12
849.881	56.03
850.185	56
850.489	56.11
850.794	56.12
851.097	56.08
851.401	56.14
851.705	56.21
852.009	56.3
852.313	56.34
852.617	56.33
852.92	56.39
853.224	56.47
853.528	56.56
853.831	56.52
854.135	56.6
854.438	56.58
854.742	56.6
855.045	56.63
855.349	56.72
855.652	56.84
855.955	56.96
856.259	57.1
856.562	57.26
856.865	57.23
857.168	57.14
857.471	57.15
857.774	57.19
858.077	57.15
858.38	57.08
858.683	57
858.986	56.91
859.289	56.91
859.592	57.07
859.894	57
860.197	56.96
860.5	57.08
860.802	57.17
861.105	57.32
861.407	57.12
861.71	56.96
862.012	56.93
862.315	56.91
862.617	56.97
862.919	57.16
863.222	56.89
863.524	56.98
863.826	56.85
864.128	56.76
864.43	56.85
864.732	56.85
865.034	56.8
865.336	56.7
865.638	56.59
865.94	56.64
866.242	56.8
866.544	56.72
866.846	56.78
867.147	56.79
867.449	56.95
867.751	56.83
868.052	56.91
868.354	56.94
868.655	56.89
868.957	56.91
869.258	56.86
869.56	56.89
869.861	57.13
870.162	57.07
870.463	57.22
870.765	57.26
871.066	57.43
871.367	57.41
871.668	57.42
871.969	57.33
872.27	57.29
872.571	57.35
872.872	57.37
873.173	57.27
873.473	57.19
873.774	57.37
874.075	57.45
874.376	57.66
874.676	57.68
874.977	57.59
875.277	57.34
875.578	57.58
875.878	57.52
876.179	57.64
876.479	57.63
876.78	57.52
877.08	57.47
877.38	57.52
877.68	57.59
877.981	57.68
878.281	57.62
878.581	57.48
