Data from UWBM59056_Reflection_00005.txt Node
Date: Sun May 02 13:44:25 EDT 2021
User: vgr7
Spectrometer: USB2G7710
Scans to average: 10
Trigger mode: 4
Integration Time (sec): 1.000000E-1
Electric dark correction enabled: true
Boxcar width: 20
XAxis mode: Wavelengths
Number of Pixels in Spectrum: 2048
>>>>>Begin Spectral Data<<<<<
177.721	50
178.105	56.42
178.488	92.2
178.871	130.77
179.254	102.02
179.636	54.25
180.019	49.25
180.402	40.52
180.785	39.47
181.168	42.88
181.55	45.22
181.933	44.69
182.316	34.98
182.698	32.24
183.081	26.4
183.463	26.58
183.846	27.9
184.228	29.95
184.611	30.1
184.993	30.04
185.376	29.08
185.758	30.16
186.14	31.99
186.522	29.82
186.904	29.14
187.287	27.85
187.669	29.38
188.051	27.19
188.433	26.38
188.815	24.8
189.197	25.27
189.579	23.57
189.961	20.04
190.342	17.93
190.724	19.38
191.106	19.94
191.488	21.38
191.869	19.58
192.251	17.6
192.633	16.65
193.014	17.03
193.396	15.21
193.777	15.82
194.159	13.4
194.54	12.61
194.922	12.4
195.303	12.14
195.684	11.22
196.065	11.62
196.447	11.19
196.828	8.69
197.209	6.82
197.59	3.14
197.971	4.46
198.352	5.88
198.733	7.58
199.114	7.57
199.495	7.05
199.876	6.06
200.257	6.15
200.638	4.66
201.018	6.31
201.399	6.86
201.78	7.31
202.16	6.15
202.541	5.01
202.922	3.44
203.302	2.96
203.683	4.62
204.063	5.8
204.444	5.07
204.824	4.83
205.204	2.72
205.585	2.97
205.965	5.15
206.345	3.96
206.725	3.88
207.106	4.5
207.486	3.15
207.866	5.23
208.246	3.72
208.626	2.95
209.006	3.29
209.386	1.48
209.766	1.88
210.145	0.7
210.525	1.59
210.905	3.43
211.285	1.21
211.664	1.47
212.044	1.13
212.424	1.45
212.803	1.18
213.183	2.17
213.562	3.64
213.942	3.17
214.321	1.99
214.701	0.32
215.08	0.32
215.459	-1.86
215.838	-2.82
216.218	-3.21
216.597	-4.5
216.976	-4.63
217.355	-5
217.734	-4.13
218.113	-3.17
218.492	-3.63
218.871	-3.42
219.25	-3.42
219.629	-3.65
220.008	-2.8
220.387	-3.35
220.766	-1.12
221.144	-1.36
221.523	-1.94
221.902	-0.89
222.28	-0.98
222.659	-1.66
223.037	-1.46
223.416	-1.38
223.794	-0.77
224.173	-0.03
224.551	-0.03
224.929	1.44
225.308	1.82
225.686	2.35
226.064	1.77
226.442	1.75
226.821	2.71
227.199	2.45
227.577	2.62
227.955	3.09
228.333	3.43
228.711	3.42
229.089	2.8
229.467	2.49
229.845	2.61
230.222	3.28
230.6	3.16
230.978	3.58
231.356	3.89
231.733	4.13
232.111	4.22
232.488	4.26
232.866	4.12
233.243	3.79
233.621	3.84
233.998	4.26
234.376	4.36
234.753	4.03
235.13	4.11
235.508	4.09
235.885	4.13
236.262	4.14
236.639	4.28
237.016	4.2
237.393	4.25
237.77	4.29
238.147	4.3
238.524	4.32
238.901	4.32
239.278	4.38
239.655	4.42
240.032	4.49
240.409	4.41
240.785	4.36
241.162	4.33
241.539	4.36
241.915	4.4
242.292	4.38
242.668	4.43
243.045	4.41
243.421	4.38
243.798	4.37
244.174	4.44
244.551	4.47
244.927	4.48
245.303	4.5
245.679	4.48
246.056	4.42
246.432	4.44
246.808	4.4
247.184	4.42
247.56	4.39
247.936	4.4
248.312	4.39
248.688	4.4
249.064	4.37
249.44	4.35
249.815	4.33
250.191	4.31
250.567	4.31
250.943	4.29
251.318	4.27
251.694	4.29
252.069	4.27
252.445	4.29
252.82	4.27
253.196	4.23
253.571	4.21
253.947	4.21
254.322	4.19
254.697	4.18
255.073	4.15
255.448	4.13
255.823	4.1
256.198	4.1
256.573	4.08
256.948	4.08
257.323	4.05
257.698	4.03
258.073	3.98
258.448	3.97
258.823	3.95
259.198	3.94
259.573	3.92
259.948	3.9
260.322	3.87
260.697	3.83
261.072	3.8
261.446	3.81
261.821	3.79
262.195	3.79
262.57	3.77
262.944	3.77
263.319	3.75
263.693	3.76
264.067	3.74
264.442	3.75
264.816	3.72
265.19	3.72
265.564	3.74
265.938	3.72
266.313	3.71
266.687	3.72
267.061	3.72
267.435	3.71
267.809	3.69
268.183	3.67
268.556	3.66
268.93	3.66
269.304	3.67
269.678	3.65
270.051	3.63
270.425	3.6
270.799	3.57
271.172	3.58
271.546	3.6
271.919	3.61
272.293	3.59
272.666	3.58
273.04	3.6
273.413	3.64
273.787	3.65
274.16	3.66
274.533	3.66
274.906	3.65
275.279	3.66
275.653	3.69
276.026	3.7
276.399	3.73
276.772	3.75
277.145	3.75
277.518	3.77
277.891	3.77
278.263	3.77
278.636	3.78
279.009	3.77
279.382	3.77
279.755	3.77
280.127	3.78
280.5	3.8
280.872	3.81
281.245	3.83
281.617	3.85
281.99	3.85
282.362	3.83
282.735	3.83
283.107	3.84
283.479	3.83
283.852	3.85
284.224	3.85
284.596	3.83
284.968	3.84
285.34	3.84
285.713	3.85
286.085	3.87
286.457	3.88
286.829	3.86
287.201	3.86
287.572	3.86
287.944	3.86
288.316	3.84
288.688	3.83
289.06	3.82
289.431	3.81
289.803	3.81
290.175	3.82
290.546	3.82
290.918	3.81
291.289	3.82
291.661	3.82
292.032	3.81
292.403	3.82
292.775	3.81
293.146	3.81
293.517	3.81
293.889	3.81
294.26	3.82
294.631	3.83
295.002	3.84
295.373	3.85
295.744	3.84
296.115	3.83
296.486	3.84
296.857	3.83
297.228	3.82
297.599	3.83
297.97	3.83
298.34	3.83
298.711	3.84
299.082	3.84
299.452	3.84
299.823	3.85
300.194	3.86
300.564	3.87
300.935	3.87
301.305	3.86
301.676	3.86
302.046	3.85
302.416	3.84
302.787	3.83
303.157	3.83
303.527	3.85
303.897	3.84
304.267	3.85
304.637	3.84
305.008	3.85
305.378	3.85
305.748	3.85
306.117	3.84
306.487	3.84
306.857	3.85
307.227	3.86
307.597	3.86
307.967	3.86
308.336	3.86
308.706	3.86
309.076	3.85
309.445	3.86
309.815	3.84
310.184	3.83
310.554	3.82
310.923	3.83
311.293	3.84
311.662	3.82
312.031	3.82
312.401	3.83
312.77	3.83
313.139	3.82
313.508	3.83
313.877	3.82
314.246	3.82
314.616	3.83
314.985	3.83
315.353	3.83
315.722	3.83
316.091	3.83
316.46	3.83
316.829	3.82
317.198	3.84
317.567	3.83
317.935	3.84
318.304	3.83
318.672	3.83
319.041	3.85
319.41	3.84
319.778	3.85
320.147	3.83
320.515	3.82
320.883	3.8
321.252	3.81
321.62	3.8
321.988	3.8
322.357	3.79
322.725	3.78
323.093	3.78
323.461	3.78
323.829	3.79
324.197	3.79
324.565	3.78
324.933	3.78
325.301	3.78
325.669	3.79
326.037	3.76
326.405	3.75
326.772	3.75
327.14	3.74
327.508	3.73
327.875	3.73
328.243	3.73
328.61	3.72
328.978	3.72
329.346	3.7
329.713	3.72
330.08	3.7
330.448	3.67
330.815	3.66
331.182	3.65
331.55	3.66
331.917	3.66
332.284	3.65
332.651	3.66
333.018	3.66
333.385	3.66
333.752	3.65
334.119	3.64
334.486	3.65
334.853	3.65
335.22	3.65
335.587	3.65
335.954	3.66
336.32	3.65
336.687	3.65
337.054	3.64
337.42	3.64
337.787	3.64
338.153	3.64
338.52	3.63
338.886	3.62
339.253	3.61
339.619	3.61
339.986	3.61
340.352	3.6
340.718	3.6
341.084	3.61
341.451	3.61
341.817	3.62
342.183	3.63
342.549	3.63
342.915	3.63
343.281	3.64
343.647	3.65
344.013	3.64
344.379	3.63
344.745	3.63
345.11	3.64
345.476	3.66
345.842	3.67
346.208	3.68
346.573	3.67
346.939	3.66
347.304	3.67
347.67	3.66
348.035	3.66
348.401	3.67
348.766	3.68
349.132	3.68
349.497	3.68
349.862	3.69
350.228	3.69
350.593	3.69
350.958	3.69
351.323	3.7
351.688	3.7
352.053	3.71
352.418	3.72
352.783	3.72
353.148	3.72
353.513	3.73
353.878	3.74
354.243	3.74
354.608	3.75
354.972	3.75
355.337	3.76
355.702	3.76
356.066	3.77
356.431	3.77
356.795	3.75
357.16	3.74
357.524	3.75
357.889	3.75
358.253	3.74
358.618	3.73
358.982	3.73
359.346	3.74
359.71	3.74
360.075	3.74
360.439	3.73
360.803	3.73
361.167	3.73
361.531	3.73
361.895	3.73
362.259	3.72
362.623	3.72
362.987	3.71
363.351	3.72
363.714	3.72
364.078	3.72
364.442	3.72
364.806	3.71
365.169	3.71
365.533	3.72
365.896	3.71
366.26	3.71
366.623	3.71
366.987	3.71
367.35	3.71
367.714	3.71
368.077	3.71
368.44	3.7
368.803	3.7
369.167	3.7
369.53	3.69
369.893	3.69
370.256	3.69
370.619	3.68
370.982	3.68
371.345	3.69
371.708	3.69
372.071	3.7
372.434	3.7
372.797	3.7
373.159	3.7
373.522	3.71
373.885	3.71
374.247	3.71
374.61	3.7
374.973	3.69
375.335	3.7
375.698	3.69
376.06	3.7
376.423	3.69
376.785	3.68
377.147	3.68
377.51	3.68
377.872	3.69
378.234	3.68
378.596	3.67
378.958	3.67
379.321	3.67
379.683	3.67
380.045	3.67
380.407	3.67
380.769	3.67
381.13	3.66
381.492	3.66
381.854	3.65
382.216	3.65
382.578	3.64
382.939	3.65
383.301	3.65
383.663	3.64
384.024	3.64
384.386	3.65
384.747	3.65
385.109	3.65
385.47	3.65
385.832	3.64
386.193	3.64
386.554	3.63
386.916	3.63
387.277	3.63
387.638	3.62
387.999	3.63
388.36	3.63
388.721	3.63
389.082	3.63
389.443	3.63
389.804	3.63
390.165	3.64
390.526	3.64
390.887	3.64
391.248	3.64
391.609	3.65
391.969	3.65
392.33	3.66
392.691	3.66
393.051	3.66
393.412	3.67
393.772	3.67
394.133	3.67
394.493	3.66
394.854	3.66
395.214	3.66
395.574	3.66
395.935	3.66
396.295	3.66
396.655	3.66
397.015	3.66
397.376	3.66
397.736	3.66
398.096	3.66
398.456	3.67
398.816	3.67
399.176	3.67
399.535	3.67
399.895	3.67
400.255	3.67
400.615	3.68
400.975	3.68
401.334	3.68
401.694	3.68
402.054	3.69
402.413	3.68
402.773	3.68
403.132	3.68
403.492	3.68
403.851	3.68
404.211	3.68
404.57	3.68
404.929	3.68
405.288	3.68
405.648	3.68
406.007	3.68
406.366	3.68
406.725	3.68
407.084	3.68
407.443	3.68
407.802	3.68
408.161	3.68
408.52	3.68
408.879	3.68
409.238	3.68
409.596	3.68
409.955	3.69
410.314	3.69
410.673	3.69
411.031	3.7
411.39	3.71
411.748	3.71
412.107	3.71
412.465	3.72
412.824	3.74
413.182	3.76
413.54	3.78
413.899	3.8
414.257	3.83
414.615	3.86
414.974	3.89
415.332	3.92
415.69	3.96
416.048	3.98
416.406	4.02
416.764	4.05
417.122	4.07
417.48	4.11
417.838	4.13
418.195	4.15
418.553	4.17
418.911	4.19
419.269	4.19
419.626	4.19
419.984	4.18
420.342	4.17
420.699	4.16
421.057	4.14
421.414	4.13
421.772	4.12
422.129	4.11
422.486	4.11
422.844	4.11
423.201	4.11
423.558	4.11
423.915	4.11
424.273	4.11
424.63	4.11
424.987	4.11
425.344	4.11
425.701	4.1
426.058	4.11
426.415	4.11
426.772	4.11
427.128	4.11
427.485	4.1
427.842	4.09
428.199	4.07
428.555	4.06
428.912	4.04
429.269	4.02
429.625	4
429.982	3.97
430.338	3.95
430.695	3.93
431.051	3.9
431.407	3.88
431.764	3.87
432.12	3.85
432.476	3.84
432.832	3.83
433.189	3.83
433.545	3.84
433.901	3.85
434.257	3.87
434.613	3.9
434.969	3.92
435.325	3.95
435.681	3.98
436.036	4
436.392	4.02
436.748	4.03
437.104	4.04
437.459	4.05
437.815	4.07
438.171	4.09
438.526	4.11
438.882	4.14
439.237	4.18
439.593	4.21
439.948	4.24
440.304	4.28
440.659	4.3
441.014	4.32
441.369	4.34
441.725	4.36
442.08	4.38
442.435	4.39
442.79	4.39
443.145	4.4
443.5	4.4
443.855	4.4
444.21	4.39
444.565	4.39
444.92	4.38
445.275	4.37
445.629	4.36
445.984	4.35
446.339	4.34
446.693	4.33
447.048	4.32
447.403	4.31
447.757	4.28
448.112	4.27
448.466	4.25
448.82	4.23
449.175	4.2
449.529	4.19
449.883	4.18
450.238	4.16
450.592	4.15
450.946	4.14
451.3	4.14
451.654	4.15
452.008	4.15
452.362	4.16
452.716	4.16
453.07	4.15
453.424	4.14
453.778	4.14
454.132	4.13
454.486	4.12
454.839	4.1
455.193	4.08
455.547	4.07
455.9	4.04
456.254	4.03
456.607	4
456.961	3.97
457.314	3.95
457.668	3.95
458.021	3.94
458.375	3.94
458.728	3.94
459.081	3.95
459.434	3.96
459.787	3.97
460.141	3.98
460.494	3.99
460.847	3.99
461.2	4
461.553	4
461.906	4.01
462.259	4.02
462.611	4.02
462.964	4.02
463.317	4.03
463.67	4.04
464.022	4.04
464.375	4.05
464.728	4.05
465.08	4.05
465.433	4.05
465.785	4.05
466.138	4.04
466.49	4.03
466.843	4.01
467.195	3.99
467.547	3.97
467.899	3.95
468.252	3.93
468.604	3.91
468.956	3.89
469.308	3.88
469.66	3.88
470.012	3.87
470.364	3.88
470.716	3.88
471.068	3.89
471.42	3.91
471.772	3.94
472.123	3.95
472.475	3.96
472.827	3.97
473.178	3.98
473.53	3.98
473.882	3.99
474.233	4.01
474.585	4.05
474.936	4.1
475.288	4.19
475.639	4.3
475.99	4.42
476.342	4.56
476.693	4.71
477.044	4.87
477.395	5.03
477.746	5.2
478.097	5.36
478.448	5.53
478.8	5.69
479.15	5.84
479.501	5.98
479.852	6.1
480.203	6.22
480.554	6.34
480.905	6.45
481.255	6.56
481.606	6.66
481.957	6.75
482.307	6.84
482.658	6.93
483.009	7.01
483.359	7.09
483.709	7.16
484.06	7.24
484.41	7.31
484.761	7.38
485.111	7.45
485.461	7.51
485.811	7.57
486.162	7.63
486.512	7.67
486.862	7.71
487.212	7.74
487.562	7.75
487.912	7.76
488.262	7.77
488.612	7.76
488.961	7.75
489.311	7.7
489.661	7.64
490.011	7.55
490.36	7.45
490.71	7.34
491.06	7.21
491.409	7.08
491.759	6.93
492.108	6.79
492.458	6.63
492.807	6.48
493.157	6.32
493.506	6.18
493.855	6.04
494.204	5.9
494.554	5.78
494.903	5.66
495.252	5.55
495.601	5.44
495.95	5.33
496.299	5.24
496.648	5.15
496.997	5.06
497.346	4.98
497.695	4.9
498.043	4.82
498.392	4.74
498.741	4.67
499.09	4.6
499.438	4.53
499.787	4.47
500.135	4.41
500.484	4.36
500.832	4.31
501.181	4.28
501.529	4.26
501.878	4.25
502.226	4.24
502.574	4.24
502.923	4.24
503.271	4.25
503.619	4.25
503.967	4.26
504.315	4.26
504.663	4.26
505.011	4.26
505.359	4.26
505.707	4.26
506.055	4.27
506.403	4.27
506.751	4.28
507.098	4.28
507.446	4.29
507.794	4.31
508.141	4.33
508.489	4.34
508.837	4.36
509.184	4.38
509.531	4.39
509.879	4.41
510.226	4.43
510.574	4.44
510.921	4.46
511.268	4.48
511.616	4.5
511.963	4.52
512.31	4.55
512.657	4.57
513.004	4.59
513.351	4.61
513.698	4.62
514.045	4.63
514.392	4.64
514.739	4.64
515.086	4.64
515.432	4.64
515.779	4.63
516.126	4.64
516.473	4.64
516.819	4.64
517.166	4.65
517.512	4.66
517.859	4.67
518.205	4.69
518.552	4.72
518.898	4.75
519.245	4.79
519.591	4.85
519.937	4.92
520.283	5.01
520.629	5.12
520.976	5.24
521.322	5.36
521.668	5.48
522.014	5.6
522.36	5.72
522.706	5.84
523.052	5.96
523.398	6.07
523.743	6.16
524.089	6.25
524.435	6.32
524.781	6.38
525.126	6.44
525.472	6.5
525.817	6.56
526.163	6.61
526.509	6.65
526.854	6.7
527.199	6.75
527.545	6.79
527.89	6.85
528.235	6.9
528.581	6.94
528.926	6.99
529.271	7.03
529.616	7.07
529.961	7.1
530.306	7.13
530.651	7.15
530.996	7.17
531.341	7.18
531.686	7.19
532.031	7.19
532.376	7.19
532.721	7.2
533.065	7.21
533.41	7.22
533.755	7.21
534.099	7.2
534.444	7.17
534.788	7.14
535.133	7.1
535.477	7.05
535.822	7
536.166	6.94
536.51	6.87
536.855	6.8
537.199	6.71
537.543	6.63
537.887	6.56
538.231	6.5
538.576	6.44
538.92	6.38
539.264	6.32
539.608	6.26
539.951	6.2
540.295	6.14
540.639	6.07
540.983	6.01
541.327	5.94
541.671	5.87
542.014	5.81
542.358	5.76
542.701	5.72
543.045	5.68
543.389	5.66
543.732	5.64
544.075	5.62
544.419	5.6
544.762	5.59
545.105	5.57
545.449	5.56
545.792	5.55
546.135	5.55
546.478	5.53
546.821	5.51
547.165	5.48
547.508	5.44
547.851	5.39
548.194	5.34
548.536	5.28
548.879	5.21
549.222	5.14
549.565	5.07
549.908	5
550.25	4.93
550.593	4.87
550.936	4.82
551.278	4.79
551.621	4.75
551.963	4.72
552.306	4.7
552.648	4.68
552.991	4.67
553.333	4.66
553.675	4.65
554.017	4.65
554.36	4.65
554.702	4.66
555.044	4.67
555.386	4.69
555.728	4.71
556.07	4.72
556.412	4.74
556.754	4.74
557.096	4.74
557.438	4.75
557.78	4.75
558.121	4.75
558.463	4.75
558.805	4.75
559.147	4.76
559.488	4.76
559.83	4.77
560.171	4.77
560.513	4.77
560.854	4.78
561.196	4.78
561.537	4.78
561.878	4.79
562.22	4.79
562.561	4.79
562.902	4.79
563.243	4.79
563.584	4.79
563.925	4.79
564.266	4.8
564.607	4.8
564.948	4.8
565.289	4.8
565.63	4.81
565.971	4.82
566.312	4.82
566.653	4.82
566.993	4.82
567.334	4.83
567.675	4.83
568.015	4.83
568.356	4.84
568.696	4.83
569.037	4.84
569.377	4.84
569.718	4.84
570.058	4.84
570.398	4.84
570.739	4.84
571.079	4.84
571.419	4.84
571.759	4.84
572.099	4.84
572.439	4.84
572.779	4.84
573.119	4.84
573.459	4.84
573.799	4.85
574.139	4.85
574.479	4.85
574.819	4.85
575.158	4.85
575.498	4.85
575.838	4.84
576.177	4.84
576.517	4.84
576.856	4.85
577.196	4.85
577.535	4.84
577.875	4.84
578.214	4.84
578.553	4.84
578.893	4.84
579.232	4.84
579.571	4.84
579.91	4.84
580.25	4.83
580.589	4.83
580.928	4.83
581.267	4.83
581.606	4.83
581.945	4.83
582.283	4.83
582.622	4.84
582.961	4.84
583.3	4.85
583.639	4.85
583.977	4.85
584.316	4.85
584.654	4.85
584.993	4.85
585.332	4.86
585.67	4.86
586.008	4.86
586.347	4.86
586.685	4.87
587.024	4.87
587.362	4.87
587.7	4.86
588.038	4.87
588.376	4.87
588.715	4.87
589.053	4.87
589.391	4.87
589.729	4.88
590.067	4.88
590.404	4.89
590.742	4.89
591.08	4.89
591.418	4.89
591.756	4.9
592.093	4.9
592.431	4.9
592.769	4.91
593.106	4.91
593.444	4.91
593.781	4.92
594.119	4.92
594.456	4.92
594.793	4.92
595.131	4.93
595.468	4.93
595.805	4.93
596.143	4.93
596.48	4.92
596.817	4.92
597.154	4.92
597.491	4.93
597.828	4.93
598.165	4.94
598.502	4.94
598.839	4.94
599.176	4.94
599.512	4.95
599.849	4.95
600.186	4.95
600.523	4.96
600.859	4.96
601.196	4.96
601.532	4.96
601.869	4.96
602.205	4.96
602.542	4.97
602.878	4.98
603.215	4.98
603.551	4.98
603.887	4.98
604.223	4.98
604.56	4.99
604.896	4.99
605.232	4.99
605.568	4.99
605.904	4.99
606.24	5
606.576	5
606.912	5
607.248	5
607.583	4.99
607.919	5
608.255	5
608.591	5
608.926	5
609.262	5
609.597	5.01
609.933	5.01
610.268	5.01
610.604	5.02
610.939	5.02
611.275	5.02
611.61	5.02
611.945	5.02
612.281	5.02
612.616	5.02
612.951	5.02
613.286	5.02
613.621	5.02
613.956	5.02
614.291	5.03
614.626	5.03
614.961	5.04
615.296	5.04
615.631	5.04
615.966	5.04
616.3	5.04
616.635	5.04
616.97	5.04
617.304	5.05
617.639	5.04
617.973	5.04
618.308	5.05
618.642	5.05
618.977	5.05
619.311	5.05
619.646	5.06
619.98	5.05
620.314	5.06
620.648	5.06
620.983	5.07
621.317	5.07
621.651	5.08
621.985	5.09
622.319	5.09
622.653	5.09
622.987	5.09
623.321	5.09
623.655	5.1
623.988	5.1
624.322	5.11
624.656	5.11
624.99	5.12
625.323	5.12
625.657	5.12
625.99	5.12
626.324	5.12
626.657	5.12
626.991	5.13
627.324	5.13
627.658	5.13
627.991	5.14
628.324	5.14
628.657	5.14
628.991	5.14
629.324	5.15
629.657	5.15
629.99	5.16
630.323	5.16
630.656	5.17
630.989	5.17
631.322	5.17
631.655	5.19
631.987	5.19
632.32	5.19
632.653	5.19
632.986	5.2
633.318	5.21
633.651	5.22
633.984	5.22
634.316	5.22
634.649	5.22
634.981	5.23
635.313	5.23
635.646	5.23
635.978	5.24
636.31	5.24
636.643	5.25
636.975	5.25
637.307	5.25
637.639	5.26
637.971	5.26
638.303	5.27
638.635	5.27
638.967	5.27
639.299	5.27
639.631	5.27
639.963	5.28
640.295	5.29
640.626	5.29
640.958	5.29
641.29	5.3
641.621	5.3
641.953	5.3
642.285	5.31
642.616	5.31
642.948	5.32
643.279	5.32
643.61	5.33
643.942	5.33
644.273	5.34
644.604	5.35
644.936	5.36
645.267	5.35
645.598	5.35
645.929	5.35
646.26	5.36
646.591	5.36
646.922	5.36
647.253	5.36
647.584	5.36
647.915	5.37
648.245	5.37
648.576	5.38
648.907	5.38
649.238	5.38
649.568	5.38
649.899	5.38
650.229	5.37
650.56	5.38
650.89	5.39
651.221	5.38
651.551	5.39
651.882	5.4
652.212	5.4
652.542	5.41
652.872	5.42
653.203	5.42
653.533	5.43
653.863	5.43
654.193	5.43
654.523	5.44
654.853	5.45
655.183	5.45
655.513	5.46
655.843	5.46
656.172	5.46
656.502	5.47
656.832	5.47
657.162	5.47
657.491	5.48
657.821	5.48
658.15	5.48
658.48	5.48
658.809	5.48
659.139	5.49
659.468	5.5
659.798	5.5
660.127	5.49
660.456	5.5
660.785	5.5
661.115	5.5
661.444	5.51
661.773	5.51
662.102	5.51
662.431	5.52
662.76	5.53
663.089	5.53
663.418	5.55
663.747	5.55
664.076	5.56
664.404	5.56
664.733	5.57
665.062	5.58
665.39	5.59
665.719	5.59
666.048	5.6
666.376	5.6
666.705	5.61
667.033	5.6
667.362	5.61
667.69	5.62
668.018	5.62
668.347	5.62
668.675	5.63
669.003	5.64
669.331	5.64
669.659	5.64
669.987	5.64
670.315	5.64
670.643	5.64
670.971	5.64
671.299	5.65
671.627	5.65
671.955	5.66
672.283	5.67
672.61	5.67
672.938	5.67
673.266	5.68
673.593	5.69
673.921	5.7
674.249	5.71
674.576	5.72
674.904	5.72
675.231	5.73
675.558	5.73
675.886	5.74
676.213	5.74
676.54	5.74
676.867	5.74
677.195	5.74
677.522	5.74
677.849	5.74
678.176	5.74
678.503	5.74
678.83	5.75
679.157	5.75
679.484	5.75
679.81	5.77
680.137	5.76
680.464	5.77
680.791	5.78
681.117	5.79
681.444	5.79
681.771	5.8
682.097	5.81
682.424	5.81
682.75	5.81
683.077	5.83
683.403	5.84
683.729	5.85
684.056	5.86
684.382	5.86
684.708	5.87
685.034	5.88
685.36	5.88
685.686	5.88
686.012	5.88
686.339	5.88
686.664	5.88
686.99	5.87
687.316	5.87
687.642	5.88
687.968	5.88
688.294	5.89
688.619	5.9
688.945	5.91
689.271	5.92
689.596	5.92
689.922	5.93
690.247	5.94
690.573	5.95
690.898	5.95
691.224	5.97
691.549	5.98
691.874	5.99
692.2	6
692.525	6.01
692.85	6.01
693.175	6.02
693.5	6.04
693.825	6.05
694.15	6.05
694.475	6.05
694.8	6.06
695.125	6.07
695.45	6.07
695.775	6.07
696.099	6.09
696.424	6.09
696.749	6.09
697.073	6.09
697.398	6.09
697.723	6.1
698.047	6.12
698.372	6.12
698.696	6.13
699.02	6.14
699.345	6.15
699.669	6.16
699.993	6.18
700.318	6.19
700.642	6.21
700.966	6.21
701.29	6.22
701.614	6.22
701.938	6.24
702.262	6.25
702.586	6.25
702.91	6.26
703.234	6.26
703.557	6.27
703.881	6.28
704.205	6.27
704.529	6.28
704.852	6.29
705.176	6.3
705.499	6.29
705.823	6.29
706.146	6.3
706.47	6.31
706.793	6.31
707.117	6.32
707.44	6.33
707.763	6.35
708.086	6.36
708.409	6.37
708.733	6.37
709.056	6.38
709.379	6.38
709.702	6.38
710.025	6.39
710.348	6.41
710.671	6.41
710.993	6.4
711.316	6.39
711.639	6.4
711.962	6.41
712.284	6.42
712.607	6.44
712.93	6.43
713.252	6.43
713.575	6.43
713.897	6.43
714.22	6.43
714.542	6.43
714.864	6.44
715.187	6.43
715.509	6.43
715.831	6.43
716.153	6.42
716.475	6.44
716.798	6.44
717.12	6.45
717.442	6.47
717.764	6.46
718.085	6.47
718.407	6.46
718.729	6.48
719.051	6.49
719.373	6.49
719.695	6.49
720.016	6.5
720.338	6.5
720.659	6.5
720.981	6.5
721.302	6.51
721.624	6.52
721.945	6.52
722.267	6.52
722.588	6.55
722.909	6.57
723.231	6.57
723.552	6.57
723.873	6.59
724.194	6.62
724.515	6.63
724.836	6.63
725.157	6.66
725.478	6.65
725.799	6.65
726.12	6.68
726.441	6.69
726.762	6.7
727.083	6.72
727.403	6.71
727.724	6.74
728.045	6.76
728.365	6.8
728.686	6.82
729.006	6.84
729.327	6.85
729.647	6.86
729.967	6.88
730.288	6.89
730.608	6.89
730.928	6.9
731.249	6.91
731.569	6.93
731.889	6.93
732.209	6.95
732.529	6.93
732.849	6.96
733.169	6.96
733.489	6.98
733.809	6.99
734.129	7.01
734.448	7.02
734.768	7.03
735.088	7.05
735.408	7.07
735.727	7.07
736.047	7.07
736.366	7.09
736.686	7.1
737.005	7.11
737.325	7.11
737.644	7.11
737.963	7.11
738.283	7.1
738.602	7.13
738.921	7.15
739.24	7.16
739.56	7.17
739.879	7.17
740.198	7.15
740.517	7.18
740.836	7.18
741.155	7.17
741.473	7.14
741.792	7.14
742.111	7.12
742.43	7.12
742.748	7.14
743.067	7.15
743.386	7.17
743.704	7.19
744.023	7.2
744.341	7.21
744.66	7.21
744.978	7.22
745.297	7.24
745.615	7.28
745.933	7.28
746.252	7.27
746.57	7.26
746.888	7.29
747.206	7.28
747.524	7.29
747.842	7.3
748.16	7.28
748.478	7.27
748.796	7.26
749.114	7.26
749.432	7.27
749.749	7.25
750.067	7.27
750.385	7.29
750.703	7.29
751.02	7.31
751.338	7.33
751.655	7.33
751.973	7.33
752.29	7.34
752.608	7.34
752.925	7.36
753.242	7.4
753.56	7.41
753.877	7.44
754.194	7.42
754.511	7.46
754.828	7.46
755.145	7.49
755.462	7.52
755.779	7.52
756.096	7.54
756.413	7.52
756.73	7.53
757.047	7.52
757.364	7.52
757.68	7.54
757.997	7.56
758.314	7.55
758.63	7.56
758.947	7.57
759.264	7.61
759.58	7.61
759.896	7.63
760.213	7.64
760.529	7.64
760.846	7.66
761.162	7.68
761.478	7.71
761.794	7.74
762.11	7.76
762.426	7.79
762.743	7.79
763.059	7.76
763.375	7.76
763.69	7.79
764.006	7.8
764.322	7.81
764.638	7.82
764.954	7.82
765.27	7.83
765.585	7.83
765.901	7.85
766.216	7.85
766.532	7.85
766.848	7.87
767.163	7.9
767.478	7.89
767.794	7.94
768.109	7.95
768.424	7.94
768.74	7.96
769.055	7.95
769.37	7.96
769.685	7.97
770	8
770.315	8.02
770.63	8.06
770.945	8.06
771.26	8.1
771.575	8.12
771.89	8.16
772.205	8.16
772.52	8.19
772.834	8.19
773.149	8.19
773.464	8.2
773.778	8.19
774.093	8.21
774.407	8.21
774.722	8.23
775.036	8.22
775.351	8.22
775.665	8.26
775.979	8.33
776.293	8.34
776.608	8.34
776.922	8.37
777.236	8.38
777.55	8.38
777.864	8.41
778.178	8.42
778.492	8.45
778.806	8.44
779.12	8.45
779.434	8.47
779.747	8.47
780.061	8.45
780.375	8.48
780.689	8.45
781.002	8.46
781.316	8.46
781.629	8.45
781.943	8.5
782.256	8.56
782.57	8.53
782.883	8.54
783.196	8.54
783.51	8.51
783.823	8.54
784.136	8.54
784.449	8.52
784.762	8.52
785.075	8.53
785.388	8.51
785.701	8.46
786.014	8.54
786.327	8.58
786.64	8.59
786.953	8.62
787.266	8.63
787.578	8.66
787.891	8.69
788.204	8.68
788.516	8.68
788.829	8.68
789.141	8.72
789.454	8.74
789.766	8.75
790.079	8.76
790.391	8.79
790.703	8.82
791.016	8.84
791.328	8.83
791.64	8.84
791.952	8.87
792.264	8.82
792.576	8.81
792.888	8.82
793.2	8.85
793.512	8.88
793.824	8.91
794.136	8.92
794.448	8.96
794.76	9.01
795.071	8.98
795.383	9.05
795.695	9.07
796.006	9.05
796.318	9.03
796.629	9.03
796.941	9.04
797.252	9.07
797.564	9.07
797.875	9.07
798.186	9.11
798.497	9.16
798.809	9.13
799.12	9.13
799.431	9.16
799.742	9.14
800.053	9.16
800.364	9.17
800.675	9.17
800.986	9.16
801.297	9.17
801.608	9.16
801.918	9.17
802.229	9.18
802.54	9.14
802.851	9.16
803.161	9.17
803.472	9.13
803.782	9.13
804.093	9.13
804.403	9.19
804.714	9.2
805.024	9.27
805.334	9.29
805.645	9.3
805.955	9.33
806.265	9.35
806.575	9.37
806.885	9.4
807.195	9.43
807.505	9.43
807.815	9.53
808.125	9.54
808.435	9.52
808.745	9.55
809.055	9.62
809.365	9.64
809.674	9.63
809.984	9.68
810.294	9.71
810.603	9.75
810.913	9.77
811.222	9.77
811.532	9.77
811.841	9.81
812.151	9.84
812.46	9.82
812.769	9.75
813.079	9.77
813.388	9.78
813.697	9.84
814.006	9.91
814.315	9.83
814.624	9.84
814.933	9.86
815.242	9.92
815.551	9.91
815.86	9.91
816.169	9.95
816.478	9.99
816.786	10.04
817.095	9.96
817.404	9.92
817.712	9.89
818.021	9.93
818.33	9.93
818.638	9.94
818.947	9.94
819.255	9.94
819.563	9.94
819.872	9.92
820.18	9.91
820.488	9.88
820.796	9.9
821.105	9.9
821.413	9.94
821.721	9.95
822.029	9.94
822.337	9.94
822.645	9.93
822.953	9.94
823.26	9.93
823.568	9.95
823.876	9.96
824.184	9.98
824.491	9.99
824.799	9.99
825.107	10
825.414	10.04
825.722	10.03
826.029	10.04
826.337	10.05
826.644	10.04
826.951	10.07
827.259	10.07
827.566	10.06
827.873	10.04
828.18	10.06
828.488	10.06
828.795	10.07
829.102	10.06
829.409	10.05
829.716	10.1
830.023	10.13
830.329	10.15
830.636	10.16
830.943	10.19
831.25	10.18
831.557	10.19
831.863	10.19
832.17	10.21
832.476	10.23
832.783	10.24
833.089	10.25
833.396	10.22
833.702	10.26
834.009	10.26
834.315	10.27
834.621	10.31
834.928	10.34
835.234	10.35
835.54	10.31
835.846	10.33
836.152	10.3
836.458	10.31
836.764	10.3
837.07	10.27
837.376	10.29
837.682	10.27
837.988	10.26
838.293	10.29
838.599	10.29
838.905	10.24
839.211	10.24
839.516	10.25
839.822	10.3
840.127	10.38
840.433	10.41
840.738	10.42
841.044	10.43
841.349	10.42
841.654	10.47
841.959	10.55
842.265	10.54
842.57	10.53
842.875	10.59
843.18	10.54
843.485	10.52
843.79	10.61
844.095	10.64
844.4	10.74
844.705	10.78
845.01	10.73
845.315	10.69
845.619	10.67
845.924	10.74
846.229	10.74
846.533	10.77
846.838	10.77
847.142	10.77
847.447	10.81
847.751	10.9
848.056	11.05
848.36	11.16
848.664	11.11
848.969	11.23
849.273	11.21
849.577	11.3
849.881	11.4
850.185	11.59
850.489	11.6
850.794	11.66
851.097	11.65
851.401	11.75
851.705	11.79
852.009	11.92
852.313	11.91
852.617	11.78
852.92	11.86
853.224	11.8
853.528	11.77
853.831	11.75
854.135	11.72
854.438	11.61
854.742	11.61
855.045	11.62
855.349	11.74
855.652	11.85
855.955	11.96
856.259	12
856.562	12.05
856.865	12.12
857.168	12.04
857.471	12.18
857.774	12.33
858.077	12.44
858.38	12.47
858.683	12.56
858.986	12.49
859.289	12.37
859.592	12.47
859.894	12.5
860.197	12.48
860.5	12.42
860.802	12.38
861.105	12.56
861.407	12.46
861.71	12.43
862.012	12.53
862.315	12.4
862.617	12.29
862.919	12.35
863.222	12.23
863.524	12.17
863.826	12.14
864.128	12.12
864.43	12.09
864.732	12.14
865.034	12.15
865.336	12.13
865.638	12.18
865.94	12.16
866.242	12.15
866.544	12.35
866.846	12.5
867.147	12.45
867.449	12.54
867.751	12.42
868.052	12.42
868.354	12.39
868.655	12.25
868.957	12.15
869.258	12.14
869.56	12.28
869.861	12.36
870.162	12.34
870.463	12.57
870.765	12.49
871.066	12.59
871.367	12.53
871.668	12.65
871.969	12.63
872.27	12.63
872.571	12.68
872.872	12.73
873.173	12.76
873.473	12.74
873.774	12.78
874.075	12.9
874.376	12.84
874.676	12.88
874.977	12.98
875.277	12.98
875.578	13.1
875.878	13.25
876.179	13.26
876.479	13.36
876.78	13.34
877.08	13.2
877.38	13.29
877.68	13.36
877.981	13.45
878.281	13.62
878.581	13.83
