Data from UWBM122453_Reflection_00005.txt Node
Date: Sun May 02 12:40:02 EDT 2021
User: vgr7
Spectrometer: USB2G7710
Scans to average: 10
Trigger mode: 4
Integration Time (sec): 1.000000E-1
Electric dark correction enabled: true
Boxcar width: 20
XAxis mode: Wavelengths
Number of Pixels in Spectrum: 2048
>>>>>Begin Spectral Data<<<<<
177.721	104.15
178.105	106.16
178.488	107.12
178.871	107.96
179.254	109.15
179.636	108.42
180.019	104.15
180.402	102.15
180.785	100.59
181.168	98.25
181.55	96.43
181.933	104.32
182.316	106.35
182.698	107.67
183.081	107.95
183.463	109.06
183.846	111.29
184.228	113.47
184.611	115.44
184.993	120.33
185.376	123.86
185.758	-56.07
186.14	-21.66
186.522	5.56
186.904	21.11
187.287	30.64
187.669	32.34
188.051	33.33
188.433	34.15
188.815	31.73
189.197	28.42
189.579	28.25
189.961	30.07
190.342	27.76
190.724	29.55
191.106	25.88
191.488	27.85
191.869	21.28
192.251	22.71
192.633	16.4
193.014	11.31
193.396	8.93
193.777	14.02
194.159	14.2
194.54	12.91
194.922	12.48
195.303	13.26
195.684	15.55
196.065	15.13
196.447	13.12
196.828	13.73
197.209	14.89
197.59	5.34
197.971	3.86
198.352	5.14
198.733	8.23
199.114	6.4
199.495	6.58
199.876	7.67
200.257	7.81
200.638	9.08
201.018	6.1
201.399	4.33
201.78	2.62
202.16	1.43
202.541	1.46
202.922	0.67
203.302	-0.15
203.683	-1.48
204.063	-1.04
204.444	0.97
204.824	2.9
205.204	5.49
205.585	11.17
205.965	10.55
206.345	10.58
206.725	7.05
207.106	7.44
207.486	9.37
207.866	9.18
208.246	10.05
208.626	12.42
209.006	15.54
209.386	11.43
209.766	11.29
210.145	9.97
210.525	8.75
210.905	9.96
211.285	10
211.664	8.91
212.044	9.49
212.424	9.33
212.803	4.7
213.183	7.7
213.562	7.74
213.942	6.15
214.321	3.62
214.701	4.2
215.08	4.84
215.459	4.27
215.838	2.65
216.218	2.36
216.597	1.28
216.976	-1.58
217.355	-0.39
217.734	0.15
218.113	0.52
218.492	0.97
218.871	0.21
219.25	0.5
219.629	0.62
220.008	-0.73
220.387	-0.48
220.766	0.36
221.144	-0.3
221.523	0.81
221.902	1.25
222.28	2.9
222.659	3.73
223.037	3.24
223.416	4.29
223.794	5.47
224.173	5.73
224.551	5.51
224.929	6.53
225.308	7.06
225.686	7.07
226.064	7.24
226.442	7.03
226.821	7.13
227.199	6.99
227.577	6.24
227.955	5.74
228.333	5.51
228.711	5.01
229.089	5.23
229.467	5.16
229.845	5.52
230.222	5.36
230.6	5.78
230.978	5.81
231.356	5.54
231.733	5.62
232.111	5.42
232.488	5.44
232.866	5.33
233.243	4.99
233.621	5.18
233.998	5.03
234.376	5.2
234.753	5.44
235.13	5.44
235.508	6.01
235.885	6.12
236.262	5.96
236.639	6.18
237.016	6.18
237.393	6.08
237.77	5.88
238.147	5.81
238.524	5.87
238.901	5.86
239.278	5.89
239.655	5.85
240.032	5.84
240.409	5.85
240.785	5.81
241.162	5.89
241.539	5.9
241.915	5.96
242.292	5.94
242.668	5.91
243.045	5.96
243.421	5.82
243.798	5.82
244.174	5.82
244.551	5.76
244.927	5.62
245.303	5.59
245.679	5.63
246.056	5.59
246.432	5.59
246.808	5.34
247.184	5.33
247.56	5.29
247.936	5.31
248.312	5.29
248.688	5.37
249.064	5.33
249.44	5.31
249.815	5.3
250.191	5.25
250.567	5.23
250.943	5.29
251.318	5.31
251.694	5.28
252.069	5.21
252.445	5.23
252.82	5.35
253.196	5.34
253.571	5.28
253.947	5.36
254.322	5.31
254.697	5.45
255.073	5.43
255.448	5.39
255.823	5.35
256.198	5.31
256.573	5.14
256.948	5.09
257.323	5.08
257.698	5
258.073	4.99
258.448	4.86
258.823	4.86
259.198	4.84
259.573	4.85
259.948	4.9
260.322	4.86
260.697	4.84
261.072	4.84
261.446	4.79
261.821	4.76
262.195	4.74
262.57	4.69
262.944	4.7
263.319	4.69
263.693	4.72
264.067	4.71
264.442	4.81
264.816	4.8
265.19	4.8
265.564	4.83
265.938	4.8
266.313	4.84
266.687	4.78
267.061	4.77
267.435	4.75
267.809	4.71
268.183	4.67
268.556	4.68
268.93	4.7
269.304	4.64
269.678	4.62
270.051	4.59
270.425	4.55
270.799	4.58
271.172	4.59
271.546	4.57
271.919	4.57
272.293	4.55
272.666	4.55
273.04	4.57
273.413	4.5
273.787	4.47
274.16	4.47
274.533	4.49
274.906	4.48
275.279	4.49
275.653	4.46
276.026	4.46
276.399	4.42
276.772	4.44
277.145	4.45
277.518	4.48
277.891	4.52
278.263	4.51
278.636	4.52
279.009	4.53
279.382	4.51
279.755	4.45
280.127	4.46
280.5	4.45
280.872	4.44
281.245	4.55
281.617	4.56
281.99	4.59
282.362	4.64
282.735	4.63
283.107	4.62
283.479	4.62
283.852	4.65
284.224	4.66
284.596	4.66
284.968	4.53
285.34	4.51
285.713	4.52
286.085	4.44
286.457	4.43
286.829	4.4
287.201	4.41
287.572	4.45
287.944	4.47
288.316	4.5
288.688	4.53
289.06	4.53
289.431	4.53
289.803	4.51
290.175	4.51
290.546	4.52
290.918	4.54
291.289	4.5
291.661	4.51
292.032	4.47
292.403	4.49
292.775	4.57
293.146	4.55
293.517	4.58
293.889	4.63
294.26	4.62
294.631	4.64
295.002	4.68
295.373	4.71
295.744	4.7
296.115	4.7
296.486	4.62
296.857	4.63
297.228	4.61
297.599	4.59
297.97	4.58
298.34	4.59
298.711	4.55
299.082	4.53
299.452	4.55
299.823	4.57
300.194	4.59
300.564	4.58
300.935	4.57
301.305	4.55
301.676	4.53
302.046	4.54
302.416	4.53
302.787	4.53
303.157	4.45
303.527	4.45
303.897	4.46
304.267	4.45
304.637	4.45
305.008	4.47
305.378	4.48
305.748	4.46
306.117	4.51
306.487	4.56
306.857	4.59
307.227	4.57
307.597	4.55
307.967	4.53
308.336	4.54
308.706	4.54
309.076	4.54
309.445	4.53
309.815	4.42
310.184	4.4
310.554	4.34
310.923	4.36
311.293	4.38
311.662	4.38
312.031	4.37
312.401	4.36
312.77	4.34
313.139	4.32
313.508	4.34
313.877	4.28
314.246	4.26
314.616	4.21
314.985	4.15
315.353	4.15
315.722	4.15
316.091	4.15
316.46	4.15
316.829	4.17
317.198	4.19
317.567	4.32
317.935	4.32
318.304	4.36
318.672	4.36
319.041	4.35
319.41	4.35
319.778	4.36
320.147	4.38
320.515	4.37
320.883	4.36
321.252	4.29
321.62	4.33
321.988	4.33
322.357	4.34
322.725	4.4
323.093	4.41
323.461	4.41
323.829	4.42
324.197	4.4
324.565	4.38
324.933	4.39
325.301	4.37
325.669	4.36
326.037	4.35
326.405	4.3
326.772	4.29
327.14	4.27
327.508	4.26
327.875	4.26
328.243	4.27
328.61	4.23
328.978	4.23
329.346	4.22
329.713	4.21
330.08	4.21
330.448	4.21
330.815	4.17
331.182	4.17
331.55	4.16
331.917	4.16
332.284	4.14
332.651	4.15
333.018	4.13
333.385	4.14
333.752	4.16
334.119	4.16
334.486	4.17
334.853	4.15
335.22	4.15
335.587	4.14
335.954	4.14
336.32	4.16
336.687	4.16
337.054	4.15
337.42	4.17
337.787	4.16
338.153	4.17
338.52	4.2
338.886	4.23
339.253	4.21
339.619	4.19
339.986	4.16
340.352	4.16
340.718	4.17
341.084	4.18
341.451	4.16
341.817	4.15
342.183	4.14
342.549	4.15
342.915	4.14
343.281	4.16
343.647	4.15
344.013	4.18
344.379	4.2
344.745	4.2
345.11	4.2
345.476	4.2
345.842	4.21
346.208	4.19
346.573	4.19
346.939	4.21
347.304	4.21
347.67	4.2
348.035	4.22
348.401	4.19
348.766	4.21
349.132	4.21
349.497	4.23
349.862	4.23
350.228	4.24
350.593	4.25
350.958	4.24
351.323	4.22
351.688	4.21
352.053	4.19
352.418	4.19
352.783	4.18
353.148	4.18
353.513	4.16
353.878	4.16
354.243	4.17
354.608	4.17
354.972	4.19
355.337	4.19
355.702	4.16
356.066	4.17
356.431	4.17
356.795	4.17
357.16	4.15
357.524	4.15
357.889	4.14
358.253	4.15
358.618	4.15
358.982	4.16
359.346	4.16
359.71	4.15
360.075	4.15
360.439	4.16
360.803	4.16
361.167	4.15
361.531	4.17
361.895	4.17
362.259	4.17
362.623	4.17
362.987	4.16
363.351	4.18
363.714	4.17
364.078	4.17
364.442	4.18
364.806	4.18
365.169	4.17
365.533	4.16
365.896	4.16
366.26	4.16
366.623	4.16
366.987	4.16
367.35	4.17
367.714	4.17
368.077	4.18
368.44	4.18
368.803	4.18
369.167	4.18
369.53	4.19
369.893	4.2
370.256	4.2
370.619	4.22
370.982	4.2
371.345	4.2
371.708	4.2
372.071	4.21
372.434	4.21
372.797	4.22
373.159	4.24
373.522	4.24
373.885	4.24
374.247	4.23
374.61	4.23
374.973	4.23
375.335	4.22
375.698	4.21
376.06	4.22
376.423	4.22
376.785	4.22
377.147	4.21
377.51	4.22
377.872	4.22
378.234	4.22
378.596	4.24
378.958	4.25
379.321	4.26
379.683	4.26
380.045	4.26
380.407	4.26
380.769	4.26
381.13	4.27
381.492	4.28
381.854	4.29
382.216	4.29
382.578	4.29
382.939	4.29
383.301	4.29
383.663	4.3
384.024	4.29
384.386	4.29
384.747	4.29
385.109	4.28
385.47	4.28
385.832	4.29
386.193	4.29
386.554	4.29
386.916	4.29
387.277	4.29
387.638	4.31
387.999	4.31
388.36	4.31
388.721	4.31
389.082	4.31
389.443	4.31
389.804	4.32
390.165	4.32
390.526	4.33
390.887	4.32
391.248	4.32
391.609	4.32
391.969	4.33
392.33	4.33
392.691	4.34
393.051	4.34
393.412	4.33
393.772	4.34
394.133	4.34
394.493	4.33
394.854	4.34
395.214	4.33
395.574	4.33
395.935	4.32
396.295	4.32
396.655	4.33
397.015	4.33
397.376	4.32
397.736	4.32
398.096	4.32
398.456	4.33
398.816	4.34
399.176	4.33
399.535	4.34
399.895	4.35
400.255	4.34
400.615	4.35
400.975	4.35
401.334	4.35
401.694	4.35
402.054	4.35
402.413	4.33
402.773	4.33
403.132	4.34
403.492	4.35
403.851	4.34
404.211	4.35
404.57	4.36
404.929	4.37
405.288	4.37
405.648	4.37
406.007	4.37
406.366	4.38
406.725	4.38
407.084	4.38
407.443	4.39
407.802	4.38
408.161	4.38
408.52	4.38
408.879	4.38
409.238	4.39
409.596	4.39
409.955	4.4
410.314	4.4
410.673	4.4
411.031	4.41
411.39	4.41
411.748	4.42
412.107	4.43
412.465	4.44
412.824	4.46
413.182	4.48
413.54	4.51
413.899	4.53
414.257	4.56
414.615	4.61
414.974	4.64
415.332	4.69
415.69	4.74
416.048	4.77
416.406	4.82
416.764	4.85
417.122	4.89
417.48	4.92
417.838	4.96
418.195	4.99
418.553	5.01
418.911	5.03
419.269	5.03
419.626	5.03
419.984	5.02
420.342	5.01
420.699	4.99
421.057	4.97
421.414	4.95
421.772	4.94
422.129	4.93
422.486	4.93
422.844	4.92
423.201	4.92
423.558	4.92
423.915	4.92
424.273	4.92
424.63	4.92
424.987	4.91
425.344	4.91
425.701	4.92
426.058	4.92
426.415	4.92
426.772	4.92
427.128	4.91
427.485	4.9
427.842	4.89
428.199	4.88
428.555	4.87
428.912	4.85
429.269	4.82
429.625	4.8
429.982	4.77
430.338	4.74
430.695	4.72
431.051	4.68
431.407	4.66
431.764	4.64
432.12	4.61
432.476	4.61
432.832	4.6
433.189	4.6
433.545	4.6
433.901	4.62
434.257	4.65
434.613	4.68
434.969	4.71
435.325	4.73
435.681	4.78
436.036	4.8
436.392	4.82
436.748	4.84
437.104	4.84
437.459	4.86
437.815	4.88
438.171	4.9
438.526	4.93
438.882	4.96
439.237	5
439.593	5.04
439.948	5.07
440.304	5.12
440.659	5.15
441.014	5.16
441.369	5.19
441.725	5.21
442.08	5.23
442.435	5.25
442.79	5.25
443.145	5.25
443.5	5.25
443.855	5.25
444.21	5.25
444.565	5.25
444.92	5.24
445.275	5.23
445.629	5.22
445.984	5.21
446.339	5.2
446.693	5.19
447.048	5.17
447.403	5.15
447.757	5.13
448.112	5.1
448.466	5.08
448.82	5.06
449.175	5.03
449.529	5.02
449.883	5
450.238	4.97
450.592	4.97
450.946	4.96
451.3	4.96
451.654	4.97
452.008	4.97
452.362	4.97
452.716	4.98
453.07	4.98
453.424	4.97
453.778	4.97
454.132	4.95
454.486	4.94
454.839	4.92
455.193	4.89
455.547	4.88
455.9	4.84
456.254	4.82
456.607	4.79
456.961	4.76
457.314	4.74
457.668	4.73
458.021	4.73
458.375	4.72
458.728	4.73
459.081	4.73
459.434	4.74
459.787	4.75
460.141	4.76
460.494	4.76
460.847	4.77
461.2	4.78
461.553	4.79
461.906	4.79
462.259	4.8
462.611	4.81
462.964	4.81
463.317	4.82
463.67	4.83
464.022	4.83
464.375	4.83
464.728	4.84
465.08	4.84
465.433	4.84
465.785	4.84
466.138	4.82
466.49	4.81
466.843	4.78
467.195	4.76
467.547	4.74
467.899	4.71
468.252	4.68
468.604	4.65
468.956	4.63
469.308	4.61
469.66	4.61
470.012	4.6
470.364	4.6
470.716	4.61
471.068	4.63
471.42	4.65
471.772	4.67
472.123	4.69
472.475	4.7
472.827	4.71
473.178	4.72
473.53	4.73
473.882	4.74
474.233	4.76
474.585	4.81
474.936	4.87
475.288	4.97
475.639	5.1
475.99	5.26
476.342	5.43
476.693	5.61
477.044	5.79
477.395	5.98
477.746	6.18
478.097	6.37
478.448	6.57
478.8	6.76
479.15	6.94
479.501	7.1
479.852	7.25
480.203	7.39
480.554	7.52
480.905	7.66
481.255	7.79
481.606	7.91
481.957	8.01
482.307	8.12
482.658	8.22
483.009	8.32
483.359	8.41
483.709	8.5
484.06	8.59
484.41	8.68
484.761	8.76
485.111	8.84
485.461	8.91
485.811	8.98
486.162	9.04
486.512	9.1
486.862	9.14
487.212	9.17
487.562	9.2
487.912	9.21
488.262	9.21
488.612	9.21
488.961	9.19
489.311	9.14
489.661	9.07
490.011	8.96
490.36	8.84
490.71	8.7
491.06	8.54
491.409	8.38
491.759	8.22
492.108	8.04
492.458	7.86
492.807	7.67
493.157	7.49
493.506	7.31
493.855	7.13
494.204	6.97
494.554	6.82
494.903	6.69
495.252	6.55
495.601	6.42
495.95	6.29
496.299	6.18
496.648	6.07
496.997	5.96
497.346	5.86
497.695	5.76
498.043	5.67
498.392	5.58
498.741	5.49
499.09	5.4
499.438	5.32
499.787	5.24
500.135	5.16
500.484	5.1
500.832	5.05
501.181	5
501.529	4.97
501.878	4.95
502.226	4.94
502.574	4.94
502.923	4.93
503.271	4.93
503.619	4.93
503.967	4.93
504.315	4.93
504.663	4.92
505.011	4.92
505.359	4.91
505.707	4.91
506.055	4.91
506.403	4.91
506.751	4.91
507.098	4.91
507.446	4.92
507.794	4.93
508.141	4.95
508.489	4.97
508.837	4.99
509.184	5
509.531	5.02
509.879	5.03
510.226	5.05
510.574	5.06
510.921	5.08
511.268	5.09
511.616	5.11
511.963	5.14
512.31	5.16
512.657	5.18
513.004	5.2
513.351	5.22
513.698	5.22
514.045	5.23
514.392	5.24
514.739	5.24
515.086	5.23
515.432	5.23
515.779	5.23
516.126	5.23
516.473	5.23
516.819	5.23
517.166	5.24
517.512	5.25
517.859	5.26
518.205	5.28
518.552	5.31
518.898	5.35
519.245	5.39
519.591	5.46
519.937	5.54
520.283	5.65
520.629	5.76
520.976	5.89
521.322	6.02
521.668	6.15
522.014	6.28
522.36	6.41
522.706	6.54
523.052	6.66
523.398	6.78
523.743	6.88
524.089	6.97
524.435	7.04
524.781	7.11
525.126	7.17
525.472	7.24
525.817	7.3
526.163	7.35
526.509	7.4
526.854	7.46
527.199	7.51
527.545	7.56
527.89	7.61
528.235	7.66
528.581	7.71
528.926	7.76
529.271	7.81
529.616	7.85
529.961	7.89
530.306	7.91
530.651	7.94
530.996	7.96
531.341	7.96
531.686	7.97
532.031	7.97
532.376	7.97
532.721	7.97
533.065	7.97
533.41	7.97
533.755	7.97
534.099	7.92
534.444	7.89
534.788	7.84
535.133	7.8
535.477	7.75
535.822	7.69
536.166	7.62
536.51	7.55
536.855	7.46
537.199	7.36
537.543	7.27
537.887	7.19
538.231	7.12
538.576	7.06
538.92	6.99
539.264	6.93
539.608	6.87
539.951	6.8
540.295	6.72
540.639	6.65
540.983	6.58
541.327	6.52
541.671	6.45
542.014	6.39
542.358	6.32
542.701	6.28
543.045	6.24
543.389	6.21
543.732	6.19
544.075	6.17
544.419	6.15
544.762	6.13
545.105	6.11
545.449	6.1
545.792	6.1
546.135	6.09
546.478	6.08
546.821	6.05
547.165	6.02
547.508	5.97
547.851	5.91
548.194	5.85
548.536	5.79
548.879	5.71
549.222	5.63
549.565	5.54
549.908	5.46
550.25	5.39
550.593	5.32
550.936	5.27
551.278	5.23
551.621	5.2
551.963	5.17
552.306	5.14
552.648	5.13
552.991	5.1
553.333	5.09
553.675	5.08
554.017	5.08
554.36	5.08
554.702	5.1
555.044	5.1
555.386	5.12
555.728	5.14
556.07	5.15
556.412	5.16
556.754	5.16
557.096	5.16
557.438	5.16
557.78	5.17
558.121	5.16
558.463	5.17
558.805	5.17
559.147	5.18
559.488	5.18
559.83	5.18
560.171	5.18
560.513	5.18
560.854	5.18
561.196	5.17
561.537	5.17
561.878	5.17
562.22	5.17
562.561	5.17
562.902	5.18
563.243	5.19
563.584	5.19
563.925	5.2
564.266	5.19
564.607	5.2
564.948	5.2
565.289	5.21
565.63	5.21
565.971	5.21
566.312	5.22
566.653	5.22
566.993	5.21
567.334	5.21
567.675	5.22
568.015	5.23
568.356	5.23
568.696	5.24
569.037	5.24
569.377	5.23
569.718	5.24
570.058	5.24
570.398	5.24
570.739	5.24
571.079	5.24
571.419	5.23
571.759	5.24
572.099	5.24
572.439	5.23
572.779	5.24
573.119	5.24
573.459	5.23
573.799	5.23
574.139	5.24
574.479	5.24
574.819	5.24
575.158	5.23
575.498	5.24
575.838	5.24
576.177	5.24
576.517	5.24
576.856	5.23
577.196	5.23
577.535	5.22
577.875	5.22
578.214	5.22
578.553	5.22
578.893	5.22
579.232	5.22
579.571	5.21
579.91	5.21
580.25	5.2
580.589	5.2
580.928	5.2
581.267	5.2
581.606	5.19
581.945	5.19
582.283	5.19
582.622	5.19
582.961	5.19
583.3	5.19
583.639	5.19
583.977	5.2
584.316	5.2
584.654	5.2
584.993	5.21
585.332	5.2
585.67	5.2
586.008	5.19
586.347	5.19
586.685	5.19
587.024	5.2
587.362	5.2
587.7	5.2
588.038	5.2
588.376	5.21
588.715	5.21
589.053	5.22
589.391	5.22
589.729	5.22
590.067	5.22
590.404	5.22
590.742	5.22
591.08	5.22
591.418	5.23
591.756	5.23
592.093	5.24
592.431	5.25
592.769	5.26
593.106	5.26
593.444	5.26
593.781	5.25
594.119	5.26
594.456	5.25
594.793	5.26
595.131	5.26
595.468	5.26
595.805	5.26
596.143	5.27
596.48	5.26
596.817	5.26
597.154	5.27
597.491	5.27
597.828	5.28
598.165	5.28
598.502	5.28
598.839	5.28
599.176	5.28
599.512	5.28
599.849	5.29
600.186	5.29
600.523	5.29
600.859	5.29
601.196	5.29
601.532	5.3
601.869	5.3
602.205	5.3
602.542	5.3
602.878	5.3
603.215	5.28
603.551	5.28
603.887	5.28
604.223	5.29
604.56	5.29
604.896	5.29
605.232	5.29
605.568	5.29
605.904	5.29
606.24	5.3
606.576	5.3
606.912	5.31
607.248	5.31
607.583	5.31
607.919	5.31
608.255	5.31
608.591	5.31
608.926	5.3
609.262	5.31
609.597	5.31
609.933	5.31
610.268	5.33
610.604	5.33
610.939	5.33
611.275	5.33
611.61	5.33
611.945	5.32
612.281	5.33
612.616	5.33
612.951	5.32
613.286	5.32
613.621	5.31
613.956	5.31
614.291	5.32
614.626	5.32
614.961	5.33
615.296	5.33
615.631	5.33
615.966	5.33
616.3	5.33
616.635	5.34
616.97	5.33
617.304	5.33
617.639	5.33
617.973	5.33
618.308	5.33
618.642	5.32
618.977	5.31
619.311	5.31
619.646	5.31
619.98	5.32
620.314	5.31
620.648	5.32
620.983	5.32
621.317	5.32
621.651	5.33
621.985	5.33
622.319	5.33
622.653	5.33
622.987	5.33
623.321	5.33
623.655	5.33
623.988	5.34
624.322	5.33
624.656	5.34
624.99	5.34
625.323	5.34
625.657	5.34
625.99	5.35
626.324	5.36
626.657	5.36
626.991	5.36
627.324	5.35
627.658	5.36
627.991	5.36
628.324	5.37
628.657	5.37
628.991	5.37
629.324	5.38
629.657	5.39
629.99	5.38
630.323	5.39
630.656	5.39
630.989	5.39
631.322	5.4
631.655	5.39
631.987	5.39
632.32	5.4
632.653	5.4
632.986	5.4
633.318	5.4
633.651	5.39
633.984	5.39
634.316	5.4
634.649	5.4
634.981	5.41
635.313	5.41
635.646	5.4
635.978	5.39
636.31	5.39
636.643	5.38
636.975	5.39
637.307	5.39
637.639	5.39
637.971	5.4
638.303	5.4
638.635	5.4
638.967	5.41
639.299	5.41
639.631	5.41
639.963	5.42
640.295	5.43
640.626	5.44
640.958	5.45
641.29	5.45
641.621	5.45
641.953	5.45
642.285	5.46
642.616	5.47
642.948	5.47
643.279	5.48
643.61	5.48
643.942	5.47
644.273	5.47
644.604	5.47
644.936	5.47
645.267	5.47
645.598	5.48
645.929	5.49
646.26	5.49
646.591	5.48
646.922	5.48
647.253	5.49
647.584	5.49
647.915	5.49
648.245	5.5
648.576	5.5
648.907	5.49
649.238	5.49
649.568	5.5
649.899	5.5
650.229	5.5
650.56	5.51
650.89	5.53
651.221	5.54
651.551	5.55
651.882	5.55
652.212	5.55
652.542	5.55
652.872	5.55
653.203	5.56
653.533	5.57
653.863	5.56
654.193	5.55
654.523	5.55
654.853	5.55
655.183	5.54
655.513	5.54
655.843	5.55
656.172	5.56
656.502	5.56
656.832	5.54
657.162	5.54
657.491	5.55
657.821	5.55
658.15	5.54
658.48	5.54
658.809	5.54
659.139	5.54
659.468	5.54
659.798	5.55
660.127	5.56
660.456	5.59
660.785	5.6
661.115	5.61
661.444	5.61
661.773	5.62
662.102	5.62
662.431	5.62
662.76	5.62
663.089	5.62
663.418	5.63
663.747	5.63
664.076	5.63
664.404	5.62
664.733	5.63
665.062	5.64
665.39	5.65
665.719	5.64
666.048	5.64
666.376	5.64
666.705	5.62
667.033	5.6
667.362	5.59
667.69	5.6
668.018	5.61
668.347	5.61
668.675	5.58
669.003	5.59
669.331	5.59
669.659	5.59
669.987	5.59
670.315	5.6
670.643	5.62
670.971	5.63
671.299	5.62
671.627	5.63
671.955	5.63
672.283	5.63
672.61	5.65
672.938	5.67
673.266	5.67
673.593	5.67
673.921	5.68
674.249	5.69
674.576	5.7
674.904	5.72
675.231	5.72
675.558	5.74
675.886	5.76
676.213	5.75
676.54	5.77
676.867	5.77
677.195	5.77
677.522	5.79
677.849	5.8
678.176	5.81
678.503	5.83
678.83	5.83
679.157	5.84
679.484	5.84
679.81	5.82
680.137	5.82
680.464	5.83
680.791	5.83
681.117	5.82
681.444	5.81
681.771	5.81
682.097	5.82
682.424	5.81
682.75	5.8
683.077	5.8
683.403	5.8
683.729	5.79
684.056	5.78
684.382	5.79
684.708	5.79
685.034	5.8
685.36	5.79
685.686	5.8
686.012	5.81
686.339	5.83
686.664	5.83
686.99	5.83
687.316	5.84
687.642	5.85
687.968	5.88
688.294	5.89
688.619	5.87
688.945	5.89
689.271	5.89
689.596	5.9
689.922	5.93
690.247	5.93
690.573	5.94
690.898	5.96
691.224	5.96
691.549	5.97
691.874	5.95
692.2	5.97
692.525	5.97
692.85	5.96
693.175	5.98
693.5	6
693.825	6.01
694.15	6
694.475	6.01
694.8	6
695.125	6.01
695.45	6.04
695.775	6.04
696.099	6.05
696.424	6.07
696.749	6.07
697.073	6.09
697.398	6.1
697.723	6.1
698.047	6.1
698.372	6.11
698.696	6.1
699.02	6.09
699.345	6.09
699.669	6.1
699.993	6.1
700.318	6.08
700.642	6.08
700.966	6.07
701.29	6.06
701.614	6.07
701.938	6.08
702.262	6.09
702.586	6.1
702.91	6.11
703.234	6.12
703.557	6.11
703.881	6.1
704.205	6.12
704.529	6.15
704.852	6.14
705.176	6.15
705.499	6.18
705.823	6.18
706.146	6.19
706.47	6.2
706.793	6.22
707.117	6.34
707.44	6.35
707.763	6.33
708.086	6.33
708.409	6.33
708.733	6.32
709.056	6.32
709.379	6.32
709.702	6.33
710.025	6.34
710.348	6.17
710.671	6.16
710.993	6.18
711.316	6.17
711.639	6.19
711.962	6.18
712.284	6.19
712.607	6.2
712.93	6.22
713.252	6.24
713.575	6.24
713.897	6.25
714.22	6.27
714.542	6.3
714.864	6.37
715.187	6.39
715.509	6.39
715.831	6.38
716.153	6.38
716.475	6.36
716.798	6.34
717.12	6.51
717.442	6.52
717.764	6.5
718.085	6.42
718.407	6.42
718.729	6.41
719.051	6.42
719.373	6.43
719.695	6.43
720.016	6.42
720.338	6.33
720.659	6.35
720.981	6.38
721.302	6.4
721.624	6.4
721.945	6.4
722.267	6.4
722.588	6.4
722.909	6.42
723.231	6.45
723.552	6.47
723.873	6.5
724.194	6.49
724.515	6.49
724.836	6.61
725.157	6.61
725.478	6.62
725.799	6.64
726.12	6.62
726.441	6.61
726.762	6.64
727.083	6.61
727.403	6.61
727.724	6.57
728.045	6.49
728.365	6.5
728.686	6.54
729.006	6.56
729.327	6.55
729.647	6.54
729.967	6.54
730.288	6.55
730.608	6.55
730.928	6.56
731.249	6.55
731.569	6.57
731.889	6.57
732.209	6.57
732.529	6.57
732.849	6.58
733.169	6.58
733.489	6.58
733.809	6.58
734.129	6.59
734.448	6.61
734.768	6.63
735.088	6.63
735.408	6.63
735.727	6.64
736.047	6.66
736.366	6.67
736.686	6.67
737.005	6.67
737.325	6.65
737.644	6.66
737.963	6.66
738.283	6.67
738.602	6.68
738.921	6.69
739.24	6.69
739.56	6.7
739.879	6.71
740.198	6.72
740.517	6.72
740.836	6.74
741.155	6.75
741.473	6.81
741.792	6.82
742.111	6.82
742.43	6.85
742.748	6.84
743.067	6.84
743.386	6.86
743.704	6.88
744.023	6.93
744.341	6.93
744.66	6.93
744.978	6.86
745.297	6.89
745.615	6.86
745.933	6.87
746.252	6.87
746.57	6.8
746.888	6.81
747.206	6.79
747.524	6.77
747.842	6.77
748.16	6.78
748.478	6.8
748.796	6.77
749.114	6.75
749.432	6.73
749.749	6.77
750.067	6.77
750.385	6.76
750.703	6.76
751.02	6.75
751.338	6.77
751.655	6.82
751.973	6.81
752.29	6.8
752.608	6.84
752.925	6.83
753.242	6.91
753.56	6.97
753.877	6.94
754.194	6.99
754.511	6.96
754.828	6.96
755.145	6.98
755.462	6.99
755.779	7.01
756.096	7.04
756.413	7.03
756.73	7.02
757.047	7
757.364	7.01
757.68	7.05
757.997	7.05
758.314	7.05
758.63	7.07
758.947	7.12
759.264	7.12
759.58	7.14
759.896	7.15
760.213	7.18
760.529	7.19
760.846	7.16
761.162	7.17
761.478	7.15
761.794	7.14
762.11	7.14
762.426	7.17
762.743	7.14
763.059	7.22
763.375	7.27
763.69	7.3
764.006	7.31
764.322	7.32
764.638	7.33
764.954	7.37
765.27	7.39
765.585	7.38
765.901	7.41
766.216	7.26
766.532	7.22
766.848	7.22
767.163	7.27
767.478	7.32
767.794	7.34
768.109	7.36
768.424	7.38
768.74	7.39
769.055	7.4
769.37	7.44
769.685	7.43
770	7.45
770.315	7.47
770.63	7.39
770.945	7.34
771.26	7.34
771.575	7.32
771.89	7.31
772.205	7.33
772.52	7.32
772.834	7.48
773.149	7.53
773.464	7.48
773.778	7.49
774.093	7.54
774.407	7.56
774.722	7.56
775.036	7.58
775.351	7.58
775.665	7.59
775.979	7.44
776.293	7.42
776.608	7.41
776.922	7.36
777.236	7.49
777.55	7.58
777.864	7.59
778.178	7.59
778.492	7.58
778.806	7.52
779.12	7.58
779.434	7.59
779.747	7.55
780.061	7.64
780.375	7.61
780.689	7.53
781.002	7.5
781.316	7.52
781.629	7.57
781.943	7.62
782.256	7.61
782.57	7.67
782.883	7.64
783.196	7.62
783.51	7.66
783.823	7.7
784.136	7.65
784.449	7.69
784.762	7.68
785.075	7.75
785.388	7.74
785.701	7.69
786.014	7.66
786.327	7.7
786.64	7.64
786.953	7.65
787.266	7.71
787.578	7.69
787.891	7.73
788.204	7.71
788.516	7.72
788.829	7.76
789.141	7.71
789.454	7.71
789.766	7.78
790.079	7.77
790.391	7.72
790.703	7.83
791.016	7.74
791.328	7.77
791.64	7.8
791.952	7.87
792.264	7.92
792.576	7.93
792.888	7.92
793.2	7.91
793.512	7.98
793.824	7.91
794.136	7.87
794.448	7.94
794.76	7.98
795.071	8.04
795.383	8.01
795.695	8.15
796.006	8.23
796.318	8.26
796.629	8.3
796.941	8.32
797.252	8.31
797.564	8.38
797.875	8.31
798.186	8.25
798.497	8.31
798.809	8.24
799.12	8.22
799.431	8.23
799.742	8.22
800.053	8.18
800.364	8.3
800.675	8.3
800.986	8.3
801.297	8.39
801.608	8.4
801.918	8.43
802.229	8.46
802.54	8.4
802.851	8.38
803.161	8.45
803.472	8.44
803.782	8.41
804.093	8.45
804.403	8.35
804.714	8.43
805.024	8.43
805.334	8.59
805.645	8.59
805.955	8.68
806.265	8.64
806.575	8.73
806.885	8.68
807.195	8.66
807.505	8.67
807.815	8.63
808.125	8.73
808.435	8.71
808.745	8.73
809.055	8.73
809.365	8.8
809.674	8.82
809.984	8.88
810.294	8.9
810.603	8.91
810.913	9.15
811.222	9.1
811.532	9.1
811.841	9.16
812.151	9.2
812.46	9.21
812.769	9.27
813.079	9.29
813.388	9.31
813.697	9.31
814.006	9.25
814.315	9.33
814.624	9.32
814.933	9.3
815.242	9.26
815.551	9.28
815.86	9.17
816.169	9.16
816.478	9.1
816.786	9.05
817.095	9.04
817.404	8.98
817.712	8.98
818.021	8.88
818.33	8.89
818.638	8.89
818.947	8.87
819.255	8.87
819.563	8.89
819.872	8.9
820.18	8.89
820.488	8.89
820.796	8.85
821.105	8.82
821.413	8.83
821.721	8.87
822.029	8.89
822.337	8.92
822.645	8.91
822.953	8.91
823.26	8.95
823.568	8.96
823.876	8.93
824.184	8.95
824.491	8.94
824.799	8.95
825.107	8.95
825.414	8.95
825.722	8.95
826.029	8.94
826.337	8.95
826.644	8.94
826.951	8.96
827.259	8.98
827.566	9.03
827.873	9.03
828.18	8.99
828.488	9
828.795	9.01
829.102	9.04
829.409	9.08
829.716	9.1
830.023	9.12
830.329	9.17
830.636	9.2
830.943	9.28
831.25	9.32
831.557	9.32
831.863	9.33
832.17	9.35
832.476	9.38
832.783	9.38
833.089	9.4
833.396	9.38
833.702	9.4
834.009	9.35
834.315	9.34
834.621	9.44
834.928	9.46
835.234	9.47
835.54	9.46
835.846	9.5
836.152	9.51
836.458	9.56
836.764	9.5
837.07	9.52
837.376	9.4
837.682	9.27
837.988	9.37
838.293	9.25
838.599	9.33
838.905	9.32
839.211	9.43
839.516	9.42
839.822	9.5
840.127	9.44
840.433	9.53
840.738	9.57
841.044	9.59
841.349	9.58
841.654	9.62
841.959	9.72
842.265	9.72
842.57	9.74
842.875	9.73
843.18	9.91
843.485	9.91
843.79	10.02
844.095	10.26
844.4	10.15
844.705	10.38
845.01	10.46
845.315	10.53
845.619	10.48
845.924	10.4
846.229	10.24
846.533	10.33
846.838	10.36
847.142	10.1
847.447	10.07
847.751	9.9
848.056	9.87
848.36	9.84
848.664	9.78
848.969	9.8
849.273	9.77
849.577	9.7
849.881	9.6
850.185	9.83
850.489	10.19
850.794	10.5
851.097	10.33
851.401	10.37
851.705	10.33
852.009	10.61
852.313	10.7
852.617	10.89
852.92	10.88
853.224	10.83
853.528	10.66
853.831	10.73
854.135	10.61
854.438	10.43
854.742	10.6
855.045	10.64
855.349	10.93
855.652	11.17
855.955	11.2
856.259	11.33
856.562	11.39
856.865	11.38
857.168	11.27
857.471	11.15
857.774	11.13
858.077	10.94
858.38	11.03
858.683	11
858.986	10.77
859.289	11.04
859.592	11.27
859.894	11.78
860.197	11.86
860.5	11.86
860.802	12
861.105	11.86
861.407	11.99
861.71	11.91
862.012	11.88
862.315	12.07
862.617	11.86
862.919	11.25
863.222	11.29
863.524	11.44
863.826	11.71
864.128	12.03
864.43	11.9
864.732	11.78
865.034	11.89
865.336	11.94
865.638	11.8
865.94	11.67
866.242	11.56
866.544	11.09
866.846	11.48
867.147	11.06
867.449	10.92
867.751	10.88
868.052	10.82
868.354	10.72
868.655	10.82
868.957	11.07
869.258	11.09
869.56	10.98
869.861	11.25
870.162	11.01
870.463	10.87
870.765	10.93
871.066	11.05
871.367	11.13
871.668	11.19
871.969	11.21
872.27	11.11
872.571	11.22
872.872	11.71
873.173	11.49
873.473	11.93
873.774	12.01
874.075	12.06
874.376	12.25
874.676	12.27
874.977	12.2
875.277	12.23
875.578	12.21
875.878	11.86
876.179	11.84
876.479	11.51
876.78	11.48
877.08	11.5
877.38	11.48
877.68	11.56
877.981	11.66
878.281	11.78
878.581	12.02
