Data from UWBM88853_Reflection_00012.txt Node
Date: Sun May 02 13:42:11 EDT 2021
User: vgr7
Spectrometer: USB2G7710
Scans to average: 10
Trigger mode: 4
Integration Time (sec): 1.000000E-1
Electric dark correction enabled: true
Boxcar width: 20
XAxis mode: Wavelengths
Number of Pixels in Spectrum: 2048
>>>>>Begin Spectral Data<<<<<
177.721	88.24
178.105	76.62
178.488	68.42
178.871	126.32
179.254	85.58
179.636	19.51
180.019	20.37
180.402	18.04
180.785	29.41
181.168	32
181.55	28.08
181.933	31.08
182.316	32.68
182.698	29.88
183.081	26.22
183.463	23.95
183.846	21.16
184.228	23.79
184.611	22.41
184.993	20.12
185.376	20.69
185.758	22.34
186.14	23.22
186.522	17.36
186.904	19.61
187.287	21.91
187.669	22.84
188.051	24.83
188.433	22.88
188.815	20.2
189.197	22.01
189.579	20.66
189.961	20.7
190.342	17.21
190.724	17.08
191.106	18.56
191.488	17.46
191.869	17.63
192.251	15.91
192.633	15.88
193.014	14.89
193.396	13.56
193.777	15.2
194.159	15.61
194.54	14.02
194.922	11.48
195.303	12.89
195.684	11.03
196.065	10.01
196.447	9.45
196.828	9.69
197.209	9.18
197.59	6.31
197.971	4.79
198.352	4.76
198.733	5.53
199.114	5.84
199.495	7.24
199.876	6.31
200.257	6.97
200.638	6.54
201.018	7.92
201.399	8.49
201.78	7.12
202.16	7.05
202.541	6.12
202.922	7.23
203.302	8.24
203.683	7.19
204.063	8.03
204.444	8.73
204.824	7.48
205.204	5.52
205.585	6.31
205.965	9.24
206.345	9.18
206.725	8.74
207.106	10.13
207.486	9.99
207.866	9.2
208.246	7.38
208.626	6.44
209.006	6.49
209.386	4.84
209.766	4.36
210.145	4.8
210.525	5.99
210.905	6.77
211.285	7.24
211.664	8.28
212.044	6.66
212.424	6.15
212.803	5.19
213.183	6.87
213.562	8.09
213.942	8.92
214.321	7.89
214.701	6.91
215.08	6.24
215.459	5.61
215.838	3.95
216.218	5.21
216.597	3.94
216.976	3.25
217.355	4.37
217.734	5.55
218.113	5.68
218.492	4.28
218.871	3.57
219.25	5.1
219.629	4.28
220.008	4.1
220.387	3.4
220.766	5.78
221.144	5.64
221.523	5.01
221.902	5.23
222.28	4.85
222.659	4.56
223.037	4.16
223.416	5
223.794	5.73
224.173	6.31
224.551	5.87
224.929	6.69
225.308	6.05
225.686	6.28
226.064	6.2
226.442	6.17
226.821	6.41
227.199	6.69
227.577	7.4
227.955	7.83
228.333	8.57
228.711	7.74
229.089	6.84
229.467	6.57
229.845	6.62
230.222	7.01
230.6	6.9
230.978	6.79
231.356	7.25
231.733	6.85
232.111	6.61
232.488	6.42
232.866	5.83
233.243	5.41
233.621	5.51
233.998	5.44
234.376	5.43
234.753	5.09
235.13	5.19
235.508	5.13
235.885	5.09
236.262	4.89
236.639	4.74
237.016	4.75
237.393	4.69
237.77	4.63
238.147	4.58
238.524	4.5
238.901	4.45
239.278	4.41
239.655	4.4
240.032	4.38
240.409	4.34
240.785	4.42
241.162	4.35
241.539	4.34
241.915	4.36
242.292	4.32
242.668	4.26
243.045	4.18
243.421	4.09
243.798	4.05
244.174	4.12
244.551	4.18
244.927	4.17
245.303	4.16
245.679	4.15
246.056	4.09
246.432	4.09
246.808	4.03
247.184	4.07
247.56	4.07
247.936	4.07
248.312	4.09
248.688	4.08
249.064	4.06
249.44	4.06
249.815	4.02
250.191	4
250.567	4
250.943	3.98
251.318	3.98
251.694	3.97
252.069	3.98
252.445	3.93
252.82	3.9
253.196	3.85
253.571	3.82
253.947	3.81
254.322	3.79
254.697	3.77
255.073	3.75
255.448	3.77
255.823	3.73
256.198	3.7
256.573	3.68
256.948	3.66
257.323	3.6
257.698	3.57
258.073	3.54
258.448	3.54
258.823	3.55
259.198	3.53
259.573	3.5
259.948	3.49
260.322	3.49
260.697	3.47
261.072	3.45
261.446	3.44
261.821	3.43
262.195	3.43
262.57	3.4
262.944	3.39
263.319	3.4
263.693	3.4
264.067	3.4
264.442	3.39
264.816	3.38
265.19	3.37
265.564	3.37
265.938	3.34
266.313	3.34
266.687	3.33
267.061	3.34
267.435	3.32
267.809	3.33
268.183	3.32
268.556	3.33
268.93	3.34
269.304	3.34
269.678	3.32
270.051	3.32
270.425	3.3
270.799	3.27
271.172	3.29
271.546	3.31
271.919	3.31
272.293	3.29
272.666	3.32
273.04	3.35
273.413	3.38
273.787	3.41
274.16	3.41
274.533	3.42
274.906	3.44
275.279	3.42
275.653	3.42
276.026	3.43
276.399	3.44
276.772	3.47
277.145	3.47
277.518	3.47
277.891	3.47
278.263	3.48
278.636	3.47
279.009	3.47
279.382	3.47
279.755	3.48
280.127	3.49
280.5	3.51
280.872	3.53
281.245	3.54
281.617	3.55
281.99	3.56
282.362	3.55
282.735	3.55
283.107	3.55
283.479	3.57
283.852	3.58
284.224	3.58
284.596	3.57
284.968	3.59
285.34	3.59
285.713	3.62
286.085	3.63
286.457	3.63
286.829	3.62
287.201	3.64
287.572	3.65
287.944	3.65
288.316	3.63
288.688	3.63
289.06	3.62
289.431	3.62
289.803	3.63
290.175	3.63
290.546	3.64
290.918	3.64
291.289	3.64
291.661	3.64
292.032	3.63
292.403	3.66
292.775	3.66
293.146	3.67
293.517	3.68
293.889	3.69
294.26	3.71
294.631	3.72
295.002	3.74
295.373	3.75
295.744	3.76
296.115	3.76
296.486	3.78
296.857	3.81
297.228	3.81
297.599	3.83
297.97	3.84
298.34	3.84
298.711	3.86
299.082	3.87
299.452	3.89
299.823	3.91
300.194	3.92
300.564	3.93
300.935	3.94
301.305	3.95
301.676	3.95
302.046	3.97
302.416	4
302.787	4
303.157	4.02
303.527	4.04
303.897	4.05
304.267	4.07
304.637	4.09
305.008	4.1
305.378	4.13
305.748	4.15
306.117	4.18
306.487	4.23
306.857	4.25
307.227	4.28
307.597	4.3
307.967	4.32
308.336	4.34
308.706	4.35
309.076	4.35
309.445	4.36
309.815	4.38
310.184	4.39
310.554	4.41
310.923	4.42
311.293	4.43
311.662	4.43
312.031	4.45
312.401	4.47
312.77	4.49
313.139	4.51
313.508	4.53
313.877	4.54
314.246	4.55
314.616	4.58
314.985	4.6
315.353	4.63
315.722	4.64
316.091	4.65
316.46	4.68
316.829	4.72
317.198	4.74
317.567	4.75
317.935	4.77
318.304	4.81
318.672	4.83
319.041	4.85
319.41	4.88
319.778	4.9
320.147	4.9
320.515	4.92
320.883	4.93
321.252	4.92
321.62	4.92
321.988	4.94
322.357	4.96
322.725	4.96
323.093	4.98
323.461	5
323.829	5.03
324.197	5.06
324.565	5.09
324.933	5.1
325.301	5.11
325.669	5.12
326.037	5.13
326.405	5.15
326.772	5.16
327.14	5.16
327.508	5.15
327.875	5.16
328.243	5.16
328.61	5.18
328.978	5.18
329.346	5.2
329.713	5.2
330.08	5.21
330.448	5.21
330.815	5.22
331.182	5.23
331.55	5.23
331.917	5.24
332.284	5.24
332.651	5.24
333.018	5.26
333.385	5.27
333.752	5.28
334.119	5.3
334.486	5.3
334.853	5.33
335.22	5.35
335.587	5.36
335.954	5.38
336.32	5.4
336.687	5.41
337.054	5.43
337.42	5.44
337.787	5.47
338.153	5.48
338.52	5.49
338.886	5.5
339.253	5.51
339.619	5.52
339.986	5.54
340.352	5.56
340.718	5.58
341.084	5.6
341.451	5.61
341.817	5.62
342.183	5.65
342.549	5.67
342.915	5.68
343.281	5.7
343.647	5.71
344.013	5.72
344.379	5.72
344.745	5.73
345.11	5.74
345.476	5.77
345.842	5.78
346.208	5.79
346.573	5.8
346.939	5.81
347.304	5.84
347.67	5.85
348.035	5.87
348.401	5.88
348.766	5.9
349.132	5.91
349.497	5.93
349.862	5.94
350.228	5.95
350.593	5.96
350.958	5.97
351.323	5.97
351.688	5.98
352.053	5.98
352.418	5.99
352.783	5.99
353.148	6
353.513	6.01
353.878	6.01
354.243	6.02
354.608	6.02
354.972	6.02
355.337	6.03
355.702	6.02
356.066	6.02
356.431	6.02
356.795	6.02
357.16	6
357.524	6.01
357.889	6.01
358.253	6
358.618	5.99
358.982	6
359.346	5.99
359.71	5.99
360.075	6
360.439	5.99
360.803	5.99
361.167	5.98
361.531	5.97
361.895	5.95
362.259	5.94
362.623	5.93
362.987	5.92
363.351	5.91
363.714	5.9
364.078	5.89
364.442	5.88
364.806	5.86
365.169	5.85
365.533	5.84
365.896	5.83
366.26	5.82
366.623	5.81
366.987	5.79
367.35	5.78
367.714	5.76
368.077	5.74
368.44	5.72
368.803	5.7
369.167	5.67
369.53	5.65
369.893	5.63
370.256	5.6
370.619	5.58
370.982	5.56
371.345	5.54
371.708	5.52
372.071	5.5
372.434	5.47
372.797	5.45
373.159	5.42
373.522	5.41
373.885	5.38
374.247	5.37
374.61	5.33
374.973	5.3
375.335	5.27
375.698	5.24
376.06	5.22
376.423	5.19
376.785	5.17
377.147	5.15
377.51	5.11
377.872	5.09
378.234	5.05
378.596	5.03
378.958	4.99
379.321	4.96
379.683	4.94
380.045	4.91
380.407	4.89
380.769	4.86
381.13	4.84
381.492	4.81
381.854	4.79
382.216	4.76
382.578	4.74
382.939	4.72
383.301	4.7
383.663	4.68
384.024	4.65
384.386	4.63
384.747	4.61
385.109	4.58
385.47	4.56
385.832	4.53
386.193	4.51
386.554	4.49
386.916	4.47
387.277	4.44
387.638	4.42
387.999	4.41
388.36	4.39
388.721	4.36
389.082	4.35
389.443	4.33
389.804	4.31
390.165	4.29
390.526	4.28
390.887	4.26
391.248	4.24
391.609	4.23
391.969	4.21
392.33	4.2
392.691	4.19
393.051	4.17
393.412	4.16
393.772	4.14
394.133	4.12
394.493	4.1
394.854	4.08
395.214	4.06
395.574	4.05
395.935	4.04
396.295	4.02
396.655	4
397.015	3.99
397.376	3.97
397.736	3.96
398.096	3.94
398.456	3.93
398.816	3.92
399.176	3.9
399.535	3.88
399.895	3.87
400.255	3.86
400.615	3.84
400.975	3.83
401.334	3.82
401.694	3.81
402.054	3.8
402.413	3.79
402.773	3.77
403.132	3.76
403.492	3.76
403.851	3.74
404.211	3.74
404.57	3.73
404.929	3.72
405.288	3.71
405.648	3.71
406.007	3.71
406.366	3.7
406.725	3.69
407.084	3.68
407.443	3.68
407.802	3.67
408.161	3.66
408.52	3.66
408.879	3.66
409.238	3.65
409.596	3.65
409.955	3.65
410.314	3.64
410.673	3.63
411.031	3.63
411.39	3.63
411.748	3.62
412.107	3.62
412.465	3.62
412.824	3.64
413.182	3.65
413.54	3.66
413.899	3.68
414.257	3.7
414.615	3.73
414.974	3.75
415.332	3.78
415.69	3.81
416.048	3.83
416.406	3.86
416.764	3.88
417.122	3.9
417.48	3.93
417.838	3.95
418.195	3.96
418.553	3.98
418.911	3.98
419.269	3.99
419.626	3.98
419.984	3.97
420.342	3.96
420.699	3.94
421.057	3.92
421.414	3.9
421.772	3.89
422.129	3.88
422.486	3.88
422.844	3.87
423.201	3.87
423.558	3.86
423.915	3.86
424.273	3.86
424.63	3.86
424.987	3.86
425.344	3.85
425.701	3.85
426.058	3.85
426.415	3.85
426.772	3.84
427.128	3.84
427.485	3.83
427.842	3.82
428.199	3.8
428.555	3.79
428.912	3.77
429.269	3.74
429.625	3.72
429.982	3.69
430.338	3.66
430.695	3.64
431.051	3.61
431.407	3.59
431.764	3.58
432.12	3.56
432.476	3.55
432.832	3.54
433.189	3.54
433.545	3.54
433.901	3.55
434.257	3.57
434.613	3.59
434.969	3.61
435.325	3.63
435.681	3.67
436.036	3.69
436.392	3.7
436.748	3.72
437.104	3.72
437.459	3.74
437.815	3.75
438.171	3.77
438.526	3.79
438.882	3.81
439.237	3.84
439.593	3.87
439.948	3.9
440.304	3.93
440.659	3.95
441.014	3.96
441.369	3.98
441.725	4
442.08	4.01
442.435	4.02
442.79	4.03
443.145	4.03
443.5	4.03
443.855	4.03
444.21	4.03
444.565	4.02
444.92	4.01
445.275	4.01
445.629	4
445.984	3.99
446.339	3.98
446.693	3.97
447.048	3.95
447.403	3.94
447.757	3.91
448.112	3.9
448.466	3.87
448.82	3.85
449.175	3.83
449.529	3.81
449.883	3.8
450.238	3.77
450.592	3.77
450.946	3.76
451.3	3.76
451.654	3.77
452.008	3.76
452.362	3.77
452.716	3.77
453.07	3.77
453.424	3.76
453.778	3.76
454.132	3.75
454.486	3.74
454.839	3.73
455.193	3.71
455.547	3.7
455.9	3.68
456.254	3.66
456.607	3.64
456.961	3.61
457.314	3.59
457.668	3.59
458.021	3.59
458.375	3.58
458.728	3.58
459.081	3.58
459.434	3.59
459.787	3.6
460.141	3.61
460.494	3.62
460.847	3.63
461.2	3.64
461.553	3.65
461.906	3.65
462.259	3.66
462.611	3.67
462.964	3.68
463.317	3.68
463.67	3.69
464.022	3.7
464.375	3.71
464.728	3.71
465.08	3.72
465.433	3.73
465.785	3.73
466.138	3.72
466.49	3.71
466.843	3.7
467.195	3.68
467.547	3.67
467.899	3.65
468.252	3.63
468.604	3.61
468.956	3.6
469.308	3.59
469.66	3.59
470.012	3.59
470.364	3.59
470.716	3.6
471.068	3.61
471.42	3.63
471.772	3.65
472.123	3.66
472.475	3.67
472.827	3.68
473.178	3.69
473.53	3.7
473.882	3.71
474.233	3.73
474.585	3.76
474.936	3.81
475.288	3.88
475.639	3.98
475.99	4.09
476.342	4.22
476.693	4.35
477.044	4.49
477.395	4.63
477.746	4.78
478.097	4.93
478.448	5.07
478.8	5.22
479.15	5.36
479.501	5.48
479.852	5.6
480.203	5.71
480.554	5.81
480.905	5.91
481.255	6
481.606	6.09
481.957	6.18
482.307	6.26
482.658	6.33
483.009	6.41
483.359	6.48
483.709	6.55
484.06	6.62
484.41	6.69
484.761	6.75
485.111	6.81
485.461	6.87
485.811	6.93
486.162	6.98
486.512	7.03
486.862	7.06
487.212	7.08
487.562	7.1
487.912	7.11
488.262	7.12
488.612	7.11
488.961	7.1
489.311	7.07
489.661	7.02
490.011	6.95
490.36	6.86
490.71	6.76
491.06	6.65
491.409	6.54
491.759	6.42
492.108	6.29
492.458	6.16
492.807	6.03
493.157	5.89
493.506	5.77
493.855	5.65
494.204	5.54
494.554	5.43
494.903	5.33
495.252	5.24
495.601	5.16
495.95	5.08
496.299	5
496.648	4.93
496.997	4.87
497.346	4.81
497.695	4.76
498.043	4.71
498.392	4.66
498.741	4.62
499.09	4.58
499.438	4.55
499.787	4.53
500.135	4.5
500.484	4.49
500.832	4.5
501.181	4.51
501.529	4.54
501.878	4.58
502.226	4.63
502.574	4.68
502.923	4.74
503.271	4.81
503.619	4.88
503.967	4.95
504.315	5.03
504.663	5.11
505.011	5.19
505.359	5.27
505.707	5.36
506.055	5.45
506.403	5.55
506.751	5.66
507.098	5.77
507.446	5.88
507.794	6
508.141	6.13
508.489	6.26
508.837	6.41
509.184	6.55
509.531	6.71
509.879	6.87
510.226	7.05
510.574	7.23
510.921	7.43
511.268	7.63
511.616	7.85
511.963	8.06
512.31	8.29
512.657	8.51
513.004	8.73
513.351	8.95
513.698	9.16
514.045	9.37
514.392	9.56
514.739	9.75
515.086	9.94
515.432	10.13
515.779	10.32
516.126	10.52
516.473	10.73
516.819	10.97
517.166	11.22
517.512	11.48
517.859	11.77
518.205	12.07
518.552	12.4
518.898	12.75
519.245	13.14
519.591	13.61
519.937	14.14
520.283	14.76
520.629	15.43
520.976	16.13
521.322	16.86
521.668	17.61
522.014	18.36
522.36	19.11
522.706	19.84
523.052	20.56
523.398	21.24
523.743	21.87
524.089	22.45
524.435	23
524.781	23.55
525.126	24.07
525.472	24.59
525.817	25.1
526.163	25.61
526.509	26.1
526.854	26.59
527.199	27.08
527.545	27.56
527.89	28.06
528.235	28.54
528.581	29
528.926	29.44
529.271	29.85
529.616	30.25
529.961	30.63
530.306	30.98
530.651	31.31
530.996	31.61
531.341	31.88
531.686	32.14
532.031	32.38
532.376	32.65
532.721	32.93
533.065	33.25
533.41	33.57
533.755	33.85
534.099	34.1
534.444	34.3
534.788	34.47
535.133	34.62
535.477	34.74
535.822	34.83
536.166	34.89
536.51	34.89
536.855	34.82
537.199	34.73
537.543	34.63
537.887	34.56
538.231	34.52
538.576	34.49
538.92	34.45
539.264	34.39
539.608	34.31
539.951	34.21
540.295	34.1
540.639	33.97
540.983	33.83
541.327	33.66
541.671	33.48
542.014	33.34
542.358	33.21
542.701	33.17
543.045	33.18
543.389	33.21
543.732	33.27
544.075	33.33
544.419	33.41
544.762	33.5
545.105	33.6
545.449	33.72
545.792	33.84
546.135	33.97
546.478	34.05
546.821	34.07
547.165	34.04
547.508	33.96
547.851	33.82
548.194	33.64
548.536	33.42
548.879	33.17
549.222	32.89
549.565	32.61
549.908	32.32
550.25	32.06
550.593	31.85
550.936	31.72
551.278	31.64
551.621	31.59
551.963	31.57
552.306	31.56
552.648	31.59
552.991	31.63
553.333	31.7
553.675	31.8
554.017	31.93
554.36	32.08
554.702	32.25
555.044	32.47
555.386	32.72
555.728	33
556.07	33.22
556.412	33.46
556.754	33.61
557.096	33.74
557.438	33.86
557.78	33.99
558.121	34.12
558.463	34.26
558.805	34.38
559.147	34.5
559.488	34.61
559.83	34.73
560.171	34.84
560.513	34.96
560.854	35.06
561.196	35.18
561.537	35.29
561.878	35.39
562.22	35.5
562.561	35.59
562.902	35.68
563.243	35.78
563.584	35.88
563.925	35.98
564.266	36.08
564.607	36.18
564.948	36.28
565.289	36.38
565.63	36.48
565.971	36.57
566.312	36.66
566.653	36.75
566.993	36.84
567.334	36.92
567.675	37
568.015	37.08
568.356	37.15
568.696	37.23
569.037	37.31
569.377	37.38
569.718	37.44
570.058	37.5
570.398	37.57
570.739	37.63
571.079	37.69
571.419	37.74
571.759	37.8
572.099	37.84
572.439	37.88
572.779	37.94
573.119	37.98
573.459	38.03
573.799	38.09
574.139	38.14
574.479	38.19
574.819	38.25
575.158	38.3
575.498	38.35
575.838	38.39
576.177	38.44
576.517	38.49
576.856	38.54
577.196	38.6
577.535	38.65
577.875	38.69
578.214	38.74
578.553	38.79
578.893	38.83
579.232	38.87
579.571	38.91
579.91	38.95
580.25	38.99
580.589	39.04
580.928	39.08
581.267	39.12
581.606	39.16
581.945	39.21
582.283	39.25
582.622	39.3
582.961	39.35
583.3	39.4
583.639	39.46
583.977	39.5
584.316	39.55
584.654	39.6
584.993	39.66
585.332	39.71
585.67	39.76
586.008	39.81
586.347	39.87
586.685	39.92
587.024	39.96
587.362	40.01
587.7	40.05
588.038	40.1
588.376	40.14
588.715	40.2
589.053	40.24
589.391	40.3
589.729	40.35
590.067	40.4
590.404	40.46
590.742	40.51
591.08	40.56
591.418	40.59
591.756	40.64
592.093	40.68
592.431	40.72
592.769	40.76
593.106	40.8
593.444	40.83
593.781	40.87
594.119	40.91
594.456	40.95
594.793	40.98
595.131	41.03
595.468	41.06
595.805	41.1
596.143	41.14
596.48	41.17
596.817	41.22
597.154	41.27
597.491	41.31
597.828	41.36
598.165	41.4
598.502	41.44
598.839	41.48
599.176	41.51
599.512	41.55
599.849	41.58
600.186	41.61
600.523	41.64
600.859	41.68
601.196	41.72
601.532	41.75
601.869	41.77
602.205	41.81
602.542	41.84
602.878	41.87
603.215	41.89
603.551	41.92
603.887	41.94
604.223	41.97
604.56	42
604.896	42.02
605.232	42.05
605.568	42.07
605.904	42.1
606.24	42.12
606.576	42.14
606.912	42.16
607.248	42.19
607.583	42.21
607.919	42.22
608.255	42.24
608.591	42.27
608.926	42.29
609.262	42.32
609.597	42.34
609.933	42.36
610.268	42.39
610.604	42.41
610.939	42.42
611.275	42.44
611.61	42.46
611.945	42.48
612.281	42.5
612.616	42.51
612.951	42.53
613.286	42.54
613.621	42.58
613.956	42.59
614.291	42.62
614.626	42.64
614.961	42.65
615.296	42.68
615.631	42.7
615.966	42.72
616.3	42.74
616.635	42.76
616.97	42.79
617.304	42.81
617.639	42.85
617.973	42.86
618.308	42.88
618.642	42.91
618.977	42.92
619.311	42.93
619.646	42.94
619.98	42.96
620.314	42.98
620.648	43.01
620.983	43.04
621.317	43.06
621.651	43.1
621.985	43.12
622.319	43.13
622.653	43.16
622.987	43.17
623.321	43.19
623.655	43.21
623.988	43.23
624.322	43.24
624.656	43.25
624.99	43.27
625.323	43.3
625.657	43.32
625.99	43.33
626.324	43.35
626.657	43.38
626.991	43.41
627.324	43.42
627.658	43.44
627.991	43.45
628.324	43.46
628.657	43.48
628.991	43.5
629.324	43.52
629.657	43.53
629.99	43.55
630.323	43.57
630.656	43.59
630.989	43.6
631.322	43.62
631.655	43.64
631.987	43.66
632.32	43.67
632.653	43.7
632.986	43.73
633.318	43.74
633.651	43.77
633.984	43.78
634.316	43.8
634.649	43.8
634.981	43.82
635.313	43.83
635.646	43.85
635.978	43.87
636.31	43.89
636.643	43.91
636.975	43.94
637.307	43.96
637.639	43.95
637.971	43.98
638.303	44
638.635	44.02
638.967	44.03
639.299	44.04
639.631	44.07
639.963	44.08
640.295	44.1
640.626	44.11
640.958	44.14
641.29	44.17
641.621	44.19
641.953	44.21
642.285	44.23
642.616	44.25
642.948	44.27
643.279	44.29
643.61	44.3
643.942	44.31
644.273	44.32
644.604	44.34
644.936	44.35
645.267	44.36
645.598	44.37
645.929	44.38
646.26	44.39
646.591	44.4
646.922	44.42
647.253	44.43
647.584	44.46
647.915	44.45
648.245	44.48
648.576	44.49
648.907	44.51
649.238	44.52
649.568	44.53
649.899	44.52
650.229	44.52
650.56	44.53
650.89	44.54
651.221	44.54
651.551	44.54
651.882	44.56
652.212	44.57
652.542	44.59
652.872	44.58
653.203	44.6
653.533	44.62
653.863	44.63
654.193	44.65
654.523	44.65
654.853	44.67
655.183	44.69
655.513	44.7
655.843	44.7
656.172	44.72
656.502	44.73
656.832	44.76
657.162	44.77
657.491	44.78
657.821	44.8
658.15	44.82
658.48	44.85
658.809	44.86
659.139	44.88
659.468	44.9
659.798	44.91
660.127	44.94
660.456	44.96
660.785	44.96
661.115	44.98
661.444	45.01
661.773	45.03
662.102	45.04
662.431	45.06
662.76	45.08
663.089	45.1
663.418	45.12
663.747	45.14
664.076	45.16
664.404	45.19
664.733	45.22
665.062	45.24
665.39	45.27
665.719	45.28
666.048	45.3
666.376	45.33
666.705	45.33
667.033	45.34
667.362	45.36
667.69	45.36
668.018	45.39
668.347	45.41
668.675	45.42
669.003	45.43
669.331	45.48
669.659	45.49
669.987	45.5
670.315	45.49
670.643	45.51
670.971	45.53
671.299	45.53
671.627	45.53
671.955	45.53
672.283	45.52
672.61	45.53
672.938	45.55
673.266	45.57
673.593	45.57
673.921	45.56
674.249	45.59
674.576	45.6
674.904	45.62
675.231	45.62
675.558	45.64
675.886	45.65
676.213	45.65
676.54	45.64
676.867	45.67
677.195	45.68
677.522	45.67
677.849	45.67
678.176	45.66
678.503	45.68
678.83	45.67
679.157	45.68
679.484	45.69
679.81	45.7
680.137	45.72
680.464	45.73
680.791	45.73
681.117	45.74
681.444	45.75
681.771	45.73
682.097	45.75
682.424	45.77
682.75	45.77
683.077	45.76
683.403	45.76
683.729	45.79
684.056	45.79
684.382	45.8
684.708	45.82
685.034	45.84
685.36	45.85
685.686	45.87
686.012	45.88
686.339	45.89
686.664	45.9
686.99	45.92
687.316	45.93
687.642	45.94
687.968	45.95
688.294	45.95
688.619	45.97
688.945	45.96
689.271	45.96
689.596	45.98
689.922	46.01
690.247	46.01
690.573	46.02
690.898	46.04
691.224	46.04
691.549	46.06
691.874	46.06
692.2	46.07
692.525	46.06
692.85	46.06
693.175	46.07
693.5	46.08
693.825	46.07
694.15	46.09
694.475	46.09
694.8	46.08
695.125	46.11
695.45	46.12
695.775	46.13
696.099	46.13
696.424	46.14
696.749	46.15
697.073	46.15
697.398	46.18
697.723	46.19
698.047	46.18
698.372	46.19
698.696	46.19
699.02	46.2
699.345	46.21
699.669	46.21
699.993	46.23
700.318	46.23
700.642	46.25
700.966	46.26
701.29	46.28
701.614	46.29
701.938	46.32
702.262	46.32
702.586	46.34
702.91	46.35
703.234	46.36
703.557	46.38
703.881	46.41
704.205	46.42
704.529	46.45
704.852	46.47
705.176	46.49
705.499	46.52
705.823	46.55
706.146	46.6
706.47	46.62
706.793	46.65
707.117	46.69
707.44	46.72
707.763	46.75
708.086	46.8
708.409	46.8
708.733	46.8
709.056	46.8
709.379	46.82
709.702	46.85
710.025	46.88
710.348	46.9
710.671	46.87
710.993	46.87
711.316	46.89
711.639	46.89
711.962	46.9
712.284	46.9
712.607	46.9
712.93	46.93
713.252	46.91
713.575	46.94
713.897	46.94
714.22	46.93
714.542	46.94
714.864	46.94
715.187	46.91
715.509	46.95
715.831	46.94
716.153	46.93
716.475	46.95
716.798	46.94
717.12	46.92
717.442	46.94
717.764	46.95
718.085	46.96
718.407	46.94
718.729	46.94
719.051	46.95
719.373	46.95
719.695	46.93
720.016	46.93
720.338	46.92
720.659	46.9
720.981	46.91
721.302	46.91
721.624	46.93
721.945	46.94
722.267	46.96
722.588	46.95
722.909	46.96
723.231	46.96
723.552	46.97
723.873	46.99
724.194	47.02
724.515	47.01
724.836	47
725.157	47.02
725.478	47.04
725.799	47.05
726.12	47.06
726.441	47.08
726.762	47.07
727.083	47.07
727.403	47.09
727.724	47.08
728.045	47.1
728.365	47.12
728.686	47.11
729.006	47.11
729.327	47.13
729.647	47.13
729.967	47.17
730.288	47.2
730.608	47.21
730.928	47.22
731.249	47.23
731.569	47.25
731.889	47.25
732.209	47.26
732.529	47.27
732.849	47.29
733.169	47.3
733.489	47.3
733.809	47.34
734.129	47.35
734.448	47.36
734.768	47.35
735.088	47.37
735.408	47.37
735.727	47.39
736.047	47.39
736.366	47.39
736.686	47.41
737.005	47.42
737.325	47.43
737.644	47.46
737.963	47.47
738.283	47.45
738.602	47.48
738.921	47.48
739.24	47.49
739.56	47.49
739.879	47.5
740.198	47.52
740.517	47.54
740.836	47.57
741.155	47.56
741.473	47.58
741.792	47.6
742.111	47.64
742.43	47.62
742.748	47.64
743.067	47.62
743.386	47.62
743.704	47.64
744.023	47.63
744.341	47.63
744.66	47.62
744.978	47.67
745.297	47.69
745.615	47.72
745.933	47.74
746.252	47.74
746.57	47.76
746.888	47.77
747.206	47.78
747.524	47.77
747.842	47.78
748.16	47.8
748.478	47.82
748.796	47.81
749.114	47.82
749.432	47.82
749.749	47.8
750.067	47.81
750.385	47.78
750.703	47.79
751.02	47.84
751.338	47.85
751.655	47.85
751.973	47.88
752.29	47.89
752.608	47.89
752.925	47.88
753.242	47.89
753.56	47.87
753.877	47.86
754.194	47.86
754.511	47.83
754.828	47.8
755.145	47.78
755.462	47.79
755.779	47.79
756.096	47.81
756.413	47.8
756.73	47.79
757.047	47.79
757.364	47.82
757.68	47.83
757.997	47.82
758.314	47.82
758.63	47.79
758.947	47.82
759.264	47.81
759.58	47.82
759.896	47.84
760.213	47.83
760.529	47.86
760.846	47.86
761.162	47.84
761.478	47.86
761.794	47.88
762.11	47.89
762.426	47.92
762.743	47.93
763.059	47.91
763.375	47.93
763.69	47.96
764.006	47.96
764.322	47.97
764.638	47.97
764.954	47.94
765.27	47.92
765.585	47.96
765.901	48
766.216	48
766.532	48.01
766.848	48.02
767.163	48.02
767.478	48.06
767.794	48.11
768.109	48.13
768.424	48.16
768.74	48.18
769.055	48.18
769.37	48.18
769.685	48.19
770	48.2
770.315	48.2
770.63	48.23
770.945	48.23
771.26	48.21
771.575	48.23
771.89	48.23
772.205	48.25
772.52	48.24
772.834	48.21
773.149	48.25
773.464	48.25
773.778	48.27
774.093	48.31
774.407	48.3
774.722	48.32
775.036	48.32
775.351	48.35
775.665	48.36
775.979	48.43
776.293	48.41
776.608	48.44
776.922	48.44
777.236	48.42
777.55	48.43
777.864	48.43
778.178	48.47
778.492	48.45
778.806	48.37
779.12	48.38
779.434	48.39
779.747	48.39
780.061	48.42
780.375	48.41
780.689	48.4
781.002	48.38
781.316	48.36
781.629	48.35
781.943	48.38
782.256	48.42
782.57	48.46
782.883	48.48
783.196	48.46
783.51	48.42
783.823	48.45
784.136	48.48
784.449	48.48
784.762	48.44
785.075	48.47
785.388	48.46
785.701	48.45
786.014	48.44
786.327	48.42
786.64	48.38
786.953	48.36
787.266	48.32
787.578	48.31
787.891	48.29
788.204	48.3
788.516	48.31
788.829	48.26
789.141	48.24
789.454	48.2
789.766	48.16
790.079	48.17
790.391	48.15
790.703	48.19
791.016	48.17
791.328	48.17
791.64	48.26
791.952	48.29
792.264	48.3
792.576	48.25
792.888	48.28
793.2	48.28
793.512	48.29
793.824	48.3
794.136	48.32
794.448	48.27
794.76	48.27
795.071	48.23
795.383	48.19
795.695	48.18
796.006	48.14
796.318	48.15
796.629	48.13
796.941	48.09
797.252	48.12
797.564	48.13
797.875	48.12
798.186	48.17
798.497	48.15
798.809	48.13
799.12	48.1
799.431	48.15
799.742	48.17
800.053	48.19
800.364	48.15
800.675	48.13
800.986	48.09
801.297	48.06
801.608	48.09
801.918	48.12
802.229	48.09
802.54	48.12
802.851	48.13
803.161	48.14
803.472	48.12
803.782	48.16
804.093	48.16
804.403	48.16
804.714	48.16
805.024	48.17
805.334	48.2
805.645	48.22
805.955	48.2
806.265	48.14
806.575	48.12
806.885	48.14
807.195	48.17
807.505	48.18
807.815	48.25
808.125	48.26
808.435	48.24
808.745	48.27
809.055	48.27
809.365	48.28
809.674	48.32
809.984	48.3
810.294	48.33
810.603	48.32
810.913	48.29
811.222	48.33
811.532	48.25
811.841	48.29
812.151	48.29
812.46	48.29
812.769	48.26
813.079	48.33
813.388	48.34
813.697	48.37
814.006	48.43
814.315	48.42
814.624	48.43
814.933	48.45
815.242	48.45
815.551	48.45
815.86	48.47
816.169	48.47
816.478	48.48
816.786	48.49
817.095	48.46
817.404	48.45
817.712	48.4
818.021	48.45
818.33	48.43
818.638	48.44
818.947	48.44
819.255	48.46
819.563	48.47
819.872	48.51
820.18	48.49
820.488	48.49
820.796	48.49
821.105	48.55
821.413	48.57
821.721	48.58
822.029	48.58
822.337	48.55
822.645	48.55
822.953	48.53
823.26	48.54
823.568	48.53
823.876	48.55
824.184	48.6
824.491	48.57
824.799	48.59
825.107	48.58
825.414	48.59
825.722	48.58
826.029	48.6
826.337	48.61
826.644	48.61
826.951	48.6
827.259	48.61
827.566	48.59
827.873	48.59
828.18	48.57
828.488	48.54
828.795	48.55
829.102	48.54
829.409	48.52
829.716	48.51
830.023	48.52
830.329	48.51
830.636	48.48
830.943	48.48
831.25	48.47
831.557	48.48
831.863	48.47
832.17	48.43
832.476	48.4
832.783	48.37
833.089	48.34
833.396	48.32
833.702	48.23
834.009	48.2
834.315	48.2
834.621	48.21
834.928	48.24
835.234	48.24
835.54	48.3
835.846	48.3
836.152	48.27
836.458	48.24
836.764	48.2
837.07	48.21
837.376	48.19
837.682	48.17
837.988	48.14
838.293	48.13
838.599	48.12
838.905	48.05
839.211	48.03
839.516	48.03
839.822	48.01
840.127	48.09
840.433	48.09
840.738	48.18
841.044	48.22
841.349	48.27
841.654	48.26
841.959	48.27
842.265	48.33
842.57	48.32
842.875	48.41
843.18	48.45
843.485	48.43
843.79	48.48
844.095	48.59
844.4	48.59
844.705	48.66
845.01	48.61
845.315	48.68
845.619	48.71
845.924	48.74
846.229	48.8
846.533	48.82
846.838	48.72
847.142	48.69
847.447	48.69
847.751	48.76
848.056	48.69
848.36	48.65
848.664	48.8
848.969	48.82
849.273	48.83
849.577	48.95
849.881	48.9
850.185	48.96
850.489	49.09
850.794	49.05
851.097	49.1
851.401	49.18
851.705	49.17
852.009	49.17
852.313	49.23
852.617	49.17
852.92	49.35
853.224	49.36
853.528	49.41
853.831	49.31
854.135	49.32
854.438	49.37
854.742	49.29
855.045	49.19
855.349	49.2
855.652	49.2
855.955	49.31
856.259	49.25
856.562	49.05
856.865	49.14
857.168	49.07
857.471	49.21
857.774	49.25
858.077	49.25
858.38	49.35
858.683	49.54
858.986	49.48
859.289	49.68
859.592	49.64
859.894	49.78
860.197	49.6
860.5	49.58
860.802	49.51
861.105	49.51
861.407	49.53
861.71	49.59
862.012	49.64
862.315	49.67
862.617	49.83
862.919	49.91
863.222	49.99
863.524	49.82
863.826	49.83
864.128	49.85
864.43	50
864.732	49.88
865.034	49.81
865.336	49.57
865.638	49.46
865.94	49.36
866.242	49.31
866.544	49.3
866.846	49.24
867.147	49.19
867.449	49.27
867.751	49.16
868.052	49.2
868.354	49.11
868.655	49.05
868.957	49.12
869.258	49.07
869.56	49.18
869.861	49.23
870.162	49.23
870.463	49.29
870.765	49.25
871.066	49.12
871.367	49.09
871.668	48.95
871.969	48.94
872.27	48.74
872.571	48.8
872.872	48.75
873.173	48.84
873.473	48.78
873.774	48.72
874.075	48.68
874.376	48.63
874.676	48.61
874.977	48.42
875.277	48.32
875.578	48.29
875.878	48.38
876.179	48.36
876.479	48.24
876.78	48.09
877.08	48.08
877.38	48.08
877.68	48.12
877.981	48.1
878.281	48.17
878.581	48.23
