Data from UWBM12228_Reflection_00006.txt Node
Date: Sun May 02 12:53:10 EDT 2021
User: vgr7
Spectrometer: USB2G7710
Scans to average: 10
Trigger mode: 4
Integration Time (sec): 1.000000E-1
Electric dark correction enabled: true
Boxcar width: 20
XAxis mode: Wavelengths
Number of Pixels in Spectrum: 2048
>>>>>Begin Spectral Data<<<<<
177.721	98.55
178.105	98.25
178.488	96.39
178.871	95.61
179.254	95.18
179.636	93.1
180.019	91.61
180.402	89.83
180.785	87.08
181.168	85.07
181.55	82.71
181.933	117.67
182.316	118
182.698	119
183.081	120.4
183.463	121.95
183.846	125.39
184.228	126.92
184.611	128.26
184.993	132.01
185.376	135.31
185.758	-146.19
186.14	-76.06
186.522	-37.07
186.904	-21.86
187.287	-11.39
187.669	-7.46
188.051	-8.68
188.433	-3.61
188.815	-8.75
189.197	-6.83
189.579	-4.3
189.961	-2.46
190.342	-6.59
190.724	-2.83
191.106	-3.27
191.488	-3.09
191.869	-9.41
192.251	-8.41
192.633	-9.55
193.014	-11.34
193.396	-13.19
193.777	-4.61
194.159	-3.36
194.54	-4.45
194.922	-5.87
195.303	-3.28
195.684	-2.13
196.065	-2.63
196.447	-5.25
196.828	-6.68
197.209	-4.57
197.59	-14.41
197.971	-16.62
198.352	-15.5
198.733	-12.98
199.114	-14
199.495	-12.11
199.876	-11.09
200.257	-11.64
200.638	-12.26
201.018	-18.5
201.399	-19.32
201.78	-22.04
202.16	-21.14
202.541	-18.91
202.922	-18.89
203.302	-23.54
203.683	-22.5
204.063	-22.15
204.444	-19.91
204.824	-18.27
205.204	-15.14
205.585	-4.92
205.965	-4.43
206.345	-2.71
206.725	-9.35
207.106	-9.21
207.486	-7.82
207.866	-7.57
208.246	-8.52
208.626	-5.56
209.006	0.14
209.386	-5.65
209.766	-5.69
210.145	-6.96
210.525	-7.51
210.905	-6.79
211.285	-7.03
211.664	-6.56
212.044	-4.57
212.424	-4.83
212.803	-11.73
213.183	-9.38
213.562	-8.55
213.942	-9.77
214.321	-11.81
214.701	-11.48
215.08	-10.23
215.459	-9.87
215.838	-10.55
216.218	-9.48
216.597	-10.5
216.976	-13.72
217.355	-12
217.734	-12.21
218.113	-10.71
218.492	-8.69
218.871	-5.67
219.25	-5.57
219.629	-5.83
220.008	-5.83
220.387	-4.45
220.766	-4.19
221.144	-4.52
221.523	-2.04
221.902	-1.59
222.28	-0.41
222.659	1.05
223.037	1.18
223.416	2.34
223.794	3.47
224.173	2.77
224.551	2.98
224.929	3.52
225.308	4.65
225.686	4.79
226.064	5.32
226.442	5.05
226.821	5.06
227.199	4.71
227.577	4.53
227.955	4.37
228.333	4.59
228.711	4.63
229.089	5.32
229.467	4.93
229.845	5.61
230.222	5.34
230.6	5.4
230.978	5.24
231.356	5
231.733	5.11
232.111	5.33
232.488	5.31
232.866	5.28
233.243	4.87
233.621	4.79
233.998	4.59
234.376	4.58
234.753	4.71
235.13	4.72
235.508	5.17
235.885	5.17
236.262	5.09
236.639	5.25
237.016	5.14
237.393	5.07
237.77	4.97
238.147	4.89
238.524	4.96
238.901	5.01
239.278	5.09
239.655	5.17
240.032	5.12
240.409	5.17
240.785	5.09
241.162	5.17
241.539	5.13
241.915	5.17
242.292	5.14
242.668	5.07
243.045	5.02
243.421	4.92
243.798	4.82
244.174	4.85
244.551	4.78
244.927	4.63
245.303	4.56
245.679	4.58
246.056	4.57
246.432	4.55
246.808	4.33
247.184	4.31
247.56	4.27
247.936	4.28
248.312	4.29
248.688	4.36
249.064	4.34
249.44	4.33
249.815	4.34
250.191	4.3
250.567	4.29
250.943	4.37
251.318	4.38
251.694	4.34
252.069	4.26
252.445	4.28
252.82	4.39
253.196	4.39
253.571	4.35
253.947	4.43
254.322	4.39
254.697	4.52
255.073	4.5
255.448	4.49
255.823	4.45
256.198	4.42
256.573	4.24
256.948	4.22
257.323	4.22
257.698	4.15
258.073	4.17
258.448	4.07
258.823	4.07
259.198	4.09
259.573	4.1
259.948	4.13
260.322	4.1
260.697	4.1
261.072	4.1
261.446	4.08
261.821	4.06
262.195	4.03
262.57	4.02
262.944	4.01
263.319	3.99
263.693	4.02
264.067	4.05
264.442	4.15
264.816	4.13
265.19	4.1
265.564	4.15
265.938	4.12
266.313	4.17
266.687	4.13
267.061	4.14
267.435	4.14
267.809	4.13
268.183	4.09
268.556	4.11
268.93	4.12
269.304	4.09
269.678	4.05
270.051	4.04
270.425	4.03
270.799	4.05
271.172	4.06
271.546	4.05
271.919	4.06
272.293	4.06
272.666	4.06
273.04	4.09
273.413	4.01
273.787	4
274.16	3.99
274.533	4.03
274.906	4
275.279	4.02
275.653	4.02
276.026	4
276.399	3.97
276.772	3.97
277.145	4
277.518	4.02
277.891	4.03
278.263	4.04
278.636	4.04
279.009	4.04
279.382	4.01
279.755	3.95
280.127	3.97
280.5	3.97
280.872	3.95
281.245	4.06
281.617	4.07
281.99	4.08
282.362	4.09
282.735	4.08
283.107	4.06
283.479	4.08
283.852	4.09
284.224	4.11
284.596	4.11
284.968	4
285.34	3.98
285.713	3.96
286.085	3.89
286.457	3.88
286.829	3.85
287.201	3.84
287.572	3.89
287.944	3.9
288.316	3.94
288.688	3.98
289.06	3.99
289.431	4
289.803	3.98
290.175	3.99
290.546	3.99
290.918	3.99
291.289	3.96
291.661	3.97
292.032	3.92
292.403	3.93
292.775	4.01
293.146	4
293.517	4.02
293.889	4.09
294.26	4.09
294.631	4.09
295.002	4.14
295.373	4.15
295.744	4.15
296.115	4.15
296.486	4.09
296.857	4.09
297.228	4.09
297.599	4.07
297.97	4.05
298.34	4.06
298.711	4
299.082	3.99
299.452	4.02
299.823	4.04
300.194	4.05
300.564	4.05
300.935	4.06
301.305	4.04
301.676	4.04
302.046	4.05
302.416	4.06
302.787	4.06
303.157	3.99
303.527	3.98
303.897	3.97
304.267	3.97
304.637	3.98
305.008	3.98
305.378	3.99
305.748	3.97
306.117	4.03
306.487	4.09
306.857	4.12
307.227	4.12
307.597	4.1
307.967	4.1
308.336	4.1
308.706	4.12
309.076	4.12
309.445	4.11
309.815	4
310.184	3.98
310.554	3.92
310.923	3.95
311.293	3.95
311.662	3.94
312.031	3.93
312.401	3.92
312.77	3.91
313.139	3.91
313.508	3.93
313.877	3.88
314.246	3.86
314.616	3.82
314.985	3.76
315.353	3.76
315.722	3.75
316.091	3.75
316.46	3.75
316.829	3.76
317.198	3.78
317.567	3.9
317.935	3.88
318.304	3.92
318.672	3.94
319.041	3.92
319.41	3.92
319.778	3.94
320.147	3.95
320.515	3.94
320.883	3.92
321.252	3.86
321.62	3.9
321.988	3.91
322.357	3.91
322.725	3.96
323.093	3.97
323.461	3.96
323.829	3.96
324.197	3.94
324.565	3.94
324.933	3.94
325.301	3.93
325.669	3.94
326.037	3.94
326.405	3.9
326.772	3.89
327.14	3.87
327.508	3.86
327.875	3.84
328.243	3.84
328.61	3.81
328.978	3.82
329.346	3.82
329.713	3.79
330.08	3.79
330.448	3.78
330.815	3.76
331.182	3.76
331.55	3.75
331.917	3.77
332.284	3.76
332.651	3.76
333.018	3.76
333.385	3.77
333.752	3.77
334.119	3.79
334.486	3.79
334.853	3.76
335.22	3.76
335.587	3.74
335.954	3.76
336.32	3.77
336.687	3.76
337.054	3.75
337.42	3.76
337.787	3.75
338.153	3.76
338.52	3.79
338.886	3.82
339.253	3.81
339.619	3.8
339.986	3.77
340.352	3.77
340.718	3.79
341.084	3.78
341.451	3.76
341.817	3.76
342.183	3.73
342.549	3.76
342.915	3.77
343.281	3.78
343.647	3.78
344.013	3.8
344.379	3.81
344.745	3.82
345.11	3.82
345.476	3.83
345.842	3.83
346.208	3.8
346.573	3.8
346.939	3.81
347.304	3.8
347.67	3.81
348.035	3.81
348.401	3.8
348.766	3.82
349.132	3.82
349.497	3.84
349.862	3.86
350.228	3.87
350.593	3.88
350.958	3.88
351.323	3.86
351.688	3.87
352.053	3.86
352.418	3.86
352.783	3.86
353.148	3.85
353.513	3.84
353.878	3.85
354.243	3.85
354.608	3.84
354.972	3.86
355.337	3.86
355.702	3.84
356.066	3.85
356.431	3.84
356.795	3.83
357.16	3.82
357.524	3.81
357.889	3.81
358.253	3.81
358.618	3.81
358.982	3.82
359.346	3.82
359.71	3.82
360.075	3.83
360.439	3.82
360.803	3.82
361.167	3.81
361.531	3.82
361.895	3.82
362.259	3.82
362.623	3.82
362.987	3.81
363.351	3.82
363.714	3.81
364.078	3.81
364.442	3.81
364.806	3.82
365.169	3.8
365.533	3.8
365.896	3.79
366.26	3.79
366.623	3.78
366.987	3.78
367.35	3.79
367.714	3.8
368.077	3.8
368.44	3.8
368.803	3.8
369.167	3.8
369.53	3.81
369.893	3.82
370.256	3.82
370.619	3.83
370.982	3.83
371.345	3.82
371.708	3.84
372.071	3.84
372.434	3.85
372.797	3.86
373.159	3.88
373.522	3.88
373.885	3.87
374.247	3.87
374.61	3.87
374.973	3.86
375.335	3.86
375.698	3.86
376.06	3.87
376.423	3.87
376.785	3.86
377.147	3.86
377.51	3.87
377.872	3.86
378.234	3.87
378.596	3.88
378.958	3.89
379.321	3.9
379.683	3.91
380.045	3.9
380.407	3.91
380.769	3.91
381.13	3.92
381.492	3.92
381.854	3.92
382.216	3.92
382.578	3.93
382.939	3.94
383.301	3.93
383.663	3.94
384.024	3.94
384.386	3.94
384.747	3.94
385.109	3.93
385.47	3.93
385.832	3.93
386.193	3.93
386.554	3.93
386.916	3.93
387.277	3.94
387.638	3.95
387.999	3.95
388.36	3.95
388.721	3.96
389.082	3.96
389.443	3.96
389.804	3.97
390.165	3.98
390.526	3.97
390.887	3.98
391.248	3.97
391.609	3.98
391.969	3.99
392.33	3.99
392.691	4
393.051	4
393.412	3.99
393.772	4
394.133	4.01
394.493	4
394.854	4
395.214	4
395.574	4
395.935	3.99
396.295	3.99
396.655	4
397.015	4
397.376	3.99
397.736	4
398.096	3.99
398.456	4
398.816	4.01
399.176	4
399.535	4.01
399.895	4.02
400.255	4.02
400.615	4.02
400.975	4.03
401.334	4.03
401.694	4.03
402.054	4.03
402.413	4.02
402.773	4.02
403.132	4.03
403.492	4.03
403.851	4.03
404.211	4.04
404.57	4.05
404.929	4.05
405.288	4.06
405.648	4.06
406.007	4.06
406.366	4.07
406.725	4.08
407.084	4.08
407.443	4.08
407.802	4.08
408.161	4.07
408.52	4.07
408.879	4.08
409.238	4.08
409.596	4.09
409.955	4.1
410.314	4.1
410.673	4.1
411.031	4.11
411.39	4.13
411.748	4.13
412.107	4.14
412.465	4.15
412.824	4.18
413.182	4.2
413.54	4.22
413.899	4.24
414.257	4.28
414.615	4.32
414.974	4.35
415.332	4.4
415.69	4.44
416.048	4.47
416.406	4.51
416.764	4.55
417.122	4.58
417.48	4.61
417.838	4.64
418.195	4.67
418.553	4.69
418.911	4.71
419.269	4.72
419.626	4.71
419.984	4.71
420.342	4.69
420.699	4.68
421.057	4.66
421.414	4.65
421.772	4.63
422.129	4.63
422.486	4.63
422.844	4.63
423.201	4.62
423.558	4.63
423.915	4.62
424.273	4.62
424.63	4.62
424.987	4.62
425.344	4.62
425.701	4.62
426.058	4.62
426.415	4.62
426.772	4.62
427.128	4.62
427.485	4.61
427.842	4.6
428.199	4.59
428.555	4.58
428.912	4.56
429.269	4.53
429.625	4.52
429.982	4.49
430.338	4.46
430.695	4.44
431.051	4.41
431.407	4.39
431.764	4.37
432.12	4.35
432.476	4.34
432.832	4.33
433.189	4.33
433.545	4.33
433.901	4.35
434.257	4.37
434.613	4.4
434.969	4.43
435.325	4.45
435.681	4.49
436.036	4.5
436.392	4.53
436.748	4.53
437.104	4.53
437.459	4.55
437.815	4.57
438.171	4.59
438.526	4.62
438.882	4.65
439.237	4.69
439.593	4.72
439.948	4.75
440.304	4.79
440.659	4.82
441.014	4.84
441.369	4.86
441.725	4.88
442.08	4.9
442.435	4.91
442.79	4.92
443.145	4.91
443.5	4.92
443.855	4.91
444.21	4.91
444.565	4.91
444.92	4.9
445.275	4.89
445.629	4.88
445.984	4.88
446.339	4.87
446.693	4.86
447.048	4.85
447.403	4.83
447.757	4.81
448.112	4.79
448.466	4.77
448.82	4.75
449.175	4.74
449.529	4.72
449.883	4.71
450.238	4.69
450.592	4.69
450.946	4.68
451.3	4.68
451.654	4.7
452.008	4.7
452.362	4.7
452.716	4.7
453.07	4.71
453.424	4.7
453.778	4.69
454.132	4.68
454.486	4.67
454.839	4.65
455.193	4.63
455.547	4.62
455.9	4.58
456.254	4.56
456.607	4.53
456.961	4.5
457.314	4.48
457.668	4.47
458.021	4.47
458.375	4.47
458.728	4.47
459.081	4.47
459.434	4.48
459.787	4.49
460.141	4.5
460.494	4.5
460.847	4.5
461.2	4.51
461.553	4.52
461.906	4.52
462.259	4.53
462.611	4.53
462.964	4.54
463.317	4.54
463.67	4.54
464.022	4.54
464.375	4.54
464.728	4.54
465.08	4.54
465.433	4.54
465.785	4.53
466.138	4.52
466.49	4.5
466.843	4.48
467.195	4.46
467.547	4.44
467.899	4.42
468.252	4.39
468.604	4.36
468.956	4.34
469.308	4.33
469.66	4.32
470.012	4.31
470.364	4.32
470.716	4.32
471.068	4.34
471.42	4.37
471.772	4.38
472.123	4.39
472.475	4.41
472.827	4.41
473.178	4.42
473.53	4.43
473.882	4.45
474.233	4.47
474.585	4.51
474.936	4.58
475.288	4.67
475.639	4.79
475.99	4.94
476.342	5.1
476.693	5.28
477.044	5.45
477.395	5.63
477.746	5.82
478.097	6
478.448	6.19
478.8	6.38
479.15	6.55
479.501	6.7
479.852	6.84
480.203	6.98
480.554	7.1
480.905	7.23
481.255	7.35
481.606	7.46
481.957	7.56
482.307	7.66
482.658	7.76
483.009	7.85
483.359	7.94
483.709	8.03
484.06	8.11
484.41	8.2
484.761	8.27
485.111	8.34
485.461	8.41
485.811	8.48
486.162	8.54
486.512	8.59
486.862	8.63
487.212	8.66
487.562	8.68
487.912	8.69
488.262	8.69
488.612	8.69
488.961	8.67
489.311	8.63
489.661	8.55
490.011	8.46
490.36	8.34
490.71	8.2
491.06	8.05
491.409	7.9
491.759	7.74
492.108	7.58
492.458	7.41
492.807	7.23
493.157	7.05
493.506	6.87
493.855	6.71
494.204	6.56
494.554	6.42
494.903	6.29
495.252	6.16
495.601	6.03
495.95	5.91
496.299	5.8
496.648	5.69
496.997	5.59
497.346	5.49
497.695	5.4
498.043	5.31
498.392	5.22
498.741	5.13
499.09	5.05
499.438	4.97
499.787	4.89
500.135	4.82
500.484	4.76
500.832	4.71
501.181	4.66
501.529	4.63
501.878	4.61
502.226	4.6
502.574	4.59
502.923	4.59
503.271	4.58
503.619	4.58
503.967	4.58
504.315	4.58
504.663	4.57
505.011	4.57
505.359	4.56
505.707	4.55
506.055	4.55
506.403	4.55
506.751	4.55
507.098	4.55
507.446	4.56
507.794	4.57
508.141	4.58
508.489	4.6
508.837	4.61
509.184	4.62
509.531	4.63
509.879	4.65
510.226	4.66
510.574	4.67
510.921	4.68
511.268	4.7
511.616	4.71
511.963	4.73
512.31	4.75
512.657	4.77
513.004	4.78
513.351	4.8
513.698	4.8
514.045	4.81
514.392	4.82
514.739	4.82
515.086	4.81
515.432	4.81
515.779	4.81
516.126	4.81
516.473	4.81
516.819	4.81
517.166	4.82
517.512	4.83
517.859	4.84
518.205	4.86
518.552	4.88
518.898	4.92
519.245	4.96
519.591	5.02
519.937	5.09
520.283	5.19
520.629	5.29
520.976	5.41
521.322	5.53
521.668	5.66
522.014	5.77
522.36	5.9
522.706	6.01
523.052	6.13
523.398	6.24
523.743	6.33
524.089	6.41
524.435	6.48
524.781	6.55
525.126	6.61
525.472	6.67
525.817	6.72
526.163	6.78
526.509	6.83
526.854	6.87
527.199	6.92
527.545	6.97
527.89	7.02
528.235	7.07
528.581	7.12
528.926	7.16
529.271	7.21
529.616	7.24
529.961	7.27
530.306	7.29
530.651	7.32
530.996	7.33
531.341	7.34
531.686	7.35
532.031	7.34
532.376	7.35
532.721	7.34
533.065	7.34
533.41	7.35
533.755	7.34
534.099	7.3
534.444	7.27
534.788	7.24
535.133	7.19
535.477	7.14
535.822	7.09
536.166	7.02
536.51	6.95
536.855	6.87
537.199	6.79
537.543	6.71
537.887	6.63
538.231	6.56
538.576	6.5
538.92	6.44
539.264	6.39
539.608	6.33
539.951	6.27
540.295	6.2
540.639	6.13
540.983	6.06
541.327	6.02
541.671	5.95
542.014	5.89
542.358	5.84
542.701	5.8
543.045	5.76
543.389	5.74
543.732	5.72
544.075	5.7
544.419	5.69
544.762	5.66
545.105	5.65
545.449	5.64
545.792	5.64
546.135	5.63
546.478	5.62
546.821	5.59
547.165	5.56
547.508	5.51
547.851	5.46
548.194	5.41
548.536	5.34
548.879	5.27
549.222	5.2
549.565	5.13
549.908	5.05
550.25	4.99
550.593	4.92
550.936	4.87
551.278	4.84
551.621	4.81
551.963	4.78
552.306	4.76
552.648	4.74
552.991	4.72
553.333	4.7
553.675	4.69
554.017	4.69
554.36	4.7
554.702	4.71
555.044	4.72
555.386	4.74
555.728	4.75
556.07	4.76
556.412	4.76
556.754	4.76
557.096	4.76
557.438	4.77
557.78	4.77
558.121	4.77
558.463	4.77
558.805	4.77
559.147	4.77
559.488	4.77
559.83	4.77
560.171	4.78
560.513	4.78
560.854	4.77
561.196	4.77
561.537	4.77
561.878	4.77
562.22	4.77
562.561	4.77
562.902	4.78
563.243	4.79
563.584	4.79
563.925	4.79
564.266	4.79
564.607	4.8
564.948	4.8
565.289	4.81
565.63	4.81
565.971	4.81
566.312	4.82
566.653	4.82
566.993	4.81
567.334	4.81
567.675	4.82
568.015	4.83
568.356	4.83
568.696	4.83
569.037	4.83
569.377	4.83
569.718	4.84
570.058	4.84
570.398	4.84
570.739	4.84
571.079	4.84
571.419	4.84
571.759	4.84
572.099	4.83
572.439	4.83
572.779	4.84
573.119	4.83
573.459	4.83
573.799	4.83
574.139	4.84
574.479	4.84
574.819	4.83
575.158	4.83
575.498	4.83
575.838	4.83
576.177	4.83
576.517	4.83
576.856	4.82
577.196	4.82
577.535	4.82
577.875	4.82
578.214	4.82
578.553	4.82
578.893	4.81
579.232	4.81
579.571	4.8
579.91	4.8
580.25	4.79
580.589	4.79
580.928	4.78
581.267	4.78
581.606	4.77
581.945	4.77
582.283	4.77
582.622	4.77
582.961	4.77
583.3	4.77
583.639	4.77
583.977	4.77
584.316	4.77
584.654	4.78
584.993	4.78
585.332	4.77
585.67	4.78
586.008	4.77
586.347	4.77
586.685	4.77
587.024	4.78
587.362	4.78
587.7	4.79
588.038	4.78
588.376	4.78
588.715	4.78
589.053	4.78
589.391	4.79
589.729	4.79
590.067	4.79
590.404	4.78
590.742	4.79
591.08	4.79
591.418	4.8
591.756	4.8
592.093	4.81
592.431	4.82
592.769	4.82
593.106	4.82
593.444	4.83
593.781	4.82
594.119	4.83
594.456	4.82
594.793	4.82
595.131	4.83
595.468	4.83
595.805	4.82
596.143	4.83
596.48	4.83
596.817	4.83
597.154	4.84
597.491	4.84
597.828	4.85
598.165	4.85
598.502	4.85
598.839	4.85
599.176	4.85
599.512	4.85
599.849	4.86
600.186	4.86
600.523	4.86
600.859	4.86
601.196	4.86
601.532	4.87
601.869	4.87
602.205	4.87
602.542	4.88
602.878	4.88
603.215	4.87
603.551	4.87
603.887	4.86
604.223	4.87
604.56	4.87
604.896	4.87
605.232	4.87
605.568	4.87
605.904	4.86
606.24	4.86
606.576	4.86
606.912	4.87
607.248	4.87
607.583	4.87
607.919	4.86
608.255	4.86
608.591	4.86
608.926	4.86
609.262	4.86
609.597	4.86
609.933	4.87
610.268	4.88
610.604	4.88
610.939	4.88
611.275	4.87
611.61	4.87
611.945	4.86
612.281	4.87
612.616	4.86
612.951	4.85
613.286	4.85
613.621	4.84
613.956	4.83
614.291	4.84
614.626	4.84
614.961	4.84
615.296	4.84
615.631	4.84
615.966	4.84
616.3	4.85
616.635	4.85
616.97	4.84
617.304	4.84
617.639	4.83
617.973	4.83
618.308	4.83
618.642	4.83
618.977	4.82
619.311	4.81
619.646	4.82
619.98	4.83
620.314	4.83
620.648	4.84
620.983	4.84
621.317	4.84
621.651	4.84
621.985	4.84
622.319	4.84
622.653	4.84
622.987	4.84
623.321	4.84
623.655	4.84
623.988	4.84
624.322	4.84
624.656	4.84
624.99	4.84
625.323	4.84
625.657	4.84
625.99	4.86
626.324	4.87
626.657	4.87
626.991	4.87
627.324	4.87
627.658	4.88
627.991	4.88
628.324	4.88
628.657	4.88
628.991	4.89
629.324	4.89
629.657	4.9
629.99	4.9
630.323	4.9
630.656	4.91
630.989	4.91
631.322	4.92
631.655	4.91
631.987	4.91
632.32	4.91
632.653	4.92
632.986	4.92
633.318	4.91
633.651	4.91
633.984	4.91
634.316	4.92
634.649	4.92
634.981	4.93
635.313	4.93
635.646	4.93
635.978	4.93
636.31	4.92
636.643	4.91
636.975	4.92
637.307	4.92
637.639	4.92
637.971	4.92
638.303	4.92
638.635	4.92
638.967	4.92
639.299	4.92
639.631	4.93
639.963	4.93
640.295	4.93
640.626	4.96
640.958	4.96
641.29	4.95
641.621	4.96
641.953	4.96
642.285	4.97
642.616	4.98
642.948	4.98
643.279	4.99
643.61	4.98
643.942	4.99
644.273	4.99
644.604	4.99
644.936	4.99
645.267	5
645.598	5.01
645.929	5.01
646.26	5.01
646.591	5.02
646.922	5.02
647.253	5.02
647.584	5.02
647.915	5.02
648.245	5.03
648.576	5.03
648.907	5.02
649.238	5.02
649.568	5.01
649.899	5.01
650.229	5.02
650.56	5.03
650.89	5.04
651.221	5.05
651.551	5.06
651.882	5.07
652.212	5.07
652.542	5.06
652.872	5.06
653.203	5.08
653.533	5.07
653.863	5.06
654.193	5.05
654.523	5.04
654.853	5.04
655.183	5.05
655.513	5.04
655.843	5.05
656.172	5.05
656.502	5.04
656.832	5.03
657.162	5.03
657.491	5.02
657.821	5.02
658.15	5.01
658.48	5
658.809	5
659.139	5.01
659.468	5.03
659.798	5.02
660.127	5.02
660.456	5.05
660.785	5.06
661.115	5.07
661.444	5.07
661.773	5.08
662.102	5.07
662.431	5.08
662.76	5.08
663.089	5.08
663.418	5.09
663.747	5.09
664.076	5.1
664.404	5.1
664.733	5.1
665.062	5.11
665.39	5.12
665.719	5.11
666.048	5.11
666.376	5.1
666.705	5.09
667.033	5.08
667.362	5.07
667.69	5.08
668.018	5.08
668.347	5.08
668.675	5.05
669.003	5.06
669.331	5.05
669.659	5.05
669.987	5.07
670.315	5.07
670.643	5.09
670.971	5.1
671.299	5.1
671.627	5.1
671.955	5.1
672.283	5.1
672.61	5.11
672.938	5.12
673.266	5.13
673.593	5.12
673.921	5.13
674.249	5.13
674.576	5.13
674.904	5.14
675.231	5.15
675.558	5.17
675.886	5.19
676.213	5.17
676.54	5.19
676.867	5.19
677.195	5.19
677.522	5.2
677.849	5.21
678.176	5.22
678.503	5.23
678.83	5.24
679.157	5.25
679.484	5.25
679.81	5.24
680.137	5.23
680.464	5.24
680.791	5.24
681.117	5.23
681.444	5.21
681.771	5.22
682.097	5.23
682.424	5.23
682.75	5.22
683.077	5.22
683.403	5.22
683.729	5.22
684.056	5.21
684.382	5.21
684.708	5.21
685.034	5.22
685.36	5.21
685.686	5.23
686.012	5.24
686.339	5.25
686.664	5.25
686.99	5.26
687.316	5.27
687.642	5.29
687.968	5.32
688.294	5.32
688.619	5.31
688.945	5.32
689.271	5.32
689.596	5.32
689.922	5.34
690.247	5.35
690.573	5.35
690.898	5.37
691.224	5.37
691.549	5.36
691.874	5.34
692.2	5.35
692.525	5.36
692.85	5.34
693.175	5.35
693.5	5.37
693.825	5.37
694.15	5.37
694.475	5.37
694.8	5.38
695.125	5.39
695.45	5.42
695.775	5.41
696.099	5.42
696.424	5.42
696.749	5.41
697.073	5.42
697.398	5.42
697.723	5.42
698.047	5.42
698.372	5.42
698.696	5.4
699.02	5.39
699.345	5.38
699.669	5.39
699.993	5.38
700.318	5.36
700.642	5.37
700.966	5.36
701.29	5.34
701.614	5.36
701.938	5.36
702.262	5.37
702.586	5.37
702.91	5.38
703.234	5.39
703.557	5.38
703.881	5.38
704.205	5.38
704.529	5.41
704.852	5.4
705.176	5.42
705.499	5.45
705.823	5.47
706.146	5.47
706.47	5.48
706.793	5.49
707.117	5.6
707.44	5.62
707.763	5.59
708.086	5.6
708.409	5.59
708.733	5.57
709.056	5.57
709.379	5.57
709.702	5.59
710.025	5.6
710.348	5.45
710.671	5.45
710.993	5.45
711.316	5.44
711.639	5.46
711.962	5.45
712.284	5.48
712.607	5.5
712.93	5.52
713.252	5.55
713.575	5.54
713.897	5.52
714.22	5.53
714.542	5.58
714.864	5.64
715.187	5.67
715.509	5.68
715.831	5.67
716.153	5.68
716.475	5.65
716.798	5.65
717.12	5.81
717.442	5.83
717.764	5.8
718.085	5.72
718.407	5.72
718.729	5.7
719.051	5.71
719.373	5.7
719.695	5.7
720.016	5.69
720.338	5.62
720.659	5.64
720.981	5.66
721.302	5.65
721.624	5.65
721.945	5.65
722.267	5.67
722.588	5.67
722.909	5.7
723.231	5.72
723.552	5.72
723.873	5.73
724.194	5.74
724.515	5.77
724.836	5.89
725.157	5.89
725.478	5.87
725.799	5.87
726.12	5.85
726.441	5.85
726.762	5.87
727.083	5.86
727.403	5.86
727.724	5.83
728.045	5.75
728.365	5.77
728.686	5.8
729.006	5.8
729.327	5.81
729.647	5.81
729.967	5.8
730.288	5.83
730.608	5.84
730.928	5.87
731.249	5.88
731.569	5.89
731.889	5.89
732.209	5.91
732.529	5.92
732.849	5.93
733.169	5.94
733.489	5.93
733.809	5.94
734.129	5.93
734.448	5.96
734.768	5.96
735.088	5.97
735.408	5.94
735.727	5.95
736.047	5.97
736.366	5.98
736.686	5.99
737.005	6.01
737.325	5.97
737.644	5.97
737.963	5.96
738.283	5.97
738.602	5.97
738.921	5.99
739.24	5.99
739.56	6
739.879	6
740.198	6.01
740.517	6.02
740.836	6.03
741.155	6.03
741.473	6.06
741.792	6.07
742.111	6.09
742.43	6.1
742.748	6.08
743.067	6.06
743.386	6.07
743.704	6.06
744.023	6.09
744.341	6.08
744.66	6.1
744.978	6.05
745.297	6.04
745.615	6
745.933	6.01
746.252	6
746.57	5.94
746.888	5.95
747.206	5.95
747.524	5.94
747.842	5.97
748.16	5.96
748.478	5.96
748.796	5.92
749.114	5.89
749.432	5.89
749.749	5.92
750.067	5.9
750.385	5.9
750.703	5.9
751.02	5.91
751.338	5.92
751.655	5.99
751.973	6
752.29	5.98
752.608	6.02
752.925	6.04
753.242	6.12
753.56	6.16
753.877	6.14
754.194	6.19
754.511	6.19
754.828	6.17
755.145	6.21
755.462	6.23
755.779	6.24
756.096	6.29
756.413	6.28
756.73	6.26
757.047	6.24
757.364	6.25
757.68	6.27
757.997	6.27
758.314	6.27
758.63	6.29
758.947	6.35
759.264	6.34
759.58	6.35
759.896	6.32
760.213	6.34
760.529	6.35
760.846	6.3
761.162	6.31
761.478	6.31
761.794	6.31
762.11	6.32
762.426	6.35
762.743	6.34
763.059	6.42
763.375	6.48
763.69	6.49
764.006	6.5
764.322	6.51
764.638	6.49
764.954	6.52
765.27	6.54
765.585	6.5
765.901	6.52
766.216	6.37
766.532	6.33
766.848	6.31
767.163	6.36
767.478	6.39
767.794	6.39
768.109	6.39
768.424	6.39
768.74	6.4
769.055	6.41
769.37	6.42
769.685	6.41
770	6.42
770.315	6.42
770.63	6.34
770.945	6.28
771.26	6.28
771.575	6.29
771.89	6.25
772.205	6.28
772.52	6.25
772.834	6.45
773.149	6.5
773.464	6.44
773.778	6.42
774.093	6.46
774.407	6.46
774.722	6.46
775.036	6.45
775.351	6.41
775.665	6.39
775.979	6.25
776.293	6.19
776.608	6.18
776.922	6.15
777.236	6.24
777.55	6.33
777.864	6.33
778.178	6.37
778.492	6.36
778.806	6.3
779.12	6.34
779.434	6.36
779.747	6.29
780.061	6.42
780.375	6.37
780.689	6.33
781.002	6.36
781.316	6.35
781.629	6.4
781.943	6.42
782.256	6.48
782.57	6.54
782.883	6.53
783.196	6.49
783.51	6.54
783.823	6.59
784.136	6.53
784.449	6.54
784.762	6.54
785.075	6.58
785.388	6.54
785.701	6.51
786.014	6.49
786.327	6.53
786.64	6.52
786.953	6.51
787.266	6.59
787.578	6.56
787.891	6.56
788.204	6.55
788.516	6.56
788.829	6.59
789.141	6.58
789.454	6.59
789.766	6.64
790.079	6.65
790.391	6.65
790.703	6.77
791.016	6.64
791.328	6.67
791.64	6.72
791.952	6.79
792.264	6.85
792.576	6.87
792.888	6.86
793.2	6.87
793.512	6.89
793.824	6.8
794.136	6.79
794.448	6.83
794.76	6.86
795.071	6.86
795.383	6.84
795.695	7
796.006	7.09
796.318	7.13
796.629	7.14
796.941	7.14
797.252	7.12
797.564	7.2
797.875	7.11
798.186	7.07
798.497	7.09
798.809	6.98
799.12	6.98
799.431	7.02
799.742	7.04
800.053	6.92
800.364	7.02
800.675	7.03
800.986	7.06
801.297	7.16
801.608	7.15
801.918	7.16
802.229	7.16
802.54	7.11
802.851	7.06
803.161	7.06
803.472	7.02
803.782	6.97
804.093	6.99
804.403	6.92
804.714	6.99
805.024	6.93
805.334	7.08
805.645	7.03
805.955	7.07
806.265	7.08
806.575	7.14
806.885	7.05
807.195	7.06
807.505	7.05
807.815	6.98
808.125	7.09
808.435	7.03
808.745	7.04
809.055	6.99
809.365	7.02
809.674	7.1
809.984	7.14
810.294	7.12
810.603	7.13
810.913	7.39
811.222	7.32
811.532	7.38
811.841	7.39
812.151	7.41
812.46	7.39
812.769	7.52
813.079	7.56
813.388	7.64
813.697	7.6
814.006	7.54
814.315	7.61
814.624	7.64
814.933	7.59
815.242	7.53
815.551	7.62
815.86	7.53
816.169	7.56
816.478	7.55
816.786	7.52
817.095	7.51
817.404	7.52
817.712	7.6
818.021	7.56
818.33	7.58
818.638	7.61
818.947	7.57
819.255	7.58
819.563	7.64
819.872	7.64
820.18	7.66
820.488	7.69
820.796	7.65
821.105	7.63
821.413	7.63
821.721	7.67
822.029	7.71
822.337	7.74
822.645	7.75
822.953	7.73
823.26	7.77
823.568	7.77
823.876	7.75
824.184	7.76
824.491	7.74
824.799	7.73
825.107	7.73
825.414	7.72
825.722	7.72
826.029	7.69
826.337	7.71
826.644	7.71
826.951	7.73
827.259	7.74
827.566	7.79
827.873	7.81
828.18	7.78
828.488	7.78
828.795	7.79
829.102	7.81
829.409	7.85
829.716	7.85
830.023	7.86
830.329	7.86
830.636	7.88
830.943	7.95
831.25	7.98
831.557	7.98
831.863	8
832.17	8
832.476	8.03
832.783	8.01
833.089	8.02
833.396	7.99
833.702	7.97
834.009	7.92
834.315	7.92
834.621	8
834.928	7.99
835.234	7.99
835.54	8.01
835.846	8.05
836.152	8.06
836.458	8.08
836.764	8.02
837.07	8.1
837.376	7.97
837.682	7.88
837.988	8
838.293	7.9
838.599	7.96
838.905	7.9
839.211	7.92
839.516	7.96
839.822	8.08
840.127	7.99
840.433	8.03
840.738	8.02
841.044	8.06
841.349	8.09
841.654	8.14
841.959	8.18
842.265	8.21
842.57	8.2
842.875	8.27
843.18	8.37
843.485	8.4
843.79	8.52
844.095	8.73
844.4	8.56
844.705	8.69
845.01	8.66
845.315	8.67
845.619	8.58
845.924	8.46
846.229	8.29
846.533	8.31
846.838	8.39
847.142	8.19
847.447	8.22
847.751	8
848.056	8.08
848.36	8.06
848.664	7.97
848.969	7.91
849.273	7.82
849.577	7.56
849.881	7.54
850.185	7.59
850.489	7.85
850.794	8.15
851.097	8.11
851.401	8.23
851.705	8.35
852.009	8.43
852.313	8.24
852.617	8.32
852.92	8.35
853.224	8.26
853.528	8.07
853.831	8.12
854.135	8.02
854.438	7.91
854.742	8.02
855.045	8.08
855.349	8.26
855.652	8.57
855.955	8.59
856.259	8.66
856.562	8.85
856.865	8.87
857.168	8.85
857.471	8.83
857.774	8.92
858.077	8.56
858.38	8.62
858.683	8.7
858.986	8.8
859.289	9.06
859.592	9.04
859.894	9.27
860.197	9.37
860.5	9.34
860.802	9.42
861.105	9.42
861.407	9.53
861.71	9.51
862.012	9.54
862.315	9.79
862.617	9.66
862.919	9.22
863.222	9.31
863.524	9.25
863.826	9.58
864.128	9.69
864.43	9.61
864.732	9.55
865.034	9.67
865.336	9.75
865.638	9.64
865.94	9.56
866.242	9.31
866.544	8.8
866.846	9.23
867.147	8.71
867.449	8.5
867.751	8.49
868.052	8.42
868.354	8.29
868.655	8.31
868.957	8.29
869.258	8.26
869.56	8.19
869.861	8.39
870.162	8.12
870.463	8.18
870.765	8.39
871.066	8.45
871.367	8.35
871.668	8.37
871.969	8.42
872.27	8.37
872.571	8.43
872.872	8.8
873.173	8.61
873.473	8.94
873.774	9.12
874.075	9.12
874.376	9.34
874.676	9.18
874.977	9.13
875.277	8.99
875.578	8.79
875.878	8.58
876.179	8.43
876.479	8.2
876.78	8.3
877.08	8.47
877.38	8.59
877.68	8.62
877.981	8.62
878.281	8.65
878.581	8.8
