Data from UWBM104549_Reflection_00005.txt Node
Date: Sun May 02 12:24:40 EDT 2021
User: vgr7
Spectrometer: USB2G7710
Scans to average: 10
Trigger mode: 4
Integration Time (sec): 1.000000E-1
Electric dark correction enabled: true
Boxcar width: 10
XAxis mode: Wavelengths
Number of Pixels in Spectrum: 2048
>>>>>Begin Spectral Data<<<<<
177.721	-444
178.105	-145.71
178.488	-61.06
178.871	-79.59
179.254	91.94
179.636	28.65
180.019	960
180.402	77.78
180.785	32.31
181.168	-10.89
181.55	9.15
181.933	-13.04
182.316	-15.79
182.698	0
183.081	-6.98
183.463	-14.52
183.846	6.04
184.228	-62.14
184.611	-58.12
184.993	-12.97
185.376	-5.21
185.758	-15.47
186.14	-24.44
186.522	-20.83
186.904	-26.78
187.287	-16.2
187.669	-26.46
188.051	-31.99
188.433	-17.03
188.815	-19.61
189.197	-14.93
189.579	-16.23
189.961	-10.58
190.342	-8.83
190.724	-2.95
191.106	-5.33
191.488	-2.08
191.869	-5.44
192.251	0
192.633	0.5
193.014	-6.46
193.396	-4.12
193.777	-3.44
194.159	-2.7
194.54	-7.94
194.922	-7.63
195.303	-7.55
195.684	-5.25
196.065	-6.76
196.447	-15.27
196.828	-16.93
197.209	-15.76
197.59	-18.71
197.971	-23.12
198.352	-19.91
198.733	-17.5
199.114	-16.81
199.495	-18.84
199.876	-21.52
200.257	-24.37
200.638	-24.07
201.018	-25.02
201.399	-25.31
201.78	-23.52
202.16	-16.6
202.541	-16.61
202.922	-15.38
203.302	-13.9
203.683	-10.42
204.063	-12.59
204.444	-9.93
204.824	-6.21
205.204	-7.88
205.585	-7.3
205.965	-5.15
206.345	-4.11
206.725	-10.75
207.106	-9.59
207.486	-10.64
207.866	-6.74
208.246	-4.07
208.626	-4.24
209.006	0.89
209.386	-2.23
209.766	-3.26
210.145	-5.81
210.525	-5.22
210.905	-5.43
211.285	-7.53
211.664	-14.08
212.044	-6.31
212.424	-5.16
212.803	-5.75
213.183	-4.22
213.562	-5.84
213.942	-9.78
214.321	-16.43
214.701	-17.22
215.08	-11.95
215.459	-10.79
215.838	-12.05
216.218	-14.42
216.597	-13.21
216.976	-21.18
217.355	-18.92
217.734	-19.37
218.113	-18.09
218.492	-17.36
218.871	-15.51
219.25	-15.67
219.629	-14.92
220.008	-20.08
220.387	-25.27
220.766	-31.32
221.144	-30.29
221.523	-27.54
221.902	-26.36
222.28	-23.39
222.659	-23.66
223.037	-23.54
223.416	-18.28
223.794	-17.06
224.173	-15.97
224.551	-16.92
224.929	-14.23
225.308	-9.56
225.686	-9.88
226.064	-8.58
226.442	-7.73
226.821	-6.88
227.199	-6.81
227.577	-6.75
227.955	-6.32
228.333	-5.04
228.711	-4.01
229.089	-3
229.467	-2.7
229.845	-0.31
230.222	0
230.6	1.58
230.978	1.48
231.356	0.86
231.733	1.16
232.111	2.11
232.488	1.7
232.866	1.83
233.243	0.87
233.621	2.03
233.998	1.7
234.376	2.07
234.753	2.62
235.13	3.36
235.508	4.99
235.885	5.72
236.262	5.73
236.639	6.24
237.016	6.24
237.393	6.22
237.77	5.61
238.147	5.76
238.524	5.82
238.901	5.67
239.278	5.57
239.655	5.51
240.032	5.41
240.409	5.84
240.785	5.85
241.162	5.85
241.539	5.84
241.915	5.94
242.292	6.08
242.668	5.9
243.045	5.9
243.421	5.83
243.798	5.78
244.174	5.8
244.551	5.73
244.927	5.6
245.303	5.55
245.679	5.67
246.056	5.57
246.432	5.5
246.808	5.51
247.184	5.51
247.56	5.52
247.936	5.56
248.312	5.58
248.688	5.58
249.064	5.59
249.44	5.54
249.815	5.51
250.191	5.49
250.567	5.46
250.943	5.41
251.318	5.39
251.694	5.32
252.069	5.24
252.445	5.3
252.82	5.25
253.196	5.35
253.571	5.21
253.947	5.33
254.322	5.36
254.697	5.46
255.073	5.42
255.448	5.43
255.823	5.33
256.198	5.28
256.573	5.19
256.948	5.18
257.323	5.24
257.698	5.2
258.073	5.11
258.448	5.2
258.823	5.17
259.198	5.16
259.573	5.14
259.948	5.17
260.322	5.09
260.697	5.13
261.072	5.11
261.446	5.09
261.821	5.07
262.195	5.01
262.57	4.95
262.944	4.93
263.319	4.89
263.693	4.91
264.067	4.89
264.442	4.94
264.816	4.9
265.19	4.83
265.564	4.83
265.938	4.78
266.313	4.68
266.687	4.63
267.061	4.63
267.435	4.7
267.809	4.73
268.183	4.78
268.556	4.83
268.93	4.8
269.304	4.79
269.678	4.76
270.051	4.79
270.425	4.77
270.799	4.8
271.172	4.8
271.546	4.79
271.919	4.83
272.293	4.78
272.666	4.8
273.04	4.82
273.413	4.78
273.787	4.8
274.16	4.79
274.533	4.85
274.906	4.75
275.279	4.74
275.653	4.67
276.026	4.62
276.399	4.57
276.772	4.58
277.145	4.62
277.518	4.64
277.891	4.66
278.263	4.68
278.636	4.71
279.009	4.7
279.382	4.7
279.755	4.64
280.127	4.72
280.5	4.72
280.872	4.66
281.245	4.73
281.617	4.73
281.99	4.75
282.362	4.74
282.735	4.79
283.107	4.79
283.479	4.84
283.852	4.83
284.224	4.83
284.596	4.81
284.968	4.83
285.34	4.81
285.713	4.85
286.085	4.8
286.457	4.8
286.829	4.8
287.201	4.8
287.572	4.81
287.944	4.82
288.316	4.85
288.688	4.91
289.06	4.93
289.431	4.93
289.803	4.95
290.175	4.97
290.546	4.98
290.918	5
291.289	5.02
291.661	5.1
292.032	5.1
292.403	5.11
292.775	5.06
293.146	5.08
293.517	5.06
293.889	5.12
294.26	5.08
294.631	5.12
295.002	5.13
295.373	5.14
295.744	5.11
296.115	5.12
296.486	5.1
296.857	5.09
297.228	5.12
297.599	5.11
297.97	5.08
298.34	5.1
298.711	5.07
299.082	5.06
299.452	5
299.823	5.04
300.194	5.06
300.564	5.08
300.935	5.09
301.305	5.06
301.676	5.04
302.046	5.07
302.416	5.03
302.787	5.03
303.157	5.05
303.527	5.06
303.897	5.04
304.267	5.06
304.637	5.05
305.008	5.05
305.378	5.09
305.748	5.15
306.117	5.15
306.487	5.14
306.857	5.13
307.227	5.12
307.597	5.11
307.967	5.12
308.336	5.14
308.706	5.16
309.076	5.17
309.445	5.19
309.815	5.19
310.184	5.19
310.554	5.16
310.923	5.12
311.293	5.09
311.662	5.08
312.031	5.09
312.401	5.06
312.77	5.06
313.139	5.05
313.508	5.01
313.877	5.04
314.246	5.05
314.616	5.07
314.985	5.07
315.353	5.05
315.722	5.01
316.091	5
316.46	4.99
316.829	5
317.198	4.99
317.567	5.02
317.935	4.99
318.304	5.03
318.672	5.09
319.041	5.13
319.41	5.13
319.778	5.14
320.147	5.19
320.515	5.16
320.883	5.12
321.252	5.11
321.62	5.03
321.988	5.04
322.357	5.07
322.725	5.1
323.093	5.12
323.461	5.12
323.829	5.1
324.197	5.07
324.565	5.07
324.933	5.07
325.301	5.08
325.669	5.12
326.037	5.1
326.405	5.05
326.772	5.04
327.14	5.03
327.508	5
327.875	5.01
328.243	5.06
328.61	5.09
328.978	5.13
329.346	5.16
329.713	5.16
330.08	5.14
330.448	5.15
330.815	5.13
331.182	5.12
331.55	5.15
331.917	5.17
332.284	5.19
332.651	5.18
333.018	5.16
333.385	5.14
333.752	5.2
334.119	5.2
334.486	5.19
334.853	5.19
335.22	5.19
335.587	5.2
335.954	5.19
336.32	5.18
336.687	5.17
337.054	5.19
337.42	5.21
337.787	5.22
338.153	5.23
338.52	5.25
338.886	5.29
339.253	5.26
339.619	5.24
339.986	5.23
340.352	5.26
340.718	5.29
341.084	5.29
341.451	5.26
341.817	5.26
342.183	5.31
342.549	5.32
342.915	5.34
343.281	5.32
343.647	5.34
344.013	5.34
344.379	5.33
344.745	5.31
345.11	5.31
345.476	5.32
345.842	5.32
346.208	5.32
346.573	5.31
346.939	5.33
347.304	5.33
347.67	5.32
348.035	5.34
348.401	5.3
348.766	5.31
349.132	5.34
349.497	5.37
349.862	5.35
350.228	5.37
350.593	5.37
350.958	5.38
351.323	5.38
351.688	5.4
352.053	5.41
352.418	5.44
352.783	5.43
353.148	5.43
353.513	5.44
353.878	5.45
354.243	5.47
354.608	5.48
354.972	5.48
355.337	5.49
355.702	5.47
356.066	5.48
356.431	5.47
356.795	5.47
357.16	5.48
357.524	5.47
357.889	5.47
358.253	5.49
358.618	5.48
358.982	5.48
359.346	5.49
359.71	5.5
360.075	5.5
360.439	5.52
360.803	5.5
361.167	5.48
361.531	5.47
361.895	5.45
362.259	5.47
362.623	5.49
362.987	5.5
363.351	5.52
363.714	5.52
364.078	5.52
364.442	5.51
364.806	5.5
365.169	5.52
365.533	5.5
365.896	5.5
366.26	5.5
366.623	5.51
366.987	5.51
367.35	5.49
367.714	5.51
368.077	5.51
368.44	5.53
368.803	5.55
369.167	5.57
369.53	5.59
369.893	5.6
370.256	5.59
370.619	5.61
370.982	5.6
371.345	5.6
371.708	5.62
372.071	5.64
372.434	5.66
372.797	5.65
373.159	5.68
373.522	5.68
373.885	5.7
374.247	5.71
374.61	5.7
374.973	5.72
375.335	5.71
375.698	5.72
376.06	5.73
376.423	5.74
376.785	5.76
377.147	5.75
377.51	5.76
377.872	5.76
378.234	5.74
378.596	5.76
378.958	5.76
379.321	5.77
379.683	5.78
380.045	5.77
380.407	5.77
380.769	5.77
381.13	5.78
381.492	5.76
381.854	5.73
382.216	5.75
382.578	5.76
382.939	5.76
383.301	5.74
383.663	5.74
384.024	5.75
384.386	5.74
384.747	5.74
385.109	5.73
385.47	5.74
385.832	5.75
386.193	5.75
386.554	5.75
386.916	5.76
387.277	5.76
387.638	5.77
387.999	5.79
388.36	5.78
388.721	5.78
389.082	5.8
389.443	5.81
389.804	5.81
390.165	5.83
390.526	5.84
390.887	5.84
391.248	5.87
391.609	5.88
391.969	5.88
392.33	5.87
392.691	5.89
393.051	5.89
393.412	5.89
393.772	5.88
394.133	5.88
394.493	5.89
394.854	5.89
395.214	5.89
395.574	5.88
395.935	5.89
396.295	5.9
396.655	5.89
397.015	5.89
397.376	5.9
397.736	5.9
398.096	5.88
398.456	5.88
398.816	5.86
399.176	5.85
399.535	5.86
399.895	5.87
400.255	5.88
400.615	5.87
400.975	5.88
401.334	5.88
401.694	5.89
402.054	5.89
402.413	5.9
402.773	5.9
403.132	5.9
403.492	5.9
403.851	5.89
404.211	5.9
404.57	5.91
404.929	5.9
405.288	5.89
405.648	5.91
406.007	5.92
406.366	5.93
406.725	5.94
407.084	5.92
407.443	5.92
407.802	5.92
408.161	5.93
408.52	5.93
408.879	5.93
409.238	5.94
409.596	5.94
409.955	5.94
410.314	5.93
410.673	5.92
411.031	5.93
411.39	5.94
411.748	5.94
412.107	5.93
412.465	5.94
412.824	5.94
413.182	5.94
413.54	5.95
413.899	5.95
414.257	5.95
414.615	5.97
414.974	5.98
415.332	5.98
415.69	5.98
416.048	5.98
416.406	5.99
416.764	6
417.122	6.02
417.48	6.03
417.838	6.04
418.195	6.06
418.553	6.06
418.911	6.07
419.269	6.08
419.626	6.09
419.984	6.1
420.342	6.11
420.699	6.11
421.057	6.12
421.414	6.12
421.772	6.12
422.129	6.13
422.486	6.12
422.844	6.12
423.201	6.13
423.558	6.12
423.915	6.12
424.273	6.11
424.63	6.11
424.987	6.1
425.344	6.09
425.701	6.08
426.058	6.07
426.415	6.07
426.772	6.05
427.128	6.04
427.485	6.03
427.842	6.02
428.199	6.01
428.555	6
428.912	5.99
429.269	5.99
429.625	5.98
429.982	5.97
430.338	5.97
430.695	5.97
431.051	5.98
431.407	5.98
431.764	5.98
432.12	5.98
432.476	5.98
432.832	5.99
433.189	6
433.545	6
433.901	6.01
434.257	6.01
434.613	6.01
434.969	6.01
435.325	6.02
435.681	6.03
436.036	6.04
436.392	6.05
436.748	6.06
437.104	6.07
437.459	6.08
437.815	6.08
438.171	6.08
438.526	6.09
438.882	6.1
439.237	6.11
439.593	6.12
439.948	6.13
440.304	6.14
440.659	6.14
441.014	6.14
441.369	6.15
441.725	6.16
442.08	6.17
442.435	6.17
442.79	6.18
443.145	6.18
443.5	6.19
443.855	6.19
444.21	6.19
444.565	6.19
444.92	6.19
445.275	6.2
445.629	6.2
445.984	6.2
446.339	6.2
446.693	6.19
447.048	6.18
447.403	6.18
447.757	6.18
448.112	6.17
448.466	6.17
448.82	6.17
449.175	6.16
449.529	6.15
449.883	6.14
450.238	6.13
450.592	6.12
450.946	6.11
451.3	6.1
451.654	6.08
452.008	6.08
452.362	6.06
452.716	6.06
453.07	6.05
453.424	6.04
453.778	6.04
454.132	6.03
454.486	6.03
454.839	6.03
455.193	6.03
455.547	6.03
455.9	6.04
456.254	6.04
456.607	6.05
456.961	6.06
457.314	6.08
457.668	6.08
458.021	6.1
458.375	6.1
458.728	6.09
459.081	6.1
459.434	6.1
459.787	6.1
460.141	6.11
460.494	6.11
460.847	6.12
461.2	6.12
461.553	6.12
461.906	6.12
462.259	6.12
462.611	6.13
462.964	6.13
463.317	6.12
463.67	6.12
464.022	6.12
464.375	6.12
464.728	6.11
465.08	6.11
465.433	6.11
465.785	6.12
466.138	6.13
466.49	6.13
466.843	6.13
467.195	6.14
467.547	6.14
467.899	6.14
468.252	6.15
468.604	6.16
468.956	6.17
469.308	6.18
469.66	6.18
470.012	6.18
470.364	6.19
470.716	6.2
471.068	6.22
471.42	6.22
471.772	6.22
472.123	6.23
472.475	6.24
472.827	6.25
473.178	6.25
473.53	6.26
473.882	6.27
474.233	6.28
474.585	6.29
474.936	6.29
475.288	6.29
475.639	6.3
475.99	6.3
476.342	6.31
476.693	6.31
477.044	6.31
477.395	6.32
477.746	6.32
478.097	6.33
478.448	6.37
478.8	6.49
479.15	6.65
479.501	6.86
479.852	7.1
480.203	7.36
480.554	7.62
480.905	7.89
481.255	8.15
481.606	8.4
481.957	8.66
482.307	8.91
482.658	9.12
483.009	9.31
483.359	9.46
483.709	9.6
484.06	9.74
484.41	9.86
484.761	9.98
485.111	10.1
485.461	10.2
485.811	10.31
486.162	10.35
486.512	10.34
486.862	10.28
487.212	10.19
487.562	10.05
487.912	9.91
488.262	9.75
488.612	9.58
488.961	9.39
489.311	9.19
489.661	8.98
490.011	8.77
490.36	8.56
490.71	8.35
491.06	8.13
491.409	7.9
491.759	7.72
492.108	7.58
492.458	7.44
492.807	7.33
493.157	7.21
493.506	7.1
493.855	7
494.204	6.9
494.554	6.8
494.903	6.72
495.252	6.64
495.601	6.56
495.95	6.49
496.299	6.43
496.648	6.37
496.997	6.32
497.346	6.3
497.695	6.3
498.043	6.35
498.392	6.42
498.741	6.51
499.09	6.56
499.438	6.58
499.787	6.59
500.135	6.59
500.484	6.61
500.832	6.62
501.181	6.62
501.529	6.64
501.878	6.64
502.226	6.65
502.574	6.66
502.923	6.67
503.271	6.68
503.619	6.69
503.967	6.71
504.315	6.73
504.663	6.75
505.011	6.76
505.359	6.78
505.707	6.79
506.055	6.81
506.403	6.83
506.751	6.85
507.098	6.87
507.446	6.89
507.794	6.9
508.141	6.91
508.489	6.93
508.837	6.94
509.184	6.96
509.531	6.98
509.879	6.99
510.226	7.01
510.574	7.02
510.921	7.03
511.268	7.05
511.616	7.06
511.963	7.07
512.31	7.07
512.657	7.08
513.004	7.09
513.351	7.09
513.698	7.11
514.045	7.11
514.392	7.13
514.739	7.15
515.086	7.17
515.432	7.18
515.779	7.2
516.126	7.21
516.473	7.23
516.819	7.24
517.166	7.25
517.512	7.26
517.859	7.27
518.205	7.28
518.552	7.28
518.898	7.29
519.245	7.3
519.591	7.31
519.937	7.32
520.283	7.32
520.629	7.33
520.976	7.35
521.322	7.36
521.668	7.36
522.014	7.36
522.36	7.37
522.706	7.38
523.052	7.41
523.398	7.48
523.743	7.59
524.089	7.74
524.435	7.9
524.781	8.07
525.126	8.24
525.472	8.42
525.817	8.59
526.163	8.75
526.509	8.9
526.854	9.02
527.199	9.11
527.545	9.17
527.89	9.21
528.235	9.24
528.581	9.27
528.926	9.29
529.271	9.32
529.616	9.34
529.961	9.36
530.306	9.37
530.651	9.34
530.996	9.27
531.341	9.18
531.686	9.06
532.031	8.91
532.376	8.74
532.721	8.55
533.065	8.35
533.41	8.18
533.755	8.02
534.099	7.89
534.444	7.79
534.788	7.73
535.133	7.68
535.477	7.64
535.822	7.6
536.166	7.57
536.51	7.54
536.855	7.52
537.199	7.51
537.543	7.51
537.887	7.52
538.231	7.53
538.576	7.55
538.92	7.58
539.264	7.64
539.608	7.69
539.951	7.74
540.295	7.79
540.639	7.81
540.983	7.82
541.327	7.82
541.671	7.81
542.014	7.81
542.358	7.81
542.701	7.81
543.045	7.81
543.389	7.82
543.732	7.82
544.075	7.81
544.419	7.8
544.762	7.79
545.105	7.76
545.449	7.74
545.792	7.7
546.135	7.66
546.478	7.62
546.821	7.6
547.165	7.58
547.508	7.58
547.851	7.59
548.194	7.61
548.536	7.64
548.879	7.65
549.222	7.65
549.565	7.64
549.908	7.63
550.25	7.63
550.593	7.63
550.936	7.62
551.278	7.62
551.621	7.62
551.963	7.61
552.306	7.63
552.648	7.62
552.991	7.61
553.333	7.6
553.675	7.6
554.017	7.6
554.36	7.6
554.702	7.59
555.044	7.59
555.386	7.58
555.728	7.58
556.07	7.59
556.412	7.58
556.754	7.58
557.096	7.59
557.438	7.59
557.78	7.59
558.121	7.59
558.463	7.59
558.805	7.58
559.147	7.59
559.488	7.57
559.83	7.59
560.171	7.6
560.513	7.61
560.854	7.61
561.196	7.61
561.537	7.62
561.878	7.63
562.22	7.65
562.561	7.66
562.902	7.67
563.243	7.68
563.584	7.69
563.925	7.7
564.266	7.7
564.607	7.71
564.948	7.71
565.289	7.72
565.63	7.73
565.971	7.74
566.312	7.74
566.653	7.75
566.993	7.74
567.334	7.74
567.675	7.75
568.015	7.76
568.356	7.78
568.696	7.79
569.037	7.79
569.377	7.8
569.718	7.81
570.058	7.81
570.398	7.81
570.739	7.81
571.079	7.81
571.419	7.81
571.759	7.81
572.099	7.82
572.439	7.82
572.779	7.84
573.119	7.84
573.459	7.84
573.799	7.85
574.139	7.86
574.479	7.87
574.819	7.87
575.158	7.87
575.498	7.87
575.838	7.86
576.177	7.87
576.517	7.87
576.856	7.86
577.196	7.87
577.535	7.87
577.875	7.87
578.214	7.87
578.553	7.88
578.893	7.87
579.232	7.87
579.571	7.86
579.91	7.85
580.25	7.85
580.589	7.85
580.928	7.84
581.267	7.84
581.606	7.83
581.945	7.83
582.283	7.83
582.622	7.82
582.961	7.83
583.3	7.82
583.639	7.81
583.977	7.82
584.316	7.82
584.654	7.82
584.993	7.84
585.332	7.83
585.67	7.84
586.008	7.85
586.347	7.86
586.685	7.87
587.024	7.87
587.362	7.89
587.7	7.89
588.038	7.89
588.376	7.89
588.715	7.9
589.053	7.9
589.391	7.89
589.729	7.9
590.067	7.9
590.404	7.91
590.742	7.93
591.08	7.93
591.418	7.93
591.756	7.94
592.093	7.95
592.431	7.96
592.769	7.96
593.106	7.96
593.444	7.97
593.781	7.97
594.119	7.98
594.456	7.98
594.793	8
595.131	8.01
595.468	8.02
595.805	8.01
596.143	8.02
596.48	8.03
596.817	8.04
597.154	8.04
597.491	8.04
597.828	8.04
598.165	8.04
598.502	8.03
598.839	8.03
599.176	8.02
599.512	8.02
599.849	8.02
600.186	8.03
600.523	8.03
600.859	8.04
601.196	8.05
601.532	8.04
601.869	8.05
602.205	8.06
602.542	8.07
602.878	8.08
603.215	8.09
603.551	8.09
603.887	8.09
604.223	8.11
604.56	8.12
604.896	8.13
605.232	8.14
605.568	8.15
605.904	8.16
606.24	8.17
606.576	8.18
606.912	8.2
607.248	8.2
607.583	8.21
607.919	8.21
608.255	8.2
608.591	8.21
608.926	8.22
609.262	8.21
609.597	8.23
609.933	8.22
610.268	8.23
610.604	8.23
610.939	8.23
611.275	8.21
611.61	8.22
611.945	8.21
612.281	8.22
612.616	8.22
612.951	8.22
613.286	8.21
613.621	8.19
613.956	8.18
614.291	8.18
614.626	8.18
614.961	8.18
615.296	8.17
615.631	8.17
615.966	8.16
616.3	8.16
616.635	8.15
616.97	8.14
617.304	8.15
617.639	8.16
617.973	8.16
618.308	8.16
618.642	8.16
618.977	8.16
619.311	8.14
619.646	8.14
619.98	8.15
620.314	8.16
620.648	8.18
620.983	8.18
621.317	8.19
621.651	8.21
621.985	8.21
622.319	8.23
622.653	8.21
622.987	8.23
623.321	8.24
623.655	8.26
623.988	8.28
624.322	8.27
624.656	8.28
624.99	8.3
625.323	8.31
625.657	8.32
625.99	8.33
626.324	8.35
626.657	8.36
626.991	8.36
627.324	8.36
627.658	8.35
627.991	8.36
628.324	8.35
628.657	8.35
628.991	8.37
629.324	8.39
629.657	8.41
629.99	8.41
630.323	8.42
630.656	8.41
630.989	8.43
631.322	8.45
631.655	8.44
631.987	8.44
632.32	8.45
632.653	8.49
632.986	8.49
633.318	8.5
633.651	8.5
633.984	8.5
634.316	8.52
634.649	8.52
634.981	8.54
635.313	8.54
635.646	8.54
635.978	8.54
636.31	8.52
636.643	8.53
636.975	8.53
637.307	8.54
637.639	8.55
637.971	8.54
638.303	8.54
638.635	8.54
638.967	8.55
639.299	8.55
639.631	8.51
639.963	8.52
640.295	8.5
640.626	8.52
640.958	8.52
641.29	8.52
641.621	8.53
641.953	8.53
642.285	8.55
642.616	8.55
642.948	8.55
643.279	8.57
643.61	8.57
643.942	8.58
644.273	8.57
644.604	8.57
644.936	8.57
645.267	8.58
645.598	8.59
645.929	8.59
646.26	8.6
646.591	8.61
646.922	8.62
647.253	8.64
647.584	8.65
647.915	8.66
648.245	8.68
648.576	8.7
648.907	8.7
649.238	8.72
649.568	8.72
649.899	8.72
650.229	8.73
650.56	8.73
650.89	8.74
651.221	8.76
651.551	8.78
651.882	8.77
652.212	8.77
652.542	8.78
652.872	8.79
653.203	8.8
653.533	8.84
653.863	8.84
654.193	8.81
654.523	8.81
654.853	8.81
655.183	8.79
655.513	8.8
655.843	8.82
656.172	8.81
656.502	8.82
656.832	8.83
657.162	8.82
657.491	8.83
657.821	8.84
658.15	8.84
658.48	8.84
658.809	8.85
659.139	8.87
659.468	8.88
659.798	8.89
660.127	8.88
660.456	8.86
660.785	8.87
661.115	8.91
661.444	8.92
661.773	8.95
662.102	8.96
662.431	8.96
662.76	8.96
663.089	8.97
663.418	8.98
663.747	8.96
664.076	8.99
664.404	9
664.733	9
665.062	8.99
665.39	8.99
665.719	8.99
666.048	9
666.376	9.01
666.705	8.99
667.033	9
667.362	8.99
667.69	9
668.018	9.01
668.347	9
668.675	8.97
669.003	8.99
669.331	8.99
669.659	9
669.987	9
670.315	9
670.643	9.02
670.971	9.03
671.299	9.02
671.627	9.02
671.955	9.01
672.283	9
672.61	9.03
672.938	9.02
673.266	9.02
673.593	9.03
673.921	9.03
674.249	9.06
674.576	9.08
674.904	9.11
675.231	9.12
675.558	9.15
675.886	9.16
676.213	9.16
676.54	9.17
676.867	9.18
677.195	9.2
677.522	9.22
677.849	9.22
678.176	9.26
678.503	9.29
678.83	9.3
679.157	9.31
679.484	9.31
679.81	9.31
680.137	9.32
680.464	9.33
680.791	9.32
681.117	9.32
681.444	9.29
681.771	9.26
682.097	9.28
682.424	9.25
682.75	9.22
683.077	9.23
683.403	9.23
683.729	9.24
684.056	9.23
684.382	9.23
684.708	9.24
685.034	9.24
685.36	9.22
685.686	9.25
686.012	9.29
686.339	9.3
686.664	9.29
686.99	9.31
687.316	9.33
687.642	9.37
687.968	9.36
688.294	9.36
688.619	9.39
688.945	9.38
689.271	9.41
689.596	9.45
689.922	9.48
690.247	9.49
690.573	9.49
690.898	9.52
691.224	9.51
691.549	9.54
691.874	9.51
692.2	9.55
692.525	9.54
692.85	9.51
693.175	9.52
693.5	9.56
693.825	9.55
694.15	9.55
694.475	9.57
694.8	9.59
695.125	9.61
695.45	9.62
695.775	9.63
696.099	9.65
696.424	9.65
696.749	9.68
697.073	9.71
697.398	9.71
697.723	9.7
698.047	9.73
698.372	9.71
698.696	9.73
699.02	9.72
699.345	9.72
699.669	9.73
699.993	9.72
700.318	9.7
700.642	9.7
700.966	9.69
701.29	9.7
701.614	9.69
701.938	9.7
702.262	9.72
702.586	9.74
702.91	9.73
703.234	9.74
703.557	9.69
703.881	9.66
704.205	9.65
704.529	9.66
704.852	9.62
705.176	9.66
705.499	9.65
705.823	9.7
706.146	9.73
706.47	9.73
706.793	9.76
707.117	9.8
707.44	9.83
707.763	9.86
708.086	9.84
708.409	9.84
708.733	9.83
709.056	9.81
709.379	9.79
709.702	9.84
710.025	9.87
710.348	9.89
710.671	9.9
710.993	9.97
711.316	9.95
711.639	9.99
711.962	9.97
712.284	9.99
712.607	9.99
712.93	9.99
713.252	9.99
713.575	10.01
713.897	9.99
714.22	10.01
714.542	9.98
714.864	9.98
715.187	10.01
715.509	10.03
715.831	10.04
716.153	10.05
716.475	10.05
716.798	10.04
717.12	10.03
717.442	10.02
717.764	10
718.085	10.07
718.407	10.07
718.729	10.05
719.051	10.05
719.373	10.06
719.695	10.04
720.016	10.02
720.338	10.06
720.659	10.08
720.981	10.11
721.302	10.12
721.624	10.12
721.945	10.12
722.267	10.14
722.588	10.16
722.909	10.22
723.231	10.18
723.552	10.19
723.873	10.19
724.194	10.22
724.515	10.23
724.836	10.22
725.157	10.21
725.478	10.26
725.799	10.3
726.12	10.31
726.441	10.37
726.762	10.43
727.083	10.43
727.403	10.44
727.724	10.42
728.045	10.44
728.365	10.48
728.686	10.54
729.006	10.54
729.327	10.58
729.647	10.57
729.967	10.59
730.288	10.61
730.608	10.65
730.928	10.69
731.249	10.68
731.569	10.65
731.889	10.67
732.209	10.7
732.529	10.69
732.849	10.69
733.169	10.65
733.489	10.62
733.809	10.59
734.129	10.6
734.448	10.61
734.768	10.6
735.088	10.64
735.408	10.65
735.727	10.63
736.047	10.6
736.366	10.62
736.686	10.64
737.005	10.62
737.325	10.57
737.644	10.59
737.963	10.59
738.283	10.57
738.602	10.58
738.921	10.53
739.24	10.5
739.56	10.52
739.879	10.54
740.198	10.63
740.517	10.66
740.836	10.68
741.155	10.68
741.473	10.71
741.792	10.67
742.111	10.67
742.43	10.71
742.748	10.75
743.067	10.74
743.386	10.73
743.704	10.74
744.023	10.84
744.341	10.77
744.66	10.82
744.978	10.86
745.297	10.83
745.615	10.86
745.933	10.86
746.252	10.87
746.57	10.81
746.888	10.77
747.206	10.82
747.524	10.82
747.842	10.83
748.16	10.87
748.478	10.87
748.796	10.83
749.114	10.82
749.432	10.8
749.749	10.87
750.067	10.88
750.385	10.93
750.703	10.88
751.02	10.92
751.338	10.9
751.655	10.93
751.973	10.93
752.29	10.9
752.608	10.96
752.925	11.05
753.242	11.16
753.56	11.2
753.877	11.15
754.194	11.19
754.511	11.21
754.828	11.19
755.145	11.29
755.462	11.37
755.779	11.43
756.096	11.45
756.413	11.46
756.73	11.5
757.047	11.48
757.364	11.54
757.68	11.6
757.997	11.62
758.314	11.6
758.63	11.69
758.947	11.81
759.264	11.8
759.58	11.7
759.896	11.63
760.213	11.65
760.529	11.66
760.846	11.62
761.162	11.66
761.478	11.66
761.794	11.63
762.11	11.59
762.426	11.55
762.743	11.56
763.059	11.55
763.375	11.54
763.69	11.6
764.006	11.62
764.322	11.59
764.638	11.58
764.954	11.62
765.27	11.64
765.585	11.64
765.901	11.69
766.216	11.7
766.532	11.7
766.848	11.68
767.163	11.74
767.478	11.78
767.794	11.78
768.109	11.79
768.424	11.82
768.74	11.87
769.055	11.9
769.37	11.96
769.685	11.98
770	12.02
770.315	11.97
770.63	11.93
770.945	11.95
771.26	11.93
771.575	11.92
771.89	11.89
772.205	11.85
772.52	11.8
772.834	11.79
773.149	11.82
773.464	11.91
773.778	11.9
774.093	11.96
774.407	11.96
774.722	11.96
775.036	11.86
775.351	11.83
775.665	11.81
775.979	11.73
776.293	11.7
776.608	11.71
776.922	11.72
777.236	11.65
777.55	11.74
777.864	11.75
778.178	11.82
778.492	11.82
778.806	11.83
779.12	11.87
779.434	11.95
779.747	11.96
780.061	11.95
780.375	11.97
780.689	11.96
781.002	11.98
781.316	12.02
781.629	12.15
781.943	12.13
782.256	12.15
782.57	12.28
782.883	12.31
783.196	12.29
783.51	12.35
783.823	12.5
784.136	12.41
784.449	12.51
784.762	12.46
785.075	12.47
785.388	12.42
785.701	12.44
786.014	12.42
786.327	12.42
786.64	12.38
786.953	12.39
787.266	12.39
787.578	12.31
787.891	12.36
788.204	12.33
788.516	12.48
788.829	12.51
789.141	12.37
789.454	12.35
789.766	12.33
790.079	12.34
790.391	12.22
790.703	12.43
791.016	12.33
791.328	12.41
791.64	12.44
791.952	12.55
792.264	12.47
792.576	12.53
792.888	12.58
793.2	12.59
793.512	12.57
793.824	12.55
794.136	12.61
794.448	12.69
794.76	12.68
795.071	12.64
795.383	12.71
795.695	12.87
796.006	12.93
796.318	12.93
796.629	12.94
796.941	13.01
797.252	12.9
797.564	12.87
797.875	12.77
798.186	12.73
798.497	12.76
798.809	12.82
799.12	12.75
799.431	12.75
799.742	12.77
800.053	12.73
800.364	12.77
800.675	12.85
800.986	12.84
801.297	12.98
801.608	12.88
801.918	12.88
802.229	12.89
802.54	12.85
802.851	12.77
803.161	12.8
803.472	12.79
803.782	12.71
804.093	12.86
804.403	12.82
804.714	12.88
805.024	12.86
805.334	12.9
805.645	12.96
805.955	12.94
806.265	12.88
806.575	12.93
806.885	12.92
807.195	12.87
807.505	12.8
807.815	12.72
808.125	12.87
808.435	12.99
808.745	13
809.055	13.04
809.365	13.34
809.674	13.38
809.984	13.38
810.294	13.42
810.603	13.43
810.913	13.62
811.222	13.71
811.532	13.76
811.841	13.76
812.151	13.79
812.46	13.98
812.769	14.06
813.079	14
813.388	14.04
813.697	14.05
814.006	14.06
814.315	14.11
814.624	14.08
814.933	13.92
815.242	13.89
815.551	13.96
815.86	13.8
816.169	13.85
816.478	13.92
816.786	13.81
817.095	13.85
817.404	13.79
817.712	13.72
818.021	13.6
818.33	13.63
818.638	13.72
818.947	13.56
819.255	13.58
819.563	13.73
819.872	13.73
820.18	13.78
820.488	13.82
820.796	13.8
821.105	13.78
821.413	13.81
821.721	13.82
822.029	13.88
822.337	13.98
822.645	13.97
822.953	14.01
823.26	14.1
823.568	14.14
823.876	14.13
824.184	14.13
824.491	14.16
824.799	14.16
825.107	14.19
825.414	14.23
825.722	14.25
826.029	14.25
826.337	14.28
826.644	14.29
826.951	14.32
827.259	14.33
827.566	14.41
827.873	14.45
828.18	14.43
828.488	14.46
828.795	14.46
829.102	14.48
829.409	14.5
829.716	14.47
830.023	14.38
830.329	14.42
830.636	14.52
830.943	14.58
831.25	14.6
831.557	14.46
831.863	14.51
832.17	14.46
832.476	14.48
832.783	14.45
833.089	14.53
833.396	14.49
833.702	14.53
834.009	14.49
834.315	14.45
834.621	14.56
834.928	14.45
835.234	14.52
835.54	14.48
835.846	14.54
836.152	14.57
836.458	14.66
836.764	14.63
837.07	14.63
837.376	14.52
837.682	14.42
837.988	14.65
838.293	14.66
838.599	14.85
838.905	14.85
839.211	14.94
839.516	14.98
839.822	15.17
840.127	15.19
840.433	15.17
840.738	15.22
841.044	15.22
841.349	15.42
841.654	15.25
841.959	15.35
842.265	15.22
842.57	15.19
842.875	15.06
843.18	15.41
843.485	15.28
843.79	15.32
844.095	15.39
844.4	15.15
844.705	15.07
845.01	14.97
845.315	15.16
845.619	14.9
845.924	14.58
846.229	14.21
846.533	14.26
846.838	14.44
847.142	14.45
847.447	14.46
847.751	14.08
848.056	13.98
848.36	13.88
848.664	13.74
848.969	13.61
849.273	13.74
849.577	13.34
849.881	13.58
850.185	13.91
850.489	14.45
850.794	14.73
851.097	14.51
851.401	14.32
851.705	14.04
852.009	14.16
852.313	14.21
852.617	14.29
852.92	14.06
853.224	13.84
853.528	14.34
853.831	14.55
854.135	14.67
854.438	14.77
854.742	14.84
855.045	14.68
855.349	14.61
855.652	14.57
855.955	14.43
856.259	14.45
856.562	14.48
856.865	14.13
857.168	13.85
857.471	13.93
857.774	14
858.077	14.09
858.38	14.33
858.683	14.52
858.986	14.61
859.289	14.97
859.592	15.29
859.894	15.02
860.197	15.01
860.5	14.81
860.802	14.95
861.105	14.99
861.407	15.38
861.71	15.63
862.012	16.06
862.315	16.44
862.617	16.17
862.919	16.07
863.222	16.36
863.524	16.44
863.826	17.01
864.128	17.11
864.43	17.12
864.732	17.05
865.034	17.15
865.336	17.32
865.638	17.32
865.94	16.99
866.242	16.74
866.544	16.74
866.846	17.18
867.147	17.24
867.449	17.22
867.751	17.11
868.052	17.1
868.354	16.9
868.655	17.02
868.957	17.49
869.258	17.57
869.56	17.56
869.861	17.83
870.162	17.5
870.463	17.27
870.765	17.27
871.066	17.39
871.367	17.12
871.668	16.88
871.969	16.67
872.27	16.66
872.571	16.77
872.872	16.67
873.173	16.4
873.473	16.08
873.774	16.14
874.075	16.45
874.376	16.47
874.676	16.38
874.977	16.26
875.277	15.91
875.578	15.68
875.878	15.65
876.179	15.43
876.479	15.29
876.78	15.52
877.08	15.58
877.38	15.43
877.68	15.54
877.981	15.72
878.281	16.06
878.581	16.11
