Data from UWBM55954_Reflection_00014.txt Node
Date: Sun May 02 13:52:19 EDT 2021
User: vgr7
Spectrometer: USB2G7710
Scans to average: 10
Trigger mode: 4
Integration Time (sec): 1.000000E-1
Electric dark correction enabled: true
Boxcar width: 20
XAxis mode: Wavelengths
Number of Pixels in Spectrum: 2048
>>>>>Begin Spectral Data<<<<<
177.721	114.21
178.105	79.58
178.488	71.2
178.871	79.23
179.254	61.23
179.636	42.32
180.019	29.1
180.402	26.92
180.785	28.36
181.168	27.77
181.55	27.55
181.933	28.73
182.316	26.41
182.698	26.13
183.081	23.75
183.463	22.35
183.846	16.56
184.228	17.64
184.611	16.29
184.993	16.04
185.376	16.53
185.758	18.43
186.14	18.31
186.522	18.97
186.904	17.78
187.287	19.08
187.669	20.51
188.051	22.16
188.433	25.32
188.815	21.81
189.197	23.6
189.579	22.8
189.961	21.57
190.342	19.28
190.724	19.83
191.106	20.75
191.488	21.31
191.869	19.2
192.251	16.89
192.633	18.19
193.014	18
193.396	15.02
193.777	17.37
194.159	17.42
194.54	18.05
194.922	16.75
195.303	15.62
195.684	16.39
196.065	15.31
196.447	16.09
196.828	15.37
197.209	13.08
197.59	10.73
197.971	11.25
198.352	11.79
198.733	12.09
199.114	12.65
199.495	14.35
199.876	13.34
200.257	13.97
200.638	13.09
201.018	14.11
201.399	14.29
201.78	13.07
202.16	11.51
202.541	10.8
202.922	10.24
203.302	11.02
203.683	10.21
204.063	9.5
204.444	9.2
204.824	8.38
205.204	6.53
205.585	8.27
205.965	8.83
206.345	7.66
206.725	8.59
207.106	8.94
207.486	9
207.866	9.42
208.246	8.05
208.626	6.64
209.006	8.84
209.386	6.99
209.766	5.27
210.145	4.18
210.525	5.81
210.905	8.17
211.285	5.79
211.664	5.77
212.044	4.43
212.424	4.16
212.803	4.95
213.183	6.08
213.562	6.89
213.942	7.25
214.321	5.34
214.701	4.31
215.08	5.02
215.459	5.81
215.838	4.26
216.218	4.22
216.597	2.89
216.976	3.19
217.355	4.61
217.734	5.13
218.113	5.51
218.492	4.82
218.871	3.63
219.25	4.31
219.629	4.01
220.008	3.88
220.387	3.12
220.766	4.52
221.144	4.47
221.523	4.28
221.902	5.33
222.28	3.75
222.659	3.7
223.037	4.12
223.416	4.72
223.794	5.39
224.173	6.36
224.551	5.56
224.929	6.75
225.308	7.24
225.686	6.96
226.064	6.86
226.442	6.1
226.821	7.17
227.199	7.76
227.577	7.83
227.955	8.13
228.333	8.1
228.711	7.69
229.089	6.94
229.467	6.43
229.845	6.94
230.222	6.91
230.6	6.67
230.978	6.53
231.356	7.06
231.733	7.22
232.111	6.92
232.488	6.57
232.866	6.05
233.243	5.72
233.621	5.61
233.998	5.71
234.376	5.64
234.753	5.27
235.13	5.17
235.508	5.29
235.885	5.36
236.262	5.26
236.639	5.22
237.016	5.21
237.393	5.09
237.77	5.13
238.147	5.03
238.524	4.95
238.901	4.87
239.278	4.8
239.655	4.79
240.032	4.79
240.409	4.76
240.785	4.77
241.162	4.78
241.539	4.7
241.915	4.8
242.292	4.82
242.668	4.8
243.045	4.78
243.421	4.78
243.798	4.78
244.174	4.84
244.551	4.89
244.927	4.88
245.303	4.9
245.679	4.93
246.056	4.89
246.432	4.91
246.808	4.85
247.184	4.86
247.56	4.88
247.936	4.87
248.312	4.89
248.688	4.92
249.064	4.92
249.44	4.92
249.815	4.89
250.191	4.89
250.567	4.91
250.943	4.86
251.318	4.81
251.694	4.81
252.069	4.78
252.445	4.78
252.82	4.74
253.196	4.71
253.571	4.67
253.947	4.66
254.322	4.63
254.697	4.62
255.073	4.6
255.448	4.6
255.823	4.55
256.198	4.54
256.573	4.51
256.948	4.53
257.323	4.48
257.698	4.42
258.073	4.39
258.448	4.38
258.823	4.34
259.198	4.32
259.573	4.28
259.948	4.26
260.322	4.25
260.697	4.23
261.072	4.2
261.446	4.2
261.821	4.17
262.195	4.15
262.57	4.11
262.944	4.11
263.319	4.13
263.693	4.12
264.067	4.12
264.442	4.11
264.816	4.07
265.19	4.09
265.564	4.1
265.938	4.1
266.313	4.11
266.687	4.11
267.061	4.09
267.435	4.08
267.809	4.06
268.183	4.07
268.556	4.07
268.93	4.09
269.304	4.09
269.678	4.1
270.051	4.08
270.425	4.05
270.799	4.03
271.172	4.06
271.546	4.05
271.919	4.06
272.293	4.05
272.666	4.06
273.04	4.06
273.413	4.11
273.787	4.11
274.16	4.13
274.533	4.14
274.906	4.15
275.279	4.15
275.653	4.16
276.026	4.16
276.399	4.17
276.772	4.18
277.145	4.16
277.518	4.19
277.891	4.2
278.263	4.18
278.636	4.18
279.009	4.19
279.382	4.16
279.755	4.17
280.127	4.19
280.5	4.18
280.872	4.17
281.245	4.17
281.617	4.16
281.99	4.17
282.362	4.18
282.735	4.19
283.107	4.2
283.479	4.18
283.852	4.19
284.224	4.21
284.596	4.2
284.968	4.2
285.34	4.22
285.713	4.24
286.085	4.26
286.457	4.26
286.829	4.26
287.201	4.26
287.572	4.26
287.944	4.27
288.316	4.28
288.688	4.27
289.06	4.28
289.431	4.27
289.803	4.29
290.175	4.3
290.546	4.32
290.918	4.35
291.289	4.37
291.661	4.39
292.032	4.39
292.403	4.42
292.775	4.43
293.146	4.45
293.517	4.47
293.889	4.49
294.26	4.52
294.631	4.55
295.002	4.59
295.373	4.61
295.744	4.64
296.115	4.68
296.486	4.72
296.857	4.76
297.228	4.78
297.599	4.81
297.97	4.83
298.34	4.86
298.711	4.9
299.082	4.93
299.452	4.96
299.823	4.99
300.194	5.03
300.564	5.05
300.935	5.08
301.305	5.1
301.676	5.13
302.046	5.16
302.416	5.2
302.787	5.23
303.157	5.26
303.527	5.29
303.897	5.32
304.267	5.36
304.637	5.39
305.008	5.43
305.378	5.47
305.748	5.5
306.117	5.54
306.487	5.58
306.857	5.62
307.227	5.67
307.597	5.7
307.967	5.74
308.336	5.78
308.706	5.81
309.076	5.84
309.445	5.88
309.815	5.89
310.184	5.91
310.554	5.93
310.923	5.97
311.293	5.99
311.662	6
312.031	6.02
312.401	6.06
312.77	6.09
313.139	6.12
313.508	6.14
313.877	6.18
314.246	6.21
314.616	6.23
314.985	6.26
315.353	6.29
315.722	6.3
316.091	6.33
316.46	6.34
316.829	6.39
317.198	6.42
317.567	6.45
317.935	6.49
318.304	6.52
318.672	6.56
319.041	6.61
319.41	6.64
319.778	6.69
320.147	6.72
320.515	6.74
320.883	6.76
321.252	6.77
321.62	6.8
321.988	6.83
322.357	6.86
322.725	6.89
323.093	6.92
323.461	6.93
323.829	6.98
324.197	7
324.565	7
324.933	7.04
325.301	7.07
325.669	7.11
326.037	7.11
326.405	7.13
326.772	7.15
327.14	7.17
327.508	7.17
327.875	7.2
328.243	7.22
328.61	7.23
328.978	7.24
329.346	7.25
329.713	7.29
330.08	7.31
330.448	7.32
330.815	7.34
331.182	7.35
331.55	7.38
331.917	7.39
332.284	7.39
332.651	7.41
333.018	7.44
333.385	7.46
333.752	7.47
334.119	7.47
334.486	7.48
334.853	7.5
335.22	7.52
335.587	7.54
335.954	7.57
336.32	7.6
336.687	7.62
337.054	7.63
337.42	7.65
337.787	7.65
338.153	7.66
338.52	7.67
338.886	7.67
339.253	7.68
339.619	7.7
339.986	7.71
340.352	7.73
340.718	7.73
341.084	7.75
341.451	7.76
341.817	7.76
342.183	7.78
342.549	7.79
342.915	7.79
343.281	7.8
343.647	7.81
344.013	7.83
344.379	7.84
344.745	7.84
345.11	7.85
345.476	7.87
345.842	7.87
346.208	7.87
346.573	7.87
346.939	7.87
347.304	7.89
347.67	7.89
348.035	7.89
348.401	7.9
348.766	7.91
349.132	7.91
349.497	7.9
349.862	7.91
350.228	7.91
350.593	7.91
350.958	7.9
351.323	7.89
351.688	7.9
352.053	7.89
352.418	7.89
352.783	7.88
353.148	7.86
353.513	7.86
353.878	7.85
354.243	7.84
354.608	7.84
354.972	7.83
355.337	7.82
355.702	7.81
356.066	7.8
356.431	7.79
356.795	7.78
357.16	7.75
357.524	7.75
357.889	7.75
358.253	7.73
358.618	7.71
358.982	7.69
359.346	7.68
359.71	7.66
360.075	7.65
360.439	7.62
360.803	7.61
361.167	7.59
361.531	7.58
361.895	7.57
362.259	7.54
362.623	7.52
362.987	7.5
363.351	7.48
363.714	7.45
364.078	7.43
364.442	7.42
364.806	7.38
365.169	7.35
365.533	7.34
365.896	7.31
366.26	7.28
366.623	7.25
366.987	7.22
367.35	7.19
367.714	7.17
368.077	7.15
368.44	7.12
368.803	7.1
369.167	7.06
369.53	7.02
369.893	6.98
370.256	6.94
370.619	6.91
370.982	6.88
371.345	6.84
371.708	6.81
372.071	6.78
372.434	6.74
372.797	6.69
373.159	6.66
373.522	6.63
373.885	6.6
374.247	6.56
374.61	6.52
374.973	6.48
375.335	6.44
375.698	6.4
376.06	6.37
376.423	6.34
376.785	6.3
377.147	6.27
377.51	6.24
377.872	6.2
378.234	6.16
378.596	6.13
378.958	6.1
379.321	6.06
379.683	6.04
380.045	6.01
380.407	5.98
380.769	5.94
381.13	5.91
381.492	5.89
381.854	5.86
382.216	5.83
382.578	5.8
382.939	5.77
383.301	5.74
383.663	5.71
384.024	5.67
384.386	5.65
384.747	5.63
385.109	5.6
385.47	5.57
385.832	5.53
386.193	5.51
386.554	5.48
386.916	5.46
387.277	5.43
387.638	5.41
387.999	5.39
388.36	5.36
388.721	5.34
389.082	5.32
389.443	5.3
389.804	5.27
390.165	5.25
390.526	5.23
390.887	5.21
391.248	5.19
391.609	5.17
391.969	5.15
392.33	5.13
392.691	5.11
393.051	5.09
393.412	5.07
393.772	5.04
394.133	5.02
394.493	5
394.854	4.97
395.214	4.95
395.574	4.93
395.935	4.91
396.295	4.89
396.655	4.86
397.015	4.84
397.376	4.83
397.736	4.8
398.096	4.78
398.456	4.77
398.816	4.76
399.176	4.73
399.535	4.71
399.895	4.69
400.255	4.68
400.615	4.66
400.975	4.65
401.334	4.63
401.694	4.61
402.054	4.59
402.413	4.58
402.773	4.56
403.132	4.55
403.492	4.54
403.851	4.52
404.211	4.51
404.57	4.5
404.929	4.49
405.288	4.48
405.648	4.47
406.007	4.46
406.366	4.45
406.725	4.44
407.084	4.43
407.443	4.42
407.802	4.41
408.161	4.41
408.52	4.4
408.879	4.39
409.238	4.38
409.596	4.38
409.955	4.37
410.314	4.37
410.673	4.36
411.031	4.36
411.39	4.36
411.748	4.35
412.107	4.35
412.465	4.36
412.824	4.37
413.182	4.39
413.54	4.4
413.899	4.43
414.257	4.45
414.615	4.49
414.974	4.51
415.332	4.54
415.69	4.57
416.048	4.59
416.406	4.63
416.764	4.65
417.122	4.68
417.48	4.7
417.838	4.73
418.195	4.75
418.553	4.76
418.911	4.77
419.269	4.77
419.626	4.77
419.984	4.75
420.342	4.74
420.699	4.72
421.057	4.69
421.414	4.67
421.772	4.65
422.129	4.64
422.486	4.63
422.844	4.63
423.201	4.62
423.558	4.61
423.915	4.61
424.273	4.61
424.63	4.6
424.987	4.6
425.344	4.59
425.701	4.59
426.058	4.59
426.415	4.58
426.772	4.58
427.128	4.57
427.485	4.56
427.842	4.54
428.199	4.52
428.555	4.5
428.912	4.48
429.269	4.45
429.625	4.42
429.982	4.4
430.338	4.37
430.695	4.34
431.051	4.31
431.407	4.28
431.764	4.27
432.12	4.24
432.476	4.23
432.832	4.23
433.189	4.23
433.545	4.23
433.901	4.25
434.257	4.27
434.613	4.3
434.969	4.32
435.325	4.35
435.681	4.39
436.036	4.41
436.392	4.44
436.748	4.46
437.104	4.46
437.459	4.48
437.815	4.51
438.171	4.53
438.526	4.56
438.882	4.59
439.237	4.63
439.593	4.67
439.948	4.7
440.304	4.74
440.659	4.76
441.014	4.78
441.369	4.81
441.725	4.83
442.08	4.85
442.435	4.86
442.79	4.87
443.145	4.88
443.5	4.87
443.855	4.87
444.21	4.87
444.565	4.86
444.92	4.86
445.275	4.85
445.629	4.84
445.984	4.83
446.339	4.81
446.693	4.8
447.048	4.78
447.403	4.76
447.757	4.73
448.112	4.71
448.466	4.68
448.82	4.66
449.175	4.63
449.529	4.61
449.883	4.59
450.238	4.57
450.592	4.56
450.946	4.55
451.3	4.55
451.654	4.55
452.008	4.55
452.362	4.55
452.716	4.55
453.07	4.55
453.424	4.54
453.778	4.53
454.132	4.52
454.486	4.51
454.839	4.49
455.193	4.47
455.547	4.45
455.9	4.42
456.254	4.41
456.607	4.38
456.961	4.35
457.314	4.32
457.668	4.31
458.021	4.31
458.375	4.31
458.728	4.31
459.081	4.31
459.434	4.32
459.787	4.33
460.141	4.34
460.494	4.36
460.847	4.37
461.2	4.37
461.553	4.38
461.906	4.39
462.259	4.4
462.611	4.41
462.964	4.42
463.317	4.43
463.67	4.44
464.022	4.45
464.375	4.46
464.728	4.46
465.08	4.47
465.433	4.47
465.785	4.47
466.138	4.47
466.49	4.45
466.843	4.44
467.195	4.42
467.547	4.4
467.899	4.39
468.252	4.36
468.604	4.34
468.956	4.33
469.308	4.32
469.66	4.32
470.012	4.32
470.364	4.33
470.716	4.33
471.068	4.35
471.42	4.38
471.772	4.4
472.123	4.42
472.475	4.43
472.827	4.45
473.178	4.46
473.53	4.47
473.882	4.49
474.233	4.51
474.585	4.55
474.936	4.61
475.288	4.71
475.639	4.83
475.99	4.97
476.342	5.13
476.693	5.29
477.044	5.46
477.395	5.64
477.746	5.82
478.097	5.99
478.448	6.18
478.8	6.36
479.15	6.52
479.501	6.68
479.852	6.82
480.203	6.95
480.554	7.08
480.905	7.2
481.255	7.31
481.606	7.42
481.957	7.52
482.307	7.62
482.658	7.71
483.009	7.8
483.359	7.89
483.709	7.97
484.06	8.05
484.41	8.13
484.761	8.21
485.111	8.28
485.461	8.35
485.811	8.41
486.162	8.47
486.512	8.52
486.862	8.56
487.212	8.59
487.562	8.61
487.912	8.62
488.262	8.63
488.612	8.62
488.961	8.6
489.311	8.56
489.661	8.49
490.011	8.4
490.36	8.29
490.71	8.17
491.06	8.04
491.409	7.9
491.759	7.75
492.108	7.59
492.458	7.43
492.807	7.27
493.157	7.1
493.506	6.94
493.855	6.79
494.204	6.66
494.554	6.53
494.903	6.41
495.252	6.29
495.601	6.18
495.95	6.08
496.299	5.99
496.648	5.9
496.997	5.82
497.346	5.75
497.695	5.67
498.043	5.6
498.392	5.54
498.741	5.48
499.09	5.43
499.438	5.38
499.787	5.34
500.135	5.3
500.484	5.27
500.832	5.26
501.181	5.25
501.529	5.27
501.878	5.3
502.226	5.33
502.574	5.38
502.923	5.42
503.271	5.47
503.619	5.52
503.967	5.57
504.315	5.63
504.663	5.68
505.011	5.74
505.359	5.79
505.707	5.85
506.055	5.91
506.403	5.98
506.751	6.05
507.098	6.12
507.446	6.19
507.794	6.27
508.141	6.35
508.489	6.45
508.837	6.54
509.184	6.63
509.531	6.73
509.879	6.83
510.226	6.94
510.574	7.06
510.921	7.17
511.268	7.29
511.616	7.42
511.963	7.55
512.31	7.68
512.657	7.82
513.004	7.95
513.351	8.07
513.698	8.19
514.045	8.29
514.392	8.39
514.739	8.49
515.086	8.58
515.432	8.67
515.779	8.76
516.126	8.85
516.473	8.95
516.819	9.07
517.166	9.19
517.512	9.32
517.859	9.47
518.205	9.64
518.552	9.81
518.898	10.01
519.245	10.22
519.591	10.5
519.937	10.82
520.283	11.19
520.629	11.61
520.976	12.04
521.322	12.49
521.668	12.95
522.014	13.43
522.36	13.9
522.706	14.37
523.052	14.82
523.398	15.24
523.743	15.63
524.089	15.99
524.435	16.32
524.781	16.65
525.126	16.98
525.472	17.3
525.817	17.61
526.163	17.92
526.509	18.22
526.854	18.53
527.199	18.82
527.545	19.13
527.89	19.45
528.235	19.76
528.581	20.06
528.926	20.34
529.271	20.61
529.616	20.87
529.961	21.13
530.306	21.37
530.651	21.59
530.996	21.79
531.341	21.98
531.686	22.17
532.031	22.35
532.376	22.54
532.721	22.75
533.065	22.99
533.41	23.24
533.755	23.47
534.099	23.67
534.444	23.86
534.788	24.03
535.133	24.19
535.477	24.33
535.822	24.46
536.166	24.56
536.51	24.61
536.855	24.63
537.199	24.62
537.543	24.62
537.887	24.64
538.231	24.69
538.576	24.74
538.92	24.78
539.264	24.81
539.608	24.82
539.951	24.82
540.295	24.82
540.639	24.81
540.983	24.78
541.327	24.74
541.671	24.68
542.014	24.66
542.358	24.64
542.701	24.68
543.045	24.76
543.389	24.87
543.732	24.99
544.075	25.12
544.419	25.27
544.762	25.43
545.105	25.59
545.449	25.77
545.792	25.95
546.135	26.13
546.478	26.29
546.821	26.4
547.165	26.48
547.508	26.51
547.851	26.51
548.194	26.48
548.536	26.41
548.879	26.32
549.222	26.22
549.565	26.11
549.908	26.01
550.25	25.91
550.593	25.87
550.936	25.89
551.278	25.94
551.621	26.02
551.963	26.11
552.306	26.21
552.648	26.35
552.991	26.52
553.333	26.7
553.675	26.89
554.017	27.11
554.36	27.35
554.702	27.62
555.044	27.92
555.386	28.26
555.728	28.62
556.07	28.93
556.412	29.26
556.754	29.51
557.096	29.74
557.438	29.96
557.78	30.19
558.121	30.42
558.463	30.64
558.805	30.87
559.147	31.09
559.488	31.31
559.83	31.53
560.171	31.75
560.513	31.96
560.854	32.18
561.196	32.4
561.537	32.61
561.878	32.81
562.22	33.01
562.561	33.21
562.902	33.4
563.243	33.59
563.584	33.79
563.925	33.99
564.266	34.18
564.607	34.37
564.948	34.56
565.289	34.75
565.63	34.93
565.971	35.12
566.312	35.3
566.653	35.48
566.993	35.64
567.334	35.81
567.675	35.98
568.015	36.15
568.356	36.31
568.696	36.46
569.037	36.61
569.377	36.75
569.718	36.88
570.058	37.01
570.398	37.15
570.739	37.28
571.079	37.4
571.419	37.52
571.759	37.63
572.099	37.75
572.439	37.86
572.779	37.97
573.119	38.08
573.459	38.19
573.799	38.3
574.139	38.4
574.479	38.51
574.819	38.61
575.158	38.71
575.498	38.81
575.838	38.92
576.177	39.01
576.517	39.11
576.856	39.21
577.196	39.31
577.535	39.4
577.875	39.49
578.214	39.58
578.553	39.68
578.893	39.77
579.232	39.84
579.571	39.92
579.91	40.01
580.25	40.1
580.589	40.19
580.928	40.28
581.267	40.37
581.606	40.47
581.945	40.56
582.283	40.66
582.622	40.76
582.961	40.86
583.3	40.96
583.639	41.07
583.977	41.16
584.316	41.25
584.654	41.35
584.993	41.45
585.332	41.55
585.67	41.66
586.008	41.75
586.347	41.85
586.685	41.94
587.024	42.04
587.362	42.13
587.7	42.23
588.038	42.34
588.376	42.44
588.715	42.56
589.053	42.65
589.391	42.77
589.729	42.86
590.067	42.96
590.404	43.06
590.742	43.15
591.08	43.27
591.418	43.37
591.756	43.46
592.093	43.55
592.431	43.62
592.769	43.7
593.106	43.78
593.444	43.86
593.781	43.93
594.119	44.01
594.456	44.08
594.793	44.15
595.131	44.23
595.468	44.31
595.805	44.39
596.143	44.46
596.48	44.53
596.817	44.62
597.154	44.72
597.491	44.81
597.828	44.9
598.165	44.98
598.502	45.07
598.839	45.15
599.176	45.23
599.512	45.29
599.849	45.36
600.186	45.43
600.523	45.49
600.859	45.55
601.196	45.62
601.532	45.68
601.869	45.75
602.205	45.81
602.542	45.88
602.878	45.94
603.215	45.99
603.551	46.05
603.887	46.11
604.223	46.17
604.56	46.23
604.896	46.28
605.232	46.32
605.568	46.37
605.904	46.42
606.24	46.47
606.576	46.53
606.912	46.58
607.248	46.62
607.583	46.67
607.919	46.71
608.255	46.76
608.591	46.8
608.926	46.83
609.262	46.87
609.597	46.91
609.933	46.94
610.268	46.98
610.604	47.02
610.939	47.05
611.275	47.08
611.61	47.11
611.945	47.14
612.281	47.15
612.616	47.18
612.951	47.21
613.286	47.25
613.621	47.28
613.956	47.32
614.291	47.36
614.626	47.4
614.961	47.44
615.296	47.47
615.631	47.51
615.966	47.54
616.3	47.58
616.635	47.61
616.97	47.64
617.304	47.68
617.639	47.72
617.973	47.75
618.308	47.79
618.642	47.82
618.977	47.86
619.311	47.91
619.646	47.96
619.98	48.01
620.314	48.06
620.648	48.11
620.983	48.16
621.317	48.21
621.651	48.27
621.985	48.31
622.319	48.35
622.653	48.4
622.987	48.44
623.321	48.48
623.655	48.52
623.988	48.55
624.322	48.58
624.656	48.61
624.99	48.65
625.323	48.69
625.657	48.73
625.99	48.76
626.324	48.79
626.657	48.82
626.991	48.86
627.324	48.9
627.658	48.94
627.991	48.98
628.324	49.01
628.657	49.05
628.991	49.09
629.324	49.12
629.657	49.15
629.99	49.18
630.323	49.22
630.656	49.27
630.989	49.31
631.322	49.34
631.655	49.39
631.987	49.41
632.32	49.45
632.653	49.48
632.986	49.5
633.318	49.53
633.651	49.56
633.984	49.57
634.316	49.6
634.649	49.62
634.981	49.66
635.313	49.68
635.646	49.72
635.978	49.75
636.31	49.78
636.643	49.82
636.975	49.85
637.307	49.89
637.639	49.93
637.971	49.97
638.303	50.01
638.635	50.06
638.967	50.08
639.299	50.12
639.631	50.19
639.963	50.23
640.295	50.27
640.626	50.31
640.958	50.34
641.29	50.38
641.621	50.43
641.953	50.46
642.285	50.49
642.616	50.53
642.948	50.58
643.279	50.62
643.61	50.66
643.942	50.7
644.273	50.73
644.604	50.77
644.936	50.8
645.267	50.84
645.598	50.89
645.929	50.93
646.26	50.98
646.591	51.03
646.922	51.07
647.253	51.12
647.584	51.19
647.915	51.24
648.245	51.27
648.576	51.32
648.907	51.36
649.238	51.39
649.568	51.44
649.899	51.49
650.229	51.53
650.56	51.58
650.89	51.64
651.221	51.68
651.551	51.73
651.882	51.78
652.212	51.83
652.542	51.88
652.872	51.91
653.203	51.96
653.533	52.01
653.863	52.06
654.193	52.11
654.523	52.16
654.853	52.22
655.183	52.26
655.513	52.32
655.843	52.37
656.172	52.41
656.502	52.44
656.832	52.48
657.162	52.51
657.491	52.56
657.821	52.59
658.15	52.63
658.48	52.67
658.809	52.71
659.139	52.75
659.468	52.79
659.798	52.83
660.127	52.87
660.456	52.91
660.785	52.93
661.115	52.96
661.444	53
661.773	53.05
662.102	53.07
662.431	53.11
662.76	53.15
663.089	53.19
663.418	53.23
663.747	53.27
664.076	53.3
664.404	53.34
664.733	53.38
665.062	53.41
665.39	53.44
665.719	53.48
666.048	53.54
666.376	53.59
666.705	53.62
667.033	53.65
667.362	53.69
667.69	53.72
668.018	53.77
668.347	53.81
668.675	53.85
669.003	53.88
669.331	53.93
669.659	53.97
669.987	54.02
670.315	54.07
670.643	54.11
670.971	54.16
671.299	54.2
671.627	54.23
671.955	54.28
672.283	54.33
672.61	54.37
672.938	54.42
673.266	54.46
673.593	54.5
673.921	54.55
674.249	54.59
674.576	54.64
674.904	54.67
675.231	54.71
675.558	54.76
675.886	54.79
676.213	54.82
676.54	54.84
676.867	54.87
677.195	54.9
677.522	54.93
677.849	54.96
678.176	54.98
678.503	55.01
678.83	55.05
679.157	55.09
679.484	55.12
679.81	55.16
680.137	55.19
680.464	55.24
680.791	55.27
681.117	55.31
681.444	55.35
681.771	55.38
682.097	55.39
682.424	55.41
682.75	55.43
683.077	55.45
683.403	55.49
683.729	55.51
684.056	55.56
684.382	55.57
684.708	55.6
685.034	55.63
685.36	55.66
685.686	55.69
686.012	55.7
686.339	55.73
686.664	55.76
686.99	55.78
687.316	55.8
687.642	55.86
687.968	55.87
688.294	55.9
688.619	55.92
688.945	55.96
689.271	56
689.596	56.05
689.922	56.09
690.247	56.13
690.573	56.17
690.898	56.23
691.224	56.28
691.549	56.32
691.874	56.36
692.2	56.37
692.525	56.39
692.85	56.41
693.175	56.45
693.5	56.48
693.825	56.51
694.15	56.53
694.475	56.55
694.8	56.56
695.125	56.58
695.45	56.63
695.775	56.67
696.099	56.69
696.424	56.73
696.749	56.75
697.073	56.78
697.398	56.78
697.723	56.8
698.047	56.82
698.372	56.87
698.696	56.9
699.02	56.92
699.345	56.96
699.669	56.96
699.993	56.99
700.318	57.02
700.642	57.06
700.966	57.08
701.29	57.12
701.614	57.14
701.938	57.18
702.262	57.2
702.586	57.22
702.91	57.24
703.234	57.27
703.557	57.28
703.881	57.31
704.205	57.32
704.529	57.34
704.852	57.34
705.176	57.39
705.499	57.45
705.823	57.48
706.146	57.52
706.47	57.52
706.793	57.55
707.117	57.56
707.44	57.56
707.763	57.58
708.086	57.64
708.409	57.66
708.733	57.67
709.056	57.7
709.379	57.73
709.702	57.77
710.025	57.78
710.348	57.79
710.671	57.84
710.993	57.89
711.316	57.91
711.639	57.91
711.962	57.95
712.284	57.99
712.607	58
712.93	58.02
713.252	58.03
713.575	58.08
713.897	58.08
714.22	58.09
714.542	58.1
714.864	58.13
715.187	58.13
715.509	58.13
715.831	58.15
716.153	58.17
716.475	58.18
716.798	58.2
717.12	58.2
717.442	58.23
717.764	58.24
718.085	58.28
718.407	58.29
718.729	58.27
719.051	58.29
719.373	58.3
719.695	58.37
720.016	58.4
720.338	58.44
720.659	58.48
720.981	58.5
721.302	58.48
721.624	58.52
721.945	58.56
722.267	58.56
722.588	58.58
722.909	58.56
723.231	58.62
723.552	58.66
723.873	58.67
724.194	58.69
724.515	58.72
724.836	58.73
725.157	58.73
725.478	58.73
725.799	58.76
726.12	58.79
726.441	58.82
726.762	58.83
727.083	58.84
727.403	58.87
727.724	58.88
728.045	58.9
728.365	58.93
728.686	58.96
729.006	59
729.327	59.04
729.647	59.07
729.967	59.11
730.288	59.16
730.608	59.17
730.928	59.19
731.249	59.21
731.569	59.2
731.889	59.24
732.209	59.26
732.529	59.28
732.849	59.28
733.169	59.28
733.489	59.29
733.809	59.3
734.129	59.32
734.448	59.35
734.768	59.36
735.088	59.36
735.408	59.4
735.727	59.42
736.047	59.47
736.366	59.43
736.686	59.44
737.005	59.43
737.325	59.42
737.644	59.42
737.963	59.43
738.283	59.44
738.602	59.45
738.921	59.44
739.24	59.45
739.56	59.46
739.879	59.44
740.198	59.44
740.517	59.43
740.836	59.46
741.155	59.46
741.473	59.43
741.792	59.46
742.111	59.45
742.43	59.42
742.748	59.43
743.067	59.43
743.386	59.42
743.704	59.44
744.023	59.44
744.341	59.47
744.66	59.51
744.978	59.49
745.297	59.49
745.615	59.49
745.933	59.47
746.252	59.49
746.57	59.49
746.888	59.54
747.206	59.57
747.524	59.59
747.842	59.59
748.16	59.61
748.478	59.58
748.796	59.57
749.114	59.58
749.432	59.63
749.749	59.63
750.067	59.67
750.385	59.69
750.703	59.68
751.02	59.72
751.338	59.73
751.655	59.73
751.973	59.74
752.29	59.74
752.608	59.72
752.925	59.74
753.242	59.79
753.56	59.8
753.877	59.83
754.194	59.86
754.511	59.94
754.828	59.95
755.145	59.99
755.462	60.02
755.779	60.06
756.096	60.08
756.413	60.1
756.73	60.13
757.047	60.1
757.364	60.13
757.68	60.15
757.997	60.22
758.314	60.26
758.63	60.29
758.947	60.36
759.264	60.42
759.58	60.47
759.896	60.46
760.213	60.46
760.529	60.46
760.846	60.46
761.162	60.49
761.478	60.52
761.794	60.53
762.11	60.56
762.426	60.58
762.743	60.65
763.059	60.64
763.375	60.65
763.69	60.68
764.006	60.7
764.322	60.71
764.638	60.75
764.954	60.76
765.27	60.77
765.585	60.8
765.901	60.84
766.216	60.84
766.532	60.84
766.848	60.86
767.163	60.85
767.478	60.84
767.794	60.84
768.109	60.83
768.424	60.86
768.74	60.85
769.055	60.86
769.37	60.87
769.685	60.88
770	60.94
770.315	60.94
770.63	60.94
770.945	60.92
771.26	60.91
771.575	60.9
771.89	60.86
772.205	60.8
772.52	60.81
772.834	60.85
773.149	60.85
773.464	60.85
773.778	60.92
774.093	60.87
774.407	60.89
774.722	60.89
775.036	60.91
775.351	60.9
775.665	60.85
775.979	60.88
776.293	60.91
776.608	60.91
776.922	60.89
777.236	60.89
777.55	60.89
777.864	60.92
778.178	60.96
778.492	60.99
778.806	60.99
779.12	61.01
779.434	61.01
779.747	61
780.061	61.04
780.375	61.04
780.689	61.02
781.002	61.01
781.316	60.99
781.629	60.97
781.943	60.98
782.256	61.01
782.57	60.98
782.883	61
783.196	61.05
783.51	61.05
783.823	61.08
784.136	61.09
784.449	61.18
784.762	61.25
785.075	61.26
785.388	61.26
785.701	61.19
786.014	61.26
786.327	61.26
786.64	61.26
786.953	61.31
787.266	61.32
787.578	61.33
787.891	61.33
788.204	61.31
788.516	61.32
788.829	61.35
789.141	61.33
789.454	61.32
789.766	61.37
790.079	61.42
790.391	61.4
790.703	61.43
791.016	61.45
791.328	61.45
791.64	61.42
791.952	61.4
792.264	61.37
792.576	61.39
792.888	61.35
793.2	61.37
793.512	61.41
793.824	61.48
794.136	61.51
794.448	61.53
794.76	61.55
795.071	61.56
795.383	61.57
795.695	61.57
796.006	61.55
796.318	61.5
796.629	61.49
796.941	61.48
797.252	61.45
797.564	61.39
797.875	61.4
798.186	61.38
798.497	61.42
798.809	61.42
799.12	61.41
799.431	61.37
799.742	61.4
800.053	61.4
800.364	61.41
800.675	61.38
800.986	61.41
801.297	61.38
801.608	61.43
801.918	61.47
802.229	61.54
802.54	61.49
802.851	61.47
803.161	61.54
803.472	61.47
803.782	61.43
804.093	61.49
804.403	61.53
804.714	61.53
805.024	61.55
805.334	61.52
805.645	61.57
805.955	61.56
806.265	61.59
806.575	61.54
806.885	61.53
807.195	61.52
807.505	61.56
807.815	61.62
808.125	61.67
808.435	61.66
808.745	61.68
809.055	61.78
809.365	61.82
809.674	61.86
809.984	61.89
810.294	61.93
810.603	62
810.913	62.04
811.222	62.01
811.532	61.97
811.841	62.01
812.151	62.1
812.46	62.09
812.769	62.14
813.079	62.21
813.388	62.24
813.697	62.29
814.006	62.36
814.315	62.28
814.624	62.31
814.933	62.22
815.242	62.27
815.551	62.23
815.86	62.25
816.169	62.37
816.478	62.45
816.786	62.48
817.095	62.51
817.404	62.52
817.712	62.59
818.021	62.63
818.33	62.6
818.638	62.63
818.947	62.59
819.255	62.58
819.563	62.53
819.872	62.54
820.18	62.55
820.488	62.56
820.796	62.57
821.105	62.58
821.413	62.61
821.721	62.61
822.029	62.6
822.337	62.64
822.645	62.63
822.953	62.64
823.26	62.65
823.568	62.65
823.876	62.65
824.184	62.68
824.491	62.7
824.799	62.68
825.107	62.67
825.414	62.66
825.722	62.67
826.029	62.67
826.337	62.67
826.644	62.66
826.951	62.67
827.259	62.67
827.566	62.69
827.873	62.7
828.18	62.71
828.488	62.7
828.795	62.69
829.102	62.68
829.409	62.64
829.716	62.64
830.023	62.65
830.329	62.63
830.636	62.64
830.943	62.67
831.25	62.64
831.557	62.66
831.863	62.7
832.17	62.75
832.476	62.74
832.783	62.76
833.089	62.7
833.396	62.68
833.702	62.7
834.009	62.63
834.315	62.64
834.621	62.64
834.928	62.63
835.234	62.62
835.54	62.55
835.846	62.56
836.152	62.57
836.458	62.63
836.764	62.59
837.07	62.58
837.376	62.64
837.682	62.63
837.988	62.64
838.293	62.67
838.599	62.68
838.905	62.61
839.211	62.63
839.516	62.61
839.822	62.6
840.127	62.56
840.433	62.53
840.738	62.57
841.044	62.55
841.349	62.54
841.654	62.52
841.959	62.61
842.265	62.57
842.57	62.65
842.875	62.61
843.18	62.57
843.485	62.56
843.79	62.7
844.095	62.75
844.4	62.66
844.705	62.68
845.01	62.79
845.315	62.74
845.619	62.72
845.924	62.68
846.229	62.61
846.533	62.66
846.838	62.56
847.142	62.65
847.447	62.64
847.751	62.75
848.056	62.89
848.36	62.86
848.664	62.81
848.969	62.82
849.273	62.77
849.577	62.66
849.881	62.55
850.185	62.68
850.489	62.61
850.794	62.53
851.097	62.56
851.401	62.83
851.705	62.83
852.009	62.82
852.313	62.82
852.617	62.98
852.92	63.17
853.224	63.34
853.528	63.41
853.831	63.5
854.135	63.47
854.438	63.18
854.742	63.18
855.045	63.11
855.349	63.23
855.652	63.14
855.955	63.14
856.259	63
856.562	62.94
856.865	63.18
857.168	63.19
857.471	63.25
857.774	63.35
858.077	63.49
858.38	63.68
858.683	63.8
858.986	64.03
859.289	64.04
859.592	64.01
859.894	64.05
860.197	63.99
860.5	63.86
860.802	63.98
861.105	64.02
861.407	63.96
861.71	64
862.012	64.05
862.315	64.23
862.617	64.16
862.919	64.18
863.222	64.23
863.524	64.11
863.826	63.9
864.128	63.82
864.43	63.94
864.732	64.07
865.034	64.02
865.336	63.79
865.638	63.69
865.94	63.71
866.242	63.7
866.544	63.85
866.846	64.07
867.147	64.1
867.449	63.94
867.751	63.76
868.052	63.76
868.354	63.78
868.655	63.77
868.957	63.84
869.258	63.85
869.56	63.83
869.861	63.76
870.162	63.62
870.463	63.57
870.765	63.53
871.066	63.49
871.367	63.34
871.668	63.32
871.969	63.17
872.27	63.14
872.571	63.16
872.872	63.28
873.173	63.14
873.473	63.18
873.774	63.17
874.075	63.2
874.376	63.18
874.676	62.99
874.977	63.02
875.277	63.04
875.578	62.9
875.878	62.95
876.179	63.13
876.479	63.33
876.78	63.36
877.08	63.08
877.38	63.06
877.68	63.2
877.981	63.16
878.281	63.06
878.581	62.91
