Data from UWBM50074_Reflection_00010.txt Node
Date: Sun May 02 12:36:00 EDT 2021
User: vgr7
Spectrometer: USB2G7710
Scans to average: 10
Trigger mode: 4
Integration Time (sec): 1.000000E-1
Electric dark correction enabled: true
Boxcar width: 10
XAxis mode: Wavelengths
Number of Pixels in Spectrum: 2048
>>>>>Begin Spectral Data<<<<<
177.721	-104.15
178.105	-386.36
178.488	1124.59
178.871	-813.21
179.254	-520
179.636	-65.38
180.019	250.38
180.402	21.05
180.785	59.78
181.168	113.67
181.55	25.2
181.933	107.69
182.316	166.4
182.698	402.25
183.081	296
183.463	-627.85
183.846	-107.12
184.228	-95.84
184.611	-60.98
184.993	-32.15
185.376	-14.33
185.758	-13.47
186.14	-16.42
186.522	-17.21
186.904	-24.39
187.287	-14.57
187.669	-14.68
188.051	-13.79
188.433	-3.27
188.815	-5.15
189.197	-5.1
189.579	-3.43
189.961	-0.33
190.342	1.51
190.724	9.41
191.106	8.52
191.488	13.29
191.869	10.07
192.251	9.96
192.633	9.44
193.014	10.02
193.396	7.47
193.777	7.47
194.159	7.46
194.54	5.31
194.922	7.49
195.303	7.92
195.684	11.57
196.065	10.63
196.447	7.34
196.828	5.76
197.209	3.25
197.59	1.93
197.971	1.62
198.352	5.78
198.733	9.52
199.114	11.7
199.495	10.6
199.876	11.39
200.257	11.12
200.638	12.34
201.018	9.48
201.399	13.13
201.78	12.62
202.16	10.22
202.541	12.47
202.922	12.51
203.302	12.58
203.683	11.58
204.063	9.78
204.444	11.08
204.824	14.21
205.204	17.06
205.585	20.43
205.965	19.62
206.345	17.19
206.725	9.59
207.106	10.14
207.486	7.72
207.866	9.64
208.246	10.48
208.626	12.17
209.006	13.55
209.386	10
209.766	8.37
210.145	10.2
210.525	5.38
210.905	5
211.285	7.86
211.664	7.79
212.044	9.42
212.424	10.97
212.803	11.25
213.183	13.24
213.562	11.27
213.942	11.76
214.321	11.11
214.701	10.68
215.08	9.12
215.459	9.86
215.838	5.72
216.218	7.25
216.597	6.89
216.976	6.06
217.355	7.7
217.734	9.14
218.113	8.75
218.492	14.06
218.871	13.83
219.25	11.66
219.629	12.3
220.008	13.54
220.387	11.2
220.766	8.78
221.144	6.67
221.523	8.29
221.902	8.79
222.28	9.48
222.659	11.37
223.037	12.39
223.416	13.77
223.794	16.81
224.173	14.54
224.551	12.39
224.929	10.86
225.308	12.62
225.686	12.06
226.064	11.74
226.442	10.43
226.821	10.34
227.199	9.66
227.577	8.42
227.955	8.28
228.333	8.43
228.711	8.22
229.089	8.63
229.467	7.68
229.845	7.33
230.222	6.76
230.6	6.68
230.978	6.69
231.356	6.24
231.733	5.84
232.111	6.09
232.488	5.77
232.866	5.8
233.243	4.77
233.621	5.07
233.998	4.88
234.376	4.7
234.753	4.72
235.13	4.7
235.508	5.5
235.885	5.15
236.262	5.34
236.639	5.67
237.016	5.66
237.393	5.93
237.77	5.81
238.147	5.8
238.524	5.94
238.901	5.84
239.278	5.69
239.655	5.81
240.032	5.61
240.409	5.67
240.785	5.63
241.162	5.67
241.539	5.62
241.915	5.58
242.292	5.59
242.668	5.53
243.045	5.48
243.421	5.32
243.798	5.21
244.174	5.17
244.551	5.06
244.927	4.95
245.303	4.87
245.679	4.86
246.056	4.81
246.432	4.77
246.808	4.78
247.184	4.77
247.56	4.7
247.936	4.74
248.312	4.73
248.688	4.79
249.064	4.74
249.44	4.69
249.815	4.71
250.191	4.69
250.567	4.63
250.943	4.66
251.318	4.65
251.694	4.66
252.069	4.58
252.445	4.61
252.82	4.57
253.196	4.6
253.571	4.61
253.947	4.75
254.322	4.68
254.697	4.63
255.073	4.64
255.448	4.63
255.823	4.54
256.198	4.46
256.573	4.34
256.948	4.32
257.323	4.35
257.698	4.32
258.073	4.3
258.448	4.31
258.823	4.29
259.198	4.3
259.573	4.29
259.948	4.33
260.322	4.28
260.697	4.29
261.072	4.28
261.446	4.25
261.821	4.21
262.195	4.18
262.57	4.17
262.944	4.18
263.319	4.15
263.693	4.19
264.067	4.24
264.442	4.23
264.816	4.21
265.19	4.18
265.564	4.16
265.938	4.17
266.313	4.18
266.687	4.11
267.061	4.11
267.435	4.09
267.809	4.05
268.183	4.11
268.556	4.15
268.93	4.16
269.304	4.14
269.678	4.09
270.051	4.09
270.425	4.06
270.799	4.04
271.172	4.06
271.546	4.06
271.919	4.03
272.293	4.03
272.666	4.04
273.04	4.04
273.413	3.98
273.787	3.95
274.16	3.93
274.533	3.93
274.906	3.92
275.279	3.93
275.653	3.91
276.026	3.85
276.399	3.78
276.772	3.76
277.145	3.79
277.518	3.83
277.891	3.85
278.263	3.89
278.636	3.88
279.009	3.9
279.382	3.85
279.755	3.81
280.127	3.85
280.5	3.86
280.872	3.84
281.245	3.93
281.617	3.94
281.99	3.94
282.362	3.95
282.735	3.91
283.107	3.91
283.479	3.96
283.852	3.99
284.224	4.05
284.596	4.04
284.968	4.04
285.34	4.03
285.713	4.06
286.085	4.04
286.457	4.05
286.829	4.01
287.201	4.04
287.572	4.08
287.944	4.07
288.316	4.1
288.688	4.14
289.06	4.13
289.431	4.15
289.803	4.17
290.175	4.21
290.546	4.24
290.918	4.27
291.289	4.28
291.661	4.32
292.032	4.31
292.403	4.33
292.775	4.35
293.146	4.36
293.517	4.38
293.889	4.41
294.26	4.43
294.631	4.48
295.002	4.52
295.373	4.56
295.744	4.59
296.115	4.61
296.486	4.61
296.857	4.63
297.228	4.66
297.599	4.68
297.97	4.71
298.34	4.76
298.711	4.8
299.082	4.82
299.452	4.84
299.823	4.88
300.194	4.93
300.564	4.97
300.935	4.99
301.305	5
301.676	5.01
302.046	5.02
302.416	5.07
302.787	5.1
303.157	5.14
303.527	5.2
303.897	5.21
304.267	5.3
304.637	5.34
305.008	5.38
305.378	5.43
305.748	5.46
306.117	5.51
306.487	5.53
306.857	5.57
307.227	5.6
307.597	5.63
307.967	5.67
308.336	5.73
308.706	5.79
309.076	5.84
309.445	5.9
309.815	5.96
310.184	6
310.554	6.05
310.923	6.06
311.293	6.11
311.662	6.15
312.031	6.17
312.401	6.21
312.77	6.25
313.139	6.32
313.508	6.35
313.877	6.38
314.246	6.41
314.616	6.46
314.985	6.5
315.353	6.57
315.722	6.63
316.091	6.68
316.46	6.78
316.829	6.86
317.198	6.94
317.567	7
317.935	7.02
318.304	7.06
318.672	7.13
319.041	7.18
319.41	7.25
319.778	7.33
320.147	7.4
320.515	7.45
320.883	7.5
321.252	7.58
321.62	7.6
321.988	7.7
322.357	7.75
322.725	7.82
323.093	7.9
323.461	7.93
323.829	7.96
324.197	7.98
324.565	8.01
324.933	8.03
325.301	8.09
325.669	8.16
326.037	8.19
326.405	8.23
326.772	8.25
327.14	8.27
327.508	8.29
327.875	8.33
328.243	8.37
328.61	8.43
328.978	8.47
329.346	8.52
329.713	8.55
330.08	8.59
330.448	8.65
330.815	8.67
331.182	8.71
331.55	8.74
331.917	8.79
332.284	8.84
332.651	8.88
333.018	8.88
333.385	8.89
333.752	8.95
334.119	8.97
334.486	9.02
334.853	9.04
335.22	9.1
335.587	9.13
335.954	9.15
336.32	9.12
336.687	9.13
337.054	9.14
337.42	9.16
337.787	9.18
338.153	9.21
338.52	9.25
338.886	9.29
339.253	9.33
339.619	9.33
339.986	9.35
340.352	9.36
340.718	9.44
341.084	9.47
341.451	9.48
341.817	9.52
342.183	9.54
342.549	9.58
342.915	9.58
343.281	9.62
343.647	9.66
344.013	9.71
344.379	9.76
344.745	9.77
345.11	9.83
345.476	9.85
345.842	9.86
346.208	9.85
346.573	9.84
346.939	9.87
347.304	9.9
347.67	9.89
348.035	9.91
348.401	9.9
348.766	9.92
349.132	9.92
349.497	9.94
349.862	9.95
350.228	9.96
350.593	9.98
350.958	9.97
351.323	9.97
351.688	9.98
352.053	9.97
352.418	10
352.783	9.97
353.148	9.97
353.513	9.95
353.878	9.98
354.243	9.99
354.608	9.96
354.972	9.95
355.337	9.95
355.702	9.94
356.066	9.92
356.431	9.89
356.795	9.87
357.16	9.82
357.524	9.8
357.889	9.77
358.253	9.74
358.618	9.71
358.982	9.69
359.346	9.65
359.71	9.63
360.075	9.6
360.439	9.56
360.803	9.52
361.167	9.49
361.531	9.45
361.895	9.42
362.259	9.4
362.623	9.38
362.987	9.35
363.351	9.33
363.714	9.32
364.078	9.28
364.442	9.26
364.806	9.24
365.169	9.22
365.533	9.18
365.896	9.14
366.26	9.11
366.623	9.06
366.987	9.03
367.35	8.99
367.714	8.95
368.077	8.91
368.44	8.89
368.803	8.83
369.167	8.8
369.53	8.77
369.893	8.72
370.256	8.66
370.619	8.61
370.982	8.55
371.345	8.48
371.708	8.43
372.071	8.37
372.434	8.31
372.797	8.23
373.159	8.19
373.522	8.13
373.885	8.07
374.247	8.01
374.61	7.94
374.973	7.87
375.335	7.81
375.698	7.75
376.06	7.68
376.423	7.64
376.785	7.57
377.147	7.51
377.51	7.44
377.872	7.37
378.234	7.3
378.596	7.24
378.958	7.2
379.321	7.15
379.683	7.09
380.045	7.04
380.407	6.99
380.769	6.93
381.13	6.87
381.492	6.83
381.854	6.77
382.216	6.74
382.578	6.69
382.939	6.66
383.301	6.61
383.663	6.57
384.024	6.52
384.386	6.5
384.747	6.45
385.109	6.43
385.47	6.41
385.832	6.39
386.193	6.38
386.554	6.34
386.916	6.31
387.277	6.28
387.638	6.25
387.999	6.21
388.36	6.18
388.721	6.16
389.082	6.13
389.443	6.1
389.804	6.06
390.165	6.03
390.526	5.98
390.887	5.94
391.248	5.92
391.609	5.89
391.969	5.85
392.33	5.83
392.691	5.78
393.051	5.74
393.412	5.7
393.772	5.65
394.133	5.63
394.493	5.59
394.854	5.56
395.214	5.52
395.574	5.48
395.935	5.46
396.295	5.41
396.655	5.37
397.015	5.33
397.376	5.3
397.736	5.27
398.096	5.23
398.456	5.21
398.816	5.16
399.176	5.13
399.535	5.1
399.895	5.07
400.255	5.04
400.615	5.02
400.975	5
401.334	4.98
401.694	4.96
402.054	4.94
402.413	4.92
402.773	4.9
403.132	4.89
403.492	4.86
403.851	4.84
404.211	4.84
404.57	4.84
404.929	4.82
405.288	4.8
405.648	4.79
406.007	4.78
406.366	4.77
406.725	4.77
407.084	4.75
407.443	4.75
407.802	4.74
408.161	4.73
408.52	4.72
408.879	4.71
409.238	4.71
409.596	4.69
409.955	4.68
410.314	4.68
410.673	4.66
411.031	4.66
411.39	4.66
411.748	4.65
412.107	4.63
412.465	4.63
412.824	4.63
413.182	4.63
413.54	4.62
413.899	4.61
414.257	4.6
414.615	4.59
414.974	4.58
415.332	4.58
415.69	4.57
416.048	4.57
416.406	4.61
416.764	4.62
417.122	4.66
417.48	4.69
417.838	4.73
418.195	4.79
418.553	4.83
418.911	4.88
419.269	4.94
419.626	4.98
419.984	5.04
420.342	5.07
420.699	5.11
421.057	5.15
421.414	5.19
421.772	5.23
422.129	5.25
422.486	5.28
422.844	5.29
423.201	5.28
423.558	5.26
423.915	5.21
424.273	5.16
424.63	5.09
424.987	5.01
425.344	4.95
425.701	4.87
426.058	4.82
426.415	4.75
426.772	4.68
427.128	4.62
427.485	4.54
427.842	4.48
428.199	4.42
428.555	4.35
428.912	4.28
429.269	4.23
429.625	4.19
429.982	4.15
430.338	4.11
430.695	4.11
431.051	4.11
431.407	4.13
431.764	4.15
432.12	4.18
432.476	4.21
432.832	4.24
433.189	4.25
433.545	4.26
433.901	4.27
434.257	4.28
434.613	4.28
434.969	4.29
435.325	4.32
435.681	4.34
436.036	4.38
436.392	4.42
436.748	4.46
437.104	4.5
437.459	4.55
437.815	4.6
438.171	4.65
438.526	4.67
438.882	4.71
439.237	4.75
439.593	4.76
439.948	4.78
440.304	4.8
440.659	4.81
441.014	4.85
441.369	4.88
441.725	4.92
442.08	4.97
442.435	5.01
442.79	5.07
443.145	5.12
443.5	5.15
443.855	5.18
444.21	5.18
444.565	5.18
444.92	5.18
445.275	5.17
445.629	5.16
445.984	5.15
446.339	5.12
446.693	5.09
447.048	5.07
447.403	5.05
447.757	5.02
448.112	5
448.466	4.94
448.82	4.89
449.175	4.82
449.529	4.75
449.883	4.68
450.238	4.59
450.592	4.5
450.946	4.44
451.3	4.35
451.654	4.3
452.008	4.25
452.362	4.19
452.716	4.14
453.07	4.09
453.424	4.06
453.778	4.04
454.132	4.03
454.486	4.03
454.839	4.04
455.193	4.07
455.547	4.11
455.9	4.17
456.254	4.23
456.607	4.3
456.961	4.37
457.314	4.45
457.668	4.51
458.021	4.56
458.375	4.6
458.728	4.62
459.081	4.64
459.434	4.64
459.787	4.66
460.141	4.65
460.494	4.63
460.847	4.61
461.2	4.6
461.553	4.6
461.906	4.59
462.259	4.58
462.611	4.56
462.964	4.53
463.317	4.5
463.67	4.46
464.022	4.42
464.375	4.38
464.728	4.33
465.08	4.28
465.433	4.25
465.785	4.23
466.138	4.23
466.49	4.22
466.843	4.23
467.195	4.24
467.547	4.28
467.899	4.32
468.252	4.37
468.604	4.4
468.956	4.42
469.308	4.44
469.66	4.45
470.012	4.46
470.364	4.47
470.716	4.48
471.068	4.49
471.42	4.5
471.772	4.5
472.123	4.51
472.475	4.52
472.827	4.52
473.178	4.52
473.53	4.52
473.882	4.53
474.233	4.53
474.585	4.53
474.936	4.53
475.288	4.53
475.639	4.53
475.99	4.53
476.342	4.54
476.693	4.54
477.044	4.55
477.395	4.57
477.746	4.6
478.097	4.67
478.448	4.77
478.8	4.94
479.15	5.15
479.501	5.41
479.852	5.68
480.203	5.98
480.554	6.28
480.905	6.6
481.255	6.93
481.606	7.25
481.957	7.58
482.307	7.91
482.658	8.21
483.009	8.5
483.359	8.76
483.709	9.01
484.06	9.26
484.41	9.5
484.761	9.72
485.111	9.93
485.461	10.09
485.811	10.19
486.162	10.23
486.512	10.22
486.862	10.17
487.212	10.09
487.562	9.97
487.912	9.83
488.262	9.68
488.612	9.51
488.961	9.34
489.311	9.15
489.661	8.95
490.011	8.76
490.36	8.56
490.71	8.36
491.06	8.15
491.409	7.93
491.759	7.72
492.108	7.52
492.458	7.31
492.807	7.13
493.157	6.95
493.506	6.79
493.855	6.63
494.204	6.48
494.554	6.34
494.903	6.21
495.252	6.09
495.601	5.96
495.95	5.83
496.299	5.71
496.648	5.59
496.997	5.48
497.346	5.39
497.695	5.31
498.043	5.27
498.392	5.25
498.741	5.26
499.09	5.27
499.438	5.28
499.787	5.31
500.135	5.34
500.484	5.38
500.832	5.42
501.181	5.47
501.529	5.52
501.878	5.58
502.226	5.64
502.574	5.71
502.923	5.79
503.271	5.89
503.619	6.01
503.967	6.14
504.315	6.28
504.663	6.43
505.011	6.6
505.359	6.78
505.707	6.96
506.055	7.13
506.403	7.32
506.751	7.51
507.098	7.7
507.446	7.9
507.794	8.09
508.141	8.28
508.489	8.47
508.837	8.67
509.184	8.86
509.531	9.06
509.879	9.26
510.226	9.46
510.574	9.66
510.921	9.86
511.268	10.06
511.616	10.27
511.963	10.49
512.31	10.72
512.657	10.97
513.004	11.23
513.351	11.5
513.698	11.82
514.045	12.15
514.392	12.5
514.739	12.87
515.086	13.26
515.432	13.66
515.779	14.06
516.126	14.46
516.473	14.86
516.819	15.24
517.166	15.58
517.512	15.91
517.859	16.21
518.205	16.48
518.552	16.75
518.898	17
519.245	17.23
519.591	17.47
519.937	17.72
520.283	18.01
520.629	18.33
520.976	18.66
521.322	19.03
521.668	19.42
522.014	19.84
522.36	20.3
522.706	20.86
523.052	21.57
523.398	22.47
523.743	23.57
524.089	24.8
524.435	26.13
524.781	27.55
525.126	29.03
525.472	30.57
525.817	32.13
526.163	33.68
526.509	35.2
526.854	36.62
527.199	37.9
527.545	39.02
527.89	40.02
528.235	40.97
528.581	41.87
528.926	42.73
529.271	43.51
529.616	44.22
529.961	44.81
530.306	45.23
530.651	45.45
530.996	45.46
531.341	45.37
531.686	45.15
532.031	44.79
532.376	44.3
532.721	43.71
533.065	43.07
533.41	42.41
533.755	41.76
534.099	41.18
534.444	40.68
534.788	40.27
535.133	39.92
535.477	39.59
535.822	39.36
536.166	39.24
536.51	39.27
536.855	39.42
537.199	39.69
537.543	40.03
537.887	40.48
538.231	41.01
538.576	41.54
538.92	42.13
539.264	42.76
539.608	43.42
539.951	44.01
540.295	44.5
540.639	44.92
540.983	45.28
541.327	45.63
541.671	45.97
542.014	46.28
542.358	46.53
542.701	46.75
543.045	46.82
543.389	46.73
543.732	46.45
544.075	46.02
544.419	45.44
544.762	44.72
545.105	43.85
545.449	43
545.792	42.13
546.135	41.33
546.478	40.66
546.821	40.01
547.165	39.49
547.508	39.12
547.851	38.85
548.194	38.65
548.536	38.49
548.879	38.37
549.222	38.32
549.565	38.33
549.908	38.37
550.25	38.47
550.593	38.63
550.936	38.85
551.278	39.11
551.621	39.46
551.963	39.9
552.306	40.44
552.648	40.88
552.991	41.31
553.333	41.63
553.675	41.81
554.017	42.01
554.36	42.18
554.702	42.35
555.044	42.52
555.386	42.7
555.728	42.87
556.07	43.04
556.412	43.21
556.754	43.38
557.096	43.54
557.438	43.72
557.78	43.89
558.121	44.05
558.463	44.22
558.805	44.38
559.147	44.56
559.488	44.73
559.83	44.9
560.171	45.08
560.513	45.25
560.854	45.41
561.196	45.6
561.537	45.8
561.878	45.99
562.22	46.18
562.561	46.38
562.902	46.55
563.243	46.73
563.584	46.89
563.925	47.07
564.266	47.24
564.607	47.38
564.948	47.54
565.289	47.68
565.63	47.82
565.971	47.95
566.312	48.07
566.653	48.19
566.993	48.32
567.334	48.45
567.675	48.6
568.015	48.74
568.356	48.87
568.696	49
569.037	49.13
569.377	49.23
569.718	49.35
570.058	49.46
570.398	49.6
570.739	49.71
571.079	49.81
571.419	49.92
571.759	50.03
572.099	50.13
572.439	50.22
572.779	50.33
573.119	50.43
573.459	50.52
573.799	50.61
574.139	50.71
574.479	50.78
574.819	50.83
575.158	50.89
575.498	50.94
575.838	50.98
576.177	51.03
576.517	51.08
576.856	51.12
577.196	51.16
577.535	51.16
577.875	51.21
578.214	51.25
578.553	51.29
578.893	51.3
579.232	51.34
579.571	51.37
579.91	51.4
580.25	51.43
580.589	51.47
580.928	51.52
581.267	51.56
581.606	51.6
581.945	51.67
582.283	51.73
582.622	51.78
582.961	51.83
583.3	51.86
583.639	51.96
583.977	52.04
584.316	52.13
584.654	52.22
584.993	52.28
585.332	52.37
585.67	52.44
586.008	52.55
586.347	52.62
586.685	52.71
587.024	52.8
587.362	52.88
587.7	52.97
588.038	53.03
588.376	53.09
588.715	53.19
589.053	53.25
589.391	53.31
589.729	53.4
590.067	53.47
590.404	53.56
590.742	53.59
591.08	53.64
591.418	53.7
591.756	53.77
592.093	53.87
592.431	53.93
592.769	54.01
593.106	54.07
593.444	54.15
593.781	54.23
594.119	54.3
594.456	54.4
594.793	54.46
595.131	54.53
595.468	54.59
595.805	54.64
596.143	54.69
596.48	54.74
596.817	54.76
597.154	54.82
597.491	54.84
597.828	54.92
598.165	54.95
598.502	54.98
598.839	55.02
599.176	55.06
599.512	55.11
599.849	55.17
600.186	55.25
600.523	55.31
600.859	55.38
601.196	55.44
601.532	55.49
601.869	55.55
602.205	55.59
602.542	55.65
602.878	55.71
603.215	55.77
603.551	55.83
603.887	55.9
604.223	55.93
604.56	55.98
604.896	56
605.232	56.07
605.568	56.11
605.904	56.14
606.24	56.18
606.576	56.22
606.912	56.22
607.248	56.25
607.583	56.26
607.919	56.27
608.255	56.28
608.591	56.29
608.926	56.3
609.262	56.31
609.597	56.31
609.933	56.31
610.268	56.31
610.604	56.31
610.939	56.31
611.275	56.31
611.61	56.33
611.945	56.32
612.281	56.32
612.616	56.34
612.951	56.35
613.286	56.34
613.621	56.32
613.956	56.33
614.291	56.31
614.626	56.34
614.961	56.35
615.296	56.35
615.631	56.34
615.966	56.35
616.3	56.35
616.635	56.36
616.97	56.37
617.304	56.39
617.639	56.44
617.973	56.48
618.308	56.5
618.642	56.52
618.977	56.56
619.311	56.57
619.646	56.57
619.98	56.61
620.314	56.64
620.648	56.68
620.983	56.72
621.317	56.76
621.651	56.78
621.985	56.78
622.319	56.79
622.653	56.83
622.987	56.9
623.321	56.97
623.655	57.03
623.988	57.1
624.322	57.14
624.656	57.15
624.99	57.2
625.323	57.23
625.657	57.25
625.99	57.27
626.324	57.3
626.657	57.36
626.991	57.37
627.324	57.41
627.658	57.42
627.991	57.44
628.324	57.45
628.657	57.45
628.991	57.48
629.324	57.53
629.657	57.56
629.99	57.55
630.323	57.56
630.656	57.57
630.989	57.56
631.322	57.57
631.655	57.59
631.987	57.58
632.32	57.59
632.653	57.64
632.986	57.69
633.318	57.7
633.651	57.68
633.984	57.71
634.316	57.72
634.649	57.73
634.981	57.7
635.313	57.7
635.646	57.73
635.978	57.72
636.31	57.74
636.643	57.74
636.975	57.74
637.307	57.73
637.639	57.73
637.971	57.75
638.303	57.77
638.635	57.79
638.967	57.79
639.299	57.81
639.631	57.81
639.963	57.81
640.295	57.82
640.626	57.88
640.958	57.88
641.29	57.88
641.621	57.91
641.953	57.97
642.285	57.99
642.616	58
642.948	58.03
643.279	58.07
643.61	58.09
643.942	58.11
644.273	58.16
644.604	58.16
644.936	58.19
645.267	58.21
645.598	58.23
645.929	58.28
646.26	58.31
646.591	58.33
646.922	58.39
647.253	58.41
647.584	58.43
647.915	58.43
648.245	58.5
648.576	58.53
648.907	58.52
649.238	58.53
649.568	58.55
649.899	58.61
650.229	58.63
650.56	58.65
650.89	58.68
651.221	58.71
651.551	58.74
651.882	58.75
652.212	58.79
652.542	58.8
652.872	58.84
653.203	58.85
653.533	58.88
653.863	58.88
654.193	58.9
654.523	58.9
654.853	58.95
655.183	58.95
655.513	58.97
655.843	59.02
656.172	59.05
656.502	59.08
656.832	59.12
657.162	59.16
657.491	59.2
657.821	59.22
658.15	59.21
658.48	59.25
658.809	59.28
659.139	59.27
659.468	59.31
659.798	59.3
660.127	59.31
660.456	59.32
660.785	59.32
661.115	59.34
661.444	59.37
661.773	59.38
662.102	59.38
662.431	59.38
662.76	59.4
663.089	59.4
663.418	59.41
663.747	59.37
664.076	59.36
664.404	59.35
664.733	59.38
665.062	59.41
665.39	59.42
665.719	59.43
666.048	59.45
666.376	59.46
666.705	59.46
667.033	59.47
667.362	59.51
667.69	59.53
668.018	59.52
668.347	59.54
668.675	59.57
669.003	59.58
669.331	59.59
669.659	59.59
669.987	59.66
670.315	59.68
670.643	59.69
670.971	59.74
671.299	59.77
671.627	59.73
671.955	59.77
672.283	59.77
672.61	59.79
672.938	59.78
673.266	59.78
673.593	59.85
673.921	59.86
674.249	59.82
674.576	59.82
674.904	59.88
675.231	59.91
675.558	59.95
675.886	60
676.213	60.02
676.54	60.07
676.867	60.05
677.195	60.07
677.522	60.11
677.849	60.09
678.176	60.09
678.503	60.14
678.83	60.13
679.157	60.14
679.484	60.14
679.81	60.14
680.137	60.14
680.464	60.12
680.791	60.14
681.117	60.17
681.444	60.17
681.771	60.16
682.097	60.14
682.424	60.15
682.75	60.16
683.077	60.2
683.403	60.2
683.729	60.23
684.056	60.23
684.382	60.22
684.708	60.23
685.034	60.25
685.36	60.25
685.686	60.29
686.012	60.33
686.339	60.36
686.664	60.41
686.99	60.44
687.316	60.48
687.642	60.5
687.968	60.55
688.294	60.59
688.619	60.62
688.945	60.67
689.271	60.67
689.596	60.69
689.922	60.67
690.247	60.71
690.573	60.69
690.898	60.71
691.224	60.75
691.549	60.76
691.874	60.8
692.2	60.82
692.525	60.84
692.85	60.83
693.175	60.84
693.5	60.85
693.825	60.81
694.15	60.81
694.475	60.81
694.8	60.83
695.125	60.85
695.45	60.89
695.775	60.88
696.099	60.93
696.424	60.89
696.749	60.94
697.073	60.89
697.398	60.91
697.723	60.91
698.047	60.89
698.372	60.89
698.696	60.87
699.02	60.9
699.345	60.88
699.669	60.88
699.993	60.88
700.318	60.85
700.642	60.86
700.966	60.9
701.29	60.91
701.614	60.87
701.938	60.86
702.262	60.84
702.586	60.86
702.91	60.87
703.234	60.89
703.557	60.88
703.881	60.94
704.205	60.95
704.529	60.99
704.852	61.01
705.176	61.02
705.499	61.03
705.823	60.98
706.146	60.97
706.47	60.99
706.793	60.97
707.117	61.02
707.44	61.06
707.763	61.03
708.086	61.05
708.409	61.11
708.733	61.11
709.056	61.18
709.379	61.2
709.702	61.16
710.025	61.19
710.348	61.26
710.671	61.23
710.993	61.23
711.316	61.18
711.639	61.24
711.962	61.3
712.284	61.34
712.607	61.37
712.93	61.41
713.252	61.43
713.575	61.47
713.897	61.51
714.22	61.5
714.542	61.49
714.864	61.47
715.187	61.46
715.509	61.51
715.831	61.48
716.153	61.48
716.475	61.51
716.798	61.56
717.12	61.53
717.442	61.54
717.764	61.57
718.085	61.66
718.407	61.67
718.729	61.65
719.051	61.67
719.373	61.67
719.695	61.66
720.016	61.65
720.338	61.68
720.659	61.67
720.981	61.68
721.302	61.71
721.624	61.78
721.945	61.81
722.267	61.77
722.588	61.8
722.909	61.77
723.231	61.8
723.552	61.77
723.873	61.8
724.194	61.84
724.515	61.84
724.836	61.79
725.157	61.79
725.478	61.79
725.799	61.78
726.12	61.82
726.441	61.81
726.762	61.85
727.083	61.86
727.403	61.87
727.724	61.92
728.045	61.91
728.365	61.91
728.686	61.94
729.006	62.01
729.327	61.99
729.647	62.05
729.967	62.06
730.288	62.09
730.608	62.04
730.928	62.04
731.249	62.04
731.569	62.09
731.889	62.08
732.209	62.11
732.529	62.12
732.849	62.14
733.169	62.15
733.489	62.17
733.809	62.16
734.129	62.08
734.448	62.1
734.768	62.08
735.088	62.06
735.408	62.07
735.727	62.01
736.047	62.04
736.366	61.99
736.686	61.96
737.005	61.98
737.325	61.98
737.644	61.96
737.963	61.95
738.283	61.91
738.602	61.93
738.921	61.92
739.24	61.84
739.56	61.8
739.879	61.79
740.198	61.74
740.517	61.74
740.836	61.85
741.155	61.84
741.473	61.9
741.792	61.93
742.111	61.84
742.43	61.86
742.748	61.84
743.067	61.77
743.386	61.77
743.704	61.7
744.023	61.72
744.341	61.79
744.66	61.76
744.978	61.83
745.297	61.8
745.615	61.83
745.933	61.84
746.252	61.88
746.57	61.92
746.888	61.93
747.206	61.91
747.524	61.88
747.842	61.88
748.16	61.88
748.478	61.84
748.796	61.87
749.114	61.85
749.432	61.88
749.749	61.95
750.067	61.99
750.385	62
750.703	61.99
751.02	61.93
751.338	61.93
751.655	61.86
751.973	61.86
752.29	61.82
752.608	61.83
752.925	61.81
753.242	61.8
753.56	61.81
753.877	61.81
754.194	61.72
754.511	61.75
754.828	61.82
755.145	61.85
755.462	61.89
755.779	61.92
756.096	61.92
756.413	61.88
756.73	61.86
757.047	61.9
757.364	61.92
757.68	61.98
757.997	62.05
758.314	62.05
758.63	62.03
758.947	62.14
759.264	62.17
759.58	62.28
759.896	62.3
760.213	62.38
760.529	62.37
760.846	62.46
761.162	62.46
761.478	62.52
761.794	62.58
762.11	62.58
762.426	62.64
762.743	62.71
763.059	62.77
763.375	62.83
763.69	62.8
764.006	62.81
764.322	62.78
764.638	62.77
764.954	62.74
765.27	62.7
765.585	62.66
765.901	62.67
766.216	62.61
766.532	62.58
766.848	62.52
767.163	62.5
767.478	62.47
767.794	62.47
768.109	62.36
768.424	62.28
768.74	62.23
769.055	62.16
769.37	62.13
769.685	62.1
770	62
770.315	61.98
770.63	61.98
770.945	61.94
771.26	61.88
771.575	61.99
771.89	62.05
772.205	62.07
772.52	62.05
772.834	62.03
773.149	62.07
773.464	62.13
773.778	62.19
774.093	62.25
774.407	62.22
774.722	62.18
775.036	62.14
775.351	62.09
775.665	62.16
775.979	62.09
776.293	62.1
776.608	62.14
776.922	62.19
777.236	62.17
777.55	62.15
777.864	62.19
778.178	62.21
778.492	62.29
778.806	62.28
779.12	62.31
779.434	62.27
779.747	62.23
780.061	62.19
780.375	62.27
780.689	62.14
781.002	62.15
781.316	62.15
781.629	62.19
781.943	62.31
782.256	62.24
782.57	62.18
782.883	62.2
783.196	62.18
783.51	62.11
783.823	62.08
784.136	62.18
784.449	62.18
784.762	62.16
785.075	62.03
785.388	61.96
785.701	62
786.014	61.99
786.327	62.02
786.64	61.99
786.953	61.94
787.266	62.03
787.578	62.08
787.891	62.19
788.204	62.23
788.516	62.2
788.829	62.28
789.141	62.34
789.454	62.21
789.766	62.23
790.079	62.19
790.391	62.16
790.703	62.09
791.016	62.16
791.328	62.11
791.64	62.19
791.952	62.25
792.264	62.24
792.576	62.33
792.888	62.29
793.2	62.3
793.512	62.23
793.824	62.28
794.136	62.21
794.448	62.14
794.76	62.16
795.071	62.19
795.383	62.08
795.695	62.08
796.006	62.18
796.318	62.14
796.629	62.26
796.941	62.32
797.252	62.34
797.564	62.26
797.875	62.31
798.186	62.26
798.497	62.16
798.809	62.24
799.12	62.21
799.431	62.28
799.742	62.3
800.053	62.45
800.364	62.49
800.675	62.51
800.986	62.55
801.297	62.56
801.608	62.51
801.918	62.58
802.229	62.66
802.54	62.77
802.851	62.79
803.161	62.74
803.472	62.82
803.782	62.89
804.093	62.9
804.403	62.84
804.714	62.85
805.024	62.86
805.334	62.76
805.645	62.68
805.955	62.74
806.265	62.85
806.575	62.84
806.885	62.74
807.195	62.82
807.505	62.77
807.815	62.73
808.125	62.84
808.435	62.9
808.745	62.88
809.055	62.83
809.365	62.81
809.674	62.92
809.984	62.97
810.294	62.81
810.603	62.9
810.913	62.94
811.222	63.03
811.532	63.19
811.841	63.19
812.151	63.3
812.46	63.24
812.769	63.11
813.079	63.15
813.388	63.13
813.697	63.15
814.006	63.21
814.315	63.23
814.624	63.11
814.933	63.03
815.242	63.02
815.551	63.02
815.86	63.1
816.169	63.03
816.478	63.03
816.786	63.11
817.095	63.19
817.404	63.29
817.712	63.33
818.021	63.15
818.33	63.17
818.638	63.26
818.947	63.49
819.255	63.47
819.563	63.38
819.872	63.43
820.18	63.41
820.488	63.47
820.796	63.53
821.105	63.57
821.413	63.63
821.721	63.67
822.029	63.64
822.337	63.7
822.645	63.74
822.953	63.75
823.26	63.83
823.568	63.82
823.876	63.83
824.184	63.83
824.491	63.9
824.799	63.94
825.107	63.93
825.414	63.93
825.722	63.97
826.029	64.02
826.337	64.05
826.644	64.09
826.951	64.08
827.259	64.1
827.566	64.15
827.873	64.13
828.18	64.13
828.488	64.23
828.795	64.2
829.102	64.13
829.409	64.11
829.716	64.03
830.023	64.06
830.329	64.11
830.636	64.1
830.943	64.12
831.25	64.13
831.557	64.16
831.863	64.07
832.17	64.05
832.476	64.03
832.783	63.92
833.089	63.95
833.396	63.89
833.702	63.8
834.009	63.69
834.315	63.69
834.621	63.66
834.928	63.63
835.234	63.56
835.54	63.66
835.846	63.64
836.152	63.67
836.458	63.67
836.764	63.51
837.07	63.43
837.376	63.33
837.682	63.27
837.988	63.24
838.293	63.2
838.599	63.06
838.905	63.05
839.211	63.08
839.516	62.97
839.822	62.95
840.127	62.95
840.433	63.03
840.738	63
841.044	63.05
841.349	62.98
841.654	62.97
841.959	63.03
842.265	63.09
842.57	63.01
842.875	62.9
843.18	62.94
843.485	63.08
843.79	63.08
844.095	62.99
844.4	62.87
844.705	62.94
845.01	63.06
845.315	62.93
845.619	62.91
845.924	62.9
846.229	63.19
846.533	63.08
846.838	62.8
847.142	62.77
847.447	62.39
847.751	62.35
848.056	62.65
848.36	62.38
848.664	62.4
848.969	62.44
849.273	62.54
849.577	62.8
849.881	62.62
850.185	62.59
850.489	62.48
850.794	62.49
851.097	62.48
851.401	62.53
851.705	62.66
852.009	63.07
852.313	62.78
852.617	62.79
852.92	62.85
853.224	62.84
853.528	62.86
853.831	62.93
854.135	62.77
854.438	62.58
854.742	62.34
855.045	62.26
855.349	62.25
855.652	62.05
855.955	61.95
856.259	61.89
856.562	62.08
856.865	62.02
857.168	61.99
857.471	61.75
857.774	61.61
858.077	61.53
858.38	61.21
858.683	61.24
858.986	61
859.289	61.45
859.592	61.4
859.894	61.3
860.197	61.75
860.5	61.96
860.802	62.23
861.105	62.31
861.407	62.28
861.71	62.3
862.012	62.31
862.315	62.43
862.617	62.52
862.919	62.3
863.222	62.2
863.524	62.32
863.826	62.19
864.128	62.41
864.43	62.29
864.732	62.05
865.034	62.11
865.336	62.05
865.638	61.63
865.94	62.04
866.242	62.3
866.544	62.06
866.846	62.07
867.147	61.93
867.449	62.17
867.751	62.31
868.052	62.35
868.354	62.21
868.655	61.99
868.957	61.92
869.258	62.04
869.56	61.99
869.861	61.93
870.162	62.33
870.463	62.38
870.765	62.69
871.066	62.81
871.367	63.05
871.668	63.17
871.969	63.25
872.27	63.24
872.571	63.3
872.872	63.42
873.173	63.45
873.473	63.27
873.774	63.23
874.075	63.2
874.376	63.22
874.676	63.29
874.977	63.63
875.277	63.66
875.578	63.82
875.878	64.19
876.179	64.18
876.479	64.15
876.78	64.11
877.08	63.99
877.38	64.11
877.68	64.13
877.981	64.3
878.281	64.55
878.581	64.35
