Data from UWBM104549_Reflection_00011.txt Node
Date: Sun May 02 12:25:39 EDT 2021
User: vgr7
Spectrometer: USB2G7710
Scans to average: 10
Trigger mode: 4
Integration Time (sec): 1.000000E-1
Electric dark correction enabled: true
Boxcar width: 10
XAxis mode: Wavelengths
Number of Pixels in Spectrum: 2048
>>>>>Begin Spectral Data<<<<<
177.721	-854
178.105	-217.14
178.488	-39.38
178.871	-28.57
179.254	-13.71
179.636	-16.29
180.019	595
180.402	22.22
180.785	53.27
181.168	12.01
181.55	14.94
181.933	-25.54
182.316	-27.89
182.698	-48.26
183.081	-55.23
183.463	-91.13
183.846	4.36
184.228	0.36
184.611	-2.88
184.993	2.74
185.376	34.6
185.758	44.51
186.14	44.09
186.522	37.8
186.904	31.82
187.287	29.16
187.669	26.93
188.051	32.06
188.433	34.13
188.815	32.05
189.197	39.76
189.579	38.28
189.961	40.88
190.342	39.5
190.724	42.44
191.106	39.67
191.488	44.29
191.869	39.09
192.251	44.82
192.633	40.58
193.014	40.67
193.396	36.62
193.777	34.47
194.159	36.47
194.54	31.81
194.922	30.3
195.303	32.48
195.684	31.04
196.065	28.12
196.447	25.21
196.828	25.73
197.209	19.31
197.59	15.79
197.971	11.46
198.352	12.1
198.733	20.01
199.114	22.2
199.495	15.79
199.876	19.96
200.257	15.76
200.638	20.06
201.018	21.66
201.399	21.87
201.78	20.68
202.16	20.33
202.541	21.17
202.922	21.1
203.302	15.62
203.683	14.53
204.063	14.72
204.444	15.23
204.824	16.39
205.204	17.87
205.585	21.21
205.965	18.24
206.345	20.22
206.725	15.7
207.106	12.33
207.486	14.09
207.866	14.22
208.246	13.31
208.626	14.32
209.006	14.07
209.386	12.1
209.766	12.7
210.145	11.09
210.525	9.5
210.905	12.09
211.285	16.71
211.664	16.25
212.044	17.93
212.424	21.28
212.803	21.54
213.183	26.16
213.562	26.3
213.942	29.99
214.321	27.13
214.701	21.56
215.08	26.28
215.459	23.1
215.838	22.42
216.218	28.66
216.597	27.55
216.976	28.35
217.355	29.73
217.734	27.8
218.113	26.59
218.492	30.27
218.871	29.75
219.25	25.49
219.629	26.31
220.008	24.16
220.387	22.03
220.766	18.11
221.144	14.27
221.523	17.95
221.902	16.3
222.28	17.41
222.659	18.58
223.037	19.04
223.416	22.13
223.794	21.72
224.173	20.85
224.551	21.08
224.929	17
225.308	15.95
225.686	15.73
226.064	15.48
226.442	12.87
226.821	12.28
227.199	12.44
227.577	11.39
227.955	10.19
228.333	10.85
228.711	11.8
229.089	12.08
229.467	10.17
229.845	11.58
230.222	11.68
230.6	11.75
230.978	11.35
231.356	9.99
231.733	9.34
232.111	8.77
232.488	8.18
232.866	8.39
233.243	8.49
233.621	8.7
233.998	8.28
234.376	8.9
234.753	9.28
235.13	8.99
235.508	10.13
235.885	10.97
236.262	10.67
236.639	10.7
237.016	10.45
237.393	10.58
237.77	9.63
238.147	9.21
238.524	9.13
238.901	8.66
239.278	8.28
239.655	8.21
240.032	8.07
240.409	8.14
240.785	7.97
241.162	7.84
241.539	7.59
241.915	7.46
242.292	7.36
242.668	7.04
243.045	6.94
243.421	6.57
243.798	6.34
244.174	6.22
244.551	6.11
244.927	5.99
245.303	5.88
245.679	5.89
246.056	5.73
246.432	5.6
246.808	5.63
247.184	5.67
247.56	5.65
247.936	5.62
248.312	5.51
248.688	5.58
249.064	5.51
249.44	5.55
249.815	5.55
250.191	5.52
250.567	5.49
250.943	5.54
251.318	5.64
251.694	5.61
252.069	5.56
252.445	5.56
252.82	5.55
253.196	5.54
253.571	5.54
253.947	5.77
254.322	5.78
254.697	5.75
255.073	5.61
255.448	5.58
255.823	5.53
256.198	5.41
256.573	5.27
256.948	5.28
257.323	5.26
257.698	5.23
258.073	5.2
258.448	5.18
258.823	5.1
259.198	5.05
259.573	5.05
259.948	5.06
260.322	5.03
260.697	5.06
261.072	5.06
261.446	4.98
261.821	4.93
262.195	4.94
262.57	4.92
262.944	4.92
263.319	4.91
263.693	4.9
264.067	4.97
264.442	4.97
264.816	4.92
265.19	4.9
265.564	4.88
265.938	4.82
266.313	4.84
266.687	4.82
267.061	4.82
267.435	4.83
267.809	4.81
268.183	4.81
268.556	4.81
268.93	4.82
269.304	4.87
269.678	4.84
270.051	4.82
270.425	4.8
270.799	4.82
271.172	4.8
271.546	4.8
271.919	4.81
272.293	4.85
272.666	4.83
273.04	4.87
273.413	4.83
273.787	4.81
274.16	4.82
274.533	4.84
274.906	4.78
275.279	4.79
275.653	4.8
276.026	4.74
276.399	4.71
276.772	4.69
277.145	4.68
277.518	4.73
277.891	4.81
278.263	4.86
278.636	4.89
279.009	4.88
279.382	4.82
279.755	4.78
280.127	4.78
280.5	4.82
280.872	4.72
281.245	4.79
281.617	4.83
281.99	4.81
282.362	4.81
282.735	4.83
283.107	4.8
283.479	4.81
283.852	4.83
284.224	4.82
284.596	4.8
284.968	4.81
285.34	4.77
285.713	4.77
286.085	4.73
286.457	4.72
286.829	4.73
287.201	4.75
287.572	4.78
287.944	4.8
288.316	4.84
288.688	4.94
289.06	4.92
289.431	4.92
289.803	4.93
290.175	4.97
290.546	4.99
290.918	5.07
291.289	5.1
291.661	5.15
292.032	5.17
292.403	5.22
292.775	5.24
293.146	5.31
293.517	5.32
293.889	5.38
294.26	5.45
294.631	5.51
295.002	5.57
295.373	5.61
295.744	5.61
296.115	5.64
296.486	5.58
296.857	5.62
297.228	5.68
297.599	5.72
297.97	5.72
298.34	5.75
298.711	5.74
299.082	5.77
299.452	5.78
299.823	5.86
300.194	5.88
300.564	5.92
300.935	5.96
301.305	5.97
301.676	5.97
302.046	5.99
302.416	6.04
302.787	6.06
303.157	6.13
303.527	6.22
303.897	6.29
304.267	6.41
304.637	6.46
305.008	6.53
305.378	6.57
305.748	6.68
306.117	6.78
306.487	6.87
306.857	6.91
307.227	6.97
307.597	6.99
307.967	7.05
308.336	7.11
308.706	7.15
309.076	7.21
309.445	7.3
309.815	7.36
310.184	7.38
310.554	7.44
310.923	7.43
311.293	7.51
311.662	7.52
312.031	7.53
312.401	7.6
312.77	7.63
313.139	7.7
313.508	7.72
313.877	7.74
314.246	7.78
314.616	7.86
314.985	7.92
315.353	8.01
315.722	8.07
316.091	8.12
316.46	8.2
316.829	8.31
317.198	8.37
317.567	8.43
317.935	8.53
318.304	8.61
318.672	8.73
319.041	8.75
319.41	8.82
319.778	8.9
320.147	9
320.515	9.04
320.883	9.1
321.252	9.15
321.62	9.23
321.988	9.32
322.357	9.4
322.725	9.44
323.093	9.5
323.461	9.56
323.829	9.62
324.197	9.65
324.565	9.69
324.933	9.73
325.301	9.79
325.669	9.83
326.037	9.86
326.405	9.86
326.772	9.9
327.14	9.92
327.508	9.94
327.875	10
328.243	10.06
328.61	10.12
328.978	10.22
329.346	10.25
329.713	10.25
330.08	10.28
330.448	10.35
330.815	10.4
331.182	10.41
331.55	10.49
331.917	10.58
332.284	10.56
332.651	10.62
333.018	10.65
333.385	10.71
333.752	10.78
334.119	10.83
334.486	10.89
334.853	10.94
335.22	11
335.587	11
335.954	11.07
336.32	11.08
336.687	11.08
337.054	11.11
337.42	11.19
337.787	11.21
338.153	11.28
338.52	11.31
338.886	11.39
339.253	11.42
339.619	11.42
339.986	11.51
340.352	11.54
340.718	11.59
341.084	11.61
341.451	11.62
341.817	11.66
342.183	11.72
342.549	11.74
342.915	11.76
343.281	11.79
343.647	11.84
344.013	11.89
344.379	11.93
344.745	11.95
345.11	11.97
345.476	12.03
345.842	12.03
346.208	12.06
346.573	12.08
346.939	12.11
347.304	12.12
347.67	12.12
348.035	12.17
348.401	12.16
348.766	12.19
349.132	12.2
349.497	12.23
349.862	12.22
350.228	12.28
350.593	12.33
350.958	12.34
351.323	12.32
351.688	12.35
352.053	12.35
352.418	12.41
352.783	12.41
353.148	12.4
353.513	12.39
353.878	12.43
354.243	12.42
354.608	12.4
354.972	12.42
355.337	12.43
355.702	12.39
356.066	12.41
356.431	12.39
356.795	12.4
357.16	12.39
357.524	12.36
357.889	12.34
358.253	12.34
358.618	12.33
358.982	12.33
359.346	12.32
359.71	12.3
360.075	12.28
360.439	12.27
360.803	12.25
361.167	12.23
361.531	12.19
361.895	12.18
362.259	12.16
362.623	12.16
362.987	12.14
363.351	12.14
363.714	12.12
364.078	12.09
364.442	12.06
364.806	12.04
365.169	12.04
365.533	12.01
365.896	11.95
366.26	11.91
366.623	11.88
366.987	11.84
367.35	11.8
367.714	11.77
368.077	11.74
368.44	11.71
368.803	11.69
369.167	11.65
369.53	11.63
369.893	11.6
370.256	11.54
370.619	11.49
370.982	11.42
371.345	11.36
371.708	11.33
372.071	11.3
372.434	11.23
372.797	11.15
373.159	11.12
373.522	11.07
373.885	11.02
374.247	10.96
374.61	10.89
374.973	10.82
375.335	10.74
375.698	10.65
376.06	10.59
376.423	10.54
376.785	10.47
377.147	10.39
377.51	10.33
377.872	10.28
378.234	10.2
378.596	10.16
378.958	10.11
379.321	10.03
379.683	9.96
380.045	9.89
380.407	9.84
380.769	9.75
381.13	9.69
381.492	9.61
381.854	9.53
382.216	9.49
382.578	9.42
382.939	9.35
383.301	9.29
383.663	9.23
384.024	9.17
384.386	9.12
384.747	9.05
385.109	9.01
385.47	8.93
385.832	8.89
386.193	8.84
386.554	8.78
386.916	8.75
387.277	8.7
387.638	8.65
387.999	8.59
388.36	8.56
388.721	8.5
389.082	8.47
389.443	8.41
389.804	8.35
390.165	8.3
390.526	8.26
390.887	8.21
391.248	8.16
391.609	8.11
391.969	8.06
392.33	8.02
392.691	7.96
393.051	7.92
393.412	7.88
393.772	7.82
394.133	7.77
394.493	7.71
394.854	7.64
395.214	7.59
395.574	7.53
395.935	7.48
396.295	7.41
396.655	7.35
397.015	7.3
397.376	7.24
397.736	7.17
398.096	7.09
398.456	7.03
398.816	6.98
399.176	6.92
399.535	6.88
399.895	6.82
400.255	6.77
400.615	6.72
400.975	6.67
401.334	6.62
401.694	6.57
402.054	6.52
402.413	6.5
402.773	6.47
403.132	6.43
403.492	6.39
403.851	6.36
404.211	6.34
404.57	6.31
404.929	6.28
405.288	6.26
405.648	6.24
406.007	6.22
406.366	6.2
406.725	6.17
407.084	6.13
407.443	6.12
407.802	6.09
408.161	6.07
408.52	6.05
408.879	6.04
409.238	6.03
409.596	6
409.955	5.97
410.314	5.93
410.673	5.92
411.031	5.91
411.39	5.89
411.748	5.87
412.107	5.85
412.465	5.84
412.824	5.82
413.182	5.82
413.54	5.81
413.899	5.78
414.257	5.76
414.615	5.75
414.974	5.73
415.332	5.72
415.69	5.7
416.048	5.68
416.406	5.66
416.764	5.64
417.122	5.63
417.48	5.62
417.838	5.61
418.195	5.59
418.553	5.57
418.911	5.57
419.269	5.55
419.626	5.53
419.984	5.52
420.342	5.5
420.699	5.48
421.057	5.46
421.414	5.44
421.772	5.42
422.129	5.41
422.486	5.39
422.844	5.37
423.201	5.35
423.558	5.33
423.915	5.31
424.273	5.29
424.63	5.27
424.987	5.25
425.344	5.22
425.701	5.21
426.058	5.19
426.415	5.16
426.772	5.14
427.128	5.11
427.485	5.09
427.842	5.07
428.199	5.05
428.555	5.04
428.912	5.02
429.269	5
429.625	4.98
429.982	4.97
430.338	4.96
430.695	4.95
431.051	4.94
431.407	4.93
431.764	4.93
432.12	4.92
432.476	4.92
432.832	4.92
433.189	4.92
433.545	4.92
433.901	4.92
434.257	4.93
434.613	4.92
434.969	4.93
435.325	4.93
435.681	4.94
436.036	4.94
436.392	4.95
436.748	4.97
437.104	4.98
437.459	4.98
437.815	4.98
438.171	4.99
438.526	4.99
438.882	5
439.237	5.01
439.593	5.01
439.948	5.02
440.304	5.02
440.659	5.02
441.014	5.02
441.369	5.03
441.725	5.03
442.08	5.04
442.435	5.04
442.79	5.04
443.145	5.04
443.5	5.04
443.855	5.03
444.21	5.02
444.565	5.01
444.92	5.01
445.275	5.01
445.629	5
445.984	4.99
446.339	4.98
446.693	4.97
447.048	4.96
447.403	4.95
447.757	4.94
448.112	4.93
448.466	4.91
448.82	4.91
449.175	4.89
449.529	4.87
449.883	4.86
450.238	4.84
450.592	4.82
450.946	4.81
451.3	4.8
451.654	4.78
452.008	4.76
452.362	4.75
452.716	4.74
453.07	4.73
453.424	4.72
453.778	4.71
454.132	4.7
454.486	4.7
454.839	4.69
455.193	4.69
455.547	4.69
455.9	4.69
456.254	4.69
456.607	4.69
456.961	4.7
457.314	4.71
457.668	4.71
458.021	4.72
458.375	4.72
458.728	4.73
459.081	4.73
459.434	4.74
459.787	4.74
460.141	4.74
460.494	4.74
460.847	4.75
461.2	4.75
461.553	4.76
461.906	4.76
462.259	4.78
462.611	4.79
462.964	4.79
463.317	4.8
463.67	4.8
464.022	4.81
464.375	4.82
464.728	4.83
465.08	4.85
465.433	4.86
465.785	4.88
466.138	4.89
466.49	4.9
466.843	4.92
467.195	4.94
467.547	4.96
467.899	4.98
468.252	5
468.604	5.01
468.956	5.03
469.308	5.05
469.66	5.06
470.012	5.07
470.364	5.09
470.716	5.11
471.068	5.14
471.42	5.16
471.772	5.17
472.123	5.19
472.475	5.21
472.827	5.23
473.178	5.24
473.53	5.26
473.882	5.27
474.233	5.29
474.585	5.3
474.936	5.32
475.288	5.32
475.639	5.34
475.99	5.35
476.342	5.36
476.693	5.37
477.044	5.36
477.395	5.37
477.746	5.37
478.097	5.37
478.448	5.39
478.8	5.47
479.15	5.6
479.501	5.75
479.852	5.94
480.203	6.13
480.554	6.32
480.905	6.52
481.255	6.72
481.606	6.91
481.957	7.11
482.307	7.29
482.658	7.45
483.009	7.58
483.359	7.69
483.709	7.79
484.06	7.88
484.41	7.98
484.761	8.06
485.111	8.14
485.461	8.22
485.811	8.29
486.162	8.31
486.512	8.3
486.862	8.24
487.212	8.16
487.562	8.06
487.912	7.94
488.262	7.81
488.612	7.67
488.961	7.51
489.311	7.35
489.661	7.19
490.011	7.02
490.36	6.86
490.71	6.69
491.06	6.52
491.409	6.35
491.759	6.22
492.108	6.11
492.458	6.02
492.807	5.94
493.157	5.86
493.506	5.79
493.855	5.72
494.204	5.66
494.554	5.6
494.903	5.55
495.252	5.51
495.601	5.48
495.95	5.45
496.299	5.44
496.648	5.42
496.997	5.42
497.346	5.44
497.695	5.49
498.043	5.57
498.392	5.68
498.741	5.8
499.09	5.89
499.438	5.97
499.787	6.04
500.135	6.11
500.484	6.18
500.832	6.27
501.181	6.35
501.529	6.44
501.878	6.54
502.226	6.63
502.574	6.73
502.923	6.84
503.271	6.95
503.619	7.07
503.967	7.2
504.315	7.33
504.663	7.46
505.011	7.6
505.359	7.74
505.707	7.89
506.055	8.04
506.403	8.19
506.751	8.35
507.098	8.51
507.446	8.68
507.794	8.84
508.141	9.01
508.489	9.18
508.837	9.36
509.184	9.54
509.531	9.72
509.879	9.9
510.226	10.08
510.574	10.26
510.921	10.45
511.268	10.63
511.616	10.82
511.963	11.02
512.31	11.23
512.657	11.44
513.004	11.67
513.351	11.92
513.698	12.17
514.045	12.42
514.392	12.68
514.739	12.95
515.086	13.22
515.432	13.49
515.779	13.76
516.126	14.01
516.473	14.26
516.819	14.5
517.166	14.74
517.512	14.98
517.859	15.2
518.205	15.42
518.552	15.64
518.898	15.85
519.245	16.07
519.591	16.28
519.937	16.51
520.283	16.73
520.629	16.97
520.976	17.21
521.322	17.48
521.668	17.74
522.014	18
522.36	18.3
522.706	18.6
523.052	18.99
523.398	19.5
523.743	20.14
524.089	20.86
524.435	21.64
524.781	22.41
525.126	23.19
525.472	23.97
525.817	24.72
526.163	25.42
526.509	26.07
526.854	26.64
527.199	27.11
527.545	27.49
527.89	27.81
528.235	28.13
528.581	28.44
528.926	28.74
529.271	29.04
529.616	29.32
529.961	29.6
530.306	29.84
530.651	29.97
530.996	29.98
531.341	29.92
531.686	29.77
532.031	29.53
532.376	29.2
532.721	28.8
533.065	28.4
533.41	28.1
533.755	27.8
534.099	27.59
534.444	27.52
534.788	27.53
535.133	27.6
535.477	27.67
535.822	27.78
536.166	27.92
536.51	28.1
536.855	28.31
537.199	28.57
537.543	28.86
537.887	29.2
538.231	29.59
538.576	29.97
538.92	30.39
539.264	30.85
539.608	31.34
539.951	31.82
540.295	32.24
540.639	32.53
540.983	32.79
541.327	32.98
541.671	33.17
542.014	33.41
542.358	33.63
542.701	33.86
543.045	34.08
543.389	34.26
543.732	34.45
544.075	34.62
544.419	34.78
544.762	34.93
545.105	35.03
545.449	35.09
545.792	35.14
546.135	35.19
546.478	35.25
546.821	35.38
547.165	35.57
547.508	35.83
547.851	36.17
548.194	36.56
548.536	36.99
548.879	37.29
549.222	37.52
549.565	37.75
549.908	37.98
550.25	38.21
550.593	38.46
550.936	38.7
551.278	38.94
551.621	39.16
551.963	39.4
552.306	39.64
552.648	39.89
552.991	40.11
553.333	40.32
553.675	40.54
554.017	40.76
554.36	40.98
554.702	41.18
555.044	41.39
555.386	41.6
555.728	41.8
556.07	42.02
556.412	42.2
556.754	42.42
557.096	42.62
557.438	42.81
557.78	43.01
558.121	43.21
558.463	43.41
558.805	43.61
559.147	43.8
559.488	43.98
559.83	44.16
560.171	44.35
560.513	44.54
560.854	44.73
561.196	44.94
561.537	45.13
561.878	45.32
562.22	45.51
562.561	45.71
562.902	45.91
563.243	46.09
563.584	46.28
563.925	46.46
564.266	46.6
564.607	46.76
564.948	46.92
565.289	47.07
565.63	47.23
565.971	47.38
566.312	47.53
566.653	47.68
566.993	47.83
567.334	47.97
567.675	48.14
568.015	48.28
568.356	48.41
568.696	48.56
569.037	48.71
569.377	48.85
569.718	48.98
570.058	49.1
570.398	49.21
570.739	49.32
571.079	49.44
571.419	49.58
571.759	49.71
572.099	49.81
572.439	49.92
572.779	50.02
573.119	50.13
573.459	50.2
573.799	50.3
574.139	50.39
574.479	50.47
574.819	50.53
575.158	50.62
575.498	50.7
575.838	50.76
576.177	50.81
576.517	50.86
576.856	50.91
577.196	50.97
577.535	51.03
577.875	51.11
578.214	51.18
578.553	51.24
578.893	51.28
579.232	51.36
579.571	51.41
579.91	51.48
580.25	51.54
580.589	51.6
580.928	51.66
581.267	51.73
581.606	51.81
581.945	51.86
582.283	51.92
582.622	51.97
582.961	52.04
583.3	52.13
583.639	52.22
583.977	52.3
584.316	52.4
584.654	52.49
584.993	52.56
585.332	52.63
585.67	52.73
586.008	52.83
586.347	52.92
586.685	53.01
587.024	53.07
587.362	53.17
587.7	53.25
588.038	53.31
588.376	53.41
588.715	53.49
589.053	53.55
589.391	53.62
589.729	53.7
590.067	53.76
590.404	53.82
590.742	53.87
591.08	53.95
591.418	54
591.756	54.09
592.093	54.14
592.431	54.21
592.769	54.27
593.106	54.31
593.444	54.36
593.781	54.44
594.119	54.53
594.456	54.58
594.793	54.65
595.131	54.72
595.468	54.72
595.805	54.75
596.143	54.8
596.48	54.86
596.817	54.91
597.154	54.93
597.491	54.97
597.828	55
598.165	55
598.502	55.03
598.839	55.03
599.176	55.06
599.512	55.08
599.849	55.11
600.186	55.18
600.523	55.22
600.859	55.29
601.196	55.31
601.532	55.36
601.869	55.38
602.205	55.43
602.542	55.49
602.878	55.55
603.215	55.61
603.551	55.63
603.887	55.66
604.223	55.69
604.56	55.72
604.896	55.78
605.232	55.85
605.568	55.9
605.904	55.98
606.24	56.03
606.576	56.09
606.912	56.12
607.248	56.13
607.583	56.17
607.919	56.19
608.255	56.21
608.591	56.2
608.926	56.23
609.262	56.24
609.597	56.27
609.933	56.28
610.268	56.3
610.604	56.31
610.939	56.32
611.275	56.36
611.61	56.4
611.945	56.4
612.281	56.42
612.616	56.44
612.951	56.42
613.286	56.44
613.621	56.46
613.956	56.47
614.291	56.5
614.626	56.53
614.961	56.51
615.296	56.54
615.631	56.59
615.966	56.64
616.3	56.67
616.635	56.69
616.97	56.72
617.304	56.76
617.639	56.79
617.973	56.82
618.308	56.86
618.642	56.9
618.977	56.91
619.311	56.9
619.646	56.93
619.98	56.97
620.314	56.96
620.648	57.03
620.983	57.07
621.317	57.06
621.651	57.07
621.985	57.12
622.319	57.14
622.653	57.17
622.987	57.19
623.321	57.21
623.655	57.25
623.988	57.31
624.322	57.32
624.656	57.38
624.99	57.42
625.323	57.46
625.657	57.49
625.99	57.53
626.324	57.58
626.657	57.57
626.991	57.59
627.324	57.65
627.658	57.62
627.991	57.64
628.324	57.67
628.657	57.68
628.991	57.69
629.324	57.73
629.657	57.73
629.99	57.74
630.323	57.76
630.656	57.76
630.989	57.76
631.322	57.8
631.655	57.79
631.987	57.85
632.32	57.84
632.653	57.87
632.986	57.87
633.318	57.89
633.651	57.92
633.984	57.96
634.316	57.94
634.649	57.94
634.981	57.94
635.313	57.98
635.646	58
635.978	58.03
636.31	58.02
636.643	58.05
636.975	58.07
637.307	58.09
637.639	58.13
637.971	58.14
638.303	58.15
638.635	58.21
638.967	58.19
639.299	58.25
639.631	58.23
639.963	58.25
640.295	58.3
640.626	58.35
640.958	58.35
641.29	58.4
641.621	58.42
641.953	58.5
642.285	58.5
642.616	58.56
642.948	58.57
643.279	58.59
643.61	58.61
643.942	58.65
644.273	58.69
644.604	58.72
644.936	58.75
645.267	58.74
645.598	58.75
645.929	58.8
646.26	58.81
646.591	58.82
646.922	58.89
647.253	58.9
647.584	58.9
647.915	58.92
648.245	58.92
648.576	58.96
648.907	58.97
649.238	59
649.568	58.99
649.899	59.01
650.229	59.07
650.56	59.12
650.89	59.12
651.221	59.16
651.551	59.17
651.882	59.17
652.212	59.23
652.542	59.22
652.872	59.2
653.203	59.24
653.533	59.27
653.863	59.27
654.193	59.33
654.523	59.39
654.853	59.4
655.183	59.42
655.513	59.46
655.843	59.49
656.172	59.51
656.502	59.57
656.832	59.62
657.162	59.63
657.491	59.64
657.821	59.64
658.15	59.62
658.48	59.63
658.809	59.66
659.139	59.66
659.468	59.69
659.798	59.68
660.127	59.69
660.456	59.72
660.785	59.69
661.115	59.67
661.444	59.66
661.773	59.68
662.102	59.7
662.431	59.69
662.76	59.67
663.089	59.68
663.418	59.69
663.747	59.64
664.076	59.65
664.404	59.65
664.733	59.68
665.062	59.71
665.39	59.75
665.719	59.75
666.048	59.78
666.376	59.79
666.705	59.87
667.033	59.85
667.362	59.87
667.69	59.9
668.018	59.95
668.347	59.94
668.675	59.94
669.003	59.99
669.331	59.98
669.659	60.01
669.987	59.98
670.315	59.94
670.643	59.98
670.971	60.02
671.299	60.05
671.627	60.05
671.955	60.03
672.283	60.04
672.61	60.06
672.938	60.08
673.266	60.11
673.593	60.09
673.921	60.12
674.249	60.15
674.576	60.19
674.904	60.17
675.231	60.23
675.558	60.24
675.886	60.27
676.213	60.28
676.54	60.32
676.867	60.39
677.195	60.44
677.522	60.48
677.849	60.46
678.176	60.45
678.503	60.49
678.83	60.54
679.157	60.52
679.484	60.54
679.81	60.52
680.137	60.54
680.464	60.59
680.791	60.62
681.117	60.6
681.444	60.62
681.771	60.61
682.097	60.65
682.424	60.68
682.75	60.7
683.077	60.76
683.403	60.78
683.729	60.79
684.056	60.84
684.382	60.86
684.708	60.91
685.034	60.97
685.36	60.99
685.686	61.05
686.012	61.1
686.339	61.11
686.664	61.17
686.99	61.18
687.316	61.19
687.642	61.19
687.968	61.26
688.294	61.26
688.619	61.31
688.945	61.31
689.271	61.38
689.596	61.39
689.922	61.42
690.247	61.46
690.573	61.5
690.898	61.52
691.224	61.51
691.549	61.52
691.874	61.53
692.2	61.57
692.525	61.57
692.85	61.58
693.175	61.58
693.5	61.61
693.825	61.63
694.15	61.64
694.475	61.68
694.8	61.71
695.125	61.73
695.45	61.71
695.775	61.69
696.099	61.62
696.424	61.64
696.749	61.63
697.073	61.57
697.398	61.56
697.723	61.57
698.047	61.56
698.372	61.57
698.696	61.59
699.02	61.56
699.345	61.57
699.669	61.57
699.993	61.59
700.318	61.58
700.642	61.58
700.966	61.57
701.29	61.53
701.614	61.51
701.938	61.52
702.262	61.53
702.586	61.58
702.91	61.62
703.234	61.56
703.557	61.55
703.881	61.6
704.205	61.61
704.529	61.62
704.852	61.68
705.176	61.66
705.499	61.58
705.823	61.61
706.146	61.6
706.47	61.56
706.793	61.62
707.117	61.63
707.44	61.62
707.763	61.63
708.086	61.71
708.409	61.71
708.733	61.73
709.056	61.75
709.379	61.74
709.702	61.76
710.025	61.81
710.348	61.85
710.671	61.87
710.993	61.88
711.316	61.88
711.639	61.83
711.962	61.87
712.284	61.97
712.607	61.96
712.93	61.97
713.252	62.03
713.575	62.01
713.897	62.07
714.22	62.09
714.542	62.13
714.864	62.12
715.187	62.14
715.509	62.15
715.831	62.21
716.153	62.26
716.475	62.24
716.798	62.25
717.12	62.23
717.442	62.2
717.764	62.21
718.085	62.17
718.407	62.23
718.729	62.21
719.051	62.17
719.373	62.25
719.695	62.24
720.016	62.25
720.338	62.26
720.659	62.17
720.981	62.19
721.302	62.14
721.624	62.12
721.945	62.12
722.267	62.15
722.588	62.13
722.909	62.11
723.231	62.12
723.552	62.12
723.873	62.21
724.194	62.24
724.515	62.28
724.836	62.3
725.157	62.32
725.478	62.31
725.799	62.33
726.12	62.29
726.441	62.32
726.762	62.32
727.083	62.31
727.403	62.42
727.724	62.42
728.045	62.46
728.365	62.48
728.686	62.51
729.006	62.5
729.327	62.48
729.647	62.48
729.967	62.49
730.288	62.52
730.608	62.53
730.928	62.52
731.249	62.48
731.569	62.49
731.889	62.44
732.209	62.5
732.529	62.53
732.849	62.46
733.169	62.49
733.489	62.46
733.809	62.41
734.129	62.31
734.448	62.35
734.768	62.36
735.088	62.38
735.408	62.35
735.727	62.35
736.047	62.36
736.366	62.36
736.686	62.35
737.005	62.35
737.325	62.29
737.644	62.32
737.963	62.31
738.283	62.26
738.602	62.29
738.921	62.23
739.24	62.14
739.56	62.18
739.879	62.18
740.198	62.23
740.517	62.33
740.836	62.41
741.155	62.34
741.473	62.34
741.792	62.34
742.111	62.36
742.43	62.33
742.748	62.33
743.067	62.26
743.386	62.24
743.704	62.18
744.023	62.18
744.341	62.16
744.66	62.19
744.978	62.22
745.297	62.21
745.615	62.25
745.933	62.32
746.252	62.3
746.57	62.25
746.888	62.19
747.206	62.1
747.524	62.16
747.842	62.21
748.16	62.21
748.478	62.13
748.796	62.13
749.114	62.11
749.432	62.06
749.749	62.13
750.067	62.19
750.385	62.28
750.703	62.25
751.02	62.21
751.338	62.24
751.655	62.32
751.973	62.31
752.29	62.29
752.608	62.29
752.925	62.37
753.242	62.38
753.56	62.4
753.877	62.38
754.194	62.27
754.511	62.19
754.828	62.2
755.145	62.29
755.462	62.34
755.779	62.44
756.096	62.54
756.413	62.6
756.73	62.61
757.047	62.61
757.364	62.81
757.68	62.95
757.997	62.95
758.314	62.94
758.63	63.02
758.947	63.18
759.264	63.2
759.58	63.2
759.896	63.31
760.213	63.43
760.529	63.58
760.846	63.74
761.162	63.86
761.478	63.93
761.794	63.89
762.11	63.87
762.426	63.97
762.743	63.92
763.059	63.91
763.375	63.92
763.69	63.89
764.006	63.86
764.322	63.79
764.638	63.79
764.954	63.77
765.27	63.72
765.585	63.65
765.901	63.71
766.216	63.74
766.532	63.69
766.848	63.66
767.163	63.62
767.478	63.47
767.794	63.42
768.109	63.32
768.424	63.39
768.74	63.35
769.055	63.16
769.37	63.15
769.685	63.15
770	63.06
770.315	63.04
770.63	62.98
770.945	63.04
771.26	63.08
771.575	63.15
771.89	63.09
772.205	63
772.52	62.93
772.834	62.82
773.149	62.75
773.464	62.73
773.778	62.72
774.093	62.78
774.407	62.79
774.722	62.8
775.036	62.59
775.351	62.65
775.665	62.62
775.979	62.66
776.293	62.66
776.608	62.68
776.922	62.69
777.236	62.7
777.55	62.62
777.864	62.58
778.178	62.57
778.492	62.7
778.806	62.75
779.12	62.72
779.434	62.86
779.747	63
780.061	63
780.375	62.98
780.689	63.01
781.002	63.01
781.316	63.13
781.629	63.26
781.943	63.35
782.256	63.42
782.57	63.47
782.883	63.4
783.196	63.46
783.51	63.41
783.823	63.32
784.136	63.45
784.449	63.46
784.762	63.49
785.075	63.55
785.388	63.65
785.701	63.58
786.014	63.47
786.327	63.49
786.64	63.51
786.953	63.56
787.266	63.57
787.578	63.56
787.891	63.49
788.204	63.45
788.516	63.34
788.829	63.49
789.141	63.44
789.454	63.36
789.766	63.46
790.079	63.55
790.391	63.56
790.703	63.61
791.016	63.65
791.328	63.6
791.64	63.49
791.952	63.52
792.264	63.71
792.576	63.72
792.888	63.61
793.2	63.63
793.512	63.66
793.824	63.58
794.136	63.68
794.448	63.72
794.76	63.89
795.071	63.98
795.383	63.98
795.695	64.08
796.006	64.19
796.318	64.06
796.629	64.11
796.941	64.17
797.252	64.05
797.564	64.05
797.875	64.01
798.186	64.12
798.497	64.15
798.809	63.96
799.12	64.12
799.431	64.13
799.742	64.05
800.053	64.05
800.364	64.08
800.675	64.05
800.986	64.01
801.297	64.01
801.608	64.04
801.918	64.03
802.229	64.05
802.54	64.05
802.851	64.05
803.161	64.05
803.472	64.13
803.782	64.18
804.093	64.17
804.403	64.17
804.714	64.12
805.024	63.98
805.334	64.25
805.645	64.24
805.955	64.34
806.265	64.6
806.575	64.55
806.885	64.76
807.195	64.66
807.505	64.68
807.815	64.66
808.125	64.53
808.435	64.65
808.745	64.48
809.055	64.49
809.365	64.62
809.674	64.61
809.984	64.47
810.294	64.52
810.603	64.6
810.913	64.75
811.222	64.8
811.532	64.85
811.841	64.81
812.151	64.72
812.46	64.83
812.769	64.62
813.079	64.47
813.388	64.4
813.697	64.45
814.006	64.5
814.315	64.58
814.624	64.77
814.933	64.73
815.242	65.07
815.551	65.28
815.86	65.32
816.169	65.41
816.478	65.52
816.786	65.38
817.095	65.31
817.404	65.32
817.712	65.28
818.021	65.19
818.33	65.3
818.638	65.34
818.947	65.26
819.255	65.51
819.563	65.83
819.872	65.77
820.18	65.82
820.488	65.79
820.796	65.93
821.105	65.93
821.413	65.91
821.721	65.78
822.029	65.76
822.337	65.83
822.645	65.92
822.953	65.99
823.26	66.04
823.568	66.06
823.876	66.06
824.184	66.06
824.491	66.06
824.799	66.04
825.107	66.09
825.414	66.1
825.722	66.07
826.029	66.04
826.337	66.08
826.644	66.1
826.951	66.13
827.259	66.01
827.566	66
827.873	65.98
828.18	66.01
828.488	65.99
828.795	65.9
829.102	65.76
829.409	65.66
829.716	65.57
830.023	65.49
830.329	65.44
830.636	65.39
830.943	65.38
831.25	65.4
831.557	65.36
831.863	65.36
832.17	65.36
832.476	65.36
832.783	65.37
833.089	65.37
833.396	65.46
833.702	65.51
834.009	65.43
834.315	65.5
834.621	65.56
834.928	65.6
835.234	65.66
835.54	65.63
835.846	65.7
836.152	65.74
836.458	65.82
836.764	65.9
837.07	66.05
837.376	66.11
837.682	66.06
837.988	66.04
838.293	66.04
838.599	66.14
838.905	66.1
839.211	66.12
839.516	66.12
839.822	65.92
840.127	66
840.433	66.23
840.738	66.09
841.044	66.26
841.349	66.33
841.654	66.32
841.959	66.46
842.265	66.45
842.57	66.55
842.875	66.54
843.18	66.31
843.485	66.14
843.79	66.18
844.095	66.09
844.4	66.25
844.705	66.33
845.01	66.05
845.315	66.21
845.619	66.26
845.924	66.15
846.229	66.43
846.533	66.34
846.838	66.19
847.142	66.35
847.447	66.12
847.751	66.08
848.056	66.09
848.36	66.06
848.664	66.14
848.969	66.37
849.273	66.53
849.577	66.94
849.881	67.31
850.185	67.38
850.489	67.64
850.794	67.25
851.097	67.12
851.401	67.28
851.705	66.86
852.009	66.92
852.313	66.71
852.617	66.66
852.92	66.84
853.224	66.93
853.528	67.22
853.831	67.12
854.135	67.35
854.438	67.39
854.742	67.6
855.045	67.49
855.349	67.19
855.652	67.16
855.955	67.16
856.259	67.11
856.562	67.47
856.865	67.26
857.168	67.38
857.471	67.53
857.774	67.56
858.077	67.61
858.38	67.42
858.683	67.77
858.986	67.77
859.289	67.89
859.592	68.1
859.894	67.98
860.197	68.11
860.5	67.69
860.802	68.06
861.105	68.19
861.407	68.26
861.71	68.08
862.012	68.18
862.315	68.15
862.617	67.87
862.919	68.12
863.222	68.22
863.524	68.19
863.826	68.78
864.128	68.54
864.43	68.66
864.732	68.58
865.034	68.59
865.336	68.26
865.638	68.08
865.94	67.61
866.242	67.37
866.544	67.63
866.846	68.01
867.147	67.22
867.449	66.99
867.751	66.41
868.052	67.05
868.354	67.31
868.655	67.53
868.957	67.85
869.258	67.47
869.56	68.06
869.861	68.34
870.162	67.62
870.463	67.95
870.765	68.03
871.066	68.11
871.367	68.06
871.668	68.62
871.969	68.65
872.27	69.27
872.571	69.43
872.872	69.03
873.173	68.74
873.473	69.37
873.774	69.57
874.075	70.18
874.376	69.7
874.676	69.32
874.977	68.79
875.277	68.42
875.578	68.47
875.878	68.07
876.179	67.87
876.479	68.21
876.78	68.05
877.08	68.06
877.38	68.08
877.68	68.06
877.981	67.55
878.281	67.59
878.581	67.08
