Data from UWBM12228_Reflection_00001.txt Node
Date: Sun May 02 12:52:28 EDT 2021
User: vgr7
Spectrometer: USB2G7710
Scans to average: 10
Trigger mode: 4
Integration Time (sec): 1.000000E-1
Electric dark correction enabled: true
Boxcar width: 20
XAxis mode: Wavelengths
Number of Pixels in Spectrum: 2048
>>>>>Begin Spectral Data<<<<<
177.721	99.13
178.105	99.61
178.488	99.41
178.871	99.18
179.254	99.8
179.636	98.16
180.019	97.08
180.402	94.84
180.785	92.68
181.168	90.82
181.55	89.06
181.933	110.99
182.316	110.95
182.698	112.39
183.081	112.84
183.463	114
183.846	116.5
184.228	117.01
184.611	117.41
184.993	118.78
185.376	121.17
185.758	-54.5
186.14	-9.9
186.522	16.97
186.904	27.53
187.287	35.18
187.669	37.09
188.051	37.41
188.433	43.45
188.815	39.88
189.197	36.41
189.579	35.99
189.961	35.15
190.342	33.1
190.724	33.82
191.106	30.81
191.488	30.32
191.869	25.7
192.251	24.66
192.633	21.88
193.014	19.19
193.396	18.51
193.777	22.61
194.159	21.72
194.54	20.71
194.922	19.46
195.303	23.43
195.684	24.38
196.065	25.59
196.447	23.54
196.828	23.48
197.209	22.8
197.59	14.65
197.971	13.31
198.352	14.08
198.733	14.82
199.114	13.79
199.495	13.49
199.876	12
200.257	10.71
200.638	8.3
201.018	4.36
201.399	2.27
201.78	0.56
202.16	-0.49
202.541	1.02
202.922	0.47
203.302	-1.62
203.683	-3.83
204.063	-6.53
204.444	-6.9
204.824	-2.13
205.204	1.11
205.585	10.96
205.965	11.84
206.345	13.73
206.725	9.56
207.106	10.8
207.486	10.75
207.866	10.4
208.246	10.08
208.626	12.43
209.006	16.89
209.386	12.63
209.766	13.34
210.145	12.18
210.525	10.92
210.905	10.4
211.285	10.06
211.664	9.06
212.044	11.57
212.424	10.13
212.803	6.35
213.183	8.5
213.562	8.22
213.942	7.83
214.321	5.83
214.701	5.33
215.08	6.41
215.459	5.49
215.838	4.03
216.218	5.42
216.597	3.9
216.976	0.73
217.355	0.65
217.734	0.47
218.113	1.88
218.492	2.97
218.871	3.87
219.25	5.81
219.629	5.12
220.008	5.73
220.387	5.13
220.766	5.89
221.144	4.7
221.523	5.94
221.902	5.76
222.28	6.98
222.659	7.96
223.037	8.29
223.416	9.18
223.794	10.68
224.173	9.76
224.551	9.12
224.929	9.73
225.308	10.29
225.686	9.81
226.064	10.25
226.442	9.56
226.821	9.15
227.199	9.12
227.577	8.47
227.955	8.07
228.333	7.86
228.711	7.65
229.089	8.03
229.467	7.2
229.845	7.63
230.222	7.46
230.6	7.98
230.978	8.27
231.356	7.9
231.733	7.56
232.111	7.35
232.488	7.43
232.866	7.27
233.243	6.75
233.621	6.44
233.998	6.17
234.376	6.03
234.753	6.02
235.13	6.02
235.508	6.38
235.885	6.28
236.262	6.18
236.639	6.25
237.016	6.05
237.393	5.99
237.77	5.82
238.147	5.71
238.524	5.67
238.901	5.65
239.278	5.62
239.655	5.63
240.032	5.56
240.409	5.55
240.785	5.42
241.162	5.5
241.539	5.46
241.915	5.5
242.292	5.51
242.668	5.42
243.045	5.39
243.421	5.28
243.798	5.2
244.174	5.2
244.551	5.12
244.927	5
245.303	4.93
245.679	4.97
246.056	4.89
246.432	4.86
246.808	4.64
247.184	4.64
247.56	4.65
247.936	4.64
248.312	4.6
248.688	4.7
249.064	4.66
249.44	4.64
249.815	4.62
250.191	4.56
250.567	4.54
250.943	4.61
251.318	4.62
251.694	4.56
252.069	4.48
252.445	4.46
252.82	4.55
253.196	4.55
253.571	4.5
253.947	4.58
254.322	4.53
254.697	4.65
255.073	4.62
255.448	4.6
255.823	4.56
256.198	4.52
256.573	4.35
256.948	4.3
257.323	4.3
257.698	4.22
258.073	4.21
258.448	4.08
258.823	4.08
259.198	4.07
259.573	4.08
259.948	4.11
260.322	4.09
260.697	4.1
261.072	4.08
261.446	4.06
261.821	4.02
262.195	3.99
262.57	3.96
262.944	3.94
263.319	3.93
263.693	3.96
264.067	3.96
264.442	4.05
264.816	4.03
265.19	4.02
265.564	4.07
265.938	4.04
266.313	4.09
266.687	4.03
267.061	4.03
267.435	4.03
267.809	4.02
268.183	4
268.556	4.02
268.93	4.01
269.304	3.99
269.678	3.96
270.051	3.93
270.425	3.94
270.799	3.96
271.172	3.96
271.546	3.96
271.919	3.97
272.293	3.96
272.666	3.95
273.04	3.96
273.413	3.89
273.787	3.89
274.16	3.89
274.533	3.91
274.906	3.9
275.279	3.91
275.653	3.9
276.026	3.87
276.399	3.84
276.772	3.84
277.145	3.88
277.518	3.91
277.891	3.93
278.263	3.94
278.636	3.94
279.009	3.94
279.382	3.91
279.755	3.85
280.127	3.88
280.5	3.88
280.872	3.85
281.245	3.96
281.617	3.97
281.99	4
282.362	4.02
282.735	4.01
283.107	4.01
283.479	4
283.852	4.01
284.224	4.03
284.596	4.01
284.968	3.9
285.34	3.89
285.713	3.86
286.085	3.78
286.457	3.78
286.829	3.76
287.201	3.75
287.572	3.81
287.944	3.82
288.316	3.85
288.688	3.88
289.06	3.86
289.431	3.87
289.803	3.86
290.175	3.86
290.546	3.88
290.918	3.87
291.289	3.85
291.661	3.86
292.032	3.82
292.403	3.83
292.775	3.91
293.146	3.91
293.517	3.93
293.889	3.99
294.26	3.99
294.631	4.01
295.002	4.05
295.373	4.07
295.744	4.06
296.115	4.07
296.486	4
296.857	4
297.228	3.98
297.599	3.97
297.97	3.95
298.34	3.96
298.711	3.9
299.082	3.89
299.452	3.91
299.823	3.94
300.194	3.94
300.564	3.93
300.935	3.93
301.305	3.91
301.676	3.88
302.046	3.87
302.416	3.86
302.787	3.86
303.157	3.8
303.527	3.8
303.897	3.81
304.267	3.81
304.637	3.82
305.008	3.84
305.378	3.85
305.748	3.83
306.117	3.88
306.487	3.92
306.857	3.96
307.227	3.96
307.597	3.94
307.967	3.93
308.336	3.93
308.706	3.94
309.076	3.94
309.445	3.93
309.815	3.82
310.184	3.81
310.554	3.75
310.923	3.79
311.293	3.8
311.662	3.78
312.031	3.77
312.401	3.77
312.77	3.75
313.139	3.75
313.508	3.77
313.877	3.73
314.246	3.72
314.616	3.68
314.985	3.63
315.353	3.65
315.722	3.64
316.091	3.64
316.46	3.65
316.829	3.69
317.198	3.71
317.567	3.84
317.935	3.83
318.304	3.86
318.672	3.88
319.041	3.86
319.41	3.88
319.778	3.88
320.147	3.89
320.515	3.89
320.883	3.88
321.252	3.82
321.62	3.86
321.988	3.87
322.357	3.87
322.725	3.93
323.093	3.94
323.461	3.94
323.829	3.93
324.197	3.92
324.565	3.92
324.933	3.92
325.301	3.9
325.669	3.9
326.037	3.89
326.405	3.82
326.772	3.83
327.14	3.81
327.508	3.79
327.875	3.8
328.243	3.79
328.61	3.75
328.978	3.75
329.346	3.74
329.713	3.72
330.08	3.71
330.448	3.7
330.815	3.67
331.182	3.68
331.55	3.68
331.917	3.69
332.284	3.68
332.651	3.69
333.018	3.7
333.385	3.7
333.752	3.71
334.119	3.72
334.486	3.72
334.853	3.69
335.22	3.69
335.587	3.68
335.954	3.69
336.32	3.7
336.687	3.7
337.054	3.69
337.42	3.7
337.787	3.68
338.153	3.7
338.52	3.73
338.886	3.76
339.253	3.75
339.619	3.74
339.986	3.71
340.352	3.7
340.718	3.72
341.084	3.73
341.451	3.73
341.817	3.71
342.183	3.71
342.549	3.73
342.915	3.72
343.281	3.74
343.647	3.75
344.013	3.78
344.379	3.78
344.745	3.78
345.11	3.78
345.476	3.79
345.842	3.81
346.208	3.78
346.573	3.77
346.939	3.78
347.304	3.79
347.67	3.79
348.035	3.79
348.401	3.78
348.766	3.8
349.132	3.8
349.497	3.82
349.862	3.82
350.228	3.84
350.593	3.85
350.958	3.84
351.323	3.81
351.688	3.82
352.053	3.8
352.418	3.8
352.783	3.8
353.148	3.79
353.513	3.77
353.878	3.77
354.243	3.77
354.608	3.77
354.972	3.77
355.337	3.77
355.702	3.74
356.066	3.75
356.431	3.74
356.795	3.74
357.16	3.72
357.524	3.72
357.889	3.72
358.253	3.71
358.618	3.71
358.982	3.72
359.346	3.73
359.71	3.73
360.075	3.74
360.439	3.75
360.803	3.74
361.167	3.73
361.531	3.74
361.895	3.74
362.259	3.73
362.623	3.73
362.987	3.72
363.351	3.73
363.714	3.74
364.078	3.74
364.442	3.74
364.806	3.74
365.169	3.73
365.533	3.72
365.896	3.71
366.26	3.72
366.623	3.72
366.987	3.72
367.35	3.73
367.714	3.73
368.077	3.74
368.44	3.75
368.803	3.74
369.167	3.75
369.53	3.75
369.893	3.77
370.256	3.78
370.619	3.79
370.982	3.79
371.345	3.78
371.708	3.79
372.071	3.79
372.434	3.8
372.797	3.82
373.159	3.83
373.522	3.84
373.885	3.83
374.247	3.81
374.61	3.81
374.973	3.8
375.335	3.79
375.698	3.79
376.06	3.79
376.423	3.79
376.785	3.79
377.147	3.79
377.51	3.8
377.872	3.8
378.234	3.8
378.596	3.82
378.958	3.83
379.321	3.83
379.683	3.84
380.045	3.83
380.407	3.83
380.769	3.83
381.13	3.83
381.492	3.84
381.854	3.84
382.216	3.84
382.578	3.84
382.939	3.84
383.301	3.84
383.663	3.85
384.024	3.84
384.386	3.85
384.747	3.84
385.109	3.83
385.47	3.83
385.832	3.83
386.193	3.82
386.554	3.82
386.916	3.83
387.277	3.83
387.638	3.83
387.999	3.84
388.36	3.84
388.721	3.84
389.082	3.84
389.443	3.85
389.804	3.85
390.165	3.86
390.526	3.86
390.887	3.86
391.248	3.86
391.609	3.87
391.969	3.87
392.33	3.88
392.691	3.88
393.051	3.88
393.412	3.87
393.772	3.88
394.133	3.88
394.493	3.88
394.854	3.88
395.214	3.88
395.574	3.88
395.935	3.87
396.295	3.87
396.655	3.87
397.015	3.87
397.376	3.87
397.736	3.88
398.096	3.87
398.456	3.87
398.816	3.89
399.176	3.88
399.535	3.89
399.895	3.89
400.255	3.9
400.615	3.9
400.975	3.91
401.334	3.92
401.694	3.92
402.054	3.92
402.413	3.9
402.773	3.91
403.132	3.92
403.492	3.91
403.851	3.91
404.211	3.92
404.57	3.93
404.929	3.94
405.288	3.94
405.648	3.94
406.007	3.94
406.366	3.95
406.725	3.96
407.084	3.96
407.443	3.96
407.802	3.95
408.161	3.95
408.52	3.95
408.879	3.95
409.238	3.95
409.596	3.95
409.955	3.96
410.314	3.96
410.673	3.96
411.031	3.97
411.39	3.97
411.748	3.98
412.107	3.99
412.465	4
412.824	4.02
413.182	4.04
413.54	4.06
413.899	4.08
414.257	4.11
414.615	4.15
414.974	4.17
415.332	4.22
415.69	4.26
416.048	4.28
416.406	4.33
416.764	4.36
417.122	4.39
417.48	4.42
417.838	4.45
418.195	4.48
418.553	4.5
418.911	4.51
419.269	4.52
419.626	4.52
419.984	4.51
420.342	4.49
420.699	4.48
421.057	4.46
421.414	4.45
421.772	4.43
422.129	4.43
422.486	4.43
422.844	4.43
423.201	4.43
423.558	4.43
423.915	4.43
424.273	4.43
424.63	4.43
424.987	4.43
425.344	4.43
425.701	4.44
426.058	4.44
426.415	4.44
426.772	4.44
427.128	4.43
427.485	4.42
427.842	4.42
428.199	4.41
428.555	4.4
428.912	4.38
429.269	4.36
429.625	4.34
429.982	4.32
430.338	4.29
430.695	4.27
431.051	4.24
431.407	4.22
431.764	4.2
432.12	4.17
432.476	4.17
432.832	4.15
433.189	4.16
433.545	4.16
433.901	4.18
434.257	4.19
434.613	4.22
434.969	4.25
435.325	4.27
435.681	4.31
436.036	4.32
436.392	4.35
436.748	4.35
437.104	4.36
437.459	4.37
437.815	4.39
438.171	4.41
438.526	4.43
438.882	4.46
439.237	4.49
439.593	4.53
439.948	4.56
440.304	4.59
440.659	4.62
441.014	4.64
441.369	4.66
441.725	4.68
442.08	4.7
442.435	4.71
442.79	4.71
443.145	4.72
443.5	4.72
443.855	4.72
444.21	4.71
444.565	4.71
444.92	4.7
445.275	4.69
445.629	4.68
445.984	4.68
446.339	4.68
446.693	4.68
447.048	4.66
447.403	4.65
447.757	4.63
448.112	4.61
448.466	4.59
448.82	4.58
449.175	4.56
449.529	4.55
449.883	4.54
450.238	4.51
450.592	4.51
450.946	4.51
451.3	4.51
451.654	4.52
452.008	4.52
452.362	4.53
452.716	4.53
453.07	4.53
453.424	4.53
453.778	4.53
454.132	4.51
454.486	4.5
454.839	4.48
455.193	4.46
455.547	4.45
455.9	4.42
456.254	4.39
456.607	4.37
456.961	4.34
457.314	4.33
457.668	4.31
458.021	4.31
458.375	4.31
458.728	4.31
459.081	4.31
459.434	4.33
459.787	4.33
460.141	4.34
460.494	4.34
460.847	4.35
461.2	4.35
461.553	4.37
461.906	4.37
462.259	4.38
462.611	4.38
462.964	4.39
463.317	4.39
463.67	4.39
464.022	4.39
464.375	4.39
464.728	4.39
465.08	4.39
465.433	4.39
465.785	4.39
466.138	4.37
466.49	4.36
466.843	4.34
467.195	4.32
467.547	4.3
467.899	4.28
468.252	4.25
468.604	4.22
468.956	4.21
469.308	4.19
469.66	4.19
470.012	4.18
470.364	4.18
470.716	4.18
471.068	4.21
471.42	4.23
471.772	4.25
472.123	4.26
472.475	4.27
472.827	4.28
473.178	4.28
473.53	4.29
473.882	4.31
474.233	4.33
474.585	4.36
474.936	4.42
475.288	4.5
475.639	4.62
475.99	4.76
476.342	4.91
476.693	5.07
477.044	5.23
477.395	5.41
477.746	5.58
478.097	5.75
478.448	5.93
478.8	6.11
479.15	6.27
479.501	6.41
479.852	6.55
480.203	6.67
480.554	6.8
480.905	6.92
481.255	7.04
481.606	7.15
481.957	7.24
482.307	7.34
482.658	7.43
483.009	7.51
483.359	7.6
483.709	7.68
484.06	7.76
484.41	7.84
484.761	7.91
485.111	7.98
485.461	8.05
485.811	8.11
486.162	8.17
486.512	8.21
486.862	8.25
487.212	8.28
487.562	8.3
487.912	8.32
488.262	8.32
488.612	8.32
488.961	8.3
489.311	8.26
489.661	8.2
490.011	8.11
490.36	8
490.71	7.86
491.06	7.73
491.409	7.58
491.759	7.43
492.108	7.28
492.458	7.12
492.807	6.95
493.157	6.78
493.506	6.62
493.855	6.46
494.204	6.32
494.554	6.19
494.903	6.06
495.252	5.94
495.601	5.81
495.95	5.7
496.299	5.6
496.648	5.49
496.997	5.4
497.346	5.31
497.695	5.22
498.043	5.14
498.392	5.05
498.741	4.97
499.09	4.89
499.438	4.81
499.787	4.73
500.135	4.66
500.484	4.6
500.832	4.55
501.181	4.51
501.529	4.48
501.878	4.46
502.226	4.45
502.574	4.44
502.923	4.43
503.271	4.43
503.619	4.43
503.967	4.43
504.315	4.43
504.663	4.42
505.011	4.42
505.359	4.41
505.707	4.41
506.055	4.4
506.403	4.4
506.751	4.4
507.098	4.4
507.446	4.41
507.794	4.42
508.141	4.43
508.489	4.45
508.837	4.46
509.184	4.47
509.531	4.48
509.879	4.49
510.226	4.5
510.574	4.51
510.921	4.52
511.268	4.54
511.616	4.55
511.963	4.56
512.31	4.58
512.657	4.6
513.004	4.61
513.351	4.63
513.698	4.63
514.045	4.64
514.392	4.65
514.739	4.65
515.086	4.65
515.432	4.64
515.779	4.64
516.126	4.64
516.473	4.65
516.819	4.64
517.166	4.65
517.512	4.66
517.859	4.67
518.205	4.68
518.552	4.71
518.898	4.74
519.245	4.78
519.591	4.83
519.937	4.9
520.283	4.99
520.629	5.09
520.976	5.2
521.322	5.32
521.668	5.43
522.014	5.54
522.36	5.65
522.706	5.76
523.052	5.87
523.398	5.98
523.743	6.07
524.089	6.15
524.435	6.22
524.781	6.28
525.126	6.34
525.472	6.4
525.817	6.46
526.163	6.51
526.509	6.56
526.854	6.6
527.199	6.65
527.545	6.7
527.89	6.74
528.235	6.79
528.581	6.83
528.926	6.87
529.271	6.92
529.616	6.95
529.961	6.98
530.306	6.99
530.651	7.02
530.996	7.04
531.341	7.05
531.686	7.05
532.031	7.05
532.376	7.05
532.721	7.05
533.065	7.05
533.41	7.05
533.755	7.04
534.099	7.01
534.444	6.98
534.788	6.94
535.133	6.9
535.477	6.85
535.822	6.8
536.166	6.74
536.51	6.68
536.855	6.6
537.199	6.52
537.543	6.44
537.887	6.36
538.231	6.3
538.576	6.24
538.92	6.18
539.264	6.12
539.608	6.07
539.951	6.01
540.295	5.94
540.639	5.88
540.983	5.81
541.327	5.77
541.671	5.71
542.014	5.65
542.358	5.6
542.701	5.56
543.045	5.53
543.389	5.51
543.732	5.48
544.075	5.47
544.419	5.46
544.762	5.43
545.105	5.42
545.449	5.41
545.792	5.41
546.135	5.41
546.478	5.4
546.821	5.37
547.165	5.34
547.508	5.3
547.851	5.26
548.194	5.21
548.536	5.15
548.879	5.08
549.222	5.01
549.565	4.94
549.908	4.87
550.25	4.82
550.593	4.76
550.936	4.71
551.278	4.68
551.621	4.65
551.963	4.62
552.306	4.6
552.648	4.59
552.991	4.57
553.333	4.55
553.675	4.55
554.017	4.55
554.36	4.55
554.702	4.56
555.044	4.57
555.386	4.58
555.728	4.59
556.07	4.6
556.412	4.61
556.754	4.61
557.096	4.6
557.438	4.61
557.78	4.61
558.121	4.61
558.463	4.6
558.805	4.6
559.147	4.61
559.488	4.61
559.83	4.61
560.171	4.62
560.513	4.62
560.854	4.61
561.196	4.61
561.537	4.61
561.878	4.61
562.22	4.61
562.561	4.61
562.902	4.62
563.243	4.62
563.584	4.63
563.925	4.63
564.266	4.62
564.607	4.63
564.948	4.63
565.289	4.63
565.63	4.64
565.971	4.64
566.312	4.64
566.653	4.65
566.993	4.64
567.334	4.64
567.675	4.64
568.015	4.65
568.356	4.66
568.696	4.67
569.037	4.67
569.377	4.67
569.718	4.67
570.058	4.67
570.398	4.67
570.739	4.67
571.079	4.67
571.419	4.67
571.759	4.67
572.099	4.67
572.439	4.67
572.779	4.68
573.119	4.67
573.459	4.66
573.799	4.67
574.139	4.67
574.479	4.68
574.819	4.67
575.158	4.67
575.498	4.67
575.838	4.67
576.177	4.67
576.517	4.67
576.856	4.67
577.196	4.67
577.535	4.66
577.875	4.66
578.214	4.66
578.553	4.66
578.893	4.66
579.232	4.66
579.571	4.66
579.91	4.66
580.25	4.65
580.589	4.65
580.928	4.64
581.267	4.64
581.606	4.64
581.945	4.64
582.283	4.63
582.622	4.63
582.961	4.63
583.3	4.63
583.639	4.63
583.977	4.63
584.316	4.63
584.654	4.64
584.993	4.64
585.332	4.63
585.67	4.63
586.008	4.63
586.347	4.64
586.685	4.64
587.024	4.64
587.362	4.64
587.7	4.64
588.038	4.65
588.376	4.65
588.715	4.65
589.053	4.65
589.391	4.66
589.729	4.66
590.067	4.66
590.404	4.65
590.742	4.65
591.08	4.65
591.418	4.65
591.756	4.66
592.093	4.67
592.431	4.68
592.769	4.69
593.106	4.69
593.444	4.69
593.781	4.68
594.119	4.69
594.456	4.69
594.793	4.68
595.131	4.68
595.468	4.69
595.805	4.68
596.143	4.68
596.48	4.68
596.817	4.69
597.154	4.7
597.491	4.7
597.828	4.7
598.165	4.7
598.502	4.7
598.839	4.71
599.176	4.7
599.512	4.7
599.849	4.71
600.186	4.71
600.523	4.71
600.859	4.71
601.196	4.71
601.532	4.72
601.869	4.72
602.205	4.72
602.542	4.72
602.878	4.72
603.215	4.71
603.551	4.71
603.887	4.7
604.223	4.71
604.56	4.72
604.896	4.72
605.232	4.72
605.568	4.72
605.904	4.72
606.24	4.72
606.576	4.72
606.912	4.73
607.248	4.73
607.583	4.73
607.919	4.73
608.255	4.72
608.591	4.73
608.926	4.73
609.262	4.73
609.597	4.74
609.933	4.74
610.268	4.76
610.604	4.76
610.939	4.76
611.275	4.75
611.61	4.76
611.945	4.76
612.281	4.76
612.616	4.76
612.951	4.75
613.286	4.74
613.621	4.73
613.956	4.73
614.291	4.74
614.626	4.74
614.961	4.75
615.296	4.75
615.631	4.75
615.966	4.75
616.3	4.76
616.635	4.76
616.97	4.76
617.304	4.75
617.639	4.75
617.973	4.75
618.308	4.75
618.642	4.74
618.977	4.73
619.311	4.72
619.646	4.72
619.98	4.74
620.314	4.73
620.648	4.74
620.983	4.74
621.317	4.73
621.651	4.74
621.985	4.74
622.319	4.74
622.653	4.74
622.987	4.74
623.321	4.74
623.655	4.74
623.988	4.75
624.322	4.74
624.656	4.75
624.99	4.75
625.323	4.75
625.657	4.75
625.99	4.76
626.324	4.77
626.657	4.77
626.991	4.77
627.324	4.76
627.658	4.77
627.991	4.76
628.324	4.77
628.657	4.77
628.991	4.78
629.324	4.77
629.657	4.79
629.99	4.78
630.323	4.79
630.656	4.79
630.989	4.79
631.322	4.8
631.655	4.79
631.987	4.79
632.32	4.8
632.653	4.8
632.986	4.81
633.318	4.8
633.651	4.8
633.984	4.8
634.316	4.81
634.649	4.81
634.981	4.82
635.313	4.81
635.646	4.81
635.978	4.8
636.31	4.8
636.643	4.79
636.975	4.79
637.307	4.79
637.639	4.79
637.971	4.79
638.303	4.8
638.635	4.8
638.967	4.8
639.299	4.8
639.631	4.81
639.963	4.82
640.295	4.83
640.626	4.84
640.958	4.85
641.29	4.85
641.621	4.85
641.953	4.86
642.285	4.86
642.616	4.87
642.948	4.86
643.279	4.87
643.61	4.88
643.942	4.87
644.273	4.87
644.604	4.87
644.936	4.88
645.267	4.88
645.598	4.89
645.929	4.89
646.26	4.89
646.591	4.89
646.922	4.89
647.253	4.89
647.584	4.89
647.915	4.89
648.245	4.9
648.576	4.9
648.907	4.89
649.238	4.9
649.568	4.9
649.899	4.89
650.229	4.9
650.56	4.92
650.89	4.92
651.221	4.93
651.551	4.94
651.882	4.94
652.212	4.94
652.542	4.93
652.872	4.93
653.203	4.95
653.533	4.93
653.863	4.93
654.193	4.92
654.523	4.91
654.853	4.91
655.183	4.92
655.513	4.91
655.843	4.92
656.172	4.92
656.502	4.92
656.832	4.91
657.162	4.91
657.491	4.91
657.821	4.91
658.15	4.91
658.48	4.91
658.809	4.9
659.139	4.91
659.468	4.92
659.798	4.93
660.127	4.92
660.456	4.95
660.785	4.96
661.115	4.97
661.444	4.97
661.773	4.99
662.102	4.99
662.431	4.99
662.76	5
663.089	5
663.418	5
663.747	4.99
664.076	5
664.404	4.99
664.733	4.99
665.062	5.01
665.39	5.02
665.719	5.02
666.048	5.02
666.376	5.01
666.705	4.99
667.033	4.98
667.362	4.97
667.69	4.98
668.018	4.99
668.347	4.99
668.675	4.97
669.003	4.98
669.331	4.98
669.659	4.98
669.987	4.99
670.315	5
670.643	5.01
670.971	5.02
671.299	5.01
671.627	5.01
671.955	5
672.283	5
672.61	5.01
672.938	5.02
673.266	5.03
673.593	5.03
673.921	5.03
674.249	5.04
674.576	5.04
674.904	5.05
675.231	5.05
675.558	5.06
675.886	5.08
676.213	5.07
676.54	5.08
676.867	5.09
677.195	5.1
677.522	5.11
677.849	5.13
678.176	5.15
678.503	5.15
678.83	5.15
679.157	5.16
679.484	5.16
679.81	5.15
680.137	5.15
680.464	5.16
680.791	5.17
681.117	5.16
681.444	5.15
681.771	5.15
682.097	5.15
682.424	5.14
682.75	5.12
683.077	5.12
683.403	5.12
683.729	5.11
684.056	5.12
684.382	5.11
684.708	5.11
685.034	5.12
685.36	5.12
685.686	5.13
686.012	5.14
686.339	5.16
686.664	5.16
686.99	5.17
687.316	5.18
687.642	5.19
687.968	5.22
688.294	5.23
688.619	5.23
688.945	5.24
689.271	5.24
689.596	5.24
689.922	5.27
690.247	5.26
690.573	5.27
690.898	5.29
691.224	5.29
691.549	5.28
691.874	5.26
692.2	5.27
692.525	5.27
692.85	5.26
693.175	5.27
693.5	5.3
693.825	5.3
694.15	5.29
694.475	5.29
694.8	5.29
695.125	5.3
695.45	5.33
695.775	5.34
696.099	5.34
696.424	5.35
696.749	5.35
697.073	5.36
697.398	5.36
697.723	5.36
698.047	5.35
698.372	5.35
698.696	5.34
699.02	5.33
699.345	5.32
699.669	5.33
699.993	5.32
700.318	5.31
700.642	5.3
700.966	5.3
701.29	5.3
701.614	5.3
701.938	5.31
702.262	5.31
702.586	5.31
702.91	5.32
703.234	5.33
703.557	5.33
703.881	5.31
704.205	5.33
704.529	5.34
704.852	5.33
705.176	5.35
705.499	5.38
705.823	5.4
706.146	5.41
706.47	5.41
706.793	5.41
707.117	5.53
707.44	5.54
707.763	5.51
708.086	5.52
708.409	5.51
708.733	5.5
709.056	5.51
709.379	5.52
709.702	5.54
710.025	5.55
710.348	5.38
710.671	5.39
710.993	5.4
711.316	5.39
711.639	5.4
711.962	5.4
712.284	5.42
712.607	5.44
712.93	5.45
713.252	5.47
713.575	5.46
713.897	5.44
714.22	5.44
714.542	5.47
714.864	5.53
715.187	5.55
715.509	5.56
715.831	5.56
716.153	5.56
716.475	5.52
716.798	5.51
717.12	5.71
717.442	5.72
717.764	5.73
718.085	5.66
718.407	5.64
718.729	5.62
719.051	5.61
719.373	5.61
719.695	5.62
720.016	5.6
720.338	5.52
720.659	5.54
720.981	5.57
721.302	5.55
721.624	5.56
721.945	5.55
722.267	5.54
722.588	5.53
722.909	5.56
723.231	5.59
723.552	5.61
723.873	5.63
724.194	5.62
724.515	5.64
724.836	5.78
725.157	5.79
725.478	5.8
725.799	5.8
726.12	5.79
726.441	5.79
726.762	5.83
727.083	5.81
727.403	5.81
727.724	5.78
728.045	5.71
728.365	5.73
728.686	5.76
729.006	5.77
729.327	5.78
729.647	5.78
729.967	5.77
730.288	5.78
730.608	5.79
730.928	5.79
731.249	5.78
731.569	5.79
731.889	5.8
732.209	5.82
732.529	5.81
732.849	5.82
733.169	5.82
733.489	5.82
733.809	5.84
734.129	5.84
734.448	5.88
734.768	5.87
735.088	5.88
735.408	5.87
735.727	5.87
736.047	5.9
736.366	5.89
736.686	5.9
737.005	5.9
737.325	5.88
737.644	5.89
737.963	5.87
738.283	5.88
738.602	5.88
738.921	5.89
739.24	5.88
739.56	5.88
739.879	5.89
740.198	5.91
740.517	5.9
740.836	5.91
741.155	5.91
741.473	5.96
741.792	5.98
742.111	5.98
742.43	5.99
742.748	5.97
743.067	5.96
743.386	6.01
743.704	6.01
744.023	6.06
744.341	6.06
744.66	6.07
744.978	6.02
745.297	6.04
745.615	6.03
745.933	6.04
746.252	6.02
746.57	5.98
746.888	5.96
747.206	5.94
747.524	5.92
747.842	5.94
748.16	5.95
748.478	5.94
748.796	5.91
749.114	5.88
749.432	5.87
749.749	5.89
750.067	5.9
750.385	5.93
750.703	5.91
751.02	5.89
751.338	5.9
751.655	5.96
751.973	5.97
752.29	5.98
752.608	6.02
752.925	6
753.242	6.08
753.56	6.13
753.877	6.12
754.194	6.17
754.511	6.16
754.828	6.14
755.145	6.17
755.462	6.19
755.779	6.22
756.096	6.26
756.413	6.23
756.73	6.21
757.047	6.19
757.364	6.19
757.68	6.23
757.997	6.22
758.314	6.21
758.63	6.22
758.947	6.25
759.264	6.26
759.58	6.25
759.896	6.24
760.213	6.29
760.529	6.3
760.846	6.26
761.162	6.28
761.478	6.28
761.794	6.27
762.11	6.28
762.426	6.31
762.743	6.3
763.059	6.36
763.375	6.38
763.69	6.42
764.006	6.45
764.322	6.46
764.638	6.45
764.954	6.47
765.27	6.48
765.585	6.45
765.901	6.49
766.216	6.36
766.532	6.33
766.848	6.29
767.163	6.34
767.478	6.37
767.794	6.38
768.109	6.4
768.424	6.4
768.74	6.43
769.055	6.42
769.37	6.46
769.685	6.44
770	6.44
770.315	6.47
770.63	6.37
770.945	6.3
771.26	6.31
771.575	6.28
771.89	6.27
772.205	6.29
772.52	6.28
772.834	6.47
773.149	6.53
773.464	6.47
773.778	6.47
774.093	6.49
774.407	6.5
774.722	6.54
775.036	6.52
775.351	6.51
775.665	6.49
775.979	6.32
776.293	6.32
776.608	6.3
776.922	6.28
777.236	6.37
777.55	6.46
777.864	6.51
778.178	6.53
778.492	6.53
778.806	6.5
779.12	6.51
779.434	6.54
779.747	6.53
780.061	6.65
780.375	6.6
780.689	6.52
781.002	6.53
781.316	6.55
781.629	6.58
781.943	6.62
782.256	6.64
782.57	6.71
782.883	6.72
783.196	6.65
783.51	6.73
783.823	6.82
784.136	6.77
784.449	6.81
784.762	6.82
785.075	6.9
785.388	6.88
785.701	6.83
786.014	6.76
786.327	6.8
786.64	6.79
786.953	6.8
787.266	6.89
787.578	6.87
787.891	6.89
788.204	6.86
788.516	6.89
788.829	6.99
789.141	6.94
789.454	6.93
789.766	6.95
790.079	6.93
790.391	6.91
790.703	6.98
791.016	6.87
791.328	6.88
791.64	6.86
791.952	6.92
792.264	6.93
792.576	6.95
792.888	6.94
793.2	6.97
793.512	7.01
793.824	6.92
794.136	6.9
794.448	6.96
794.76	6.99
795.071	7.01
795.383	6.97
795.695	7.1
796.006	7.19
796.318	7.19
796.629	7.16
796.941	7.19
797.252	7.19
797.564	7.26
797.875	7.17
798.186	7.09
798.497	7.15
798.809	7.03
799.12	7.03
799.431	6.98
799.742	6.96
800.053	6.84
800.364	6.94
800.675	6.99
800.986	7.01
801.297	7.09
801.608	7.09
801.918	7.11
802.229	7.11
802.54	7.06
802.851	7.1
803.161	7.11
803.472	7.13
803.782	7.04
804.093	7.11
804.403	7.04
804.714	7.13
805.024	7.14
805.334	7.26
805.645	7.27
805.955	7.33
806.265	7.29
806.575	7.35
806.885	7.22
807.195	7.21
807.505	7.17
807.815	7.1
808.125	7.16
808.435	7.16
808.745	7.17
809.055	7.16
809.365	7.28
809.674	7.28
809.984	7.36
810.294	7.37
810.603	7.38
810.913	7.67
811.222	7.58
811.532	7.66
811.841	7.68
812.151	7.79
812.46	7.81
812.769	7.93
813.079	7.96
813.388	7.93
813.697	7.89
814.006	7.84
814.315	7.87
814.624	7.88
814.933	7.87
815.242	7.79
815.551	7.8
815.86	7.69
816.169	7.71
816.478	7.72
816.786	7.71
817.095	7.71
817.404	7.66
817.712	7.68
818.021	7.62
818.33	7.61
818.638	7.62
818.947	7.62
819.255	7.63
819.563	7.67
819.872	7.67
820.18	7.68
820.488	7.71
820.796	7.68
821.105	7.64
821.413	7.66
821.721	7.68
822.029	7.7
822.337	7.73
822.645	7.72
822.953	7.69
823.26	7.73
823.568	7.73
823.876	7.71
824.184	7.7
824.491	7.7
824.799	7.68
825.107	7.69
825.414	7.69
825.722	7.68
826.029	7.66
826.337	7.67
826.644	7.66
826.951	7.67
827.259	7.68
827.566	7.71
827.873	7.73
828.18	7.69
828.488	7.7
828.795	7.69
829.102	7.71
829.409	7.73
829.716	7.74
830.023	7.77
830.329	7.79
830.636	7.83
830.943	7.89
831.25	7.92
831.557	7.91
831.863	7.92
832.17	7.94
832.476	7.98
832.783	7.99
833.089	7.99
833.396	7.96
833.702	8
834.009	7.91
834.315	7.92
834.621	7.99
834.928	8.01
835.234	8.01
835.54	8.05
835.846	8.1
836.152	8.09
836.458	8.12
836.764	8.1
837.07	8.12
837.376	8.05
837.682	7.93
837.988	8
838.293	7.89
838.599	8
838.905	7.98
839.211	8.08
839.516	8.12
839.822	8.25
840.127	8.22
840.433	8.32
840.738	8.36
841.044	8.42
841.349	8.52
841.654	8.61
841.959	8.64
842.265	8.63
842.57	8.62
842.875	8.65
843.18	8.82
843.485	8.91
843.79	9.03
844.095	9.32
844.4	9.24
844.705	9.46
845.01	9.4
845.315	9.38
845.619	9.31
845.924	9.3
846.229	9.02
846.533	9.08
846.838	9.13
847.142	8.93
847.447	8.94
847.751	8.76
848.056	8.78
848.36	8.72
848.664	8.74
848.969	8.68
849.273	8.6
849.577	8.41
849.881	8.18
850.185	8.31
850.489	8.76
850.794	9.05
851.097	8.9
851.401	9.02
851.705	9.03
852.009	9.14
852.313	9.09
852.617	9.22
852.92	9.21
853.224	9.13
853.528	8.97
853.831	8.83
854.135	8.61
854.438	8.64
854.742	8.78
855.045	8.87
855.349	8.99
855.652	9.1
855.955	9.11
856.259	9.3
856.562	9.43
856.865	9.37
857.168	9.3
857.471	9.24
857.774	9.18
858.077	9.04
858.38	9.1
858.683	9.2
858.986	9.28
859.289	9.54
859.592	9.73
859.894	10.02
860.197	10.14
860.5	10.13
860.802	10.18
861.105	10.06
861.407	10.2
861.71	10.29
862.012	10.38
862.315	10.64
862.617	10.58
862.919	10.03
863.222	10.04
863.524	10.1
863.826	10.42
864.128	10.66
864.43	10.59
864.732	10.5
865.034	10.68
865.336	10.72
865.638	10.56
865.94	10.57
866.242	10.6
866.544	10.2
866.846	10.52
867.147	10.33
867.449	10.02
867.751	10.15
868.052	10.07
868.354	10.06
868.655	9.99
868.957	9.91
869.258	9.97
869.56	9.93
869.861	10.26
870.162	10.12
870.463	10.1
870.765	10.13
871.066	10.21
871.367	10.01
871.668	10.08
871.969	10.04
872.27	9.95
872.571	9.89
872.872	10.32
873.173	10.15
873.473	10.56
873.774	10.72
874.075	10.64
874.376	10.81
874.676	10.75
874.977	10.62
875.277	10.47
875.578	10.49
875.878	10.23
876.179	10.09
876.479	9.8
876.78	9.88
877.08	10.01
877.38	10.07
877.68	10.04
877.981	10.13
878.281	10.01
878.581	9.96
