Data from UWBM55942_Reflection_00004.txt Node
Date: Sun May 02 14:10:30 EDT 2021
User: vgr7
Spectrometer: USB2G7710
Scans to average: 10
Trigger mode: 4
Integration Time (sec): 1.000000E-1
Electric dark correction enabled: true
Boxcar width: 20
XAxis mode: Wavelengths
Number of Pixels in Spectrum: 2048
>>>>>Begin Spectral Data<<<<<
177.721	-630
178.105	-18.53
178.488	-213.25
178.871	-670.59
179.254	317.55
179.636	193.73
180.019	118.67
180.402	102.01
180.785	77.71
181.168	57.98
181.55	49.84
181.933	46.47
182.316	35.05
182.698	31.54
183.081	34.11
183.463	28.76
183.846	23.91
184.228	24.4
184.611	22.69
184.993	20.61
185.376	20.28
185.758	21.92
186.14	21.03
186.522	15.66
186.904	16.98
187.287	15.46
187.669	14.55
188.051	14.94
188.433	17
188.815	15.6
189.197	13.54
189.579	12.43
189.961	11.03
190.342	11.15
190.724	11.82
191.106	10.77
191.488	12.77
191.869	11.61
192.251	8.52
192.633	9
193.014	9.19
193.396	6.26
193.777	7.11
194.159	6.02
194.54	4.96
194.922	1.52
195.303	1.08
195.684	-1.15
196.065	-1.82
196.447	-1.64
196.828	-1.3
197.209	-2.72
197.59	-6.25
197.971	-5.59
198.352	-3.57
198.733	-2.69
199.114	-1.94
199.495	0.38
199.876	-0.36
200.257	0.22
200.638	0.39
201.018	1.36
201.399	1.58
201.78	0.05
202.16	-0.19
202.541	-0.35
202.922	-1.58
203.302	-0.84
203.683	-1.63
204.063	-1.83
204.444	-2.14
204.824	-1.17
205.204	-2.44
205.585	-2.64
205.965	-2.86
206.345	-3
206.725	-2.84
207.106	-3.27
207.486	-2.52
207.866	-1.11
208.246	-1.32
208.626	-1.62
209.006	-0.87
209.386	-1.88
209.766	-1.55
210.145	-2.05
210.525	-0.82
210.905	0.26
211.285	0.19
211.664	0.05
212.044	-0.37
212.424	-1.27
212.803	-0.23
213.183	-0.23
213.562	0.45
213.942	0.38
214.321	-2.8
214.701	-2.92
215.08	-2.92
215.459	-2.06
215.838	-3.45
216.218	-3.71
216.597	-4.39
216.976	-4.05
217.355	-2.42
217.734	-0.7
218.113	-0.69
218.492	-1.36
218.871	-1.85
219.25	-0.08
219.629	0.28
220.008	1.95
220.387	0.44
220.766	1.95
221.144	2.35
221.523	3
221.902	3.77
222.28	3.7
222.659	3.66
223.037	3.47
223.416	4.32
223.794	4.23
224.173	4.36
224.551	3.98
224.929	5.22
225.308	5.33
225.686	5.25
226.064	5.03
226.442	4.77
226.821	5.78
227.199	6.15
227.577	6.02
227.955	6.41
228.333	6.83
228.711	6.96
229.089	6.4
229.467	5.87
229.845	6.32
230.222	6.4
230.6	6.09
230.978	6.1
231.356	6.68
231.733	6.65
232.111	6.35
232.488	6.08
232.866	5.86
233.243	5.6
233.621	5.81
233.998	5.94
234.376	6.03
234.753	5.65
235.13	5.48
235.508	5.49
235.885	5.59
236.262	5.4
236.639	5.48
237.016	5.37
237.393	5.33
237.77	5.35
238.147	5.34
238.524	5.35
238.901	5.16
239.278	5.18
239.655	5.25
240.032	5.29
240.409	5.31
240.785	5.32
241.162	5.35
241.539	5.35
241.915	5.39
242.292	5.34
242.668	5.34
243.045	5.36
243.421	5.33
243.798	5.34
244.174	5.38
244.551	5.39
244.927	5.4
245.303	5.4
245.679	5.42
246.056	5.38
246.432	5.37
246.808	5.31
247.184	5.32
247.56	5.34
247.936	5.34
248.312	5.32
248.688	5.32
249.064	5.29
249.44	5.32
249.815	5.3
250.191	5.28
250.567	5.3
250.943	5.27
251.318	5.25
251.694	5.28
252.069	5.24
252.445	5.27
252.82	5.26
253.196	5.25
253.571	5.24
253.947	5.24
254.322	5.24
254.697	5.25
255.073	5.24
255.448	5.24
255.823	5.19
256.198	5.18
256.573	5.17
256.948	5.18
257.323	5.16
257.698	5.12
258.073	5.1
258.448	5.09
258.823	5.1
259.198	5.08
259.573	5.07
259.948	5.08
260.322	5.05
260.697	5.04
261.072	5.01
261.446	5.01
261.821	5
262.195	5
262.57	4.99
262.944	4.96
263.319	4.99
263.693	5
264.067	5
264.442	5
264.816	4.97
265.19	4.98
265.564	5
265.938	4.97
266.313	4.97
266.687	4.97
267.061	4.96
267.435	4.97
267.809	4.96
268.183	4.94
268.556	4.94
268.93	4.94
269.304	4.93
269.678	4.93
270.051	4.92
270.425	4.9
270.799	4.9
271.172	4.91
271.546	4.91
271.919	4.9
272.293	4.88
272.666	4.88
273.04	4.89
273.413	4.92
273.787	4.92
274.16	4.91
274.533	4.91
274.906	4.91
275.279	4.91
275.653	4.94
276.026	4.93
276.399	4.94
276.772	4.97
277.145	4.96
277.518	4.97
277.891	4.98
278.263	4.99
278.636	4.98
279.009	4.96
279.382	4.96
279.755	4.98
280.127	5
280.5	5
280.872	5.01
281.245	5.02
281.617	5.02
281.99	5.03
282.362	5.02
282.735	5.03
283.107	5.03
283.479	5.02
283.852	5.03
284.224	5.03
284.596	5.01
284.968	5.02
285.34	5.02
285.713	5.03
286.085	5.03
286.457	5.03
286.829	5.01
287.201	5.03
287.572	5.03
287.944	5.04
288.316	5.04
288.688	5.05
289.06	5.05
289.431	5.06
289.803	5.08
290.175	5.08
290.546	5.09
290.918	5.11
291.289	5.12
291.661	5.13
292.032	5.11
292.403	5.12
292.775	5.13
293.146	5.13
293.517	5.14
293.889	5.14
294.26	5.16
294.631	5.18
295.002	5.2
295.373	5.2
295.744	5.2
296.115	5.2
296.486	5.21
296.857	5.22
297.228	5.22
297.599	5.24
297.97	5.25
298.34	5.24
298.711	5.28
299.082	5.29
299.452	5.31
299.823	5.32
300.194	5.32
300.564	5.33
300.935	5.33
301.305	5.34
301.676	5.35
302.046	5.36
302.416	5.36
302.787	5.37
303.157	5.36
303.527	5.38
303.897	5.36
304.267	5.38
304.637	5.36
305.008	5.37
305.378	5.38
305.748	5.37
306.117	5.35
306.487	5.37
306.857	5.38
307.227	5.39
307.597	5.39
307.967	5.39
308.336	5.4
308.706	5.4
309.076	5.39
309.445	5.39
309.815	5.36
310.184	5.34
310.554	5.33
310.923	5.33
311.293	5.32
311.662	5.33
312.031	5.34
312.401	5.34
312.77	5.33
313.139	5.34
313.508	5.34
313.877	5.32
314.246	5.31
314.616	5.3
314.985	5.32
315.353	5.33
315.722	5.32
316.091	5.33
316.46	5.32
316.829	5.32
317.198	5.33
317.567	5.32
317.935	5.33
318.304	5.34
318.672	5.33
319.041	5.35
319.41	5.33
319.778	5.34
320.147	5.32
320.515	5.29
320.883	5.27
321.252	5.26
321.62	5.25
321.988	5.25
322.357	5.25
322.725	5.23
323.093	5.22
323.461	5.22
323.829	5.22
324.197	5.23
324.565	5.22
324.933	5.22
325.301	5.23
325.669	5.23
326.037	5.23
326.405	5.22
326.772	5.21
327.14	5.2
327.508	5.19
327.875	5.19
328.243	5.18
328.61	5.17
328.978	5.17
329.346	5.16
329.713	5.17
330.08	5.15
330.448	5.13
330.815	5.13
331.182	5.13
331.55	5.13
331.917	5.11
332.284	5.09
332.651	5.09
333.018	5.1
333.385	5.08
333.752	5.07
334.119	5.07
334.486	5.07
334.853	5.07
335.22	5.07
335.587	5.08
335.954	5.08
336.32	5.08
336.687	5.07
337.054	5.06
337.42	5.06
337.787	5.06
338.153	5.06
338.52	5.05
338.886	5.04
339.253	5.04
339.619	5.04
339.986	5.04
340.352	5.04
340.718	5.04
341.084	5.02
341.451	5.02
341.817	5.03
342.183	5.03
342.549	5.04
342.915	5.03
343.281	5.02
343.647	5.03
344.013	5.04
344.379	5.03
344.745	5.03
345.11	5.03
345.476	5.04
345.842	5.04
346.208	5.04
346.573	5.03
346.939	5.02
347.304	5.03
347.67	5.03
348.035	5.02
348.401	5.03
348.766	5.03
349.132	5.03
349.497	5.02
349.862	5.02
350.228	5.02
350.593	5.01
350.958	5.01
351.323	5.02
351.688	5.03
352.053	5.03
352.418	5.03
352.783	5.02
353.148	5.02
353.513	5.03
353.878	5.04
354.243	5.04
354.608	5.03
354.972	5.04
355.337	5.03
355.702	5.04
356.066	5.04
356.431	5.05
356.795	5.04
357.16	5.03
357.524	5.03
357.889	5.04
358.253	5.03
358.618	5.02
358.982	5.02
359.346	5.02
359.71	5.01
360.075	5.02
360.439	5.01
360.803	5.01
361.167	5.01
361.531	5.01
361.895	5.01
362.259	5.01
362.623	5
362.987	5
363.351	5
363.714	4.99
364.078	4.99
364.442	4.99
364.806	4.99
365.169	4.99
365.533	5
365.896	5
366.26	5
366.623	4.99
366.987	4.99
367.35	4.99
367.714	5
368.077	5
368.44	4.99
368.803	4.99
369.167	4.99
369.53	4.99
369.893	4.98
370.256	4.99
370.619	4.99
370.982	4.99
371.345	4.98
371.708	4.99
372.071	4.99
372.434	4.99
372.797	4.99
373.159	5
373.522	5.01
373.885	5.01
374.247	5.01
374.61	5.01
374.973	5
375.335	5
375.698	4.99
376.06	4.99
376.423	4.99
376.785	4.99
377.147	4.99
377.51	4.99
377.872	4.99
378.234	4.98
378.596	4.98
378.958	4.98
379.321	4.97
379.683	4.97
380.045	4.96
380.407	4.96
380.769	4.95
381.13	4.95
381.492	4.95
381.854	4.95
382.216	4.95
382.578	4.95
382.939	4.95
383.301	4.94
383.663	4.94
384.024	4.94
384.386	4.93
384.747	4.93
385.109	4.93
385.47	4.92
385.832	4.91
386.193	4.92
386.554	4.91
386.916	4.9
387.277	4.9
387.638	4.89
387.999	4.89
388.36	4.89
388.721	4.89
389.082	4.89
389.443	4.89
389.804	4.88
390.165	4.89
390.526	4.89
390.887	4.88
391.248	4.88
391.609	4.88
391.969	4.88
392.33	4.88
392.691	4.88
393.051	4.88
393.412	4.88
393.772	4.87
394.133	4.87
394.493	4.87
394.854	4.87
395.214	4.86
395.574	4.86
395.935	4.86
396.295	4.86
396.655	4.85
397.015	4.85
397.376	4.85
397.736	4.85
398.096	4.85
398.456	4.85
398.816	4.85
399.176	4.85
399.535	4.85
399.895	4.85
400.255	4.85
400.615	4.85
400.975	4.85
401.334	4.85
401.694	4.85
402.054	4.86
402.413	4.85
402.773	4.85
403.132	4.85
403.492	4.85
403.851	4.85
404.211	4.86
404.57	4.86
404.929	4.86
405.288	4.86
405.648	4.86
406.007	4.86
406.366	4.86
406.725	4.85
407.084	4.85
407.443	4.85
407.802	4.86
408.161	4.86
408.52	4.86
408.879	4.86
409.238	4.86
409.596	4.87
409.955	4.87
410.314	4.87
410.673	4.87
411.031	4.88
411.39	4.89
411.748	4.89
412.107	4.9
412.465	4.92
412.824	4.95
413.182	4.97
413.54	5
413.899	5.04
414.257	5.08
414.615	5.13
414.974	5.17
415.332	5.22
415.69	5.27
416.048	5.31
416.406	5.36
416.764	5.39
417.122	5.43
417.48	5.47
417.838	5.5
418.195	5.53
418.553	5.56
418.911	5.58
419.269	5.59
419.626	5.59
419.984	5.58
420.342	5.56
420.699	5.55
421.057	5.53
421.414	5.5
421.772	5.49
422.129	5.48
422.486	5.47
422.844	5.47
423.201	5.47
423.558	5.46
423.915	5.46
424.273	5.46
424.63	5.46
424.987	5.46
425.344	5.46
425.701	5.46
426.058	5.46
426.415	5.46
426.772	5.46
427.128	5.45
427.485	5.44
427.842	5.42
428.199	5.4
428.555	5.38
428.912	5.35
429.269	5.32
429.625	5.29
429.982	5.25
430.338	5.21
430.695	5.18
431.051	5.14
431.407	5.11
431.764	5.09
432.12	5.06
432.476	5.05
432.832	5.04
433.189	5.04
433.545	5.04
433.901	5.05
434.257	5.07
434.613	5.11
434.969	5.13
435.325	5.17
435.681	5.21
436.036	5.24
436.392	5.27
436.748	5.29
437.104	5.3
437.459	5.33
437.815	5.35
438.171	5.38
438.526	5.41
438.882	5.44
439.237	5.49
439.593	5.53
439.948	5.57
440.304	5.61
440.659	5.64
441.014	5.66
441.369	5.69
441.725	5.72
442.08	5.74
442.435	5.76
442.79	5.77
443.145	5.77
443.5	5.77
443.855	5.77
444.21	5.77
444.565	5.76
444.92	5.75
445.275	5.74
445.629	5.73
445.984	5.71
446.339	5.7
446.693	5.68
447.048	5.66
447.403	5.64
447.757	5.61
448.112	5.59
448.466	5.56
448.82	5.53
449.175	5.5
449.529	5.48
449.883	5.45
450.238	5.42
450.592	5.41
450.946	5.4
451.3	5.39
451.654	5.4
452.008	5.4
452.362	5.41
452.716	5.41
453.07	5.41
453.424	5.41
453.778	5.4
454.132	5.39
454.486	5.38
454.839	5.36
455.193	5.33
455.547	5.31
455.9	5.28
456.254	5.26
456.607	5.22
456.961	5.18
457.314	5.16
457.668	5.15
458.021	5.14
458.375	5.13
458.728	5.13
459.081	5.13
459.434	5.14
459.787	5.15
460.141	5.16
460.494	5.17
460.847	5.18
461.2	5.19
461.553	5.2
461.906	5.2
462.259	5.2
462.611	5.21
462.964	5.21
463.317	5.22
463.67	5.22
464.022	5.23
464.375	5.24
464.728	5.25
465.08	5.25
465.433	5.25
465.785	5.24
466.138	5.22
466.49	5.2
466.843	5.17
467.195	5.14
467.547	5.12
467.899	5.08
468.252	5.05
468.604	5.01
468.956	4.99
469.308	4.96
469.66	4.96
470.012	4.95
470.364	4.95
470.716	4.95
471.068	4.97
471.42	4.99
471.772	5.02
472.123	5.03
472.475	5.04
472.827	5.05
473.178	5.06
473.53	5.08
473.882	5.1
474.233	5.12
474.585	5.17
474.936	5.24
475.288	5.35
475.639	5.49
475.99	5.66
476.342	5.84
476.693	6.04
477.044	6.24
477.395	6.45
477.746	6.67
478.097	6.88
478.448	7.11
478.8	7.31
479.15	7.51
479.501	7.69
479.852	7.85
480.203	8.02
480.554	8.17
480.905	8.31
481.255	8.45
481.606	8.59
481.957	8.71
482.307	8.83
482.658	8.94
483.009	9.05
483.359	9.15
483.709	9.26
484.06	9.35
484.41	9.45
484.761	9.54
485.111	9.63
485.461	9.72
485.811	9.8
486.162	9.87
486.512	9.93
486.862	9.98
487.212	10.01
487.562	10.03
487.912	10.04
488.262	10.04
488.612	10.04
488.961	10.01
489.311	9.96
489.661	9.87
490.011	9.76
490.36	9.63
490.71	9.48
491.06	9.31
491.409	9.14
491.759	8.95
492.108	8.75
492.458	8.56
492.807	8.35
493.157	8.15
493.506	7.95
493.855	7.77
494.204	7.59
494.554	7.42
494.903	7.26
495.252	7.11
495.601	6.97
495.95	6.83
496.299	6.69
496.648	6.57
496.997	6.45
497.346	6.34
497.695	6.23
498.043	6.12
498.392	6.02
498.741	5.92
499.09	5.83
499.438	5.73
499.787	5.65
500.135	5.56
500.484	5.49
500.832	5.43
501.181	5.38
501.529	5.35
501.878	5.33
502.226	5.32
502.574	5.31
502.923	5.31
503.271	5.31
503.619	5.31
503.967	5.3
504.315	5.3
504.663	5.29
505.011	5.29
505.359	5.28
505.707	5.27
506.055	5.27
506.403	5.27
506.751	5.27
507.098	5.27
507.446	5.28
507.794	5.28
508.141	5.3
508.489	5.31
508.837	5.33
509.184	5.34
509.531	5.35
509.879	5.37
510.226	5.38
510.574	5.4
510.921	5.43
511.268	5.45
511.616	5.47
511.963	5.5
512.31	5.53
512.657	5.55
513.004	5.58
513.351	5.6
513.698	5.62
514.045	5.63
514.392	5.63
514.739	5.63
515.086	5.63
515.432	5.63
515.779	5.62
516.126	5.62
516.473	5.62
516.819	5.62
517.166	5.63
517.512	5.64
517.859	5.65
518.205	5.68
518.552	5.71
518.898	5.75
519.245	5.8
519.591	5.87
519.937	5.96
520.283	6.08
520.629	6.21
520.976	6.34
521.322	6.49
521.668	6.64
522.014	6.8
522.36	6.95
522.706	7.1
523.052	7.24
523.398	7.37
523.743	7.49
524.089	7.59
524.435	7.67
524.781	7.75
525.126	7.83
525.472	7.9
525.817	7.97
526.163	8.03
526.509	8.08
526.854	8.14
527.199	8.19
527.545	8.25
527.89	8.31
528.235	8.37
528.581	8.42
528.926	8.48
529.271	8.52
529.616	8.56
529.961	8.6
530.306	8.64
530.651	8.67
530.996	8.69
531.341	8.71
531.686	8.72
532.031	8.72
532.376	8.72
532.721	8.72
533.065	8.73
533.41	8.74
533.755	8.73
534.099	8.71
534.444	8.68
534.788	8.63
535.133	8.59
535.477	8.53
535.822	8.47
536.166	8.4
536.51	8.31
536.855	8.22
537.199	8.12
537.543	8.02
537.887	7.94
538.231	7.86
538.576	7.79
538.92	7.72
539.264	7.65
539.608	7.58
539.951	7.5
540.295	7.43
540.639	7.35
540.983	7.27
541.327	7.19
541.671	7.1
542.014	7.03
542.358	6.95
542.701	6.9
543.045	6.86
543.389	6.83
543.732	6.8
544.075	6.78
544.419	6.75
544.762	6.74
545.105	6.72
545.449	6.71
545.792	6.69
546.135	6.69
546.478	6.67
546.821	6.64
547.165	6.6
547.508	6.55
547.851	6.49
548.194	6.42
548.536	6.34
548.879	6.26
549.222	6.17
549.565	6.08
549.908	5.99
550.25	5.91
550.593	5.83
550.936	5.78
551.278	5.73
551.621	5.69
551.963	5.65
552.306	5.62
552.648	5.6
552.991	5.58
553.333	5.56
553.675	5.55
554.017	5.54
554.36	5.54
554.702	5.54
555.044	5.55
555.386	5.57
555.728	5.59
556.07	5.61
556.412	5.63
556.754	5.64
557.096	5.64
557.438	5.64
557.78	5.65
558.121	5.65
558.463	5.65
558.805	5.65
559.147	5.65
559.488	5.66
559.83	5.66
560.171	5.67
560.513	5.67
560.854	5.67
561.196	5.68
561.537	5.68
561.878	5.68
562.22	5.68
562.561	5.68
562.902	5.68
563.243	5.69
563.584	5.69
563.925	5.69
564.266	5.69
564.607	5.7
564.948	5.7
565.289	5.7
565.63	5.7
565.971	5.7
566.312	5.71
566.653	5.71
566.993	5.72
567.334	5.72
567.675	5.72
568.015	5.73
568.356	5.74
568.696	5.74
569.037	5.74
569.377	5.74
569.718	5.75
570.058	5.75
570.398	5.75
570.739	5.75
571.079	5.75
571.419	5.75
571.759	5.75
572.099	5.75
572.439	5.75
572.779	5.75
573.119	5.75
573.459	5.75
573.799	5.75
574.139	5.74
574.479	5.74
574.819	5.74
575.158	5.75
575.498	5.74
575.838	5.74
576.177	5.74
576.517	5.74
576.856	5.74
577.196	5.74
577.535	5.74
577.875	5.74
578.214	5.74
578.553	5.74
578.893	5.74
579.232	5.74
579.571	5.74
579.91	5.74
580.25	5.74
580.589	5.74
580.928	5.73
581.267	5.73
581.606	5.73
581.945	5.73
582.283	5.73
582.622	5.73
582.961	5.73
583.3	5.73
583.639	5.73
583.977	5.73
584.316	5.73
584.654	5.73
584.993	5.74
585.332	5.74
585.67	5.74
586.008	5.74
586.347	5.75
586.685	5.75
587.024	5.75
587.362	5.75
587.7	5.75
588.038	5.76
588.376	5.76
588.715	5.76
589.053	5.75
589.391	5.76
589.729	5.77
590.067	5.77
590.404	5.77
590.742	5.78
591.08	5.78
591.418	5.79
591.756	5.79
592.093	5.79
592.431	5.79
592.769	5.8
593.106	5.8
593.444	5.81
593.781	5.8
594.119	5.8
594.456	5.81
594.793	5.81
595.131	5.81
595.468	5.81
595.805	5.81
596.143	5.81
596.48	5.81
596.817	5.81
597.154	5.81
597.491	5.82
597.828	5.82
598.165	5.82
598.502	5.82
598.839	5.83
599.176	5.83
599.512	5.83
599.849	5.84
600.186	5.84
600.523	5.84
600.859	5.84
601.196	5.85
601.532	5.85
601.869	5.85
602.205	5.85
602.542	5.86
602.878	5.86
603.215	5.87
603.551	5.86
603.887	5.87
604.223	5.87
604.56	5.87
604.896	5.88
605.232	5.88
605.568	5.88
605.904	5.88
606.24	5.89
606.576	5.89
606.912	5.88
607.248	5.88
607.583	5.88
607.919	5.88
608.255	5.89
608.591	5.89
608.926	5.89
609.262	5.9
609.597	5.89
609.933	5.9
610.268	5.9
610.604	5.9
610.939	5.9
611.275	5.9
611.61	5.9
611.945	5.91
612.281	5.91
612.616	5.91
612.951	5.9
613.286	5.9
613.621	5.9
613.956	5.9
614.291	5.9
614.626	5.9
614.961	5.9
615.296	5.91
615.631	5.9
615.966	5.91
616.3	5.91
616.635	5.9
616.97	5.9
617.304	5.91
617.639	5.91
617.973	5.9
618.308	5.9
618.642	5.9
618.977	5.91
619.311	5.91
619.646	5.91
619.98	5.9
620.314	5.91
620.648	5.92
620.983	5.92
621.317	5.92
621.651	5.93
621.985	5.93
622.319	5.93
622.653	5.93
622.987	5.93
623.321	5.94
623.655	5.94
623.988	5.95
624.322	5.95
624.656	5.96
624.99	5.96
625.323	5.96
625.657	5.96
625.99	5.97
626.324	5.97
626.657	5.97
626.991	5.97
627.324	5.97
627.658	5.97
627.991	5.98
628.324	5.98
628.657	5.98
628.991	5.98
629.324	5.99
629.657	6
629.99	6
630.323	6.01
630.656	6.01
630.989	6.01
631.322	6.01
631.655	6.03
631.987	6.03
632.32	6.03
632.653	6.03
632.986	6.04
633.318	6.05
633.651	6.05
633.984	6.05
634.316	6.05
634.649	6.06
634.981	6.06
635.313	6.06
635.646	6.06
635.978	6.06
636.31	6.06
636.643	6.06
636.975	6.06
637.307	6.06
637.639	6.07
637.971	6.07
638.303	6.07
638.635	6.07
638.967	6.08
639.299	6.07
639.631	6.08
639.963	6.09
640.295	6.1
640.626	6.1
640.958	6.11
641.29	6.12
641.621	6.12
641.953	6.11
642.285	6.12
642.616	6.12
642.948	6.12
643.279	6.12
643.61	6.13
643.942	6.14
644.273	6.14
644.604	6.15
644.936	6.16
645.267	6.14
645.598	6.15
645.929	6.15
646.26	6.16
646.591	6.16
646.922	6.16
647.253	6.17
647.584	6.17
647.915	6.18
648.245	6.18
648.576	6.19
648.907	6.19
649.238	6.2
649.568	6.21
649.899	6.2
650.229	6.21
650.56	6.21
650.89	6.22
651.221	6.22
651.551	6.23
651.882	6.23
652.212	6.23
652.542	6.24
652.872	6.25
653.203	6.26
653.533	6.26
653.863	6.26
654.193	6.26
654.523	6.26
654.853	6.26
655.183	6.26
655.513	6.27
655.843	6.28
656.172	6.28
656.502	6.29
656.832	6.29
657.162	6.29
657.491	6.29
657.821	6.29
658.15	6.3
658.48	6.3
658.809	6.31
659.139	6.32
659.468	6.32
659.798	6.32
660.127	6.33
660.456	6.33
660.785	6.33
661.115	6.33
661.444	6.34
661.773	6.35
662.102	6.35
662.431	6.36
662.76	6.36
663.089	6.37
663.418	6.39
663.747	6.4
664.076	6.4
664.404	6.41
664.733	6.42
665.062	6.43
665.39	6.44
665.719	6.44
666.048	6.46
666.376	6.45
666.705	6.45
667.033	6.45
667.362	6.47
667.69	6.47
668.018	6.47
668.347	6.48
668.675	6.49
669.003	6.49
669.331	6.48
669.659	6.47
669.987	6.47
670.315	6.49
670.643	6.49
670.971	6.49
671.299	6.49
671.627	6.49
671.955	6.49
672.283	6.49
672.61	6.49
672.938	6.48
673.266	6.48
673.593	6.48
673.921	6.48
674.249	6.49
674.576	6.49
674.904	6.49
675.231	6.5
675.558	6.5
675.886	6.51
676.213	6.51
676.54	6.51
676.867	6.5
677.195	6.5
677.522	6.5
677.849	6.5
678.176	6.5
678.503	6.49
678.83	6.5
679.157	6.51
679.484	6.5
679.81	6.51
680.137	6.51
680.464	6.52
680.791	6.52
681.117	6.54
681.444	6.56
681.771	6.56
682.097	6.56
682.424	6.57
682.75	6.57
683.077	6.58
683.403	6.58
683.729	6.59
684.056	6.59
684.382	6.59
684.708	6.6
685.034	6.62
685.36	6.62
685.686	6.62
686.012	6.62
686.339	6.64
686.664	6.64
686.99	6.65
687.316	6.66
687.642	6.67
687.968	6.68
688.294	6.68
688.619	6.68
688.945	6.68
689.271	6.67
689.596	6.68
689.922	6.69
690.247	6.7
690.573	6.7
690.898	6.71
691.224	6.73
691.549	6.74
691.874	6.75
692.2	6.76
692.525	6.76
692.85	6.77
693.175	6.78
693.5	6.79
693.825	6.8
694.15	6.8
694.475	6.8
694.8	6.8
695.125	6.8
695.45	6.81
695.775	6.82
696.099	6.84
696.424	6.85
696.749	6.84
697.073	6.84
697.398	6.85
697.723	6.86
698.047	6.87
698.372	6.87
698.696	6.87
699.02	6.88
699.345	6.88
699.669	6.9
699.993	6.91
700.318	6.92
700.642	6.91
700.966	6.91
701.29	6.92
701.614	6.92
701.938	6.93
702.262	6.94
702.586	6.95
702.91	6.95
703.234	6.95
703.557	6.96
703.881	6.98
704.205	6.97
704.529	6.98
704.852	6.98
705.176	6.99
705.499	6.98
705.823	6.98
706.146	6.98
706.47	6.97
706.793	6.97
707.117	6.97
707.44	6.98
707.763	6.99
708.086	7
708.409	7
708.733	7.01
709.056	7.02
709.379	7.02
709.702	7.02
710.025	7.03
710.348	7.04
710.671	7.05
710.993	7.04
711.316	7.05
711.639	7.06
711.962	7.07
712.284	7.08
712.607	7.1
712.93	7.08
713.252	7.07
713.575	7.07
713.897	7.08
714.22	7.08
714.542	7.09
714.864	7.09
715.187	7.1
715.509	7.1
715.831	7.09
716.153	7.1
716.475	7.11
716.798	7.1
717.12	7.11
717.442	7.13
717.764	7.13
718.085	7.14
718.407	7.15
718.729	7.16
719.051	7.17
719.373	7.18
719.695	7.19
720.016	7.2
720.338	7.2
720.659	7.22
720.981	7.21
721.302	7.21
721.624	7.23
721.945	7.22
722.267	7.23
722.588	7.25
722.909	7.25
723.231	7.26
723.552	7.24
723.873	7.26
724.194	7.28
724.515	7.28
724.836	7.28
725.157	7.29
725.478	7.28
725.799	7.3
726.12	7.32
726.441	7.33
726.762	7.34
727.083	7.35
727.403	7.35
727.724	7.37
728.045	7.39
728.365	7.4
728.686	7.43
729.006	7.46
729.327	7.47
729.647	7.47
729.967	7.49
730.288	7.5
730.608	7.5
730.928	7.5
731.249	7.5
731.569	7.49
731.889	7.49
732.209	7.5
732.529	7.49
732.849	7.49
733.169	7.51
733.489	7.53
733.809	7.53
734.129	7.53
734.448	7.55
734.768	7.56
735.088	7.58
735.408	7.58
735.727	7.59
736.047	7.59
736.366	7.6
736.686	7.62
737.005	7.64
737.325	7.64
737.644	7.63
737.963	7.63
738.283	7.62
738.602	7.63
738.921	7.63
739.24	7.67
739.56	7.67
739.879	7.67
740.198	7.68
740.517	7.7
740.836	7.69
741.155	7.7
741.473	7.68
741.792	7.66
742.111	7.64
742.43	7.65
742.748	7.67
743.067	7.7
743.386	7.72
743.704	7.71
744.023	7.71
744.341	7.71
744.66	7.72
744.978	7.73
745.297	7.75
745.615	7.79
745.933	7.79
746.252	7.79
746.57	7.79
746.888	7.79
747.206	7.8
747.524	7.79
747.842	7.8
748.16	7.78
748.478	7.78
748.796	7.79
749.114	7.8
749.432	7.82
749.749	7.83
750.067	7.82
750.385	7.84
750.703	7.88
751.02	7.9
751.338	7.92
751.655	7.93
751.973	7.95
752.29	7.93
752.608	7.94
752.925	7.95
753.242	7.98
753.56	7.97
753.877	7.98
754.194	8.01
754.511	8.03
754.828	8.04
755.145	8.07
755.462	8.09
755.779	8.08
756.096	8.07
756.413	8.07
756.73	8.12
757.047	8.09
757.364	8.1
757.68	8.13
757.997	8.17
758.314	8.17
758.63	8.18
758.947	8.2
759.264	8.22
759.58	8.23
759.896	8.28
760.213	8.29
760.529	8.33
760.846	8.33
761.162	8.34
761.478	8.38
761.794	8.39
762.11	8.4
762.426	8.41
762.743	8.42
763.059	8.44
763.375	8.43
763.69	8.43
764.006	8.45
764.322	8.48
764.638	8.49
764.954	8.49
765.27	8.5
765.585	8.52
765.901	8.52
766.216	8.52
766.532	8.54
766.848	8.56
767.163	8.55
767.478	8.54
767.794	8.56
768.109	8.55
768.424	8.54
768.74	8.54
769.055	8.55
769.37	8.55
769.685	8.53
770	8.59
770.315	8.61
770.63	8.62
770.945	8.63
771.26	8.64
771.575	8.64
771.89	8.67
772.205	8.66
772.52	8.69
772.834	8.66
773.149	8.67
773.464	8.65
773.778	8.68
774.093	8.69
774.407	8.69
774.722	8.7
775.036	8.7
775.351	8.71
775.665	8.71
775.979	8.7
776.293	8.72
776.608	8.74
776.922	8.74
777.236	8.73
777.55	8.75
777.864	8.74
778.178	8.76
778.492	8.76
778.806	8.78
779.12	8.79
779.434	8.8
779.747	8.82
780.061	8.83
780.375	8.87
780.689	8.88
781.002	8.92
781.316	8.92
781.629	8.94
781.943	8.96
782.256	8.97
782.57	8.98
782.883	8.94
783.196	8.94
783.51	8.95
783.823	8.96
784.136	8.97
784.449	9.02
784.762	9.01
785.075	9.03
785.388	9.04
785.701	9.04
786.014	9.08
786.327	9.12
786.64	9.08
786.953	9.13
787.266	9.14
787.578	9.19
787.891	9.23
788.204	9.22
788.516	9.26
788.829	9.29
789.141	9.31
789.454	9.3
789.766	9.36
790.079	9.38
790.391	9.37
790.703	9.44
791.016	9.45
791.328	9.46
791.64	9.48
791.952	9.46
792.264	9.46
792.576	9.44
792.888	9.47
793.2	9.48
793.512	9.49
793.824	9.49
794.136	9.49
794.448	9.49
794.76	9.53
795.071	9.56
795.383	9.56
795.695	9.61
796.006	9.63
796.318	9.62
796.629	9.6
796.941	9.59
797.252	9.59
797.564	9.59
797.875	9.59
798.186	9.65
798.497	9.64
798.809	9.61
799.12	9.57
799.431	9.64
799.742	9.61
800.053	9.66
800.364	9.6
800.675	9.61
800.986	9.65
801.297	9.64
801.608	9.63
801.918	9.65
802.229	9.68
802.54	9.63
802.851	9.65
803.161	9.69
803.472	9.66
803.782	9.64
804.093	9.67
804.403	9.69
804.714	9.75
805.024	9.78
805.334	9.78
805.645	9.78
805.955	9.8
806.265	9.84
806.575	9.84
806.885	9.82
807.195	9.83
807.505	9.85
807.815	9.9
808.125	9.94
808.435	9.95
808.745	9.93
809.055	9.95
809.365	10.03
809.674	10.06
809.984	10.08
810.294	10.18
810.603	10.15
810.913	10.14
811.222	10.19
811.532	10.2
811.841	10.21
812.151	10.21
812.46	10.24
812.769	10.19
813.079	10.27
813.388	10.25
813.697	10.22
814.006	10.27
814.315	10.22
814.624	10.27
814.933	10.3
815.242	10.3
815.551	10.31
815.86	10.34
816.169	10.41
816.478	10.53
816.786	10.58
817.095	10.59
817.404	10.58
817.712	10.61
818.021	10.63
818.33	10.64
818.638	10.67
818.947	10.7
819.255	10.72
819.563	10.76
819.872	10.79
820.18	10.78
820.488	10.78
820.796	10.79
821.105	10.79
821.413	10.82
821.721	10.86
822.029	10.84
822.337	10.85
822.645	10.85
822.953	10.85
823.26	10.87
823.568	10.89
823.876	10.9
824.184	10.91
824.491	10.94
824.799	10.95
825.107	10.95
825.414	10.98
825.722	10.97
826.029	11
826.337	11.03
826.644	11.05
826.951	11.07
827.259	11.07
827.566	11.06
827.873	11.06
828.18	11.07
828.488	11.09
828.795	11.09
829.102	11.06
829.409	11.06
829.716	11.08
830.023	11.12
830.329	11.13
830.636	11.15
830.943	11.18
831.25	11.19
831.557	11.2
831.863	11.24
832.17	11.27
832.476	11.25
832.783	11.28
833.089	11.28
833.396	11.3
833.702	11.33
834.009	11.34
834.315	11.32
834.621	11.34
834.928	11.36
835.234	11.37
835.54	11.35
835.846	11.37
836.152	11.34
836.458	11.33
836.764	11.34
837.07	11.34
837.376	11.34
837.682	11.35
837.988	11.29
838.293	11.29
838.599	11.24
838.905	11.17
839.211	11.12
839.516	11.08
839.822	11.08
840.127	11.12
840.433	11.16
840.738	11.16
841.044	11.13
841.349	11.06
841.654	11.11
841.959	11.11
842.265	11.1
842.57	11.04
842.875	11.05
843.18	10.94
843.485	10.91
843.79	10.96
844.095	10.97
844.4	10.99
844.705	11.09
845.01	11.13
845.315	11.06
845.619	11.08
845.924	11.12
846.229	11.13
846.533	11.11
846.838	11.22
847.142	11.29
847.447	11.33
847.751	11.41
848.056	11.49
848.36	11.5
848.664	11.55
848.969	11.69
849.273	11.72
849.577	11.69
849.881	11.75
850.185	11.8
850.489	11.83
850.794	11.97
851.097	12.07
851.401	12.2
851.705	12.2
852.009	12.41
852.313	12.5
852.617	12.48
852.92	12.53
853.224	12.52
853.528	12.4
853.831	12.62
854.135	12.64
854.438	12.57
854.742	12.6
855.045	12.67
855.349	12.77
855.652	13.02
855.955	13.07
856.259	13
856.562	12.99
856.865	13.07
857.168	12.96
857.471	13.03
857.774	13.2
858.077	13.17
858.38	13.26
858.683	13.37
858.986	13.4
859.289	13.2
859.592	13.3
859.894	13.26
860.197	13.24
860.5	13.3
860.802	13.36
861.105	13.38
861.407	13.3
861.71	13.3
862.012	13.32
862.315	13.34
862.617	13.43
862.919	13.68
863.222	13.63
863.524	13.61
863.826	13.64
864.128	13.61
864.43	13.54
864.732	13.43
865.034	13.44
865.336	13.36
865.638	13.41
865.94	13.59
866.242	13.52
866.544	13.64
866.846	13.68
867.147	13.53
867.449	13.64
867.751	13.62
868.052	13.59
868.354	13.54
868.655	13.46
868.957	13.44
869.258	13.3
869.56	13.4
869.861	13.46
870.162	13.5
870.463	13.7
870.765	13.78
871.066	13.7
871.367	13.51
871.668	13.54
871.969	13.64
872.27	13.69
872.571	13.81
872.872	13.77
873.173	13.84
873.473	13.82
873.774	13.83
874.075	13.89
874.376	13.95
874.676	13.91
874.977	13.9
875.277	13.73
875.578	13.79
875.878	13.81
876.179	13.71
876.479	13.9
876.78	14.02
877.08	14.16
877.38	14.18
877.68	14.33
877.981	14.3
878.281	14.3
878.581	14.42
