Data from UWBM86267_Reflection_00012.txt Node
Date: Sun May 02 14:08:40 EDT 2021
User: vgr7
Spectrometer: USB2G7710
Scans to average: 10
Trigger mode: 4
Integration Time (sec): 1.000000E-1
Electric dark correction enabled: true
Boxcar width: 20
XAxis mode: Wavelengths
Number of Pixels in Spectrum: 2048
>>>>>Begin Spectral Data<<<<<
177.721	213.71
178.105	243.5
178.488	259.85
178.871	343.28
179.254	201.65
179.636	177.98
180.019	136.84
180.402	141.17
180.785	91.17
181.168	82.14
181.55	72.92
181.933	67.34
182.316	61.11
182.698	56.33
183.081	52.81
183.463	47.1
183.846	43.15
184.228	45.34
184.611	45.5
184.993	40.26
185.376	41.91
185.758	40.83
186.14	40.26
186.522	40.4
186.904	35.98
187.287	36.24
187.669	37.4
188.051	37.45
188.433	37.56
188.815	35.92
189.197	38.83
189.579	36.35
189.961	36.31
190.342	34.34
190.724	35.28
191.106	33.82
191.488	34.64
191.869	32.41
192.251	30.54
192.633	30.17
193.014	28.27
193.396	23.51
193.777	25.48
194.159	26.07
194.54	24.2
194.922	23.74
195.303	22.57
195.684	23.29
196.065	23.07
196.447	24.14
196.828	23.52
197.209	22.23
197.59	20.88
197.971	20.89
198.352	20.86
198.733	21.23
199.114	22.48
199.495	23.77
199.876	22.11
200.257	21.18
200.638	21.27
201.018	20.87
201.399	21.88
201.78	22.09
202.16	22.09
202.541	21.97
202.922	21.26
203.302	20.21
203.683	18.44
204.063	18.7
204.444	18.42
204.824	19.46
205.204	19.86
205.585	19.54
205.965	22.06
206.345	23.03
206.725	24.06
207.106	23.52
207.486	24.1
207.866	24.6
208.246	22.9
208.626	22.56
209.006	23.46
209.386	22.13
209.766	19.8
210.145	19.5
210.525	19.39
210.905	20.35
211.285	19.9
211.664	19.06
212.044	18.71
212.424	18.38
212.803	17.93
213.183	15.93
213.562	16.86
213.942	17.25
214.321	15.95
214.701	16.21
215.08	15.81
215.459	16.47
215.838	16
216.218	15.97
216.597	14.57
216.976	14
217.355	12.87
217.734	13.14
218.113	13.52
218.492	13.65
218.871	12.92
219.25	13.93
219.629	12.43
220.008	12.91
220.387	10.12
220.766	11.5
221.144	11.21
221.523	10.02
221.902	8.74
222.28	8.15
222.659	8.05
223.037	7.69
223.416	7.43
223.794	7.41
224.173	7.56
224.551	7.12
224.929	7.94
225.308	8.51
225.686	7.93
226.064	7.71
226.442	7.71
226.821	7.69
227.199	7.88
227.577	7.44
227.955	7.58
228.333	7.62
228.711	7.84
229.089	7.29
229.467	6.73
229.845	6.78
230.222	6.43
230.6	6.19
230.978	5.98
231.356	6.05
231.733	5.96
232.111	6.02
232.488	5.83
232.866	5.8
233.243	5.56
233.621	5.55
233.998	5.51
234.376	5.36
234.753	5.03
235.13	5.06
235.508	5.02
235.885	4.99
236.262	4.97
236.639	4.86
237.016	4.79
237.393	4.8
237.77	4.79
238.147	4.74
238.524	4.63
238.901	4.5
239.278	4.54
239.655	4.51
240.032	4.48
240.409	4.38
240.785	4.35
241.162	4.3
241.539	4.3
241.915	4.35
242.292	4.36
242.668	4.33
243.045	4.34
243.421	4.32
243.798	4.32
244.174	4.39
244.551	4.39
244.927	4.44
245.303	4.44
245.679	4.44
246.056	4.4
246.432	4.4
246.808	4.38
247.184	4.4
247.56	4.42
247.936	4.42
248.312	4.41
248.688	4.41
249.064	4.4
249.44	4.38
249.815	4.35
250.191	4.3
250.567	4.31
250.943	4.27
251.318	4.24
251.694	4.21
252.069	4.23
252.445	4.21
252.82	4.17
253.196	4.15
253.571	4.14
253.947	4.16
254.322	4.15
254.697	4.11
255.073	4.1
255.448	4.1
255.823	4.08
256.198	4.06
256.573	4.06
256.948	4.08
257.323	4.03
257.698	3.98
258.073	3.95
258.448	3.95
258.823	3.93
259.198	3.92
259.573	3.88
259.948	3.88
260.322	3.86
260.697	3.83
261.072	3.81
261.446	3.82
261.821	3.8
262.195	3.79
262.57	3.79
262.944	3.77
263.319	3.77
263.693	3.75
264.067	3.75
264.442	3.73
264.816	3.72
265.19	3.73
265.564	3.77
265.938	3.75
266.313	3.76
266.687	3.75
267.061	3.74
267.435	3.74
267.809	3.73
268.183	3.72
268.556	3.72
268.93	3.7
269.304	3.7
269.678	3.71
270.051	3.71
270.425	3.68
270.799	3.65
271.172	3.66
271.546	3.67
271.919	3.69
272.293	3.67
272.666	3.68
273.04	3.7
273.413	3.73
273.787	3.73
274.16	3.72
274.533	3.72
274.906	3.72
275.279	3.72
275.653	3.72
276.026	3.73
276.399	3.73
276.772	3.74
277.145	3.74
277.518	3.76
277.891	3.77
278.263	3.76
278.636	3.76
279.009	3.76
279.382	3.77
279.755	3.78
280.127	3.79
280.5	3.81
280.872	3.81
281.245	3.8
281.617	3.82
281.99	3.82
282.362	3.82
282.735	3.82
283.107	3.83
283.479	3.84
283.852	3.87
284.224	3.89
284.596	3.88
284.968	3.9
285.34	3.92
285.713	3.93
286.085	3.96
286.457	3.97
286.829	3.98
287.201	3.99
287.572	4
287.944	4.02
288.316	4.02
288.688	4.02
289.06	4.05
289.431	4.07
289.803	4.1
290.175	4.11
290.546	4.13
290.918	4.17
291.289	4.19
291.661	4.22
292.032	4.23
292.403	4.27
292.775	4.28
293.146	4.31
293.517	4.35
293.889	4.37
294.26	4.41
294.631	4.44
295.002	4.49
295.373	4.52
295.744	4.54
296.115	4.58
296.486	4.63
296.857	4.67
297.228	4.71
297.599	4.74
297.97	4.79
298.34	4.82
298.711	4.86
299.082	4.89
299.452	4.94
299.823	4.98
300.194	5.03
300.564	5.08
300.935	5.13
301.305	5.18
301.676	5.23
302.046	5.26
302.416	5.3
302.787	5.34
303.157	5.38
303.527	5.44
303.897	5.5
304.267	5.57
304.637	5.62
305.008	5.67
305.378	5.76
305.748	5.83
306.117	5.88
306.487	5.95
306.857	6.02
307.227	6.08
307.597	6.15
307.967	6.21
308.336	6.27
308.706	6.32
309.076	6.39
309.445	6.45
309.815	6.51
310.184	6.56
310.554	6.61
310.923	6.68
311.293	6.73
311.662	6.78
312.031	6.85
312.401	6.92
312.77	6.99
313.139	7.03
313.508	7.1
313.877	7.16
314.246	7.22
314.616	7.27
314.985	7.32
315.353	7.38
315.722	7.42
316.091	7.49
316.46	7.54
316.829	7.61
317.198	7.68
317.567	7.76
317.935	7.83
318.304	7.91
318.672	7.97
319.041	8.05
319.41	8.1
319.778	8.18
320.147	8.24
320.515	8.28
320.883	8.33
321.252	8.39
321.62	8.45
321.988	8.52
322.357	8.57
322.725	8.63
323.093	8.68
323.461	8.73
323.829	8.77
324.197	8.81
324.565	8.85
324.933	8.9
325.301	8.93
325.669	8.99
326.037	9
326.405	9.04
326.772	9.07
327.14	9.09
327.508	9.1
327.875	9.13
328.243	9.16
328.61	9.18
328.978	9.21
329.346	9.24
329.713	9.28
330.08	9.3
330.448	9.31
330.815	9.34
331.182	9.35
331.55	9.38
331.917	9.41
332.284	9.4
332.651	9.42
333.018	9.45
333.385	9.48
333.752	9.51
334.119	9.53
334.486	9.56
334.853	9.58
335.22	9.6
335.587	9.64
335.954	9.66
336.32	9.67
336.687	9.67
337.054	9.68
337.42	9.69
337.787	9.7
338.153	9.71
338.52	9.71
338.886	9.72
339.253	9.73
339.619	9.75
339.986	9.75
340.352	9.76
340.718	9.76
341.084	9.79
341.451	9.8
341.817	9.81
342.183	9.81
342.549	9.81
342.915	9.81
343.281	9.81
343.647	9.82
344.013	9.83
344.379	9.82
344.745	9.82
345.11	9.83
345.476	9.83
345.842	9.84
346.208	9.83
346.573	9.83
346.939	9.82
347.304	9.84
347.67	9.82
348.035	9.82
348.401	9.82
348.766	9.81
349.132	9.8
349.497	9.79
349.862	9.79
350.228	9.77
350.593	9.75
350.958	9.74
351.323	9.73
351.688	9.72
352.053	9.71
352.418	9.69
352.783	9.67
353.148	9.64
353.513	9.62
353.878	9.61
354.243	9.57
354.608	9.54
354.972	9.52
355.337	9.49
355.702	9.47
356.066	9.43
356.431	9.4
356.795	9.38
357.16	9.35
357.524	9.33
357.889	9.3
358.253	9.27
358.618	9.23
358.982	9.2
359.346	9.18
359.71	9.14
360.075	9.11
360.439	9.07
360.803	9.04
361.167	9.02
361.531	8.99
361.895	8.95
362.259	8.91
362.623	8.88
362.987	8.84
363.351	8.8
363.714	8.76
364.078	8.71
364.442	8.67
364.806	8.62
365.169	8.58
365.533	8.53
365.896	8.47
366.26	8.42
366.623	8.37
366.987	8.31
367.35	8.26
367.714	8.21
368.077	8.16
368.44	8.09
368.803	8.03
369.167	7.96
369.53	7.89
369.893	7.82
370.256	7.75
370.619	7.68
370.982	7.61
371.345	7.53
371.708	7.47
372.071	7.4
372.434	7.34
372.797	7.28
373.159	7.22
373.522	7.16
373.885	7.1
374.247	7.02
374.61	6.96
374.973	6.89
375.335	6.83
375.698	6.75
376.06	6.69
376.423	6.62
376.785	6.57
377.147	6.5
377.51	6.44
377.872	6.37
378.234	6.31
378.596	6.24
378.958	6.18
379.321	6.12
379.683	6.07
380.045	6.02
380.407	5.97
380.769	5.92
381.13	5.86
381.492	5.81
381.854	5.77
382.216	5.72
382.578	5.67
382.939	5.63
383.301	5.58
383.663	5.54
384.024	5.5
384.386	5.46
384.747	5.41
385.109	5.37
385.47	5.34
385.832	5.29
386.193	5.25
386.554	5.21
386.916	5.16
387.277	5.12
387.638	5.08
387.999	5.04
388.36	5.01
388.721	4.98
389.082	4.95
389.443	4.92
389.804	4.88
390.165	4.85
390.526	4.83
390.887	4.8
391.248	4.77
391.609	4.74
391.969	4.71
392.33	4.69
392.691	4.66
393.051	4.63
393.412	4.61
393.772	4.58
394.133	4.55
394.493	4.53
394.854	4.5
395.214	4.46
395.574	4.44
395.935	4.41
396.295	4.38
396.655	4.35
397.015	4.32
397.376	4.3
397.736	4.27
398.096	4.24
398.456	4.21
398.816	4.19
399.176	4.16
399.535	4.14
399.895	4.12
400.255	4.1
400.615	4.08
400.975	4.05
401.334	4.03
401.694	4.02
402.054	4
402.413	3.98
402.773	3.96
403.132	3.95
403.492	3.93
403.851	3.91
404.211	3.9
404.57	3.89
404.929	3.87
405.288	3.86
405.648	3.85
406.007	3.84
406.366	3.83
406.725	3.81
407.084	3.8
407.443	3.79
407.802	3.79
408.161	3.77
408.52	3.77
408.879	3.76
409.238	3.75
409.596	3.74
409.955	3.73
410.314	3.73
410.673	3.72
411.031	3.72
411.39	3.71
411.748	3.71
412.107	3.7
412.465	3.71
412.824	3.72
413.182	3.73
413.54	3.74
413.899	3.75
414.257	3.77
414.615	3.8
414.974	3.82
415.332	3.85
415.69	3.87
416.048	3.89
416.406	3.92
416.764	3.93
417.122	3.95
417.48	3.97
417.838	3.99
418.195	4
418.553	4.01
418.911	4.02
419.269	4.02
419.626	4.01
419.984	4
420.342	3.98
420.699	3.96
421.057	3.94
421.414	3.92
421.772	3.9
422.129	3.89
422.486	3.88
422.844	3.87
423.201	3.86
423.558	3.86
423.915	3.85
424.273	3.85
424.63	3.84
424.987	3.84
425.344	3.83
425.701	3.82
426.058	3.82
426.415	3.81
426.772	3.81
427.128	3.8
427.485	3.78
427.842	3.77
428.199	3.75
428.555	3.73
428.912	3.71
429.269	3.68
429.625	3.66
429.982	3.62
430.338	3.6
430.695	3.57
431.051	3.54
431.407	3.52
431.764	3.5
432.12	3.48
432.476	3.47
432.832	3.46
433.189	3.46
433.545	3.46
433.901	3.47
434.257	3.48
434.613	3.5
434.969	3.52
435.325	3.54
435.681	3.58
436.036	3.59
436.392	3.61
436.748	3.63
437.104	3.63
437.459	3.65
437.815	3.66
438.171	3.68
438.526	3.7
438.882	3.73
439.237	3.76
439.593	3.79
439.948	3.81
440.304	3.84
440.659	3.86
441.014	3.87
441.369	3.9
441.725	3.91
442.08	3.93
442.435	3.93
442.79	3.94
443.145	3.94
443.5	3.94
443.855	3.94
444.21	3.94
444.565	3.93
444.92	3.92
445.275	3.92
445.629	3.91
445.984	3.9
446.339	3.88
446.693	3.87
447.048	3.85
447.403	3.84
447.757	3.82
448.112	3.8
448.466	3.78
448.82	3.75
449.175	3.73
449.529	3.71
449.883	3.69
450.238	3.67
450.592	3.66
450.946	3.65
451.3	3.65
451.654	3.65
452.008	3.65
452.362	3.65
452.716	3.65
453.07	3.65
453.424	3.64
453.778	3.63
454.132	3.63
454.486	3.61
454.839	3.6
455.193	3.58
455.547	3.57
455.9	3.54
456.254	3.53
456.607	3.5
456.961	3.48
457.314	3.47
457.668	3.46
458.021	3.45
458.375	3.45
458.728	3.45
459.081	3.45
459.434	3.46
459.787	3.46
460.141	3.47
460.494	3.48
460.847	3.49
461.2	3.5
461.553	3.51
461.906	3.51
462.259	3.52
462.611	3.52
462.964	3.53
463.317	3.54
463.67	3.54
464.022	3.55
464.375	3.56
464.728	3.57
465.08	3.57
465.433	3.57
465.785	3.57
466.138	3.56
466.49	3.55
466.843	3.54
467.195	3.53
467.547	3.51
467.899	3.5
468.252	3.47
468.604	3.46
468.956	3.44
469.308	3.43
469.66	3.43
470.012	3.43
470.364	3.44
470.716	3.45
471.068	3.46
471.42	3.48
471.772	3.5
472.123	3.51
472.475	3.52
472.827	3.53
473.178	3.54
473.53	3.55
473.882	3.56
474.233	3.58
474.585	3.61
474.936	3.67
475.288	3.74
475.639	3.84
475.99	3.95
476.342	4.07
476.693	4.21
477.044	4.35
477.395	4.49
477.746	4.63
478.097	4.78
478.448	4.92
478.8	5.07
479.15	5.2
479.501	5.32
479.852	5.44
480.203	5.55
480.554	5.65
480.905	5.75
481.255	5.84
481.606	5.93
481.957	6.01
482.307	6.09
482.658	6.16
483.009	6.24
483.359	6.3
483.709	6.37
484.06	6.44
484.41	6.5
484.761	6.56
485.111	6.63
485.461	6.68
485.811	6.74
486.162	6.78
486.512	6.82
486.862	6.86
487.212	6.88
487.562	6.9
487.912	6.91
488.262	6.91
488.612	6.91
488.961	6.89
489.311	6.86
489.661	6.8
490.011	6.73
490.36	6.64
490.71	6.55
491.06	6.44
491.409	6.33
491.759	6.21
492.108	6.08
492.458	5.95
492.807	5.82
493.157	5.69
493.506	5.56
493.855	5.44
494.204	5.33
494.554	5.22
494.903	5.12
495.252	5.03
495.601	4.94
495.95	4.86
496.299	4.78
496.648	4.71
496.997	4.65
497.346	4.59
497.695	4.53
498.043	4.47
498.392	4.42
498.741	4.37
499.09	4.33
499.438	4.29
499.787	4.25
500.135	4.22
500.484	4.2
500.832	4.19
501.181	4.19
501.529	4.2
501.878	4.22
502.226	4.25
502.574	4.29
502.923	4.33
503.271	4.37
503.619	4.42
503.967	4.46
504.315	4.51
504.663	4.56
505.011	4.61
505.359	4.66
505.707	4.72
506.055	4.77
506.403	4.83
506.751	4.9
507.098	4.96
507.446	5.03
507.794	5.1
508.141	5.18
508.489	5.27
508.837	5.36
509.184	5.45
509.531	5.55
509.879	5.65
510.226	5.76
510.574	5.87
510.921	5.99
511.268	6.11
511.616	6.23
511.963	6.36
512.31	6.5
512.657	6.63
513.004	6.76
513.351	6.89
513.698	7.01
514.045	7.12
514.392	7.23
514.739	7.34
515.086	7.44
515.432	7.54
515.779	7.64
516.126	7.75
516.473	7.86
516.819	7.98
517.166	8.11
517.512	8.26
517.859	8.42
518.205	8.58
518.552	8.77
518.898	8.96
519.245	9.19
519.591	9.46
519.937	9.78
520.283	10.14
520.629	10.55
520.976	10.97
521.322	11.4
521.668	11.85
522.014	12.31
522.36	12.77
522.706	13.22
523.052	13.66
523.398	14.07
523.743	14.45
524.089	14.79
524.435	15.12
524.781	15.43
525.126	15.75
525.472	16.06
525.817	16.36
526.163	16.66
526.509	16.94
526.854	17.23
527.199	17.52
527.545	17.8
527.89	18.1
528.235	18.39
528.581	18.67
528.926	18.94
529.271	19.19
529.616	19.43
529.961	19.66
530.306	19.89
530.651	20.1
530.996	20.29
531.341	20.46
531.686	20.62
532.031	20.78
532.376	20.95
532.721	21.14
533.065	21.35
533.41	21.56
533.755	21.76
534.099	21.94
534.444	22.09
534.788	22.23
535.133	22.36
535.477	22.47
535.822	22.57
536.166	22.64
536.51	22.67
536.855	22.67
537.199	22.65
537.543	22.63
537.887	22.63
538.231	22.65
538.576	22.68
538.92	22.71
539.264	22.72
539.608	22.72
539.951	22.71
540.295	22.7
540.639	22.67
540.983	22.64
541.327	22.6
541.671	22.54
542.014	22.5
542.358	22.48
542.701	22.5
543.045	22.57
543.389	22.66
543.732	22.77
544.075	22.89
544.419	23.02
544.762	23.16
545.105	23.32
545.449	23.49
545.792	23.66
546.135	23.83
546.478	23.97
546.821	24.09
547.165	24.18
547.508	24.23
547.851	24.25
548.194	24.24
548.536	24.2
548.879	24.15
549.222	24.08
549.565	24
549.908	23.94
550.25	23.89
550.593	23.88
550.936	23.93
551.278	24.01
551.621	24.12
551.963	24.25
552.306	24.4
552.648	24.57
552.991	24.77
553.333	24.98
553.675	25.22
554.017	25.48
554.36	25.77
554.702	26.07
555.044	26.42
555.386	26.8
555.728	27.21
556.07	27.58
556.412	27.96
556.754	28.28
557.096	28.56
557.438	28.85
557.78	29.13
558.121	29.43
558.463	29.73
558.805	30.04
559.147	30.34
559.488	30.65
559.83	30.96
560.171	31.27
560.513	31.57
560.854	31.87
561.196	32.16
561.537	32.46
561.878	32.75
562.22	33.04
562.561	33.32
562.902	33.61
563.243	33.9
563.584	34.18
563.925	34.47
564.266	34.77
564.607	35.06
564.948	35.35
565.289	35.63
565.63	35.91
565.971	36.19
566.312	36.47
566.653	36.75
566.993	37.02
567.334	37.29
567.675	37.55
568.015	37.81
568.356	38.06
568.696	38.31
569.037	38.55
569.377	38.79
569.718	39.02
570.058	39.25
570.398	39.48
570.739	39.71
571.079	39.92
571.419	40.13
571.759	40.34
572.099	40.54
572.439	40.75
572.779	40.95
573.119	41.15
573.459	41.35
573.799	41.55
574.139	41.74
574.479	41.94
574.819	42.14
575.158	42.35
575.498	42.55
575.838	42.74
576.177	42.93
576.517	43.12
576.856	43.31
577.196	43.49
577.535	43.68
577.875	43.87
578.214	44.05
578.553	44.23
578.893	44.41
579.232	44.6
579.571	44.78
579.91	44.97
580.25	45.15
580.589	45.34
580.928	45.53
581.267	45.72
581.606	45.9
581.945	46.1
582.283	46.3
582.622	46.49
582.961	46.69
583.3	46.9
583.639	47.09
583.977	47.27
584.316	47.46
584.654	47.65
584.993	47.84
585.332	48.03
585.67	48.2
586.008	48.38
586.347	48.56
586.685	48.74
587.024	48.91
587.362	49.08
587.7	49.26
588.038	49.44
588.376	49.62
588.715	49.8
589.053	49.98
589.391	50.15
589.729	50.32
590.067	50.5
590.404	50.68
590.742	50.85
591.08	51.01
591.418	51.17
591.756	51.32
592.093	51.47
592.431	51.6
592.769	51.73
593.106	51.86
593.444	51.97
593.781	52.1
594.119	52.23
594.456	52.35
594.793	52.46
595.131	52.59
595.468	52.72
595.805	52.84
596.143	52.97
596.48	53.11
596.817	53.25
597.154	53.39
597.491	53.53
597.828	53.65
598.165	53.78
598.502	53.91
598.839	54.03
599.176	54.15
599.512	54.26
599.849	54.38
600.186	54.48
600.523	54.58
600.859	54.68
601.196	54.77
601.532	54.86
601.869	54.97
602.205	55.06
602.542	55.15
602.878	55.24
603.215	55.34
603.551	55.43
603.887	55.5
604.223	55.58
604.56	55.67
604.896	55.74
605.232	55.82
605.568	55.89
605.904	55.96
606.24	56.04
606.576	56.11
606.912	56.18
607.248	56.24
607.583	56.3
607.919	56.36
608.255	56.42
608.591	56.49
608.926	56.55
609.262	56.61
609.597	56.65
609.933	56.7
610.268	56.75
610.604	56.8
610.939	56.84
611.275	56.88
611.61	56.93
611.945	56.97
612.281	57.01
612.616	57.04
612.951	57.08
613.286	57.15
613.621	57.2
613.956	57.24
614.291	57.29
614.626	57.34
614.961	57.38
615.296	57.43
615.631	57.47
615.966	57.51
616.3	57.55
616.635	57.58
616.97	57.6
617.304	57.65
617.639	57.71
617.973	57.75
618.308	57.79
618.642	57.84
618.977	57.89
619.311	57.94
619.646	57.99
619.98	58.05
620.314	58.1
620.648	58.17
620.983	58.22
621.317	58.25
621.651	58.3
621.985	58.34
622.319	58.39
622.653	58.44
622.987	58.48
623.321	58.53
623.655	58.57
623.988	58.6
624.322	58.64
624.656	58.67
624.99	58.71
625.323	58.77
625.657	58.81
625.99	58.85
626.324	58.88
626.657	58.92
626.991	58.96
627.324	58.98
627.658	59.01
627.991	59.05
628.324	59.09
628.657	59.13
628.991	59.16
629.324	59.2
629.657	59.23
629.99	59.26
630.323	59.3
630.656	59.34
630.989	59.37
631.322	59.4
631.655	59.44
631.987	59.47
632.32	59.5
632.653	59.53
632.986	59.56
633.318	59.59
633.651	59.6
633.984	59.63
634.316	59.65
634.649	59.68
634.981	59.72
635.313	59.74
635.646	59.76
635.978	59.77
636.31	59.8
636.643	59.82
636.975	59.85
637.307	59.87
637.639	59.9
637.971	59.9
638.303	59.93
638.635	59.96
638.967	59.96
639.299	59.96
639.631	59.99
639.963	60.02
640.295	60.05
640.626	60.08
640.958	60.11
641.29	60.12
641.621	60.15
641.953	60.17
642.285	60.19
642.616	60.23
642.948	60.25
643.279	60.27
643.61	60.3
643.942	60.32
644.273	60.35
644.604	60.36
644.936	60.38
645.267	60.4
645.598	60.42
645.929	60.44
646.26	60.47
646.591	60.49
646.922	60.5
647.253	60.52
647.584	60.53
647.915	60.54
648.245	60.57
648.576	60.59
648.907	60.6
649.238	60.64
649.568	60.67
649.899	60.68
650.229	60.71
650.56	60.74
650.89	60.78
651.221	60.81
651.551	60.85
651.882	60.88
652.212	60.91
652.542	60.94
652.872	60.98
653.203	60.99
653.533	61.02
653.863	61.03
654.193	61.04
654.523	61.06
654.853	61.08
655.183	61.09
655.513	61.11
655.843	61.12
656.172	61.15
656.502	61.15
656.832	61.17
657.162	61.2
657.491	61.2
657.821	61.21
658.15	61.25
658.48	61.26
658.809	61.28
659.139	61.28
659.468	61.29
659.798	61.32
660.127	61.33
660.456	61.37
660.785	61.39
661.115	61.42
661.444	61.44
661.773	61.45
662.102	61.47
662.431	61.49
662.76	61.49
663.089	61.51
663.418	61.52
663.747	61.53
664.076	61.55
664.404	61.54
664.733	61.55
665.062	61.56
665.39	61.57
665.719	61.58
666.048	61.59
666.376	61.6
666.705	61.63
667.033	61.65
667.362	61.67
667.69	61.69
668.018	61.7
668.347	61.71
668.675	61.73
669.003	61.76
669.331	61.75
669.659	61.75
669.987	61.78
670.315	61.79
670.643	61.8
670.971	61.81
671.299	61.84
671.627	61.83
671.955	61.87
672.283	61.87
672.61	61.91
672.938	61.9
673.266	61.91
673.593	61.92
673.921	61.93
674.249	61.94
674.576	61.96
674.904	61.96
675.231	61.97
675.558	61.99
675.886	62.01
676.213	62.04
676.54	62.04
676.867	62.07
677.195	62.08
677.522	62.1
677.849	62.14
678.176	62.15
678.503	62.14
678.83	62.15
679.157	62.15
679.484	62.17
679.81	62.19
680.137	62.19
680.464	62.21
680.791	62.23
681.117	62.23
681.444	62.25
681.771	62.26
682.097	62.27
682.424	62.29
682.75	62.31
683.077	62.32
683.403	62.32
683.729	62.32
684.056	62.32
684.382	62.33
684.708	62.33
685.034	62.34
685.36	62.33
685.686	62.35
686.012	62.35
686.339	62.38
686.664	62.37
686.99	62.39
687.316	62.39
687.642	62.41
687.968	62.42
688.294	62.44
688.619	62.46
688.945	62.45
689.271	62.46
689.596	62.47
689.922	62.48
690.247	62.5
690.573	62.52
690.898	62.52
691.224	62.52
691.549	62.52
691.874	62.57
692.2	62.57
692.525	62.59
692.85	62.6
693.175	62.61
693.5	62.62
693.825	62.62
694.15	62.62
694.475	62.64
694.8	62.65
695.125	62.64
695.45	62.65
695.775	62.65
696.099	62.67
696.424	62.68
696.749	62.67
697.073	62.68
697.398	62.71
697.723	62.73
698.047	62.75
698.372	62.75
698.696	62.77
699.02	62.77
699.345	62.77
699.669	62.8
699.993	62.83
700.318	62.82
700.642	62.81
700.966	62.82
701.29	62.84
701.614	62.84
701.938	62.83
702.262	62.86
702.586	62.87
702.91	62.88
703.234	62.87
703.557	62.88
703.881	62.88
704.205	62.9
704.529	62.91
704.852	62.95
705.176	62.95
705.499	62.97
705.823	62.97
706.146	62.98
706.47	62.99
706.793	62.99
707.117	63.02
707.44	63.02
707.763	63.03
708.086	63.05
708.409	63.08
708.733	63.09
709.056	63.1
709.379	63.1
709.702	63.1
710.025	63.15
710.348	63.17
710.671	63.15
710.993	63.16
711.316	63.17
711.639	63.19
711.962	63.22
712.284	63.26
712.607	63.26
712.93	63.26
713.252	63.27
713.575	63.29
713.897	63.31
714.22	63.32
714.542	63.34
714.864	63.33
715.187	63.36
715.509	63.37
715.831	63.38
716.153	63.38
716.475	63.41
716.798	63.43
717.12	63.44
717.442	63.44
717.764	63.42
718.085	63.4
718.407	63.43
718.729	63.43
719.051	63.42
719.373	63.45
719.695	63.47
720.016	63.5
720.338	63.51
720.659	63.53
720.981	63.55
721.302	63.56
721.624	63.58
721.945	63.58
722.267	63.62
722.588	63.61
722.909	63.65
723.231	63.66
723.552	63.67
723.873	63.69
724.194	63.68
724.515	63.71
724.836	63.73
725.157	63.72
725.478	63.69
725.799	63.7
726.12	63.72
726.441	63.72
726.762	63.72
727.083	63.73
727.403	63.71
727.724	63.7
728.045	63.74
728.365	63.74
728.686	63.75
729.006	63.74
729.327	63.76
729.647	63.78
729.967	63.77
730.288	63.77
730.608	63.77
730.928	63.8
731.249	63.82
731.569	63.83
731.889	63.84
732.209	63.86
732.529	63.81
732.849	63.82
733.169	63.85
733.489	63.87
733.809	63.89
734.129	63.89
734.448	63.89
734.768	63.89
735.088	63.9
735.408	63.88
735.727	63.91
736.047	63.89
736.366	63.91
736.686	63.91
737.005	63.91
737.325	63.92
737.644	63.92
737.963	63.89
738.283	63.89
738.602	63.9
738.921	63.92
739.24	63.92
739.56	63.91
739.879	63.94
740.198	63.95
740.517	63.98
740.836	63.98
741.155	63.96
741.473	63.95
741.792	63.94
742.111	63.95
742.43	63.96
742.748	63.96
743.067	63.95
743.386	63.97
743.704	63.98
744.023	63.98
744.341	63.98
744.66	63.97
744.978	63.97
745.297	63.99
745.615	64.04
745.933	64.04
746.252	63.97
746.57	63.98
746.888	63.99
747.206	63.97
747.524	64.01
747.842	64.01
748.16	64
748.478	64.01
748.796	63.99
749.114	64.01
749.432	63.99
749.749	63.99
750.067	64.01
750.385	64.05
750.703	64.07
751.02	64.08
751.338	64.07
751.655	64.08
751.973	64.06
752.29	64.04
752.608	64.04
752.925	64.02
753.242	64.01
753.56	64.01
753.877	64.08
754.194	64.1
754.511	64.1
754.828	64.1
755.145	64.12
755.462	64.11
755.779	64.14
756.096	64.17
756.413	64.14
756.73	64.15
757.047	64.15
757.364	64.15
757.68	64.16
757.997	64.19
758.314	64.22
758.63	64.24
758.947	64.24
759.264	64.26
759.58	64.24
759.896	64.23
760.213	64.26
760.529	64.25
760.846	64.3
761.162	64.31
761.478	64.33
761.794	64.35
762.11	64.34
762.426	64.35
762.743	64.38
763.059	64.37
763.375	64.35
763.69	64.33
764.006	64.32
764.322	64.31
764.638	64.33
764.954	64.32
765.27	64.33
765.585	64.35
765.901	64.38
766.216	64.41
766.532	64.4
766.848	64.38
767.163	64.37
767.478	64.41
767.794	64.39
768.109	64.37
768.424	64.37
768.74	64.38
769.055	64.35
769.37	64.37
769.685	64.36
770	64.39
770.315	64.39
770.63	64.41
770.945	64.39
771.26	64.35
771.575	64.34
771.89	64.34
772.205	64.35
772.52	64.33
772.834	64.33
773.149	64.32
773.464	64.3
773.778	64.23
774.093	64.27
774.407	64.23
774.722	64.24
775.036	64.26
775.351	64.25
775.665	64.25
775.979	64.26
776.293	64.28
776.608	64.32
776.922	64.35
777.236	64.38
777.55	64.35
777.864	64.35
778.178	64.35
778.492	64.36
778.806	64.33
779.12	64.31
779.434	64.39
779.747	64.37
780.061	64.43
780.375	64.37
780.689	64.44
781.002	64.46
781.316	64.47
781.629	64.5
781.943	64.55
782.256	64.58
782.57	64.6
782.883	64.6
783.196	64.58
783.51	64.55
783.823	64.52
784.136	64.55
784.449	64.58
784.762	64.54
785.075	64.52
785.388	64.59
785.701	64.61
786.014	64.61
786.327	64.65
786.64	64.66
786.953	64.65
787.266	64.71
787.578	64.69
787.891	64.71
788.204	64.73
788.516	64.72
788.829	64.7
789.141	64.72
789.454	64.71
789.766	64.73
790.079	64.71
790.391	64.73
790.703	64.81
791.016	64.89
791.328	64.85
791.64	64.85
791.952	64.87
792.264	64.81
792.576	64.79
792.888	64.74
793.2	64.79
793.512	64.82
793.824	64.84
794.136	64.83
794.448	64.76
794.76	64.74
795.071	64.73
795.383	64.75
795.695	64.73
796.006	64.8
796.318	64.83
796.629	64.84
796.941	64.82
797.252	64.78
797.564	64.83
797.875	64.87
798.186	64.78
798.497	64.78
798.809	64.77
799.12	64.73
799.431	64.72
799.742	64.69
800.053	64.68
800.364	64.67
800.675	64.62
800.986	64.63
801.297	64.57
801.608	64.59
801.918	64.57
802.229	64.59
802.54	64.59
802.851	64.61
803.161	64.62
803.472	64.55
803.782	64.5
804.093	64.48
804.403	64.49
804.714	64.48
805.024	64.47
805.334	64.41
805.645	64.41
805.955	64.39
806.265	64.33
806.575	64.37
806.885	64.36
807.195	64.44
807.505	64.48
807.815	64.48
808.125	64.5
808.435	64.58
808.745	64.54
809.055	64.53
809.365	64.54
809.674	64.56
809.984	64.59
810.294	64.58
810.603	64.55
810.913	64.57
811.222	64.56
811.532	64.58
811.841	64.61
812.151	64.62
812.46	64.61
812.769	64.67
813.079	64.75
813.388	64.77
813.697	64.79
814.006	64.81
814.315	64.86
814.624	64.84
814.933	64.74
815.242	64.7
815.551	64.62
815.86	64.67
816.169	64.73
816.478	64.8
816.786	64.8
817.095	64.84
817.404	64.81
817.712	64.78
818.021	64.83
818.33	64.76
818.638	64.73
818.947	64.72
819.255	64.69
819.563	64.7
819.872	64.69
820.18	64.67
820.488	64.69
820.796	64.67
821.105	64.68
821.413	64.71
821.721	64.73
822.029	64.74
822.337	64.74
822.645	64.74
822.953	64.72
823.26	64.72
823.568	64.74
823.876	64.75
824.184	64.77
824.491	64.76
824.799	64.77
825.107	64.78
825.414	64.75
825.722	64.77
826.029	64.76
826.337	64.74
826.644	64.74
826.951	64.72
827.259	64.72
827.566	64.75
827.873	64.73
828.18	64.76
828.488	64.76
828.795	64.75
829.102	64.73
829.409	64.73
829.716	64.72
830.023	64.72
830.329	64.73
830.636	64.72
830.943	64.77
831.25	64.81
831.557	64.86
831.863	64.89
832.17	64.87
832.476	64.85
832.783	64.86
833.089	64.85
833.396	64.86
833.702	64.81
834.009	64.77
834.315	64.71
834.621	64.72
834.928	64.73
835.234	64.69
835.54	64.68
835.846	64.65
836.152	64.63
836.458	64.62
836.764	64.61
837.07	64.63
837.376	64.64
837.682	64.64
837.988	64.69
838.293	64.63
838.599	64.66
838.905	64.66
839.211	64.75
839.516	64.77
839.822	64.79
840.127	64.81
840.433	64.9
840.738	64.95
841.044	64.95
841.349	65
841.654	64.96
841.959	64.93
842.265	64.93
842.57	64.94
842.875	64.98
843.18	64.98
843.485	65.04
843.79	64.95
844.095	64.8
844.4	64.76
844.705	64.93
845.01	65.03
845.315	65.05
845.619	65
845.924	65.05
846.229	65.16
846.533	65.13
846.838	65.23
847.142	65.29
847.447	65.31
847.751	65.5
848.056	65.59
848.36	65.69
848.664	65.72
848.969	65.86
849.273	65.85
849.577	65.81
849.881	65.7
850.185	65.89
850.489	65.87
850.794	65.96
851.097	66.08
851.401	66.13
851.705	65.94
852.009	65.96
852.313	66.15
852.617	66.02
852.92	65.97
853.224	65.94
853.528	65.79
853.831	65.77
854.135	65.81
854.438	65.91
854.742	65.97
855.045	66.01
855.349	66.08
855.652	66.16
855.955	66.02
856.259	66.17
856.562	66.32
856.865	66.31
857.168	66.23
857.471	66.14
857.774	66.03
858.077	66.02
858.38	65.93
858.683	65.89
858.986	66.04
859.289	65.99
859.592	65.88
859.894	65.76
860.197	65.67
860.5	65.69
860.802	65.75
861.105	65.79
861.407	65.64
861.71	65.5
862.012	65.51
862.315	65.7
862.617	65.58
862.919	65.41
863.222	65.34
863.524	65.32
863.826	65.31
864.128	65.47
864.43	65.41
864.732	65.28
865.034	65.45
865.336	65.41
865.638	65.17
865.94	65.35
866.242	65.24
866.544	65.47
866.846	65.4
867.147	65.41
867.449	65.54
867.751	65.37
868.052	65.41
868.354	65.45
868.655	65.45
868.957	65.4
869.258	65.43
869.56	65.42
869.861	65.51
870.162	65.42
870.463	65.53
870.765	65.54
871.066	65.48
871.367	65.17
871.668	65.2
871.969	65.28
872.27	65.38
872.571	65.48
872.872	65.53
873.173	65.47
873.473	65.37
873.774	65.43
874.075	65.47
874.376	65.49
874.676	65.38
874.977	65.3
875.277	65.48
875.578	65.43
875.878	65.38
876.179	65.41
876.479	65.24
876.78	65.4
877.08	65.33
877.38	65.23
877.68	65.37
877.981	65.61
878.281	65.47
878.581	65.54
