Data from UWBM55954_Reflection_00006.txt Node
Date: Sun May 02 13:51:00 EDT 2021
User: vgr7
Spectrometer: USB2G7710
Scans to average: 10
Trigger mode: 4
Integration Time (sec): 1.000000E-1
Electric dark correction enabled: true
Boxcar width: 20
XAxis mode: Wavelengths
Number of Pixels in Spectrum: 2048
>>>>>Begin Spectral Data<<<<<
177.721	150.53
178.105	150.26
178.488	134.38
178.871	139.23
179.254	99.43
179.636	73.31
180.019	52.46
180.402	44.01
180.785	38.86
181.168	34.42
181.55	32.18
181.933	32.93
182.316	29.55
182.698	27.72
183.081	23.28
183.463	16.76
183.846	20.21
184.228	20.47
184.611	23
184.993	20.84
185.376	21.65
185.758	22.65
186.14	24.52
186.522	24.09
186.904	23.13
187.287	20.17
187.669	22.24
188.051	21.82
188.433	23.53
188.815	22
189.197	22.68
189.579	23.1
189.961	21.63
190.342	20.13
190.724	22.16
191.106	22.99
191.488	21.76
191.869	20.82
192.251	19.33
192.633	17.49
193.014	17.78
193.396	14.23
193.777	15.74
194.159	13.46
194.54	13.76
194.922	13.37
195.303	12.45
195.684	12.68
196.065	11.99
196.447	12.78
196.828	12.65
197.209	12.03
197.59	10.18
197.971	9.34
198.352	10.03
198.733	13.01
199.114	14.84
199.495	13.46
199.876	12.45
200.257	11.01
200.638	10.38
201.018	10.87
201.399	11.87
201.78	11.95
202.16	11.32
202.541	11.67
202.922	13.01
203.302	13.79
203.683	13.22
204.063	12.24
204.444	12.07
204.824	11
205.204	9.95
205.585	11.16
205.965	11.9
206.345	10.47
206.725	9.65
207.106	10.05
207.486	9.91
207.866	9.32
208.246	9.5
208.626	8.42
209.006	9.06
209.386	9.05
209.766	9.4
210.145	8.75
210.525	9.35
210.905	9.41
211.285	8.48
211.664	8.73
212.044	8.53
212.424	9.15
212.803	8.57
213.183	8.7
213.562	10.5
213.942	10.7
214.321	9.76
214.701	8.97
215.08	9.8
215.459	10.7
215.838	10.32
216.218	9.98
216.597	9.04
216.976	8.6
217.355	9.63
217.734	9.62
218.113	8.9
218.492	7.01
218.871	5.79
219.25	6.34
219.629	6.47
220.008	4.89
220.387	3.9
220.766	4.9
221.144	4.05
221.523	3.55
221.902	3.69
222.28	3.25
222.659	3.47
223.037	3.35
223.416	4.32
223.794	4.48
224.173	3.94
224.551	3.68
224.929	4.07
225.308	4.39
225.686	4.59
226.064	4.27
226.442	4.69
226.821	5.27
227.199	5.66
227.577	5.32
227.955	5.62
228.333	6.01
228.711	6.05
229.089	5.36
229.467	5.15
229.845	4.73
230.222	5.06
230.6	4.82
230.978	4.73
231.356	4.91
231.733	5.09
232.111	4.9
232.488	4.81
232.866	4.48
233.243	4.35
233.621	4.28
233.998	4.57
234.376	4.73
234.753	4.54
235.13	4.65
235.508	4.87
235.885	4.87
236.262	4.79
236.639	4.68
237.016	4.68
237.393	4.73
237.77	4.81
238.147	4.73
238.524	4.71
238.901	4.65
239.278	4.72
239.655	4.93
240.032	4.93
240.409	4.91
240.785	4.95
241.162	4.9
241.539	4.94
241.915	5
242.292	5
242.668	5
243.045	4.99
243.421	4.91
243.798	4.88
244.174	4.91
244.551	4.96
244.927	4.97
245.303	5
245.679	4.99
246.056	4.95
246.432	4.94
246.808	4.93
247.184	4.94
247.56	4.96
247.936	4.93
248.312	4.94
248.688	4.96
249.064	4.97
249.44	4.97
249.815	4.93
250.191	4.9
250.567	4.91
250.943	4.9
251.318	4.9
251.694	4.88
252.069	4.9
252.445	4.9
252.82	4.88
253.196	4.85
253.571	4.82
253.947	4.8
254.322	4.79
254.697	4.77
255.073	4.71
255.448	4.72
255.823	4.71
256.198	4.68
256.573	4.67
256.948	4.66
257.323	4.63
257.698	4.57
258.073	4.53
258.448	4.53
258.823	4.53
259.198	4.54
259.573	4.5
259.948	4.46
260.322	4.44
260.697	4.4
261.072	4.37
261.446	4.39
261.821	4.38
262.195	4.37
262.57	4.34
262.944	4.35
263.319	4.37
263.693	4.35
264.067	4.34
264.442	4.34
264.816	4.33
265.19	4.34
265.564	4.35
265.938	4.33
266.313	4.34
266.687	4.33
267.061	4.34
267.435	4.33
267.809	4.31
268.183	4.31
268.556	4.32
268.93	4.35
269.304	4.36
269.678	4.34
270.051	4.34
270.425	4.34
270.799	4.32
271.172	4.32
271.546	4.32
271.919	4.32
272.293	4.32
272.666	4.31
273.04	4.31
273.413	4.36
273.787	4.36
274.16	4.36
274.533	4.35
274.906	4.36
275.279	4.36
275.653	4.36
276.026	4.37
276.399	4.38
276.772	4.38
277.145	4.38
277.518	4.39
277.891	4.4
278.263	4.38
278.636	4.39
279.009	4.39
279.382	4.38
279.755	4.38
280.127	4.38
280.5	4.38
280.872	4.39
281.245	4.39
281.617	4.39
281.99	4.4
282.362	4.39
282.735	4.38
283.107	4.39
283.479	4.36
283.852	4.36
284.224	4.35
284.596	4.34
284.968	4.35
285.34	4.35
285.713	4.34
286.085	4.35
286.457	4.34
286.829	4.34
287.201	4.34
287.572	4.33
287.944	4.33
288.316	4.35
288.688	4.33
289.06	4.31
289.431	4.3
289.803	4.32
290.175	4.32
290.546	4.33
290.918	4.34
291.289	4.36
291.661	4.36
292.032	4.35
292.403	4.36
292.775	4.35
293.146	4.35
293.517	4.35
293.889	4.34
294.26	4.35
294.631	4.36
295.002	4.38
295.373	4.36
295.744	4.36
296.115	4.35
296.486	4.36
296.857	4.36
297.228	4.37
297.599	4.37
297.97	4.36
298.34	4.36
298.711	4.38
299.082	4.37
299.452	4.37
299.823	4.37
300.194	4.37
300.564	4.37
300.935	4.36
301.305	4.36
301.676	4.36
302.046	4.36
302.416	4.37
302.787	4.36
303.157	4.36
303.527	4.37
303.897	4.35
304.267	4.35
304.637	4.35
305.008	4.33
305.378	4.34
305.748	4.33
306.117	4.33
306.487	4.33
306.857	4.33
307.227	4.32
307.597	4.33
307.967	4.32
308.336	4.32
308.706	4.32
309.076	4.31
309.445	4.3
309.815	4.28
310.184	4.28
310.554	4.29
310.923	4.29
311.293	4.28
311.662	4.28
312.031	4.27
312.401	4.27
312.77	4.27
313.139	4.28
313.508	4.29
313.877	4.3
314.246	4.31
314.616	4.3
314.985	4.3
315.353	4.29
315.722	4.29
316.091	4.29
316.46	4.27
316.829	4.27
317.198	4.28
317.567	4.26
317.935	4.26
318.304	4.25
318.672	4.23
319.041	4.23
319.41	4.22
319.778	4.22
320.147	4.2
320.515	4.19
320.883	4.18
321.252	4.16
321.62	4.15
321.988	4.14
322.357	4.14
322.725	4.13
323.093	4.14
323.461	4.13
323.829	4.14
324.197	4.14
324.565	4.14
324.933	4.14
325.301	4.11
325.669	4.13
326.037	4.11
326.405	4.11
326.772	4.1
327.14	4.09
327.508	4.07
327.875	4.06
328.243	4.04
328.61	4.01
328.978	4
329.346	3.98
329.713	3.99
330.08	3.99
330.448	3.98
330.815	3.98
331.182	3.97
331.55	3.98
331.917	3.97
332.284	3.95
332.651	3.95
333.018	3.94
333.385	3.94
333.752	3.94
334.119	3.94
334.486	3.94
334.853	3.95
335.22	3.96
335.587	3.97
335.954	3.96
336.32	3.95
336.687	3.96
337.054	3.94
337.42	3.95
337.787	3.94
338.153	3.94
338.52	3.94
338.886	3.92
339.253	3.92
339.619	3.93
339.986	3.94
340.352	3.95
340.718	3.94
341.084	3.94
341.451	3.94
341.817	3.94
342.183	3.95
342.549	3.96
342.915	3.96
343.281	3.96
343.647	3.97
344.013	3.97
344.379	3.97
344.745	3.97
345.11	3.98
345.476	3.98
345.842	3.98
346.208	3.99
346.573	3.98
346.939	3.98
347.304	3.99
347.67	3.99
348.035	3.99
348.401	4
348.766	4
349.132	4.02
349.497	4.02
349.862	4.02
350.228	4.03
350.593	4.03
350.958	4.04
351.323	4.05
351.688	4.05
352.053	4.05
352.418	4.06
352.783	4.05
353.148	4.04
353.513	4.05
353.878	4.05
354.243	4.05
354.608	4.05
354.972	4.06
355.337	4.05
355.702	4.07
356.066	4.07
356.431	4.07
356.795	4.07
357.16	4.06
357.524	4.07
357.889	4.07
358.253	4.07
358.618	4.07
358.982	4.06
359.346	4.07
359.71	4.07
360.075	4.07
360.439	4.07
360.803	4.08
361.167	4.08
361.531	4.08
361.895	4.07
362.259	4.07
362.623	4.06
362.987	4.06
363.351	4.06
363.714	4.06
364.078	4.05
364.442	4.05
364.806	4.04
365.169	4.03
365.533	4.03
365.896	4.03
366.26	4.03
366.623	4.03
366.987	4.03
367.35	4.02
367.714	4.03
368.077	4.04
368.44	4.04
368.803	4.05
369.167	4.05
369.53	4.04
369.893	4.03
370.256	4.03
370.619	4.02
370.982	4.03
371.345	4.03
371.708	4.04
372.071	4.04
372.434	4.03
372.797	4.04
373.159	4.04
373.522	4.05
373.885	4.06
374.247	4.05
374.61	4.05
374.973	4.04
375.335	4.04
375.698	4.03
376.06	4.03
376.423	4.03
376.785	4.04
377.147	4.03
377.51	4.04
377.872	4.04
378.234	4.03
378.596	4.03
378.958	4.03
379.321	4.03
379.683	4.04
380.045	4.04
380.407	4.04
380.769	4.04
381.13	4.04
381.492	4.04
381.854	4.04
382.216	4.04
382.578	4.05
382.939	4.04
383.301	4.04
383.663	4.04
384.024	4.04
384.386	4.04
384.747	4.05
385.109	4.05
385.47	4.05
385.832	4.04
386.193	4.04
386.554	4.04
386.916	4.04
387.277	4.03
387.638	4.02
387.999	4.03
388.36	4.02
388.721	4.02
389.082	4.02
389.443	4.02
389.804	4.02
390.165	4.02
390.526	4.03
390.887	4.02
391.248	4.02
391.609	4.02
391.969	4.03
392.33	4.03
392.691	4.03
393.051	4.04
393.412	4.04
393.772	4.04
394.133	4.03
394.493	4.03
394.854	4.03
395.214	4.03
395.574	4.03
395.935	4.03
396.295	4.03
396.655	4.03
397.015	4.03
397.376	4.03
397.736	4.02
398.096	4.03
398.456	4.03
398.816	4.03
399.176	4.04
399.535	4.04
399.895	4.04
400.255	4.03
400.615	4.03
400.975	4.03
401.334	4.03
401.694	4.03
402.054	4.04
402.413	4.04
402.773	4.04
403.132	4.04
403.492	4.04
403.851	4.03
404.211	4.04
404.57	4.04
404.929	4.04
405.288	4.04
405.648	4.05
406.007	4.05
406.366	4.05
406.725	4.05
407.084	4.05
407.443	4.06
407.802	4.06
408.161	4.06
408.52	4.06
408.879	4.07
409.238	4.07
409.596	4.07
409.955	4.08
410.314	4.09
410.673	4.09
411.031	4.09
411.39	4.1
411.748	4.11
412.107	4.11
412.465	4.13
412.824	4.15
413.182	4.17
413.54	4.2
413.899	4.23
414.257	4.26
414.615	4.3
414.974	4.34
415.332	4.38
415.69	4.42
416.048	4.46
416.406	4.5
416.764	4.53
417.122	4.57
417.48	4.6
417.838	4.64
418.195	4.66
418.553	4.69
418.911	4.71
419.269	4.72
419.626	4.72
419.984	4.71
420.342	4.7
420.699	4.69
421.057	4.67
421.414	4.65
421.772	4.64
422.129	4.63
422.486	4.63
422.844	4.63
423.201	4.63
423.558	4.63
423.915	4.63
424.273	4.63
424.63	4.63
424.987	4.63
425.344	4.63
425.701	4.63
426.058	4.63
426.415	4.63
426.772	4.63
427.128	4.63
427.485	4.62
427.842	4.61
428.199	4.6
428.555	4.58
428.912	4.56
429.269	4.53
429.625	4.51
429.982	4.48
430.338	4.45
430.695	4.42
431.051	4.39
431.407	4.37
431.764	4.35
432.12	4.33
432.476	4.32
432.832	4.31
433.189	4.31
433.545	4.31
433.901	4.33
434.257	4.35
434.613	4.38
434.969	4.41
435.325	4.43
435.681	4.47
436.036	4.49
436.392	4.52
436.748	4.53
437.104	4.54
437.459	4.56
437.815	4.58
438.171	4.6
438.526	4.63
438.882	4.67
439.237	4.7
439.593	4.75
439.948	4.78
440.304	4.82
440.659	4.84
441.014	4.87
441.369	4.9
441.725	4.91
442.08	4.93
442.435	4.95
442.79	4.96
443.145	4.96
443.5	4.96
443.855	4.96
444.21	4.96
444.565	4.96
444.92	4.95
445.275	4.95
445.629	4.94
445.984	4.93
446.339	4.91
446.693	4.91
447.048	4.89
447.403	4.87
447.757	4.85
448.112	4.83
448.466	4.8
448.82	4.78
449.175	4.75
449.529	4.73
449.883	4.71
450.238	4.68
450.592	4.68
450.946	4.67
451.3	4.67
451.654	4.68
452.008	4.68
452.362	4.68
452.716	4.69
453.07	4.69
453.424	4.68
453.778	4.67
454.132	4.66
454.486	4.65
454.839	4.63
455.193	4.61
455.547	4.6
455.9	4.57
456.254	4.55
456.607	4.52
456.961	4.49
457.314	4.46
457.668	4.45
458.021	4.45
458.375	4.44
458.728	4.44
459.081	4.45
459.434	4.45
459.787	4.46
460.141	4.47
460.494	4.48
460.847	4.48
461.2	4.49
461.553	4.49
461.906	4.5
462.259	4.5
462.611	4.5
462.964	4.5
463.317	4.51
463.67	4.52
464.022	4.52
464.375	4.53
464.728	4.53
465.08	4.54
465.433	4.54
465.785	4.53
466.138	4.52
466.49	4.5
466.843	4.48
467.195	4.46
467.547	4.43
467.899	4.41
468.252	4.37
468.604	4.35
468.956	4.32
469.308	4.31
469.66	4.3
470.012	4.29
470.364	4.3
470.716	4.3
471.068	4.31
471.42	4.33
471.772	4.35
472.123	4.36
472.475	4.37
472.827	4.39
473.178	4.39
473.53	4.4
473.882	4.42
474.233	4.44
474.585	4.48
474.936	4.55
475.288	4.64
475.639	4.77
475.99	4.91
476.342	5.07
476.693	5.24
477.044	5.42
477.395	5.6
477.746	5.78
478.097	5.96
478.448	6.16
478.8	6.34
479.15	6.51
479.501	6.67
479.852	6.82
480.203	6.96
480.554	7.09
480.905	7.22
481.255	7.34
481.606	7.45
481.957	7.56
482.307	7.66
482.658	7.76
483.009	7.85
483.359	7.95
483.709	8.03
484.06	8.12
484.41	8.2
484.761	8.28
485.111	8.36
485.461	8.43
485.811	8.5
486.162	8.56
486.512	8.62
486.862	8.66
487.212	8.69
487.562	8.71
487.912	8.72
488.262	8.72
488.612	8.72
488.961	8.69
489.311	8.65
489.661	8.57
490.011	8.48
490.36	8.36
490.71	8.23
491.06	8.09
491.409	7.93
491.759	7.77
492.108	7.61
492.458	7.44
492.807	7.26
493.157	7.08
493.506	6.91
493.855	6.75
494.204	6.59
494.554	6.45
494.903	6.31
495.252	6.18
495.601	6.06
495.95	5.93
496.299	5.82
496.648	5.71
496.997	5.61
497.346	5.51
497.695	5.41
498.043	5.32
498.392	5.23
498.741	5.14
499.09	5.06
499.438	4.98
499.787	4.9
500.135	4.83
500.484	4.77
500.832	4.71
501.181	4.67
501.529	4.64
501.878	4.63
502.226	4.62
502.574	4.61
502.923	4.61
503.271	4.6
503.619	4.6
503.967	4.6
504.315	4.6
504.663	4.59
505.011	4.59
505.359	4.59
505.707	4.58
506.055	4.58
506.403	4.58
506.751	4.58
507.098	4.58
507.446	4.59
507.794	4.59
508.141	4.6
508.489	4.62
508.837	4.63
509.184	4.64
509.531	4.66
509.879	4.67
510.226	4.69
510.574	4.7
510.921	4.72
511.268	4.74
511.616	4.76
511.963	4.78
512.31	4.8
512.657	4.83
513.004	4.85
513.351	4.87
513.698	4.88
514.045	4.89
514.392	4.89
514.739	4.89
515.086	4.89
515.432	4.89
515.779	4.88
516.126	4.88
516.473	4.88
516.819	4.88
517.166	4.89
517.512	4.9
517.859	4.91
518.205	4.93
518.552	4.96
518.898	4.99
519.245	5.03
519.591	5.09
519.937	5.17
520.283	5.27
520.629	5.38
520.976	5.5
521.322	5.62
521.668	5.75
522.014	5.88
522.36	6.01
522.706	6.14
523.052	6.26
523.398	6.37
523.743	6.46
524.089	6.55
524.435	6.62
524.781	6.69
525.126	6.76
525.472	6.82
525.817	6.87
526.163	6.93
526.509	6.97
526.854	7.02
527.199	7.07
527.545	7.11
527.89	7.17
528.235	7.22
528.581	7.27
528.926	7.32
529.271	7.36
529.616	7.4
529.961	7.43
530.306	7.46
530.651	7.49
530.996	7.5
531.341	7.51
531.686	7.52
532.031	7.52
532.376	7.52
532.721	7.52
533.065	7.53
533.41	7.54
533.755	7.53
534.099	7.51
534.444	7.48
534.788	7.44
535.133	7.4
535.477	7.35
535.822	7.3
536.166	7.24
536.51	7.17
536.855	7.09
537.199	7
537.543	6.92
537.887	6.85
538.231	6.78
538.576	6.72
538.92	6.66
539.264	6.6
539.608	6.53
539.951	6.47
540.295	6.4
540.639	6.33
540.983	6.26
541.327	6.19
541.671	6.12
542.014	6.05
542.358	5.99
542.701	5.94
543.045	5.91
543.389	5.88
543.732	5.85
544.075	5.83
544.419	5.81
544.762	5.8
545.105	5.79
545.449	5.78
545.792	5.77
546.135	5.76
546.478	5.74
546.821	5.72
547.165	5.68
547.508	5.64
547.851	5.59
548.194	5.54
548.536	5.47
548.879	5.4
549.222	5.32
549.565	5.25
549.908	5.17
550.25	5.1
550.593	5.03
550.936	4.98
551.278	4.94
551.621	4.91
551.963	4.87
552.306	4.85
552.648	4.83
552.991	4.81
553.333	4.79
553.675	4.78
554.017	4.77
554.36	4.77
554.702	4.78
555.044	4.79
555.386	4.8
555.728	4.82
556.07	4.83
556.412	4.84
556.754	4.85
557.096	4.85
557.438	4.85
557.78	4.86
558.121	4.86
558.463	4.85
558.805	4.85
559.147	4.85
559.488	4.85
559.83	4.85
560.171	4.85
560.513	4.85
560.854	4.85
561.196	4.85
561.537	4.85
561.878	4.85
562.22	4.85
562.561	4.85
562.902	4.85
563.243	4.85
563.584	4.85
563.925	4.85
564.266	4.86
564.607	4.86
564.948	4.86
565.289	4.86
565.63	4.86
565.971	4.87
566.312	4.87
566.653	4.87
566.993	4.88
567.334	4.89
567.675	4.89
568.015	4.89
568.356	4.89
568.696	4.9
569.037	4.89
569.377	4.9
569.718	4.9
570.058	4.9
570.398	4.9
570.739	4.9
571.079	4.9
571.419	4.9
571.759	4.9
572.099	4.9
572.439	4.9
572.779	4.9
573.119	4.9
573.459	4.9
573.799	4.9
574.139	4.9
574.479	4.9
574.819	4.9
575.158	4.9
575.498	4.89
575.838	4.89
576.177	4.89
576.517	4.89
576.856	4.89
577.196	4.89
577.535	4.88
577.875	4.88
578.214	4.88
578.553	4.87
578.893	4.87
579.232	4.87
579.571	4.87
579.91	4.86
580.25	4.86
580.589	4.85
580.928	4.85
581.267	4.84
581.606	4.84
581.945	4.84
582.283	4.84
582.622	4.84
582.961	4.84
583.3	4.84
583.639	4.84
583.977	4.84
584.316	4.84
584.654	4.84
584.993	4.84
585.332	4.84
585.67	4.84
586.008	4.84
586.347	4.84
586.685	4.84
587.024	4.85
587.362	4.85
587.7	4.85
588.038	4.85
588.376	4.85
588.715	4.85
589.053	4.86
589.391	4.86
589.729	4.86
590.067	4.86
590.404	4.87
590.742	4.87
591.08	4.88
591.418	4.88
591.756	4.89
592.093	4.89
592.431	4.89
592.769	4.9
593.106	4.9
593.444	4.9
593.781	4.9
594.119	4.9
594.456	4.9
594.793	4.91
595.131	4.91
595.468	4.9
595.805	4.91
596.143	4.91
596.48	4.91
596.817	4.91
597.154	4.91
597.491	4.91
597.828	4.92
598.165	4.92
598.502	4.92
598.839	4.93
599.176	4.93
599.512	4.93
599.849	4.94
600.186	4.94
600.523	4.95
600.859	4.95
601.196	4.95
601.532	4.95
601.869	4.95
602.205	4.95
602.542	4.96
602.878	4.96
603.215	4.96
603.551	4.96
603.887	4.97
604.223	4.97
604.56	4.97
604.896	4.97
605.232	4.96
605.568	4.96
605.904	4.96
606.24	4.96
606.576	4.96
606.912	4.96
607.248	4.96
607.583	4.97
607.919	4.97
608.255	4.97
608.591	4.97
608.926	4.97
609.262	4.97
609.597	4.97
609.933	4.97
610.268	4.97
610.604	4.98
610.939	4.97
611.275	4.97
611.61	4.96
611.945	4.97
612.281	4.96
612.616	4.96
612.951	4.95
613.286	4.95
613.621	4.95
613.956	4.95
614.291	4.94
614.626	4.94
614.961	4.94
615.296	4.94
615.631	4.94
615.966	4.95
616.3	4.95
616.635	4.94
616.97	4.94
617.304	4.94
617.639	4.94
617.973	4.94
618.308	4.94
618.642	4.94
618.977	4.94
619.311	4.94
619.646	4.95
619.98	4.94
620.314	4.95
620.648	4.95
620.983	4.95
621.317	4.95
621.651	4.96
621.985	4.96
622.319	4.96
622.653	4.97
622.987	4.97
623.321	4.98
623.655	4.98
623.988	4.98
624.322	4.98
624.656	4.99
624.99	4.99
625.323	5
625.657	4.99
625.99	4.99
626.324	5
626.657	5
626.991	5
627.324	5
627.658	5
627.991	5
628.324	5
628.657	5
628.991	5.01
629.324	5.01
629.657	5.02
629.99	5.01
630.323	5.02
630.656	5.03
630.989	5.02
631.322	5.02
631.655	5.03
631.987	5.03
632.32	5.03
632.653	5.03
632.986	5.04
633.318	5.04
633.651	5.04
633.984	5.04
634.316	5.04
634.649	5.03
634.981	5.03
635.313	5.03
635.646	5.04
635.978	5.04
636.31	5.04
636.643	5.05
636.975	5.05
637.307	5.05
637.639	5.05
637.971	5.05
638.303	5.05
638.635	5.05
638.967	5.05
639.299	5.05
639.631	5.06
639.963	5.06
640.295	5.07
640.626	5.07
640.958	5.07
641.29	5.08
641.621	5.07
641.953	5.08
642.285	5.08
642.616	5.07
642.948	5.06
643.279	5.06
643.61	5.07
643.942	5.06
644.273	5.06
644.604	5.07
644.936	5.07
645.267	5.07
645.598	5.07
645.929	5.06
646.26	5.07
646.591	5.07
646.922	5.07
647.253	5.08
647.584	5.09
647.915	5.09
648.245	5.09
648.576	5.1
648.907	5.1
649.238	5.1
649.568	5.09
649.899	5.08
650.229	5.08
650.56	5.08
650.89	5.08
651.221	5.09
651.551	5.09
651.882	5.09
652.212	5.1
652.542	5.1
652.872	5.11
653.203	5.12
653.533	5.12
653.863	5.11
654.193	5.12
654.523	5.13
654.853	5.13
655.183	5.14
655.513	5.14
655.843	5.14
656.172	5.14
656.502	5.15
656.832	5.15
657.162	5.15
657.491	5.15
657.821	5.16
658.15	5.16
658.48	5.16
658.809	5.16
659.139	5.16
659.468	5.17
659.798	5.17
660.127	5.17
660.456	5.18
660.785	5.17
661.115	5.17
661.444	5.18
661.773	5.19
662.102	5.18
662.431	5.19
662.76	5.19
663.089	5.19
663.418	5.21
663.747	5.21
664.076	5.22
664.404	5.22
664.733	5.22
665.062	5.23
665.39	5.24
665.719	5.24
666.048	5.25
666.376	5.25
666.705	5.24
667.033	5.25
667.362	5.26
667.69	5.26
668.018	5.26
668.347	5.25
668.675	5.26
669.003	5.26
669.331	5.27
669.659	5.27
669.987	5.27
670.315	5.28
670.643	5.28
670.971	5.28
671.299	5.28
671.627	5.28
671.955	5.28
672.283	5.28
672.61	5.29
672.938	5.29
673.266	5.3
673.593	5.3
673.921	5.3
674.249	5.31
674.576	5.31
674.904	5.31
675.231	5.31
675.558	5.31
675.886	5.32
676.213	5.32
676.54	5.33
676.867	5.33
677.195	5.33
677.522	5.32
677.849	5.32
678.176	5.32
678.503	5.33
678.83	5.33
679.157	5.33
679.484	5.32
679.81	5.34
680.137	5.35
680.464	5.35
680.791	5.34
681.117	5.35
681.444	5.36
681.771	5.36
682.097	5.35
682.424	5.36
682.75	5.36
683.077	5.37
683.403	5.37
683.729	5.37
684.056	5.38
684.382	5.38
684.708	5.39
685.034	5.4
685.36	5.41
685.686	5.4
686.012	5.4
686.339	5.41
686.664	5.4
686.99	5.4
687.316	5.41
687.642	5.42
687.968	5.43
688.294	5.44
688.619	5.44
688.945	5.44
689.271	5.44
689.596	5.44
689.922	5.45
690.247	5.45
690.573	5.46
690.898	5.46
691.224	5.47
691.549	5.49
691.874	5.48
692.2	5.48
692.525	5.49
692.85	5.51
693.175	5.5
693.5	5.51
693.825	5.51
694.15	5.52
694.475	5.52
694.8	5.52
695.125	5.53
695.45	5.53
695.775	5.54
696.099	5.53
696.424	5.53
696.749	5.53
697.073	5.54
697.398	5.54
697.723	5.55
698.047	5.55
698.372	5.56
698.696	5.56
699.02	5.57
699.345	5.57
699.669	5.58
699.993	5.59
700.318	5.59
700.642	5.59
700.966	5.59
701.29	5.59
701.614	5.59
701.938	5.59
702.262	5.61
702.586	5.61
702.91	5.61
703.234	5.61
703.557	5.62
703.881	5.63
704.205	5.63
704.529	5.65
704.852	5.64
705.176	5.65
705.499	5.65
705.823	5.66
706.146	5.65
706.47	5.65
706.793	5.65
707.117	5.65
707.44	5.66
707.763	5.66
708.086	5.68
708.409	5.69
708.733	5.7
709.056	5.7
709.379	5.71
709.702	5.73
710.025	5.73
710.348	5.74
710.671	5.75
710.993	5.74
711.316	5.74
711.639	5.75
711.962	5.76
712.284	5.78
712.607	5.79
712.93	5.79
713.252	5.78
713.575	5.8
713.897	5.82
714.22	5.82
714.542	5.84
714.864	5.85
715.187	5.84
715.509	5.84
715.831	5.83
716.153	5.84
716.475	5.85
716.798	5.84
717.12	5.84
717.442	5.85
717.764	5.84
718.085	5.84
718.407	5.84
718.729	5.84
719.051	5.83
719.373	5.82
719.695	5.83
720.016	5.84
720.338	5.85
720.659	5.85
720.981	5.87
721.302	5.85
721.624	5.85
721.945	5.85
722.267	5.84
722.588	5.85
722.909	5.83
723.231	5.84
723.552	5.83
723.873	5.85
724.194	5.86
724.515	5.87
724.836	5.86
725.157	5.87
725.478	5.86
725.799	5.87
726.12	5.89
726.441	5.89
726.762	5.89
727.083	5.89
727.403	5.88
727.724	5.87
728.045	5.88
728.365	5.89
728.686	5.91
729.006	5.93
729.327	5.94
729.647	5.94
729.967	5.95
730.288	5.96
730.608	5.96
730.928	5.98
731.249	6.01
731.569	6.01
731.889	6.03
732.209	6.04
732.529	6.05
732.849	6.06
733.169	6.07
733.489	6.08
733.809	6.09
734.129	6.1
734.448	6.13
734.768	6.16
735.088	6.19
735.408	6.21
735.727	6.2
736.047	6.21
736.366	6.2
736.686	6.22
737.005	6.24
737.325	6.23
737.644	6.23
737.963	6.22
738.283	6.22
738.602	6.23
738.921	6.24
739.24	6.25
739.56	6.25
739.879	6.26
740.198	6.27
740.517	6.3
740.836	6.31
741.155	6.33
741.473	6.33
741.792	6.34
742.111	6.34
742.43	6.33
742.748	6.35
743.067	6.37
743.386	6.4
743.704	6.41
744.023	6.38
744.341	6.37
744.66	6.4
744.978	6.4
745.297	6.42
745.615	6.43
745.933	6.44
746.252	6.44
746.57	6.43
746.888	6.46
747.206	6.45
747.524	6.44
747.842	6.44
748.16	6.4
748.478	6.4
748.796	6.39
749.114	6.42
749.432	6.44
749.749	6.44
750.067	6.44
750.385	6.47
750.703	6.49
751.02	6.5
751.338	6.51
751.655	6.53
751.973	6.54
752.29	6.55
752.608	6.56
752.925	6.57
753.242	6.59
753.56	6.61
753.877	6.63
754.194	6.62
754.511	6.64
754.828	6.63
755.145	6.66
755.462	6.69
755.779	6.69
756.096	6.68
756.413	6.66
756.73	6.67
757.047	6.68
757.364	6.67
757.68	6.66
757.997	6.67
758.314	6.67
758.63	6.68
758.947	6.68
759.264	6.69
759.58	6.68
759.896	6.67
760.213	6.68
760.529	6.68
760.846	6.69
761.162	6.71
761.478	6.72
761.794	6.74
762.11	6.74
762.426	6.75
762.743	6.76
763.059	6.75
763.375	6.76
763.69	6.75
764.006	6.79
764.322	6.78
764.638	6.79
764.954	6.8
765.27	6.79
765.585	6.79
765.901	6.8
766.216	6.8
766.532	6.77
766.848	6.78
767.163	6.78
767.478	6.76
767.794	6.77
768.109	6.75
768.424	6.76
768.74	6.75
769.055	6.78
769.37	6.8
769.685	6.81
770	6.82
770.315	6.83
770.63	6.85
770.945	6.84
771.26	6.84
771.575	6.87
771.89	6.88
772.205	6.91
772.52	6.96
772.834	6.98
773.149	7
773.464	7.01
773.778	7.02
774.093	7.03
774.407	7.05
774.722	7.06
775.036	7.08
775.351	7.11
775.665	7.12
775.979	7.13
776.293	7.12
776.608	7.16
776.922	7.15
777.236	7.15
777.55	7.14
777.864	7.17
778.178	7.17
778.492	7.19
778.806	7.17
779.12	7.17
779.434	7.22
779.747	7.23
780.061	7.23
780.375	7.25
780.689	7.23
781.002	7.23
781.316	7.21
781.629	7.22
781.943	7.21
782.256	7.23
782.57	7.21
782.883	7.23
783.196	7.27
783.51	7.26
783.823	7.3
784.136	7.29
784.449	7.28
784.762	7.3
785.075	7.29
785.388	7.27
785.701	7.23
786.014	7.23
786.327	7.25
786.64	7.22
786.953	7.25
787.266	7.27
787.578	7.3
787.891	7.3
788.204	7.27
788.516	7.28
788.829	7.32
789.141	7.33
789.454	7.29
789.766	7.31
790.079	7.33
790.391	7.32
790.703	7.34
791.016	7.36
791.328	7.36
791.64	7.39
791.952	7.41
792.264	7.37
792.576	7.34
792.888	7.36
793.2	7.39
793.512	7.44
793.824	7.5
794.136	7.52
794.448	7.53
794.76	7.57
795.071	7.53
795.383	7.57
795.695	7.56
796.006	7.52
796.318	7.5
796.629	7.51
796.941	7.53
797.252	7.54
797.564	7.53
797.875	7.53
798.186	7.54
798.497	7.57
798.809	7.54
799.12	7.55
799.431	7.59
799.742	7.6
800.053	7.61
800.364	7.59
800.675	7.54
800.986	7.53
801.297	7.5
801.608	7.5
801.918	7.5
802.229	7.55
802.54	7.51
802.851	7.5
803.161	7.53
803.472	7.52
803.782	7.54
804.093	7.55
804.403	7.58
804.714	7.64
805.024	7.69
805.334	7.71
805.645	7.74
805.955	7.73
806.265	7.71
806.575	7.72
806.885	7.73
807.195	7.75
807.505	7.75
807.815	7.85
808.125	7.85
808.435	7.89
808.745	7.9
809.055	7.93
809.365	7.95
809.674	7.96
809.984	8
810.294	7.97
810.603	7.96
810.913	7.99
811.222	8.05
811.532	8.05
811.841	8.06
812.151	8.07
812.46	8.05
812.769	7.99
813.079	8.01
813.388	8.12
813.697	8.16
814.006	8.22
814.315	8.16
814.624	8.21
814.933	8.25
815.242	8.26
815.551	8.26
815.86	8.22
816.169	8.17
816.478	8.19
816.786	8.24
817.095	8.2
817.404	8.14
817.712	8.14
818.021	8.15
818.33	8.13
818.638	8.18
818.947	8.16
819.255	8.14
819.563	8.15
819.872	8.15
820.18	8.15
820.488	8.13
820.796	8.15
821.105	8.15
821.413	8.19
821.721	8.22
822.029	8.23
822.337	8.24
822.645	8.22
822.953	8.23
823.26	8.24
823.568	8.24
823.876	8.24
824.184	8.26
824.491	8.26
824.799	8.26
825.107	8.27
825.414	8.29
825.722	8.31
826.029	8.31
826.337	8.33
826.644	8.33
826.951	8.34
827.259	8.34
827.566	8.33
827.873	8.32
828.18	8.33
828.488	8.35
828.795	8.37
829.102	8.36
829.409	8.35
829.716	8.37
830.023	8.41
830.329	8.41
830.636	8.42
830.943	8.46
831.25	8.44
831.557	8.48
831.863	8.52
832.17	8.53
832.476	8.54
832.783	8.53
833.089	8.53
833.396	8.52
833.702	8.54
834.009	8.54
834.315	8.51
834.621	8.52
834.928	8.53
835.234	8.58
835.54	8.57
835.846	8.56
836.152	8.54
836.458	8.56
836.764	8.54
837.07	8.57
837.376	8.58
837.682	8.54
837.988	8.53
838.293	8.49
838.599	8.44
838.905	8.37
839.211	8.38
839.516	8.4
839.822	8.36
840.127	8.37
840.433	8.45
840.738	8.48
841.044	8.47
841.349	8.42
841.654	8.41
841.959	8.41
842.265	8.42
842.57	8.38
842.875	8.4
843.18	8.35
843.485	8.33
843.79	8.37
844.095	8.37
844.4	8.36
844.705	8.36
845.01	8.36
845.315	8.35
845.619	8.36
845.924	8.34
846.229	8.42
846.533	8.31
846.838	8.4
847.142	8.32
847.447	8.31
847.751	8.33
848.056	8.43
848.36	8.48
848.664	8.52
848.969	8.66
849.273	8.68
849.577	8.59
849.881	8.68
850.185	8.87
850.489	8.82
850.794	8.85
851.097	8.96
851.401	9.14
851.705	9.13
852.009	9.17
852.313	9.33
852.617	9.36
852.92	9.32
853.224	9.36
853.528	9.37
853.831	9.46
854.135	9.57
854.438	9.62
854.742	9.56
855.045	9.46
855.349	9.61
855.652	9.82
855.955	9.84
856.259	9.84
856.562	9.94
856.865	9.95
857.168	9.92
857.471	9.98
857.774	10.1
858.077	10.12
858.38	10.23
858.683	10.2
858.986	10.32
859.289	10.15
859.592	10.37
859.894	10.4
860.197	10.4
860.5	10.48
860.802	10.55
861.105	10.75
861.407	10.64
861.71	10.63
862.012	10.75
862.315	10.71
862.617	10.59
862.919	10.77
863.222	10.81
863.524	10.64
863.826	10.6
864.128	10.55
864.43	10.7
864.732	10.67
865.034	10.73
865.336	10.7
865.638	10.68
865.94	10.81
866.242	10.71
866.544	10.71
866.846	10.68
867.147	10.8
867.449	10.9
867.751	10.85
868.052	10.77
868.354	10.67
868.655	10.61
868.957	10.57
869.258	10.52
869.56	10.73
869.861	10.76
870.162	10.78
870.463	11.01
870.765	11.05
871.066	11.11
871.367	10.94
871.668	11.02
871.969	10.97
872.27	10.82
872.571	10.82
872.872	10.74
873.173	10.76
873.473	10.64
873.774	10.62
874.075	10.7
874.376	10.66
874.676	10.64
874.977	10.73
875.277	10.7
875.578	10.72
875.878	10.96
876.179	10.91
876.479	11.05
876.78	10.86
877.08	10.79
877.38	10.7
877.68	10.85
877.981	10.83
878.281	10.72
878.581	10.92
