Data from UWBM91361_Reflection_00009.txt Node
Date: Sun May 02 12:21:54 EDT 2021
User: vgr7
Spectrometer: USB2G7710
Scans to average: 10
Trigger mode: 4
Integration Time (sec): 1.000000E-1
Electric dark correction enabled: true
Boxcar width: 10
XAxis mode: Wavelengths
Number of Pixels in Spectrum: 2048
>>>>>Begin Spectral Data<<<<<
177.721	952.05
178.105	-558.82
178.488	-50.14
178.871	-17
179.254	-182.76
179.636	-68.83
180.019	119.46
180.402	133.33
180.785	10.97
181.168	-144.68
181.55	-11.93
181.933	-164.46
182.316	-100
182.698	-105.22
183.081	-57.65
183.463	-0.87
183.846	50.51
184.228	-23.55
184.611	17.62
184.993	27.4
185.376	14.35
185.758	10.44
186.14	-0.1
186.522	-10.39
186.904	-19.47
187.287	-24.42
187.669	-22.23
188.051	-30.28
188.433	-19.52
188.815	-14.69
189.197	-6.03
189.579	-11.31
189.961	-2.23
190.342	-4.8
190.724	-0.51
191.106	1.53
191.488	5.22
191.869	3.74
192.251	2.75
192.633	-5.02
193.014	-11.73
193.396	-15.23
193.777	-14.83
194.159	-12.8
194.54	-13.56
194.922	-15.45
195.303	-11.49
195.684	-15.73
196.065	-15.99
196.447	-17.79
196.828	-21.36
197.209	-24.36
197.59	-21.57
197.971	-25.36
198.352	-26.85
198.733	-20.07
199.114	-20.7
199.495	-21.33
199.876	-21.46
200.257	-16.41
200.638	-17.28
201.018	-15.64
201.399	-13.42
201.78	-14.29
202.16	-16.8
202.541	-22.23
202.922	-18.79
203.302	-14.73
203.683	-13.7
204.063	-13.65
204.444	-14.38
204.824	-10.17
205.204	-8.05
205.585	-8.81
205.965	-8.69
206.345	-4.73
206.725	-15.82
207.106	-15.83
207.486	-17.43
207.866	-18.63
208.246	-21.83
208.626	-19.06
209.006	-15.66
209.386	-15.62
209.766	-13.83
210.145	-12.24
210.525	-9.33
210.905	-7.9
211.285	-10.99
211.664	-10.56
212.044	-10.32
212.424	-4.01
212.803	-6.01
213.183	-5.95
213.562	-8.12
213.942	-7.27
214.321	-12.77
214.701	-13.16
215.08	-12.48
215.459	-13.25
215.838	-12.79
216.218	-10.55
216.597	-7.08
216.976	-11.93
217.355	-9.53
217.734	-10.1
218.113	-11.37
218.492	-8.4
218.871	-8.45
219.25	-6.56
219.629	-5.29
220.008	-3.47
220.387	-6.92
220.766	-11.48
221.144	-17.5
221.523	-12.98
221.902	-11.9
222.28	-7.9
222.659	-6.09
223.037	-5.8
223.416	-2.73
223.794	-1.5
224.173	-0.14
224.551	-1.24
224.929	-1.47
225.308	1.23
225.686	2.17
226.064	2.9
226.442	1.11
226.821	2
227.199	0.41
227.577	-1.13
227.955	-1.38
228.333	-2.07
228.711	-1.18
229.089	1.85
229.467	1.62
229.845	2.25
230.222	2.63
230.6	2.69
230.978	3.24
231.356	2.77
231.733	2.55
232.111	2.63
232.488	2.61
232.866	2.97
233.243	2.35
233.621	2.76
233.998	2.58
234.376	3.13
234.753	3.26
235.13	3.78
235.508	4.83
235.885	5.17
236.262	5.93
236.639	6.45
237.016	5.98
237.393	5.7
237.77	5.65
238.147	5.58
238.524	5.83
238.901	5.65
239.278	5.48
239.655	5.58
240.032	5.56
240.409	5.63
240.785	5.49
241.162	5.54
241.539	5.49
241.915	5.58
242.292	5.78
242.668	5.7
243.045	5.75
243.421	5.69
243.798	5.7
244.174	5.62
244.551	5.57
244.927	5.53
245.303	5.52
245.679	5.51
246.056	5.44
246.432	5.44
246.808	5.42
247.184	5.45
247.56	5.46
247.936	5.46
248.312	5.5
248.688	5.55
249.064	5.47
249.44	5.42
249.815	5.36
250.191	5.24
250.567	5.25
250.943	5.22
251.318	5.23
251.694	5.18
252.069	5.07
252.445	5.1
252.82	5.09
253.196	5.11
253.571	5.08
253.947	5.21
254.322	5.13
254.697	5.21
255.073	5.21
255.448	5.08
255.823	5.01
256.198	4.83
256.573	4.8
256.948	4.79
257.323	4.83
257.698	4.86
258.073	4.84
258.448	4.8
258.823	4.78
259.198	4.81
259.573	4.8
259.948	4.85
260.322	4.79
260.697	4.82
261.072	4.82
261.446	4.8
261.821	4.75
262.195	4.71
262.57	4.68
262.944	4.65
263.319	4.65
263.693	4.67
264.067	4.69
264.442	4.68
264.816	4.69
265.19	4.63
265.564	4.64
265.938	4.6
266.313	4.56
266.687	4.5
267.061	4.44
267.435	4.36
267.809	4.32
268.183	4.32
268.556	4.31
268.93	4.27
269.304	4.25
269.678	4.18
270.051	4.16
270.425	4.15
270.799	4.19
271.172	4.18
271.546	4.13
271.919	4.17
272.293	4.13
272.666	4.13
273.04	4.17
273.413	4.07
273.787	4.04
274.16	4.08
274.533	4.11
274.906	4.07
275.279	4.16
275.653	4.15
276.026	4.09
276.399	4.06
276.772	4.04
277.145	4.09
277.518	4.18
277.891	4.2
278.263	4.21
278.636	4.21
279.009	4.25
279.382	4.23
279.755	4.19
280.127	4.26
280.5	4.26
280.872	4.21
281.245	4.3
281.617	4.32
281.99	4.31
282.362	4.31
282.735	4.33
283.107	4.32
283.479	4.38
283.852	4.46
284.224	4.51
284.596	4.52
284.968	4.53
285.34	4.49
285.713	4.57
286.085	4.54
286.457	4.55
286.829	4.55
287.201	4.6
287.572	4.65
287.944	4.65
288.316	4.72
288.688	4.77
289.06	4.79
289.431	4.86
289.803	4.88
290.175	4.93
290.546	4.97
290.918	5.03
291.289	5.04
291.661	5.07
292.032	5.09
292.403	5.17
292.775	5.18
293.146	5.25
293.517	5.3
293.889	5.38
294.26	5.44
294.631	5.53
295.002	5.61
295.373	5.72
295.744	5.81
296.115	5.86
296.486	5.93
296.857	6
297.228	6.05
297.599	6.13
297.97	6.18
298.34	6.24
298.711	6.27
299.082	6.34
299.452	6.38
299.823	6.44
300.194	6.51
300.564	6.61
300.935	6.69
301.305	6.76
301.676	6.82
302.046	6.89
302.416	6.98
302.787	7.08
303.157	7.14
303.527	7.2
303.897	7.29
304.267	7.4
304.637	7.5
305.008	7.63
305.378	7.76
305.748	7.88
306.117	7.99
306.487	8.09
306.857	8.18
307.227	8.31
307.597	8.44
307.967	8.53
308.336	8.63
308.706	8.75
309.076	8.84
309.445	8.97
309.815	9.05
310.184	9.13
310.554	9.18
310.923	9.24
311.293	9.33
311.662	9.41
312.031	9.5
312.401	9.59
312.77	9.64
313.139	9.7
313.508	9.77
313.877	9.86
314.246	9.93
314.616	10.04
314.985	10.12
315.353	10.2
315.722	10.27
316.091	10.38
316.46	10.48
316.829	10.56
317.198	10.62
317.567	10.72
317.935	10.79
318.304	10.88
318.672	10.98
319.041	11.06
319.41	11.12
319.778	11.21
320.147	11.28
320.515	11.36
320.883	11.5
321.252	11.59
321.62	11.65
321.988	11.74
322.357	11.8
322.725	11.89
323.093	11.99
323.461	12.08
323.829	12.1
324.197	12.14
324.565	12.22
324.933	12.24
325.301	12.34
325.669	12.43
326.037	12.49
326.405	12.52
326.772	12.56
327.14	12.6
327.508	12.61
327.875	12.69
328.243	12.74
328.61	12.74
328.978	12.82
329.346	12.89
329.713	12.89
330.08	12.98
330.448	13.05
330.815	13.09
331.182	13.13
331.55	13.23
331.917	13.28
332.284	13.35
332.651	13.46
333.018	13.52
333.385	13.59
333.752	13.66
334.119	13.73
334.486	13.77
334.853	13.83
335.22	13.87
335.587	13.89
335.954	13.97
336.32	13.98
336.687	13.98
337.054	13.99
337.42	14.08
337.787	14.12
338.153	14.17
338.52	14.21
338.886	14.29
339.253	14.33
339.619	14.34
339.986	14.38
340.352	14.39
340.718	14.43
341.084	14.44
341.451	14.45
341.817	14.5
342.183	14.54
342.549	14.57
342.915	14.61
343.281	14.67
343.647	14.66
344.013	14.72
344.379	14.76
344.745	14.8
345.11	14.81
345.476	14.83
345.842	14.86
346.208	14.91
346.573	14.88
346.939	14.9
347.304	14.92
347.67	14.9
348.035	14.93
348.401	14.89
348.766	14.88
349.132	14.9
349.497	14.91
349.862	14.88
350.228	14.89
350.593	14.9
350.958	14.88
351.323	14.88
351.688	14.87
352.053	14.85
352.418	14.85
352.783	14.86
353.148	14.83
353.513	14.78
353.878	14.73
354.243	14.71
354.608	14.68
354.972	14.66
355.337	14.65
355.702	14.59
356.066	14.57
356.431	14.54
356.795	14.48
357.16	14.42
357.524	14.39
357.889	14.33
358.253	14.26
358.618	14.2
358.982	14.18
359.346	14.13
359.71	14.07
360.075	14
360.439	13.94
360.803	13.88
361.167	13.81
361.531	13.77
361.895	13.71
362.259	13.64
362.623	13.57
362.987	13.51
363.351	13.46
363.714	13.43
364.078	13.36
364.442	13.32
364.806	13.26
365.169	13.21
365.533	13.15
365.896	13.08
366.26	13.02
366.623	12.93
366.987	12.85
367.35	12.77
367.714	12.7
368.077	12.61
368.44	12.52
368.803	12.46
369.167	12.36
369.53	12.3
369.893	12.23
370.256	12.14
370.619	12.05
370.982	11.95
371.345	11.82
371.708	11.73
372.071	11.64
372.434	11.54
372.797	11.42
373.159	11.35
373.522	11.24
373.885	11.15
374.247	11.05
374.61	10.93
374.973	10.84
375.335	10.73
375.698	10.64
376.06	10.54
376.423	10.44
376.785	10.34
377.147	10.21
377.51	10.12
377.872	10.04
378.234	9.93
378.596	9.86
378.958	9.79
379.321	9.71
379.683	9.63
380.045	9.53
380.407	9.46
380.769	9.35
381.13	9.29
381.492	9.2
381.854	9.11
382.216	9.06
382.578	8.98
382.939	8.92
383.301	8.84
383.663	8.78
384.024	8.73
384.386	8.68
384.747	8.63
385.109	8.56
385.47	8.48
385.832	8.45
386.193	8.39
386.554	8.32
386.916	8.26
387.277	8.19
387.638	8.16
387.999	8.09
388.36	8.05
388.721	7.98
389.082	7.92
389.443	7.88
389.804	7.8
390.165	7.73
390.526	7.67
390.887	7.6
391.248	7.54
391.609	7.48
391.969	7.43
392.33	7.38
392.691	7.32
393.051	7.26
393.412	7.19
393.772	7.13
394.133	7.07
394.493	7
394.854	6.95
395.214	6.88
395.574	6.83
395.935	6.76
396.295	6.7
396.655	6.64
397.015	6.56
397.376	6.51
397.736	6.46
398.096	6.39
398.456	6.34
398.816	6.28
399.176	6.21
399.535	6.14
399.895	6.09
400.255	6.04
400.615	6
400.975	5.96
401.334	5.91
401.694	5.86
402.054	5.83
402.413	5.79
402.773	5.75
403.132	5.71
403.492	5.67
403.851	5.64
404.211	5.61
404.57	5.59
404.929	5.56
405.288	5.53
405.648	5.51
406.007	5.48
406.366	5.47
406.725	5.45
407.084	5.43
407.443	5.41
407.802	5.39
408.161	5.38
408.52	5.37
408.879	5.35
409.238	5.34
409.596	5.31
409.955	5.29
410.314	5.28
410.673	5.27
411.031	5.25
411.39	5.24
411.748	5.22
412.107	5.2
412.465	5.19
412.824	5.17
413.182	5.15
413.54	5.14
413.899	5.11
414.257	5.1
414.615	5.08
414.974	5.07
415.332	5.05
415.69	5.02
416.048	5
416.406	4.99
416.764	4.98
417.122	4.97
417.48	4.96
417.838	4.94
418.195	4.92
418.553	4.91
418.911	4.91
419.269	4.89
419.626	4.87
419.984	4.87
420.342	4.85
420.699	4.84
421.057	4.83
421.414	4.82
421.772	4.8
422.129	4.8
422.486	4.78
422.844	4.77
423.201	4.75
423.558	4.74
423.915	4.73
424.273	4.71
424.63	4.69
424.987	4.67
425.344	4.65
425.701	4.63
426.058	4.62
426.415	4.6
426.772	4.57
427.128	4.56
427.485	4.54
427.842	4.52
428.199	4.5
428.555	4.49
428.912	4.48
429.269	4.46
429.625	4.44
429.982	4.42
430.338	4.41
430.695	4.4
431.051	4.39
431.407	4.39
431.764	4.38
432.12	4.38
432.476	4.37
432.832	4.37
433.189	4.37
433.545	4.38
433.901	4.37
434.257	4.38
434.613	4.37
434.969	4.37
435.325	4.38
435.681	4.39
436.036	4.38
436.392	4.4
436.748	4.4
437.104	4.4
437.459	4.41
437.815	4.42
438.171	4.43
438.526	4.43
438.882	4.43
439.237	4.43
439.593	4.44
439.948	4.44
440.304	4.44
440.659	4.44
441.014	4.44
441.369	4.44
441.725	4.45
442.08	4.45
442.435	4.45
442.79	4.45
443.145	4.45
443.5	4.44
443.855	4.44
444.21	4.43
444.565	4.43
444.92	4.43
445.275	4.42
445.629	4.42
445.984	4.42
446.339	4.41
446.693	4.41
447.048	4.4
447.403	4.38
447.757	4.38
448.112	4.37
448.466	4.36
448.82	4.35
449.175	4.35
449.529	4.33
449.883	4.32
450.238	4.3
450.592	4.28
450.946	4.28
451.3	4.26
451.654	4.25
452.008	4.24
452.362	4.22
452.716	4.21
453.07	4.2
453.424	4.18
453.778	4.17
454.132	4.16
454.486	4.16
454.839	4.16
455.193	4.16
455.547	4.17
455.9	4.17
456.254	4.17
456.607	4.17
456.961	4.18
457.314	4.19
457.668	4.2
458.021	4.21
458.375	4.21
458.728	4.21
459.081	4.22
459.434	4.22
459.787	4.22
460.141	4.23
460.494	4.22
460.847	4.23
461.2	4.24
461.553	4.24
461.906	4.25
462.259	4.25
462.611	4.25
462.964	4.26
463.317	4.25
463.67	4.26
464.022	4.27
464.375	4.27
464.728	4.27
465.08	4.28
465.433	4.28
465.785	4.28
466.138	4.29
466.49	4.29
466.843	4.3
467.195	4.31
467.547	4.33
467.899	4.34
468.252	4.34
468.604	4.36
468.956	4.37
469.308	4.38
469.66	4.38
470.012	4.39
470.364	4.4
470.716	4.41
471.068	4.43
471.42	4.43
471.772	4.43
472.123	4.44
472.475	4.45
472.827	4.46
473.178	4.47
473.53	4.47
473.882	4.48
474.233	4.49
474.585	4.5
474.936	4.5
475.288	4.5
475.639	4.5
475.99	4.51
476.342	4.51
476.693	4.51
477.044	4.51
477.395	4.51
477.746	4.52
478.097	4.52
478.448	4.54
478.8	4.61
479.15	4.72
479.501	4.86
479.852	5.02
480.203	5.19
480.554	5.36
480.905	5.54
481.255	5.72
481.606	5.89
481.957	6.06
482.307	6.22
482.658	6.37
483.009	6.49
483.359	6.6
483.709	6.69
484.06	6.78
484.41	6.87
484.761	6.95
485.111	7.03
485.461	7.11
485.811	7.18
486.162	7.21
486.512	7.2
486.862	7.16
487.212	7.1
487.562	7.02
487.912	6.92
488.262	6.82
488.612	6.7
488.961	6.58
489.311	6.43
489.661	6.29
490.011	6.15
490.36	6.01
490.71	5.86
491.06	5.7
491.409	5.56
491.759	5.44
492.108	5.34
492.458	5.25
492.807	5.17
493.157	5.09
493.506	5.02
493.855	4.96
494.204	4.9
494.554	4.85
494.903	4.8
495.252	4.75
495.601	4.71
495.95	4.68
496.299	4.65
496.648	4.64
496.997	4.63
497.346	4.65
497.695	4.68
498.043	4.74
498.392	4.82
498.741	4.91
499.09	4.97
499.438	5.03
499.787	5.08
500.135	5.13
500.484	5.19
500.832	5.25
501.181	5.3
501.529	5.36
501.878	5.41
502.226	5.47
502.574	5.54
502.923	5.6
503.271	5.67
503.619	5.74
503.967	5.81
504.315	5.88
504.663	5.95
505.011	6.03
505.359	6.11
505.707	6.2
506.055	6.29
506.403	6.38
506.751	6.48
507.098	6.56
507.446	6.65
507.794	6.74
508.141	6.83
508.489	6.92
508.837	7.01
509.184	7.1
509.531	7.2
509.879	7.29
510.226	7.38
510.574	7.47
510.921	7.56
511.268	7.66
511.616	7.75
511.963	7.85
512.31	7.96
512.657	8.06
513.004	8.16
513.351	8.27
513.698	8.38
514.045	8.49
514.392	8.62
514.739	8.73
515.086	8.85
515.432	8.97
515.779	9.09
516.126	9.2
516.473	9.31
516.819	9.42
517.166	9.52
517.512	9.62
517.859	9.71
518.205	9.8
518.552	9.89
518.898	9.98
519.245	10.07
519.591	10.15
519.937	10.24
520.283	10.34
520.629	10.44
520.976	10.54
521.322	10.66
521.668	10.77
522.014	10.89
522.36	11.02
522.706	11.16
523.052	11.35
523.398	11.61
523.743	11.94
524.089	12.33
524.435	12.75
524.781	13.17
525.126	13.61
525.472	14.04
525.817	14.47
526.163	14.86
526.509	15.22
526.854	15.54
527.199	15.81
527.545	16.02
527.89	16.2
528.235	16.38
528.581	16.55
528.926	16.71
529.271	16.88
529.616	17.04
529.961	17.2
530.306	17.34
530.651	17.41
530.996	17.42
531.341	17.39
531.686	17.31
532.031	17.17
532.376	16.99
532.721	16.77
533.065	16.55
533.41	16.38
533.755	16.22
534.099	16.11
534.444	16.09
534.788	16.11
535.133	16.16
535.477	16.24
535.822	16.33
536.166	16.45
536.51	16.6
536.855	16.77
537.199	16.96
537.543	17.19
537.887	17.44
538.231	17.73
538.576	18.02
538.92	18.33
539.264	18.66
539.608	19.01
539.951	19.35
540.295	19.68
540.639	19.92
540.983	20.13
541.327	20.32
541.671	20.48
542.014	20.68
542.358	20.9
542.701	21.1
543.045	21.28
543.389	21.48
543.732	21.65
544.075	21.83
544.419	22.01
544.762	22.16
545.105	22.3
545.449	22.43
545.792	22.53
546.135	22.65
546.478	22.77
546.821	22.94
547.165	23.14
547.508	23.4
547.851	23.71
548.194	24.08
548.536	24.46
548.879	24.79
549.222	25.06
549.565	25.32
549.908	25.58
550.25	25.87
550.593	26.14
550.936	26.44
551.278	26.7
551.621	26.99
551.963	27.28
552.306	27.56
552.648	27.85
552.991	28.12
553.333	28.4
553.675	28.69
554.017	28.98
554.36	29.27
554.702	29.55
555.044	29.81
555.386	30.1
555.728	30.38
556.07	30.66
556.412	30.96
556.754	31.26
557.096	31.56
557.438	31.86
557.78	32.17
558.121	32.46
558.463	32.78
558.805	33.08
559.147	33.4
559.488	33.71
559.83	34.02
560.171	34.34
560.513	34.66
560.854	34.96
561.196	35.3
561.537	35.61
561.878	35.96
562.22	36.32
562.561	36.63
562.902	36.95
563.243	37.3
563.584	37.6
563.925	37.91
564.266	38.22
564.607	38.52
564.948	38.82
565.289	39.12
565.63	39.41
565.971	39.69
566.312	39.97
566.653	40.25
566.993	40.53
567.334	40.8
567.675	41.08
568.015	41.36
568.356	41.64
568.696	41.93
569.037	42.19
569.377	42.45
569.718	42.71
570.058	42.99
570.398	43.22
570.739	43.47
571.079	43.73
571.419	43.97
571.759	44.19
572.099	44.41
572.439	44.62
572.779	44.84
573.119	45.03
573.459	45.22
573.799	45.42
574.139	45.59
574.479	45.78
574.819	45.95
575.158	46.11
575.498	46.27
575.838	46.42
576.177	46.58
576.517	46.72
576.856	46.87
577.196	47
577.535	47.15
577.875	47.29
578.214	47.41
578.553	47.56
578.893	47.7
579.232	47.83
579.571	47.96
579.91	48.1
580.25	48.26
580.589	48.4
580.928	48.53
581.267	48.7
581.606	48.84
581.945	48.98
582.283	49.12
582.622	49.29
582.961	49.43
583.3	49.59
583.639	49.73
583.977	49.89
584.316	50.06
584.654	50.21
584.993	50.37
585.332	50.57
585.67	50.73
586.008	50.91
586.347	51.09
586.685	51.27
587.024	51.44
587.362	51.61
587.7	51.77
588.038	51.95
588.376	52.11
588.715	52.24
589.053	52.41
589.391	52.59
589.729	52.71
590.067	52.84
590.404	52.99
590.742	53.11
591.08	53.24
591.418	53.4
591.756	53.54
592.093	53.7
592.431	53.81
592.769	53.94
593.106	54.07
593.444	54.19
593.781	54.3
594.119	54.42
594.456	54.52
594.793	54.64
595.131	54.72
595.468	54.83
595.805	54.92
596.143	54.99
596.48	55.07
596.817	55.11
597.154	55.2
597.491	55.25
597.828	55.34
598.165	55.41
598.502	55.5
598.839	55.58
599.176	55.64
599.512	55.74
599.849	55.83
600.186	55.92
600.523	56.03
600.859	56.17
601.196	56.28
601.532	56.39
601.869	56.49
602.205	56.58
602.542	56.68
602.878	56.79
603.215	56.88
603.551	56.95
603.887	57.09
604.223	57.18
604.56	57.27
604.896	57.33
605.232	57.42
605.568	57.49
605.904	57.54
606.24	57.61
606.576	57.67
606.912	57.72
607.248	57.76
607.583	57.79
607.919	57.81
608.255	57.84
608.591	57.87
608.926	57.89
609.262	57.93
609.597	57.92
609.933	57.93
610.268	57.95
610.604	57.97
610.939	57.94
611.275	57.94
611.61	57.95
611.945	57.98
612.281	58
612.616	58.01
612.951	58
613.286	58
613.621	58.01
613.956	58.04
614.291	58.08
614.626	58.1
614.961	58.1
615.296	58.13
615.631	58.14
615.966	58.14
616.3	58.17
616.635	58.23
616.97	58.24
617.304	58.28
617.639	58.32
617.973	58.38
618.308	58.43
618.642	58.46
618.977	58.49
619.311	58.5
619.646	58.51
619.98	58.58
620.314	58.64
620.648	58.68
620.983	58.7
621.317	58.73
621.651	58.76
621.985	58.83
622.319	58.87
622.653	58.91
622.987	59
623.321	59.08
623.655	59.11
623.988	59.2
624.322	59.28
624.656	59.36
624.99	59.44
625.323	59.49
625.657	59.56
625.99	59.63
626.324	59.69
626.657	59.77
626.991	59.82
627.324	59.85
627.658	59.86
627.991	59.91
628.324	59.92
628.657	59.95
628.991	59.97
629.324	59.99
629.657	60.04
629.99	60.06
630.323	60.08
630.656	60.11
630.989	60.12
631.322	60.13
631.655	60.11
631.987	60.1
632.32	60.12
632.653	60.14
632.986	60.12
633.318	60.13
633.651	60.13
633.984	60.09
634.316	60.12
634.649	60.16
634.981	60.18
635.313	60.21
635.646	60.25
635.978	60.23
636.31	60.24
636.643	60.2
636.975	60.2
637.307	60.19
637.639	60.2
637.971	60.2
638.303	60.21
638.635	60.21
638.967	60.22
639.299	60.2
639.631	60.21
639.963	60.28
640.295	60.31
640.626	60.3
640.958	60.35
641.29	60.32
641.621	60.34
641.953	60.37
642.285	60.39
642.616	60.41
642.948	60.44
643.279	60.48
643.61	60.55
643.942	60.56
644.273	60.58
644.604	60.62
644.936	60.67
645.267	60.7
645.598	60.76
645.929	60.81
646.26	60.89
646.591	60.94
646.922	60.93
647.253	60.97
647.584	61
647.915	61.06
648.245	61.15
648.576	61.17
648.907	61.18
649.238	61.21
649.568	61.26
649.899	61.34
650.229	61.38
650.56	61.42
650.89	61.46
651.221	61.47
651.551	61.5
651.882	61.5
652.212	61.52
652.542	61.54
652.872	61.58
653.203	61.61
653.533	61.64
653.863	61.67
654.193	61.71
654.523	61.74
654.853	61.76
655.183	61.77
655.513	61.84
655.843	61.89
656.172	61.96
656.502	61.98
656.832	61.98
657.162	62.02
657.491	62.04
657.821	62.08
658.15	62.12
658.48	62.16
658.809	62.18
659.139	62.18
659.468	62.2
659.798	62.18
660.127	62.16
660.456	62.19
660.785	62.2
661.115	62.22
661.444	62.21
661.773	62.19
662.102	62.17
662.431	62.16
662.76	62.13
663.089	62.08
663.418	62.06
663.747	62.09
664.076	62.06
664.404	62.04
664.733	62.05
665.062	62.06
665.39	62.02
665.719	62.04
666.048	62.1
666.376	62.1
666.705	62.16
667.033	62.18
667.362	62.19
667.69	62.19
668.018	62.13
668.347	62.22
668.675	62.25
669.003	62.3
669.331	62.33
669.659	62.37
669.987	62.4
670.315	62.43
670.643	62.45
670.971	62.5
671.299	62.49
671.627	62.49
671.955	62.5
672.283	62.53
672.61	62.54
672.938	62.56
673.266	62.56
673.593	62.55
673.921	62.56
674.249	62.56
674.576	62.61
674.904	62.68
675.231	62.69
675.558	62.76
675.886	62.82
676.213	62.85
676.54	62.91
676.867	62.97
677.195	63
677.522	63.02
677.849	63.05
678.176	63.1
678.503	63.16
678.83	63.19
679.157	63.27
679.484	63.29
679.81	63.29
680.137	63.33
680.464	63.37
680.791	63.42
681.117	63.47
681.444	63.46
681.771	63.49
682.097	63.5
682.424	63.54
682.75	63.53
683.077	63.58
683.403	63.57
683.729	63.56
684.056	63.62
684.382	63.66
684.708	63.68
685.034	63.77
685.36	63.79
685.686	63.84
686.012	63.83
686.339	63.83
686.664	63.87
686.99	63.86
687.316	63.87
687.642	63.88
687.968	63.86
688.294	63.9
688.619	63.93
688.945	63.93
689.271	63.91
689.596	63.94
689.922	63.91
690.247	63.94
690.573	63.97
690.898	63.98
691.224	64
691.549	64
691.874	63.93
692.2	63.91
692.525	63.94
692.85	63.95
693.175	63.99
693.5	64.01
693.825	64.06
694.15	64.04
694.475	64.09
694.8	64.09
695.125	64.18
695.45	64.18
695.775	64.25
696.099	64.31
696.424	64.35
696.749	64.39
697.073	64.46
697.398	64.46
697.723	64.43
698.047	64.41
698.372	64.44
698.696	64.47
699.02	64.52
699.345	64.49
699.669	64.5
699.993	64.48
700.318	64.5
700.642	64.53
700.966	64.56
701.29	64.56
701.614	64.57
701.938	64.53
702.262	64.5
702.586	64.41
702.91	64.38
703.234	64.37
703.557	64.31
703.881	64.23
704.205	64.28
704.529	64.32
704.852	64.31
705.176	64.29
705.499	64.3
705.823	64.26
706.146	64.26
706.47	64.3
706.793	64.36
707.117	64.33
707.44	64.32
707.763	64.36
708.086	64.36
708.409	64.35
708.733	64.35
709.056	64.4
709.379	64.47
709.702	64.5
710.025	64.5
710.348	64.52
710.671	64.52
710.993	64.43
711.316	64.42
711.639	64.41
711.962	64.45
712.284	64.42
712.607	64.47
712.93	64.5
713.252	64.48
713.575	64.5
713.897	64.56
714.22	64.57
714.542	64.6
714.864	64.68
715.187	64.79
715.509	64.83
715.831	64.9
716.153	64.95
716.475	64.97
716.798	64.94
717.12	64.96
717.442	64.98
717.764	65.03
718.085	65.12
718.407	65.24
718.729	65.26
719.051	65.33
719.373	65.31
719.695	65.27
720.016	65.24
720.338	65.18
720.659	65.14
720.981	65.11
721.302	65.08
721.624	65.07
721.945	65.02
722.267	64.99
722.588	64.87
722.909	64.86
723.231	64.81
723.552	64.9
723.873	64.96
724.194	64.99
724.515	64.99
724.836	64.9
725.157	64.83
725.478	64.78
725.799	64.8
726.12	64.84
726.441	64.87
726.762	65
727.083	65.11
727.403	65.2
727.724	65.23
728.045	65.28
728.365	65.24
728.686	65.23
729.006	65.23
729.327	65.27
729.647	65.3
729.967	65.31
730.288	65.24
730.608	65.26
730.928	65.25
731.249	65.23
731.569	65.21
731.889	65.23
732.209	65.2
732.529	65.17
732.849	65.19
733.169	65.16
733.489	65.02
733.809	64.98
734.129	64.94
734.448	64.96
734.768	64.88
735.088	64.85
735.408	64.8
735.727	64.78
736.047	64.76
736.366	64.68
736.686	64.66
737.005	64.59
737.325	64.49
737.644	64.45
737.963	64.42
738.283	64.46
738.602	64.43
738.921	64.46
739.24	64.46
739.56	64.39
739.879	64.4
740.198	64.44
740.517	64.39
740.836	64.32
741.155	64.28
741.473	64.28
741.792	64.25
742.111	64.27
742.43	64.27
742.748	64.26
743.067	64.16
743.386	64.15
743.704	64.2
744.023	64.28
744.341	64.3
744.66	64.29
744.978	64.23
745.297	64.23
745.615	64.18
745.933	64.1
746.252	64.05
746.57	64.01
746.888	63.99
747.206	63.96
747.524	64.01
747.842	64.05
748.16	64.06
748.478	64.07
748.796	64.06
749.114	64.01
749.432	64
749.749	64.01
750.067	64.02
750.385	64.01
750.703	63.9
751.02	63.9
751.338	63.92
751.655	63.99
751.973	63.98
752.29	64
752.608	64.01
752.925	64.14
753.242	64.21
753.56	64.27
753.877	64.29
754.194	64.27
754.511	64.28
754.828	64.24
755.145	64.33
755.462	64.39
755.779	64.53
756.096	64.59
756.413	64.76
756.73	64.85
757.047	65.05
757.364	65.23
757.68	65.35
757.997	65.44
758.314	65.5
758.63	65.61
758.947	65.8
759.264	65.98
759.58	66.07
759.896	66.17
760.213	66.35
760.529	66.49
760.846	66.64
761.162	66.71
761.478	66.89
761.794	66.91
762.11	67.03
762.426	67.09
762.743	67.13
763.059	67.24
763.375	67.34
763.69	67.33
764.006	67.3
764.322	67.29
764.638	67.26
764.954	67.28
765.27	67.24
765.585	67.18
765.901	67.06
766.216	66.99
766.532	66.91
766.848	66.77
767.163	66.72
767.478	66.66
767.794	66.56
768.109	66.35
768.424	66.24
768.74	66.14
769.055	66.07
769.37	65.95
769.685	65.72
770	65.49
770.315	65.28
770.63	65.2
770.945	65.11
771.26	65.15
771.575	64.98
771.89	64.97
772.205	64.87
772.52	64.74
772.834	64.7
773.149	64.67
773.464	64.7
773.778	64.74
774.093	64.64
774.407	64.62
774.722	64.76
775.036	64.64
775.351	64.61
775.665	64.5
775.979	64.53
776.293	64.6
776.608	64.64
776.922	64.71
777.236	64.69
777.55	64.64
777.864	64.59
778.178	64.61
778.492	64.51
778.806	64.5
779.12	64.6
779.434	64.64
779.747	64.6
780.061	64.65
780.375	64.52
780.689	64.47
781.002	64.57
781.316	64.6
781.629	64.78
781.943	64.73
782.256	64.81
782.57	64.78
782.883	64.81
783.196	64.76
783.51	64.81
783.823	64.89
784.136	64.94
784.449	64.95
784.762	65.08
785.075	65.16
785.388	65.26
785.701	65.44
786.014	65.45
786.327	65.68
786.64	65.63
786.953	65.69
787.266	65.85
787.578	65.97
787.891	66.03
788.204	66.22
788.516	66.3
788.829	66.41
789.141	66.42
789.454	66.31
789.766	66.32
790.079	66.28
790.391	66.3
790.703	66.32
791.016	66.34
791.328	66.42
791.64	66.51
791.952	66.37
792.264	66.47
792.576	66.52
792.888	66.52
793.2	66.54
793.512	66.6
793.824	66.49
794.136	66.26
794.448	66.25
794.76	66.12
795.071	65.95
795.383	65.89
795.695	65.95
796.006	66.05
796.318	66.11
796.629	66.2
796.941	66.26
797.252	66.3
797.564	66.3
797.875	66.26
798.186	66.25
798.497	66.42
798.809	66.38
799.12	66.43
799.431	66.34
799.742	66.33
800.053	66.37
800.364	66.49
800.675	66.67
800.986	66.71
801.297	66.65
801.608	66.78
801.918	66.73
802.229	66.75
802.54	66.79
802.851	66.76
803.161	66.75
803.472	66.58
803.782	66.42
804.093	66.44
804.403	66.25
804.714	66.34
805.024	66.42
805.334	66.33
805.645	66.22
805.955	66.21
806.265	66.3
806.575	66.14
806.885	66.25
807.195	66.08
807.505	65.94
807.815	65.98
808.125	66.01
808.435	66.14
808.745	66.17
809.055	66.21
809.365	66.34
809.674	66.4
809.984	66.56
810.294	66.86
810.603	66.72
810.913	66.82
811.222	66.85
811.532	66.79
811.841	66.76
812.151	66.92
812.46	67.03
812.769	67.14
813.079	67.32
813.388	67.21
813.697	67.34
814.006	67.52
814.315	67.74
814.624	67.8
814.933	67.91
815.242	67.95
815.551	68.01
815.86	67.98
816.169	68.07
816.478	68.05
816.786	67.89
817.095	68.29
817.404	68.4
817.712	68.16
818.021	68.2
818.33	68.36
818.638	68.32
818.947	68.39
819.255	68.36
819.563	68.58
819.872	68.68
820.18	68.92
820.488	68.9
820.796	68.93
821.105	68.97
821.413	69.03
821.721	69.14
822.029	69.13
822.337	69.2
822.645	69.21
822.953	69.23
823.26	69.25
823.568	69.23
823.876	69.27
824.184	69.33
824.491	69.3
824.799	69.33
825.107	69.31
825.414	69.26
825.722	69.31
826.029	69.25
826.337	69.22
826.644	69.17
826.951	69.18
827.259	69.13
827.566	69.1
827.873	69.03
828.18	68.91
828.488	68.86
828.795	68.81
829.102	68.7
829.409	68.64
829.716	68.61
830.023	68.59
830.329	68.43
830.636	68.41
830.943	68.49
831.25	68.38
831.557	68.45
831.863	68.53
832.17	68.43
832.476	68.45
832.783	68.46
833.089	68.38
833.396	68.4
833.702	68.51
834.009	68.49
834.315	68.6
834.621	68.56
834.928	68.7
835.234	68.68
835.54	68.74
835.846	68.71
836.152	68.77
836.458	68.64
836.764	68.72
837.07	68.62
837.376	68.5
837.682	68.46
837.988	68.46
838.293	68.55
838.599	68.52
838.905	68.54
839.211	68.52
839.516	68.62
839.822	68.63
840.127	68.36
840.433	68.41
840.738	68.21
841.044	68.29
841.349	68.17
841.654	68.15
841.959	68.03
842.265	68.25
842.57	68.23
842.875	68.08
843.18	67.98
843.485	67.93
843.79	67.75
844.095	67.89
844.4	67.39
844.705	67.1
845.01	67.14
845.315	66.81
845.619	66.96
845.924	66.5
846.229	65.99
846.533	65.91
846.838	65.81
847.142	65.55
847.447	65.22
847.751	65.26
848.056	64.97
848.36	65.21
848.664	64.73
848.969	64.67
849.273	64.95
849.577	65.43
849.881	65.56
850.185	65.81
850.489	65.62
850.794	66.29
851.097	66.2
851.401	66.28
851.705	66.53
852.009	66.28
852.313	66.53
852.617	66.78
852.92	66.84
853.224	66.89
853.528	67.15
853.831	67.41
854.135	67.5
854.438	67.78
854.742	67.63
855.045	67.41
855.349	67.5
855.652	67.51
855.955	67.29
856.259	67.38
856.562	67.56
856.865	67.33
857.168	66.86
857.471	67.11
857.774	66.99
858.077	67.09
858.38	67.25
858.683	67.27
858.986	67.52
859.289	67.83
859.592	67.78
859.894	67.39
860.197	67.19
860.5	66.88
860.802	66.38
861.105	66.81
861.407	67.48
861.71	67.12
862.012	67.54
862.315	67.34
862.617	67.52
862.919	67.29
863.222	67.52
863.524	67.59
863.826	67.42
864.128	67.46
864.43	67.54
864.732	67.48
865.034	67.34
865.336	67.35
865.638	67.47
865.94	67.22
866.242	67.43
866.544	67.98
866.846	67.86
867.147	68.28
867.449	68.07
867.751	67.75
868.052	67.91
868.354	67.53
868.655	68.01
868.957	67.78
869.258	67.96
869.56	68.12
869.861	68.72
870.162	69.1
870.463	69.12
870.765	68.72
871.066	68.85
871.367	69.13
871.668	69.07
871.969	69.03
872.27	69.37
872.571	69.55
872.872	69.47
873.173	69.73
873.473	69.67
873.774	69.7
874.075	69.88
874.376	70.05
874.676	70.33
874.977	69.94
875.277	70.12
875.578	69.9
875.878	69.86
876.179	69.65
876.479	69.54
876.78	69.55
877.08	70.03
877.38	69.77
877.68	69.74
877.981	69.93
878.281	69.77
878.581	69.8
