Data from UWBM42201_Reflection_00004.txt Node
Date: Sun May 02 12:48:20 EDT 2021
User: vgr7
Spectrometer: USB2G7710
Scans to average: 10
Trigger mode: 4
Integration Time (sec): 1.000000E-1
Electric dark correction enabled: true
Boxcar width: 20
XAxis mode: Wavelengths
Number of Pixels in Spectrum: 2048
>>>>>Begin Spectral Data<<<<<
177.721	99.39
178.105	98.63
178.488	98.71
178.871	98.6
179.254	97.72
179.636	95.54
180.019	93.64
180.402	91.46
180.785	89.79
181.168	88.61
181.55	86.96
181.933	111.62
182.316	112.55
182.698	115.08
183.081	116.77
183.463	118.87
183.846	121.74
184.228	124.14
184.611	125.41
184.993	128.67
185.376	130.68
185.758	-118.24
186.14	-63.42
186.522	-25.47
186.904	-10.38
187.287	1.93
187.669	7.06
188.051	7.77
188.433	17.32
188.815	10.59
189.197	10.6
189.579	10.78
189.961	8.22
190.342	4.58
190.724	7.38
191.106	7.2
191.488	6.71
191.869	1.96
192.251	2.26
192.633	-0.25
193.014	-2.56
193.396	-4.15
193.777	4.08
194.159	3.9
194.54	0.77
194.922	2.01
195.303	5.39
195.684	5.75
196.065	5.73
196.447	2.6
196.828	0.64
197.209	0.37
197.59	-11.64
197.971	-12.48
198.352	-11.42
198.733	-8.07
199.114	-7.91
199.495	-7.99
199.876	-6.42
200.257	-6.16
200.638	-5.71
201.018	-12.41
201.399	-12.26
201.78	-14.78
202.16	-14.98
202.541	-14.2
202.922	-14.22
203.302	-18.28
203.683	-17.77
204.063	-19.84
204.444	-18.22
204.824	-16.13
205.204	-13.7
205.585	-3.45
205.965	-4.04
206.345	-3.66
206.725	-10.13
207.106	-9.17
207.486	-9.25
207.866	-8.53
208.246	-8.05
208.626	-4.76
209.006	2.12
209.386	-2.62
209.766	-2.11
210.145	-2.2
210.525	-4.32
210.905	-3.89
211.285	-2.91
211.664	-3.51
212.044	-0.83
212.424	-0.47
212.803	-5.57
213.183	-2.93
213.562	-2.32
213.942	-1.17
214.321	-4.28
214.701	-5.72
215.08	-3.51
215.459	-3.25
215.838	-4.83
216.218	-4.79
216.597	-5.4
216.976	-9.55
217.355	-7.31
217.734	-7.65
218.113	-6.51
218.492	-5.66
218.871	-3.98
219.25	-3.53
219.629	-4.49
220.008	-4.19
220.387	-3.68
220.766	-3.03
221.144	-3.31
221.523	-0.5
221.902	0.87
222.28	2.79
222.659	3.57
223.037	3.84
223.416	4.68
223.794	5.36
224.173	4.72
224.551	3.69
224.929	4.34
225.308	5.09
225.686	4.65
226.064	4.87
226.442	4.83
226.821	4.84
227.199	4.64
227.577	3.82
227.955	3.55
228.333	3.57
228.711	3.67
229.089	4.01
229.467	3.35
229.845	4.24
230.222	4.49
230.6	4.77
230.978	4.77
231.356	4.44
231.733	4.47
232.111	4.57
232.488	4.6
232.866	4.57
233.243	4.3
233.621	4.6
233.998	4.4
234.376	4.6
234.753	4.57
235.13	4.76
235.508	5.34
235.885	5.53
236.262	5.56
236.639	5.69
237.016	5.54
237.393	5.47
237.77	5.29
238.147	5.26
238.524	5.22
238.901	5.21
239.278	5.28
239.655	5.35
240.032	5.35
240.409	5.38
240.785	5.32
241.162	5.46
241.539	5.45
241.915	5.48
242.292	5.45
242.668	5.42
243.045	5.43
243.421	5.33
243.798	5.31
244.174	5.29
244.551	5.24
244.927	5.12
245.303	5.08
245.679	5.09
246.056	5.03
246.432	5.02
246.808	4.82
247.184	4.81
247.56	4.78
247.936	4.78
248.312	4.79
248.688	4.87
249.064	4.82
249.44	4.83
249.815	4.83
250.191	4.8
250.567	4.76
250.943	4.8
251.318	4.78
251.694	4.72
252.069	4.66
252.445	4.67
252.82	4.76
253.196	4.76
253.571	4.71
253.947	4.79
254.322	4.78
254.697	4.89
255.073	4.86
255.448	4.84
255.823	4.81
256.198	4.74
256.573	4.56
256.948	4.55
257.323	4.53
257.698	4.47
258.073	4.47
258.448	4.36
258.823	4.34
259.198	4.32
259.573	4.33
259.948	4.35
260.322	4.3
260.697	4.28
261.072	4.27
261.446	4.25
261.821	4.22
262.195	4.19
262.57	4.17
262.944	4.17
263.319	4.14
263.693	4.14
264.067	4.15
264.442	4.24
264.816	4.23
265.19	4.2
265.564	4.24
265.938	4.23
266.313	4.28
266.687	4.25
267.061	4.25
267.435	4.23
267.809	4.21
268.183	4.18
268.556	4.21
268.93	4.2
269.304	4.19
269.678	4.14
270.051	4.1
270.425	4.1
270.799	4.11
271.172	4.11
271.546	4.12
271.919	4.11
272.293	4.08
272.666	4.09
273.04	4.11
273.413	4.05
273.787	4.03
274.16	4.03
274.533	4.07
274.906	4.04
275.279	4.05
275.653	4.05
276.026	4.03
276.399	4
276.772	4
277.145	4.03
277.518	4.04
277.891	4.06
278.263	4.06
278.636	4.08
279.009	4.11
279.382	4.09
279.755	4.03
280.127	4.04
280.5	4.04
280.872	4.03
281.245	4.12
281.617	4.14
281.99	4.16
282.362	4.19
282.735	4.18
283.107	4.18
283.479	4.21
283.852	4.21
284.224	4.23
284.596	4.21
284.968	4.12
285.34	4.12
285.713	4.11
286.085	4.03
286.457	4.03
286.829	4.02
287.201	4.03
287.572	4.09
287.944	4.09
288.316	4.12
288.688	4.16
289.06	4.16
289.431	4.16
289.803	4.16
290.175	4.16
290.546	4.19
290.918	4.2
291.289	4.18
291.661	4.19
292.032	4.15
292.403	4.16
292.775	4.25
293.146	4.25
293.517	4.27
293.889	4.32
294.26	4.32
294.631	4.32
295.002	4.35
295.373	4.38
295.744	4.38
296.115	4.38
296.486	4.31
296.857	4.32
297.228	4.31
297.599	4.3
297.97	4.28
298.34	4.3
298.711	4.23
299.082	4.22
299.452	4.24
299.823	4.28
300.194	4.28
300.564	4.27
300.935	4.28
301.305	4.26
301.676	4.23
302.046	4.22
302.416	4.22
302.787	4.22
303.157	4.16
303.527	4.17
303.897	4.16
304.267	4.16
304.637	4.16
305.008	4.16
305.378	4.18
305.748	4.15
306.117	4.19
306.487	4.25
306.857	4.29
307.227	4.29
307.597	4.28
307.967	4.27
308.336	4.26
308.706	4.27
309.076	4.28
309.445	4.27
309.815	4.17
310.184	4.16
310.554	4.11
310.923	4.14
311.293	4.16
311.662	4.16
312.031	4.14
312.401	4.14
312.77	4.11
313.139	4.11
313.508	4.13
313.877	4.09
314.246	4.08
314.616	4.05
314.985	3.99
315.353	4
315.722	3.99
316.091	3.99
316.46	4
316.829	4.03
317.198	4.04
317.567	4.16
317.935	4.15
318.304	4.19
318.672	4.19
319.041	4.19
319.41	4.2
319.778	4.23
320.147	4.24
320.515	4.23
320.883	4.23
321.252	4.17
321.62	4.2
321.988	4.2
322.357	4.2
322.725	4.27
323.093	4.26
323.461	4.26
323.829	4.27
324.197	4.25
324.565	4.23
324.933	4.23
325.301	4.22
325.669	4.22
326.037	4.22
326.405	4.16
326.772	4.16
327.14	4.14
327.508	4.13
327.875	4.14
328.243	4.14
328.61	4.09
328.978	4.09
329.346	4.09
329.713	4.07
330.08	4.07
330.448	4.05
330.815	4.03
331.182	4.04
331.55	4.03
331.917	4.04
332.284	4.02
332.651	4.04
333.018	4.03
333.385	4.03
333.752	4.04
334.119	4.05
334.486	4.06
334.853	4.02
335.22	4.02
335.587	4.01
335.954	4.01
336.32	4.03
336.687	4.03
337.054	4.02
337.42	4.04
337.787	4.02
338.153	4.05
338.52	4.09
338.886	4.12
339.253	4.11
339.619	4.11
339.986	4.08
340.352	4.08
340.718	4.09
341.084	4.09
341.451	4.08
341.817	4.06
342.183	4.05
342.549	4.07
342.915	4.07
343.281	4.08
343.647	4.09
344.013	4.12
344.379	4.13
344.745	4.13
345.11	4.13
345.476	4.15
345.842	4.16
346.208	4.13
346.573	4.13
346.939	4.15
347.304	4.15
347.67	4.14
348.035	4.16
348.401	4.15
348.766	4.16
349.132	4.17
349.497	4.19
349.862	4.19
350.228	4.21
350.593	4.22
350.958	4.21
351.323	4.2
351.688	4.2
352.053	4.2
352.418	4.2
352.783	4.2
353.148	4.19
353.513	4.17
353.878	4.17
354.243	4.17
354.608	4.16
354.972	4.17
355.337	4.16
355.702	4.14
356.066	4.15
356.431	4.15
356.795	4.15
357.16	4.13
357.524	4.12
357.889	4.11
358.253	4.12
358.618	4.12
358.982	4.13
359.346	4.13
359.71	4.14
360.075	4.14
360.439	4.14
360.803	4.13
361.167	4.13
361.531	4.15
361.895	4.14
362.259	4.14
362.623	4.14
362.987	4.13
363.351	4.14
363.714	4.15
364.078	4.15
364.442	4.15
364.806	4.16
365.169	4.14
365.533	4.13
365.896	4.13
366.26	4.13
366.623	4.12
366.987	4.11
367.35	4.11
367.714	4.12
368.077	4.12
368.44	4.12
368.803	4.12
369.167	4.12
369.53	4.12
369.893	4.13
370.256	4.13
370.619	4.15
370.982	4.14
371.345	4.13
371.708	4.13
372.071	4.13
372.434	4.14
372.797	4.15
373.159	4.17
373.522	4.16
373.885	4.15
374.247	4.14
374.61	4.14
374.973	4.13
375.335	4.12
375.698	4.11
376.06	4.11
376.423	4.1
376.785	4.1
377.147	4.09
377.51	4.1
377.872	4.09
378.234	4.09
378.596	4.1
378.958	4.11
379.321	4.11
379.683	4.11
380.045	4.11
380.407	4.11
380.769	4.1
381.13	4.11
381.492	4.11
381.854	4.12
382.216	4.11
382.578	4.11
382.939	4.12
383.301	4.12
383.663	4.12
384.024	4.12
384.386	4.13
384.747	4.12
385.109	4.11
385.47	4.11
385.832	4.11
386.193	4.11
386.554	4.11
386.916	4.11
387.277	4.11
387.638	4.12
387.999	4.12
388.36	4.13
388.721	4.12
389.082	4.12
389.443	4.12
389.804	4.12
390.165	4.12
390.526	4.12
390.887	4.12
391.248	4.12
391.609	4.12
391.969	4.13
392.33	4.13
392.691	4.13
393.051	4.13
393.412	4.12
393.772	4.13
394.133	4.13
394.493	4.12
394.854	4.12
395.214	4.11
395.574	4.11
395.935	4.1
396.295	4.1
396.655	4.1
397.015	4.1
397.376	4.09
397.736	4.09
398.096	4.08
398.456	4.09
398.816	4.1
399.176	4.09
399.535	4.09
399.895	4.09
400.255	4.1
400.615	4.09
400.975	4.09
401.334	4.09
401.694	4.08
402.054	4.09
402.413	4.07
402.773	4.07
403.132	4.07
403.492	4.08
403.851	4.08
404.211	4.08
404.57	4.09
404.929	4.09
405.288	4.09
405.648	4.1
406.007	4.1
406.366	4.11
406.725	4.11
407.084	4.11
407.443	4.11
407.802	4.1
408.161	4.1
408.52	4.09
408.879	4.09
409.238	4.1
409.596	4.09
409.955	4.11
410.314	4.11
410.673	4.1
411.031	4.11
411.39	4.12
411.748	4.13
412.107	4.13
412.465	4.15
412.824	4.17
413.182	4.18
413.54	4.2
413.899	4.22
414.257	4.25
414.615	4.29
414.974	4.31
415.332	4.36
415.69	4.4
416.048	4.42
416.406	4.47
416.764	4.5
417.122	4.53
417.48	4.56
417.838	4.59
418.195	4.61
418.553	4.63
418.911	4.65
419.269	4.65
419.626	4.65
419.984	4.64
420.342	4.62
420.699	4.61
421.057	4.58
421.414	4.57
421.772	4.56
422.129	4.55
422.486	4.55
422.844	4.55
423.201	4.55
423.558	4.55
423.915	4.55
424.273	4.55
424.63	4.55
424.987	4.55
425.344	4.55
425.701	4.55
426.058	4.55
426.415	4.55
426.772	4.54
427.128	4.54
427.485	4.53
427.842	4.52
428.199	4.51
428.555	4.5
428.912	4.48
429.269	4.45
429.625	4.43
429.982	4.41
430.338	4.38
430.695	4.36
431.051	4.33
431.407	4.31
431.764	4.29
432.12	4.26
432.476	4.25
432.832	4.24
433.189	4.24
433.545	4.25
433.901	4.26
434.257	4.28
434.613	4.31
434.969	4.33
435.325	4.36
435.681	4.41
436.036	4.42
436.392	4.44
436.748	4.44
437.104	4.45
437.459	4.47
437.815	4.48
438.171	4.5
438.526	4.52
438.882	4.55
439.237	4.58
439.593	4.62
439.948	4.65
440.304	4.69
440.659	4.71
441.014	4.73
441.369	4.76
441.725	4.78
442.08	4.8
442.435	4.81
442.79	4.81
443.145	4.81
443.5	4.82
443.855	4.81
444.21	4.81
444.565	4.81
444.92	4.8
445.275	4.79
445.629	4.78
445.984	4.78
446.339	4.77
446.693	4.77
447.048	4.75
447.403	4.74
447.757	4.72
448.112	4.7
448.466	4.67
448.82	4.66
449.175	4.65
449.529	4.63
449.883	4.61
450.238	4.59
450.592	4.59
450.946	4.58
451.3	4.58
451.654	4.59
452.008	4.59
452.362	4.59
452.716	4.6
453.07	4.6
453.424	4.59
453.778	4.59
454.132	4.57
454.486	4.56
454.839	4.54
455.193	4.52
455.547	4.5
455.9	4.47
456.254	4.45
456.607	4.41
456.961	4.39
457.314	4.37
457.668	4.36
458.021	4.35
458.375	4.35
458.728	4.35
459.081	4.35
459.434	4.36
459.787	4.37
460.141	4.38
460.494	4.38
460.847	4.39
461.2	4.39
461.553	4.4
461.906	4.4
462.259	4.41
462.611	4.41
462.964	4.42
463.317	4.42
463.67	4.42
464.022	4.42
464.375	4.43
464.728	4.43
465.08	4.42
465.433	4.43
465.785	4.42
466.138	4.41
466.49	4.39
466.843	4.38
467.195	4.36
467.547	4.34
467.899	4.32
468.252	4.28
468.604	4.26
468.956	4.24
469.308	4.22
469.66	4.22
470.012	4.22
470.364	4.22
470.716	4.23
471.068	4.25
471.42	4.27
471.772	4.29
472.123	4.3
472.475	4.31
472.827	4.32
473.178	4.33
473.53	4.34
473.882	4.36
474.233	4.38
474.585	4.42
474.936	4.48
475.288	4.57
475.639	4.69
475.99	4.83
476.342	4.99
476.693	5.16
477.044	5.33
477.395	5.51
477.746	5.69
478.097	5.87
478.448	6.05
478.8	6.23
479.15	6.4
479.501	6.55
479.852	6.69
480.203	6.82
480.554	6.94
480.905	7.07
481.255	7.18
481.606	7.29
481.957	7.38
482.307	7.48
482.658	7.57
483.009	7.66
483.359	7.75
483.709	7.83
484.06	7.91
484.41	7.99
484.761	8.06
485.111	8.13
485.461	8.2
485.811	8.26
486.162	8.32
486.512	8.37
486.862	8.41
487.212	8.44
487.562	8.46
487.912	8.47
488.262	8.47
488.612	8.47
488.961	8.45
489.311	8.41
489.661	8.34
490.011	8.24
490.36	8.13
490.71	7.99
491.06	7.85
491.409	7.7
491.759	7.54
492.108	7.38
492.458	7.22
492.807	7.04
493.157	6.87
493.506	6.7
493.855	6.55
494.204	6.4
494.554	6.26
494.903	6.13
495.252	6.01
495.601	5.89
495.95	5.77
496.299	5.67
496.648	5.57
496.997	5.47
497.346	5.37
497.695	5.28
498.043	5.2
498.392	5.12
498.741	5.04
499.09	4.96
499.438	4.88
499.787	4.81
500.135	4.75
500.484	4.69
500.832	4.65
501.181	4.6
501.529	4.57
501.878	4.56
502.226	4.55
502.574	4.54
502.923	4.54
503.271	4.54
503.619	4.55
503.967	4.55
504.315	4.55
504.663	4.55
505.011	4.55
505.359	4.55
505.707	4.55
506.055	4.55
506.403	4.56
506.751	4.57
507.098	4.57
507.446	4.59
507.794	4.6
508.141	4.62
508.489	4.64
508.837	4.66
509.184	4.68
509.531	4.7
509.879	4.71
510.226	4.73
510.574	4.75
510.921	4.77
511.268	4.79
511.616	4.81
511.963	4.84
512.31	4.86
512.657	4.89
513.004	4.91
513.351	4.93
513.698	4.94
514.045	4.95
514.392	4.97
514.739	4.97
515.086	4.97
515.432	4.98
515.779	4.98
516.126	4.99
516.473	5
516.819	5
517.166	5.02
517.512	5.03
517.859	5.05
518.205	5.08
518.552	5.11
518.898	5.15
519.245	5.2
519.591	5.26
519.937	5.34
520.283	5.45
520.629	5.56
520.976	5.69
521.322	5.82
521.668	5.95
522.014	6.08
522.36	6.21
522.706	6.33
523.052	6.46
523.398	6.58
523.743	6.68
524.089	6.77
524.435	6.85
524.781	6.92
525.126	6.99
525.472	7.06
525.817	7.13
526.163	7.19
526.509	7.24
526.854	7.29
527.199	7.34
527.545	7.4
527.89	7.45
528.235	7.51
528.581	7.56
528.926	7.61
529.271	7.66
529.616	7.7
529.961	7.73
530.306	7.76
530.651	7.79
530.996	7.81
531.341	7.82
531.686	7.83
532.031	7.82
532.376	7.83
532.721	7.83
533.065	7.83
533.41	7.84
533.755	7.83
534.099	7.8
534.444	7.77
534.788	7.73
535.133	7.69
535.477	7.64
535.822	7.58
536.166	7.52
536.51	7.45
536.855	7.36
537.199	7.28
537.543	7.19
537.887	7.11
538.231	7.04
538.576	6.98
538.92	6.92
539.264	6.86
539.608	6.79
539.951	6.73
540.295	6.66
540.639	6.59
540.983	6.52
541.327	6.47
541.671	6.41
542.014	6.34
542.358	6.28
542.701	6.24
543.045	6.21
543.389	6.18
543.732	6.16
544.075	6.14
544.419	6.13
544.762	6.1
545.105	6.09
545.449	6.08
545.792	6.07
546.135	6.07
546.478	6.06
546.821	6.03
547.165	6
547.508	5.95
547.851	5.9
548.194	5.85
548.536	5.78
548.879	5.71
549.222	5.63
549.565	5.55
549.908	5.48
550.25	5.41
550.593	5.34
550.936	5.29
551.278	5.25
551.621	5.22
551.963	5.19
552.306	5.17
552.648	5.15
552.991	5.13
553.333	5.11
553.675	5.11
554.017	5.1
554.36	5.11
554.702	5.12
555.044	5.13
555.386	5.15
555.728	5.16
556.07	5.17
556.412	5.18
556.754	5.18
557.096	5.18
557.438	5.18
557.78	5.18
558.121	5.18
558.463	5.18
558.805	5.18
559.147	5.18
559.488	5.18
559.83	5.19
560.171	5.19
560.513	5.19
560.854	5.19
561.196	5.18
561.537	5.19
561.878	5.19
562.22	5.2
562.561	5.2
562.902	5.2
563.243	5.21
563.584	5.21
563.925	5.21
564.266	5.21
564.607	5.22
564.948	5.22
565.289	5.23
565.63	5.23
565.971	5.24
566.312	5.24
566.653	5.24
566.993	5.24
567.334	5.24
567.675	5.25
568.015	5.26
568.356	5.26
568.696	5.27
569.037	5.27
569.377	5.27
569.718	5.27
570.058	5.27
570.398	5.28
570.739	5.28
571.079	5.27
571.419	5.27
571.759	5.28
572.099	5.27
572.439	5.28
572.779	5.28
573.119	5.29
573.459	5.28
573.799	5.28
574.139	5.29
574.479	5.29
574.819	5.29
575.158	5.29
575.498	5.28
575.838	5.29
576.177	5.28
576.517	5.28
576.856	5.28
577.196	5.28
577.535	5.28
577.875	5.28
578.214	5.28
578.553	5.28
578.893	5.27
579.232	5.27
579.571	5.27
579.91	5.26
580.25	5.26
580.589	5.26
580.928	5.25
581.267	5.25
581.606	5.25
581.945	5.25
582.283	5.25
582.622	5.24
582.961	5.25
583.3	5.25
583.639	5.25
583.977	5.26
584.316	5.26
584.654	5.27
584.993	5.27
585.332	5.26
585.67	5.27
586.008	5.26
586.347	5.26
586.685	5.27
587.024	5.27
587.362	5.27
587.7	5.27
588.038	5.27
588.376	5.27
588.715	5.28
589.053	5.28
589.391	5.29
589.729	5.29
590.067	5.28
590.404	5.29
590.742	5.29
591.08	5.3
591.418	5.3
591.756	5.3
592.093	5.31
592.431	5.32
592.769	5.32
593.106	5.34
593.444	5.33
593.781	5.33
594.119	5.34
594.456	5.34
594.793	5.34
595.131	5.34
595.468	5.34
595.805	5.34
596.143	5.34
596.48	5.34
596.817	5.35
597.154	5.35
597.491	5.36
597.828	5.36
598.165	5.36
598.502	5.36
598.839	5.36
599.176	5.36
599.512	5.36
599.849	5.37
600.186	5.38
600.523	5.38
600.859	5.38
601.196	5.39
601.532	5.39
601.869	5.39
602.205	5.4
602.542	5.4
602.878	5.4
603.215	5.4
603.551	5.39
603.887	5.39
604.223	5.39
604.56	5.39
604.896	5.39
605.232	5.39
605.568	5.4
605.904	5.4
606.24	5.4
606.576	5.41
606.912	5.41
607.248	5.41
607.583	5.41
607.919	5.41
608.255	5.41
608.591	5.41
608.926	5.41
609.262	5.42
609.597	5.42
609.933	5.42
610.268	5.44
610.604	5.45
610.939	5.45
611.275	5.45
611.61	5.45
611.945	5.45
612.281	5.45
612.616	5.45
612.951	5.43
613.286	5.44
613.621	5.43
613.956	5.42
614.291	5.43
614.626	5.43
614.961	5.43
615.296	5.44
615.631	5.44
615.966	5.43
616.3	5.44
616.635	5.44
616.97	5.44
617.304	5.44
617.639	5.44
617.973	5.44
618.308	5.45
618.642	5.44
618.977	5.44
619.311	5.43
619.646	5.43
619.98	5.45
620.314	5.45
620.648	5.45
620.983	5.46
621.317	5.46
621.651	5.46
621.985	5.46
622.319	5.47
622.653	5.47
622.987	5.48
623.321	5.47
623.655	5.48
623.988	5.48
624.322	5.48
624.656	5.48
624.99	5.48
625.323	5.48
625.657	5.48
625.99	5.49
626.324	5.5
626.657	5.51
626.991	5.5
627.324	5.5
627.658	5.51
627.991	5.51
628.324	5.51
628.657	5.51
628.991	5.52
629.324	5.53
629.657	5.54
629.99	5.54
630.323	5.55
630.656	5.55
630.989	5.55
631.322	5.56
631.655	5.56
631.987	5.55
632.32	5.56
632.653	5.57
632.986	5.57
633.318	5.58
633.651	5.57
633.984	5.57
634.316	5.59
634.649	5.59
634.981	5.6
635.313	5.59
635.646	5.59
635.978	5.58
636.31	5.58
636.643	5.57
636.975	5.57
637.307	5.57
637.639	5.57
637.971	5.58
638.303	5.58
638.635	5.58
638.967	5.59
639.299	5.59
639.631	5.6
639.963	5.61
640.295	5.62
640.626	5.64
640.958	5.64
641.29	5.64
641.621	5.65
641.953	5.65
642.285	5.66
642.616	5.68
642.948	5.67
643.279	5.68
643.61	5.68
643.942	5.68
644.273	5.68
644.604	5.67
644.936	5.68
645.267	5.68
645.598	5.7
645.929	5.7
646.26	5.7
646.591	5.7
646.922	5.71
647.253	5.71
647.584	5.7
647.915	5.7
648.245	5.71
648.576	5.71
648.907	5.71
649.238	5.71
649.568	5.71
649.899	5.72
650.229	5.73
650.56	5.74
650.89	5.75
651.221	5.76
651.551	5.76
651.882	5.78
652.212	5.78
652.542	5.77
652.872	5.78
653.203	5.8
653.533	5.79
653.863	5.78
654.193	5.78
654.523	5.78
654.853	5.78
655.183	5.79
655.513	5.8
655.843	5.8
656.172	5.81
656.502	5.81
656.832	5.8
657.162	5.8
657.491	5.8
657.821	5.8
658.15	5.8
658.48	5.8
658.809	5.79
659.139	5.8
659.468	5.81
659.798	5.82
660.127	5.82
660.456	5.85
660.785	5.85
661.115	5.87
661.444	5.87
661.773	5.89
662.102	5.89
662.431	5.89
662.76	5.9
663.089	5.9
663.418	5.91
663.747	5.9
664.076	5.92
664.404	5.92
664.733	5.92
665.062	5.94
665.39	5.95
665.719	5.94
666.048	5.94
666.376	5.94
666.705	5.93
667.033	5.92
667.362	5.92
667.69	5.94
668.018	5.94
668.347	5.95
668.675	5.93
669.003	5.94
669.331	5.94
669.659	5.94
669.987	5.96
670.315	5.95
670.643	5.98
670.971	5.98
671.299	5.98
671.627	5.98
671.955	5.98
672.283	5.99
672.61	6
672.938	6.03
673.266	6.03
673.593	6.03
673.921	6.04
674.249	6.05
674.576	6.05
674.904	6.07
675.231	6.07
675.558	6.1
675.886	6.11
676.213	6.11
676.54	6.12
676.867	6.13
677.195	6.13
677.522	6.13
677.849	6.16
678.176	6.17
678.503	6.18
678.83	6.19
679.157	6.2
679.484	6.19
679.81	6.19
680.137	6.19
680.464	6.19
680.791	6.19
681.117	6.17
681.444	6.16
681.771	6.15
682.097	6.14
682.424	6.14
682.75	6.13
683.077	6.14
683.403	6.14
683.729	6.14
684.056	6.14
684.382	6.15
684.708	6.15
685.034	6.16
685.36	6.15
685.686	6.15
686.012	6.18
686.339	6.19
686.664	6.19
686.99	6.19
687.316	6.19
687.642	6.21
687.968	6.24
688.294	6.25
688.619	6.25
688.945	6.26
689.271	6.26
689.596	6.26
689.922	6.29
690.247	6.3
690.573	6.32
690.898	6.35
691.224	6.35
691.549	6.34
691.874	6.33
692.2	6.34
692.525	6.34
692.85	6.34
693.175	6.35
693.5	6.37
693.825	6.39
694.15	6.38
694.475	6.4
694.8	6.41
695.125	6.42
695.45	6.46
695.775	6.47
696.099	6.48
696.424	6.48
696.749	6.48
697.073	6.5
697.398	6.5
697.723	6.5
698.047	6.5
698.372	6.52
698.696	6.52
699.02	6.53
699.345	6.52
699.669	6.53
699.993	6.53
700.318	6.52
700.642	6.52
700.966	6.53
701.29	6.53
701.614	6.53
701.938	6.53
702.262	6.54
702.586	6.55
702.91	6.56
703.234	6.56
703.557	6.55
703.881	6.54
704.205	6.56
704.529	6.59
704.852	6.58
705.176	6.61
705.499	6.64
705.823	6.65
706.146	6.66
706.47	6.67
706.793	6.69
707.117	6.8
707.44	6.82
707.763	6.8
708.086	6.81
708.409	6.8
708.733	6.79
709.056	6.79
709.379	6.79
709.702	6.82
710.025	6.83
710.348	6.66
710.671	6.66
710.993	6.66
711.316	6.65
711.639	6.66
711.962	6.65
712.284	6.66
712.607	6.67
712.93	6.67
713.252	6.69
713.575	6.68
713.897	6.68
714.22	6.7
714.542	6.74
714.864	6.8
715.187	6.84
715.509	6.84
715.831	6.84
716.153	6.86
716.475	6.84
716.798	6.84
717.12	7.02
717.442	7.04
717.764	7.02
718.085	6.95
718.407	6.94
718.729	6.93
719.051	6.94
719.373	6.95
719.695	6.94
720.016	6.92
720.338	6.86
720.659	6.87
720.981	6.91
721.302	6.89
721.624	6.91
721.945	6.9
722.267	6.91
722.588	6.93
722.909	6.95
723.231	6.99
723.552	7.01
723.873	7.04
724.194	7.04
724.515	7.06
724.836	7.19
725.157	7.19
725.478	7.21
725.799	7.24
726.12	7.25
726.441	7.24
726.762	7.27
727.083	7.25
727.403	7.22
727.724	7.21
728.045	7.13
728.365	7.15
728.686	7.2
729.006	7.21
729.327	7.21
729.647	7.21
729.967	7.2
730.288	7.22
730.608	7.22
730.928	7.23
731.249	7.21
731.569	7.23
731.889	7.22
732.209	7.25
732.529	7.26
732.849	7.29
733.169	7.31
733.489	7.29
733.809	7.29
734.129	7.31
734.448	7.34
734.768	7.32
735.088	7.33
735.408	7.33
735.727	7.33
736.047	7.36
736.366	7.36
736.686	7.39
737.005	7.41
737.325	7.39
737.644	7.39
737.963	7.38
738.283	7.38
738.602	7.4
738.921	7.4
739.24	7.4
739.56	7.42
739.879	7.42
740.198	7.45
740.517	7.48
740.836	7.48
741.155	7.48
741.473	7.5
741.792	7.5
742.111	7.52
742.43	7.54
742.748	7.53
743.067	7.53
743.386	7.56
743.704	7.57
744.023	7.62
744.341	7.63
744.66	7.63
744.978	7.6
745.297	7.61
745.615	7.59
745.933	7.61
746.252	7.6
746.57	7.55
746.888	7.56
747.206	7.56
747.524	7.54
747.842	7.57
748.16	7.58
748.478	7.57
748.796	7.52
749.114	7.48
749.432	7.47
749.749	7.48
750.067	7.48
750.385	7.49
750.703	7.51
751.02	7.5
751.338	7.54
751.655	7.58
751.973	7.59
752.29	7.57
752.608	7.62
752.925	7.64
753.242	7.71
753.56	7.78
753.877	7.76
754.194	7.81
754.511	7.8
754.828	7.8
755.145	7.84
755.462	7.87
755.779	7.86
756.096	7.91
756.413	7.89
756.73	7.84
757.047	7.85
757.364	7.86
757.68	7.91
757.997	7.91
758.314	7.9
758.63	7.92
758.947	7.96
759.264	7.97
759.58	7.98
759.896	7.98
760.213	7.99
760.529	8.01
760.846	7.98
761.162	8
761.478	8.03
761.794	8.04
762.11	8.04
762.426	8.08
762.743	8.06
763.059	8.12
763.375	8.16
763.69	8.17
764.006	8.2
764.322	8.21
764.638	8.24
764.954	8.25
765.27	8.3
765.585	8.27
765.901	8.3
766.216	8.16
766.532	8.12
766.848	8.1
767.163	8.14
767.478	8.2
767.794	8.22
768.109	8.23
768.424	8.24
768.74	8.26
769.055	8.28
769.37	8.32
769.685	8.33
770	8.32
770.315	8.35
770.63	8.26
770.945	8.2
771.26	8.19
771.575	8.18
771.89	8.15
772.205	8.19
772.52	8.18
772.834	8.35
773.149	8.42
773.464	8.39
773.778	8.38
774.093	8.38
774.407	8.41
774.722	8.44
775.036	8.44
775.351	8.42
775.665	8.39
775.979	8.27
776.293	8.24
776.608	8.25
776.922	8.21
777.236	8.29
777.55	8.35
777.864	8.41
778.178	8.43
778.492	8.39
778.806	8.32
779.12	8.35
779.434	8.35
779.747	8.34
780.061	8.48
780.375	8.4
780.689	8.32
781.002	8.34
781.316	8.33
781.629	8.39
781.943	8.43
782.256	8.47
782.57	8.55
782.883	8.52
783.196	8.52
783.51	8.59
783.823	8.66
784.136	8.64
784.449	8.7
784.762	8.71
785.075	8.78
785.388	8.76
785.701	8.72
786.014	8.68
786.327	8.72
786.64	8.7
786.953	8.74
787.266	8.77
787.578	8.74
787.891	8.79
788.204	8.78
788.516	8.8
788.829	8.85
789.141	8.84
789.454	8.84
789.766	8.87
790.079	8.88
790.391	8.86
790.703	8.95
791.016	8.79
791.328	8.85
791.64	8.9
791.952	8.97
792.264	9.01
792.576	9.04
792.888	9.03
793.2	9.05
793.512	9.1
793.824	9.01
794.136	9
794.448	9.07
794.76	9.09
795.071	9.12
795.383	9.08
795.695	9.24
796.006	9.32
796.318	9.34
796.629	9.33
796.941	9.33
797.252	9.27
797.564	9.36
797.875	9.29
798.186	9.24
798.497	9.28
798.809	9.15
799.12	9.13
799.431	9.14
799.742	9.16
800.053	9.07
800.364	9.17
800.675	9.18
800.986	9.18
801.297	9.3
801.608	9.28
801.918	9.28
802.229	9.31
802.54	9.28
802.851	9.24
803.161	9.25
803.472	9.27
803.782	9.21
804.093	9.27
804.403	9.2
804.714	9.27
805.024	9.33
805.334	9.41
805.645	9.39
805.955	9.47
806.265	9.41
806.575	9.43
806.885	9.4
807.195	9.38
807.505	9.38
807.815	9.32
808.125	9.39
808.435	9.35
808.745	9.32
809.055	9.31
809.365	9.4
809.674	9.43
809.984	9.51
810.294	9.48
810.603	9.48
810.913	9.75
811.222	9.7
811.532	9.78
811.841	9.81
812.151	9.88
812.46	9.89
812.769	9.97
813.079	10.01
813.388	10.03
813.697	10.03
814.006	9.98
814.315	10.07
814.624	10.08
814.933	10.04
815.242	9.93
815.551	10.02
815.86	9.94
816.169	9.91
816.478	9.91
816.786	9.91
817.095	9.92
817.404	9.95
817.712	9.96
818.021	9.94
818.33	9.96
818.638	9.97
818.947	9.99
819.255	10.03
819.563	10.06
819.872	10.06
820.18	10.08
820.488	10.08
820.796	10.05
821.105	10.03
821.413	10.05
821.721	10.08
822.029	10.1
822.337	10.14
822.645	10.16
822.953	10.14
823.26	10.16
823.568	10.18
823.876	10.16
824.184	10.18
824.491	10.17
824.799	10.16
825.107	10.16
825.414	10.17
825.722	10.17
826.029	10.17
826.337	10.18
826.644	10.17
826.951	10.18
827.259	10.19
827.566	10.23
827.873	10.28
828.18	10.25
828.488	10.26
828.795	10.26
829.102	10.31
829.409	10.33
829.716	10.34
830.023	10.34
830.329	10.37
830.636	10.4
830.943	10.47
831.25	10.52
831.557	10.51
831.863	10.53
832.17	10.53
832.476	10.57
832.783	10.58
833.089	10.62
833.396	10.6
833.702	10.61
834.009	10.55
834.315	10.55
834.621	10.66
834.928	10.67
835.234	10.66
835.54	10.68
835.846	10.75
836.152	10.73
836.458	10.78
836.764	10.7
837.07	10.73
837.376	10.64
837.682	10.6
837.988	10.66
838.293	10.52
838.599	10.58
838.905	10.54
839.211	10.59
839.516	10.62
839.822	10.75
840.127	10.73
840.433	10.8
840.738	10.82
841.044	10.85
841.349	10.92
841.654	10.99
841.959	11
842.265	11.01
842.57	11.03
842.875	11.04
843.18	11.15
843.485	11.19
843.79	11.31
844.095	11.52
844.4	11.32
844.705	11.53
845.01	11.54
845.315	11.5
845.619	11.38
845.924	11.29
846.229	11.12
846.533	11.2
846.838	11.25
847.142	11.02
847.447	10.99
847.751	10.8
848.056	10.89
848.36	10.81
848.664	10.77
848.969	10.59
849.273	10.51
849.577	10.34
849.881	10.24
850.185	10.2
850.489	10.54
850.794	10.83
851.097	10.72
851.401	10.79
851.705	10.9
852.009	11.05
852.313	10.93
852.617	11.13
852.92	11
853.224	10.92
853.528	10.81
853.831	10.89
854.135	10.69
854.438	10.67
854.742	10.76
855.045	10.91
855.349	11.05
855.652	11.27
855.955	11.25
856.259	11.34
856.562	11.55
856.865	11.51
857.168	11.38
857.471	11.45
857.774	11.43
858.077	11.13
858.38	11.21
858.683	11.43
858.986	11.39
859.289	11.62
859.592	11.71
859.894	11.95
860.197	12.07
860.5	12.09
860.802	12.23
861.105	12.21
861.407	12.5
861.71	12.46
862.012	12.51
862.315	12.66
862.617	12.44
862.919	11.83
863.222	11.95
863.524	12.08
863.826	12.38
864.128	12.47
864.43	12.55
864.732	12.52
865.034	12.57
865.336	12.72
865.638	12.48
865.94	12.42
866.242	12.22
866.544	11.71
866.846	12.06
867.147	11.66
867.449	11.44
867.751	11.55
868.052	11.56
868.354	11.47
868.655	11.42
868.957	11.5
869.258	11.56
869.56	11.5
869.861	11.53
870.162	11.3
870.463	11.41
870.765	11.45
871.066	11.4
871.367	11.18
871.668	11.17
871.969	11.3
872.27	11.32
872.571	11.36
872.872	11.71
873.173	11.48
873.473	11.79
873.774	11.85
874.075	11.92
874.376	12.1
874.676	12.11
874.977	12.19
875.277	12.19
875.578	12.12
875.878	11.77
876.179	11.69
876.479	11.51
876.78	11.5
877.08	11.57
877.38	11.54
877.68	11.56
877.981	11.68
878.281	11.56
878.581	11.75
