Data from UWBM55942_Reflection_00006.txt Node
Date: Sun May 02 14:10:47 EDT 2021
User: vgr7
Spectrometer: USB2G7710
Scans to average: 10
Trigger mode: 4
Integration Time (sec): 1.000000E-1
Electric dark correction enabled: true
Boxcar width: 20
XAxis mode: Wavelengths
Number of Pixels in Spectrum: 2048
>>>>>Begin Spectral Data<<<<<
177.721	-400
178.105	3.09
178.488	-31.33
178.871	-188.24
179.254	26.06
179.636	-38.87
180.019	-17.33
180.402	-37.52
180.785	-27.17
181.168	-14.29
181.55	-24.48
181.933	-11.93
182.316	-13.99
182.698	-11.07
183.081	-11.69
183.463	-14.72
183.846	-15.64
184.228	-10.38
184.611	-12.99
184.993	-13.9
185.376	-12.15
185.758	-6.56
186.14	-2.18
186.522	-2.89
186.904	-2.55
187.287	-0.97
187.669	1.14
188.051	1.25
188.433	-0.57
188.815	-4.49
189.197	-2.55
189.579	-3.1
189.961	-3.09
190.342	-3.99
190.724	-3.93
191.106	-2.11
191.488	0.09
191.869	-3.34
192.251	-7.64
192.633	-7.1
193.014	-6.19
193.396	-8.92
193.777	-7.6
194.159	-6.58
194.54	-7.23
194.922	-7.84
195.303	-6.64
195.684	-6.55
196.065	-6.08
196.447	-4.25
196.828	-6.47
197.209	-6.06
197.59	-8.25
197.971	-8.26
198.352	-7.51
198.733	-6.41
199.114	-4.66
199.495	-3.38
199.876	-6.09
200.257	-5.55
200.638	-6.72
201.018	-4.58
201.399	-3.87
201.78	-5.48
202.16	-4.72
202.541	-5.58
202.922	-6.79
203.302	-6.75
203.683	-7.49
204.063	-5.5
204.444	-5.79
204.824	-6.21
205.204	-7.34
205.585	-6.16
205.965	-4.86
206.345	-5.14
206.725	-5.79
207.106	-8.13
207.486	-6.4
207.866	-4.37
208.246	-5.32
208.626	-6.24
209.006	-4.04
209.386	-4.23
209.766	-5.24
210.145	-4.14
210.525	-3.55
210.905	-3.36
211.285	-4.47
211.664	-3.6
212.044	-5.02
212.424	-5.42
212.803	-5.45
213.183	-6.24
213.562	-5.07
213.942	-6.08
214.321	-8.19
214.701	-10.04
215.08	-9.9
215.459	-8.67
215.838	-9.4
216.218	-8.56
216.597	-10.38
216.976	-11.69
217.355	-10.32
217.734	-10.23
218.113	-9.62
218.492	-11.17
218.871	-10.98
219.25	-9.55
219.629	-9.14
220.008	-8.57
220.387	-10.7
220.766	-8.75
221.144	-8.28
221.523	-8.35
221.902	-7.87
222.28	-7.49
222.659	-6.23
223.037	-6.85
223.416	-6.55
223.794	-5.3
224.173	-4.03
224.551	-4.53
224.929	-2.84
225.308	-2.95
225.686	-3.25
226.064	-2.79
226.442	-2.15
226.821	-1.46
227.199	-1.18
227.577	-0.97
227.955	-0.54
228.333	-0.25
228.711	0.17
229.089	-0.33
229.467	-0.18
229.845	0.4
230.222	0.92
230.6	1.22
230.978	1.58
231.356	1.89
231.733	2.14
232.111	2.28
232.488	2.5
232.866	2.37
233.243	2.43
233.621	2.58
233.998	2.9
234.376	2.97
234.753	2.93
235.13	2.98
235.508	3.27
235.885	3.52
236.262	3.61
236.639	3.64
237.016	3.67
237.393	3.8
237.77	3.94
238.147	3.9
238.524	4.08
238.901	4.17
239.278	4.23
239.655	4.23
240.032	4.34
240.409	4.33
240.785	4.4
241.162	4.48
241.539	4.47
241.915	4.53
242.292	4.59
242.668	4.59
243.045	4.62
243.421	4.63
243.798	4.67
244.174	4.71
244.551	4.73
244.927	4.73
245.303	4.72
245.679	4.73
246.056	4.65
246.432	4.65
246.808	4.66
247.184	4.65
247.56	4.66
247.936	4.66
248.312	4.63
248.688	4.64
249.064	4.63
249.44	4.61
249.815	4.6
250.191	4.55
250.567	4.56
250.943	4.53
251.318	4.54
251.694	4.55
252.069	4.56
252.445	4.57
252.82	4.55
253.196	4.53
253.571	4.51
253.947	4.49
254.322	4.45
254.697	4.46
255.073	4.43
255.448	4.42
255.823	4.38
256.198	4.37
256.573	4.32
256.948	4.32
257.323	4.28
257.698	4.24
258.073	4.22
258.448	4.2
258.823	4.19
259.198	4.19
259.573	4.17
259.948	4.18
260.322	4.18
260.697	4.15
261.072	4.14
261.446	4.14
261.821	4.11
262.195	4.11
262.57	4.1
262.944	4.11
263.319	4.12
263.693	4.14
264.067	4.15
264.442	4.13
264.816	4.12
265.19	4.12
265.564	4.16
265.938	4.15
266.313	4.16
266.687	4.15
267.061	4.14
267.435	4.13
267.809	4.13
268.183	4.12
268.556	4.12
268.93	4.14
269.304	4.14
269.678	4.15
270.051	4.12
270.425	4.12
270.799	4.1
271.172	4.11
271.546	4.12
271.919	4.13
272.293	4.13
272.666	4.13
273.04	4.12
273.413	4.16
273.787	4.16
274.16	4.17
274.533	4.16
274.906	4.16
275.279	4.16
275.653	4.17
276.026	4.19
276.399	4.19
276.772	4.21
277.145	4.21
277.518	4.22
277.891	4.22
278.263	4.21
278.636	4.22
279.009	4.21
279.382	4.22
279.755	4.23
280.127	4.26
280.5	4.27
280.872	4.27
281.245	4.28
281.617	4.27
281.99	4.3
282.362	4.28
282.735	4.27
283.107	4.28
283.479	4.27
283.852	4.28
284.224	4.28
284.596	4.26
284.968	4.28
285.34	4.28
285.713	4.31
286.085	4.31
286.457	4.31
286.829	4.3
287.201	4.3
287.572	4.29
287.944	4.29
288.316	4.3
288.688	4.28
289.06	4.29
289.431	4.29
289.803	4.29
290.175	4.3
290.546	4.31
290.918	4.31
291.289	4.3
291.661	4.3
292.032	4.3
292.403	4.31
292.775	4.31
293.146	4.31
293.517	4.32
293.889	4.3
294.26	4.32
294.631	4.32
295.002	4.35
295.373	4.34
295.744	4.33
296.115	4.32
296.486	4.34
296.857	4.36
297.228	4.35
297.599	4.37
297.97	4.37
298.34	4.36
298.711	4.38
299.082	4.38
299.452	4.37
299.823	4.38
300.194	4.37
300.564	4.38
300.935	4.37
301.305	4.37
301.676	4.36
302.046	4.36
302.416	4.36
302.787	4.36
303.157	4.36
303.527	4.37
303.897	4.37
304.267	4.38
304.637	4.37
305.008	4.37
305.378	4.35
305.748	4.34
306.117	4.33
306.487	4.35
306.857	4.35
307.227	4.36
307.597	4.36
307.967	4.36
308.336	4.36
308.706	4.34
309.076	4.35
309.445	4.34
309.815	4.32
310.184	4.29
310.554	4.3
310.923	4.3
311.293	4.29
311.662	4.27
312.031	4.24
312.401	4.25
312.77	4.25
313.139	4.25
313.508	4.26
313.877	4.24
314.246	4.25
314.616	4.26
314.985	4.26
315.353	4.26
315.722	4.24
316.091	4.24
316.46	4.22
316.829	4.22
317.198	4.23
317.567	4.22
317.935	4.22
318.304	4.22
318.672	4.22
319.041	4.22
319.41	4.2
319.778	4.2
320.147	4.2
320.515	4.2
320.883	4.18
321.252	4.18
321.62	4.16
321.988	4.15
322.357	4.14
322.725	4.13
323.093	4.11
323.461	4.09
323.829	4.1
324.197	4.11
324.565	4.09
324.933	4.11
325.301	4.11
325.669	4.1
326.037	4.09
326.405	4.09
326.772	4.1
327.14	4.1
327.508	4.07
327.875	4.07
328.243	4.05
328.61	4.04
328.978	4.03
329.346	4.03
329.713	4.03
330.08	4.03
330.448	4.01
330.815	4.01
331.182	4.01
331.55	4
331.917	4.01
332.284	3.98
332.651	3.98
333.018	3.98
333.385	3.99
333.752	3.98
334.119	3.97
334.486	3.97
334.853	3.97
335.22	3.96
335.587	3.96
335.954	3.96
336.32	3.96
336.687	3.95
337.054	3.95
337.42	3.96
337.787	3.98
338.153	3.99
338.52	3.98
338.886	3.97
339.253	3.97
339.619	3.97
339.986	3.96
340.352	3.96
340.718	3.96
341.084	3.97
341.451	3.95
341.817	3.95
342.183	3.96
342.549	3.96
342.915	3.96
343.281	3.97
343.647	3.96
344.013	3.96
344.379	3.94
344.745	3.94
345.11	3.94
345.476	3.96
345.842	3.96
346.208	3.96
346.573	3.96
346.939	3.95
347.304	3.96
347.67	3.97
348.035	3.97
348.401	3.97
348.766	3.97
349.132	3.98
349.497	3.99
349.862	3.98
350.228	3.99
350.593	3.98
350.958	3.99
351.323	3.99
351.688	4
352.053	4
352.418	3.99
352.783	3.98
353.148	3.98
353.513	4
353.878	4.01
354.243	4.01
354.608	4.02
354.972	4.03
355.337	4.04
355.702	4.04
356.066	4.04
356.431	4.04
356.795	4.04
357.16	4.03
357.524	4.03
357.889	4.03
358.253	4.02
358.618	4.02
358.982	4.03
359.346	4.04
359.71	4.03
360.075	4.04
360.439	4.04
360.803	4.03
361.167	4.04
361.531	4.03
361.895	4.03
362.259	4.03
362.623	4.02
362.987	4.02
363.351	4.02
363.714	4.02
364.078	4.02
364.442	4.01
364.806	4.01
365.169	4.02
365.533	4.02
365.896	4.02
366.26	4.02
366.623	4.01
366.987	4.01
367.35	4.02
367.714	4.02
368.077	4.02
368.44	4.01
368.803	4
369.167	3.99
369.53	3.99
369.893	3.98
370.256	3.97
370.619	3.97
370.982	3.97
371.345	3.97
371.708	3.98
372.071	3.98
372.434	3.98
372.797	3.97
373.159	3.98
373.522	3.99
373.885	4
374.247	3.99
374.61	3.98
374.973	3.97
375.335	3.97
375.698	3.97
376.06	3.97
376.423	3.97
376.785	3.97
377.147	3.98
377.51	3.97
377.872	3.97
378.234	3.97
378.596	3.97
378.958	3.97
379.321	3.97
379.683	3.96
380.045	3.96
380.407	3.96
380.769	3.96
381.13	3.96
381.492	3.96
381.854	3.96
382.216	3.95
382.578	3.95
382.939	3.95
383.301	3.95
383.663	3.95
384.024	3.95
384.386	3.95
384.747	3.95
385.109	3.96
385.47	3.95
385.832	3.95
386.193	3.95
386.554	3.94
386.916	3.94
387.277	3.94
387.638	3.94
387.999	3.94
388.36	3.93
388.721	3.93
389.082	3.93
389.443	3.94
389.804	3.93
390.165	3.94
390.526	3.94
390.887	3.93
391.248	3.93
391.609	3.93
391.969	3.93
392.33	3.93
392.691	3.93
393.051	3.93
393.412	3.93
393.772	3.93
394.133	3.92
394.493	3.92
394.854	3.92
395.214	3.92
395.574	3.93
395.935	3.92
396.295	3.92
396.655	3.92
397.015	3.92
397.376	3.92
397.736	3.92
398.096	3.92
398.456	3.92
398.816	3.93
399.176	3.93
399.535	3.93
399.895	3.93
400.255	3.93
400.615	3.93
400.975	3.93
401.334	3.93
401.694	3.93
402.054	3.93
402.413	3.93
402.773	3.93
403.132	3.93
403.492	3.93
403.851	3.93
404.211	3.93
404.57	3.94
404.929	3.93
405.288	3.94
405.648	3.94
406.007	3.94
406.366	3.94
406.725	3.94
407.084	3.94
407.443	3.94
407.802	3.95
408.161	3.95
408.52	3.95
408.879	3.95
409.238	3.95
409.596	3.96
409.955	3.96
410.314	3.96
410.673	3.96
411.031	3.97
411.39	3.98
411.748	3.98
412.107	3.99
412.465	4
412.824	4.02
413.182	4.04
413.54	4.07
413.899	4.1
414.257	4.13
414.615	4.17
414.974	4.2
415.332	4.24
415.69	4.28
416.048	4.32
416.406	4.36
416.764	4.39
417.122	4.43
417.48	4.46
417.838	4.49
418.195	4.52
418.553	4.54
418.911	4.56
419.269	4.57
419.626	4.57
419.984	4.56
420.342	4.55
420.699	4.54
421.057	4.52
421.414	4.5
421.772	4.49
422.129	4.48
422.486	4.48
422.844	4.48
423.201	4.48
423.558	4.47
423.915	4.47
424.273	4.47
424.63	4.47
424.987	4.47
425.344	4.47
425.701	4.47
426.058	4.47
426.415	4.48
426.772	4.47
427.128	4.47
427.485	4.46
427.842	4.45
428.199	4.44
428.555	4.42
428.912	4.4
429.269	4.37
429.625	4.35
429.982	4.32
430.338	4.29
430.695	4.27
431.051	4.24
431.407	4.21
431.764	4.2
432.12	4.17
432.476	4.16
432.832	4.15
433.189	4.15
433.545	4.15
433.901	4.17
434.257	4.19
434.613	4.21
434.969	4.24
435.325	4.26
435.681	4.3
436.036	4.32
436.392	4.35
436.748	4.36
437.104	4.37
437.459	4.4
437.815	4.42
438.171	4.44
438.526	4.46
438.882	4.5
439.237	4.54
439.593	4.57
439.948	4.61
440.304	4.64
440.659	4.67
441.014	4.69
441.369	4.72
441.725	4.74
442.08	4.76
442.435	4.78
442.79	4.78
443.145	4.79
443.5	4.79
443.855	4.79
444.21	4.79
444.565	4.79
444.92	4.78
445.275	4.77
445.629	4.76
445.984	4.75
446.339	4.74
446.693	4.73
447.048	4.71
447.403	4.7
447.757	4.67
448.112	4.66
448.466	4.63
448.82	4.61
449.175	4.58
449.529	4.57
449.883	4.54
450.238	4.52
450.592	4.52
450.946	4.51
451.3	4.51
451.654	4.52
452.008	4.52
452.362	4.52
452.716	4.52
453.07	4.52
453.424	4.52
453.778	4.51
454.132	4.5
454.486	4.49
454.839	4.47
455.193	4.45
455.547	4.43
455.9	4.4
456.254	4.39
456.607	4.36
456.961	4.33
457.314	4.3
457.668	4.29
458.021	4.28
458.375	4.28
458.728	4.28
459.081	4.28
459.434	4.28
459.787	4.29
460.141	4.3
460.494	4.31
460.847	4.31
461.2	4.32
461.553	4.33
461.906	4.33
462.259	4.33
462.611	4.33
462.964	4.33
463.317	4.34
463.67	4.34
464.022	4.35
464.375	4.35
464.728	4.36
465.08	4.36
465.433	4.36
465.785	4.35
466.138	4.33
466.49	4.31
466.843	4.29
467.195	4.27
467.547	4.24
467.899	4.22
468.252	4.19
468.604	4.16
468.956	4.14
469.308	4.12
469.66	4.12
470.012	4.11
470.364	4.11
470.716	4.11
471.068	4.12
471.42	4.14
471.772	4.16
472.123	4.17
472.475	4.18
472.827	4.19
473.178	4.2
473.53	4.21
473.882	4.22
474.233	4.24
474.585	4.28
474.936	4.34
475.288	4.43
475.639	4.55
475.99	4.68
476.342	4.83
476.693	5
477.044	5.17
477.395	5.35
477.746	5.53
478.097	5.7
478.448	5.89
478.8	6.06
479.15	6.23
479.501	6.38
479.852	6.52
480.203	6.66
480.554	6.78
480.905	6.91
481.255	7.02
481.606	7.13
481.957	7.24
482.307	7.34
482.658	7.43
483.009	7.52
483.359	7.61
483.709	7.7
484.06	7.78
484.41	7.86
484.761	7.94
485.111	8.01
485.461	8.08
485.811	8.15
486.162	8.21
486.512	8.26
486.862	8.3
487.212	8.33
487.562	8.35
487.912	8.36
488.262	8.37
488.612	8.36
488.961	8.34
489.311	8.3
489.661	8.23
490.011	8.13
490.36	8.03
490.71	7.9
491.06	7.76
491.409	7.61
491.759	7.46
492.108	7.3
492.458	7.13
492.807	6.96
493.157	6.79
493.506	6.63
493.855	6.47
494.204	6.33
494.554	6.18
494.903	6.05
495.252	5.92
495.601	5.8
495.95	5.68
496.299	5.57
496.648	5.46
496.997	5.36
497.346	5.27
497.695	5.17
498.043	5.08
498.392	5
498.741	4.91
499.09	4.83
499.438	4.75
499.787	4.68
500.135	4.61
500.484	4.55
500.832	4.5
501.181	4.45
501.529	4.43
501.878	4.41
502.226	4.4
502.574	4.39
502.923	4.39
503.271	4.39
503.619	4.38
503.967	4.38
504.315	4.38
504.663	4.37
505.011	4.36
505.359	4.36
505.707	4.35
506.055	4.35
506.403	4.34
506.751	4.35
507.098	4.35
507.446	4.35
507.794	4.36
508.141	4.37
508.489	4.37
508.837	4.39
509.184	4.4
509.531	4.41
509.879	4.42
510.226	4.43
510.574	4.45
510.921	4.47
511.268	4.49
511.616	4.51
511.963	4.53
512.31	4.55
512.657	4.57
513.004	4.59
513.351	4.61
513.698	4.62
514.045	4.63
514.392	4.63
514.739	4.63
515.086	4.63
515.432	4.62
515.779	4.62
516.126	4.61
516.473	4.61
516.819	4.61
517.166	4.61
517.512	4.62
517.859	4.63
518.205	4.65
518.552	4.68
518.898	4.71
519.245	4.75
519.591	4.81
519.937	4.88
520.283	4.97
520.629	5.08
520.976	5.19
521.322	5.31
521.668	5.43
522.014	5.56
522.36	5.68
522.706	5.8
523.052	5.92
523.398	6.03
523.743	6.12
524.089	6.21
524.435	6.28
524.781	6.35
525.126	6.41
525.472	6.46
525.817	6.52
526.163	6.57
526.509	6.61
526.854	6.65
527.199	6.7
527.545	6.75
527.89	6.8
528.235	6.85
528.581	6.89
528.926	6.94
529.271	6.97
529.616	7.01
529.961	7.04
530.306	7.08
530.651	7.1
530.996	7.12
531.341	7.13
531.686	7.14
532.031	7.14
532.376	7.15
532.721	7.15
533.065	7.16
533.41	7.16
533.755	7.15
534.099	7.14
534.444	7.11
534.788	7.08
535.133	7.04
535.477	6.99
535.822	6.94
536.166	6.88
536.51	6.81
536.855	6.73
537.199	6.65
537.543	6.57
537.887	6.5
538.231	6.44
538.576	6.38
538.92	6.32
539.264	6.26
539.608	6.2
539.951	6.14
540.295	6.08
540.639	6.02
540.983	5.95
541.327	5.88
541.671	5.81
542.014	5.75
542.358	5.69
542.701	5.64
543.045	5.61
543.389	5.58
543.732	5.56
544.075	5.54
544.419	5.52
544.762	5.51
545.105	5.49
545.449	5.48
545.792	5.47
546.135	5.46
546.478	5.45
546.821	5.43
547.165	5.39
547.508	5.35
547.851	5.3
548.194	5.25
548.536	5.18
548.879	5.11
549.222	5.04
549.565	4.97
549.908	4.9
550.25	4.83
550.593	4.77
550.936	4.72
551.278	4.68
551.621	4.64
551.963	4.61
552.306	4.58
552.648	4.56
552.991	4.55
553.333	4.53
553.675	4.52
554.017	4.52
554.36	4.52
554.702	4.52
555.044	4.53
555.386	4.54
555.728	4.56
556.07	4.57
556.412	4.59
556.754	4.6
557.096	4.6
557.438	4.6
557.78	4.6
558.121	4.6
558.463	4.6
558.805	4.6
559.147	4.6
559.488	4.6
559.83	4.6
560.171	4.61
560.513	4.61
560.854	4.61
561.196	4.62
561.537	4.62
561.878	4.62
562.22	4.62
562.561	4.62
562.902	4.62
563.243	4.62
563.584	4.62
563.925	4.62
564.266	4.62
564.607	4.62
564.948	4.63
565.289	4.63
565.63	4.63
565.971	4.64
566.312	4.64
566.653	4.64
566.993	4.65
567.334	4.65
567.675	4.65
568.015	4.66
568.356	4.66
568.696	4.66
569.037	4.66
569.377	4.67
569.718	4.67
570.058	4.67
570.398	4.67
570.739	4.67
571.079	4.67
571.419	4.67
571.759	4.67
572.099	4.67
572.439	4.68
572.779	4.68
573.119	4.68
573.459	4.68
573.799	4.68
574.139	4.68
574.479	4.68
574.819	4.68
575.158	4.67
575.498	4.67
575.838	4.67
576.177	4.67
576.517	4.67
576.856	4.67
577.196	4.67
577.535	4.67
577.875	4.67
578.214	4.67
578.553	4.67
578.893	4.67
579.232	4.67
579.571	4.67
579.91	4.67
580.25	4.66
580.589	4.66
580.928	4.66
581.267	4.65
581.606	4.65
581.945	4.65
582.283	4.65
582.622	4.65
582.961	4.66
583.3	4.66
583.639	4.65
583.977	4.65
584.316	4.65
584.654	4.65
584.993	4.65
585.332	4.66
585.67	4.66
586.008	4.66
586.347	4.66
586.685	4.66
587.024	4.66
587.362	4.66
587.7	4.67
588.038	4.67
588.376	4.67
588.715	4.67
589.053	4.68
589.391	4.68
589.729	4.68
590.067	4.69
590.404	4.69
590.742	4.69
591.08	4.7
591.418	4.71
591.756	4.71
592.093	4.71
592.431	4.71
592.769	4.72
593.106	4.72
593.444	4.72
593.781	4.72
594.119	4.72
594.456	4.72
594.793	4.72
595.131	4.73
595.468	4.73
595.805	4.73
596.143	4.73
596.48	4.73
596.817	4.73
597.154	4.73
597.491	4.73
597.828	4.73
598.165	4.74
598.502	4.74
598.839	4.75
599.176	4.75
599.512	4.75
599.849	4.75
600.186	4.75
600.523	4.76
600.859	4.76
601.196	4.76
601.532	4.76
601.869	4.76
602.205	4.77
602.542	4.77
602.878	4.78
603.215	4.78
603.551	4.78
603.887	4.78
604.223	4.78
604.56	4.78
604.896	4.78
605.232	4.78
605.568	4.78
605.904	4.78
606.24	4.78
606.576	4.78
606.912	4.78
607.248	4.78
607.583	4.78
607.919	4.78
608.255	4.79
608.591	4.79
608.926	4.79
609.262	4.79
609.597	4.79
609.933	4.79
610.268	4.79
610.604	4.79
610.939	4.79
611.275	4.79
611.61	4.79
611.945	4.79
612.281	4.79
612.616	4.79
612.951	4.79
613.286	4.79
613.621	4.79
613.956	4.78
614.291	4.78
614.626	4.79
614.961	4.79
615.296	4.79
615.631	4.79
615.966	4.79
616.3	4.79
616.635	4.79
616.97	4.78
617.304	4.78
617.639	4.78
617.973	4.77
618.308	4.77
618.642	4.77
618.977	4.77
619.311	4.78
619.646	4.78
619.98	4.78
620.314	4.78
620.648	4.79
620.983	4.79
621.317	4.8
621.651	4.8
621.985	4.8
622.319	4.81
622.653	4.82
622.987	4.81
623.321	4.81
623.655	4.82
623.988	4.82
624.322	4.82
624.656	4.83
624.99	4.83
625.323	4.83
625.657	4.83
625.99	4.83
626.324	4.83
626.657	4.83
626.991	4.83
627.324	4.83
627.658	4.83
627.991	4.83
628.324	4.83
628.657	4.83
628.991	4.83
629.324	4.83
629.657	4.83
629.99	4.83
630.323	4.84
630.656	4.84
630.989	4.85
631.322	4.85
631.655	4.85
631.987	4.86
632.32	4.86
632.653	4.86
632.986	4.87
633.318	4.87
633.651	4.87
633.984	4.87
634.316	4.87
634.649	4.88
634.981	4.88
635.313	4.87
635.646	4.87
635.978	4.87
636.31	4.87
636.643	4.88
636.975	4.89
637.307	4.89
637.639	4.89
637.971	4.88
638.303	4.88
638.635	4.89
638.967	4.89
639.299	4.89
639.631	4.9
639.963	4.91
640.295	4.91
640.626	4.91
640.958	4.93
641.29	4.93
641.621	4.93
641.953	4.93
642.285	4.93
642.616	4.94
642.948	4.94
643.279	4.95
643.61	4.95
643.942	4.96
644.273	4.96
644.604	4.97
644.936	4.97
645.267	4.97
645.598	4.97
645.929	4.98
646.26	4.98
646.591	4.98
646.922	4.98
647.253	4.98
647.584	4.98
647.915	4.98
648.245	4.98
648.576	4.98
648.907	4.98
649.238	4.99
649.568	4.99
649.899	4.99
650.229	4.99
650.56	4.99
650.89	5
651.221	5
651.551	5.01
651.882	5.01
652.212	5.02
652.542	5.02
652.872	5.02
653.203	5.03
653.533	5.03
653.863	5.03
654.193	5.03
654.523	5.02
654.853	5.03
655.183	5.03
655.513	5.04
655.843	5.04
656.172	5.04
656.502	5.04
656.832	5.05
657.162	5.04
657.491	5.04
657.821	5.04
658.15	5.04
658.48	5.05
658.809	5.05
659.139	5.06
659.468	5.05
659.798	5.07
660.127	5.07
660.456	5.08
660.785	5.08
661.115	5.08
661.444	5.09
661.773	5.09
662.102	5.09
662.431	5.1
662.76	5.1
663.089	5.1
663.418	5.11
663.747	5.12
664.076	5.12
664.404	5.12
664.733	5.13
665.062	5.14
665.39	5.14
665.719	5.15
666.048	5.15
666.376	5.16
666.705	5.16
667.033	5.18
667.362	5.18
667.69	5.19
668.018	5.2
668.347	5.21
668.675	5.22
669.003	5.23
669.331	5.23
669.659	5.23
669.987	5.23
670.315	5.24
670.643	5.25
670.971	5.25
671.299	5.25
671.627	5.26
671.955	5.26
672.283	5.26
672.61	5.26
672.938	5.26
673.266	5.26
673.593	5.26
673.921	5.25
674.249	5.27
674.576	5.27
674.904	5.26
675.231	5.27
675.558	5.28
675.886	5.28
676.213	5.28
676.54	5.28
676.867	5.28
677.195	5.28
677.522	5.28
677.849	5.28
678.176	5.28
678.503	5.28
678.83	5.27
679.157	5.27
679.484	5.27
679.81	5.28
680.137	5.27
680.464	5.28
680.791	5.29
681.117	5.28
681.444	5.29
681.771	5.29
682.097	5.28
682.424	5.29
682.75	5.29
683.077	5.3
683.403	5.31
683.729	5.31
684.056	5.31
684.382	5.32
684.708	5.33
685.034	5.34
685.36	5.34
685.686	5.34
686.012	5.34
686.339	5.35
686.664	5.35
686.99	5.36
687.316	5.37
687.642	5.37
687.968	5.39
688.294	5.4
688.619	5.39
688.945	5.41
689.271	5.41
689.596	5.42
689.922	5.42
690.247	5.42
690.573	5.43
690.898	5.43
691.224	5.44
691.549	5.45
691.874	5.45
692.2	5.46
692.525	5.46
692.85	5.47
693.175	5.48
693.5	5.49
693.825	5.48
694.15	5.49
694.475	5.49
694.8	5.49
695.125	5.5
695.45	5.51
695.775	5.5
696.099	5.51
696.424	5.51
696.749	5.51
697.073	5.51
697.398	5.52
697.723	5.53
698.047	5.53
698.372	5.52
698.696	5.53
699.02	5.54
699.345	5.55
699.669	5.56
699.993	5.57
700.318	5.57
700.642	5.58
700.966	5.57
701.29	5.56
701.614	5.55
701.938	5.56
702.262	5.57
702.586	5.57
702.91	5.58
703.234	5.58
703.557	5.58
703.881	5.6
704.205	5.6
704.529	5.61
704.852	5.61
705.176	5.62
705.499	5.61
705.823	5.62
706.146	5.61
706.47	5.61
706.793	5.61
707.117	5.61
707.44	5.61
707.763	5.62
708.086	5.62
708.409	5.64
708.733	5.64
709.056	5.65
709.379	5.63
709.702	5.64
710.025	5.65
710.348	5.64
710.671	5.64
710.993	5.64
711.316	5.66
711.639	5.67
711.962	5.68
712.284	5.7
712.607	5.7
712.93	5.7
713.252	5.7
713.575	5.7
713.897	5.69
714.22	5.71
714.542	5.72
714.864	5.74
715.187	5.74
715.509	5.74
715.831	5.74
716.153	5.75
716.475	5.76
716.798	5.75
717.12	5.74
717.442	5.75
717.764	5.75
718.085	5.75
718.407	5.75
718.729	5.77
719.051	5.78
719.373	5.8
719.695	5.8
720.016	5.8
720.338	5.8
720.659	5.8
720.981	5.8
721.302	5.8
721.624	5.81
721.945	5.8
722.267	5.81
722.588	5.83
722.909	5.84
723.231	5.83
723.552	5.83
723.873	5.84
724.194	5.84
724.515	5.83
724.836	5.83
725.157	5.83
725.478	5.83
725.799	5.85
726.12	5.86
726.441	5.86
726.762	5.86
727.083	5.87
727.403	5.87
727.724	5.88
728.045	5.89
728.365	5.9
728.686	5.91
729.006	5.91
729.327	5.93
729.647	5.93
729.967	5.94
730.288	5.96
730.608	5.96
730.928	5.97
731.249	5.98
731.569	5.97
731.889	5.98
732.209	5.98
732.529	5.98
732.849	6
733.169	6
733.489	6.03
733.809	6.05
734.129	6.06
734.448	6.09
734.768	6.09
735.088	6.11
735.408	6.12
735.727	6.14
736.047	6.15
736.366	6.16
736.686	6.16
737.005	6.18
737.325	6.19
737.644	6.18
737.963	6.18
738.283	6.18
738.602	6.19
738.921	6.19
739.24	6.21
739.56	6.2
739.879	6.21
740.198	6.23
740.517	6.25
740.836	6.26
741.155	6.25
741.473	6.25
741.792	6.25
742.111	6.25
742.43	6.25
742.748	6.26
743.067	6.28
743.386	6.28
743.704	6.29
744.023	6.29
744.341	6.3
744.66	6.31
744.978	6.32
745.297	6.32
745.615	6.34
745.933	6.34
746.252	6.35
746.57	6.36
746.888	6.36
747.206	6.39
747.524	6.37
747.842	6.36
748.16	6.35
748.478	6.35
748.796	6.34
749.114	6.35
749.432	6.36
749.749	6.4
750.067	6.4
750.385	6.42
750.703	6.46
751.02	6.49
751.338	6.5
751.655	6.51
751.973	6.53
752.29	6.52
752.608	6.54
752.925	6.54
753.242	6.55
753.56	6.55
753.877	6.59
754.194	6.6
754.511	6.6
754.828	6.61
755.145	6.63
755.462	6.66
755.779	6.67
756.096	6.68
756.413	6.7
756.73	6.72
757.047	6.68
757.364	6.68
757.68	6.69
757.997	6.69
758.314	6.71
758.63	6.72
758.947	6.73
759.264	6.76
759.58	6.75
759.896	6.75
760.213	6.73
760.529	6.74
760.846	6.76
761.162	6.78
761.478	6.79
761.794	6.82
762.11	6.81
762.426	6.83
762.743	6.83
763.059	6.82
763.375	6.8
763.69	6.81
764.006	6.8
764.322	6.81
764.638	6.82
764.954	6.83
765.27	6.84
765.585	6.84
765.901	6.87
766.216	6.86
766.532	6.88
766.848	6.86
767.163	6.88
767.478	6.86
767.794	6.86
768.109	6.86
768.424	6.86
768.74	6.86
769.055	6.87
769.37	6.87
769.685	6.88
770	6.91
770.315	6.93
770.63	6.96
770.945	6.98
771.26	6.96
771.575	6.97
771.89	6.97
772.205	6.97
772.52	7
772.834	7.02
773.149	7.05
773.464	7.07
773.778	7.06
774.093	7.05
774.407	7.07
774.722	7.08
775.036	7.1
775.351	7.11
775.665	7.12
775.979	7.17
776.293	7.17
776.608	7.17
776.922	7.18
777.236	7.16
777.55	7.16
777.864	7.17
778.178	7.2
778.492	7.2
778.806	7.19
779.12	7.19
779.434	7.21
779.747	7.2
780.061	7.19
780.375	7.23
780.689	7.25
781.002	7.27
781.316	7.25
781.629	7.26
781.943	7.24
782.256	7.28
782.57	7.28
782.883	7.31
783.196	7.33
783.51	7.33
783.823	7.34
784.136	7.37
784.449	7.38
784.762	7.41
785.075	7.4
785.388	7.39
785.701	7.4
786.014	7.42
786.327	7.43
786.64	7.43
786.953	7.47
787.266	7.49
787.578	7.48
787.891	7.48
788.204	7.46
788.516	7.48
788.829	7.45
789.141	7.48
789.454	7.5
789.766	7.53
790.079	7.57
790.391	7.57
790.703	7.61
791.016	7.61
791.328	7.66
791.64	7.68
791.952	7.75
792.264	7.74
792.576	7.72
792.888	7.74
793.2	7.79
793.512	7.81
793.824	7.82
794.136	7.81
794.448	7.84
794.76	7.89
795.071	7.87
795.383	7.9
795.695	7.89
796.006	7.88
796.318	7.86
796.629	7.87
796.941	7.88
797.252	7.91
797.564	7.9
797.875	7.91
798.186	7.94
798.497	7.96
798.809	7.93
799.12	7.92
799.431	7.97
799.742	7.96
800.053	8
800.364	7.98
800.675	7.98
800.986	7.99
801.297	7.98
801.608	8.01
801.918	8.03
802.229	8
802.54	7.98
802.851	7.96
803.161	8
803.472	7.96
803.782	7.97
804.093	7.96
804.403	7.98
804.714	7.96
805.024	7.97
805.334	8
805.645	8.03
805.955	8.01
806.265	8.03
806.575	8.03
806.885	8.05
807.195	8.08
807.505	8.05
807.815	8.11
808.125	8.12
808.435	8.15
808.745	8.15
809.055	8.11
809.365	8.1
809.674	8.1
809.984	8.08
810.294	8.1
810.603	8.1
810.913	8.12
811.222	8.1
811.532	8.07
811.841	8.11
812.151	8.15
812.46	8.18
812.769	8.11
813.079	8.14
813.388	8.2
813.697	8.23
814.006	8.27
814.315	8.28
814.624	8.35
814.933	8.44
815.242	8.45
815.551	8.48
815.86	8.43
816.169	8.47
816.478	8.51
816.786	8.55
817.095	8.53
817.404	8.51
817.712	8.54
818.021	8.57
818.33	8.59
818.638	8.63
818.947	8.64
819.255	8.66
819.563	8.69
819.872	8.69
820.18	8.72
820.488	8.7
820.796	8.71
821.105	8.73
821.413	8.77
821.721	8.82
822.029	8.84
822.337	8.85
822.645	8.86
822.953	8.87
823.26	8.88
823.568	8.89
823.876	8.91
824.184	8.94
824.491	8.94
824.799	8.94
825.107	8.93
825.414	8.95
825.722	8.95
826.029	8.98
826.337	8.98
826.644	8.99
826.951	8.97
827.259	8.96
827.566	8.95
827.873	8.96
828.18	8.98
828.488	9.02
828.795	9.03
829.102	9.02
829.409	9.01
829.716	9.06
830.023	9.09
830.329	9.09
830.636	9.1
830.943	9.11
831.25	9.11
831.557	9.11
831.863	9.13
832.17	9.16
832.476	9.16
832.783	9.17
833.089	9.2
833.396	9.21
833.702	9.23
834.009	9.24
834.315	9.23
834.621	9.24
834.928	9.23
835.234	9.23
835.54	9.22
835.846	9.23
836.152	9.17
836.458	9.17
836.764	9.19
837.07	9.19
837.376	9.22
837.682	9.2
837.988	9.16
838.293	9.14
838.599	9.08
838.905	9.06
839.211	9.04
839.516	9.07
839.822	9.13
840.127	9.17
840.433	9.18
840.738	9.17
841.044	9.13
841.349	9.08
841.654	9.09
841.959	9.1
842.265	9.06
842.57	9.01
842.875	9.02
843.18	8.96
843.485	8.91
843.79	8.93
844.095	8.92
844.4	8.9
844.705	8.93
845.01	8.89
845.315	8.81
845.619	8.79
845.924	8.76
846.229	8.72
846.533	8.63
846.838	8.62
847.142	8.58
847.447	8.66
847.751	8.76
848.056	8.85
848.36	8.78
848.664	8.92
848.969	8.95
849.273	8.94
849.577	8.87
849.881	8.85
850.185	8.94
850.489	8.94
850.794	9.08
851.097	9.1
851.401	9.17
851.705	9.19
852.009	9.31
852.313	9.27
852.617	9.22
852.92	9.24
853.224	9.29
853.528	9.37
853.831	9.44
854.135	9.59
854.438	9.75
854.742	9.7
855.045	9.61
855.349	9.8
855.652	9.95
855.955	9.95
856.259	10.06
856.562	10.13
856.865	10.26
857.168	10.24
857.471	10.32
857.774	10.56
858.077	10.51
858.38	10.46
858.683	10.46
858.986	10.56
859.289	10.59
859.592	10.76
859.894	10.82
860.197	10.75
860.5	10.73
860.802	10.81
861.105	10.79
861.407	10.69
861.71	10.49
862.012	10.46
862.315	10.43
862.617	10.44
862.919	10.57
863.222	10.38
863.524	10.4
863.826	10.38
864.128	10.24
864.43	10.22
864.732	10.18
865.034	10.17
865.336	10.13
865.638	10.1
865.94	9.97
866.242	9.93
866.544	10.02
866.846	9.87
867.147	9.97
867.449	10.22
867.751	10.02
868.052	10
868.354	10.08
868.655	9.94
868.957	9.92
869.258	9.83
869.56	9.89
869.861	9.94
870.162	9.91
870.463	10.13
870.765	10.15
871.066	10.3
871.367	10.12
871.668	10.15
871.969	10.11
872.27	9.96
872.571	10.06
872.872	10.01
873.173	10.06
873.473	10.06
873.774	10.15
874.075	10.31
874.376	10.46
874.676	10.49
874.977	10.53
875.277	10.52
875.578	10.72
875.878	10.75
876.179	10.78
876.479	11
876.78	11.02
877.08	10.97
877.38	10.96
877.68	11.03
877.981	10.98
878.281	11.19
878.581	11.3
