Data from UWBM86267_Reflection_00015.txt Node
Date: Sun May 02 14:09:08 EDT 2021
User: vgr7
Spectrometer: USB2G7710
Scans to average: 10
Trigger mode: 4
Integration Time (sec): 1.000000E-1
Electric dark correction enabled: true
Boxcar width: 20
XAxis mode: Wavelengths
Number of Pixels in Spectrum: 2048
>>>>>Begin Spectral Data<<<<<
177.721	159.43
178.105	217.5
178.488	247.63
178.871	376.12
179.254	214.99
179.636	189.22
180.019	143.61
180.402	134.68
180.785	98.59
181.168	84.18
181.55	75.18
181.933	65.27
182.316	60.56
182.698	57.97
183.081	53.56
183.463	44.2
183.846	45.15
184.228	47.41
184.611	47.21
184.993	48.26
185.376	47.97
185.758	47.04
186.14	40.32
186.522	37.88
186.904	37.42
187.287	37.95
187.669	37.13
188.051	36.21
188.433	38.51
188.815	39.13
189.197	41.58
189.579	41.62
189.961	40.4
190.342	38.53
190.724	38.14
191.106	37.29
191.488	39.32
191.869	37.27
192.251	34.05
192.633	33.88
193.014	32.58
193.396	29.21
193.777	29.27
194.159	28.69
194.54	26.44
194.922	26.44
195.303	25.42
195.684	23.59
196.065	22.3
196.447	22.78
196.828	22.19
197.209	21.38
197.59	19.83
197.971	19.26
198.352	19.6
198.733	21.67
199.114	23.09
199.495	22.3
199.876	20.18
200.257	20.19
200.638	18
201.018	18.31
201.399	19.37
201.78	19.88
202.16	19.05
202.541	17.25
202.922	16
203.302	16.7
203.683	17.03
204.063	16.28
204.444	16.11
204.824	15.76
205.204	15.03
205.585	15.54
205.965	17.62
206.345	18.37
206.725	19.29
207.106	18.81
207.486	18.76
207.866	20.55
208.246	19.96
208.626	19.68
209.006	19.76
209.386	18.32
209.766	18.61
210.145	17.6
210.525	17.82
210.905	20.44
211.285	20.14
211.664	20.55
212.044	19.7
212.424	19.47
212.803	19.75
213.183	20.54
213.562	22.87
213.942	22.03
214.321	19.46
214.701	18.46
215.08	19.08
215.459	19.02
215.838	18.49
216.218	18.73
216.597	19.45
216.976	20.04
217.355	20.95
217.734	22.31
218.113	22.89
218.492	24.17
218.871	24.45
219.25	25.52
219.629	25.07
220.008	23.38
220.387	21.69
220.766	21.64
221.144	21.22
221.523	20.58
221.902	19.55
222.28	17.38
222.659	16.29
223.037	16.09
223.416	15.6
223.794	14.69
224.173	14.34
224.551	13.54
224.929	14.44
225.308	14.04
225.686	13.54
226.064	12.95
226.442	11.88
226.821	12.65
227.199	12.65
227.577	12.56
227.955	12.62
228.333	12.5
228.711	12.16
229.089	10.92
229.467	10.85
229.845	10.7
230.222	10.78
230.6	10.56
230.978	10.46
231.356	10.46
231.733	10.25
232.111	9.45
232.488	8.81
232.866	8.25
233.243	7.77
233.621	7.46
233.998	7.24
234.376	7
234.753	6.47
235.13	6.4
235.508	6.43
235.885	6.33
236.262	6.16
236.639	6.02
237.016	5.82
237.393	5.67
237.77	5.72
238.147	5.73
238.524	5.59
238.901	5.53
239.278	5.53
239.655	5.47
240.032	5.47
240.409	5.32
240.785	5.27
241.162	5.25
241.539	5.24
241.915	5.25
242.292	5.2
242.668	5.18
243.045	5.13
243.421	5.07
243.798	5.02
244.174	5.03
244.551	5.05
244.927	5.03
245.303	5.03
245.679	5.02
246.056	4.96
246.432	4.96
246.808	4.92
247.184	4.95
247.56	5
247.936	5.01
248.312	4.99
248.688	4.98
249.064	5
249.44	4.99
249.815	4.95
250.191	4.96
250.567	4.97
250.943	4.94
251.318	4.91
251.694	4.89
252.069	4.85
252.445	4.84
252.82	4.81
253.196	4.77
253.571	4.71
253.947	4.7
254.322	4.66
254.697	4.64
255.073	4.62
255.448	4.62
255.823	4.57
256.198	4.55
256.573	4.53
256.948	4.5
257.323	4.44
257.698	4.41
258.073	4.4
258.448	4.39
258.823	4.38
259.198	4.37
259.573	4.35
259.948	4.33
260.322	4.33
260.697	4.3
261.072	4.3
261.446	4.29
261.821	4.26
262.195	4.26
262.57	4.24
262.944	4.22
263.319	4.21
263.693	4.2
264.067	4.21
264.442	4.18
264.816	4.15
265.19	4.14
265.564	4.14
265.938	4.11
266.313	4.11
266.687	4.11
267.061	4.11
267.435	4.11
267.809	4.1
268.183	4.12
268.556	4.11
268.93	4.12
269.304	4.11
269.678	4.1
270.051	4.09
270.425	4.07
270.799	4.04
271.172	4.08
271.546	4.07
271.919	4.08
272.293	4.09
272.666	4.09
273.04	4.08
273.413	4.1
273.787	4.11
274.16	4.11
274.533	4.13
274.906	4.13
275.279	4.14
275.653	4.14
276.026	4.15
276.399	4.15
276.772	4.15
277.145	4.15
277.518	4.15
277.891	4.15
278.263	4.14
278.636	4.15
279.009	4.14
279.382	4.14
279.755	4.16
280.127	4.2
280.5	4.21
280.872	4.23
281.245	4.25
281.617	4.25
281.99	4.25
282.362	4.25
282.735	4.25
283.107	4.25
283.479	4.24
283.852	4.27
284.224	4.28
284.596	4.28
284.968	4.31
285.34	4.33
285.713	4.35
286.085	4.37
286.457	4.37
286.829	4.39
287.201	4.41
287.572	4.42
287.944	4.46
288.316	4.48
288.688	4.5
289.06	4.52
289.431	4.55
289.803	4.58
290.175	4.6
290.546	4.63
290.918	4.66
291.289	4.69
291.661	4.72
292.032	4.75
292.403	4.78
292.775	4.83
293.146	4.87
293.517	4.9
293.889	4.93
294.26	4.99
294.631	5.05
295.002	5.08
295.373	5.13
295.744	5.17
296.115	5.2
296.486	5.26
296.857	5.31
297.228	5.36
297.599	5.42
297.97	5.48
298.34	5.52
298.711	5.59
299.082	5.63
299.452	5.68
299.823	5.74
300.194	5.79
300.564	5.85
300.935	5.9
301.305	5.97
301.676	6.03
302.046	6.08
302.416	6.13
302.787	6.19
303.157	6.25
303.527	6.32
303.897	6.39
304.267	6.47
304.637	6.54
305.008	6.6
305.378	6.69
305.748	6.78
306.117	6.85
306.487	6.93
306.857	7.03
307.227	7.11
307.597	7.2
307.967	7.26
308.336	7.32
308.706	7.39
309.076	7.47
309.445	7.54
309.815	7.59
310.184	7.65
310.554	7.71
310.923	7.78
311.293	7.84
311.662	7.89
312.031	7.96
312.401	8.02
312.77	8.09
313.139	8.15
313.508	8.22
313.877	8.28
314.246	8.36
314.616	8.42
314.985	8.48
315.353	8.54
315.722	8.59
316.091	8.66
316.46	8.71
316.829	8.78
317.198	8.85
317.567	8.93
317.935	9.01
318.304	9.08
318.672	9.15
319.041	9.24
319.41	9.3
319.778	9.37
320.147	9.45
320.515	9.51
320.883	9.55
321.252	9.6
321.62	9.65
321.988	9.69
322.357	9.75
322.725	9.79
323.093	9.84
323.461	9.89
323.829	9.94
324.197	9.97
324.565	9.99
324.933	10.04
325.301	10.08
325.669	10.13
326.037	10.15
326.405	10.19
326.772	10.22
327.14	10.24
327.508	10.27
327.875	10.3
328.243	10.31
328.61	10.33
328.978	10.35
329.346	10.37
329.713	10.39
330.08	10.42
330.448	10.43
330.815	10.45
331.182	10.46
331.55	10.47
331.917	10.49
332.284	10.5
332.651	10.51
333.018	10.52
333.385	10.54
333.752	10.55
334.119	10.55
334.486	10.57
334.853	10.58
335.22	10.59
335.587	10.6
335.954	10.62
336.32	10.63
336.687	10.65
337.054	10.68
337.42	10.69
337.787	10.7
338.153	10.71
338.52	10.72
338.886	10.71
339.253	10.72
339.619	10.74
339.986	10.74
340.352	10.75
340.718	10.74
341.084	10.74
341.451	10.75
341.817	10.77
342.183	10.78
342.549	10.78
342.915	10.78
343.281	10.79
343.647	10.79
344.013	10.78
344.379	10.79
344.745	10.79
345.11	10.79
345.476	10.79
345.842	10.79
346.208	10.79
346.573	10.78
346.939	10.78
347.304	10.78
347.67	10.77
348.035	10.76
348.401	10.74
348.766	10.72
349.132	10.71
349.497	10.7
349.862	10.69
350.228	10.67
350.593	10.65
350.958	10.64
351.323	10.62
351.688	10.6
352.053	10.58
352.418	10.55
352.783	10.51
353.148	10.48
353.513	10.46
353.878	10.44
354.243	10.42
354.608	10.37
354.972	10.34
355.337	10.29
355.702	10.25
356.066	10.22
356.431	10.18
356.795	10.14
357.16	10.09
357.524	10.06
357.889	10.02
358.253	9.98
358.618	9.93
358.982	9.89
359.346	9.85
359.71	9.81
360.075	9.77
360.439	9.72
360.803	9.68
361.167	9.64
361.531	9.6
361.895	9.56
362.259	9.51
362.623	9.46
362.987	9.42
363.351	9.37
363.714	9.33
364.078	9.29
364.442	9.24
364.806	9.18
365.169	9.13
365.533	9.07
365.896	9.01
366.26	8.96
366.623	8.91
366.987	8.84
367.35	8.78
367.714	8.72
368.077	8.67
368.44	8.6
368.803	8.53
369.167	8.45
369.53	8.39
369.893	8.31
370.256	8.25
370.619	8.18
370.982	8.11
371.345	8.03
371.708	7.96
372.071	7.89
372.434	7.82
372.797	7.75
373.159	7.69
373.522	7.63
373.885	7.57
374.247	7.5
374.61	7.43
374.973	7.36
375.335	7.29
375.698	7.22
376.06	7.15
376.423	7.08
376.785	7.02
377.147	6.96
377.51	6.9
377.872	6.84
378.234	6.77
378.596	6.7
378.958	6.63
379.321	6.57
379.683	6.51
380.045	6.45
380.407	6.4
380.769	6.34
381.13	6.28
381.492	6.22
381.854	6.18
382.216	6.13
382.578	6.08
382.939	6.02
383.301	5.97
383.663	5.92
384.024	5.88
384.386	5.82
384.747	5.78
385.109	5.73
385.47	5.68
385.832	5.64
386.193	5.59
386.554	5.55
386.916	5.51
387.277	5.46
387.638	5.43
387.999	5.39
388.36	5.35
388.721	5.32
389.082	5.28
389.443	5.25
389.804	5.22
390.165	5.19
390.526	5.16
390.887	5.13
391.248	5.1
391.609	5.06
391.969	5.03
392.33	5.01
392.691	4.97
393.051	4.95
393.412	4.92
393.772	4.89
394.133	4.86
394.493	4.83
394.854	4.8
395.214	4.77
395.574	4.74
395.935	4.72
396.295	4.69
396.655	4.65
397.015	4.63
397.376	4.6
397.736	4.57
398.096	4.55
398.456	4.52
398.816	4.5
399.176	4.47
399.535	4.44
399.895	4.41
400.255	4.39
400.615	4.37
400.975	4.34
401.334	4.32
401.694	4.29
402.054	4.28
402.413	4.25
402.773	4.23
403.132	4.21
403.492	4.19
403.851	4.17
404.211	4.15
404.57	4.14
404.929	4.12
405.288	4.1
405.648	4.09
406.007	4.08
406.366	4.06
406.725	4.05
407.084	4.04
407.443	4.02
407.802	4.02
408.161	4
408.52	3.99
408.879	3.98
409.238	3.97
409.596	3.96
409.955	3.95
410.314	3.94
410.673	3.93
411.031	3.93
411.39	3.92
411.748	3.91
412.107	3.91
412.465	3.9
412.824	3.91
413.182	3.92
413.54	3.93
413.899	3.95
414.257	3.97
414.615	3.99
414.974	4.01
415.332	4.03
415.69	4.06
416.048	4.08
416.406	4.11
416.764	4.12
417.122	4.14
417.48	4.16
417.838	4.18
418.195	4.19
418.553	4.2
418.911	4.21
419.269	4.2
419.626	4.2
419.984	4.18
420.342	4.17
420.699	4.15
421.057	4.12
421.414	4.1
421.772	4.08
422.129	4.07
422.486	4.05
422.844	4.04
423.201	4.04
423.558	4.03
423.915	4.02
424.273	4.01
424.63	4.01
424.987	4
425.344	3.99
425.701	3.98
426.058	3.98
426.415	3.97
426.772	3.96
427.128	3.95
427.485	3.94
427.842	3.92
428.199	3.9
428.555	3.88
428.912	3.86
429.269	3.83
429.625	3.8
429.982	3.77
430.338	3.74
430.695	3.72
431.051	3.68
431.407	3.66
431.764	3.64
432.12	3.62
432.476	3.6
432.832	3.6
433.189	3.59
433.545	3.59
433.901	3.6
434.257	3.62
434.613	3.64
434.969	3.65
435.325	3.68
435.681	3.71
436.036	3.73
436.392	3.74
436.748	3.76
437.104	3.76
437.459	3.78
437.815	3.79
438.171	3.81
438.526	3.83
438.882	3.86
439.237	3.89
439.593	3.92
439.948	3.94
440.304	3.98
440.659	4
441.014	4.01
441.369	4.03
441.725	4.04
442.08	4.06
442.435	4.07
442.79	4.07
443.145	4.07
443.5	4.07
443.855	4.06
444.21	4.06
444.565	4.06
444.92	4.05
445.275	4.04
445.629	4.03
445.984	4.02
446.339	4.01
446.693	3.99
447.048	3.97
447.403	3.96
447.757	3.93
448.112	3.92
448.466	3.89
448.82	3.87
449.175	3.84
449.529	3.82
449.883	3.8
450.238	3.78
450.592	3.77
450.946	3.76
451.3	3.75
451.654	3.76
452.008	3.76
452.362	3.76
452.716	3.76
453.07	3.75
453.424	3.74
453.778	3.74
454.132	3.73
454.486	3.72
454.839	3.7
455.193	3.68
455.547	3.67
455.9	3.65
456.254	3.63
456.607	3.61
456.961	3.58
457.314	3.57
457.668	3.56
458.021	3.55
458.375	3.55
458.728	3.55
459.081	3.55
459.434	3.56
459.787	3.57
460.141	3.57
460.494	3.58
460.847	3.59
461.2	3.6
461.553	3.61
461.906	3.61
462.259	3.61
462.611	3.62
462.964	3.63
463.317	3.63
463.67	3.64
464.022	3.65
464.375	3.65
464.728	3.66
465.08	3.67
465.433	3.67
465.785	3.67
466.138	3.66
466.49	3.65
466.843	3.64
467.195	3.62
467.547	3.61
467.899	3.59
468.252	3.57
468.604	3.55
468.956	3.54
469.308	3.53
469.66	3.54
470.012	3.53
470.364	3.54
470.716	3.54
471.068	3.56
471.42	3.58
471.772	3.6
472.123	3.61
472.475	3.62
472.827	3.64
473.178	3.64
473.53	3.65
473.882	3.67
474.233	3.69
474.585	3.72
474.936	3.78
475.288	3.86
475.639	3.96
475.99	4.07
476.342	4.2
476.693	4.34
477.044	4.48
477.395	4.62
477.746	4.77
478.097	4.92
478.448	5.08
478.8	5.23
479.15	5.37
479.501	5.49
479.852	5.61
480.203	5.72
480.554	5.83
480.905	5.93
481.255	6.02
481.606	6.11
481.957	6.19
482.307	6.27
482.658	6.35
483.009	6.43
483.359	6.5
483.709	6.57
484.06	6.63
484.41	6.7
484.761	6.76
485.111	6.83
485.461	6.88
485.811	6.93
486.162	6.98
486.512	7.03
486.862	7.06
487.212	7.08
487.562	7.1
487.912	7.11
488.262	7.11
488.612	7.11
488.961	7.09
489.311	7.05
489.661	6.99
490.011	6.92
490.36	6.83
490.71	6.73
491.06	6.61
491.409	6.49
491.759	6.37
492.108	6.24
492.458	6.1
492.807	5.96
493.157	5.83
493.506	5.69
493.855	5.57
494.204	5.46
494.554	5.34
494.903	5.24
495.252	5.14
495.601	5.05
495.95	4.97
496.299	4.88
496.648	4.8
496.997	4.74
497.346	4.67
497.695	4.6
498.043	4.54
498.392	4.49
498.741	4.43
499.09	4.38
499.438	4.33
499.787	4.29
500.135	4.26
500.484	4.22
500.832	4.2
501.181	4.19
501.529	4.2
501.878	4.21
502.226	4.23
502.574	4.26
502.923	4.28
503.271	4.31
503.619	4.35
503.967	4.38
504.315	4.41
504.663	4.45
505.011	4.49
505.359	4.52
505.707	4.56
506.055	4.6
506.403	4.64
506.751	4.69
507.098	4.74
507.446	4.78
507.794	4.83
508.141	4.89
508.489	4.95
508.837	5.02
509.184	5.09
509.531	5.15
509.879	5.22
510.226	5.3
510.574	5.38
510.921	5.47
511.268	5.55
511.616	5.64
511.963	5.73
512.31	5.83
512.657	5.93
513.004	6.02
513.351	6.11
513.698	6.19
514.045	6.27
514.392	6.35
514.739	6.42
515.086	6.48
515.432	6.55
515.779	6.62
516.126	6.68
516.473	6.76
516.819	6.84
517.166	6.93
517.512	7.03
517.859	7.13
518.205	7.25
518.552	7.38
518.898	7.52
519.245	7.68
519.591	7.88
519.937	8.11
520.283	8.38
520.629	8.68
520.976	9
521.322	9.33
521.668	9.67
522.014	10.02
522.36	10.36
522.706	10.7
523.052	11.03
523.398	11.34
523.743	11.62
524.089	11.88
524.435	12.12
524.781	12.36
525.126	12.58
525.472	12.81
525.817	13.03
526.163	13.24
526.509	13.45
526.854	13.67
527.199	13.87
527.545	14.08
527.89	14.3
528.235	14.51
528.581	14.71
528.926	14.91
529.271	15.09
529.616	15.26
529.961	15.43
530.306	15.59
530.651	15.74
530.996	15.87
531.341	16
531.686	16.11
532.031	16.22
532.376	16.34
532.721	16.48
533.065	16.62
533.41	16.78
533.755	16.92
534.099	17.05
534.444	17.15
534.788	17.24
535.133	17.33
535.477	17.41
535.822	17.47
536.166	17.51
536.51	17.53
536.855	17.51
537.199	17.49
537.543	17.46
537.887	17.45
538.231	17.47
538.576	17.49
538.92	17.5
539.264	17.52
539.608	17.52
539.951	17.51
540.295	17.5
540.639	17.49
540.983	17.46
541.327	17.43
541.671	17.39
542.014	17.37
542.358	17.35
542.701	17.38
543.045	17.44
543.389	17.52
543.732	17.62
544.075	17.72
544.419	17.84
544.762	17.97
545.105	18.11
545.449	18.25
545.792	18.4
546.135	18.55
546.478	18.69
546.821	18.8
547.165	18.9
547.508	18.96
547.851	19.01
548.194	19.03
548.536	19.03
548.879	19.02
549.222	19.01
549.565	18.99
549.908	18.97
550.25	18.98
550.593	19.02
550.936	19.1
551.278	19.21
551.621	19.34
551.963	19.5
552.306	19.66
552.648	19.85
552.991	20.06
553.333	20.29
553.675	20.54
554.017	20.82
554.36	21.1
554.702	21.42
555.044	21.76
555.386	22.14
555.728	22.55
556.07	22.92
556.412	23.3
556.754	23.64
557.096	23.95
557.438	24.26
557.78	24.58
558.121	24.91
558.463	25.24
558.805	25.57
559.147	25.92
559.488	26.26
559.83	26.6
560.171	26.95
560.513	27.3
560.854	27.64
561.196	27.98
561.537	28.33
561.878	28.66
562.22	28.99
562.561	29.34
562.902	29.68
563.243	30.01
563.584	30.36
563.925	30.7
564.266	31.05
564.607	31.4
564.948	31.74
565.289	32.09
565.63	32.43
565.971	32.77
566.312	33.1
566.653	33.44
566.993	33.77
567.334	34.1
567.675	34.42
568.015	34.74
568.356	35.06
568.696	35.37
569.037	35.66
569.377	35.96
569.718	36.25
570.058	36.55
570.398	36.82
570.739	37.11
571.079	37.38
571.419	37.65
571.759	37.92
572.099	38.19
572.439	38.46
572.779	38.73
573.119	38.98
573.459	39.25
573.799	39.53
574.139	39.78
574.479	40.05
574.819	40.32
575.158	40.59
575.498	40.84
575.838	41.1
576.177	41.35
576.517	41.59
576.856	41.85
577.196	42.09
577.535	42.34
577.875	42.58
578.214	42.84
578.553	43.07
578.893	43.33
579.232	43.58
579.571	43.84
579.91	44.1
580.25	44.36
580.589	44.62
580.928	44.88
581.267	45.14
581.606	45.4
581.945	45.66
582.283	45.93
582.622	46.2
582.961	46.47
583.3	46.75
583.639	47.01
583.977	47.26
584.316	47.52
584.654	47.77
584.993	48.01
585.332	48.26
585.67	48.49
586.008	48.73
586.347	48.97
586.685	49.2
587.024	49.43
587.362	49.66
587.7	49.88
588.038	50.12
588.376	50.35
588.715	50.58
589.053	50.81
589.391	51.04
589.729	51.26
590.067	51.47
590.404	51.69
590.742	51.89
591.08	52.11
591.418	52.3
591.756	52.49
592.093	52.67
592.431	52.84
592.769	53
593.106	53.17
593.444	53.32
593.781	53.47
594.119	53.63
594.456	53.77
594.793	53.92
595.131	54.07
595.468	54.23
595.805	54.39
596.143	54.55
596.48	54.71
596.817	54.87
597.154	55.03
597.491	55.2
597.828	55.37
598.165	55.53
598.502	55.67
598.839	55.82
599.176	55.96
599.512	56.1
599.849	56.23
600.186	56.34
600.523	56.46
600.859	56.58
601.196	56.7
601.532	56.81
601.869	56.92
602.205	57.04
602.542	57.15
602.878	57.25
603.215	57.37
603.551	57.47
603.887	57.57
604.223	57.68
604.56	57.79
604.896	57.88
605.232	57.97
605.568	58.07
605.904	58.16
606.24	58.26
606.576	58.34
606.912	58.42
607.248	58.5
607.583	58.57
607.919	58.65
608.255	58.73
608.591	58.8
608.926	58.88
609.262	58.95
609.597	59.01
609.933	59.07
610.268	59.14
610.604	59.22
610.939	59.27
611.275	59.33
611.61	59.38
611.945	59.44
612.281	59.51
612.616	59.58
612.951	59.64
613.286	59.71
613.621	59.77
613.956	59.83
614.291	59.88
614.626	59.95
614.961	60.01
615.296	60.08
615.631	60.12
615.966	60.18
616.3	60.24
616.635	60.29
616.97	60.33
617.304	60.4
617.639	60.47
617.973	60.52
618.308	60.58
618.642	60.64
618.977	60.7
619.311	60.77
619.646	60.83
619.98	60.89
620.314	60.94
620.648	61.01
620.983	61.07
621.317	61.12
621.651	61.18
621.985	61.22
622.319	61.29
622.653	61.33
622.987	61.37
623.321	61.41
623.655	61.46
623.988	61.49
624.322	61.53
624.656	61.58
624.99	61.62
625.323	61.67
625.657	61.72
625.99	61.75
626.324	61.78
626.657	61.83
626.991	61.86
627.324	61.89
627.658	61.93
627.991	61.98
628.324	62.01
628.657	62.03
628.991	62.06
629.324	62.11
629.657	62.14
629.99	62.17
630.323	62.21
630.656	62.25
630.989	62.28
631.322	62.3
631.655	62.34
631.987	62.37
632.32	62.4
632.653	62.42
632.986	62.44
633.318	62.46
633.651	62.49
633.984	62.54
634.316	62.55
634.649	62.59
634.981	62.63
635.313	62.66
635.646	62.68
635.978	62.7
636.31	62.72
636.643	62.74
636.975	62.78
637.307	62.8
637.639	62.84
637.971	62.86
638.303	62.88
638.635	62.92
638.967	62.92
639.299	62.94
639.631	62.95
639.963	62.98
640.295	63
640.626	63.02
640.958	63.06
641.29	63.08
641.621	63.1
641.953	63.14
642.285	63.18
642.616	63.2
642.948	63.22
643.279	63.25
643.61	63.26
643.942	63.3
644.273	63.31
644.604	63.32
644.936	63.35
645.267	63.35
645.598	63.36
645.929	63.4
646.26	63.42
646.591	63.45
646.922	63.47
647.253	63.49
647.584	63.48
647.915	63.5
648.245	63.51
648.576	63.52
648.907	63.54
649.238	63.56
649.568	63.61
649.899	63.63
650.229	63.67
650.56	63.69
650.89	63.72
651.221	63.73
651.551	63.74
651.882	63.77
652.212	63.79
652.542	63.81
652.872	63.83
653.203	63.86
653.533	63.91
653.863	63.91
654.193	63.93
654.523	63.95
654.853	63.98
655.183	64
655.513	64.01
655.843	64.02
656.172	64.04
656.502	64.04
656.832	64.06
657.162	64.08
657.491	64.08
657.821	64.09
658.15	64.12
658.48	64.13
658.809	64.17
659.139	64.19
659.468	64.21
659.798	64.23
660.127	64.24
660.456	64.26
660.785	64.29
661.115	64.33
661.444	64.35
661.773	64.37
662.102	64.4
662.431	64.4
662.76	64.4
663.089	64.4
663.418	64.42
663.747	64.42
664.076	64.44
664.404	64.44
664.733	64.45
665.062	64.47
665.39	64.48
665.719	64.49
666.048	64.5
666.376	64.53
666.705	64.55
667.033	64.54
667.362	64.57
667.69	64.57
668.018	64.58
668.347	64.58
668.675	64.58
669.003	64.6
669.331	64.62
669.659	64.64
669.987	64.67
670.315	64.69
670.643	64.7
670.971	64.73
671.299	64.75
671.627	64.76
671.955	64.78
672.283	64.78
672.61	64.8
672.938	64.78
673.266	64.78
673.593	64.8
673.921	64.82
674.249	64.85
674.576	64.85
674.904	64.85
675.231	64.88
675.558	64.88
675.886	64.91
676.213	64.93
676.54	64.95
676.867	64.97
677.195	64.98
677.522	64.98
677.849	64.99
678.176	65.01
678.503	65
678.83	65.01
679.157	65.03
679.484	65.05
679.81	65.06
680.137	65.05
680.464	65.07
680.791	65.09
681.117	65.12
681.444	65.13
681.771	65.16
682.097	65.17
682.424	65.16
682.75	65.17
683.077	65.17
683.403	65.16
683.729	65.17
684.056	65.17
684.382	65.16
684.708	65.18
685.034	65.19
685.36	65.19
685.686	65.2
686.012	65.2
686.339	65.21
686.664	65.24
686.99	65.23
687.316	65.25
687.642	65.25
687.968	65.26
688.294	65.26
688.619	65.25
688.945	65.25
689.271	65.24
689.596	65.25
689.922	65.26
690.247	65.26
690.573	65.28
690.898	65.29
691.224	65.32
691.549	65.34
691.874	65.36
692.2	65.35
692.525	65.36
692.85	65.36
693.175	65.36
693.5	65.37
693.825	65.37
694.15	65.35
694.475	65.35
694.8	65.33
695.125	65.32
695.45	65.33
695.775	65.35
696.099	65.37
696.424	65.37
696.749	65.38
697.073	65.39
697.398	65.39
697.723	65.42
698.047	65.44
698.372	65.44
698.696	65.46
699.02	65.46
699.345	65.47
699.669	65.48
699.993	65.49
700.318	65.5
700.642	65.49
700.966	65.48
701.29	65.49
701.614	65.51
701.938	65.5
702.262	65.52
702.586	65.53
702.91	65.54
703.234	65.54
703.557	65.56
703.881	65.54
704.205	65.55
704.529	65.57
704.852	65.6
705.176	65.61
705.499	65.61
705.823	65.62
706.146	65.63
706.47	65.67
706.793	65.69
707.117	65.7
707.44	65.73
707.763	65.74
708.086	65.79
708.409	65.81
708.733	65.83
709.056	65.83
709.379	65.8
709.702	65.81
710.025	65.83
710.348	65.86
710.671	65.84
710.993	65.84
711.316	65.82
711.639	65.85
711.962	65.85
712.284	65.86
712.607	65.88
712.93	65.9
713.252	65.91
713.575	65.92
713.897	65.92
714.22	65.96
714.542	65.97
714.864	65.99
715.187	66.03
715.509	66.04
715.831	66.05
716.153	66.08
716.475	66.08
716.798	66.09
717.12	66.12
717.442	66.17
717.764	66.15
718.085	66.12
718.407	66.13
718.729	66.16
719.051	66.17
719.373	66.18
719.695	66.16
720.016	66.18
720.338	66.2
720.659	66.21
720.981	66.24
721.302	66.23
721.624	66.25
721.945	66.24
722.267	66.25
722.588	66.3
722.909	66.33
723.231	66.36
723.552	66.34
723.873	66.39
724.194	66.4
724.515	66.43
724.836	66.45
725.157	66.47
725.478	66.45
725.799	66.45
726.12	66.45
726.441	66.47
726.762	66.43
727.083	66.45
727.403	66.42
727.724	66.42
728.045	66.43
728.365	66.41
728.686	66.42
729.006	66.43
729.327	66.43
729.647	66.46
729.967	66.47
730.288	66.47
730.608	66.44
730.928	66.42
731.249	66.42
731.569	66.43
731.889	66.44
732.209	66.45
732.529	66.41
732.849	66.42
733.169	66.44
733.489	66.48
733.809	66.48
734.129	66.46
734.448	66.48
734.768	66.49
735.088	66.53
735.408	66.53
735.727	66.49
736.047	66.49
736.366	66.48
736.686	66.49
737.005	66.48
737.325	66.47
737.644	66.47
737.963	66.44
738.283	66.43
738.602	66.48
738.921	66.5
739.24	66.52
739.56	66.5
739.879	66.54
740.198	66.55
740.517	66.57
740.836	66.55
741.155	66.55
741.473	66.56
741.792	66.54
742.111	66.51
742.43	66.51
742.748	66.5
743.067	66.49
743.386	66.49
743.704	66.5
744.023	66.53
744.341	66.55
744.66	66.55
744.978	66.53
745.297	66.56
745.615	66.59
745.933	66.6
746.252	66.58
746.57	66.54
746.888	66.57
747.206	66.56
747.524	66.56
747.842	66.57
748.16	66.54
748.478	66.53
748.796	66.58
749.114	66.6
749.432	66.6
749.749	66.6
750.067	66.61
750.385	66.64
750.703	66.62
751.02	66.65
751.338	66.64
751.655	66.62
751.973	66.6
752.29	66.6
752.608	66.58
752.925	66.6
753.242	66.61
753.56	66.62
753.877	66.69
754.194	66.67
754.511	66.66
754.828	66.66
755.145	66.71
755.462	66.71
755.779	66.74
756.096	66.73
756.413	66.7
756.73	66.69
757.047	66.69
757.364	66.68
757.68	66.73
757.997	66.76
758.314	66.75
758.63	66.77
758.947	66.8
759.264	66.84
759.58	66.86
759.896	66.85
760.213	66.87
760.529	66.89
760.846	66.89
761.162	66.94
761.478	66.95
761.794	66.95
762.11	66.94
762.426	66.95
762.743	66.97
763.059	66.97
763.375	66.95
763.69	66.97
764.006	66.97
764.322	66.96
764.638	66.99
764.954	67
765.27	66.98
765.585	67
765.901	66.99
766.216	66.99
766.532	66.98
766.848	66.94
767.163	66.93
767.478	66.95
767.794	66.97
768.109	66.96
768.424	66.95
768.74	66.92
769.055	66.93
769.37	66.97
769.685	66.97
770	67
770.315	67.03
770.63	66.96
770.945	66.95
771.26	66.93
771.575	66.91
771.89	66.87
772.205	66.83
772.52	66.83
772.834	66.85
773.149	66.83
773.464	66.8
773.778	66.8
774.093	66.74
774.407	66.75
774.722	66.75
775.036	66.78
775.351	66.73
775.665	66.76
775.979	66.76
776.293	66.79
776.608	66.81
776.922	66.81
777.236	66.82
777.55	66.82
777.864	66.82
778.178	66.8
778.492	66.82
778.806	66.81
779.12	66.82
779.434	66.89
779.747	66.91
780.061	66.93
780.375	66.97
780.689	66.98
781.002	66.95
781.316	66.97
781.629	67.03
781.943	67.05
782.256	67.06
782.57	67.06
782.883	67.05
783.196	67.05
783.51	67.07
783.823	67.12
784.136	67.1
784.449	67.15
784.762	67.17
785.075	67.13
785.388	67.15
785.701	67.12
786.014	67.15
786.327	67.17
786.64	67.2
786.953	67.26
787.266	67.28
787.578	67.26
787.891	67.23
788.204	67.25
788.516	67.27
788.829	67.33
789.141	67.36
789.454	67.36
789.766	67.38
790.079	67.41
790.391	67.39
790.703	67.42
791.016	67.46
791.328	67.42
791.64	67.44
791.952	67.43
792.264	67.36
792.576	67.34
792.888	67.33
793.2	67.33
793.512	67.33
793.824	67.35
794.136	67.34
794.448	67.31
794.76	67.32
795.071	67.32
795.383	67.35
795.695	67.34
796.006	67.32
796.318	67.31
796.629	67.27
796.941	67.3
797.252	67.25
797.564	67.25
797.875	67.3
798.186	67.26
798.497	67.32
798.809	67.3
799.12	67.34
799.431	67.3
799.742	67.21
800.053	67.19
800.364	67.24
800.675	67.2
800.986	67.22
801.297	67.19
801.608	67.16
801.918	67.15
802.229	67.07
802.54	67.09
802.851	67.06
803.161	67.07
803.472	67.03
803.782	67.03
804.093	67
804.403	66.99
804.714	67
805.024	67
805.334	66.94
805.645	66.98
805.955	66.97
806.265	66.96
806.575	66.95
806.885	66.91
807.195	66.88
807.505	66.85
807.815	66.87
808.125	66.88
808.435	66.92
808.745	66.91
809.055	66.91
809.365	66.93
809.674	66.96
809.984	66.93
810.294	66.92
810.603	66.88
810.913	66.88
811.222	66.81
811.532	66.82
811.841	66.78
812.151	66.79
812.46	66.82
812.769	66.83
813.079	66.84
813.388	66.9
813.697	66.92
814.006	66.93
814.315	66.97
814.624	66.98
814.933	67
815.242	66.97
815.551	66.94
815.86	66.98
816.169	66.91
816.478	66.93
816.786	66.92
817.095	66.9
817.404	66.86
817.712	66.85
818.021	66.89
818.33	66.86
818.638	66.86
818.947	66.89
819.255	66.88
819.563	66.88
819.872	66.93
820.18	66.94
820.488	66.93
820.796	66.96
821.105	66.98
821.413	67
821.721	67.03
822.029	67.03
822.337	67.03
822.645	67.02
822.953	67.01
823.26	67
823.568	67.01
823.876	67.03
824.184	67.04
824.491	67.05
824.799	67.05
825.107	67.07
825.414	67.06
825.722	67.07
826.029	67.06
826.337	67.05
826.644	67.07
826.951	67.06
827.259	67.05
827.566	67.06
827.873	67.06
828.18	67.08
828.488	67.06
828.795	67.1
829.102	67.08
829.409	67.09
829.716	67.1
830.023	67.13
830.329	67.12
830.636	67.14
830.943	67.17
831.25	67.16
831.557	67.16
831.863	67.18
832.17	67.17
832.476	67.15
832.783	67.15
833.089	67.16
833.396	67.15
833.702	67.09
834.009	67.1
834.315	67.02
834.621	67
834.928	66.99
835.234	67.02
835.54	67.04
835.846	67.05
836.152	67.04
836.458	67.01
836.764	66.98
837.07	66.97
837.376	66.95
837.682	66.89
837.988	66.96
838.293	66.94
838.599	66.94
838.905	66.94
839.211	66.96
839.516	66.91
839.822	66.94
840.127	66.94
840.433	66.97
840.738	67.05
841.044	67.12
841.349	67.1
841.654	67.15
841.959	67.14
842.265	67.18
842.57	67.19
842.875	67.3
843.18	67.3
843.485	67.31
843.79	67.33
844.095	67.28
844.4	67.36
844.705	67.55
845.01	67.53
845.315	67.52
845.619	67.5
845.924	67.49
846.229	67.57
846.533	67.65
846.838	67.82
847.142	67.83
847.447	67.88
847.751	67.85
848.056	67.77
848.36	67.82
848.664	67.82
848.969	67.91
849.273	67.91
849.577	67.93
849.881	67.89
850.185	68.09
850.489	67.93
850.794	67.91
851.097	68.01
851.401	67.98
851.705	67.78
852.009	67.99
852.313	67.88
852.617	67.89
852.92	67.87
853.224	67.77
853.528	67.74
853.831	67.69
854.135	67.72
854.438	67.84
854.742	67.72
855.045	67.73
855.349	67.75
855.652	67.78
855.955	67.67
856.259	67.88
856.562	68.19
856.865	68.14
857.168	68.14
857.471	68.11
857.774	68.08
858.077	68.04
858.38	67.98
858.683	67.88
858.986	67.73
859.289	67.74
859.592	67.85
859.894	67.78
860.197	67.97
860.5	68.05
860.802	68.04
861.105	68.08
861.407	68.08
861.71	68.07
862.012	68.14
862.315	68.12
862.617	68.13
862.919	68.22
863.222	68.34
863.524	68.23
863.826	68.33
864.128	68.33
864.43	68.31
864.732	68.21
865.034	68.22
865.336	68.13
865.638	67.97
865.94	67.85
866.242	67.85
866.544	67.94
866.846	67.91
867.147	68.06
867.449	68.15
867.751	68.08
868.052	68.05
868.354	68.18
868.655	68.04
868.957	67.81
869.258	67.63
869.56	67.49
869.861	67.53
870.162	67.48
870.463	67.64
870.765	67.63
871.066	67.69
871.367	67.6
871.668	67.48
871.969	67.46
872.27	67.58
872.571	67.51
872.872	67.56
873.173	67.6
873.473	67.59
873.774	67.51
874.075	67.54
874.376	67.48
874.676	67.57
874.977	67.46
875.277	67.39
875.578	67.28
875.878	67.31
876.179	67.2
876.479	67.21
876.78	67.07
877.08	67.22
877.38	67.24
877.68	67.26
877.981	67.34
878.281	67.29
878.581	67.35
