Data from UWBM122453_Reflection_00003.txt Node
Date: Sun May 02 12:39:46 EDT 2021
User: vgr7
Spectrometer: USB2G7710
Scans to average: 10
Trigger mode: 4
Integration Time (sec): 1.000000E-1
Electric dark correction enabled: true
Boxcar width: 20
XAxis mode: Wavelengths
Number of Pixels in Spectrum: 2048
>>>>>Begin Spectral Data<<<<<
177.721	99.82
178.105	100.73
178.488	100.77
178.871	101.37
179.254	100.53
179.636	98.57
180.019	95.43
180.402	92.96
180.785	89.88
181.168	87.96
181.55	85.36
181.933	113.31
182.316	116.22
182.698	117.31
183.081	117.71
183.463	118.96
183.846	121.67
184.228	123.63
184.611	125.9
184.993	131.35
185.376	134.05
185.758	-114.99
186.14	-61.18
186.522	-25.01
186.904	-7.44
187.287	5.22
187.669	9.18
188.051	10.99
188.433	18.91
188.815	15.25
189.197	12.26
189.579	12.09
189.961	10.79
190.342	7.23
190.724	9.19
191.106	5.84
191.488	6.02
191.869	-1.15
192.251	-0.3
192.633	-3.77
193.014	-5.61
193.396	-5.37
193.777	2.71
194.159	2.38
194.54	0.38
194.922	-0.23
195.303	1.33
195.684	2.9
196.065	3.73
196.447	2.85
196.828	0.97
197.209	3.06
197.59	-8.88
197.971	-8.55
198.352	-7.12
198.733	-3.73
199.114	-3.86
199.495	-4.17
199.876	-3.59
200.257	-4.75
200.638	-5.69
201.018	-12.67
201.399	-15.28
201.78	-17.46
202.16	-18.33
202.541	-16.71
202.922	-16.83
203.302	-21.36
203.683	-21.4
204.063	-21.57
204.444	-19.76
204.824	-15.64
205.204	-12.65
205.585	-3.43
205.965	-2.45
206.345	-1.29
206.725	-4.35
207.106	-2.15
207.486	-0.86
207.866	0.28
208.246	0.79
208.626	3.73
209.006	8.35
209.386	5.04
209.766	5.63
210.145	4.59
210.525	3.58
210.905	4.79
211.285	5.34
211.664	3.29
212.044	3.23
212.424	5.02
212.803	-0.19
213.183	2.44
213.562	2.02
213.942	0.73
214.321	-1.73
214.701	-3.07
215.08	-2.08
215.459	-1.73
215.838	-2.45
216.218	-1.29
216.597	-2.31
216.976	-4.19
217.355	-3.08
217.734	-3.73
218.113	-3.5
218.492	-2.23
218.871	-1.29
219.25	-2.1
219.629	-3.16
220.008	-3.59
220.387	-3.67
220.766	-2.61
221.144	-4.1
221.523	-3.09
221.902	-2.86
222.28	-1.91
222.659	-1.22
223.037	-1.34
223.416	-0.5
223.794	0.45
224.173	-0.2
224.551	-0.71
224.929	-0.45
225.308	0.68
225.686	0.36
226.064	1.09
226.442	1
226.821	0.39
227.199	0.36
227.577	-0.05
227.955	-0.83
228.333	-0.56
228.711	-0.3
229.089	0.21
229.467	0.03
229.845	0.59
230.222	0.88
230.6	1.72
230.978	1.7
231.356	1.09
231.733	1.19
232.111	1.45
232.488	1.42
232.866	1.71
233.243	1.62
233.621	1.69
233.998	1.55
234.376	1.97
234.753	2.26
235.13	2.51
235.508	3.19
235.885	3.33
236.262	3.4
236.639	3.73
237.016	3.79
237.393	3.83
237.77	3.67
238.147	3.63
238.524	3.7
238.901	3.71
239.278	3.81
239.655	3.89
240.032	3.84
240.409	3.92
240.785	3.87
241.162	3.98
241.539	3.97
241.915	4.02
242.292	4.08
242.668	4.07
243.045	4.06
243.421	3.97
243.798	3.97
244.174	3.96
244.551	3.92
244.927	3.77
245.303	3.74
245.679	3.75
246.056	3.69
246.432	3.68
246.808	3.5
247.184	3.48
247.56	3.47
247.936	3.49
248.312	3.47
248.688	3.55
249.064	3.54
249.44	3.53
249.815	3.55
250.191	3.5
250.567	3.48
250.943	3.55
251.318	3.56
251.694	3.49
252.069	3.41
252.445	3.41
252.82	3.52
253.196	3.51
253.571	3.46
253.947	3.56
254.322	3.54
254.697	3.67
255.073	3.66
255.448	3.65
255.823	3.61
256.198	3.56
256.573	3.39
256.948	3.37
257.323	3.38
257.698	3.32
258.073	3.3
258.448	3.19
258.823	3.17
259.198	3.15
259.573	3.19
259.948	3.25
260.322	3.21
260.697	3.22
261.072	3.22
261.446	3.19
261.821	3.17
262.195	3.14
262.57	3.1
262.944	3.08
263.319	3.05
263.693	3.08
264.067	3.09
264.442	3.19
264.816	3.17
265.19	3.13
265.564	3.18
265.938	3.16
266.313	3.2
266.687	3.15
267.061	3.16
267.435	3.15
267.809	3.13
268.183	3.09
268.556	3.12
268.93	3.13
269.304	3.11
269.678	3.07
270.051	3.05
270.425	3.03
270.799	3.05
271.172	3.06
271.546	3.08
271.919	3.08
272.293	3.07
272.666	3.08
273.04	3.09
273.413	3.03
273.787	3.01
274.16	3.01
274.533	3.05
274.906	3.02
275.279	3.03
275.653	3.02
276.026	2.99
276.399	2.96
276.772	2.96
277.145	2.99
277.518	3.01
277.891	3.04
278.263	3.07
278.636	3.08
279.009	3.09
279.382	3.06
279.755	3
280.127	3.02
280.5	3.03
280.872	3.01
281.245	3.11
281.617	3.12
281.99	3.15
282.362	3.18
282.735	3.17
283.107	3.17
283.479	3.19
283.852	3.2
284.224	3.23
284.596	3.19
284.968	3.08
285.34	3.05
285.713	3.03
286.085	2.95
286.457	2.94
286.829	2.9
287.201	2.89
287.572	2.94
287.944	2.93
288.316	2.96
288.688	3.01
289.06	3.02
289.431	3.03
289.803	3.01
290.175	3.01
290.546	3.02
290.918	3.02
291.289	2.99
291.661	3
292.032	2.96
292.403	2.98
292.775	3.06
293.146	3.06
293.517	3.08
293.889	3.15
294.26	3.14
294.631	3.15
295.002	3.19
295.373	3.22
295.744	3.21
296.115	3.2
296.486	3.14
296.857	3.15
297.228	3.13
297.599	3.11
297.97	3.1
298.34	3.1
298.711	3.05
299.082	3.03
299.452	3.04
299.823	3.08
300.194	3.08
300.564	3.08
300.935	3.08
301.305	3.06
301.676	3.06
302.046	3.07
302.416	3.07
302.787	3.06
303.157	2.99
303.527	2.99
303.897	2.98
304.267	2.98
304.637	2.98
305.008	2.99
305.378	3
305.748	2.98
306.117	3.05
306.487	3.1
306.857	3.13
307.227	3.13
307.597	3.11
307.967	3.11
308.336	3.1
308.706	3.11
309.076	3.11
309.445	3.1
309.815	2.99
310.184	2.98
310.554	2.92
310.923	2.95
311.293	2.97
311.662	2.97
312.031	2.94
312.401	2.95
312.77	2.93
313.139	2.91
313.508	2.94
313.877	2.87
314.246	2.86
314.616	2.83
314.985	2.77
315.353	2.77
315.722	2.79
316.091	2.79
316.46	2.8
316.829	2.81
317.198	2.82
317.567	2.95
317.935	2.95
318.304	3.01
318.672	3.03
319.041	3.02
319.41	3.02
319.778	3.05
320.147	3.05
320.515	3.05
320.883	3.03
321.252	2.96
321.62	3
321.988	3.01
322.357	3.01
322.725	3.06
323.093	3.06
323.461	3.05
323.829	3.04
324.197	3.02
324.565	3.01
324.933	3.02
325.301	3.01
325.669	3
326.037	3
326.405	2.95
326.772	2.93
327.14	2.93
327.508	2.91
327.875	2.9
328.243	2.92
328.61	2.87
328.978	2.9
329.346	2.89
329.713	2.88
330.08	2.87
330.448	2.86
330.815	2.82
331.182	2.82
331.55	2.81
331.917	2.83
332.284	2.82
332.651	2.84
333.018	2.83
333.385	2.82
333.752	2.83
334.119	2.83
334.486	2.84
334.853	2.81
335.22	2.82
335.587	2.81
335.954	2.82
336.32	2.83
336.687	2.83
337.054	2.82
337.42	2.82
337.787	2.83
338.153	2.85
338.52	2.89
338.886	2.91
339.253	2.9
339.619	2.9
339.986	2.86
340.352	2.86
340.718	2.87
341.084	2.86
341.451	2.85
341.817	2.84
342.183	2.82
342.549	2.85
342.915	2.84
343.281	2.86
343.647	2.87
344.013	2.88
344.379	2.9
344.745	2.91
345.11	2.92
345.476	2.94
345.842	2.95
346.208	2.93
346.573	2.92
346.939	2.93
347.304	2.93
347.67	2.93
348.035	2.95
348.401	2.93
348.766	2.95
349.132	2.95
349.497	2.97
349.862	2.98
350.228	3
350.593	3
350.958	2.99
351.323	2.98
351.688	2.99
352.053	2.98
352.418	2.98
352.783	2.97
353.148	2.96
353.513	2.95
353.878	2.97
354.243	2.96
354.608	2.95
354.972	2.97
355.337	2.97
355.702	2.96
356.066	2.97
356.431	2.96
356.795	2.97
357.16	2.95
357.524	2.95
357.889	2.95
358.253	2.95
358.618	2.95
358.982	2.96
359.346	2.97
359.71	2.97
360.075	2.96
360.439	2.97
360.803	2.96
361.167	2.96
361.531	2.97
361.895	2.97
362.259	2.97
362.623	2.97
362.987	2.96
363.351	2.97
363.714	2.98
364.078	2.98
364.442	2.98
364.806	2.99
365.169	2.97
365.533	2.97
365.896	2.96
366.26	2.96
366.623	2.95
366.987	2.96
367.35	2.97
367.714	2.98
368.077	2.98
368.44	2.98
368.803	2.98
369.167	2.98
369.53	2.99
369.893	3
370.256	3.01
370.619	3.03
370.982	3.02
371.345	3.02
371.708	3.03
372.071	3.03
372.434	3.03
372.797	3.04
373.159	3.05
373.522	3.06
373.885	3.05
374.247	3.04
374.61	3.04
374.973	3.03
375.335	3.03
375.698	3.02
376.06	3.03
376.423	3.03
376.785	3.03
377.147	3.03
377.51	3.04
377.872	3.04
378.234	3.03
378.596	3.05
378.958	3.06
379.321	3.06
379.683	3.07
380.045	3.07
380.407	3.07
380.769	3.07
381.13	3.09
381.492	3.1
381.854	3.1
382.216	3.1
382.578	3.1
382.939	3.11
383.301	3.11
383.663	3.12
384.024	3.12
384.386	3.12
384.747	3.11
385.109	3.1
385.47	3.11
385.832	3.11
386.193	3.11
386.554	3.11
386.916	3.12
387.277	3.11
387.638	3.13
387.999	3.13
388.36	3.13
388.721	3.14
389.082	3.14
389.443	3.14
389.804	3.15
390.165	3.16
390.526	3.16
390.887	3.16
391.248	3.16
391.609	3.17
391.969	3.17
392.33	3.18
392.691	3.18
393.051	3.19
393.412	3.18
393.772	3.19
394.133	3.19
394.493	3.19
394.854	3.2
395.214	3.19
395.574	3.19
395.935	3.19
396.295	3.18
396.655	3.19
397.015	3.19
397.376	3.18
397.736	3.19
398.096	3.18
398.456	3.19
398.816	3.2
399.176	3.19
399.535	3.2
399.895	3.21
400.255	3.21
400.615	3.21
400.975	3.22
401.334	3.22
401.694	3.22
402.054	3.23
402.413	3.22
402.773	3.22
403.132	3.23
403.492	3.23
403.851	3.23
404.211	3.24
404.57	3.25
404.929	3.26
405.288	3.26
405.648	3.27
406.007	3.27
406.366	3.28
406.725	3.29
407.084	3.28
407.443	3.28
407.802	3.28
408.161	3.28
408.52	3.28
408.879	3.29
409.238	3.29
409.596	3.29
409.955	3.31
410.314	3.31
410.673	3.31
411.031	3.31
411.39	3.32
411.748	3.33
412.107	3.34
412.465	3.36
412.824	3.38
413.182	3.41
413.54	3.43
413.899	3.45
414.257	3.47
414.615	3.51
414.974	3.54
415.332	3.58
415.69	3.61
416.048	3.64
416.406	3.68
416.764	3.7
417.122	3.73
417.48	3.76
417.838	3.79
418.195	3.81
418.553	3.84
418.911	3.85
419.269	3.85
419.626	3.86
419.984	3.85
420.342	3.84
420.699	3.82
421.057	3.81
421.414	3.8
421.772	3.79
422.129	3.79
422.486	3.79
422.844	3.79
423.201	3.79
423.558	3.79
423.915	3.78
424.273	3.78
424.63	3.78
424.987	3.78
425.344	3.79
425.701	3.79
426.058	3.79
426.415	3.79
426.772	3.79
427.128	3.78
427.485	3.77
427.842	3.77
428.199	3.76
428.555	3.75
428.912	3.73
429.269	3.71
429.625	3.7
429.982	3.67
430.338	3.65
430.695	3.64
431.051	3.61
431.407	3.59
431.764	3.58
432.12	3.56
432.476	3.56
432.832	3.55
433.189	3.56
433.545	3.56
433.901	3.57
434.257	3.59
434.613	3.62
434.969	3.64
435.325	3.67
435.681	3.7
436.036	3.71
436.392	3.74
436.748	3.74
437.104	3.75
437.459	3.76
437.815	3.78
438.171	3.8
438.526	3.82
438.882	3.85
439.237	3.87
439.593	3.91
439.948	3.93
440.304	3.97
440.659	3.99
441.014	4.01
441.369	4.03
441.725	4.05
442.08	4.07
442.435	4.08
442.79	4.09
443.145	4.09
443.5	4.09
443.855	4.09
444.21	4.09
444.565	4.09
444.92	4.08
445.275	4.08
445.629	4.07
445.984	4.07
446.339	4.06
446.693	4.06
447.048	4.04
447.403	4.03
447.757	4.01
448.112	4
448.466	3.98
448.82	3.97
449.175	3.95
449.529	3.93
449.883	3.92
450.238	3.9
450.592	3.9
450.946	3.9
451.3	3.9
451.654	3.91
452.008	3.91
452.362	3.92
452.716	3.92
453.07	3.93
453.424	3.92
453.778	3.92
454.132	3.91
454.486	3.9
454.839	3.89
455.193	3.87
455.547	3.86
455.9	3.83
456.254	3.81
456.607	3.78
456.961	3.76
457.314	3.75
457.668	3.74
458.021	3.74
458.375	3.73
458.728	3.73
459.081	3.73
459.434	3.74
459.787	3.75
460.141	3.76
460.494	3.76
460.847	3.77
461.2	3.77
461.553	3.78
461.906	3.78
462.259	3.79
462.611	3.79
462.964	3.8
463.317	3.8
463.67	3.8
464.022	3.8
464.375	3.81
464.728	3.81
465.08	3.8
465.433	3.81
465.785	3.8
466.138	3.79
466.49	3.77
466.843	3.76
467.195	3.74
467.547	3.72
467.899	3.7
468.252	3.67
468.604	3.65
468.956	3.63
469.308	3.62
469.66	3.62
470.012	3.61
470.364	3.61
470.716	3.62
471.068	3.64
471.42	3.66
471.772	3.67
472.123	3.68
472.475	3.69
472.827	3.7
473.178	3.71
473.53	3.72
473.882	3.73
474.233	3.75
474.585	3.78
474.936	3.84
475.288	3.91
475.639	4.02
475.99	4.14
476.342	4.28
476.693	4.43
477.044	4.57
477.395	4.73
477.746	4.88
478.097	5.04
478.448	5.2
478.8	5.36
479.15	5.5
479.501	5.63
479.852	5.75
480.203	5.86
480.554	5.97
480.905	6.08
481.255	6.18
481.606	6.28
481.957	6.36
482.307	6.44
482.658	6.53
483.009	6.61
483.359	6.69
483.709	6.76
484.06	6.83
484.41	6.91
484.761	6.97
485.111	7.03
485.461	7.09
485.811	7.15
486.162	7.2
486.512	7.25
486.862	7.28
487.212	7.31
487.562	7.33
487.912	7.34
488.262	7.35
488.612	7.34
488.961	7.33
489.311	7.3
489.661	7.23
490.011	7.15
490.36	7.06
490.71	6.94
491.06	6.82
491.409	6.69
491.759	6.56
492.108	6.42
492.458	6.28
492.807	6.13
493.157	5.98
493.506	5.83
493.855	5.7
494.204	5.57
494.554	5.45
494.903	5.34
495.252	5.23
495.601	5.12
495.95	5.02
496.299	4.93
496.648	4.84
496.997	4.75
497.346	4.67
497.695	4.59
498.043	4.52
498.392	4.44
498.741	4.36
499.09	4.29
499.438	4.22
499.787	4.16
500.135	4.1
500.484	4.05
500.832	4.01
501.181	3.97
501.529	3.94
501.878	3.92
502.226	3.91
502.574	3.91
502.923	3.9
503.271	3.9
503.619	3.9
503.967	3.9
504.315	3.9
504.663	3.89
505.011	3.89
505.359	3.88
505.707	3.87
506.055	3.87
506.403	3.87
506.751	3.87
507.098	3.87
507.446	3.88
507.794	3.89
508.141	3.89
508.489	3.91
508.837	3.92
509.184	3.93
509.531	3.95
509.879	3.95
510.226	3.97
510.574	3.98
510.921	3.99
511.268	4
511.616	4.02
511.963	4.03
512.31	4.05
512.657	4.07
513.004	4.08
513.351	4.1
513.698	4.1
514.045	4.11
514.392	4.12
514.739	4.12
515.086	4.11
515.432	4.11
515.779	4.11
516.126	4.11
516.473	4.11
516.819	4.11
517.166	4.12
517.512	4.13
517.859	4.14
518.205	4.15
518.552	4.17
518.898	4.2
519.245	4.23
519.591	4.28
519.937	4.35
520.283	4.43
520.629	4.52
520.976	4.62
521.322	4.72
521.668	4.83
522.014	4.92
522.36	5.03
522.706	5.13
523.052	5.23
523.398	5.32
523.743	5.4
524.089	5.47
524.435	5.53
524.781	5.59
525.126	5.64
525.472	5.69
525.817	5.74
526.163	5.79
526.509	5.83
526.854	5.87
527.199	5.91
527.545	5.95
527.89	6
528.235	6.04
528.581	6.08
528.926	6.12
529.271	6.16
529.616	6.19
529.961	6.22
530.306	6.24
530.651	6.26
530.996	6.28
531.341	6.29
531.686	6.29
532.031	6.29
532.376	6.3
532.721	6.29
533.065	6.3
533.41	6.3
533.755	6.29
534.099	6.26
534.444	6.24
534.788	6.21
535.133	6.17
535.477	6.13
535.822	6.08
536.166	6.03
536.51	5.97
536.855	5.91
537.199	5.83
537.543	5.76
537.887	5.7
538.231	5.64
538.576	5.59
538.92	5.53
539.264	5.48
539.608	5.43
539.951	5.38
540.295	5.32
540.639	5.27
540.983	5.21
541.327	5.17
541.671	5.12
542.014	5.07
542.358	5.02
542.701	4.98
543.045	4.95
543.389	4.93
543.732	4.91
544.075	4.89
544.419	4.88
544.762	4.86
545.105	4.85
545.449	4.85
545.792	4.84
546.135	4.84
546.478	4.83
546.821	4.81
547.165	4.78
547.508	4.74
547.851	4.7
548.194	4.65
548.536	4.59
548.879	4.53
549.222	4.47
549.565	4.41
549.908	4.34
550.25	4.29
550.593	4.23
550.936	4.19
551.278	4.15
551.621	4.13
551.963	4.11
552.306	4.09
552.648	4.08
552.991	4.06
553.333	4.05
553.675	4.04
554.017	4.05
554.36	4.05
554.702	4.07
555.044	4.07
555.386	4.08
555.728	4.1
556.07	4.1
556.412	4.11
556.754	4.12
557.096	4.12
557.438	4.12
557.78	4.12
558.121	4.12
558.463	4.12
558.805	4.12
559.147	4.13
559.488	4.13
559.83	4.14
560.171	4.14
560.513	4.14
560.854	4.13
561.196	4.13
561.537	4.13
561.878	4.14
562.22	4.14
562.561	4.14
562.902	4.15
563.243	4.16
563.584	4.16
563.925	4.17
564.266	4.17
564.607	4.17
564.948	4.17
565.289	4.18
565.63	4.19
565.971	4.19
566.312	4.19
566.653	4.19
566.993	4.19
567.334	4.19
567.675	4.2
568.015	4.21
568.356	4.21
568.696	4.22
569.037	4.22
569.377	4.22
569.718	4.23
570.058	4.23
570.398	4.23
570.739	4.23
571.079	4.23
571.419	4.23
571.759	4.23
572.099	4.23
572.439	4.23
572.779	4.23
573.119	4.23
573.459	4.22
573.799	4.23
574.139	4.23
574.479	4.24
574.819	4.24
575.158	4.24
575.498	4.24
575.838	4.24
576.177	4.24
576.517	4.24
576.856	4.24
577.196	4.24
577.535	4.23
577.875	4.24
578.214	4.23
578.553	4.24
578.893	4.24
579.232	4.24
579.571	4.23
579.91	4.22
580.25	4.22
580.589	4.22
580.928	4.21
581.267	4.21
581.606	4.2
581.945	4.2
582.283	4.2
582.622	4.2
582.961	4.2
583.3	4.2
583.639	4.21
583.977	4.21
584.316	4.22
584.654	4.22
584.993	4.22
585.332	4.21
585.67	4.21
586.008	4.21
586.347	4.21
586.685	4.22
587.024	4.22
587.362	4.23
587.7	4.23
588.038	4.23
588.376	4.22
588.715	4.23
589.053	4.23
589.391	4.23
589.729	4.23
590.067	4.24
590.404	4.23
590.742	4.24
591.08	4.24
591.418	4.24
591.756	4.25
592.093	4.26
592.431	4.27
592.769	4.28
593.106	4.28
593.444	4.28
593.781	4.28
594.119	4.28
594.456	4.28
594.793	4.29
595.131	4.29
595.468	4.3
595.805	4.29
596.143	4.3
596.48	4.3
596.817	4.3
597.154	4.3
597.491	4.3
597.828	4.31
598.165	4.31
598.502	4.31
598.839	4.31
599.176	4.31
599.512	4.32
599.849	4.32
600.186	4.32
600.523	4.32
600.859	4.32
601.196	4.32
601.532	4.33
601.869	4.33
602.205	4.33
602.542	4.34
602.878	4.35
603.215	4.33
603.551	4.33
603.887	4.33
604.223	4.34
604.56	4.34
604.896	4.34
605.232	4.34
605.568	4.34
605.904	4.34
606.24	4.34
606.576	4.34
606.912	4.34
607.248	4.34
607.583	4.35
607.919	4.35
608.255	4.35
608.591	4.35
608.926	4.35
609.262	4.35
609.597	4.36
609.933	4.36
610.268	4.37
610.604	4.38
610.939	4.38
611.275	4.37
611.61	4.37
611.945	4.37
612.281	4.37
612.616	4.37
612.951	4.35
613.286	4.36
613.621	4.35
613.956	4.34
614.291	4.35
614.626	4.35
614.961	4.36
615.296	4.35
615.631	4.36
615.966	4.35
616.3	4.35
616.635	4.36
616.97	4.36
617.304	4.35
617.639	4.35
617.973	4.35
618.308	4.35
618.642	4.34
618.977	4.34
619.311	4.33
619.646	4.33
619.98	4.35
620.314	4.35
620.648	4.36
620.983	4.36
621.317	4.36
621.651	4.36
621.985	4.36
622.319	4.36
622.653	4.36
622.987	4.37
623.321	4.36
623.655	4.37
623.988	4.38
624.322	4.37
624.656	4.38
624.99	4.38
625.323	4.38
625.657	4.39
625.99	4.41
626.324	4.42
626.657	4.42
626.991	4.42
627.324	4.42
627.658	4.43
627.991	4.43
628.324	4.43
628.657	4.44
628.991	4.45
629.324	4.45
629.657	4.47
629.99	4.46
630.323	4.47
630.656	4.46
630.989	4.47
631.322	4.47
631.655	4.47
631.987	4.47
632.32	4.47
632.653	4.48
632.986	4.49
633.318	4.48
633.651	4.48
633.984	4.48
634.316	4.49
634.649	4.49
634.981	4.5
635.313	4.5
635.646	4.49
635.978	4.49
636.31	4.48
636.643	4.48
636.975	4.48
637.307	4.48
637.639	4.48
637.971	4.49
638.303	4.5
638.635	4.5
638.967	4.51
639.299	4.51
639.631	4.51
639.963	4.53
640.295	4.53
640.626	4.55
640.958	4.56
641.29	4.55
641.621	4.56
641.953	4.56
642.285	4.57
642.616	4.58
642.948	4.57
643.279	4.58
643.61	4.58
643.942	4.58
644.273	4.59
644.604	4.59
644.936	4.58
645.267	4.59
645.598	4.6
645.929	4.61
646.26	4.61
646.591	4.61
646.922	4.61
647.253	4.61
647.584	4.61
647.915	4.62
648.245	4.62
648.576	4.63
648.907	4.61
649.238	4.62
649.568	4.61
649.899	4.61
650.229	4.62
650.56	4.64
650.89	4.65
651.221	4.65
651.551	4.66
651.882	4.66
652.212	4.66
652.542	4.65
652.872	4.65
653.203	4.66
653.533	4.66
653.863	4.65
654.193	4.65
654.523	4.64
654.853	4.64
655.183	4.64
655.513	4.64
655.843	4.65
656.172	4.65
656.502	4.66
656.832	4.64
657.162	4.65
657.491	4.65
657.821	4.65
658.15	4.65
658.48	4.64
658.809	4.64
659.139	4.64
659.468	4.65
659.798	4.66
660.127	4.65
660.456	4.68
660.785	4.69
661.115	4.71
661.444	4.71
661.773	4.72
662.102	4.73
662.431	4.74
662.76	4.75
663.089	4.75
663.418	4.76
663.747	4.76
664.076	4.76
664.404	4.75
664.733	4.76
665.062	4.77
665.39	4.77
665.719	4.77
666.048	4.77
666.376	4.77
666.705	4.76
667.033	4.75
667.362	4.74
667.69	4.75
668.018	4.75
668.347	4.75
668.675	4.74
669.003	4.75
669.331	4.75
669.659	4.75
669.987	4.75
670.315	4.75
670.643	4.77
670.971	4.77
671.299	4.77
671.627	4.78
671.955	4.78
672.283	4.78
672.61	4.79
672.938	4.8
673.266	4.81
673.593	4.81
673.921	4.82
674.249	4.82
674.576	4.83
674.904	4.84
675.231	4.84
675.558	4.86
675.886	4.88
676.213	4.87
676.54	4.87
676.867	4.88
677.195	4.89
677.522	4.9
677.849	4.91
678.176	4.92
678.503	4.94
678.83	4.94
679.157	4.94
679.484	4.94
679.81	4.94
680.137	4.94
680.464	4.94
680.791	4.94
681.117	4.93
681.444	4.92
681.771	4.92
682.097	4.92
682.424	4.92
682.75	4.91
683.077	4.91
683.403	4.92
683.729	4.91
684.056	4.92
684.382	4.92
684.708	4.92
685.034	4.93
685.36	4.93
685.686	4.94
686.012	4.96
686.339	4.97
686.664	4.98
686.99	4.98
687.316	4.99
687.642	5.01
687.968	5.03
688.294	5.04
688.619	5.04
688.945	5.04
689.271	5.05
689.596	5.06
689.922	5.09
690.247	5.08
690.573	5.09
690.898	5.1
691.224	5.11
691.549	5.11
691.874	5.09
692.2	5.11
692.525	5.11
692.85	5.1
693.175	5.12
693.5	5.13
693.825	5.14
694.15	5.14
694.475	5.15
694.8	5.15
695.125	5.14
695.45	5.17
695.775	5.17
696.099	5.18
696.424	5.17
696.749	5.17
697.073	5.18
697.398	5.18
697.723	5.17
698.047	5.17
698.372	5.17
698.696	5.15
699.02	5.15
699.345	5.16
699.669	5.17
699.993	5.16
700.318	5.14
700.642	5.14
700.966	5.14
701.29	5.14
701.614	5.15
701.938	5.15
702.262	5.15
702.586	5.15
702.91	5.15
703.234	5.16
703.557	5.15
703.881	5.15
704.205	5.18
704.529	5.2
704.852	5.19
705.176	5.22
705.499	5.25
705.823	5.25
706.146	5.26
706.47	5.26
706.793	5.27
707.117	5.37
707.44	5.38
707.763	5.38
708.086	5.38
708.409	5.38
708.733	5.37
709.056	5.37
709.379	5.37
709.702	5.39
710.025	5.4
710.348	5.24
710.671	5.23
710.993	5.23
711.316	5.24
711.639	5.26
711.962	5.26
712.284	5.27
712.607	5.27
712.93	5.28
713.252	5.3
713.575	5.29
713.897	5.28
714.22	5.29
714.542	5.32
714.864	5.38
715.187	5.41
715.509	5.42
715.831	5.41
716.153	5.41
716.475	5.37
716.798	5.38
717.12	5.55
717.442	5.55
717.764	5.53
718.085	5.46
718.407	5.45
718.729	5.42
719.051	5.45
719.373	5.45
719.695	5.44
720.016	5.42
720.338	5.35
720.659	5.37
720.981	5.37
721.302	5.37
721.624	5.38
721.945	5.39
722.267	5.4
722.588	5.4
722.909	5.44
723.231	5.48
723.552	5.49
723.873	5.52
724.194	5.51
724.515	5.53
724.836	5.66
725.157	5.67
725.478	5.67
725.799	5.69
726.12	5.68
726.441	5.67
726.762	5.71
727.083	5.69
727.403	5.68
727.724	5.66
728.045	5.58
728.365	5.59
728.686	5.63
729.006	5.65
729.327	5.66
729.647	5.66
729.967	5.64
730.288	5.67
730.608	5.68
730.928	5.71
731.249	5.71
731.569	5.72
731.889	5.73
732.209	5.74
732.529	5.74
732.849	5.75
733.169	5.77
733.489	5.76
733.809	5.77
734.129	5.8
734.448	5.82
734.768	5.83
735.088	5.83
735.408	5.82
735.727	5.82
736.047	5.84
736.366	5.84
736.686	5.85
737.005	5.86
737.325	5.84
737.644	5.83
737.963	5.82
738.283	5.82
738.602	5.84
738.921	5.84
739.24	5.83
739.56	5.85
739.879	5.84
740.198	5.87
740.517	5.88
740.836	5.89
741.155	5.89
741.473	5.93
741.792	5.94
742.111	5.93
742.43	5.95
742.748	5.96
743.067	5.97
743.386	5.99
743.704	6
744.023	6.03
744.341	6.02
744.66	6.03
744.978	5.96
745.297	5.96
745.615	5.93
745.933	5.94
746.252	5.93
746.57	5.89
746.888	5.89
747.206	5.85
747.524	5.84
747.842	5.85
748.16	5.85
748.478	5.86
748.796	5.84
749.114	5.81
749.432	5.81
749.749	5.84
750.067	5.85
750.385	5.86
750.703	5.87
751.02	5.85
751.338	5.86
751.655	5.92
751.973	5.92
752.29	5.91
752.608	5.94
752.925	5.96
753.242	6.04
753.56	6.07
753.877	6.05
754.194	6.14
754.511	6.13
754.828	6.1
755.145	6.17
755.462	6.19
755.779	6.17
756.096	6.21
756.413	6.2
756.73	6.15
757.047	6.14
757.364	6.14
757.68	6.17
757.997	6.18
758.314	6.2
758.63	6.23
758.947	6.28
759.264	6.27
759.58	6.27
759.896	6.24
760.213	6.29
760.529	6.3
760.846	6.28
761.162	6.3
761.478	6.31
761.794	6.3
762.11	6.31
762.426	6.36
762.743	6.34
763.059	6.39
763.375	6.44
763.69	6.46
764.006	6.48
764.322	6.49
764.638	6.48
764.954	6.52
765.27	6.55
765.585	6.53
765.901	6.54
766.216	6.39
766.532	6.36
766.848	6.37
767.163	6.39
767.478	6.43
767.794	6.47
768.109	6.48
768.424	6.48
768.74	6.51
769.055	6.5
769.37	6.57
769.685	6.57
770	6.61
770.315	6.65
770.63	6.57
770.945	6.51
771.26	6.48
771.575	6.46
771.89	6.45
772.205	6.52
772.52	6.53
772.834	6.72
773.149	6.76
773.464	6.7
773.778	6.7
774.093	6.73
774.407	6.73
774.722	6.75
775.036	6.74
775.351	6.71
775.665	6.7
775.979	6.57
776.293	6.51
776.608	6.52
776.922	6.47
777.236	6.6
777.55	6.74
777.864	6.76
778.178	6.8
778.492	6.78
778.806	6.75
779.12	6.82
779.434	6.84
779.747	6.77
780.061	6.88
780.375	6.83
780.689	6.76
781.002	6.74
781.316	6.73
781.629	6.81
781.943	6.85
782.256	6.85
782.57	6.95
782.883	6.91
783.196	6.86
783.51	6.95
783.823	6.98
784.136	6.96
784.449	7.01
784.762	7
785.075	7.06
785.388	7.03
785.701	7.01
786.014	7
786.327	7.05
786.64	6.99
786.953	7.01
787.266	7.1
787.578	7.1
787.891	7.14
788.204	7.11
788.516	7.15
788.829	7.22
789.141	7.2
789.454	7.22
789.766	7.28
790.079	7.24
790.391	7.22
790.703	7.32
791.016	7.15
791.328	7.2
791.64	7.24
791.952	7.24
792.264	7.32
792.576	7.34
792.888	7.33
793.2	7.34
793.512	7.37
793.824	7.31
794.136	7.28
794.448	7.33
794.76	7.36
795.071	7.45
795.383	7.39
795.695	7.52
796.006	7.55
796.318	7.53
796.629	7.55
796.941	7.57
797.252	7.54
797.564	7.57
797.875	7.49
798.186	7.42
798.497	7.45
798.809	7.31
799.12	7.31
799.431	7.31
799.742	7.3
800.053	7.2
800.364	7.29
800.675	7.29
800.986	7.28
801.297	7.35
801.608	7.34
801.918	7.34
802.229	7.33
802.54	7.26
802.851	7.25
803.161	7.21
803.472	7.19
803.782	7.19
804.093	7.23
804.403	7.13
804.714	7.21
805.024	7.18
805.334	7.35
805.645	7.35
805.955	7.41
806.265	7.42
806.575	7.45
806.885	7.4
807.195	7.36
807.505	7.32
807.815	7.15
808.125	7.19
808.435	7.17
808.745	7.19
809.055	7.25
809.365	7.34
809.674	7.39
809.984	7.45
810.294	7.5
810.603	7.49
810.913	7.78
811.222	7.73
811.532	7.83
811.841	7.87
812.151	7.97
812.46	7.98
812.769	8.08
813.079	8.09
813.388	8.13
813.697	8.12
814.006	8.04
814.315	8.12
814.624	8.17
814.933	8.16
815.242	8.15
815.551	8.23
815.86	8.16
816.169	8.15
816.478	8.12
816.786	8.06
817.095	8.08
817.404	8.09
817.712	8.07
818.021	8.02
818.33	8.05
818.638	8.03
818.947	8.02
819.255	8.04
819.563	8.06
819.872	8.07
820.18	8.09
820.488	8.12
820.796	8.1
821.105	8.06
821.413	8.08
821.721	8.1
822.029	8.11
822.337	8.14
822.645	8.13
822.953	8.11
823.26	8.15
823.568	8.14
823.876	8.12
824.184	8.1
824.491	8.08
824.799	8.07
825.107	8.08
825.414	8.08
825.722	8.08
826.029	8.06
826.337	8.08
826.644	8.07
826.951	8.08
827.259	8.1
827.566	8.13
827.873	8.15
828.18	8.12
828.488	8.12
828.795	8.13
829.102	8.15
829.409	8.19
829.716	8.19
830.023	8.21
830.329	8.26
830.636	8.28
830.943	8.33
831.25	8.4
831.557	8.38
831.863	8.4
832.17	8.41
832.476	8.42
832.783	8.42
833.089	8.44
833.396	8.4
833.702	8.41
834.009	8.33
834.315	8.31
834.621	8.37
834.928	8.35
835.234	8.37
835.54	8.41
835.846	8.45
836.152	8.45
836.458	8.45
836.764	8.44
837.07	8.48
837.376	8.37
837.682	8.26
837.988	8.34
838.293	8.23
838.599	8.27
838.905	8.21
839.211	8.3
839.516	8.31
839.822	8.41
840.127	8.35
840.433	8.4
840.738	8.37
841.044	8.41
841.349	8.44
841.654	8.55
841.959	8.57
842.265	8.56
842.57	8.47
842.875	8.43
843.18	8.56
843.485	8.6
843.79	8.66
844.095	8.84
844.4	8.8
844.705	9.06
845.01	9.13
845.315	9.15
845.619	9.02
845.924	8.93
846.229	8.85
846.533	8.96
846.838	9.08
847.142	8.95
847.447	9.02
847.751	8.81
848.056	8.9
848.36	8.75
848.664	8.74
848.969	8.72
849.273	8.67
849.577	8.5
849.881	8.43
850.185	8.52
850.489	8.84
850.794	9.12
851.097	9.15
851.401	9.3
851.705	9.34
852.009	9.5
852.313	9.41
852.617	9.61
852.92	9.48
853.224	9.38
853.528	9.29
853.831	9.42
854.135	9.1
854.438	8.96
854.742	9.09
855.045	9.36
855.349	9.52
855.652	9.71
855.955	9.76
856.259	9.84
856.562	9.98
856.865	9.68
857.168	9.54
857.471	9.34
857.774	9.34
858.077	9.31
858.38	9.42
858.683	9.31
858.986	9.34
859.289	9.65
859.592	9.77
859.894	10.09
860.197	10.23
860.5	10.2
860.802	10.4
861.105	10.43
861.407	10.64
861.71	10.61
862.012	10.61
862.315	10.82
862.617	10.62
862.919	9.96
863.222	10.06
863.524	10.03
863.826	10.2
864.128	10.39
864.43	10.45
864.732	10.5
865.034	10.67
865.336	10.83
865.638	10.78
865.94	10.72
866.242	10.57
866.544	10.04
866.846	10.51
867.147	10.19
867.449	9.9
867.751	9.92
868.052	9.77
868.354	9.65
868.655	9.79
868.957	9.9
869.258	10.06
869.56	10.05
869.861	10.5
870.162	10.23
870.463	10.12
870.765	10.26
871.066	10.38
871.367	10.12
871.668	10.15
871.969	10.24
872.27	10.25
872.571	10.32
872.872	10.65
873.173	10.48
873.473	10.72
873.774	10.8
874.075	10.81
874.376	11.03
874.676	11.02
874.977	11.06
875.277	11.14
875.578	11.02
875.878	10.82
876.179	10.89
876.479	10.69
876.78	10.71
877.08	10.6
877.38	10.54
877.68	10.57
877.981	10.61
878.281	10.54
878.581	10.56
