Data from UWBM79812_Reflection_00013.txt Node
Date: Sun May 02 13:58:47 EDT 2021
User: vgr7
Spectrometer: USB2G7710
Scans to average: 10
Trigger mode: 4
Integration Time (sec): 1.000000E-1
Electric dark correction enabled: true
Boxcar width: 20
XAxis mode: Wavelengths
Number of Pixels in Spectrum: 2048
>>>>>Begin Spectral Data<<<<<
177.721	63.44
178.105	68.58
178.488	122.33
178.871	144.8
179.254	91.06
179.636	62.86
180.019	51.53
180.402	47.78
180.785	51.63
181.168	50.24
181.55	45.68
181.933	47.79
182.316	42.16
182.698	38.9
183.081	35.12
183.463	31.19
183.846	28.7
184.228	29.37
184.611	27.29
184.993	28.75
185.376	27.65
185.758	31.97
186.14	37.32
186.522	35.67
186.904	36.12
187.287	35.97
187.669	37.74
188.051	36.55
188.433	38.4
188.815	38.61
189.197	38.78
189.579	33.71
189.961	31.73
190.342	30.72
190.724	32.09
191.106	29.2
191.488	29.19
191.869	27.96
192.251	25.66
192.633	27.22
193.014	27.32
193.396	23.81
193.777	25.43
194.159	25.56
194.54	23.43
194.922	23.39
195.303	23.63
195.684	23.51
196.065	23.64
196.447	23.81
196.828	24.45
197.209	23.96
197.59	21.12
197.971	21.84
198.352	23.68
198.733	24.92
199.114	25.85
199.495	26.33
199.876	25.64
200.257	26.25
200.638	24.37
201.018	25.28
201.399	24.3
201.78	23.18
202.16	22.4
202.541	21.85
202.922	20.21
203.302	19.24
203.683	20.49
204.063	18.4
204.444	18.65
204.824	17.59
205.204	18.77
205.585	19.82
205.965	21.57
206.345	21.86
206.725	21.93
207.106	22.19
207.486	21.83
207.866	23.35
208.246	21.87
208.626	20.08
209.006	20
209.386	18.85
209.766	17.88
210.145	19.12
210.525	20.42
210.905	22.03
211.285	21.24
211.664	21.67
212.044	19.65
212.424	17.81
212.803	17.29
213.183	18.11
213.562	18.02
213.942	17.06
214.321	16.19
214.701	15.9
215.08	15.87
215.459	15.91
215.838	15.45
216.218	15.96
216.597	15.71
216.976	15.41
217.355	15.44
217.734	15.22
218.113	15.79
218.492	15.66
218.871	15.74
219.25	16.05
219.629	16.09
220.008	15.43
220.387	14.99
220.766	14.49
221.144	13.83
221.523	13
221.902	12.57
222.28	11.64
222.659	10.65
223.037	10.28
223.416	10.55
223.794	11.19
224.173	11.91
224.551	12.11
224.929	12.75
225.308	12.44
225.686	11.88
226.064	10.9
226.442	10.29
226.821	10.51
227.199	10.17
227.577	10.38
227.955	10.67
228.333	10.5
228.711	9.93
229.089	9.57
229.467	9.34
229.845	9.33
230.222	9.36
230.6	9.34
230.978	9.07
231.356	9.31
231.733	9.44
232.111	8.93
232.488	8.64
232.866	8.31
233.243	8.16
233.621	7.97
233.998	7.79
234.376	7.58
234.753	7.06
235.13	6.98
235.508	6.92
235.885	6.83
236.262	6.74
236.639	6.52
237.016	6.29
237.393	6.12
237.77	6.01
238.147	5.94
238.524	5.91
238.901	5.69
239.278	5.58
239.655	5.46
240.032	5.33
240.409	5.25
240.785	5.18
241.162	5.14
241.539	5.14
241.915	5.14
242.292	5.11
242.668	5.08
243.045	5.03
243.421	4.97
243.798	4.98
244.174	5.01
244.551	4.99
244.927	4.98
245.303	4.97
245.679	4.96
246.056	4.91
246.432	4.91
246.808	4.87
247.184	4.83
247.56	4.85
247.936	4.81
248.312	4.82
248.688	4.82
249.064	4.78
249.44	4.8
249.815	4.78
250.191	4.76
250.567	4.76
250.943	4.73
251.318	4.7
251.694	4.7
252.069	4.68
252.445	4.66
252.82	4.64
253.196	4.62
253.571	4.6
253.947	4.57
254.322	4.56
254.697	4.55
255.073	4.52
255.448	4.52
255.823	4.47
256.198	4.48
256.573	4.46
256.948	4.45
257.323	4.41
257.698	4.37
258.073	4.34
258.448	4.32
258.823	4.32
259.198	4.3
259.573	4.28
259.948	4.28
260.322	4.26
260.697	4.23
261.072	4.21
261.446	4.21
261.821	4.19
262.195	4.16
262.57	4.14
262.944	4.13
263.319	4.15
263.693	4.12
264.067	4.1
264.442	4.1
264.816	4.06
265.19	4.06
265.564	4.07
265.938	4.04
266.313	4.06
266.687	4.07
267.061	4.06
267.435	4.05
267.809	4.05
268.183	4.06
268.556	4.07
268.93	4.07
269.304	4.08
269.678	4.08
270.051	4.06
270.425	4.05
270.799	4.06
271.172	4.07
271.546	4.04
271.919	4.04
272.293	4.04
272.666	4.04
273.04	4.06
273.413	4.08
273.787	4.1
274.16	4.1
274.533	4.11
274.906	4.12
275.279	4.12
275.653	4.12
276.026	4.13
276.399	4.14
276.772	4.15
277.145	4.14
277.518	4.14
277.891	4.15
278.263	4.13
278.636	4.13
279.009	4.13
279.382	4.13
279.755	4.14
280.127	4.14
280.5	4.16
280.872	4.17
281.245	4.18
281.617	4.17
281.99	4.16
282.362	4.14
282.735	4.15
283.107	4.14
283.479	4.14
283.852	4.17
284.224	4.16
284.596	4.17
284.968	4.16
285.34	4.17
285.713	4.2
286.085	4.19
286.457	4.21
286.829	4.23
287.201	4.23
287.572	4.23
287.944	4.24
288.316	4.23
288.688	4.24
289.06	4.24
289.431	4.26
289.803	4.27
290.175	4.28
290.546	4.28
290.918	4.29
291.289	4.3
291.661	4.32
292.032	4.32
292.403	4.35
292.775	4.38
293.146	4.39
293.517	4.43
293.889	4.44
294.26	4.46
294.631	4.49
295.002	4.51
295.373	4.53
295.744	4.53
296.115	4.55
296.486	4.58
296.857	4.62
297.228	4.63
297.599	4.67
297.97	4.69
298.34	4.73
298.711	4.74
299.082	4.75
299.452	4.78
299.823	4.8
300.194	4.83
300.564	4.86
300.935	4.87
301.305	4.91
301.676	4.93
302.046	4.97
302.416	5
302.787	5.02
303.157	5.05
303.527	5.09
303.897	5.11
304.267	5.15
304.637	5.17
305.008	5.21
305.378	5.25
305.748	5.29
306.117	5.34
306.487	5.39
306.857	5.42
307.227	5.47
307.597	5.51
307.967	5.55
308.336	5.6
308.706	5.62
309.076	5.66
309.445	5.69
309.815	5.72
310.184	5.76
310.554	5.79
310.923	5.83
311.293	5.86
311.662	5.89
312.031	5.92
312.401	5.98
312.77	6.01
313.139	6.05
313.508	6.08
313.877	6.13
314.246	6.17
314.616	6.2
314.985	6.24
315.353	6.29
315.722	6.32
316.091	6.37
316.46	6.4
316.829	6.45
317.198	6.49
317.567	6.55
317.935	6.6
318.304	6.65
318.672	6.69
319.041	6.76
319.41	6.8
319.778	6.86
320.147	6.88
320.515	6.93
320.883	6.97
321.252	7
321.62	7.05
321.988	7.09
322.357	7.11
322.725	7.14
323.093	7.16
323.461	7.19
323.829	7.25
324.197	7.29
324.565	7.33
324.933	7.37
325.301	7.4
325.669	7.45
326.037	7.47
326.405	7.51
326.772	7.54
327.14	7.57
327.508	7.59
327.875	7.61
328.243	7.63
328.61	7.65
328.978	7.69
329.346	7.7
329.713	7.74
330.08	7.76
330.448	7.78
330.815	7.8
331.182	7.81
331.55	7.84
331.917	7.86
332.284	7.87
332.651	7.89
333.018	7.93
333.385	7.95
333.752	7.98
334.119	8.01
334.486	8.05
334.853	8.08
335.22	8.13
335.587	8.16
335.954	8.19
336.32	8.21
336.687	8.24
337.054	8.26
337.42	8.29
337.787	8.33
338.153	8.36
338.52	8.38
338.886	8.39
339.253	8.42
339.619	8.46
339.986	8.47
340.352	8.5
340.718	8.53
341.084	8.55
341.451	8.56
341.817	8.59
342.183	8.62
342.549	8.65
342.915	8.68
343.281	8.7
343.647	8.72
344.013	8.74
344.379	8.76
344.745	8.79
345.11	8.82
345.476	8.85
345.842	8.88
346.208	8.9
346.573	8.93
346.939	8.94
347.304	8.97
347.67	8.99
348.035	9.01
348.401	9.03
348.766	9.06
349.132	9.07
349.497	9.09
349.862	9.1
350.228	9.11
350.593	9.13
350.958	9.15
351.323	9.17
351.688	9.18
352.053	9.2
352.418	9.21
352.783	9.22
353.148	9.23
353.513	9.25
353.878	9.26
354.243	9.26
354.608	9.26
354.972	9.28
355.337	9.28
355.702	9.29
356.066	9.29
356.431	9.29
356.795	9.29
357.16	9.28
357.524	9.28
357.889	9.27
358.253	9.27
358.618	9.27
358.982	9.27
359.346	9.27
359.71	9.26
360.075	9.25
360.439	9.24
360.803	9.23
361.167	9.22
361.531	9.21
361.895	9.21
362.259	9.19
362.623	9.18
362.987	9.16
363.351	9.15
363.714	9.13
364.078	9.12
364.442	9.11
364.806	9.1
365.169	9.09
365.533	9.07
365.896	9.05
366.26	9.03
366.623	9.01
366.987	8.98
367.35	8.96
367.714	8.95
368.077	8.92
368.44	8.89
368.803	8.86
369.167	8.84
369.53	8.8
369.893	8.76
370.256	8.72
370.619	8.68
370.982	8.65
371.345	8.62
371.708	8.59
372.071	8.56
372.434	8.53
372.797	8.49
373.159	8.46
373.522	8.42
373.885	8.4
374.247	8.36
374.61	8.31
374.973	8.27
375.335	8.23
375.698	8.2
376.06	8.15
376.423	8.11
376.785	8.07
377.147	8.04
377.51	8
377.872	7.96
378.234	7.92
378.596	7.88
378.958	7.83
379.321	7.79
379.683	7.76
380.045	7.71
380.407	7.68
380.769	7.64
381.13	7.6
381.492	7.57
381.854	7.53
382.216	7.49
382.578	7.45
382.939	7.42
383.301	7.38
383.663	7.35
384.024	7.31
384.386	7.27
384.747	7.25
385.109	7.22
385.47	7.18
385.832	7.14
386.193	7.11
386.554	7.07
386.916	7.04
387.277	7
387.638	6.97
387.999	6.94
388.36	6.9
388.721	6.87
389.082	6.84
389.443	6.82
389.804	6.78
390.165	6.75
390.526	6.73
390.887	6.7
391.248	6.67
391.609	6.64
391.969	6.61
392.33	6.58
392.691	6.55
393.051	6.52
393.412	6.49
393.772	6.46
394.133	6.43
394.493	6.39
394.854	6.37
395.214	6.33
395.574	6.3
395.935	6.28
396.295	6.24
396.655	6.21
397.015	6.18
397.376	6.15
397.736	6.11
398.096	6.08
398.456	6.05
398.816	6.03
399.176	5.99
399.535	5.96
399.895	5.93
400.255	5.91
400.615	5.88
400.975	5.86
401.334	5.82
401.694	5.8
402.054	5.78
402.413	5.74
402.773	5.72
403.132	5.7
403.492	5.68
403.851	5.65
404.211	5.63
404.57	5.61
404.929	5.59
405.288	5.57
405.648	5.55
406.007	5.54
406.366	5.52
406.725	5.51
407.084	5.49
407.443	5.48
407.802	5.46
408.161	5.45
408.52	5.44
408.879	5.43
409.238	5.41
409.596	5.4
409.955	5.39
410.314	5.38
410.673	5.36
411.031	5.36
411.39	5.34
411.748	5.33
412.107	5.33
412.465	5.33
412.824	5.34
413.182	5.35
413.54	5.37
413.899	5.4
414.257	5.42
414.615	5.46
414.974	5.48
415.332	5.51
415.69	5.55
416.048	5.57
416.406	5.61
416.764	5.63
417.122	5.66
417.48	5.68
417.838	5.7
418.195	5.72
418.553	5.73
418.911	5.74
419.269	5.74
419.626	5.72
419.984	5.7
420.342	5.68
420.699	5.65
421.057	5.61
421.414	5.58
421.772	5.55
422.129	5.53
422.486	5.52
422.844	5.51
423.201	5.49
423.558	5.48
423.915	5.47
424.273	5.46
424.63	5.45
424.987	5.44
425.344	5.43
425.701	5.42
426.058	5.41
426.415	5.4
426.772	5.39
427.128	5.37
427.485	5.34
427.842	5.32
428.199	5.29
428.555	5.26
428.912	5.22
429.269	5.18
429.625	5.14
429.982	5.1
430.338	5.06
430.695	5.02
431.051	4.98
431.407	4.95
431.764	4.92
432.12	4.89
432.476	4.87
432.832	4.85
433.189	4.85
433.545	4.85
433.901	4.86
434.257	4.88
434.613	4.91
434.969	4.93
435.325	4.97
435.681	5.01
436.036	5.03
436.392	5.05
436.748	5.07
437.104	5.08
437.459	5.1
437.815	5.12
438.171	5.15
438.526	5.17
438.882	5.2
439.237	5.25
439.593	5.29
439.948	5.32
440.304	5.36
440.659	5.39
441.014	5.41
441.369	5.44
441.725	5.46
442.08	5.48
442.435	5.49
442.79	5.49
443.145	5.5
443.5	5.49
443.855	5.49
444.21	5.49
444.565	5.48
444.92	5.46
445.275	5.45
445.629	5.44
445.984	5.42
446.339	5.4
446.693	5.39
447.048	5.36
447.403	5.34
447.757	5.3
448.112	5.28
448.466	5.24
448.82	5.21
449.175	5.18
449.529	5.15
449.883	5.11
450.238	5.08
450.592	5.07
450.946	5.05
451.3	5.04
451.654	5.05
452.008	5.04
452.362	5.04
452.716	5.04
453.07	5.03
453.424	5.02
453.778	5.01
454.132	4.99
454.486	4.97
454.839	4.95
455.193	4.92
455.547	4.91
455.9	4.87
456.254	4.85
456.607	4.81
456.961	4.78
457.314	4.75
457.668	4.74
458.021	4.73
458.375	4.73
458.728	4.73
459.081	4.73
459.434	4.74
459.787	4.76
460.141	4.77
460.494	4.78
460.847	4.79
461.2	4.8
461.553	4.81
461.906	4.82
462.259	4.83
462.611	4.84
462.964	4.85
463.317	4.86
463.67	4.87
464.022	4.89
464.375	4.9
464.728	4.91
465.08	4.92
465.433	4.93
465.785	4.93
466.138	4.92
466.49	4.91
466.843	4.9
467.195	4.88
467.547	4.86
467.899	4.85
468.252	4.82
468.604	4.8
468.956	4.79
469.308	4.77
469.66	4.78
470.012	4.78
470.364	4.8
470.716	4.81
471.068	4.84
471.42	4.87
471.772	4.9
472.123	4.92
472.475	4.94
472.827	4.95
473.178	4.97
473.53	4.98
473.882	5.01
474.233	5.04
474.585	5.08
474.936	5.16
475.288	5.27
475.639	5.41
475.99	5.57
476.342	5.75
476.693	5.95
477.044	6.14
477.395	6.35
477.746	6.56
478.097	6.76
478.448	6.98
478.8	7.18
479.15	7.37
479.501	7.54
479.852	7.7
480.203	7.85
480.554	8
480.905	8.13
481.255	8.26
481.606	8.38
481.957	8.5
482.307	8.61
482.658	8.72
483.009	8.82
483.359	8.92
483.709	9.02
484.06	9.11
484.41	9.19
484.761	9.28
485.111	9.36
485.461	9.44
485.811	9.51
486.162	9.58
486.512	9.64
486.862	9.68
487.212	9.72
487.562	9.74
487.912	9.75
488.262	9.76
488.612	9.75
488.961	9.73
489.311	9.68
489.661	9.6
490.011	9.5
490.36	9.38
490.71	9.24
491.06	9.09
491.409	8.92
491.759	8.75
492.108	8.58
492.458	8.39
492.807	8.2
493.157	8.02
493.506	7.85
493.855	7.68
494.204	7.53
494.554	7.38
494.903	7.25
495.252	7.12
495.601	7.01
495.95	6.89
496.299	6.78
496.648	6.69
496.997	6.6
497.346	6.52
497.695	6.44
498.043	6.37
498.392	6.3
498.741	6.24
499.09	6.18
499.438	6.13
499.787	6.09
500.135	6.05
500.484	6.02
500.832	6.01
501.181	6.02
501.529	6.04
501.878	6.07
502.226	6.12
502.574	6.17
502.923	6.22
503.271	6.28
503.619	6.35
503.967	6.41
504.315	6.47
504.663	6.53
505.011	6.6
505.359	6.67
505.707	6.74
506.055	6.82
506.403	6.89
506.751	6.98
507.098	7.06
507.446	7.15
507.794	7.24
508.141	7.34
508.489	7.45
508.837	7.56
509.184	7.67
509.531	7.79
509.879	7.91
510.226	8.04
510.574	8.18
510.921	8.32
511.268	8.47
511.616	8.62
511.963	8.78
512.31	8.94
512.657	9.09
513.004	9.25
513.351	9.41
513.698	9.55
514.045	9.68
514.392	9.81
514.739	9.92
515.086	10.03
515.432	10.14
515.779	10.25
516.126	10.37
516.473	10.49
516.819	10.63
517.166	10.78
517.512	10.95
517.859	11.13
518.205	11.33
518.552	11.54
518.898	11.78
519.245	12.04
519.591	12.37
519.937	12.75
520.283	13.19
520.629	13.67
520.976	14.18
521.322	14.72
521.668	15.26
522.014	15.82
522.36	16.37
522.706	16.92
523.052	17.44
523.398	17.94
523.743	18.4
524.089	18.82
524.435	19.21
524.781	19.58
525.126	19.95
525.472	20.31
525.817	20.67
526.163	21.01
526.509	21.34
526.854	21.69
527.199	22.02
527.545	22.35
527.89	22.69
528.235	23.03
528.581	23.36
528.926	23.67
529.271	23.96
529.616	24.23
529.961	24.5
530.306	24.76
530.651	25
530.996	25.22
531.341	25.41
531.686	25.59
532.031	25.76
532.376	25.94
532.721	26.14
533.065	26.36
533.41	26.59
533.755	26.8
534.099	26.98
534.444	27.12
534.788	27.25
535.133	27.36
535.477	27.45
535.822	27.51
536.166	27.55
536.51	27.54
536.855	27.49
537.199	27.42
537.543	27.35
537.887	27.3
538.231	27.28
538.576	27.27
538.92	27.25
539.264	27.22
539.608	27.18
539.951	27.13
540.295	27.06
540.639	27
540.983	26.91
541.327	26.81
541.671	26.7
542.014	26.61
542.358	26.53
542.701	26.52
543.045	26.56
543.389	26.62
543.732	26.71
544.075	26.8
544.419	26.91
544.762	27.02
545.105	27.16
545.449	27.3
545.792	27.45
546.135	27.6
546.478	27.72
546.821	27.8
547.165	27.84
547.508	27.83
547.851	27.79
548.194	27.72
548.536	27.61
548.879	27.47
549.222	27.32
549.565	27.17
549.908	27.02
550.25	26.9
550.593	26.82
550.936	26.79
551.278	26.8
551.621	26.86
551.963	26.92
552.306	27
552.648	27.11
552.991	27.25
553.333	27.4
553.675	27.58
554.017	27.79
554.36	28
554.702	28.25
555.044	28.52
555.386	28.83
555.728	29.19
556.07	29.49
556.412	29.81
556.754	30.06
557.096	30.27
557.438	30.48
557.78	30.69
558.121	30.91
558.463	31.13
558.805	31.34
559.147	31.55
559.488	31.76
559.83	31.97
560.171	32.18
560.513	32.39
560.854	32.59
561.196	32.79
561.537	32.99
561.878	33.18
562.22	33.36
562.561	33.55
562.902	33.73
563.243	33.92
563.584	34.1
563.925	34.29
564.266	34.47
564.607	34.65
564.948	34.84
565.289	35
565.63	35.17
565.971	35.35
566.312	35.52
566.653	35.69
566.993	35.85
567.334	36.02
567.675	36.17
568.015	36.31
568.356	36.46
568.696	36.61
569.037	36.75
569.377	36.89
569.718	37.02
570.058	37.15
570.398	37.27
570.739	37.39
571.079	37.5
571.419	37.61
571.759	37.72
572.099	37.83
572.439	37.93
572.779	38.03
573.119	38.14
573.459	38.24
573.799	38.35
574.139	38.44
574.479	38.54
574.819	38.64
575.158	38.73
575.498	38.82
575.838	38.92
576.177	39.02
576.517	39.11
576.856	39.2
577.196	39.28
577.535	39.36
577.875	39.44
578.214	39.52
578.553	39.6
578.893	39.68
579.232	39.76
579.571	39.84
579.91	39.92
580.25	40
580.589	40.07
580.928	40.14
581.267	40.22
581.606	40.29
581.945	40.37
582.283	40.45
582.622	40.52
582.961	40.6
583.3	40.67
583.639	40.75
583.977	40.82
584.316	40.91
584.654	40.98
584.993	41.06
585.332	41.13
585.67	41.21
586.008	41.27
586.347	41.35
586.685	41.43
587.024	41.5
587.362	41.57
587.7	41.63
588.038	41.7
588.376	41.77
588.715	41.85
589.053	41.93
589.391	42.01
589.729	42.08
590.067	42.15
590.404	42.23
590.742	42.3
591.08	42.36
591.418	42.43
591.756	42.49
592.093	42.55
592.431	42.61
592.769	42.67
593.106	42.72
593.444	42.77
593.781	42.82
594.119	42.86
594.456	42.91
594.793	42.97
595.131	43.02
595.468	43.06
595.805	43.12
596.143	43.17
596.48	43.23
596.817	43.28
597.154	43.34
597.491	43.4
597.828	43.46
598.165	43.52
598.502	43.58
598.839	43.63
599.176	43.68
599.512	43.72
599.849	43.77
600.186	43.81
600.523	43.85
600.859	43.89
601.196	43.93
601.532	43.97
601.869	44.01
602.205	44.05
602.542	44.08
602.878	44.11
603.215	44.15
603.551	44.17
603.887	44.2
604.223	44.23
604.56	44.26
604.896	44.29
605.232	44.32
605.568	44.35
605.904	44.36
606.24	44.39
606.576	44.41
606.912	44.43
607.248	44.46
607.583	44.49
607.919	44.51
608.255	44.53
608.591	44.55
608.926	44.57
609.262	44.59
609.597	44.62
609.933	44.63
610.268	44.65
610.604	44.67
610.939	44.69
611.275	44.71
611.61	44.71
611.945	44.71
612.281	44.72
612.616	44.73
612.951	44.74
613.286	44.76
613.621	44.78
613.956	44.8
614.291	44.82
614.626	44.83
614.961	44.85
615.296	44.86
615.631	44.87
615.966	44.9
616.3	44.91
616.635	44.93
616.97	44.94
617.304	44.96
617.639	44.98
617.973	44.99
618.308	45.02
618.642	45.04
618.977	45.06
619.311	45.09
619.646	45.12
619.98	45.14
620.314	45.17
620.648	45.19
620.983	45.22
621.317	45.25
621.651	45.28
621.985	45.3
622.319	45.32
622.653	45.33
622.987	45.35
623.321	45.36
623.655	45.39
623.988	45.4
624.322	45.41
624.656	45.42
624.99	45.44
625.323	45.47
625.657	45.49
625.99	45.5
626.324	45.51
626.657	45.54
626.991	45.56
627.324	45.57
627.658	45.58
627.991	45.59
628.324	45.61
628.657	45.63
628.991	45.65
629.324	45.67
629.657	45.68
629.99	45.69
630.323	45.7
630.656	45.73
630.989	45.75
631.322	45.75
631.655	45.76
631.987	45.77
632.32	45.78
632.653	45.79
632.986	45.81
633.318	45.82
633.651	45.83
633.984	45.83
634.316	45.85
634.649	45.86
634.981	45.86
635.313	45.87
635.646	45.89
635.978	45.91
636.31	45.93
636.643	45.94
636.975	45.96
637.307	45.96
637.639	45.99
637.971	45.99
638.303	46.01
638.635	46.03
638.967	46.03
639.299	46.04
639.631	46.07
639.963	46.09
640.295	46.1
640.626	46.1
640.958	46.13
641.29	46.16
641.621	46.19
641.953	46.2
642.285	46.21
642.616	46.24
642.948	46.25
643.279	46.26
643.61	46.28
643.942	46.29
644.273	46.29
644.604	46.31
644.936	46.34
645.267	46.35
645.598	46.36
645.929	46.37
646.26	46.39
646.591	46.4
646.922	46.41
647.253	46.43
647.584	46.45
647.915	46.46
648.245	46.48
648.576	46.5
648.907	46.51
649.238	46.52
649.568	46.52
649.899	46.55
650.229	46.58
650.56	46.59
650.89	46.6
651.221	46.62
651.551	46.64
651.882	46.65
652.212	46.66
652.542	46.66
652.872	46.67
653.203	46.67
653.533	46.67
653.863	46.67
654.193	46.69
654.523	46.68
654.853	46.69
655.183	46.69
655.513	46.69
655.843	46.7
656.172	46.71
656.502	46.72
656.832	46.73
657.162	46.73
657.491	46.74
657.821	46.75
658.15	46.75
658.48	46.77
658.809	46.78
659.139	46.8
659.468	46.81
659.798	46.82
660.127	46.83
660.456	46.84
660.785	46.84
661.115	46.85
661.444	46.86
661.773	46.86
662.102	46.88
662.431	46.88
662.76	46.89
663.089	46.91
663.418	46.91
663.747	46.92
664.076	46.95
664.404	46.96
664.733	46.96
665.062	46.97
665.39	46.99
665.719	47.02
666.048	47.04
666.376	47.07
666.705	47.08
667.033	47.11
667.362	47.15
667.69	47.15
668.018	47.18
668.347	47.18
668.675	47.18
669.003	47.2
669.331	47.22
669.659	47.22
669.987	47.24
670.315	47.26
670.643	47.29
670.971	47.31
671.299	47.32
671.627	47.33
671.955	47.33
672.283	47.34
672.61	47.35
672.938	47.35
673.266	47.36
673.593	47.35
673.921	47.35
674.249	47.37
674.576	47.39
674.904	47.39
675.231	47.4
675.558	47.39
675.886	47.38
676.213	47.37
676.54	47.37
676.867	47.38
677.195	47.37
677.522	47.37
677.849	47.38
678.176	47.39
678.503	47.41
678.83	47.4
679.157	47.39
679.484	47.38
679.81	47.37
680.137	47.4
680.464	47.38
680.791	47.37
681.117	47.39
681.444	47.39
681.771	47.39
682.097	47.4
682.424	47.39
682.75	47.38
683.077	47.39
683.403	47.39
683.729	47.39
684.056	47.39
684.382	47.4
684.708	47.39
685.034	47.41
685.36	47.42
685.686	47.43
686.012	47.43
686.339	47.44
686.664	47.45
686.99	47.47
687.316	47.49
687.642	47.51
687.968	47.51
688.294	47.52
688.619	47.53
688.945	47.54
689.271	47.58
689.596	47.6
689.922	47.61
690.247	47.62
690.573	47.62
690.898	47.63
691.224	47.66
691.549	47.64
691.874	47.63
692.2	47.65
692.525	47.66
692.85	47.68
693.175	47.72
693.5	47.71
693.825	47.73
694.15	47.73
694.475	47.74
694.8	47.74
695.125	47.77
695.45	47.77
695.775	47.79
696.099	47.82
696.424	47.82
696.749	47.83
697.073	47.83
697.398	47.85
697.723	47.87
698.047	47.89
698.372	47.88
698.696	47.89
699.02	47.9
699.345	47.91
699.669	47.93
699.993	47.95
700.318	47.95
700.642	47.95
700.966	47.95
701.29	47.97
701.614	47.99
701.938	48.01
702.262	48.04
702.586	48.04
702.91	48.05
703.234	48.05
703.557	48.06
703.881	48.09
704.205	48.08
704.529	48.08
704.852	48.12
705.176	48.15
705.499	48.17
705.823	48.19
706.146	48.2
706.47	48.21
706.793	48.25
707.117	48.27
707.44	48.31
707.763	48.33
708.086	48.35
708.409	48.36
708.733	48.4
709.056	48.43
709.379	48.42
709.702	48.43
710.025	48.44
710.348	48.46
710.671	48.45
710.993	48.46
711.316	48.48
711.639	48.5
711.962	48.5
712.284	48.49
712.607	48.48
712.93	48.46
713.252	48.45
713.575	48.46
713.897	48.48
714.22	48.47
714.542	48.48
714.864	48.47
715.187	48.44
715.509	48.41
715.831	48.42
716.153	48.43
716.475	48.44
716.798	48.46
717.12	48.44
717.442	48.47
717.764	48.46
718.085	48.47
718.407	48.47
718.729	48.47
719.051	48.47
719.373	48.49
719.695	48.5
720.016	48.49
720.338	48.48
720.659	48.47
720.981	48.47
721.302	48.47
721.624	48.46
721.945	48.42
722.267	48.43
722.588	48.45
722.909	48.46
723.231	48.47
723.552	48.47
723.873	48.5
724.194	48.51
724.515	48.5
724.836	48.47
725.157	48.48
725.478	48.49
725.799	48.5
726.12	48.51
726.441	48.52
726.762	48.55
727.083	48.56
727.403	48.55
727.724	48.54
728.045	48.54
728.365	48.58
728.686	48.58
729.006	48.6
729.327	48.6
729.647	48.61
729.967	48.61
730.288	48.64
730.608	48.65
730.928	48.66
731.249	48.66
731.569	48.64
731.889	48.64
732.209	48.66
732.529	48.65
732.849	48.65
733.169	48.65
733.489	48.71
733.809	48.73
734.129	48.71
734.448	48.71
734.768	48.71
735.088	48.75
735.408	48.75
735.727	48.75
736.047	48.76
736.366	48.78
736.686	48.78
737.005	48.77
737.325	48.75
737.644	48.76
737.963	48.77
738.283	48.76
738.602	48.77
738.921	48.8
739.24	48.84
739.56	48.86
739.879	48.84
740.198	48.81
740.517	48.85
740.836	48.88
741.155	48.89
741.473	48.86
741.792	48.87
742.111	48.88
742.43	48.87
742.748	48.86
743.067	48.87
743.386	48.89
743.704	48.9
744.023	48.92
744.341	48.92
744.66	48.96
744.978	48.96
745.297	48.96
745.615	48.98
745.933	48.97
746.252	48.98
746.57	48.96
746.888	48.99
747.206	49.01
747.524	49.03
747.842	49.03
748.16	49.04
748.478	49.03
748.796	49.01
749.114	49
749.432	49
749.749	49
750.067	49
750.385	49
750.703	48.99
751.02	48.99
751.338	48.98
751.655	49.01
751.973	48.98
752.29	48.97
752.608	48.96
752.925	49
753.242	49.04
753.56	49.01
753.877	49.02
754.194	49.04
754.511	49.06
754.828	49.06
755.145	49.05
755.462	49.05
755.779	49.07
756.096	49.08
756.413	49.05
756.73	49.03
757.047	49
757.364	49.01
757.68	48.99
757.997	49.01
758.314	49.02
758.63	48.99
758.947	49.01
759.264	49
759.58	48.96
759.896	48.93
760.213	48.94
760.529	48.95
760.846	48.97
761.162	48.98
761.478	49.01
761.794	49.04
762.11	49.06
762.426	49.06
762.743	49.06
763.059	49.05
763.375	49.07
763.69	49.08
764.006	49.13
764.322	49.14
764.638	49.12
764.954	49.15
765.27	49.16
765.585	49.17
765.901	49.18
766.216	49.17
766.532	49.17
766.848	49.14
767.163	49.17
767.478	49.18
767.794	49.19
768.109	49.19
768.424	49.19
768.74	49.19
769.055	49.18
769.37	49.18
769.685	49.2
770	49.22
770.315	49.21
770.63	49.23
770.945	49.21
771.26	49.2
771.575	49.21
771.89	49.24
772.205	49.26
772.52	49.28
772.834	49.31
773.149	49.32
773.464	49.3
773.778	49.32
774.093	49.33
774.407	49.29
774.722	49.28
775.036	49.27
775.351	49.28
775.665	49.29
775.979	49.31
776.293	49.26
776.608	49.27
776.922	49.28
777.236	49.27
777.55	49.29
777.864	49.27
778.178	49.24
778.492	49.25
778.806	49.22
779.12	49.24
779.434	49.26
779.747	49.28
780.061	49.28
780.375	49.28
780.689	49.34
781.002	49.29
781.316	49.33
781.629	49.33
781.943	49.37
782.256	49.41
782.57	49.36
782.883	49.39
783.196	49.4
783.51	49.45
783.823	49.44
784.136	49.46
784.449	49.45
784.762	49.43
785.075	49.4
785.388	49.39
785.701	49.38
786.014	49.4
786.327	49.43
786.64	49.36
786.953	49.38
787.266	49.41
787.578	49.44
787.891	49.44
788.204	49.45
788.516	49.45
788.829	49.46
789.141	49.51
789.454	49.48
789.766	49.45
790.079	49.49
790.391	49.43
790.703	49.44
791.016	49.47
791.328	49.45
791.64	49.45
791.952	49.39
792.264	49.39
792.576	49.38
792.888	49.37
793.2	49.38
793.512	49.31
793.824	49.33
794.136	49.31
794.448	49.31
794.76	49.31
795.071	49.31
795.383	49.33
795.695	49.3
796.006	49.29
796.318	49.2
796.629	49.24
796.941	49.21
797.252	49.21
797.564	49.17
797.875	49.19
798.186	49.19
798.497	49.2
798.809	49.17
799.12	49.16
799.431	49.22
799.742	49.15
800.053	49.1
800.364	49.11
800.675	49.12
800.986	49.08
801.297	49.09
801.608	49.1
801.918	49.14
802.229	49.18
802.54	49.16
802.851	49.19
803.161	49.22
803.472	49.24
803.782	49.22
804.093	49.19
804.403	49.16
804.714	49.21
805.024	49.21
805.334	49.17
805.645	49.17
805.955	49.14
806.265	49.19
806.575	49.18
806.885	49.15
807.195	49.16
807.505	49.14
807.815	49.08
808.125	49.11
808.435	49.12
808.745	49.08
809.055	49.14
809.365	49.09
809.674	49.1
809.984	49.13
810.294	49.09
810.603	49.15
810.913	49.19
811.222	49.17
811.532	49.09
811.841	49.07
812.151	49.11
812.46	49.14
812.769	49.13
813.079	49.14
813.388	49.11
813.697	49.17
814.006	49.14
814.315	49.08
814.624	49.08
814.933	49.11
815.242	49.1
815.551	49.03
815.86	49
816.169	49.06
816.478	49.05
816.786	49.05
817.095	49.1
817.404	49.04
817.712	49.03
818.021	49.06
818.33	49.04
818.638	49.04
818.947	49.04
819.255	49.05
819.563	49.09
819.872	49.07
820.18	49.07
820.488	49.1
820.796	49.1
821.105	49.09
821.413	49.11
821.721	49.1
822.029	49.14
822.337	49.13
822.645	49.14
822.953	49.17
823.26	49.16
823.568	49.17
823.876	49.18
824.184	49.22
824.491	49.23
824.799	49.22
825.107	49.21
825.414	49.22
825.722	49.2
826.029	49.22
826.337	49.23
826.644	49.22
826.951	49.25
827.259	49.23
827.566	49.19
827.873	49.19
828.18	49.2
828.488	49.21
828.795	49.18
829.102	49.18
829.409	49.19
829.716	49.19
830.023	49.23
830.329	49.22
830.636	49.23
830.943	49.24
831.25	49.27
831.557	49.29
831.863	49.3
832.17	49.28
832.476	49.28
832.783	49.25
833.089	49.22
833.396	49.22
833.702	49.22
834.009	49.24
834.315	49.25
834.621	49.25
834.928	49.31
835.234	49.26
835.54	49.28
835.846	49.25
836.152	49.23
836.458	49.22
836.764	49.22
837.07	49.26
837.376	49.22
837.682	49.23
837.988	49.21
838.293	49.21
838.599	49.17
838.905	49.11
839.211	49.14
839.516	49.1
839.822	49.16
840.127	49.26
840.433	49.24
840.738	49.32
841.044	49.35
841.349	49.38
841.654	49.38
841.959	49.41
842.265	49.43
842.57	49.43
842.875	49.48
843.18	49.45
843.485	49.48
843.79	49.49
844.095	49.42
844.4	49.44
844.705	49.61
845.01	49.69
845.315	49.79
845.619	49.84
845.924	49.82
846.229	49.78
846.533	49.73
846.838	49.89
847.142	49.84
847.447	49.9
847.751	49.98
848.056	49.97
848.36	50.09
848.664	50.03
848.969	50.09
849.273	50.15
849.577	50.16
849.881	50.2
850.185	50.22
850.489	50.24
850.794	50.37
851.097	50.36
851.401	50.36
851.705	50.37
852.009	50.5
852.313	50.5
852.617	50.45
852.92	50.54
853.224	50.34
853.528	50.3
853.831	50.38
854.135	50.53
854.438	50.5
854.742	50.37
855.045	50.32
855.349	50.46
855.652	50.56
855.955	50.56
856.259	50.63
856.562	50.65
856.865	50.81
857.168	50.69
857.471	50.78
857.774	50.78
858.077	50.85
858.38	50.99
858.683	51.16
858.986	51.13
859.289	51.07
859.592	51.11
859.894	51
860.197	50.87
860.5	50.92
860.802	50.91
861.105	51.12
861.407	51.04
861.71	50.87
862.012	50.76
862.315	50.76
862.617	50.76
862.919	50.96
863.222	50.95
863.524	50.98
863.826	51.1
864.128	50.98
864.43	50.9
864.732	50.77
865.034	50.61
865.336	50.49
865.638	50.56
865.94	50.62
866.242	50.5
866.544	50.43
866.846	50.68
867.147	50.8
867.449	51.01
867.751	50.89
868.052	50.93
868.354	50.81
868.655	50.8
868.957	50.78
869.258	50.76
869.56	50.76
869.861	50.6
870.162	50.6
870.463	50.58
870.765	50.6
871.066	50.55
871.367	50.65
871.668	50.58
871.969	50.49
872.27	50.41
872.571	50.45
872.872	50.4
873.173	50.37
873.473	50.31
873.774	50.31
874.075	50.45
874.376	50.54
874.676	50.58
874.977	50.64
875.277	50.55
875.578	50.51
875.878	50.49
876.179	50.47
876.479	50.67
876.78	50.65
877.08	50.71
877.38	50.95
877.68	51.16
877.981	51.15
878.281	51.21
878.581	51.32
