Data from UWBM79812_Reflection_00001.txt Node
Date: Sun May 02 13:56:47 EDT 2021
User: vgr7
Spectrometer: USB2G7710
Scans to average: 10
Trigger mode: 4
Integration Time (sec): 1.000000E-1
Electric dark correction enabled: true
Boxcar width: 20
XAxis mode: Wavelengths
Number of Pixels in Spectrum: 2048
>>>>>Begin Spectral Data<<<<<
177.721	64.16
178.105	96.79
178.488	155.19
178.871	168.8
179.254	117.88
179.636	102.56
180.019	69.43
180.402	66.04
180.785	54.49
181.168	49.76
181.55	48.86
181.933	42.76
182.316	34.23
182.698	36.06
183.081	33.09
183.463	29.38
183.846	28.49
184.228	30.77
184.611	29.02
184.993	27.73
185.376	26.56
185.758	26.96
186.14	28.82
186.522	24.09
186.904	24.1
187.287	23.04
187.669	26.08
188.051	24.42
188.433	23.21
188.815	20.49
189.197	20.96
189.579	20.11
189.961	19.98
190.342	20.04
190.724	19.53
191.106	19.79
191.488	18.92
191.869	16.21
192.251	14.63
192.633	14.08
193.014	14.43
193.396	12.24
193.777	12.91
194.159	11.81
194.54	11.57
194.922	11.35
195.303	10.6
195.684	9.43
196.065	7.86
196.447	8.85
196.828	7.99
197.209	6.57
197.59	5.19
197.971	6.09
198.352	6.35
198.733	8.31
199.114	9.11
199.495	9.45
199.876	8.52
200.257	9.12
200.638	6.7
201.018	7.83
201.399	8.44
201.78	7.56
202.16	7.3
202.541	5.95
202.922	6.47
203.302	5.29
203.683	6.36
204.063	6.35
204.444	6.58
204.824	7.3
205.204	6.86
205.585	8.67
205.965	9.43
206.345	8.87
206.725	7.47
207.106	7.27
207.486	6.71
207.866	7.85
208.246	7
208.626	4.69
209.006	5.85
209.386	5.68
209.766	5.7
210.145	5.36
210.525	5.06
210.905	6.37
211.285	6.59
211.664	7.05
212.044	5.42
212.424	5.78
212.803	5.3
213.183	4.68
213.562	5.52
213.942	4.82
214.321	3.17
214.701	2.88
215.08	2.99
215.459	3.59
215.838	3.09
216.218	5.26
216.597	3.88
216.976	4.14
217.355	4.58
217.734	5.92
218.113	6.57
218.492	6.74
218.871	6.4
219.25	5.99
219.629	5.44
220.008	5.11
220.387	3.3
220.766	4
221.144	2.97
221.523	2.2
221.902	2.9
222.28	3.96
222.659	4.16
223.037	4.33
223.416	4.68
223.794	4.97
224.173	5.5
224.551	4.7
224.929	5.31
225.308	5.32
225.686	5.24
226.064	5.53
226.442	5.31
226.821	5.64
227.199	5.95
227.577	6.71
227.955	6.58
228.333	6.77
228.711	6.7
229.089	5.93
229.467	5.64
229.845	5.63
230.222	5.64
230.6	5.4
230.978	5.05
231.356	5.25
231.733	5
232.111	5.04
232.488	4.93
232.866	4.86
233.243	4.63
233.621	4.45
233.998	4.35
234.376	4.55
234.753	4.34
235.13	4.46
235.508	4.59
235.885	4.69
236.262	4.61
236.639	4.6
237.016	4.72
237.393	4.68
237.77	4.57
238.147	4.54
238.524	4.64
238.901	4.59
239.278	4.54
239.655	4.53
240.032	4.53
240.409	4.44
240.785	4.42
241.162	4.44
241.539	4.41
241.915	4.44
242.292	4.41
242.668	4.39
243.045	4.31
243.421	4.28
243.798	4.29
244.174	4.37
244.551	4.38
244.927	4.37
245.303	4.39
245.679	4.38
246.056	4.36
246.432	4.34
246.808	4.28
247.184	4.3
247.56	4.32
247.936	4.33
248.312	4.3
248.688	4.29
249.064	4.33
249.44	4.34
249.815	4.32
250.191	4.33
250.567	4.33
250.943	4.31
251.318	4.26
251.694	4.28
252.069	4.27
252.445	4.23
252.82	4.2
253.196	4.19
253.571	4.17
253.947	4.14
254.322	4.13
254.697	4.13
255.073	4.13
255.448	4.14
255.823	4.11
256.198	4.1
256.573	4.07
256.948	4.07
257.323	4.03
257.698	3.99
258.073	3.96
258.448	3.96
258.823	3.97
259.198	3.95
259.573	3.91
259.948	3.9
260.322	3.91
260.697	3.88
261.072	3.86
261.446	3.86
261.821	3.86
262.195	3.87
262.57	3.84
262.944	3.84
263.319	3.82
263.693	3.82
264.067	3.82
264.442	3.78
264.816	3.75
265.19	3.74
265.564	3.74
265.938	3.74
266.313	3.74
266.687	3.76
267.061	3.75
267.435	3.74
267.809	3.73
268.183	3.75
268.556	3.76
268.93	3.76
269.304	3.74
269.678	3.73
270.051	3.72
270.425	3.71
270.799	3.68
271.172	3.68
271.546	3.69
271.919	3.68
272.293	3.68
272.666	3.68
273.04	3.7
273.413	3.73
273.787	3.75
274.16	3.75
274.533	3.77
274.906	3.78
275.279	3.79
275.653	3.79
276.026	3.8
276.399	3.82
276.772	3.84
277.145	3.83
277.518	3.83
277.891	3.85
278.263	3.83
278.636	3.84
279.009	3.84
279.382	3.85
279.755	3.88
280.127	3.91
280.5	3.91
280.872	3.92
281.245	3.91
281.617	3.91
281.99	3.91
282.362	3.9
282.735	3.91
283.107	3.92
283.479	3.9
283.852	3.91
284.224	3.91
284.596	3.91
284.968	3.92
285.34	3.93
285.713	3.95
286.085	3.95
286.457	3.94
286.829	3.93
287.201	3.95
287.572	3.95
287.944	3.97
288.316	3.97
288.688	3.95
289.06	3.96
289.431	3.95
289.803	3.95
290.175	3.96
290.546	3.97
290.918	3.99
291.289	4
291.661	4
292.032	4
292.403	4.01
292.775	4.01
293.146	4.01
293.517	4.02
293.889	4.03
294.26	4.05
294.631	4.05
295.002	4.06
295.373	4.08
295.744	4.08
296.115	4.08
296.486	4.1
296.857	4.11
297.228	4.11
297.599	4.14
297.97	4.14
298.34	4.13
298.711	4.16
299.082	4.15
299.452	4.17
299.823	4.18
300.194	4.18
300.564	4.18
300.935	4.17
301.305	4.18
301.676	4.19
302.046	4.2
302.416	4.21
302.787	4.2
303.157	4.19
303.527	4.19
303.897	4.2
304.267	4.2
304.637	4.2
305.008	4.21
305.378	4.2
305.748	4.2
306.117	4.2
306.487	4.22
306.857	4.22
307.227	4.23
307.597	4.25
307.967	4.26
308.336	4.28
308.706	4.27
309.076	4.25
309.445	4.25
309.815	4.25
310.184	4.24
310.554	4.22
310.923	4.23
311.293	4.24
311.662	4.23
312.031	4.23
312.401	4.24
312.77	4.24
313.139	4.25
313.508	4.26
313.877	4.26
314.246	4.27
314.616	4.26
314.985	4.28
315.353	4.3
315.722	4.28
316.091	4.3
316.46	4.29
316.829	4.3
317.198	4.31
317.567	4.3
317.935	4.32
318.304	4.32
318.672	4.33
319.041	4.33
319.41	4.33
319.778	4.34
320.147	4.32
320.515	4.32
320.883	4.3
321.252	4.29
321.62	4.29
321.988	4.28
322.357	4.27
322.725	4.26
323.093	4.26
323.461	4.24
323.829	4.26
324.197	4.26
324.565	4.25
324.933	4.25
325.301	4.26
325.669	4.27
326.037	4.26
326.405	4.26
326.772	4.25
327.14	4.24
327.508	4.24
327.875	4.23
328.243	4.23
328.61	4.2
328.978	4.19
329.346	4.17
329.713	4.16
330.08	4.14
330.448	4.12
330.815	4.13
331.182	4.12
331.55	4.13
331.917	4.12
332.284	4.11
332.651	4.11
333.018	4.11
333.385	4.11
333.752	4.12
334.119	4.12
334.486	4.13
334.853	4.11
335.22	4.12
335.587	4.12
335.954	4.13
336.32	4.12
336.687	4.11
337.054	4.1
337.42	4.1
337.787	4.12
338.153	4.11
338.52	4.1
338.886	4.09
339.253	4.1
339.619	4.11
339.986	4.11
340.352	4.12
340.718	4.11
341.084	4.11
341.451	4.1
341.817	4.1
342.183	4.12
342.549	4.13
342.915	4.13
343.281	4.12
343.647	4.14
344.013	4.14
344.379	4.14
344.745	4.16
345.11	4.16
345.476	4.17
345.842	4.18
346.208	4.18
346.573	4.17
346.939	4.17
347.304	4.18
347.67	4.19
348.035	4.19
348.401	4.18
348.766	4.19
349.132	4.18
349.497	4.19
349.862	4.21
350.228	4.21
350.593	4.22
350.958	4.21
351.323	4.23
351.688	4.24
352.053	4.25
352.418	4.25
352.783	4.24
353.148	4.25
353.513	4.26
353.878	4.25
354.243	4.26
354.608	4.26
354.972	4.27
355.337	4.27
355.702	4.28
356.066	4.27
356.431	4.27
356.795	4.27
357.16	4.26
357.524	4.27
357.889	4.27
358.253	4.27
358.618	4.26
358.982	4.27
359.346	4.28
359.71	4.28
360.075	4.29
360.439	4.29
360.803	4.28
361.167	4.29
361.531	4.29
361.895	4.29
362.259	4.29
362.623	4.28
362.987	4.28
363.351	4.28
363.714	4.28
364.078	4.28
364.442	4.27
364.806	4.27
365.169	4.28
365.533	4.28
365.896	4.28
366.26	4.27
366.623	4.28
366.987	4.27
367.35	4.28
367.714	4.29
368.077	4.29
368.44	4.28
368.803	4.28
369.167	4.28
369.53	4.28
369.893	4.28
370.256	4.27
370.619	4.27
370.982	4.28
371.345	4.29
371.708	4.29
372.071	4.31
372.434	4.3
372.797	4.3
373.159	4.3
373.522	4.31
373.885	4.32
374.247	4.32
374.61	4.31
374.973	4.3
375.335	4.31
375.698	4.31
376.06	4.3
376.423	4.3
376.785	4.31
377.147	4.31
377.51	4.32
377.872	4.32
378.234	4.32
378.596	4.32
378.958	4.32
379.321	4.32
379.683	4.32
380.045	4.31
380.407	4.32
380.769	4.32
381.13	4.32
381.492	4.32
381.854	4.32
382.216	4.32
382.578	4.32
382.939	4.32
383.301	4.33
383.663	4.33
384.024	4.33
384.386	4.33
384.747	4.34
385.109	4.35
385.47	4.35
385.832	4.34
386.193	4.34
386.554	4.34
386.916	4.34
387.277	4.34
387.638	4.34
387.999	4.34
388.36	4.34
388.721	4.34
389.082	4.34
389.443	4.34
389.804	4.35
390.165	4.35
390.526	4.36
390.887	4.36
391.248	4.36
391.609	4.36
391.969	4.36
392.33	4.36
392.691	4.37
393.051	4.37
393.412	4.38
393.772	4.39
394.133	4.39
394.493	4.39
394.854	4.38
395.214	4.38
395.574	4.39
395.935	4.39
396.295	4.4
396.655	4.4
397.015	4.4
397.376	4.4
397.736	4.4
398.096	4.4
398.456	4.41
398.816	4.41
399.176	4.42
399.535	4.42
399.895	4.42
400.255	4.42
400.615	4.43
400.975	4.43
401.334	4.43
401.694	4.43
402.054	4.44
402.413	4.44
402.773	4.44
403.132	4.44
403.492	4.45
403.851	4.45
404.211	4.46
404.57	4.46
404.929	4.46
405.288	4.46
405.648	4.47
406.007	4.47
406.366	4.48
406.725	4.48
407.084	4.48
407.443	4.49
407.802	4.49
408.161	4.49
408.52	4.49
408.879	4.5
409.238	4.51
409.596	4.52
409.955	4.52
410.314	4.52
410.673	4.53
411.031	4.54
411.39	4.55
411.748	4.55
412.107	4.57
412.465	4.59
412.824	4.61
413.182	4.64
413.54	4.67
413.899	4.71
414.257	4.74
414.615	4.8
414.974	4.84
415.332	4.88
415.69	4.93
416.048	4.97
416.406	5.02
416.764	5.06
417.122	5.1
417.48	5.14
417.838	5.18
418.195	5.21
418.553	5.24
418.911	5.26
419.269	5.27
419.626	5.26
419.984	5.26
420.342	5.25
420.699	5.23
421.057	5.21
421.414	5.19
421.772	5.18
422.129	5.17
422.486	5.17
422.844	5.17
423.201	5.17
423.558	5.17
423.915	5.17
424.273	5.17
424.63	5.17
424.987	5.18
425.344	5.18
425.701	5.18
426.058	5.18
426.415	5.19
426.772	5.19
427.128	5.18
427.485	5.17
427.842	5.16
428.199	5.15
428.555	5.13
428.912	5.11
429.269	5.08
429.625	5.05
429.982	5.02
430.338	4.99
430.695	4.96
431.051	4.92
431.407	4.9
431.764	4.88
432.12	4.86
432.476	4.84
432.832	4.83
433.189	4.84
433.545	4.84
433.901	4.86
434.257	4.89
434.613	4.92
434.969	4.95
435.325	4.99
435.681	5.04
436.036	5.06
436.392	5.09
436.748	5.11
437.104	5.12
437.459	5.14
437.815	5.17
438.171	5.2
438.526	5.23
438.882	5.26
439.237	5.31
439.593	5.36
439.948	5.4
440.304	5.45
440.659	5.48
441.014	5.5
441.369	5.54
441.725	5.56
442.08	5.58
442.435	5.6
442.79	5.61
443.145	5.62
443.5	5.62
443.855	5.62
444.21	5.62
444.565	5.62
444.92	5.61
445.275	5.61
445.629	5.6
445.984	5.59
446.339	5.58
446.693	5.56
447.048	5.55
447.403	5.53
447.757	5.51
448.112	5.49
448.466	5.46
448.82	5.43
449.175	5.41
449.529	5.39
449.883	5.36
450.238	5.34
450.592	5.34
450.946	5.33
451.3	5.33
451.654	5.34
452.008	5.34
452.362	5.35
452.716	5.35
453.07	5.36
453.424	5.35
453.778	5.35
454.132	5.34
454.486	5.33
454.839	5.31
455.193	5.28
455.547	5.27
455.9	5.23
456.254	5.21
456.607	5.18
456.961	5.14
457.314	5.12
457.668	5.11
458.021	5.1
458.375	5.1
458.728	5.1
459.081	5.1
459.434	5.11
459.787	5.12
460.141	5.13
460.494	5.14
460.847	5.15
461.2	5.15
461.553	5.16
461.906	5.16
462.259	5.17
462.611	5.17
462.964	5.18
463.317	5.18
463.67	5.19
464.022	5.2
464.375	5.21
464.728	5.21
465.08	5.21
465.433	5.21
465.785	5.2
466.138	5.19
466.49	5.16
466.843	5.14
467.195	5.11
467.547	5.08
467.899	5.05
468.252	5.02
468.604	4.98
468.956	4.96
469.308	4.93
469.66	4.93
470.012	4.92
470.364	4.93
470.716	4.93
471.068	4.95
471.42	4.97
471.772	5
472.123	5.01
472.475	5.02
472.827	5.04
473.178	5.05
473.53	5.06
473.882	5.08
474.233	5.11
474.585	5.16
474.936	5.24
475.288	5.35
475.639	5.49
475.99	5.66
476.342	5.84
476.693	6.05
477.044	6.25
477.395	6.46
477.746	6.68
478.097	6.9
478.448	7.12
478.8	7.33
479.15	7.53
479.501	7.72
479.852	7.89
480.203	8.05
480.554	8.21
480.905	8.35
481.255	8.49
481.606	8.63
481.957	8.76
482.307	8.88
482.658	9
483.009	9.11
483.359	9.22
483.709	9.33
484.06	9.43
484.41	9.53
484.761	9.62
485.111	9.71
485.461	9.8
485.811	9.88
486.162	9.96
486.512	10.02
486.862	10.08
487.212	10.11
487.562	10.13
487.912	10.15
488.262	10.15
488.612	10.14
488.961	10.12
489.311	10.07
489.661	9.98
490.011	9.86
490.36	9.73
490.71	9.57
491.06	9.41
491.409	9.23
491.759	9.04
492.108	8.85
492.458	8.65
492.807	8.44
493.157	8.24
493.506	8.04
493.855	7.85
494.204	7.68
494.554	7.51
494.903	7.35
495.252	7.2
495.601	7.05
495.95	6.9
496.299	6.77
496.648	6.64
496.997	6.52
497.346	6.4
497.695	6.29
498.043	6.18
498.392	6.07
498.741	5.97
499.09	5.87
499.438	5.78
499.787	5.69
500.135	5.6
500.484	5.52
500.832	5.46
501.181	5.41
501.529	5.37
501.878	5.35
502.226	5.34
502.574	5.33
502.923	5.33
503.271	5.32
503.619	5.32
503.967	5.32
504.315	5.31
504.663	5.3
505.011	5.29
505.359	5.29
505.707	5.28
506.055	5.27
506.403	5.27
506.751	5.27
507.098	5.27
507.446	5.27
507.794	5.28
508.141	5.29
508.489	5.3
508.837	5.32
509.184	5.33
509.531	5.35
509.879	5.36
510.226	5.38
510.574	5.4
510.921	5.42
511.268	5.44
511.616	5.46
511.963	5.48
512.31	5.51
512.657	5.54
513.004	5.56
513.351	5.58
513.698	5.6
514.045	5.61
514.392	5.61
514.739	5.61
515.086	5.61
515.432	5.6
515.779	5.6
516.126	5.59
516.473	5.59
516.819	5.59
517.166	5.6
517.512	5.61
517.859	5.62
518.205	5.65
518.552	5.68
518.898	5.71
519.245	5.76
519.591	5.83
519.937	5.92
520.283	6.04
520.629	6.16
520.976	6.3
521.322	6.44
521.668	6.59
522.014	6.75
522.36	6.9
522.706	7.05
523.052	7.19
523.398	7.31
523.743	7.43
524.089	7.53
524.435	7.61
524.781	7.68
525.126	7.75
525.472	7.82
525.817	7.88
526.163	7.94
526.509	8
526.854	8.06
527.199	8.11
527.545	8.17
527.89	8.23
528.235	8.29
528.581	8.34
528.926	8.4
529.271	8.45
529.616	8.49
529.961	8.53
530.306	8.57
530.651	8.6
530.996	8.62
531.341	8.63
531.686	8.64
532.031	8.64
532.376	8.64
532.721	8.65
533.065	8.65
533.41	8.66
533.755	8.66
534.099	8.64
534.444	8.6
534.788	8.56
535.133	8.51
535.477	8.46
535.822	8.39
536.166	8.32
536.51	8.24
536.855	8.14
537.199	8.05
537.543	7.95
537.887	7.87
538.231	7.79
538.576	7.73
538.92	7.66
539.264	7.6
539.608	7.53
539.951	7.45
540.295	7.37
540.639	7.29
540.983	7.21
541.327	7.13
541.671	7.04
542.014	6.96
542.358	6.89
542.701	6.84
543.045	6.8
543.389	6.76
543.732	6.74
544.075	6.72
544.419	6.69
544.762	6.67
545.105	6.66
545.449	6.65
545.792	6.64
546.135	6.63
546.478	6.61
546.821	6.59
547.165	6.55
547.508	6.5
547.851	6.44
548.194	6.37
548.536	6.29
548.879	6.21
549.222	6.12
549.565	6.03
549.908	5.95
550.25	5.86
550.593	5.79
550.936	5.74
551.278	5.69
551.621	5.65
551.963	5.62
552.306	5.59
552.648	5.56
552.991	5.54
553.333	5.52
553.675	5.51
554.017	5.51
554.36	5.51
554.702	5.52
555.044	5.52
555.386	5.54
555.728	5.57
556.07	5.58
556.412	5.61
556.754	5.62
557.096	5.62
557.438	5.62
557.78	5.63
558.121	5.63
558.463	5.63
558.805	5.64
559.147	5.64
559.488	5.64
559.83	5.65
560.171	5.65
560.513	5.65
560.854	5.65
561.196	5.66
561.537	5.66
561.878	5.66
562.22	5.66
562.561	5.66
562.902	5.66
563.243	5.66
563.584	5.66
563.925	5.67
564.266	5.67
564.607	5.68
564.948	5.68
565.289	5.68
565.63	5.68
565.971	5.69
566.312	5.69
566.653	5.7
566.993	5.7
567.334	5.7
567.675	5.7
568.015	5.71
568.356	5.71
568.696	5.72
569.037	5.72
569.377	5.72
569.718	5.73
570.058	5.73
570.398	5.73
570.739	5.73
571.079	5.73
571.419	5.73
571.759	5.73
572.099	5.72
572.439	5.72
572.779	5.72
573.119	5.72
573.459	5.72
573.799	5.72
574.139	5.72
574.479	5.72
574.819	5.72
575.158	5.72
575.498	5.72
575.838	5.72
576.177	5.73
576.517	5.73
576.856	5.73
577.196	5.73
577.535	5.73
577.875	5.72
578.214	5.73
578.553	5.72
578.893	5.72
579.232	5.72
579.571	5.72
579.91	5.72
580.25	5.71
580.589	5.72
580.928	5.72
581.267	5.72
581.606	5.72
581.945	5.71
582.283	5.71
582.622	5.72
582.961	5.72
583.3	5.72
583.639	5.72
583.977	5.72
584.316	5.72
584.654	5.72
584.993	5.73
585.332	5.73
585.67	5.73
586.008	5.73
586.347	5.74
586.685	5.75
587.024	5.75
587.362	5.75
587.7	5.76
588.038	5.76
588.376	5.77
588.715	5.77
589.053	5.77
589.391	5.78
589.729	5.78
590.067	5.78
590.404	5.79
590.742	5.79
591.08	5.79
591.418	5.8
591.756	5.81
592.093	5.81
592.431	5.82
592.769	5.82
593.106	5.82
593.444	5.83
593.781	5.83
594.119	5.83
594.456	5.83
594.793	5.83
595.131	5.83
595.468	5.83
595.805	5.84
596.143	5.84
596.48	5.84
596.817	5.84
597.154	5.85
597.491	5.85
597.828	5.86
598.165	5.86
598.502	5.87
598.839	5.87
599.176	5.88
599.512	5.88
599.849	5.89
600.186	5.89
600.523	5.89
600.859	5.89
601.196	5.89
601.532	5.89
601.869	5.9
602.205	5.9
602.542	5.9
602.878	5.9
603.215	5.91
603.551	5.9
603.887	5.91
604.223	5.91
604.56	5.91
604.896	5.91
605.232	5.91
605.568	5.91
605.904	5.91
606.24	5.91
606.576	5.91
606.912	5.91
607.248	5.91
607.583	5.91
607.919	5.91
608.255	5.92
608.591	5.92
608.926	5.92
609.262	5.92
609.597	5.93
609.933	5.92
610.268	5.93
610.604	5.93
610.939	5.93
611.275	5.93
611.61	5.92
611.945	5.93
612.281	5.93
612.616	5.92
612.951	5.92
613.286	5.91
613.621	5.92
613.956	5.92
614.291	5.92
614.626	5.92
614.961	5.93
615.296	5.93
615.631	5.92
615.966	5.93
616.3	5.93
616.635	5.93
616.97	5.93
617.304	5.93
617.639	5.93
617.973	5.93
618.308	5.93
618.642	5.92
618.977	5.92
619.311	5.93
619.646	5.93
619.98	5.93
620.314	5.94
620.648	5.95
620.983	5.95
621.317	5.96
621.651	5.97
621.985	5.98
622.319	5.99
622.653	5.99
622.987	6
623.321	6
623.655	6
623.988	6
624.322	6
624.656	6
624.99	6.01
625.323	6.02
625.657	6.02
625.99	6.03
626.324	6.03
626.657	6.04
626.991	6.04
627.324	6.04
627.658	6.04
627.991	6.04
628.324	6.04
628.657	6.05
628.991	6.06
629.324	6.07
629.657	6.07
629.99	6.07
630.323	6.08
630.656	6.08
630.989	6.09
631.322	6.09
631.655	6.1
631.987	6.11
632.32	6.12
632.653	6.12
632.986	6.13
633.318	6.13
633.651	6.14
633.984	6.14
634.316	6.15
634.649	6.15
634.981	6.15
635.313	6.14
635.646	6.14
635.978	6.14
636.31	6.14
636.643	6.15
636.975	6.15
637.307	6.15
637.639	6.16
637.971	6.17
638.303	6.16
638.635	6.16
638.967	6.16
639.299	6.16
639.631	6.16
639.963	6.17
640.295	6.17
640.626	6.18
640.958	6.19
641.29	6.19
641.621	6.2
641.953	6.2
642.285	6.2
642.616	6.21
642.948	6.21
643.279	6.21
643.61	6.23
643.942	6.24
644.273	6.24
644.604	6.24
644.936	6.25
645.267	6.25
645.598	6.25
645.929	6.25
646.26	6.24
646.591	6.24
646.922	6.24
647.253	6.25
647.584	6.25
647.915	6.25
648.245	6.26
648.576	6.27
648.907	6.27
649.238	6.28
649.568	6.28
649.899	6.28
650.229	6.29
650.56	6.29
650.89	6.3
651.221	6.3
651.551	6.31
651.882	6.32
652.212	6.33
652.542	6.33
652.872	6.34
653.203	6.34
653.533	6.33
653.863	6.33
654.193	6.33
654.523	6.34
654.853	6.34
655.183	6.35
655.513	6.35
655.843	6.36
656.172	6.36
656.502	6.36
656.832	6.36
657.162	6.36
657.491	6.36
657.821	6.36
658.15	6.36
658.48	6.37
658.809	6.37
659.139	6.38
659.468	6.38
659.798	6.39
660.127	6.4
660.456	6.41
660.785	6.41
661.115	6.42
661.444	6.43
661.773	6.43
662.102	6.44
662.431	6.44
662.76	6.44
663.089	6.45
663.418	6.47
663.747	6.47
664.076	6.47
664.404	6.48
664.733	6.49
665.062	6.5
665.39	6.49
665.719	6.5
666.048	6.52
666.376	6.53
666.705	6.54
667.033	6.55
667.362	6.56
667.69	6.56
668.018	6.56
668.347	6.57
668.675	6.58
669.003	6.59
669.331	6.6
669.659	6.6
669.987	6.6
670.315	6.61
670.643	6.63
670.971	6.63
671.299	6.64
671.627	6.63
671.955	6.63
672.283	6.63
672.61	6.64
672.938	6.65
673.266	6.66
673.593	6.66
673.921	6.65
674.249	6.66
674.576	6.66
674.904	6.66
675.231	6.67
675.558	6.67
675.886	6.68
676.213	6.68
676.54	6.69
676.867	6.68
677.195	6.69
677.522	6.69
677.849	6.69
678.176	6.69
678.503	6.68
678.83	6.69
679.157	6.69
679.484	6.69
679.81	6.69
680.137	6.7
680.464	6.7
680.791	6.7
681.117	6.71
681.444	6.71
681.771	6.71
682.097	6.71
682.424	6.71
682.75	6.71
683.077	6.72
683.403	6.73
683.729	6.73
684.056	6.73
684.382	6.74
684.708	6.75
685.034	6.77
685.36	6.78
685.686	6.79
686.012	6.78
686.339	6.78
686.664	6.78
686.99	6.78
687.316	6.79
687.642	6.79
687.968	6.8
688.294	6.81
688.619	6.81
688.945	6.81
689.271	6.81
689.596	6.81
689.922	6.81
690.247	6.81
690.573	6.82
690.898	6.84
691.224	6.85
691.549	6.87
691.874	6.89
692.2	6.9
692.525	6.9
692.85	6.92
693.175	6.92
693.5	6.94
693.825	6.95
694.15	6.96
694.475	6.97
694.8	6.97
695.125	6.98
695.45	6.98
695.775	6.99
696.099	6.99
696.424	6.99
696.749	7
697.073	7.02
697.398	7.02
697.723	7.03
698.047	7.03
698.372	7.04
698.696	7.03
699.02	7.04
699.345	7.05
699.669	7.06
699.993	7.07
700.318	7.08
700.642	7.08
700.966	7.09
701.29	7.09
701.614	7.11
701.938	7.12
702.262	7.14
702.586	7.15
702.91	7.18
703.234	7.18
703.557	7.19
703.881	7.2
704.205	7.2
704.529	7.21
704.852	7.2
705.176	7.21
705.499	7.21
705.823	7.22
706.146	7.22
706.47	7.23
706.793	7.22
707.117	7.24
707.44	7.24
707.763	7.26
708.086	7.27
708.409	7.28
708.733	7.3
709.056	7.31
709.379	7.32
709.702	7.33
710.025	7.33
710.348	7.33
710.671	7.34
710.993	7.34
711.316	7.35
711.639	7.35
711.962	7.37
712.284	7.37
712.607	7.38
712.93	7.37
713.252	7.37
713.575	7.38
713.897	7.38
714.22	7.38
714.542	7.38
714.864	7.35
715.187	7.35
715.509	7.34
715.831	7.34
716.153	7.33
716.475	7.35
716.798	7.35
717.12	7.34
717.442	7.35
717.764	7.35
718.085	7.34
718.407	7.36
718.729	7.36
719.051	7.37
719.373	7.37
719.695	7.37
720.016	7.38
720.338	7.38
720.659	7.4
720.981	7.39
721.302	7.38
721.624	7.39
721.945	7.38
722.267	7.38
722.588	7.38
722.909	7.39
723.231	7.41
723.552	7.41
723.873	7.43
724.194	7.45
724.515	7.46
724.836	7.45
725.157	7.45
725.478	7.47
725.799	7.49
726.12	7.52
726.441	7.53
726.762	7.55
727.083	7.57
727.403	7.59
727.724	7.6
728.045	7.64
728.365	7.66
728.686	7.67
729.006	7.68
729.327	7.71
729.647	7.7
729.967	7.71
730.288	7.73
730.608	7.74
730.928	7.76
731.249	7.79
731.569	7.78
731.889	7.8
732.209	7.8
732.529	7.81
732.849	7.82
733.169	7.84
733.489	7.87
733.809	7.88
734.129	7.88
734.448	7.91
734.768	7.92
735.088	7.94
735.408	7.96
735.727	7.97
736.047	7.99
736.366	7.99
736.686	8
737.005	8
737.325	8
737.644	7.98
737.963	7.98
738.283	7.98
738.602	7.98
738.921	7.98
739.24	7.98
739.56	7.99
739.879	7.98
740.198	7.98
740.517	7.99
740.836	7.99
741.155	8
741.473	8
741.792	8.02
742.111	8.02
742.43	8.01
742.748	8.03
743.067	8.06
743.386	8.07
743.704	8.08
744.023	8.06
744.341	8.05
744.66	8.07
744.978	8.07
745.297	8.13
745.615	8.13
745.933	8.13
746.252	8.13
746.57	8.12
746.888	8.15
747.206	8.17
747.524	8.17
747.842	8.18
748.16	8.18
748.478	8.18
748.796	8.18
749.114	8.17
749.432	8.21
749.749	8.22
750.067	8.22
750.385	8.24
750.703	8.26
751.02	8.29
751.338	8.32
751.655	8.34
751.973	8.35
752.29	8.38
752.608	8.39
752.925	8.4
753.242	8.42
753.56	8.44
753.877	8.45
754.194	8.47
754.511	8.49
754.828	8.48
755.145	8.48
755.462	8.49
755.779	8.52
756.096	8.51
756.413	8.49
756.73	8.5
757.047	8.51
757.364	8.52
757.68	8.53
757.997	8.55
758.314	8.51
758.63	8.54
758.947	8.56
759.264	8.59
759.58	8.58
759.896	8.56
760.213	8.56
760.529	8.59
760.846	8.6
761.162	8.63
761.478	8.63
761.794	8.63
762.11	8.66
762.426	8.68
762.743	8.68
763.059	8.69
763.375	8.71
763.69	8.72
764.006	8.74
764.322	8.75
764.638	8.77
764.954	8.77
765.27	8.78
765.585	8.79
765.901	8.81
766.216	8.81
766.532	8.82
766.848	8.85
767.163	8.85
767.478	8.83
767.794	8.86
768.109	8.87
768.424	8.88
768.74	8.87
769.055	8.87
769.37	8.89
769.685	8.9
770	8.92
770.315	8.92
770.63	8.93
770.945	8.95
771.26	8.97
771.575	8.98
771.89	9.01
772.205	9
772.52	9.03
772.834	9.05
773.149	9.07
773.464	9.07
773.778	9.06
774.093	9.07
774.407	9.09
774.722	9.11
775.036	9.1
775.351	9.12
775.665	9.15
775.979	9.18
776.293	9.19
776.608	9.21
776.922	9.24
777.236	9.22
777.55	9.23
777.864	9.23
778.178	9.22
778.492	9.24
778.806	9.25
779.12	9.22
779.434	9.25
779.747	9.24
780.061	9.28
780.375	9.31
780.689	9.32
781.002	9.37
781.316	9.38
781.629	9.41
781.943	9.46
782.256	9.48
782.57	9.47
782.883	9.47
783.196	9.51
783.51	9.52
783.823	9.54
784.136	9.54
784.449	9.57
784.762	9.55
785.075	9.56
785.388	9.6
785.701	9.61
786.014	9.66
786.327	9.64
786.64	9.64
786.953	9.67
787.266	9.71
787.578	9.72
787.891	9.76
788.204	9.78
788.516	9.79
788.829	9.79
789.141	9.78
789.454	9.79
789.766	9.8
790.079	9.81
790.391	9.84
790.703	9.91
791.016	9.93
791.328	9.95
791.64	9.96
791.952	10.01
792.264	10
792.576	9.99
792.888	9.98
793.2	10.03
793.512	10.04
793.824	10.03
794.136	10.02
794.448	9.99
794.76	10.02
795.071	10.04
795.383	10.08
795.695	10.12
796.006	10.09
796.318	10.07
796.629	10.1
796.941	10.13
797.252	10.12
797.564	10.15
797.875	10.18
798.186	10.23
798.497	10.25
798.809	10.21
799.12	10.25
799.431	10.33
799.742	10.3
800.053	10.3
800.364	10.32
800.675	10.3
800.986	10.31
801.297	10.28
801.608	10.3
801.918	10.3
802.229	10.28
802.54	10.27
802.851	10.29
803.161	10.28
803.472	10.29
803.782	10.31
804.093	10.32
804.403	10.34
804.714	10.34
805.024	10.36
805.334	10.36
805.645	10.39
805.955	10.36
806.265	10.36
806.575	10.34
806.885	10.42
807.195	10.5
807.505	10.48
807.815	10.5
808.125	10.52
808.435	10.52
808.745	10.55
809.055	10.61
809.365	10.59
809.674	10.61
809.984	10.64
810.294	10.69
810.603	10.69
810.913	10.7
811.222	10.69
811.532	10.71
811.841	10.74
812.151	10.77
812.46	10.78
812.769	10.74
813.079	10.79
813.388	10.83
813.697	10.84
814.006	10.91
814.315	10.85
814.624	10.91
814.933	10.97
815.242	11.02
815.551	11
815.86	10.98
816.169	10.95
816.478	10.94
816.786	10.93
817.095	10.91
817.404	10.85
817.712	10.83
818.021	10.86
818.33	10.84
818.638	10.84
818.947	10.83
819.255	10.83
819.563	10.83
819.872	10.82
820.18	10.84
820.488	10.86
820.796	10.85
821.105	10.86
821.413	10.87
821.721	10.87
822.029	10.89
822.337	10.9
822.645	10.9
822.953	10.89
823.26	10.89
823.568	10.9
823.876	10.9
824.184	10.91
824.491	10.89
824.799	10.89
825.107	10.91
825.414	10.93
825.722	10.92
826.029	10.92
826.337	10.93
826.644	10.95
826.951	10.96
827.259	10.96
827.566	10.95
827.873	10.94
828.18	10.95
828.488	10.97
828.795	10.97
829.102	10.97
829.409	10.98
829.716	11
830.023	11.05
830.329	11.07
830.636	11.08
830.943	11.11
831.25	11.12
831.557	11.18
831.863	11.22
832.17	11.24
832.476	11.24
832.783	11.24
833.089	11.25
833.396	11.3
833.702	11.31
834.009	11.35
834.315	11.37
834.621	11.38
834.928	11.41
835.234	11.41
835.54	11.45
835.846	11.48
836.152	11.44
836.458	11.46
836.764	11.48
837.07	11.55
837.376	11.56
837.682	11.58
837.988	11.57
838.293	11.61
838.599	11.6
838.905	11.54
839.211	11.48
839.516	11.47
839.822	11.47
840.127	11.52
840.433	11.57
840.738	11.62
841.044	11.66
841.349	11.65
841.654	11.7
841.959	11.72
842.265	11.77
842.57	11.81
842.875	11.85
843.18	11.84
843.485	11.84
843.79	11.94
844.095	11.92
844.4	11.94
844.705	12.02
845.01	12.06
845.315	12.09
845.619	12.03
845.924	12
846.229	12.05
846.533	12.1
846.838	12.07
847.142	12.11
847.447	12.18
847.751	12.28
848.056	12.31
848.36	12.48
848.664	12.5
848.969	12.55
849.273	12.64
849.577	12.59
849.881	12.61
850.185	12.65
850.489	12.67
850.794	12.75
851.097	12.83
851.401	12.86
851.705	12.98
852.009	13.19
852.313	13.27
852.617	13.3
852.92	13.31
853.224	13.3
853.528	13.22
853.831	13.36
854.135	13.44
854.438	13.53
854.742	13.4
855.045	13.32
855.349	13.54
855.652	13.67
855.955	13.65
856.259	13.66
856.562	13.66
856.865	13.81
857.168	13.69
857.471	13.86
857.774	13.99
858.077	14.17
858.38	14.39
858.683	14.32
858.986	14.25
859.289	14.25
859.592	14.34
859.894	14.4
860.197	14.4
860.5	14.49
860.802	14.42
861.105	14.6
861.407	14.52
861.71	14.33
862.012	14.26
862.315	14.31
862.617	14.27
862.919	14.48
863.222	14.43
863.524	14.42
863.826	14.54
864.128	14.4
864.43	14.41
864.732	14.39
865.034	14.34
865.336	14.36
865.638	14.22
865.94	14.27
866.242	14.35
866.544	14.44
866.846	14.54
867.147	14.63
867.449	14.71
867.751	14.68
868.052	14.79
868.354	14.93
868.655	14.68
868.957	14.63
869.258	14.55
869.56	14.76
869.861	14.74
870.162	14.64
870.463	14.67
870.765	14.42
871.066	14.59
871.367	14.58
871.668	14.53
871.969	14.48
872.27	14.24
872.571	14.23
872.872	14.1
873.173	14.04
873.473	13.92
873.774	14.05
874.075	14.21
874.376	14.38
874.676	14.32
874.977	14.43
875.277	14.23
875.578	14.2
875.878	14.28
876.179	14.27
876.479	14.47
876.78	14.4
877.08	14.41
877.38	14.49
877.68	14.43
877.981	14.6
878.281	14.71
878.581	14.67
