Data from UWBM42201_Reflection_00015.txt Node
Date: Sun May 02 12:51:09 EDT 2021
User: vgr7
Spectrometer: USB2G7710
Scans to average: 10
Trigger mode: 4
Integration Time (sec): 1.000000E-1
Electric dark correction enabled: true
Boxcar width: 20
XAxis mode: Wavelengths
Number of Pixels in Spectrum: 2048
>>>>>Begin Spectral Data<<<<<
177.721	98.54
178.105	97.91
178.488	97.52
178.871	96.18
179.254	95.02
179.636	92.66
180.019	92.34
180.402	89.28
180.785	87.35
181.168	85.04
181.55	82.37
181.933	117.01
182.316	117.69
182.698	119.68
183.081	120.88
183.463	122.01
183.846	124.23
184.228	125.56
184.611	126.38
184.993	129.62
185.376	131.97
185.758	-125.62
186.14	-59.7
186.522	-28.67
186.904	-11.43
187.287	0.39
187.669	6.36
188.051	8.09
188.433	11.3
188.815	5.12
189.197	3.27
189.579	4.16
189.961	6.61
190.342	3.4
190.724	6.9
191.106	4.92
191.488	6.05
191.869	0.77
192.251	1.9
192.633	-0.43
193.014	-4.17
193.396	-5.06
193.777	1.75
194.159	2.35
194.54	1.79
194.922	2.76
195.303	5.72
195.684	5.3
196.065	7.75
196.447	4.55
196.828	4.03
197.209	5.07
197.59	-6.1
197.971	-6.57
198.352	-4.38
198.733	-2.25
199.114	-3.2
199.495	-5.1
199.876	-4.83
200.257	-6.06
200.638	-5.77
201.018	-11.82
201.399	-13.22
201.78	-16.42
202.16	-16.38
202.541	-15.18
202.922	-15.03
203.302	-19.02
203.683	-19.34
204.063	-19.82
204.444	-16.4
204.824	-11.04
205.204	-7.87
205.585	1.77
205.965	1.93
206.345	3.26
206.725	-3.1
207.106	-3.21
207.486	-3.3
207.866	-2.28
208.246	-2.37
208.626	2.23
209.006	8.55
209.386	4.92
209.766	4.53
210.145	3.14
210.525	1.87
210.905	2.54
211.285	2.83
211.664	0.83
212.044	3.34
212.424	3.67
212.803	-1.64
213.183	1.46
213.562	1.99
213.942	1
214.321	-2.31
214.701	-2.74
215.08	0.72
215.459	0.88
215.838	0.53
216.218	-0.37
216.597	-1.73
216.976	-4.75
217.355	-3.16
217.734	-3.54
218.113	-2.82
218.492	-1.33
218.871	-0.54
219.25	0.69
219.629	0.64
220.008	0.64
220.387	0.68
220.766	0.83
221.144	0.63
221.523	2.45
221.902	2.15
222.28	3.04
222.659	4.11
223.037	4.17
223.416	4.45
223.794	5.81
224.173	5.3
224.551	5.07
224.929	5.12
225.308	5.95
225.686	5.91
226.064	6.02
226.442	5.73
226.821	5.32
227.199	5.03
227.577	4.71
227.955	4.28
228.333	4.35
228.711	4.34
229.089	4.51
229.467	4.11
229.845	5.38
230.222	5.46
230.6	5.65
230.978	5.7
231.356	5.49
231.733	5.54
232.111	5.51
232.488	5.5
232.866	5.48
233.243	5.31
233.621	5.48
233.998	5.17
234.376	5.22
234.753	5.18
235.13	5.36
235.508	5.67
235.885	5.64
236.262	5.52
236.639	5.56
237.016	5.46
237.393	5.5
237.77	5.39
238.147	5.24
238.524	5.31
238.901	5.4
239.278	5.44
239.655	5.44
240.032	5.33
240.409	5.41
240.785	5.3
241.162	5.34
241.539	5.29
241.915	5.33
242.292	5.34
242.668	5.28
243.045	5.27
243.421	5.14
243.798	5.09
244.174	5.11
244.551	5.07
244.927	4.91
245.303	4.82
245.679	4.83
246.056	4.77
246.432	4.76
246.808	4.51
247.184	4.53
247.56	4.5
247.936	4.52
248.312	4.52
248.688	4.6
249.064	4.53
249.44	4.5
249.815	4.49
250.191	4.44
250.567	4.4
250.943	4.47
251.318	4.47
251.694	4.43
252.069	4.39
252.445	4.4
252.82	4.46
253.196	4.48
253.571	4.47
253.947	4.57
254.322	4.52
254.697	4.64
255.073	4.61
255.448	4.6
255.823	4.55
256.198	4.51
256.573	4.36
256.948	4.35
257.323	4.32
257.698	4.27
258.073	4.28
258.448	4.16
258.823	4.14
259.198	4.14
259.573	4.15
259.948	4.19
260.322	4.18
260.697	4.18
261.072	4.16
261.446	4.15
261.821	4.13
262.195	4.1
262.57	4.08
262.944	4.08
263.319	4.06
263.693	4.08
264.067	4.09
264.442	4.19
264.816	4.18
265.19	4.16
265.564	4.21
265.938	4.17
266.313	4.22
266.687	4.18
267.061	4.19
267.435	4.18
267.809	4.17
268.183	4.14
268.556	4.15
268.93	4.15
269.304	4.1
269.678	4.06
270.051	4.02
270.425	4.02
270.799	4.04
271.172	4.04
271.546	4.04
271.919	4.04
272.293	4.02
272.666	4.04
273.04	4.04
273.413	3.98
273.787	3.97
274.16	4
274.533	4.03
274.906	4.01
275.279	4.01
275.653	3.98
276.026	3.97
276.399	3.94
276.772	3.94
277.145	3.95
277.518	3.97
277.891	3.98
278.263	4
278.636	4
279.009	4.03
279.382	4
279.755	3.95
280.127	3.97
280.5	3.98
280.872	3.98
281.245	4.11
281.617	4.12
281.99	4.15
282.362	4.18
282.735	4.15
283.107	4.15
283.479	4.18
283.852	4.19
284.224	4.22
284.596	4.22
284.968	4.12
285.34	4.13
285.713	4.12
286.085	4.05
286.457	4.06
286.829	4.06
287.201	4.07
287.572	4.13
287.944	4.15
288.316	4.19
288.688	4.24
289.06	4.25
289.431	4.26
289.803	4.27
290.175	4.31
290.546	4.34
290.918	4.36
291.289	4.35
291.661	4.39
292.032	4.36
292.403	4.4
292.775	4.5
293.146	4.53
293.517	4.57
293.889	4.66
294.26	4.66
294.631	4.72
295.002	4.78
295.373	4.82
295.744	4.83
296.115	4.85
296.486	4.81
296.857	4.82
297.228	4.83
297.599	4.85
297.97	4.87
298.34	4.93
298.711	4.9
299.082	4.94
299.452	5
299.823	5.06
300.194	5.11
300.564	5.14
300.935	5.18
301.305	5.2
301.676	5.22
302.046	5.27
302.416	5.31
302.787	5.35
303.157	5.34
303.527	5.39
303.897	5.44
304.267	5.49
304.637	5.54
305.008	5.61
305.378	5.66
305.748	5.71
306.117	5.83
306.487	5.93
306.857	6.04
307.227	6.09
307.597	6.14
307.967	6.18
308.336	6.23
308.706	6.29
309.076	6.35
309.445	6.38
309.815	6.31
310.184	6.35
310.554	6.34
310.923	6.42
311.293	6.49
311.662	6.54
312.031	6.59
312.401	6.63
312.77	6.67
313.139	6.72
313.508	6.79
313.877	6.79
314.246	6.82
314.616	6.83
314.985	6.81
315.353	6.84
315.722	6.9
316.091	6.95
316.46	7.01
316.829	7.09
317.198	7.16
317.567	7.34
317.935	7.4
318.304	7.49
318.672	7.56
319.041	7.62
319.41	7.7
319.778	7.79
320.147	7.86
320.515	7.91
320.883	7.95
321.252	7.95
321.62	8.05
321.988	8.09
322.357	8.16
322.725	8.27
323.093	8.33
323.461	8.38
323.829	8.44
324.197	8.47
324.565	8.51
324.933	8.56
325.301	8.59
325.669	8.66
326.037	8.7
326.405	8.68
326.772	8.72
327.14	8.77
327.508	8.8
327.875	8.84
328.243	8.89
328.61	8.89
328.978	8.94
329.346	8.99
329.713	9.01
330.08	9.06
330.448	9.1
330.815	9.12
331.182	9.16
331.55	9.19
331.917	9.24
332.284	9.27
332.651	9.31
333.018	9.34
333.385	9.39
333.752	9.45
334.119	9.5
334.486	9.53
334.853	9.55
335.22	9.58
335.587	9.6
335.954	9.64
336.32	9.68
336.687	9.71
337.054	9.72
337.42	9.76
337.787	9.78
338.153	9.82
338.52	9.88
338.886	9.93
339.253	9.95
339.619	9.96
339.986	9.97
340.352	9.99
340.718	10.01
341.084	10.03
341.451	10.06
341.817	10.06
342.183	10.06
342.549	10.1
342.915	10.11
343.281	10.14
343.647	10.17
344.013	10.21
344.379	10.23
344.745	10.25
345.11	10.28
345.476	10.3
345.842	10.32
346.208	10.32
346.573	10.33
346.939	10.35
347.304	10.36
347.67	10.4
348.035	10.41
348.401	10.4
348.766	10.42
349.132	10.44
349.497	10.47
349.862	10.48
350.228	10.5
350.593	10.52
350.958	10.52
351.323	10.51
351.688	10.53
352.053	10.54
352.418	10.55
352.783	10.55
353.148	10.55
353.513	10.54
353.878	10.53
354.243	10.54
354.608	10.53
354.972	10.53
355.337	10.53
355.702	10.52
356.066	10.53
356.431	10.52
356.795	10.52
357.16	10.49
357.524	10.48
357.889	10.46
358.253	10.47
358.618	10.46
358.982	10.46
359.346	10.45
359.71	10.44
360.075	10.44
360.439	10.43
360.803	10.4
361.167	10.38
361.531	10.38
361.895	10.36
362.259	10.33
362.623	10.31
362.987	10.29
363.351	10.3
363.714	10.28
364.078	10.25
364.442	10.23
364.806	10.22
365.169	10.18
365.533	10.15
365.896	10.13
366.26	10.1
366.623	10.06
366.987	10.03
367.35	10.01
367.714	9.97
368.077	9.95
368.44	9.92
368.803	9.88
369.167	9.85
369.53	9.82
369.893	9.79
370.256	9.75
370.619	9.71
370.982	9.66
371.345	9.6
371.708	9.57
372.071	9.53
372.434	9.49
372.797	9.46
373.159	9.42
373.522	9.37
373.885	9.31
374.247	9.25
374.61	9.21
374.973	9.15
375.335	9.09
375.698	9.05
376.06	9
376.423	8.95
376.785	8.9
377.147	8.86
377.51	8.82
377.872	8.76
378.234	8.71
378.596	8.68
378.958	8.64
379.321	8.59
379.683	8.55
380.045	8.5
380.407	8.45
380.769	8.4
381.13	8.36
381.492	8.32
381.854	8.28
382.216	8.23
382.578	8.19
382.939	8.15
383.301	8.1
383.663	8.06
384.024	8.01
384.386	7.97
384.747	7.93
385.109	7.87
385.47	7.83
385.832	7.79
386.193	7.76
386.554	7.71
386.916	7.67
387.277	7.63
387.638	7.6
387.999	7.57
388.36	7.53
388.721	7.5
389.082	7.47
389.443	7.43
389.804	7.4
390.165	7.37
390.526	7.34
390.887	7.3
391.248	7.26
391.609	7.23
391.969	7.19
392.33	7.17
392.691	7.13
393.051	7.1
393.412	7.05
393.772	7.02
394.133	6.98
394.493	6.94
394.854	6.91
395.214	6.87
395.574	6.83
395.935	6.79
396.295	6.75
396.655	6.71
397.015	6.68
397.376	6.63
397.736	6.6
398.096	6.56
398.456	6.53
398.816	6.51
399.176	6.45
399.535	6.42
399.895	6.39
400.255	6.36
400.615	6.32
400.975	6.29
401.334	6.25
401.694	6.22
402.054	6.18
402.413	6.13
402.773	6.1
403.132	6.08
403.492	6.05
403.851	6.02
404.211	5.99
404.57	5.97
404.929	5.95
405.288	5.92
405.648	5.9
406.007	5.88
406.366	5.86
406.725	5.85
407.084	5.82
407.443	5.8
407.802	5.78
408.161	5.76
408.52	5.73
408.879	5.72
409.238	5.7
409.596	5.67
409.955	5.67
410.314	5.65
410.673	5.63
411.031	5.62
411.39	5.61
411.748	5.6
412.107	5.58
412.465	5.58
412.824	5.59
413.182	5.59
413.54	5.6
413.899	5.61
414.257	5.63
414.615	5.66
414.974	5.68
415.332	5.72
415.69	5.75
416.048	5.77
416.406	5.81
416.764	5.83
417.122	5.86
417.48	5.88
417.838	5.9
418.195	5.91
418.553	5.92
418.911	5.93
419.269	5.92
419.626	5.9
419.984	5.88
420.342	5.84
420.699	5.81
421.057	5.77
421.414	5.74
421.772	5.71
422.129	5.69
422.486	5.68
422.844	5.66
423.201	5.65
423.558	5.63
423.915	5.62
424.273	5.61
424.63	5.6
424.987	5.58
425.344	5.57
425.701	5.56
426.058	5.55
426.415	5.53
426.772	5.51
427.128	5.49
427.485	5.47
427.842	5.45
428.199	5.42
428.555	5.38
428.912	5.34
429.269	5.3
429.625	5.27
429.982	5.23
430.338	5.18
430.695	5.15
431.051	5.1
431.407	5.06
431.764	5.03
432.12	4.99
432.476	4.97
432.832	4.95
433.189	4.95
433.545	4.94
433.901	4.95
434.257	4.97
434.613	4.99
434.969	5.02
435.325	5.05
435.681	5.1
436.036	5.1
436.392	5.12
436.748	5.13
437.104	5.13
437.459	5.15
437.815	5.16
438.171	5.19
438.526	5.21
438.882	5.24
439.237	5.28
439.593	5.32
439.948	5.35
440.304	5.39
440.659	5.41
441.014	5.43
441.369	5.46
441.725	5.48
442.08	5.5
442.435	5.5
442.79	5.51
443.145	5.5
443.5	5.5
443.855	5.5
444.21	5.49
444.565	5.48
444.92	5.46
445.275	5.45
445.629	5.44
445.984	5.43
446.339	5.41
446.693	5.41
447.048	5.38
447.403	5.36
447.757	5.33
448.112	5.31
448.466	5.28
448.82	5.25
449.175	5.23
449.529	5.21
449.883	5.19
450.238	5.15
450.592	5.15
450.946	5.14
451.3	5.13
451.654	5.14
452.008	5.13
452.362	5.13
452.716	5.13
453.07	5.12
453.424	5.11
453.778	5.09
454.132	5.07
454.486	5.05
454.839	5.03
455.193	5
455.547	4.98
455.9	4.93
456.254	4.91
456.607	4.87
456.961	4.84
457.314	4.82
457.668	4.8
458.021	4.8
458.375	4.79
458.728	4.79
459.081	4.8
459.434	4.8
459.787	4.81
460.141	4.82
460.494	4.83
460.847	4.83
461.2	4.84
461.553	4.85
461.906	4.85
462.259	4.86
462.611	4.87
462.964	4.88
463.317	4.88
463.67	4.88
464.022	4.89
464.375	4.89
464.728	4.9
465.08	4.9
465.433	4.91
465.785	4.91
466.138	4.9
466.49	4.89
466.843	4.87
467.195	4.86
467.547	4.84
467.899	4.83
468.252	4.81
468.604	4.79
468.956	4.77
469.308	4.77
469.66	4.77
470.012	4.77
470.364	4.79
470.716	4.8
471.068	4.83
471.42	4.87
471.772	4.9
472.123	4.92
472.475	4.94
472.827	4.96
473.178	4.98
473.53	5
473.882	5.03
474.233	5.06
474.585	5.11
474.936	5.19
475.288	5.31
475.639	5.46
475.99	5.63
476.342	5.82
476.693	6.03
477.044	6.23
477.395	6.45
477.746	6.66
478.097	6.88
478.448	7.1
478.8	7.31
479.15	7.5
479.501	7.68
479.852	7.85
480.203	7.99
480.554	8.14
480.905	8.28
481.255	8.42
481.606	8.54
481.957	8.65
482.307	8.77
482.658	8.87
483.009	8.97
483.359	9.07
483.709	9.16
484.06	9.25
484.41	9.34
484.761	9.42
485.111	9.5
485.461	9.57
485.811	9.64
486.162	9.71
486.512	9.76
486.862	9.81
487.212	9.83
487.562	9.86
487.912	9.87
488.262	9.87
488.612	9.86
488.961	9.83
489.311	9.79
489.661	9.7
490.011	9.59
490.36	9.46
490.71	9.31
491.06	9.14
491.409	8.97
491.759	8.79
492.108	8.61
492.458	8.42
492.807	8.22
493.157	8.02
493.506	7.84
493.855	7.66
494.204	7.5
494.554	7.35
494.903	7.21
495.252	7.08
495.601	6.95
495.95	6.83
496.299	6.73
496.648	6.63
496.997	6.53
497.346	6.44
497.695	6.36
498.043	6.29
498.392	6.22
498.741	6.15
499.09	6.09
499.438	6.03
499.787	5.98
500.135	5.94
500.484	5.91
500.832	5.9
501.181	5.89
501.529	5.91
501.878	5.94
502.226	5.98
502.574	6.03
502.923	6.08
503.271	6.14
503.619	6.21
503.967	6.27
504.315	6.34
504.663	6.4
505.011	6.48
505.359	6.55
505.707	6.62
506.055	6.7
506.403	6.79
506.751	6.88
507.098	6.98
507.446	7.09
507.794	7.2
508.141	7.33
508.489	7.47
508.837	7.6
509.184	7.73
509.531	7.88
509.879	8.03
510.226	8.2
510.574	8.37
510.921	8.54
511.268	8.74
511.616	8.93
511.963	9.14
512.31	9.35
512.657	9.57
513.004	9.78
513.351	9.99
513.698	10.18
514.045	10.38
514.392	10.57
514.739	10.76
515.086	10.93
515.432	11.12
515.779	11.32
516.126	11.53
516.473	11.75
516.819	11.98
517.166	12.24
517.512	12.51
517.859	12.81
518.205	13.12
518.552	13.47
518.898	13.85
519.245	14.26
519.591	14.76
519.937	15.35
520.283	16.03
520.629	16.76
520.976	17.51
521.322	18.3
521.668	19.09
522.014	19.89
522.36	20.69
522.706	21.47
523.052	22.24
523.398	22.97
523.743	23.66
524.089	24.29
524.435	24.89
524.781	25.48
525.126	26.06
525.472	26.63
525.817	27.2
526.163	27.75
526.509	28.28
526.854	28.82
527.199	29.35
527.545	29.88
527.89	30.42
528.235	30.95
528.581	31.45
528.926	31.93
529.271	32.38
529.616	32.8
529.961	33.17
530.306	33.52
530.651	33.86
530.996	34.17
531.341	34.46
531.686	34.73
532.031	34.98
532.376	35.26
532.721	35.56
533.065	35.88
533.41	36.21
533.755	36.51
534.099	36.74
534.444	36.94
534.788	37.1
535.133	37.26
535.477	37.38
535.822	37.45
536.166	37.49
536.51	37.47
536.855	37.39
537.199	37.27
537.543	37.16
537.887	37.07
538.231	37.02
538.576	36.98
538.92	36.91
539.264	36.84
539.608	36.74
539.951	36.63
540.295	36.5
540.639	36.36
540.983	36.19
541.327	36.02
541.671	35.86
542.014	35.72
542.358	35.59
542.701	35.56
543.045	35.58
543.389	35.62
543.732	35.68
544.075	35.76
544.419	35.87
544.762	35.97
545.105	36.09
545.449	36.23
545.792	36.38
546.135	36.52
546.478	36.62
546.821	36.66
547.165	36.64
547.508	36.55
547.851	36.42
548.194	36.24
548.536	36.01
548.879	35.76
549.222	35.47
549.565	35.18
549.908	34.9
550.25	34.64
550.593	34.45
550.936	34.33
551.278	34.27
551.621	34.24
551.963	34.24
552.306	34.26
552.648	34.31
552.991	34.39
553.333	34.49
553.675	34.62
554.017	34.79
554.36	34.99
554.702	35.22
555.044	35.49
555.386	35.8
555.728	36.09
556.07	36.35
556.412	36.61
556.754	36.77
557.096	36.93
557.438	37.09
557.78	37.25
558.121	37.41
558.463	37.57
558.805	37.72
559.147	37.88
559.488	38.04
559.83	38.2
560.171	38.35
560.513	38.51
560.854	38.65
561.196	38.79
561.537	38.96
561.878	39.09
562.22	39.24
562.561	39.38
562.902	39.52
563.243	39.66
563.584	39.81
563.925	39.95
564.266	40.09
564.607	40.23
564.948	40.37
565.289	40.49
565.63	40.63
565.971	40.75
566.312	40.87
566.653	41
566.993	41.12
567.334	41.24
567.675	41.36
568.015	41.48
568.356	41.58
568.696	41.69
569.037	41.79
569.377	41.88
569.718	41.97
570.058	42.06
570.398	42.15
570.739	42.23
571.079	42.31
571.419	42.38
571.759	42.46
572.099	42.52
572.439	42.59
572.779	42.67
573.119	42.73
573.459	42.8
573.799	42.86
574.139	42.93
574.479	42.99
574.819	43.05
575.158	43.1
575.498	43.16
575.838	43.22
576.177	43.28
576.517	43.33
576.856	43.39
577.196	43.43
577.535	43.48
577.875	43.53
578.214	43.57
578.553	43.61
578.893	43.65
579.232	43.69
579.571	43.74
579.91	43.78
580.25	43.83
580.589	43.87
580.928	43.9
581.267	43.94
581.606	43.99
581.945	44.05
582.283	44.1
582.622	44.14
582.961	44.2
583.3	44.25
583.639	44.32
583.977	44.38
584.316	44.43
584.654	44.49
584.993	44.55
585.332	44.62
585.67	44.68
586.008	44.74
586.347	44.79
586.685	44.84
587.024	44.9
587.362	44.95
587.7	45.02
588.038	45.08
588.376	45.14
588.715	45.2
589.053	45.27
589.391	45.34
589.729	45.4
590.067	45.46
590.404	45.52
590.742	45.59
591.08	45.66
591.418	45.73
591.756	45.78
592.093	45.83
592.431	45.89
592.769	45.94
593.106	45.99
593.444	46.03
593.781	46.07
594.119	46.11
594.456	46.16
594.793	46.2
595.131	46.24
595.468	46.28
595.805	46.32
596.143	46.37
596.48	46.43
596.817	46.47
597.154	46.52
597.491	46.58
597.828	46.64
598.165	46.7
598.502	46.75
598.839	46.79
599.176	46.83
599.512	46.88
599.849	46.91
600.186	46.96
600.523	47
600.859	47.03
601.196	47.06
601.532	47.09
601.869	47.13
602.205	47.16
602.542	47.2
602.878	47.24
603.215	47.27
603.551	47.3
603.887	47.32
604.223	47.34
604.56	47.36
604.896	47.39
605.232	47.4
605.568	47.42
605.904	47.45
606.24	47.47
606.576	47.49
606.912	47.5
607.248	47.52
607.583	47.54
607.919	47.56
608.255	47.59
608.591	47.61
608.926	47.62
609.262	47.63
609.597	47.65
609.933	47.66
610.268	47.68
610.604	47.69
610.939	47.69
611.275	47.69
611.61	47.69
611.945	47.69
612.281	47.69
612.616	47.7
612.951	47.7
613.286	47.7
613.621	47.69
613.956	47.7
614.291	47.71
614.626	47.73
614.961	47.75
615.296	47.77
615.631	47.79
615.966	47.81
616.3	47.81
616.635	47.82
616.97	47.82
617.304	47.82
617.639	47.84
617.973	47.85
618.308	47.86
618.642	47.87
618.977	47.89
619.311	47.91
619.646	47.94
619.98	47.97
620.314	48
620.648	48.04
620.983	48.06
621.317	48.1
621.651	48.12
621.985	48.14
622.319	48.16
622.653	48.19
622.987	48.22
623.321	48.25
623.655	48.27
623.988	48.3
624.322	48.31
624.656	48.35
624.99	48.37
625.323	48.4
625.657	48.41
625.99	48.43
626.324	48.46
626.657	48.49
626.991	48.5
627.324	48.54
627.658	48.56
627.991	48.58
628.324	48.59
628.657	48.61
628.991	48.63
629.324	48.65
629.657	48.66
629.99	48.69
630.323	48.71
630.656	48.73
630.989	48.75
631.322	48.77
631.655	48.79
631.987	48.82
632.32	48.83
632.653	48.84
632.986	48.85
633.318	48.86
633.651	48.87
633.984	48.88
634.316	48.9
634.649	48.92
634.981	48.93
635.313	48.94
635.646	48.94
635.978	48.96
636.31	48.97
636.643	48.97
636.975	48.98
637.307	48.98
637.639	48.99
637.971	49.02
638.303	49.03
638.635	49.04
638.967	49.05
639.299	49.07
639.631	49.09
639.963	49.1
640.295	49.12
640.626	49.16
640.958	49.18
641.29	49.18
641.621	49.21
641.953	49.21
642.285	49.22
642.616	49.24
642.948	49.24
643.279	49.28
643.61	49.28
643.942	49.27
644.273	49.3
644.604	49.31
644.936	49.35
645.267	49.37
645.598	49.38
645.929	49.39
646.26	49.41
646.591	49.42
646.922	49.43
647.253	49.44
647.584	49.45
647.915	49.47
648.245	49.48
648.576	49.49
648.907	49.51
649.238	49.53
649.568	49.52
649.899	49.53
650.229	49.57
650.56	49.6
650.89	49.63
651.221	49.65
651.551	49.67
651.882	49.69
652.212	49.71
652.542	49.73
652.872	49.74
653.203	49.76
653.533	49.76
653.863	49.77
654.193	49.77
654.523	49.78
654.853	49.8
655.183	49.81
655.513	49.84
655.843	49.85
656.172	49.85
656.502	49.87
656.832	49.87
657.162	49.89
657.491	49.9
657.821	49.91
658.15	49.93
658.48	49.94
658.809	49.96
659.139	49.97
659.468	49.99
659.798	50
660.127	50.03
660.456	50.07
660.785	50.11
661.115	50.13
661.444	50.15
661.773	50.17
662.102	50.19
662.431	50.2
662.76	50.21
663.089	50.23
663.418	50.25
663.747	50.25
664.076	50.25
664.404	50.25
664.733	50.27
665.062	50.29
665.39	50.31
665.719	50.31
666.048	50.33
666.376	50.34
666.705	50.37
667.033	50.38
667.362	50.36
667.69	50.38
668.018	50.4
668.347	50.41
668.675	50.4
669.003	50.4
669.331	50.41
669.659	50.41
669.987	50.44
670.315	50.44
670.643	50.48
670.971	50.49
671.299	50.5
671.627	50.5
671.955	50.49
672.283	50.51
672.61	50.53
672.938	50.57
673.266	50.58
673.593	50.58
673.921	50.57
674.249	50.56
674.576	50.58
674.904	50.6
675.231	50.6
675.558	50.6
675.886	50.64
676.213	50.65
676.54	50.67
676.867	50.67
677.195	50.69
677.522	50.71
677.849	50.73
678.176	50.75
678.503	50.76
678.83	50.77
679.157	50.78
679.484	50.78
679.81	50.79
680.137	50.79
680.464	50.81
680.791	50.85
681.117	50.85
681.444	50.87
681.771	50.89
682.097	50.91
682.424	50.94
682.75	50.95
683.077	50.98
683.403	50.99
683.729	51.02
684.056	51.02
684.382	51.03
684.708	51.05
685.034	51.07
685.36	51.08
685.686	51.08
686.012	51.1
686.339	51.1
686.664	51.13
686.99	51.16
687.316	51.2
687.642	51.23
687.968	51.25
688.294	51.26
688.619	51.29
688.945	51.34
689.271	51.34
689.596	51.37
689.922	51.38
690.247	51.42
690.573	51.43
690.898	51.46
691.224	51.47
691.549	51.48
691.874	51.5
692.2	51.52
692.525	51.54
692.85	51.55
693.175	51.56
693.5	51.6
693.825	51.61
694.15	51.63
694.475	51.65
694.8	51.66
695.125	51.67
695.45	51.71
695.775	51.72
696.099	51.75
696.424	51.77
696.749	51.77
697.073	51.76
697.398	51.76
697.723	51.78
698.047	51.77
698.372	51.8
698.696	51.82
699.02	51.81
699.345	51.82
699.669	51.83
699.993	51.84
700.318	51.84
700.642	51.86
700.966	51.86
701.29	51.85
701.614	51.85
701.938	51.84
702.262	51.84
702.586	51.86
702.91	51.85
703.234	51.88
703.557	51.89
703.881	51.91
704.205	51.93
704.529	51.96
704.852	51.96
705.176	51.98
705.499	51.99
705.823	52
706.146	52.01
706.47	52.03
706.793	52.04
707.117	52.12
707.44	52.1
707.763	52.09
708.086	52.1
708.409	52.08
708.733	52.09
709.056	52.08
709.379	52.08
709.702	52.11
710.025	52.12
710.348	52.06
710.671	52.09
710.993	52.09
711.316	52.11
711.639	52.12
711.962	52.11
712.284	52.14
712.607	52.15
712.93	52.17
713.252	52.18
713.575	52.2
713.897	52.21
714.22	52.23
714.542	52.27
714.864	52.34
715.187	52.38
715.509	52.42
715.831	52.44
716.153	52.44
716.475	52.43
716.798	52.46
717.12	52.57
717.442	52.56
717.764	52.57
718.085	52.55
718.407	52.53
718.729	52.54
719.051	52.58
719.373	52.6
719.695	52.62
720.016	52.62
720.338	52.57
720.659	52.61
720.981	52.63
721.302	52.63
721.624	52.68
721.945	52.65
722.267	52.68
722.588	52.68
722.909	52.69
723.231	52.73
723.552	52.78
723.873	52.79
724.194	52.8
724.515	52.83
724.836	52.9
725.157	52.92
725.478	52.92
725.799	52.94
726.12	52.96
726.441	52.99
726.762	53
727.083	53.01
727.403	53.04
727.724	53.03
728.045	52.98
728.365	52.99
728.686	52.98
729.006	52.99
729.327	53
729.647	52.99
729.967	52.97
730.288	52.94
730.608	52.95
730.928	52.93
731.249	52.93
731.569	52.95
731.889	52.95
732.209	52.94
732.529	52.93
732.849	52.93
733.169	52.95
733.489	52.96
733.809	52.96
734.129	52.98
734.448	52.98
734.768	52.95
735.088	53
735.408	52.99
735.727	52.99
736.047	53
736.366	52.99
736.686	52.97
737.005	52.98
737.325	53
737.644	52.99
737.963	52.98
738.283	52.98
738.602	53
738.921	52.99
739.24	52.97
739.56	52.96
739.879	52.94
740.198	52.92
740.517	52.9
740.836	52.92
741.155	52.93
741.473	52.94
741.792	52.95
742.111	52.95
742.43	52.98
742.748	52.99
743.067	52.99
743.386	53.04
743.704	53.05
744.023	53.06
744.341	53.07
744.66	53.08
744.978	53.05
745.297	53.07
745.615	53.08
745.933	53.08
746.252	53.07
746.57	53.04
746.888	53.08
747.206	53.08
747.524	53.1
747.842	53.14
748.16	53.13
748.478	53.14
748.796	53.12
749.114	53.11
749.432	53.12
749.749	53.13
750.067	53.12
750.385	53.1
750.703	53.07
751.02	53.08
751.338	53.06
751.655	53.06
751.973	53.06
752.29	53.04
752.608	53.04
752.925	53.03
753.242	53.1
753.56	53.11
753.877	53.08
754.194	53.1
754.511	53.11
754.828	53.09
755.145	53.1
755.462	53.1
755.779	53.11
756.096	53.15
756.413	53.18
756.73	53.18
757.047	53.21
757.364	53.25
757.68	53.29
757.997	53.3
758.314	53.34
758.63	53.38
758.947	53.42
759.264	53.43
759.58	53.47
759.896	53.49
760.213	53.52
760.529	53.52
760.846	53.5
761.162	53.51
761.478	53.53
761.794	53.54
762.11	53.55
762.426	53.57
762.743	53.59
763.059	53.62
763.375	53.66
763.69	53.69
764.006	53.68
764.322	53.71
764.638	53.73
764.954	53.77
765.27	53.82
765.585	53.81
765.901	53.86
766.216	53.77
766.532	53.75
766.848	53.73
767.163	53.75
767.478	53.78
767.794	53.8
768.109	53.82
768.424	53.83
768.74	53.84
769.055	53.8
769.37	53.81
769.685	53.78
770	53.76
770.315	53.75
770.63	53.69
770.945	53.65
771.26	53.63
771.575	53.56
771.89	53.52
772.205	53.57
772.52	53.5
772.834	53.54
773.149	53.53
773.464	53.51
773.778	53.48
774.093	53.49
774.407	53.44
774.722	53.41
775.036	53.39
775.351	53.36
775.665	53.28
775.979	53.26
776.293	53.24
776.608	53.25
776.922	53.23
777.236	53.3
777.55	53.35
777.864	53.34
778.178	53.27
778.492	53.27
778.806	53.27
779.12	53.28
779.434	53.31
779.747	53.32
780.061	53.41
780.375	53.37
780.689	53.31
781.002	53.29
781.316	53.25
781.629	53.3
781.943	53.34
782.256	53.37
782.57	53.48
782.883	53.51
783.196	53.43
783.51	53.48
783.823	53.54
784.136	53.54
784.449	53.62
784.762	53.67
785.075	53.62
785.388	53.63
785.701	53.67
786.014	53.66
786.327	53.65
786.64	53.65
786.953	53.63
787.266	53.65
787.578	53.7
787.891	53.74
788.204	53.71
788.516	53.78
788.829	53.76
789.141	53.73
789.454	53.78
789.766	53.82
790.079	53.81
790.391	53.75
790.703	53.76
791.016	53.77
791.328	53.76
791.64	53.73
791.952	53.78
792.264	53.82
792.576	53.85
792.888	53.84
793.2	53.79
793.512	53.88
793.824	53.83
794.136	53.88
794.448	53.9
794.76	53.94
795.071	53.94
795.383	53.94
795.695	53.94
796.006	54.02
796.318	54.01
796.629	54.01
796.941	54.02
797.252	54
797.564	53.98
797.875	53.97
798.186	53.93
798.497	53.92
798.809	53.9
799.12	53.91
799.431	53.91
799.742	53.91
800.053	53.92
800.364	53.94
800.675	53.92
800.986	53.95
801.297	53.99
801.608	54.01
801.918	53.99
802.229	53.88
802.54	53.83
802.851	53.83
803.161	53.85
803.472	53.9
803.782	53.89
804.093	53.96
804.403	53.92
804.714	53.94
805.024	53.91
805.334	53.97
805.645	53.96
805.955	54
806.265	53.94
806.575	53.97
806.885	53.88
807.195	53.88
807.505	53.89
807.815	53.87
808.125	53.83
808.435	53.86
808.745	53.83
809.055	53.85
809.365	53.86
809.674	53.86
809.984	53.91
810.294	53.94
810.603	53.97
810.913	54.12
811.222	54.01
811.532	54.02
811.841	54.06
812.151	54.1
812.46	54.12
812.769	54.11
813.079	54.18
813.388	54.22
813.697	54.22
814.006	54.2
814.315	54.22
814.624	54.31
814.933	54.43
815.242	54.44
815.551	54.5
815.86	54.51
816.169	54.57
816.478	54.6
816.786	54.65
817.095	54.69
817.404	54.72
817.712	54.83
818.021	54.84
818.33	54.93
818.638	54.95
818.947	54.99
819.255	54.98
819.563	55.06
819.872	55.09
820.18	55.1
820.488	55.16
820.796	55.14
821.105	55.14
821.413	55.16
821.721	55.19
822.029	55.21
822.337	55.24
822.645	55.21
822.953	55.21
823.26	55.24
823.568	55.25
823.876	55.25
824.184	55.27
824.491	55.26
824.799	55.26
825.107	55.27
825.414	55.31
825.722	55.32
826.029	55.33
826.337	55.33
826.644	55.31
826.951	55.34
827.259	55.35
827.566	55.38
827.873	55.39
828.18	55.39
828.488	55.42
828.795	55.41
829.102	55.42
829.409	55.42
829.716	55.41
830.023	55.44
830.329	55.41
830.636	55.41
830.943	55.38
831.25	55.41
831.557	55.4
831.863	55.44
832.17	55.41
832.476	55.37
832.783	55.35
833.089	55.31
833.396	55.29
833.702	55.3
834.009	55.3
834.315	55.29
834.621	55.32
834.928	55.26
835.234	55.31
835.54	55.29
835.846	55.27
836.152	55.24
836.458	55.24
836.764	55.2
837.07	55.23
837.376	55.19
837.682	55.18
837.988	55.17
838.293	55.07
838.599	55.08
838.905	55.12
839.211	55.18
839.516	55.13
839.822	55.13
840.127	55.03
840.433	55.05
840.738	55.05
841.044	55
841.349	55.05
841.654	55.06
841.959	55.1
842.265	55.14
842.57	55.1
842.875	55.21
843.18	55.24
843.485	55.32
843.79	55.36
844.095	55.43
844.4	55.32
844.705	55.33
845.01	55.4
845.315	55.42
845.619	55.32
845.924	55.31
846.229	55.19
846.533	55.09
846.838	55.05
847.142	55
847.447	55.13
847.751	55.01
848.056	54.98
848.36	55.04
848.664	54.98
848.969	54.92
849.273	54.84
849.577	54.66
849.881	54.61
850.185	54.59
850.489	54.71
850.794	54.76
851.097	54.67
851.401	54.7
851.705	54.79
852.009	54.95
852.313	55
852.617	55.11
852.92	55.05
853.224	54.91
853.528	54.73
853.831	54.72
854.135	54.6
854.438	54.62
854.742	54.77
855.045	54.84
855.349	54.82
855.652	54.98
855.955	54.95
856.259	54.84
856.562	54.93
856.865	54.98
857.168	55.03
857.471	54.97
857.774	54.91
858.077	54.74
858.38	54.88
858.683	54.72
858.986	54.74
859.289	54.92
859.592	54.77
859.894	54.83
860.197	54.89
860.5	54.96
860.802	54.98
861.105	55.26
861.407	55.35
861.71	55.4
862.012	55.35
862.315	55.39
862.617	55.25
862.919	54.95
863.222	55.07
863.524	55.09
863.826	55.12
864.128	55.15
864.43	55.16
864.732	55.11
865.034	55.09
865.336	55.06
865.638	55
865.94	54.94
866.242	54.83
866.544	54.66
866.846	54.81
867.147	54.47
867.449	54.25
867.751	54.15
868.052	54.17
868.354	54.06
868.655	54.18
868.957	54.18
869.258	54.44
869.56	54.5
869.861	54.52
870.162	54.44
870.463	54.53
870.765	54.56
871.066	54.55
871.367	54.48
871.668	54.56
871.969	54.71
872.27	54.71
872.571	54.7
872.872	54.87
873.173	54.74
873.473	54.7
873.774	54.8
874.075	54.76
874.376	54.9
874.676	54.9
874.977	54.85
875.277	54.77
875.578	54.67
875.878	54.53
876.179	54.57
876.479	54.4
876.78	54.35
877.08	54.28
877.38	54.36
877.68	54.46
877.981	54.47
878.281	54.58
878.581	54.59
