Data from UWBM59058_Reflection_00005.txt Node
Date: Sun May 02 12:58:11 EDT 2021
User: vgr7
Spectrometer: USB2G7710
Scans to average: 10
Trigger mode: 4
Integration Time (sec): 1.000000E-1
Electric dark correction enabled: true
Boxcar width: 20
XAxis mode: Wavelengths
Number of Pixels in Spectrum: 2048
>>>>>Begin Spectral Data<<<<<
177.721	103.58
178.105	102.91
178.488	103
178.871	104.76
179.254	105
179.636	102.77
180.019	101.76
180.402	101.66
180.785	99.98
181.168	97.86
181.55	95.17
181.933	106.48
182.316	109.06
182.698	110.74
183.081	111.27
183.463	112.78
183.846	114.14
184.228	115.32
184.611	117
184.993	120.06
185.376	123.52
185.758	-71.59
186.14	-27.75
186.522	-4.2
186.904	8.71
187.287	19.8
187.669	23.26
188.051	23.49
188.433	27.92
188.815	24.21
189.197	26.11
189.579	28.71
189.961	30.16
190.342	28.99
190.724	31.05
191.106	29.71
191.488	28.43
191.869	25.06
192.251	25.35
192.633	19.98
193.014	15.63
193.396	13.57
193.777	20.63
194.159	21.31
194.54	18.62
194.922	19.21
195.303	22.07
195.684	23.11
196.065	21.79
196.447	19.43
196.828	18.73
197.209	19.85
197.59	10.96
197.971	10.42
198.352	12.37
198.733	15.14
199.114	13.98
199.495	14.7
199.876	14.1
200.257	13.82
200.638	13.62
201.018	9.06
201.399	9.03
201.78	8.63
202.16	8.38
202.541	8.41
202.922	6.54
203.302	2.07
203.683	1.83
204.063	0.63
204.444	2.37
204.824	3.51
205.204	5.29
205.585	12.16
205.965	11.77
206.345	12.15
206.725	6.96
207.106	8.08
207.486	8.73
207.866	7.92
208.246	8.85
208.626	11.95
209.006	17.06
209.386	12.08
209.766	10.7
210.145	10.53
210.525	8.81
210.905	8.82
211.285	9.58
211.664	8.95
212.044	10.34
212.424	9.49
212.803	4.32
213.183	6.94
213.562	8.23
213.942	7.36
214.321	2.65
214.701	3.64
215.08	3.73
215.459	4.45
215.838	3.78
216.218	4.49
216.597	3.34
216.976	-0.64
217.355	-1.17
217.734	0.31
218.113	1.16
218.492	3.37
218.871	5.48
219.25	6.04
219.629	4.82
220.008	3.7
220.387	5.75
220.766	5.46
221.144	5.03
221.523	7.02
221.902	8.08
222.28	8.49
222.659	9.65
223.037	9.6
223.416	10.73
223.794	11.69
224.173	11.09
224.551	10.32
224.929	11.27
225.308	12.27
225.686	11.58
226.064	11.92
226.442	11.35
226.821	10.77
227.199	10.43
227.577	9.77
227.955	9.79
228.333	9.72
228.711	9.52
229.089	9.7
229.467	9.14
229.845	9.93
230.222	9.51
230.6	9.89
230.978	9.76
231.356	9.22
231.733	9.17
232.111	8.93
232.488	8.78
232.866	8.75
233.243	8.07
233.621	8.06
233.998	7.51
234.376	7.51
234.753	7.55
235.13	7.56
235.508	8.06
235.885	7.99
236.262	7.9
236.639	7.91
237.016	7.69
237.393	7.48
237.77	7.33
238.147	7.2
238.524	7.13
238.901	7.11
239.278	7.09
239.655	6.98
240.032	6.86
240.409	6.79
240.785	6.67
241.162	6.74
241.539	6.67
241.915	6.71
242.292	6.65
242.668	6.59
243.045	6.59
243.421	6.43
243.798	6.38
244.174	6.37
244.551	6.28
244.927	6.08
245.303	6.04
245.679	6.04
246.056	5.97
246.432	5.95
246.808	5.71
247.184	5.7
247.56	5.68
247.936	5.69
248.312	5.67
248.688	5.73
249.064	5.67
249.44	5.62
249.815	5.65
250.191	5.59
250.567	5.58
250.943	5.66
251.318	5.62
251.694	5.55
252.069	5.47
252.445	5.46
252.82	5.56
253.196	5.54
253.571	5.49
253.947	5.57
254.322	5.5
254.697	5.63
255.073	5.64
255.448	5.61
255.823	5.57
256.198	5.5
256.573	5.3
256.948	5.29
257.323	5.27
257.698	5.21
258.073	5.21
258.448	5.06
258.823	5.05
259.198	5.03
259.573	5.06
259.948	5.1
260.322	5.06
260.697	5.06
261.072	5.04
261.446	5.01
261.821	4.98
262.195	4.94
262.57	4.9
262.944	4.9
263.319	4.88
263.693	4.89
264.067	4.92
264.442	5.04
264.816	5.03
265.19	4.99
265.564	5.03
265.938	5
266.313	5.05
266.687	5.01
267.061	5.01
267.435	5
267.809	5
268.183	4.97
268.556	5
268.93	5
269.304	4.97
269.678	4.94
270.051	4.92
270.425	4.91
270.799	4.91
271.172	4.91
271.546	4.93
271.919	4.94
272.293	4.91
272.666	4.91
273.04	4.92
273.413	4.86
273.787	4.86
274.16	4.86
274.533	4.89
274.906	4.87
275.279	4.88
275.653	4.87
276.026	4.84
276.399	4.82
276.772	4.84
277.145	4.86
277.518	4.87
277.891	4.9
278.263	4.91
278.636	4.91
279.009	4.93
279.382	4.9
279.755	4.83
280.127	4.86
280.5	4.86
280.872	4.84
281.245	4.95
281.617	4.96
281.99	4.97
282.362	5
282.735	4.98
283.107	4.98
283.479	4.99
283.852	5
284.224	5.02
284.596	4.99
284.968	4.86
285.34	4.84
285.713	4.81
286.085	4.75
286.457	4.75
286.829	4.72
287.201	4.71
287.572	4.74
287.944	4.74
288.316	4.77
288.688	4.79
289.06	4.78
289.431	4.78
289.803	4.77
290.175	4.77
290.546	4.77
290.918	4.77
291.289	4.74
291.661	4.75
292.032	4.69
292.403	4.71
292.775	4.79
293.146	4.78
293.517	4.8
293.889	4.87
294.26	4.85
294.631	4.86
295.002	4.89
295.373	4.91
295.744	4.89
296.115	4.88
296.486	4.81
296.857	4.8
297.228	4.79
297.599	4.76
297.97	4.75
298.34	4.74
298.711	4.67
299.082	4.67
299.452	4.68
299.823	4.71
300.194	4.71
300.564	4.71
300.935	4.7
301.305	4.68
301.676	4.66
302.046	4.65
302.416	4.64
302.787	4.66
303.157	4.58
303.527	4.57
303.897	4.56
304.267	4.56
304.637	4.57
305.008	4.57
305.378	4.56
305.748	4.55
306.117	4.61
306.487	4.65
306.857	4.69
307.227	4.68
307.597	4.66
307.967	4.65
308.336	4.65
308.706	4.68
309.076	4.67
309.445	4.65
309.815	4.54
310.184	4.53
310.554	4.47
310.923	4.51
311.293	4.52
311.662	4.51
312.031	4.49
312.401	4.47
312.77	4.44
313.139	4.43
313.508	4.46
313.877	4.4
314.246	4.36
314.616	4.34
314.985	4.26
315.353	4.27
315.722	4.25
316.091	4.25
316.46	4.23
316.829	4.26
317.198	4.27
317.567	4.42
317.935	4.4
318.304	4.44
318.672	4.47
319.041	4.46
319.41	4.46
319.778	4.47
320.147	4.48
320.515	4.47
320.883	4.44
321.252	4.36
321.62	4.4
321.988	4.41
322.357	4.41
322.725	4.45
323.093	4.46
323.461	4.46
323.829	4.45
324.197	4.44
324.565	4.42
324.933	4.42
325.301	4.4
325.669	4.39
326.037	4.37
326.405	4.32
326.772	4.3
327.14	4.3
327.508	4.29
327.875	4.28
328.243	4.29
328.61	4.25
328.978	4.26
329.346	4.27
329.713	4.24
330.08	4.25
330.448	4.23
330.815	4.21
331.182	4.22
331.55	4.22
331.917	4.22
332.284	4.22
332.651	4.23
333.018	4.22
333.385	4.22
333.752	4.22
334.119	4.24
334.486	4.26
334.853	4.23
335.22	4.23
335.587	4.22
335.954	4.24
336.32	4.26
336.687	4.26
337.054	4.25
337.42	4.27
337.787	4.27
338.153	4.28
338.52	4.31
338.886	4.33
339.253	4.31
339.619	4.29
339.986	4.27
340.352	4.26
340.718	4.27
341.084	4.27
341.451	4.26
341.817	4.25
342.183	4.23
342.549	4.25
342.915	4.26
343.281	4.28
343.647	4.27
344.013	4.3
344.379	4.32
344.745	4.31
345.11	4.31
345.476	4.33
345.842	4.34
346.208	4.31
346.573	4.3
346.939	4.32
347.304	4.3
347.67	4.29
348.035	4.31
348.401	4.3
348.766	4.32
349.132	4.32
349.497	4.33
349.862	4.34
350.228	4.35
350.593	4.35
350.958	4.34
351.323	4.32
351.688	4.32
352.053	4.31
352.418	4.3
352.783	4.29
353.148	4.27
353.513	4.26
353.878	4.26
354.243	4.26
354.608	4.26
354.972	4.27
355.337	4.27
355.702	4.25
356.066	4.27
356.431	4.25
356.795	4.26
357.16	4.24
357.524	4.23
357.889	4.23
358.253	4.22
358.618	4.23
358.982	4.24
359.346	4.24
359.71	4.24
360.075	4.24
360.439	4.24
360.803	4.23
361.167	4.22
361.531	4.24
361.895	4.23
362.259	4.23
362.623	4.23
362.987	4.22
363.351	4.23
363.714	4.23
364.078	4.22
364.442	4.22
364.806	4.24
365.169	4.22
365.533	4.22
365.896	4.21
366.26	4.21
366.623	4.21
366.987	4.2
367.35	4.21
367.714	4.22
368.077	4.22
368.44	4.22
368.803	4.22
369.167	4.22
369.53	4.23
369.893	4.24
370.256	4.24
370.619	4.25
370.982	4.24
371.345	4.24
371.708	4.25
372.071	4.24
372.434	4.25
372.797	4.26
373.159	4.28
373.522	4.27
373.885	4.26
374.247	4.24
374.61	4.24
374.973	4.24
375.335	4.23
375.698	4.24
376.06	4.24
376.423	4.23
376.785	4.23
377.147	4.22
377.51	4.23
377.872	4.23
378.234	4.23
378.596	4.24
378.958	4.25
379.321	4.25
379.683	4.25
380.045	4.24
380.407	4.24
380.769	4.24
381.13	4.24
381.492	4.25
381.854	4.24
382.216	4.24
382.578	4.24
382.939	4.25
383.301	4.24
383.663	4.25
384.024	4.24
384.386	4.24
384.747	4.23
385.109	4.22
385.47	4.21
385.832	4.22
386.193	4.22
386.554	4.21
386.916	4.22
387.277	4.21
387.638	4.22
387.999	4.22
388.36	4.22
388.721	4.23
389.082	4.23
389.443	4.22
389.804	4.22
390.165	4.23
390.526	4.22
390.887	4.22
391.248	4.22
391.609	4.23
391.969	4.23
392.33	4.24
392.691	4.23
393.051	4.24
393.412	4.23
393.772	4.23
394.133	4.24
394.493	4.23
394.854	4.24
395.214	4.23
395.574	4.22
395.935	4.22
396.295	4.22
396.655	4.22
397.015	4.23
397.376	4.22
397.736	4.23
398.096	4.23
398.456	4.23
398.816	4.25
399.176	4.24
399.535	4.25
399.895	4.25
400.255	4.25
400.615	4.25
400.975	4.25
401.334	4.25
401.694	4.26
402.054	4.26
402.413	4.24
402.773	4.25
403.132	4.26
403.492	4.26
403.851	4.26
404.211	4.27
404.57	4.29
404.929	4.3
405.288	4.3
405.648	4.3
406.007	4.3
406.366	4.3
406.725	4.31
407.084	4.31
407.443	4.31
407.802	4.31
408.161	4.3
408.52	4.3
408.879	4.3
409.238	4.3
409.596	4.3
409.955	4.32
410.314	4.32
410.673	4.32
411.031	4.33
411.39	4.34
411.748	4.35
412.107	4.35
412.465	4.36
412.824	4.39
413.182	4.41
413.54	4.44
413.899	4.46
414.257	4.5
414.615	4.54
414.974	4.58
415.332	4.62
415.69	4.67
416.048	4.7
416.406	4.75
416.764	4.78
417.122	4.82
417.48	4.85
417.838	4.88
418.195	4.91
418.553	4.94
418.911	4.96
419.269	4.96
419.626	4.96
419.984	4.95
420.342	4.94
420.699	4.92
421.057	4.9
421.414	4.89
421.772	4.88
422.129	4.88
422.486	4.88
422.844	4.88
423.201	4.88
423.558	4.88
423.915	4.88
424.273	4.88
424.63	4.88
424.987	4.88
425.344	4.88
425.701	4.88
426.058	4.89
426.415	4.89
426.772	4.88
427.128	4.88
427.485	4.87
427.842	4.87
428.199	4.86
428.555	4.84
428.912	4.82
429.269	4.8
429.625	4.78
429.982	4.75
430.338	4.72
430.695	4.7
431.051	4.66
431.407	4.64
431.764	4.63
432.12	4.6
432.476	4.6
432.832	4.59
433.189	4.59
433.545	4.6
433.901	4.61
434.257	4.64
434.613	4.66
434.969	4.69
435.325	4.73
435.681	4.77
436.036	4.78
436.392	4.81
436.748	4.82
437.104	4.82
437.459	4.84
437.815	4.86
438.171	4.88
438.526	4.91
438.882	4.94
439.237	4.98
439.593	5.02
439.948	5.05
440.304	5.1
440.659	5.13
441.014	5.15
441.369	5.18
441.725	5.19
442.08	5.22
442.435	5.22
442.79	5.23
443.145	5.23
443.5	5.24
443.855	5.24
444.21	5.23
444.565	5.23
444.92	5.22
445.275	5.21
445.629	5.2
445.984	5.19
446.339	5.18
446.693	5.18
447.048	5.16
447.403	5.15
447.757	5.12
448.112	5.1
448.466	5.08
448.82	5.06
449.175	5.04
449.529	5.02
449.883	5.01
450.238	4.98
450.592	4.98
450.946	4.97
451.3	4.98
451.654	4.99
452.008	4.99
452.362	5
452.716	5
453.07	5
453.424	5
453.778	4.99
454.132	4.98
454.486	4.97
454.839	4.95
455.193	4.92
455.547	4.91
455.9	4.87
456.254	4.85
456.607	4.81
456.961	4.78
457.314	4.77
457.668	4.76
458.021	4.75
458.375	4.74
458.728	4.75
459.081	4.75
459.434	4.76
459.787	4.77
460.141	4.78
460.494	4.79
460.847	4.79
461.2	4.79
461.553	4.8
461.906	4.81
462.259	4.81
462.611	4.82
462.964	4.82
463.317	4.83
463.67	4.83
464.022	4.83
464.375	4.83
464.728	4.83
465.08	4.83
465.433	4.83
465.785	4.82
466.138	4.8
466.49	4.78
466.843	4.75
467.195	4.73
467.547	4.7
467.899	4.68
468.252	4.64
468.604	4.61
468.956	4.59
469.308	4.57
469.66	4.56
470.012	4.55
470.364	4.56
470.716	4.56
471.068	4.58
471.42	4.6
471.772	4.62
472.123	4.63
472.475	4.64
472.827	4.65
473.178	4.66
473.53	4.67
473.882	4.68
474.233	4.7
474.585	4.74
474.936	4.8
475.288	4.9
475.639	5.03
475.99	5.18
476.342	5.34
476.693	5.53
477.044	5.71
477.395	5.9
477.746	6.1
478.097	6.29
478.448	6.49
478.8	6.68
479.15	6.86
479.501	7.02
479.852	7.18
480.203	7.32
480.554	7.45
480.905	7.59
481.255	7.72
481.606	7.84
481.957	7.94
482.307	8.05
482.658	8.15
483.009	8.25
483.359	8.34
483.709	8.43
484.06	8.52
484.41	8.61
484.761	8.69
485.111	8.77
485.461	8.84
485.811	8.91
486.162	8.97
486.512	9.03
486.862	9.07
487.212	9.1
487.562	9.13
487.912	9.14
488.262	9.14
488.612	9.14
488.961	9.12
489.311	9.07
489.661	8.99
490.011	8.89
490.36	8.77
490.71	8.63
491.06	8.47
491.409	8.31
491.759	8.14
492.108	7.96
492.458	7.78
492.807	7.59
493.157	7.41
493.506	7.22
493.855	7.05
494.204	6.89
494.554	6.73
494.903	6.59
495.252	6.45
495.601	6.32
495.95	6.18
496.299	6.07
496.648	5.95
496.997	5.84
497.346	5.74
497.695	5.64
498.043	5.54
498.392	5.45
498.741	5.36
499.09	5.26
499.438	5.18
499.787	5.1
500.135	5.02
500.484	4.96
500.832	4.9
501.181	4.85
501.529	4.82
501.878	4.79
502.226	4.78
502.574	4.77
502.923	4.76
503.271	4.76
503.619	4.76
503.967	4.76
504.315	4.75
504.663	4.74
505.011	4.74
505.359	4.73
505.707	4.72
506.055	4.72
506.403	4.72
506.751	4.72
507.098	4.72
507.446	4.73
507.794	4.74
508.141	4.75
508.489	4.77
508.837	4.78
509.184	4.79
509.531	4.81
509.879	4.82
510.226	4.83
510.574	4.85
510.921	4.87
511.268	4.88
511.616	4.9
511.963	4.92
512.31	4.94
512.657	4.96
513.004	4.98
513.351	4.99
513.698	5
514.045	5.01
514.392	5.01
514.739	5.01
515.086	5.01
515.432	5.01
515.779	5
516.126	5
516.473	5
516.819	5
517.166	5.01
517.512	5.01
517.859	5.02
518.205	5.04
518.552	5.07
518.898	5.1
519.245	5.15
519.591	5.2
519.937	5.28
520.283	5.37
520.629	5.48
520.976	5.6
521.322	5.73
521.668	5.85
522.014	5.98
522.36	6.1
522.706	6.22
523.052	6.35
523.398	6.46
523.743	6.56
524.089	6.64
524.435	6.71
524.781	6.78
525.126	6.84
525.472	6.91
525.817	6.96
526.163	7.02
526.509	7.07
526.854	7.11
527.199	7.16
527.545	7.21
527.89	7.26
528.235	7.31
528.581	7.36
528.926	7.41
529.271	7.46
529.616	7.5
529.961	7.53
530.306	7.55
530.651	7.58
530.996	7.6
531.341	7.61
531.686	7.62
532.031	7.61
532.376	7.61
532.721	7.61
533.065	7.61
533.41	7.61
533.755	7.61
534.099	7.57
534.444	7.54
534.788	7.5
535.133	7.45
535.477	7.4
535.822	7.34
536.166	7.27
536.51	7.2
536.855	7.12
537.199	7.03
537.543	6.94
537.887	6.86
538.231	6.79
538.576	6.73
538.92	6.66
539.264	6.61
539.608	6.54
539.951	6.47
540.295	6.4
540.639	6.34
540.983	6.26
541.327	6.21
541.671	6.14
542.014	6.08
542.358	6.02
542.701	5.97
543.045	5.93
543.389	5.91
543.732	5.88
544.075	5.86
544.419	5.85
544.762	5.81
545.105	5.8
545.449	5.79
545.792	5.78
546.135	5.78
546.478	5.76
546.821	5.74
547.165	5.7
547.508	5.65
547.851	5.6
548.194	5.54
548.536	5.47
548.879	5.4
549.222	5.32
549.565	5.25
549.908	5.17
550.25	5.1
550.593	5.03
550.936	4.98
551.278	4.94
551.621	4.9
551.963	4.87
552.306	4.85
552.648	4.83
552.991	4.81
553.333	4.79
553.675	4.78
554.017	4.78
554.36	4.78
554.702	4.79
555.044	4.8
555.386	4.81
555.728	4.83
556.07	4.84
556.412	4.85
556.754	4.85
557.096	4.85
557.438	4.85
557.78	4.85
558.121	4.84
558.463	4.84
558.805	4.85
559.147	4.85
559.488	4.85
559.83	4.85
560.171	4.86
560.513	4.86
560.854	4.85
561.196	4.85
561.537	4.86
561.878	4.85
562.22	4.86
562.561	4.86
562.902	4.87
563.243	4.88
563.584	4.88
563.925	4.89
564.266	4.89
564.607	4.89
564.948	4.9
565.289	4.9
565.63	4.9
565.971	4.91
566.312	4.91
566.653	4.91
566.993	4.91
567.334	4.91
567.675	4.92
568.015	4.93
568.356	4.93
568.696	4.94
569.037	4.94
569.377	4.94
569.718	4.95
570.058	4.95
570.398	4.94
570.739	4.94
571.079	4.94
571.419	4.94
571.759	4.95
572.099	4.95
572.439	4.95
572.779	4.95
573.119	4.95
573.459	4.94
573.799	4.94
574.139	4.94
574.479	4.95
574.819	4.94
575.158	4.94
575.498	4.94
575.838	4.94
576.177	4.94
576.517	4.93
576.856	4.93
577.196	4.93
577.535	4.92
577.875	4.92
578.214	4.92
578.553	4.92
578.893	4.91
579.232	4.91
579.571	4.91
579.91	4.9
580.25	4.9
580.589	4.9
580.928	4.89
581.267	4.88
581.606	4.88
581.945	4.87
582.283	4.87
582.622	4.87
582.961	4.87
583.3	4.87
583.639	4.87
583.977	4.87
584.316	4.87
584.654	4.87
584.993	4.87
585.332	4.86
585.67	4.86
586.008	4.86
586.347	4.86
586.685	4.86
587.024	4.87
587.362	4.86
587.7	4.87
588.038	4.87
588.376	4.86
588.715	4.87
589.053	4.87
589.391	4.88
589.729	4.89
590.067	4.89
590.404	4.89
590.742	4.9
591.08	4.89
591.418	4.9
591.756	4.9
592.093	4.91
592.431	4.92
592.769	4.92
593.106	4.92
593.444	4.93
593.781	4.92
594.119	4.93
594.456	4.93
594.793	4.93
595.131	4.93
595.468	4.94
595.805	4.94
596.143	4.94
596.48	4.95
596.817	4.95
597.154	4.96
597.491	4.96
597.828	4.97
598.165	4.97
598.502	4.98
598.839	4.98
599.176	4.98
599.512	4.99
599.849	4.99
600.186	5
600.523	4.99
600.859	5
601.196	5
601.532	5.01
601.869	5.01
602.205	5.01
602.542	5.01
602.878	5.01
603.215	5.01
603.551	5
603.887	5
604.223	5
604.56	5
604.896	5.01
605.232	5.01
605.568	5.01
605.904	5.01
606.24	5.01
606.576	5.01
606.912	5.02
607.248	5.02
607.583	5.02
607.919	5.02
608.255	5.02
608.591	5.02
608.926	5.02
609.262	5.01
609.597	5.01
609.933	5.01
610.268	5.02
610.604	5.03
610.939	5.03
611.275	5.02
611.61	5.02
611.945	5.02
612.281	5.01
612.616	5
612.951	4.99
613.286	4.98
613.621	4.97
613.956	4.97
614.291	4.97
614.626	4.97
614.961	4.98
615.296	4.98
615.631	4.98
615.966	4.98
616.3	4.98
616.635	4.99
616.97	4.98
617.304	4.97
617.639	4.97
617.973	4.97
618.308	4.97
618.642	4.97
618.977	4.96
619.311	4.95
619.646	4.95
619.98	4.96
620.314	4.96
620.648	4.97
620.983	4.97
621.317	4.97
621.651	4.97
621.985	4.97
622.319	4.97
622.653	4.98
622.987	4.99
623.321	4.99
623.655	5
623.988	5.01
624.322	5
624.656	5.01
624.99	5
625.323	5.01
625.657	5.01
625.99	5.03
626.324	5.04
626.657	5.05
626.991	5.06
627.324	5.06
627.658	5.06
627.991	5.06
628.324	5.06
628.657	5.07
628.991	5.08
629.324	5.08
629.657	5.1
629.99	5.1
630.323	5.1
630.656	5.11
630.989	5.11
631.322	5.12
631.655	5.12
631.987	5.11
632.32	5.11
632.653	5.12
632.986	5.13
633.318	5.12
633.651	5.12
633.984	5.13
634.316	5.14
634.649	5.13
634.981	5.14
635.313	5.14
635.646	5.13
635.978	5.12
636.31	5.12
636.643	5.12
636.975	5.12
637.307	5.11
637.639	5.12
637.971	5.13
638.303	5.13
638.635	5.13
638.967	5.14
639.299	5.14
639.631	5.14
639.963	5.15
640.295	5.15
640.626	5.16
640.958	5.16
641.29	5.16
641.621	5.17
641.953	5.18
642.285	5.18
642.616	5.19
642.948	5.18
643.279	5.2
643.61	5.2
643.942	5.2
644.273	5.2
644.604	5.2
644.936	5.2
645.267	5.2
645.598	5.21
645.929	5.21
646.26	5.22
646.591	5.22
646.922	5.22
647.253	5.22
647.584	5.21
647.915	5.22
648.245	5.23
648.576	5.23
648.907	5.22
649.238	5.23
649.568	5.22
649.899	5.22
650.229	5.23
650.56	5.24
650.89	5.25
651.221	5.25
651.551	5.25
651.882	5.25
652.212	5.25
652.542	5.25
652.872	5.26
653.203	5.27
653.533	5.26
653.863	5.26
654.193	5.25
654.523	5.25
654.853	5.25
655.183	5.25
655.513	5.25
655.843	5.26
656.172	5.27
656.502	5.27
656.832	5.25
657.162	5.25
657.491	5.26
657.821	5.24
658.15	5.24
658.48	5.24
658.809	5.23
659.139	5.24
659.468	5.25
659.798	5.25
660.127	5.26
660.456	5.3
660.785	5.3
661.115	5.32
661.444	5.31
661.773	5.32
662.102	5.32
662.431	5.33
662.76	5.34
663.089	5.33
663.418	5.34
663.747	5.34
664.076	5.35
664.404	5.34
664.733	5.34
665.062	5.36
665.39	5.37
665.719	5.36
666.048	5.35
666.376	5.34
666.705	5.33
667.033	5.32
667.362	5.31
667.69	5.33
668.018	5.32
668.347	5.33
668.675	5.31
669.003	5.31
669.331	5.32
669.659	5.32
669.987	5.33
670.315	5.34
670.643	5.36
670.971	5.36
671.299	5.36
671.627	5.36
671.955	5.36
672.283	5.35
672.61	5.37
672.938	5.38
673.266	5.38
673.593	5.37
673.921	5.38
674.249	5.39
674.576	5.4
674.904	5.43
675.231	5.42
675.558	5.45
675.886	5.46
676.213	5.45
676.54	5.46
676.867	5.47
677.195	5.47
677.522	5.48
677.849	5.51
678.176	5.51
678.503	5.53
678.83	5.53
679.157	5.54
679.484	5.54
679.81	5.53
680.137	5.53
680.464	5.54
680.791	5.55
681.117	5.54
681.444	5.54
681.771	5.53
682.097	5.55
682.424	5.54
682.75	5.53
683.077	5.52
683.403	5.52
683.729	5.52
684.056	5.52
684.382	5.51
684.708	5.51
685.034	5.53
685.36	5.53
685.686	5.55
686.012	5.56
686.339	5.58
686.664	5.59
686.99	5.61
687.316	5.61
687.642	5.63
687.968	5.65
688.294	5.65
688.619	5.65
688.945	5.66
689.271	5.67
689.596	5.67
689.922	5.7
690.247	5.71
690.573	5.73
690.898	5.76
691.224	5.75
691.549	5.75
691.874	5.73
692.2	5.75
692.525	5.77
692.85	5.77
693.175	5.79
693.5	5.81
693.825	5.82
694.15	5.81
694.475	5.81
694.8	5.81
695.125	5.82
695.45	5.84
695.775	5.85
696.099	5.85
696.424	5.86
696.749	5.87
697.073	5.87
697.398	5.88
697.723	5.88
698.047	5.89
698.372	5.89
698.696	5.88
699.02	5.88
699.345	5.88
699.669	5.88
699.993	5.87
700.318	5.85
700.642	5.85
700.966	5.85
701.29	5.84
701.614	5.85
701.938	5.84
702.262	5.85
702.586	5.85
702.91	5.86
703.234	5.87
703.557	5.86
703.881	5.85
704.205	5.86
704.529	5.9
704.852	5.89
705.176	5.92
705.499	5.94
705.823	5.94
706.146	5.93
706.47	5.93
706.793	5.95
707.117	6.06
707.44	6.07
707.763	6.04
708.086	6.04
708.409	6.02
708.733	6.01
709.056	6.01
709.379	6.02
709.702	6.06
710.025	6.06
710.348	5.89
710.671	5.88
710.993	5.9
711.316	5.88
711.639	5.89
711.962	5.89
712.284	5.9
712.607	5.93
712.93	5.95
713.252	5.99
713.575	5.98
713.897	5.96
714.22	5.98
714.542	6.02
714.864	6.08
715.187	6.12
715.509	6.12
715.831	6.1
716.153	6.12
716.475	6.1
716.798	6.09
717.12	6.27
717.442	6.28
717.764	6.25
718.085	6.18
718.407	6.18
718.729	6.17
719.051	6.19
719.373	6.21
719.695	6.21
720.016	6.18
720.338	6.11
720.659	6.13
720.981	6.17
721.302	6.19
721.624	6.21
721.945	6.2
722.267	6.21
722.588	6.2
722.909	6.2
723.231	6.23
723.552	6.25
723.873	6.27
724.194	6.27
724.515	6.3
724.836	6.43
725.157	6.43
725.478	6.44
725.799	6.46
726.12	6.45
726.441	6.44
726.762	6.47
727.083	6.46
727.403	6.47
727.724	6.43
728.045	6.37
728.365	6.38
728.686	6.43
729.006	6.45
729.327	6.45
729.647	6.45
729.967	6.43
730.288	6.46
730.608	6.47
730.928	6.49
731.249	6.48
731.569	6.49
731.889	6.48
732.209	6.49
732.529	6.49
732.849	6.51
733.169	6.54
733.489	6.53
733.809	6.55
734.129	6.55
734.448	6.58
734.768	6.57
735.088	6.59
735.408	6.58
735.727	6.59
736.047	6.64
736.366	6.64
736.686	6.65
737.005	6.66
737.325	6.64
737.644	6.65
737.963	6.65
738.283	6.65
738.602	6.65
738.921	6.64
739.24	6.62
739.56	6.62
739.879	6.63
740.198	6.67
740.517	6.68
740.836	6.68
741.155	6.68
741.473	6.71
741.792	6.71
742.111	6.72
742.43	6.72
742.748	6.7
743.067	6.71
743.386	6.74
743.704	6.75
744.023	6.78
744.341	6.78
744.66	6.79
744.978	6.74
745.297	6.76
745.615	6.74
745.933	6.74
746.252	6.74
746.57	6.67
746.888	6.67
747.206	6.66
747.524	6.63
747.842	6.65
748.16	6.64
748.478	6.64
748.796	6.61
749.114	6.58
749.432	6.57
749.749	6.61
750.067	6.6
750.385	6.59
750.703	6.58
751.02	6.57
751.338	6.59
751.655	6.67
751.973	6.67
752.29	6.68
752.608	6.73
752.925	6.71
753.242	6.79
753.56	6.83
753.877	6.82
754.194	6.88
754.511	6.87
754.828	6.85
755.145	6.9
755.462	6.94
755.779	6.94
756.096	6.98
756.413	6.96
756.73	6.93
757.047	6.94
757.364	6.94
757.68	6.98
757.997	6.99
758.314	6.99
758.63	7
758.947	7.04
759.264	7.02
759.58	7.04
759.896	7.04
760.213	7.09
760.529	7.11
760.846	7.07
761.162	7.1
761.478	7.1
761.794	7.11
762.11	7.11
762.426	7.14
762.743	7.13
763.059	7.22
763.375	7.28
763.69	7.3
764.006	7.31
764.322	7.32
764.638	7.32
764.954	7.38
765.27	7.41
765.585	7.4
765.901	7.43
766.216	7.29
766.532	7.26
766.848	7.25
767.163	7.3
767.478	7.36
767.794	7.39
768.109	7.39
768.424	7.38
768.74	7.42
769.055	7.42
769.37	7.44
769.685	7.45
770	7.45
770.315	7.48
770.63	7.39
770.945	7.33
771.26	7.32
771.575	7.3
771.89	7.3
772.205	7.35
772.52	7.33
772.834	7.52
773.149	7.55
773.464	7.49
773.778	7.49
774.093	7.52
774.407	7.54
774.722	7.55
775.036	7.52
775.351	7.5
775.665	7.47
775.979	7.32
776.293	7.31
776.608	7.31
776.922	7.3
777.236	7.38
777.55	7.45
777.864	7.47
778.178	7.48
778.492	7.47
778.806	7.43
779.12	7.46
779.434	7.47
779.747	7.44
780.061	7.56
780.375	7.48
780.689	7.4
781.002	7.44
781.316	7.45
781.629	7.49
781.943	7.54
782.256	7.6
782.57	7.66
782.883	7.64
783.196	7.58
783.51	7.64
783.823	7.69
784.136	7.66
784.449	7.74
784.762	7.73
785.075	7.81
785.388	7.78
785.701	7.75
786.014	7.71
786.327	7.78
786.64	7.77
786.953	7.78
787.266	7.85
787.578	7.85
787.891	7.89
788.204	7.88
788.516	7.9
788.829	7.97
789.141	7.94
789.454	7.96
789.766	8
790.079	8.01
790.391	8.02
790.703	8.12
791.016	7.98
791.328	8
791.64	8.05
791.952	8.1
792.264	8.14
792.576	8.14
792.888	8.13
793.2	8.15
793.512	8.18
793.824	8.12
794.136	8.14
794.448	8.18
794.76	8.2
795.071	8.2
795.383	8.19
795.695	8.36
796.006	8.46
796.318	8.49
796.629	8.51
796.941	8.52
797.252	8.51
797.564	8.61
797.875	8.52
798.186	8.53
798.497	8.55
798.809	8.44
799.12	8.43
799.431	8.42
799.742	8.43
800.053	8.36
800.364	8.45
800.675	8.49
800.986	8.5
801.297	8.65
801.608	8.63
801.918	8.64
802.229	8.65
802.54	8.59
802.851	8.58
803.161	8.56
803.472	8.55
803.782	8.53
804.093	8.58
804.403	8.48
804.714	8.58
805.024	8.54
805.334	8.68
805.645	8.65
805.955	8.74
806.265	8.75
806.575	8.78
806.885	8.68
807.195	8.72
807.505	8.73
807.815	8.69
808.125	8.75
808.435	8.67
808.745	8.65
809.055	8.69
809.365	8.76
809.674	8.81
809.984	8.83
810.294	8.78
810.603	8.8
810.913	9.03
811.222	8.99
811.532	9.06
811.841	9.1
812.151	9.21
812.46	9.17
812.769	9.26
813.079	9.27
813.388	9.26
813.697	9.25
814.006	9.13
814.315	9.19
814.624	9.2
814.933	9.12
815.242	9.06
815.551	9.08
815.86	9
816.169	8.98
816.478	8.92
816.786	8.88
817.095	8.88
817.404	8.86
817.712	8.87
818.021	8.82
818.33	8.84
818.638	8.82
818.947	8.78
819.255	8.79
819.563	8.82
819.872	8.79
820.18	8.79
820.488	8.8
820.796	8.76
821.105	8.75
821.413	8.78
821.721	8.8
822.029	8.81
822.337	8.84
822.645	8.83
822.953	8.84
823.26	8.86
823.568	8.86
823.876	8.81
824.184	8.82
824.491	8.8
824.799	8.78
825.107	8.8
825.414	8.8
825.722	8.79
826.029	8.77
826.337	8.78
826.644	8.77
826.951	8.79
827.259	8.79
827.566	8.84
827.873	8.86
828.18	8.83
828.488	8.83
828.795	8.84
829.102	8.87
829.409	8.9
829.716	8.9
830.023	8.93
830.329	8.97
830.636	8.98
830.943	9.06
831.25	9.11
831.557	9.13
831.863	9.14
832.17	9.14
832.476	9.19
832.783	9.2
833.089	9.21
833.396	9.2
833.702	9.18
834.009	9.09
834.315	9.08
834.621	9.18
834.928	9.15
835.234	9.21
835.54	9.21
835.846	9.26
836.152	9.28
836.458	9.35
836.764	9.32
837.07	9.4
837.376	9.31
837.682	9.17
837.988	9.29
838.293	9.27
838.599	9.36
838.905	9.36
839.211	9.47
839.516	9.53
839.822	9.67
840.127	9.61
840.433	9.71
840.738	9.74
841.044	9.77
841.349	9.85
841.654	9.93
841.959	9.95
842.265	10.01
842.57	10.01
842.875	10.01
843.18	10.2
843.485	10.25
843.79	10.36
844.095	10.61
844.4	10.52
844.705	10.75
845.01	10.79
845.315	10.81
845.619	10.68
845.924	10.62
846.229	10.5
846.533	10.68
846.838	10.75
847.142	10.63
847.447	10.74
847.751	10.5
848.056	10.55
848.36	10.46
848.664	10.35
848.969	10.19
849.273	10.18
849.577	9.89
849.881	9.78
850.185	9.89
850.489	10.12
850.794	10.29
851.097	10.23
851.401	10.34
851.705	10.33
852.009	10.32
852.313	10.31
852.617	10.48
852.92	10.46
853.224	10.35
853.528	10.33
853.831	10.27
854.135	10.22
854.438	10.12
854.742	10.12
855.045	10.17
855.349	10.31
855.652	10.51
855.955	10.58
856.259	10.71
856.562	10.78
856.865	10.77
857.168	10.69
857.471	10.54
857.774	10.45
858.077	10.43
858.38	10.53
858.683	10.56
858.986	10.4
859.289	10.73
859.592	10.74
859.894	11.02
860.197	11.13
860.5	11.2
860.802	11.43
861.105	11.35
861.407	11.65
861.71	11.54
862.012	11.72
862.315	11.82
862.617	11.69
862.919	11.18
863.222	11.22
863.524	11.14
863.826	11.35
864.128	11.54
864.43	11.62
864.732	11.52
865.034	11.63
865.336	11.67
865.638	11.59
865.94	11.4
866.242	11.32
866.544	10.8
866.846	11.24
867.147	10.82
867.449	10.58
867.751	10.77
868.052	10.65
868.354	10.37
868.655	10.39
868.957	10.46
869.258	10.48
869.56	10.41
869.861	10.69
870.162	10.52
870.463	10.51
870.765	10.63
871.066	10.83
871.367	10.82
871.668	10.8
871.969	10.85
872.27	10.7
872.571	10.7
872.872	11.07
873.173	10.81
873.473	11.22
873.774	11.33
874.075	11.35
874.376	11.47
874.676	11.56
874.977	11.54
875.277	11.5
875.578	11.39
875.878	11.29
876.179	11.14
876.479	10.84
876.78	10.76
877.08	10.8
877.38	10.92
877.68	10.94
877.981	10.94
878.281	10.99
878.581	11
