Data from UWBM59333_Reflection_00004.txt Node
Date: Sun May 02 13:47:45 EDT 2021
User: vgr7
Spectrometer: USB2G7710
Scans to average: 10
Trigger mode: 4
Integration Time (sec): 1.000000E-1
Electric dark correction enabled: true
Boxcar width: 20
XAxis mode: Wavelengths
Number of Pixels in Spectrum: 2048
>>>>>Begin Spectral Data<<<<<
177.721	139.86
178.105	152.38
178.488	135.27
178.871	144.79
179.254	122.68
179.636	87.24
180.019	65.77
180.402	53.74
180.785	41.82
181.168	37.34
181.55	33.53
181.933	36.44
182.316	34.17
182.698	35.27
183.081	32.07
183.463	28.61
183.846	25.97
184.228	27.71
184.611	26.57
184.993	24.77
185.376	25.97
185.758	28.62
186.14	27.96
186.522	27.13
186.904	24.78
187.287	24.22
187.669	24.27
188.051	26.36
188.433	27.92
188.815	28.14
189.197	28.64
189.579	27.21
189.961	24.94
190.342	23.54
190.724	23.42
191.106	23.18
191.488	22.05
191.869	20.14
192.251	19.16
192.633	17.84
193.014	15.94
193.396	12.9
193.777	13.82
194.159	12.53
194.54	11.87
194.922	10.29
195.303	11.71
195.684	11.53
196.065	10.94
196.447	11.51
196.828	11.08
197.209	9.24
197.59	6.93
197.971	5.98
198.352	6.77
198.733	8.49
199.114	9.87
199.495	11.59
199.876	9.9
200.257	9.15
200.638	9.64
201.018	9.88
201.399	8.83
201.78	6.74
202.16	7.38
202.541	7.29
202.922	7.32
203.302	8.4
203.683	9.27
204.063	10.46
204.444	10.98
204.824	10.16
205.204	10.41
205.585	11.89
205.965	12.95
206.345	12.56
206.725	12.16
207.106	10.47
207.486	10.72
207.866	12.18
208.246	13.77
208.626	13.7
209.006	13.85
209.386	13.45
209.766	13.51
210.145	12.78
210.525	12.65
210.905	12.98
211.285	13.02
211.664	14.55
212.044	13.12
212.424	12.17
212.803	13.3
213.183	12.82
213.562	14.35
213.942	12.89
214.321	10.54
214.701	9.58
215.08	8.88
215.459	9.12
215.838	9.38
216.218	7.49
216.597	6.23
216.976	7.02
217.355	8.35
217.734	8.29
218.113	8.58
218.492	7.03
218.871	7.33
219.25	6.07
219.629	5.74
220.008	4.6
220.387	4.17
220.766	5.18
221.144	4.4
221.523	4.52
221.902	4.58
222.28	4.57
222.659	5.47
223.037	5.29
223.416	5.37
223.794	4.95
224.173	5.17
224.551	4.91
224.929	5.69
225.308	5.65
225.686	5.73
226.064	5.98
226.442	5.83
226.821	6
227.199	6.27
227.577	6.83
227.955	7.3
228.333	7.41
228.711	7.31
229.089	6.37
229.467	6.29
229.845	6.9
230.222	6.98
230.6	7.12
230.978	6.94
231.356	6.96
231.733	7.22
232.111	6.85
232.488	6.84
232.866	6.45
233.243	6.08
233.621	6.08
233.998	6.11
234.376	5.85
234.753	5.57
235.13	5.7
235.508	5.75
235.885	5.77
236.262	5.58
236.639	5.54
237.016	5.35
237.393	5.33
237.77	5.29
238.147	5.28
238.524	5.31
238.901	5.23
239.278	5.28
239.655	5.32
240.032	5.31
240.409	5.29
240.785	5.32
241.162	5.34
241.539	5.26
241.915	5.31
242.292	5.32
242.668	5.29
243.045	5.24
243.421	5.18
243.798	5.19
244.174	5.25
244.551	5.29
244.927	5.3
245.303	5.29
245.679	5.3
246.056	5.23
246.432	5.27
246.808	5.24
247.184	5.24
247.56	5.29
247.936	5.25
248.312	5.28
248.688	5.29
249.064	5.29
249.44	5.28
249.815	5.25
250.191	5.23
250.567	5.2
250.943	5.17
251.318	5.12
251.694	5.13
252.069	5.1
252.445	5.13
252.82	5.13
253.196	5.13
253.571	5.11
253.947	5.1
254.322	5.07
254.697	5.05
255.073	5
255.448	5.01
255.823	4.96
256.198	4.93
256.573	4.9
256.948	4.91
257.323	4.87
257.698	4.82
258.073	4.8
258.448	4.78
258.823	4.78
259.198	4.77
259.573	4.74
259.948	4.74
260.322	4.74
260.697	4.72
261.072	4.69
261.446	4.69
261.821	4.67
262.195	4.67
262.57	4.65
262.944	4.63
263.319	4.66
263.693	4.65
264.067	4.64
264.442	4.61
264.816	4.61
265.19	4.62
265.564	4.64
265.938	4.63
266.313	4.63
266.687	4.65
267.061	4.64
267.435	4.64
267.809	4.63
268.183	4.61
268.556	4.59
268.93	4.58
269.304	4.57
269.678	4.58
270.051	4.57
270.425	4.56
270.799	4.54
271.172	4.56
271.546	4.57
271.919	4.58
272.293	4.58
272.666	4.57
273.04	4.59
273.413	4.62
273.787	4.65
274.16	4.66
274.533	4.66
274.906	4.65
275.279	4.64
275.653	4.63
276.026	4.63
276.399	4.63
276.772	4.65
277.145	4.64
277.518	4.63
277.891	4.65
278.263	4.64
278.636	4.64
279.009	4.62
279.382	4.63
279.755	4.65
280.127	4.66
280.5	4.66
280.872	4.67
281.245	4.67
281.617	4.67
281.99	4.66
282.362	4.65
282.735	4.66
283.107	4.66
283.479	4.66
283.852	4.67
284.224	4.67
284.596	4.67
284.968	4.66
285.34	4.67
285.713	4.69
286.085	4.7
286.457	4.7
286.829	4.7
287.201	4.69
287.572	4.71
287.944	4.72
288.316	4.7
288.688	4.69
289.06	4.68
289.431	4.68
289.803	4.68
290.175	4.69
290.546	4.71
290.918	4.71
291.289	4.72
291.661	4.73
292.032	4.71
292.403	4.72
292.775	4.73
293.146	4.73
293.517	4.74
293.889	4.74
294.26	4.75
294.631	4.77
295.002	4.78
295.373	4.78
295.744	4.76
296.115	4.76
296.486	4.79
296.857	4.81
297.228	4.82
297.599	4.84
297.97	4.83
298.34	4.83
298.711	4.84
299.082	4.84
299.452	4.85
299.823	4.86
300.194	4.87
300.564	4.87
300.935	4.87
301.305	4.87
301.676	4.86
302.046	4.87
302.416	4.86
302.787	4.84
303.157	4.83
303.527	4.84
303.897	4.84
304.267	4.85
304.637	4.84
305.008	4.84
305.378	4.84
305.748	4.83
306.117	4.83
306.487	4.83
306.857	4.84
307.227	4.85
307.597	4.86
307.967	4.86
308.336	4.87
308.706	4.85
309.076	4.84
309.445	4.84
309.815	4.83
310.184	4.82
310.554	4.81
310.923	4.82
311.293	4.81
311.662	4.79
312.031	4.78
312.401	4.78
312.77	4.76
313.139	4.77
313.508	4.78
313.877	4.77
314.246	4.77
314.616	4.77
314.985	4.76
315.353	4.74
315.722	4.73
316.091	4.72
316.46	4.73
316.829	4.72
317.198	4.71
317.567	4.7
317.935	4.71
318.304	4.71
318.672	4.7
319.041	4.69
319.41	4.67
319.778	4.67
320.147	4.66
320.515	4.65
320.883	4.62
321.252	4.6
321.62	4.58
321.988	4.55
322.357	4.55
322.725	4.54
323.093	4.53
323.461	4.52
323.829	4.53
324.197	4.52
324.565	4.51
324.933	4.5
325.301	4.51
325.669	4.52
326.037	4.49
326.405	4.48
326.772	4.48
327.14	4.47
327.508	4.45
327.875	4.44
328.243	4.42
328.61	4.4
328.978	4.4
329.346	4.38
329.713	4.38
330.08	4.39
330.448	4.38
330.815	4.37
331.182	4.35
331.55	4.33
331.917	4.32
332.284	4.32
332.651	4.32
333.018	4.33
333.385	4.33
333.752	4.32
334.119	4.32
334.486	4.32
334.853	4.32
335.22	4.31
335.587	4.31
335.954	4.32
336.32	4.31
336.687	4.31
337.054	4.32
337.42	4.33
337.787	4.33
338.153	4.33
338.52	4.32
338.886	4.31
339.253	4.3
339.619	4.3
339.986	4.29
340.352	4.29
340.718	4.29
341.084	4.3
341.451	4.3
341.817	4.3
342.183	4.31
342.549	4.31
342.915	4.32
343.281	4.32
343.647	4.32
344.013	4.33
344.379	4.32
344.745	4.32
345.11	4.31
345.476	4.32
345.842	4.33
346.208	4.33
346.573	4.33
346.939	4.32
347.304	4.33
347.67	4.32
348.035	4.31
348.401	4.3
348.766	4.3
349.132	4.29
349.497	4.29
349.862	4.3
350.228	4.31
350.593	4.31
350.958	4.31
351.323	4.32
351.688	4.32
352.053	4.32
352.418	4.31
352.783	4.3
353.148	4.3
353.513	4.31
353.878	4.31
354.243	4.32
354.608	4.32
354.972	4.32
355.337	4.32
355.702	4.33
356.066	4.33
356.431	4.32
356.795	4.32
357.16	4.31
357.524	4.32
357.889	4.32
358.253	4.32
358.618	4.32
358.982	4.32
359.346	4.32
359.71	4.32
360.075	4.33
360.439	4.32
360.803	4.32
361.167	4.32
361.531	4.33
361.895	4.33
362.259	4.32
362.623	4.33
362.987	4.33
363.351	4.33
363.714	4.34
364.078	4.34
364.442	4.33
364.806	4.33
365.169	4.32
365.533	4.33
365.896	4.32
366.26	4.33
366.623	4.32
366.987	4.32
367.35	4.32
367.714	4.32
368.077	4.31
368.44	4.3
368.803	4.31
369.167	4.3
369.53	4.3
369.893	4.3
370.256	4.3
370.619	4.29
370.982	4.3
371.345	4.3
371.708	4.3
372.071	4.31
372.434	4.3
372.797	4.31
373.159	4.3
373.522	4.31
373.885	4.31
374.247	4.31
374.61	4.31
374.973	4.29
375.335	4.29
375.698	4.28
376.06	4.28
376.423	4.28
376.785	4.28
377.147	4.28
377.51	4.28
377.872	4.28
378.234	4.27
378.596	4.26
378.958	4.26
379.321	4.26
379.683	4.26
380.045	4.26
380.407	4.25
380.769	4.25
381.13	4.24
381.492	4.25
381.854	4.25
382.216	4.24
382.578	4.24
382.939	4.24
383.301	4.24
383.663	4.24
384.024	4.24
384.386	4.23
384.747	4.23
385.109	4.23
385.47	4.23
385.832	4.22
386.193	4.21
386.554	4.2
386.916	4.2
387.277	4.19
387.638	4.18
387.999	4.18
388.36	4.18
388.721	4.17
389.082	4.17
389.443	4.17
389.804	4.17
390.165	4.17
390.526	4.17
390.887	4.17
391.248	4.16
391.609	4.17
391.969	4.17
392.33	4.17
392.691	4.16
393.051	4.17
393.412	4.17
393.772	4.16
394.133	4.16
394.493	4.16
394.854	4.15
395.214	4.15
395.574	4.15
395.935	4.15
396.295	4.14
396.655	4.15
397.015	4.14
397.376	4.14
397.736	4.14
398.096	4.14
398.456	4.13
398.816	4.14
399.176	4.14
399.535	4.13
399.895	4.13
400.255	4.13
400.615	4.13
400.975	4.14
401.334	4.14
401.694	4.13
402.054	4.14
402.413	4.13
402.773	4.13
403.132	4.13
403.492	4.13
403.851	4.13
404.211	4.13
404.57	4.13
404.929	4.13
405.288	4.13
405.648	4.13
406.007	4.14
406.366	4.13
406.725	4.13
407.084	4.13
407.443	4.13
407.802	4.13
408.161	4.13
408.52	4.14
408.879	4.14
409.238	4.14
409.596	4.15
409.955	4.15
410.314	4.15
410.673	4.16
411.031	4.16
411.39	4.17
411.748	4.18
412.107	4.18
412.465	4.2
412.824	4.23
413.182	4.25
413.54	4.28
413.899	4.31
414.257	4.34
414.615	4.39
414.974	4.42
415.332	4.46
415.69	4.5
416.048	4.54
416.406	4.58
416.764	4.61
417.122	4.65
417.48	4.68
417.838	4.72
418.195	4.74
418.553	4.77
418.911	4.79
419.269	4.79
419.626	4.79
419.984	4.79
420.342	4.78
420.699	4.76
421.057	4.74
421.414	4.72
421.772	4.71
422.129	4.7
422.486	4.69
422.844	4.69
423.201	4.69
423.558	4.68
423.915	4.68
424.273	4.68
424.63	4.68
424.987	4.68
425.344	4.68
425.701	4.68
426.058	4.68
426.415	4.68
426.772	4.68
427.128	4.68
427.485	4.66
427.842	4.65
428.199	4.63
428.555	4.61
428.912	4.59
429.269	4.56
429.625	4.54
429.982	4.51
430.338	4.48
430.695	4.45
431.051	4.41
431.407	4.39
431.764	4.38
432.12	4.36
432.476	4.34
432.832	4.33
433.189	4.33
433.545	4.34
433.901	4.35
434.257	4.37
434.613	4.4
434.969	4.43
435.325	4.45
435.681	4.5
436.036	4.52
436.392	4.55
436.748	4.56
437.104	4.58
437.459	4.6
437.815	4.62
438.171	4.64
438.526	4.67
438.882	4.7
439.237	4.74
439.593	4.78
439.948	4.81
440.304	4.85
440.659	4.88
441.014	4.9
441.369	4.93
441.725	4.95
442.08	4.97
442.435	4.99
442.79	5
443.145	5
443.5	5
443.855	5
444.21	5
444.565	5
444.92	4.99
445.275	4.98
445.629	4.98
445.984	4.97
446.339	4.95
446.693	4.94
447.048	4.92
447.403	4.9
447.757	4.88
448.112	4.86
448.466	4.83
448.82	4.81
449.175	4.78
449.529	4.76
449.883	4.74
450.238	4.72
450.592	4.71
450.946	4.7
451.3	4.7
451.654	4.71
452.008	4.71
452.362	4.72
452.716	4.71
453.07	4.72
453.424	4.71
453.778	4.7
454.132	4.69
454.486	4.68
454.839	4.66
455.193	4.64
455.547	4.63
455.9	4.59
456.254	4.57
456.607	4.54
456.961	4.51
457.314	4.49
457.668	4.48
458.021	4.47
458.375	4.47
458.728	4.47
459.081	4.47
459.434	4.48
459.787	4.48
460.141	4.49
460.494	4.5
460.847	4.5
461.2	4.51
461.553	4.52
461.906	4.52
462.259	4.53
462.611	4.53
462.964	4.53
463.317	4.54
463.67	4.54
464.022	4.55
464.375	4.56
464.728	4.56
465.08	4.56
465.433	4.57
465.785	4.56
466.138	4.54
466.49	4.53
466.843	4.5
467.195	4.48
467.547	4.46
467.899	4.43
468.252	4.4
468.604	4.37
468.956	4.35
469.308	4.33
469.66	4.33
470.012	4.32
470.364	4.33
470.716	4.33
471.068	4.35
471.42	4.36
471.772	4.39
472.123	4.4
472.475	4.41
472.827	4.42
473.178	4.43
473.53	4.44
473.882	4.46
474.233	4.48
474.585	4.52
474.936	4.59
475.288	4.69
475.639	4.81
475.99	4.96
476.342	5.12
476.693	5.3
477.044	5.48
477.395	5.66
477.746	5.86
478.097	6.04
478.448	6.24
478.8	6.43
479.15	6.6
479.501	6.76
479.852	6.91
480.203	7.05
480.554	7.19
480.905	7.31
481.255	7.44
481.606	7.56
481.957	7.67
482.307	7.77
482.658	7.87
483.009	7.97
483.359	8.07
483.709	8.16
484.06	8.24
484.41	8.33
484.761	8.41
485.111	8.49
485.461	8.56
485.811	8.63
486.162	8.69
486.512	8.75
486.862	8.79
487.212	8.82
487.562	8.84
487.912	8.86
488.262	8.86
488.612	8.85
488.961	8.83
489.311	8.78
489.661	8.71
490.011	8.61
490.36	8.49
490.71	8.36
491.06	8.21
491.409	8.06
491.759	7.89
492.108	7.72
492.458	7.55
492.807	7.36
493.157	7.18
493.506	7.01
493.855	6.85
494.204	6.69
494.554	6.54
494.903	6.4
495.252	6.27
495.601	6.14
495.95	6.02
496.299	5.9
496.648	5.8
496.997	5.69
497.346	5.59
497.695	5.49
498.043	5.4
498.392	5.32
498.741	5.23
499.09	5.15
499.438	5.07
499.787	4.99
500.135	4.92
500.484	4.85
500.832	4.8
501.181	4.76
501.529	4.73
501.878	4.72
502.226	4.71
502.574	4.7
502.923	4.7
503.271	4.7
503.619	4.7
503.967	4.7
504.315	4.69
504.663	4.69
505.011	4.69
505.359	4.69
505.707	4.68
506.055	4.68
506.403	4.68
506.751	4.68
507.098	4.69
507.446	4.69
507.794	4.7
508.141	4.71
508.489	4.73
508.837	4.75
509.184	4.76
509.531	4.77
509.879	4.79
510.226	4.8
510.574	4.82
510.921	4.84
511.268	4.86
511.616	4.88
511.963	4.9
512.31	4.93
512.657	4.95
513.004	4.98
513.351	4.99
513.698	5.01
514.045	5.01
514.392	5.02
514.739	5.02
515.086	5.02
515.432	5.02
515.779	5.02
516.126	5.01
516.473	5.01
516.819	5.02
517.166	5.03
517.512	5.04
517.859	5.05
518.205	5.07
518.552	5.1
518.898	5.13
519.245	5.18
519.591	5.24
519.937	5.32
520.283	5.42
520.629	5.54
520.976	5.66
521.322	5.8
521.668	5.93
522.014	6.07
522.36	6.21
522.706	6.34
523.052	6.47
523.398	6.58
523.743	6.69
524.089	6.78
524.435	6.85
524.781	6.92
525.126	6.98
525.472	7.05
525.817	7.1
526.163	7.16
526.509	7.21
526.854	7.26
527.199	7.31
527.545	7.36
527.89	7.41
528.235	7.47
528.581	7.52
528.926	7.57
529.271	7.6
529.616	7.65
529.961	7.68
530.306	7.72
530.651	7.74
530.996	7.76
531.341	7.77
531.686	7.78
532.031	7.78
532.376	7.79
532.721	7.79
533.065	7.8
533.41	7.8
533.755	7.8
534.099	7.78
534.444	7.75
534.788	7.71
535.133	7.67
535.477	7.62
535.822	7.56
536.166	7.5
536.51	7.42
536.855	7.33
537.199	7.24
537.543	7.16
537.887	7.08
538.231	7.01
538.576	6.95
538.92	6.89
539.264	6.83
539.608	6.76
539.951	6.69
540.295	6.62
540.639	6.56
540.983	6.49
541.327	6.41
541.671	6.33
542.014	6.26
542.358	6.2
542.701	6.15
543.045	6.11
543.389	6.08
543.732	6.05
544.075	6.03
544.419	6.01
544.762	6
545.105	5.98
545.449	5.97
545.792	5.95
546.135	5.95
546.478	5.93
546.821	5.9
547.165	5.87
547.508	5.82
547.851	5.77
548.194	5.71
548.536	5.63
548.879	5.56
549.222	5.48
549.565	5.4
549.908	5.32
550.25	5.24
550.593	5.17
550.936	5.12
551.278	5.08
551.621	5.04
551.963	5
552.306	4.97
552.648	4.95
552.991	4.93
553.333	4.92
553.675	4.91
554.017	4.9
554.36	4.9
554.702	4.9
555.044	4.91
555.386	4.93
555.728	4.95
556.07	4.96
556.412	4.98
556.754	4.99
557.096	5
557.438	5
557.78	5
558.121	5
558.463	5
558.805	5
559.147	5
559.488	5
559.83	5.01
560.171	5.01
560.513	5.02
560.854	5.02
561.196	5.02
561.537	5.02
561.878	5.02
562.22	5.02
562.561	5.02
562.902	5.02
563.243	5.02
563.584	5.02
563.925	5.03
564.266	5.03
564.607	5.04
564.948	5.04
565.289	5.04
565.63	5.04
565.971	5.05
566.312	5.06
566.653	5.06
566.993	5.06
567.334	5.06
567.675	5.07
568.015	5.07
568.356	5.07
568.696	5.08
569.037	5.08
569.377	5.08
569.718	5.08
570.058	5.08
570.398	5.08
570.739	5.08
571.079	5.08
571.419	5.08
571.759	5.08
572.099	5.08
572.439	5.08
572.779	5.08
573.119	5.08
573.459	5.08
573.799	5.08
574.139	5.07
574.479	5.07
574.819	5.07
575.158	5.07
575.498	5.07
575.838	5.07
576.177	5.07
576.517	5.07
576.856	5.08
577.196	5.08
577.535	5.08
577.875	5.07
578.214	5.07
578.553	5.07
578.893	5.07
579.232	5.07
579.571	5.07
579.91	5.07
580.25	5.07
580.589	5.06
580.928	5.06
581.267	5.06
581.606	5.06
581.945	5.06
582.283	5.06
582.622	5.06
582.961	5.06
583.3	5.06
583.639	5.06
583.977	5.06
584.316	5.07
584.654	5.07
584.993	5.07
585.332	5.07
585.67	5.07
586.008	5.07
586.347	5.08
586.685	5.08
587.024	5.08
587.362	5.09
587.7	5.09
588.038	5.09
588.376	5.1
588.715	5.1
589.053	5.11
589.391	5.11
589.729	5.12
590.067	5.12
590.404	5.13
590.742	5.13
591.08	5.13
591.418	5.14
591.756	5.14
592.093	5.14
592.431	5.15
592.769	5.15
593.106	5.15
593.444	5.16
593.781	5.15
594.119	5.16
594.456	5.16
594.793	5.16
595.131	5.16
595.468	5.16
595.805	5.16
596.143	5.16
596.48	5.16
596.817	5.16
597.154	5.16
597.491	5.17
597.828	5.17
598.165	5.17
598.502	5.18
598.839	5.18
599.176	5.18
599.512	5.18
599.849	5.19
600.186	5.19
600.523	5.19
600.859	5.2
601.196	5.2
601.532	5.2
601.869	5.2
602.205	5.2
602.542	5.2
602.878	5.2
603.215	5.2
603.551	5.2
603.887	5.21
604.223	5.21
604.56	5.21
604.896	5.21
605.232	5.21
605.568	5.21
605.904	5.2
606.24	5.2
606.576	5.2
606.912	5.2
607.248	5.2
607.583	5.21
607.919	5.21
608.255	5.21
608.591	5.21
608.926	5.21
609.262	5.21
609.597	5.21
609.933	5.21
610.268	5.22
610.604	5.22
610.939	5.21
611.275	5.21
611.61	5.21
611.945	5.21
612.281	5.2
612.616	5.2
612.951	5.2
613.286	5.2
613.621	5.2
613.956	5.2
614.291	5.19
614.626	5.19
614.961	5.19
615.296	5.19
615.631	5.19
615.966	5.19
616.3	5.19
616.635	5.19
616.97	5.19
617.304	5.19
617.639	5.18
617.973	5.18
618.308	5.18
618.642	5.18
618.977	5.19
619.311	5.18
619.646	5.19
619.98	5.19
620.314	5.19
620.648	5.2
620.983	5.21
621.317	5.21
621.651	5.22
621.985	5.22
622.319	5.23
622.653	5.23
622.987	5.24
623.321	5.24
623.655	5.24
623.988	5.25
624.322	5.25
624.656	5.26
624.99	5.27
625.323	5.27
625.657	5.27
625.99	5.27
626.324	5.27
626.657	5.28
626.991	5.28
627.324	5.28
627.658	5.29
627.991	5.29
628.324	5.29
628.657	5.29
628.991	5.3
629.324	5.3
629.657	5.3
629.99	5.31
630.323	5.32
630.656	5.32
630.989	5.32
631.322	5.32
631.655	5.34
631.987	5.34
632.32	5.34
632.653	5.34
632.986	5.35
633.318	5.35
633.651	5.35
633.984	5.36
634.316	5.36
634.649	5.36
634.981	5.36
635.313	5.36
635.646	5.36
635.978	5.36
636.31	5.36
636.643	5.37
636.975	5.38
637.307	5.38
637.639	5.38
637.971	5.38
638.303	5.37
638.635	5.37
638.967	5.38
639.299	5.37
639.631	5.38
639.963	5.39
640.295	5.4
640.626	5.4
640.958	5.41
641.29	5.42
641.621	5.42
641.953	5.42
642.285	5.43
642.616	5.43
642.948	5.43
643.279	5.43
643.61	5.44
643.942	5.44
644.273	5.44
644.604	5.45
644.936	5.46
645.267	5.45
645.598	5.45
645.929	5.46
646.26	5.46
646.591	5.47
646.922	5.47
647.253	5.47
647.584	5.48
647.915	5.48
648.245	5.49
648.576	5.49
648.907	5.49
649.238	5.5
649.568	5.5
649.899	5.5
650.229	5.5
650.56	5.49
650.89	5.5
651.221	5.5
651.551	5.51
651.882	5.51
652.212	5.52
652.542	5.52
652.872	5.54
653.203	5.54
653.533	5.54
653.863	5.54
654.193	5.55
654.523	5.55
654.853	5.55
655.183	5.55
655.513	5.56
655.843	5.56
656.172	5.56
656.502	5.57
656.832	5.57
657.162	5.57
657.491	5.57
657.821	5.58
658.15	5.58
658.48	5.58
658.809	5.58
659.139	5.58
659.468	5.58
659.798	5.59
660.127	5.6
660.456	5.61
660.785	5.61
661.115	5.61
661.444	5.62
661.773	5.62
662.102	5.62
662.431	5.62
662.76	5.62
663.089	5.62
663.418	5.64
663.747	5.64
664.076	5.65
664.404	5.65
664.733	5.66
665.062	5.67
665.39	5.67
665.719	5.67
666.048	5.68
666.376	5.68
666.705	5.68
667.033	5.69
667.362	5.69
667.69	5.68
668.018	5.68
668.347	5.7
668.675	5.7
669.003	5.71
669.331	5.72
669.659	5.73
669.987	5.73
670.315	5.73
670.643	5.74
670.971	5.75
671.299	5.75
671.627	5.75
671.955	5.76
672.283	5.76
672.61	5.77
672.938	5.79
673.266	5.78
673.593	5.78
673.921	5.79
674.249	5.8
674.576	5.81
674.904	5.81
675.231	5.82
675.558	5.83
675.886	5.84
676.213	5.85
676.54	5.85
676.867	5.84
677.195	5.84
677.522	5.84
677.849	5.84
678.176	5.85
678.503	5.86
678.83	5.86
679.157	5.86
679.484	5.87
679.81	5.87
680.137	5.88
680.464	5.88
680.791	5.88
681.117	5.89
681.444	5.9
681.771	5.89
682.097	5.9
682.424	5.9
682.75	5.9
683.077	5.9
683.403	5.91
683.729	5.91
684.056	5.91
684.382	5.91
684.708	5.92
685.034	5.93
685.36	5.93
685.686	5.93
686.012	5.93
686.339	5.93
686.664	5.93
686.99	5.94
687.316	5.93
687.642	5.94
687.968	5.95
688.294	5.95
688.619	5.94
688.945	5.94
689.271	5.95
689.596	5.95
689.922	5.97
690.247	5.98
690.573	6
690.898	6.01
691.224	6.02
691.549	6.03
691.874	6.03
692.2	6.04
692.525	6.06
692.85	6.07
693.175	6.08
693.5	6.11
693.825	6.11
694.15	6.12
694.475	6.12
694.8	6.12
695.125	6.13
695.45	6.14
695.775	6.15
696.099	6.15
696.424	6.16
696.749	6.16
697.073	6.18
697.398	6.17
697.723	6.18
698.047	6.18
698.372	6.19
698.696	6.2
699.02	6.21
699.345	6.21
699.669	6.22
699.993	6.23
700.318	6.23
700.642	6.25
700.966	6.24
701.29	6.24
701.614	6.26
701.938	6.27
702.262	6.29
702.586	6.29
702.91	6.3
703.234	6.3
703.557	6.31
703.881	6.3
704.205	6.29
704.529	6.3
704.852	6.32
705.176	6.33
705.499	6.33
705.823	6.33
706.146	6.32
706.47	6.32
706.793	6.32
707.117	6.34
707.44	6.35
707.763	6.37
708.086	6.39
708.409	6.4
708.733	6.41
709.056	6.42
709.379	6.43
709.702	6.44
710.025	6.45
710.348	6.45
710.671	6.46
710.993	6.46
711.316	6.47
711.639	6.48
711.962	6.5
712.284	6.51
712.607	6.51
712.93	6.51
713.252	6.5
713.575	6.52
713.897	6.52
714.22	6.52
714.542	6.53
714.864	6.55
715.187	6.54
715.509	6.53
715.831	6.52
716.153	6.53
716.475	6.54
716.798	6.53
717.12	6.54
717.442	6.57
717.764	6.58
718.085	6.57
718.407	6.58
718.729	6.59
719.051	6.6
719.373	6.61
719.695	6.62
720.016	6.62
720.338	6.61
720.659	6.62
720.981	6.63
721.302	6.62
721.624	6.64
721.945	6.64
722.267	6.65
722.588	6.65
722.909	6.65
723.231	6.65
723.552	6.64
723.873	6.67
724.194	6.7
724.515	6.72
724.836	6.71
725.157	6.73
725.478	6.71
725.799	6.72
726.12	6.74
726.441	6.74
726.762	6.75
727.083	6.74
727.403	6.75
727.724	6.75
728.045	6.75
728.365	6.77
728.686	6.79
729.006	6.81
729.327	6.82
729.647	6.83
729.967	6.84
730.288	6.86
730.608	6.85
730.928	6.86
731.249	6.89
731.569	6.88
731.889	6.89
732.209	6.9
732.529	6.9
732.849	6.92
733.169	6.95
733.489	6.97
733.809	6.97
734.129	6.97
734.448	7
734.768	7
735.088	7.01
735.408	7.02
735.727	7.03
736.047	7.05
736.366	7.06
736.686	7.07
737.005	7.08
737.325	7.07
737.644	7.04
737.963	7.04
738.283	7.04
738.602	7.06
738.921	7.08
739.24	7.1
739.56	7.13
739.879	7.14
740.198	7.15
740.517	7.18
740.836	7.18
741.155	7.19
741.473	7.2
741.792	7.2
742.111	7.2
742.43	7.19
742.748	7.2
743.067	7.23
743.386	7.24
743.704	7.26
744.023	7.24
744.341	7.22
744.66	7.24
744.978	7.25
745.297	7.25
745.615	7.28
745.933	7.29
746.252	7.28
746.57	7.3
746.888	7.33
747.206	7.32
747.524	7.34
747.842	7.33
748.16	7.33
748.478	7.32
748.796	7.32
749.114	7.32
749.432	7.32
749.749	7.33
750.067	7.33
750.385	7.36
750.703	7.4
751.02	7.42
751.338	7.44
751.655	7.45
751.973	7.48
752.29	7.47
752.608	7.47
752.925	7.47
753.242	7.5
753.56	7.52
753.877	7.56
754.194	7.57
754.511	7.56
754.828	7.57
755.145	7.59
755.462	7.62
755.779	7.64
756.096	7.65
756.413	7.66
756.73	7.68
757.047	7.69
757.364	7.71
757.68	7.73
757.997	7.75
758.314	7.75
758.63	7.77
758.947	7.76
759.264	7.78
759.58	7.76
759.896	7.76
760.213	7.77
760.529	7.77
760.846	7.8
761.162	7.83
761.478	7.86
761.794	7.87
762.11	7.88
762.426	7.92
762.743	7.94
763.059	7.92
763.375	7.93
763.69	7.94
764.006	7.96
764.322	7.97
764.638	8
764.954	8
765.27	8.02
765.585	8.03
765.901	8.05
766.216	8.03
766.532	8.04
766.848	8.02
767.163	8.04
767.478	8.04
767.794	8.07
768.109	8.08
768.424	8.09
768.74	8.08
769.055	8.07
769.37	8.05
769.685	8.05
770	8.09
770.315	8.1
770.63	8.11
770.945	8.1
771.26	8.14
771.575	8.14
771.89	8.16
772.205	8.16
772.52	8.19
772.834	8.2
773.149	8.24
773.464	8.25
773.778	8.24
774.093	8.23
774.407	8.23
774.722	8.25
775.036	8.23
775.351	8.25
775.665	8.27
775.979	8.36
776.293	8.36
776.608	8.4
776.922	8.39
777.236	8.39
777.55	8.39
777.864	8.41
778.178	8.39
778.492	8.44
778.806	8.42
779.12	8.45
779.434	8.46
779.747	8.45
780.061	8.46
780.375	8.5
780.689	8.5
781.002	8.5
781.316	8.5
781.629	8.5
781.943	8.54
782.256	8.58
782.57	8.58
782.883	8.58
783.196	8.6
783.51	8.58
783.823	8.6
784.136	8.61
784.449	8.64
784.762	8.69
785.075	8.7
785.388	8.72
785.701	8.68
786.014	8.71
786.327	8.76
786.64	8.76
786.953	8.82
787.266	8.85
787.578	8.88
787.891	8.94
788.204	8.91
788.516	8.93
788.829	8.91
789.141	8.93
789.454	8.9
789.766	8.96
790.079	8.99
790.391	8.99
790.703	9
791.016	9
791.328	9
791.64	9.06
791.952	9.11
792.264	9.12
792.576	9.14
792.888	9.13
793.2	9.15
793.512	9.16
793.824	9.18
794.136	9.18
794.448	9.2
794.76	9.21
795.071	9.2
795.383	9.25
795.695	9.26
796.006	9.28
796.318	9.28
796.629	9.29
796.941	9.27
797.252	9.26
797.564	9.22
797.875	9.23
798.186	9.27
798.497	9.31
798.809	9.31
799.12	9.31
799.431	9.34
799.742	9.31
800.053	9.33
800.364	9.35
800.675	9.34
800.986	9.36
801.297	9.32
801.608	9.33
801.918	9.34
802.229	9.32
802.54	9.26
802.851	9.25
803.161	9.28
803.472	9.31
803.782	9.35
804.093	9.35
804.403	9.35
804.714	9.36
805.024	9.39
805.334	9.38
805.645	9.39
805.955	9.44
806.265	9.48
806.575	9.44
806.885	9.45
807.195	9.52
807.505	9.56
807.815	9.63
808.125	9.64
808.435	9.61
808.745	9.59
809.055	9.6
809.365	9.64
809.674	9.65
809.984	9.7
810.294	9.77
810.603	9.74
810.913	9.73
811.222	9.75
811.532	9.71
811.841	9.7
812.151	9.71
812.46	9.72
812.769	9.71
813.079	9.72
813.388	9.75
813.697	9.76
814.006	9.83
814.315	9.79
814.624	9.81
814.933	9.88
815.242	9.92
815.551	9.93
815.86	9.94
816.169	9.92
816.478	9.94
816.786	9.92
817.095	9.91
817.404	9.88
817.712	9.85
818.021	9.88
818.33	9.9
818.638	9.93
818.947	9.95
819.255	9.98
819.563	10
819.872	10
820.18	9.99
820.488	9.98
820.796	10
821.105	10.03
821.413	10.04
821.721	10.08
822.029	10.09
822.337	10.1
822.645	10.1
822.953	10.1
823.26	10.12
823.568	10.15
823.876	10.15
824.184	10.17
824.491	10.18
824.799	10.19
825.107	10.21
825.414	10.22
825.722	10.22
826.029	10.24
826.337	10.26
826.644	10.27
826.951	10.28
827.259	10.29
827.566	10.29
827.873	10.29
828.18	10.31
828.488	10.32
828.795	10.32
829.102	10.32
829.409	10.34
829.716	10.38
830.023	10.42
830.329	10.44
830.636	10.45
830.943	10.48
831.25	10.46
831.557	10.47
831.863	10.5
832.17	10.53
832.476	10.52
832.783	10.55
833.089	10.57
833.396	10.59
833.702	10.58
834.009	10.62
834.315	10.61
834.621	10.63
834.928	10.67
835.234	10.67
835.54	10.65
835.846	10.65
836.152	10.6
836.458	10.62
836.764	10.62
837.07	10.62
837.376	10.62
837.682	10.6
837.988	10.58
838.293	10.6
838.599	10.56
838.905	10.52
839.211	10.51
839.516	10.53
839.822	10.57
840.127	10.6
840.433	10.64
840.738	10.61
841.044	10.62
841.349	10.61
841.654	10.62
841.959	10.63
842.265	10.62
842.57	10.6
842.875	10.66
843.18	10.62
843.485	10.63
843.79	10.76
844.095	10.81
844.4	10.88
844.705	10.9
845.01	11
845.315	10.97
845.619	10.99
845.924	10.93
846.229	10.98
846.533	10.97
846.838	11.04
847.142	10.98
847.447	11.06
847.751	11.15
848.056	11.23
848.36	11.29
848.664	11.33
848.969	11.48
849.273	11.6
849.577	11.69
849.881	11.76
850.185	11.8
850.489	11.83
850.794	11.9
851.097	12.04
851.401	12.1
851.705	12.14
852.009	12.24
852.313	12.34
852.617	12.42
852.92	12.49
853.224	12.56
853.528	12.63
853.831	12.62
854.135	12.69
854.438	12.76
854.742	12.71
855.045	12.72
855.349	12.88
855.652	13.14
855.955	13.15
856.259	13.25
856.562	13.23
856.865	13.21
857.168	13.15
857.471	13.14
857.774	13.22
858.077	13.23
858.38	13.27
858.683	13.34
858.986	13.36
859.289	13.41
859.592	13.39
859.894	13.29
860.197	13.18
860.5	13.25
860.802	13.32
861.105	13.52
861.407	13.5
861.71	13.51
862.012	13.53
862.315	13.48
862.617	13.48
862.919	13.7
863.222	13.66
863.524	13.55
863.826	13.66
864.128	13.64
864.43	13.68
864.732	13.59
865.034	13.43
865.336	13.31
865.638	13.19
865.94	13.24
866.242	13.3
866.544	13.38
866.846	13.52
867.147	13.44
867.449	13.37
867.751	13.3
868.052	13.27
868.354	13.27
868.655	13.05
868.957	13.08
869.258	13.13
869.56	13.32
869.861	13.34
870.162	13.46
870.463	13.59
870.765	13.64
871.066	13.73
871.367	13.64
871.668	13.62
871.969	13.78
872.27	13.71
872.571	13.88
872.872	13.85
873.173	13.9
873.473	13.79
873.774	13.75
874.075	13.7
874.376	13.71
874.676	13.8
874.977	13.82
875.277	13.63
875.578	13.68
875.878	13.69
876.179	13.63
876.479	13.62
876.78	13.53
877.08	13.49
877.38	13.62
877.68	13.78
877.981	13.88
878.281	13.9
878.581	14.07
