Data from UWBM122453_Reflection_00010.txt Node
Date: Sun May 02 12:41:09 EDT 2021
User: vgr7
Spectrometer: USB2G7710
Scans to average: 10
Trigger mode: 4
Integration Time (sec): 1.000000E-1
Electric dark correction enabled: true
Boxcar width: 20
XAxis mode: Wavelengths
Number of Pixels in Spectrum: 2048
>>>>>Begin Spectral Data<<<<<
177.721	100.62
178.105	101.09
178.488	100.25
178.871	99.76
179.254	99.57
179.636	96.75
180.019	95.1
180.402	91.77
180.785	88
181.168	85.04
181.55	83.68
181.933	114.33
182.316	117.11
182.698	118.93
183.081	118.1
183.463	118.9
183.846	121.6
184.228	123.55
184.611	124.76
184.993	129.95
185.376	133.14
185.758	-107.15
186.14	-55.91
186.522	-24.12
186.904	-9.9
187.287	4.12
187.669	4.96
188.051	5.55
188.433	8.31
188.815	5.63
189.197	3.43
189.579	4.62
189.961	4.09
190.342	3.01
190.724	7.85
191.106	4.67
191.488	5.82
191.869	1.04
192.251	1.3
192.633	-1.63
193.014	-4.99
193.396	-5.45
193.777	2.05
194.159	3.28
194.54	1.2
194.922	0.17
195.303	2.4
195.684	2.01
196.065	3.22
196.447	1.09
196.828	-0.23
197.209	1.23
197.59	-9.36
197.971	-10.8
198.352	-7.98
198.733	-6.28
199.114	-8.54
199.495	-8.52
199.876	-8.42
200.257	-11.04
200.638	-12.19
201.018	-17.62
201.399	-18.4
201.78	-20.55
202.16	-19.48
202.541	-17.6
202.922	-17.72
203.302	-19.21
203.683	-18
204.063	-18.71
204.444	-16.66
204.824	-14
205.204	-10.78
205.585	-1.11
205.965	-1.63
206.345	-1.11
206.725	-5.43
207.106	-6.06
207.486	-6.77
207.866	-4.76
208.246	-5.05
208.626	-2.29
209.006	3.25
209.386	-0.78
209.766	-0.54
210.145	-0.86
210.525	-1.13
210.905	0.69
211.285	1.44
211.664	0.77
212.044	2.78
212.424	2.86
212.803	-2.78
213.183	-0.59
213.562	0.34
213.942	-0.43
214.321	-3.46
214.701	-2.53
215.08	-1.37
215.459	-1.38
215.838	-2.28
216.218	-1.68
216.597	-4.05
216.976	-7.04
217.355	-5.44
217.734	-6.09
218.113	-5.54
218.492	-4.47
218.871	-3.26
219.25	-3.04
219.629	-3.26
220.008	-4.35
220.387	-3.93
220.766	-4.17
221.144	-5.66
221.523	-3.88
221.902	-2.23
222.28	-0.53
222.659	1.25
223.037	1.65
223.416	1.65
223.794	3.43
224.173	2.92
224.551	2.87
224.929	3.38
225.308	4.39
225.686	4.42
226.064	4.7
226.442	4.57
226.821	4.62
227.199	4.15
227.577	3.57
227.955	3.08
228.333	3.1
228.711	3.17
229.089	3.69
229.467	3.21
229.845	4.02
230.222	3.86
230.6	4.46
230.978	4.66
231.356	4.32
231.733	4.43
232.111	4.52
232.488	4.43
232.866	4.35
233.243	4.1
233.621	4.24
233.998	3.98
234.376	4.15
234.753	4.29
235.13	4.5
235.508	5.25
235.885	5.37
236.262	5.44
236.639	5.63
237.016	5.59
237.393	5.53
237.77	5.34
238.147	5.27
238.524	5.32
238.901	5.38
239.278	5.41
239.655	5.47
240.032	5.32
240.409	5.44
240.785	5.33
241.162	5.43
241.539	5.4
241.915	5.43
242.292	5.39
242.668	5.35
243.045	5.33
243.421	5.26
243.798	5.24
244.174	5.2
244.551	5.16
244.927	5.01
245.303	4.98
245.679	5.02
246.056	4.96
246.432	4.93
246.808	4.72
247.184	4.74
247.56	4.71
247.936	4.73
248.312	4.73
248.688	4.82
249.064	4.79
249.44	4.76
249.815	4.77
250.191	4.71
250.567	4.68
250.943	4.72
251.318	4.7
251.694	4.63
252.069	4.57
252.445	4.57
252.82	4.66
253.196	4.68
253.571	4.66
253.947	4.73
254.322	4.69
254.697	4.81
255.073	4.78
255.448	4.76
255.823	4.72
256.198	4.68
256.573	4.5
256.948	4.47
257.323	4.46
257.698	4.39
258.073	4.39
258.448	4.27
258.823	4.26
259.198	4.25
259.573	4.27
259.948	4.29
260.322	4.26
260.697	4.26
261.072	4.24
261.446	4.21
261.821	4.18
262.195	4.15
262.57	4.1
262.944	4.12
263.319	4.08
263.693	4.11
264.067	4.11
264.442	4.2
264.816	4.19
265.19	4.15
265.564	4.19
265.938	4.17
266.313	4.24
266.687	4.22
267.061	4.23
267.435	4.22
267.809	4.21
268.183	4.18
268.556	4.18
268.93	4.16
269.304	4.15
269.678	4.11
270.051	4.08
270.425	4.07
270.799	4.09
271.172	4.09
271.546	4.09
271.919	4.08
272.293	4.07
272.666	4.07
273.04	4.08
273.413	4.03
273.787	4.01
274.16	4.01
274.533	4.05
274.906	4.04
275.279	4.06
275.653	4.03
276.026	4.01
276.399	3.99
276.772	4
277.145	4.04
277.518	4.05
277.891	4.08
278.263	4.09
278.636	4.11
279.009	4.12
279.382	4.12
279.755	4.06
280.127	4.09
280.5	4.11
280.872	4.1
281.245	4.2
281.617	4.2
281.99	4.22
282.362	4.26
282.735	4.24
283.107	4.25
283.479	4.27
283.852	4.3
284.224	4.33
284.596	4.31
284.968	4.21
285.34	4.21
285.713	4.21
286.085	4.14
286.457	4.15
286.829	4.15
287.201	4.16
287.572	4.22
287.944	4.25
288.316	4.31
288.688	4.35
289.06	4.37
289.431	4.4
289.803	4.4
290.175	4.43
290.546	4.46
290.918	4.49
291.289	4.49
291.661	4.52
292.032	4.5
292.403	4.54
292.775	4.65
293.146	4.67
293.517	4.72
293.889	4.81
294.26	4.82
294.631	4.85
295.002	4.92
295.373	4.97
295.744	4.98
296.115	5
296.486	4.98
296.857	5.01
297.228	5.02
297.599	5.04
297.97	5.05
298.34	5.08
298.711	5.05
299.082	5.08
299.452	5.14
299.823	5.2
300.194	5.25
300.564	5.28
300.935	5.31
301.305	5.34
301.676	5.36
302.046	5.39
302.416	5.43
302.787	5.46
303.157	5.42
303.527	5.46
303.897	5.51
304.267	5.57
304.637	5.62
305.008	5.67
305.378	5.72
305.748	5.76
306.117	5.86
306.487	5.94
306.857	6.03
307.227	6.08
307.597	6.1
307.967	6.14
308.336	6.17
308.706	6.23
309.076	6.26
309.445	6.28
309.815	6.22
310.184	6.25
310.554	6.23
310.923	6.29
311.293	6.36
311.662	6.39
312.031	6.4
312.401	6.43
312.77	6.44
313.139	6.48
313.508	6.54
313.877	6.53
314.246	6.55
314.616	6.55
314.985	6.53
315.353	6.56
315.722	6.59
316.091	6.63
316.46	6.66
316.829	6.71
317.198	6.75
317.567	6.93
317.935	6.97
318.304	7.05
318.672	7.1
319.041	7.14
319.41	7.17
319.778	7.23
320.147	7.27
320.515	7.29
320.883	7.31
321.252	7.29
321.62	7.36
321.988	7.39
322.357	7.42
322.725	7.51
323.093	7.54
323.461	7.57
323.829	7.59
324.197	7.6
324.565	7.62
324.933	7.65
325.301	7.66
325.669	7.69
326.037	7.71
326.405	7.68
326.772	7.69
327.14	7.71
327.508	7.72
327.875	7.75
328.243	7.77
328.61	7.74
328.978	7.77
329.346	7.79
329.713	7.79
330.08	7.81
330.448	7.81
330.815	7.8
331.182	7.83
331.55	7.85
331.917	7.88
332.284	7.89
332.651	7.9
333.018	7.92
333.385	7.95
333.752	7.99
334.119	8.02
334.486	8.05
334.853	8.04
335.22	8.07
335.587	8.09
335.954	8.12
336.32	8.15
336.687	8.17
337.054	8.18
337.42	8.21
337.787	8.22
338.153	8.26
338.52	8.31
338.886	8.36
339.253	8.36
339.619	8.37
339.986	8.35
340.352	8.35
340.718	8.39
341.084	8.4
341.451	8.41
341.817	8.43
342.183	8.43
342.549	8.47
342.915	8.47
343.281	8.51
343.647	8.53
344.013	8.56
344.379	8.58
344.745	8.6
345.11	8.61
345.476	8.64
345.842	8.67
346.208	8.65
346.573	8.66
346.939	8.68
347.304	8.68
347.67	8.7
348.035	8.72
348.401	8.71
348.766	8.73
349.132	8.74
349.497	8.76
349.862	8.77
350.228	8.8
350.593	8.81
350.958	8.81
351.323	8.79
351.688	8.8
352.053	8.8
352.418	8.8
352.783	8.8
353.148	8.78
353.513	8.77
353.878	8.77
354.243	8.77
354.608	8.77
354.972	8.78
355.337	8.78
355.702	8.76
356.066	8.76
356.431	8.75
356.795	8.74
357.16	8.72
357.524	8.72
357.889	8.71
358.253	8.71
358.618	8.7
358.982	8.7
359.346	8.71
359.71	8.7
360.075	8.69
360.439	8.69
360.803	8.68
361.167	8.66
361.531	8.67
361.895	8.66
362.259	8.65
362.623	8.64
362.987	8.62
363.351	8.61
363.714	8.59
364.078	8.57
364.442	8.55
364.806	8.55
365.169	8.51
365.533	8.48
365.896	8.46
366.26	8.45
366.623	8.42
366.987	8.4
367.35	8.38
367.714	8.36
368.077	8.35
368.44	8.31
368.803	8.29
369.167	8.25
369.53	8.23
369.893	8.19
370.256	8.16
370.619	8.14
370.982	8.09
371.345	8.04
371.708	8.01
372.071	7.96
372.434	7.93
372.797	7.91
373.159	7.88
373.522	7.85
373.885	7.79
374.247	7.73
374.61	7.69
374.973	7.63
375.335	7.58
375.698	7.53
376.06	7.49
376.423	7.44
376.785	7.39
377.147	7.35
377.51	7.31
377.872	7.27
378.234	7.23
378.596	7.2
378.958	7.18
379.321	7.14
379.683	7.1
380.045	7.06
380.407	7.01
380.769	6.97
381.13	6.94
381.492	6.91
381.854	6.87
382.216	6.83
382.578	6.79
382.939	6.76
383.301	6.72
383.663	6.69
384.024	6.65
384.386	6.61
384.747	6.57
385.109	6.52
385.47	6.49
385.832	6.46
386.193	6.42
386.554	6.38
386.916	6.35
387.277	6.31
387.638	6.29
387.999	6.25
388.36	6.22
388.721	6.19
389.082	6.16
389.443	6.13
389.804	6.11
390.165	6.08
390.526	6.05
390.887	6.02
391.248	5.98
391.609	5.95
391.969	5.92
392.33	5.9
392.691	5.86
393.051	5.83
393.412	5.79
393.772	5.75
394.133	5.72
394.493	5.69
394.854	5.66
395.214	5.62
395.574	5.59
395.935	5.55
396.295	5.51
396.655	5.48
397.015	5.44
397.376	5.4
397.736	5.38
398.096	5.35
398.456	5.32
398.816	5.3
399.176	5.26
399.535	5.24
399.895	5.22
400.255	5.19
400.615	5.16
400.975	5.14
401.334	5.11
401.694	5.09
402.054	5.06
402.413	5.02
402.773	5
403.132	4.99
403.492	4.97
403.851	4.95
404.211	4.94
404.57	4.93
404.929	4.92
405.288	4.9
405.648	4.89
406.007	4.88
406.366	4.87
406.725	4.87
407.084	4.85
407.443	4.83
407.802	4.82
408.161	4.8
408.52	4.79
408.879	4.78
409.238	4.77
409.596	4.75
409.955	4.75
410.314	4.74
410.673	4.72
411.031	4.72
411.39	4.71
411.748	4.71
412.107	4.7
412.465	4.69
412.824	4.7
413.182	4.71
413.54	4.72
413.899	4.73
414.257	4.74
414.615	4.78
414.974	4.79
415.332	4.83
415.69	4.86
416.048	4.87
416.406	4.9
416.764	4.92
417.122	4.94
417.48	4.97
417.838	4.99
418.195	5
418.553	5.01
418.911	5.01
419.269	5
419.626	4.99
419.984	4.97
420.342	4.94
420.699	4.92
421.057	4.89
421.414	4.86
421.772	4.84
422.129	4.83
422.486	4.81
422.844	4.8
423.201	4.79
423.558	4.79
423.915	4.77
424.273	4.76
424.63	4.76
424.987	4.75
425.344	4.74
425.701	4.74
426.058	4.73
426.415	4.72
426.772	4.71
427.128	4.7
427.485	4.68
427.842	4.67
428.199	4.65
428.555	4.63
428.912	4.6
429.269	4.57
429.625	4.55
429.982	4.52
430.338	4.48
430.695	4.46
431.051	4.42
431.407	4.39
431.764	4.37
432.12	4.34
432.476	4.33
432.832	4.32
433.189	4.33
433.545	4.33
433.901	4.34
434.257	4.36
434.613	4.39
434.969	4.41
435.325	4.44
435.681	4.48
436.036	4.5
436.392	4.52
436.748	4.53
437.104	4.53
437.459	4.55
437.815	4.57
438.171	4.59
438.526	4.61
438.882	4.65
439.237	4.68
439.593	4.71
439.948	4.74
440.304	4.77
440.659	4.8
441.014	4.81
441.369	4.84
441.725	4.85
442.08	4.86
442.435	4.87
442.79	4.87
443.145	4.87
443.5	4.87
443.855	4.86
444.21	4.86
444.565	4.85
444.92	4.83
445.275	4.82
445.629	4.81
445.984	4.8
446.339	4.79
446.693	4.78
447.048	4.76
447.403	4.74
447.757	4.71
448.112	4.68
448.466	4.66
448.82	4.63
449.175	4.61
449.529	4.58
449.883	4.56
450.238	4.53
450.592	4.52
450.946	4.51
451.3	4.51
451.654	4.52
452.008	4.51
452.362	4.51
452.716	4.51
453.07	4.51
453.424	4.5
453.778	4.49
454.132	4.47
454.486	4.46
454.839	4.45
455.193	4.42
455.547	4.41
455.9	4.38
456.254	4.36
456.607	4.33
456.961	4.3
457.314	4.28
457.668	4.28
458.021	4.28
458.375	4.27
458.728	4.28
459.081	4.28
459.434	4.29
459.787	4.3
460.141	4.32
460.494	4.33
460.847	4.33
461.2	4.34
461.553	4.36
461.906	4.37
462.259	4.38
462.611	4.39
462.964	4.4
463.317	4.42
463.67	4.43
464.022	4.44
464.375	4.45
464.728	4.46
465.08	4.47
465.433	4.48
465.785	4.48
466.138	4.48
466.49	4.47
466.843	4.46
467.195	4.45
467.547	4.44
467.899	4.43
468.252	4.4
468.604	4.39
468.956	4.37
469.308	4.37
469.66	4.37
470.012	4.37
470.364	4.38
470.716	4.4
471.068	4.42
471.42	4.45
471.772	4.48
472.123	4.49
472.475	4.51
472.827	4.52
473.178	4.53
473.53	4.54
473.882	4.56
474.233	4.58
474.585	4.62
474.936	4.68
475.288	4.77
475.639	4.89
475.99	5.03
476.342	5.18
476.693	5.35
477.044	5.51
477.395	5.68
477.746	5.85
478.097	6.02
478.448	6.2
478.8	6.37
479.15	6.53
479.501	6.67
479.852	6.81
480.203	6.93
480.554	7.04
480.905	7.16
481.255	7.27
481.606	7.37
481.957	7.46
482.307	7.56
482.658	7.65
483.009	7.74
483.359	7.82
483.709	7.9
484.06	7.98
484.41	8.05
484.761	8.12
485.111	8.19
485.461	8.26
485.811	8.32
486.162	8.38
486.512	8.44
486.862	8.48
487.212	8.51
487.562	8.53
487.912	8.55
488.262	8.56
488.612	8.56
488.961	8.55
489.311	8.51
489.661	8.45
490.011	8.37
490.36	8.26
490.71	8.14
491.06	8.01
491.409	7.88
491.759	7.74
492.108	7.6
492.458	7.45
492.807	7.3
493.157	7.15
493.506	7
493.855	6.87
494.204	6.75
494.554	6.63
494.903	6.53
495.252	6.44
495.601	6.35
495.95	6.26
496.299	6.19
496.648	6.13
496.997	6.07
497.346	6.02
497.695	5.98
498.043	5.94
498.392	5.91
498.741	5.88
499.09	5.85
499.438	5.84
499.787	5.83
500.135	5.83
500.484	5.85
500.832	5.88
501.181	5.92
501.529	5.98
501.878	6.06
502.226	6.14
502.574	6.24
502.923	6.35
503.271	6.46
503.619	6.58
503.967	6.7
504.315	6.83
504.663	6.95
505.011	7.08
505.359	7.22
505.707	7.35
506.055	7.49
506.403	7.64
506.751	7.8
507.098	7.96
507.446	8.13
507.794	8.3
508.141	8.49
508.489	8.69
508.837	8.89
509.184	9.09
509.531	9.3
509.879	9.51
510.226	9.74
510.574	9.97
510.921	10.22
511.268	10.47
511.616	10.73
511.963	11
512.31	11.26
512.657	11.53
513.004	11.8
513.351	12.06
513.698	12.29
514.045	12.53
514.392	12.75
514.739	12.96
515.086	13.16
515.432	13.36
515.779	13.58
516.126	13.8
516.473	14.03
516.819	14.28
517.166	14.54
517.512	14.83
517.859	15.12
518.205	15.44
518.552	15.78
518.898	16.15
519.245	16.57
519.591	17.07
519.937	17.67
520.283	18.34
520.629	19.08
520.976	19.84
521.322	20.63
521.668	21.43
522.014	22.23
522.36	23.02
522.706	23.8
523.052	24.56
523.398	25.29
523.743	25.96
524.089	26.57
524.435	27.14
524.781	27.71
525.126	28.26
525.472	28.81
525.817	29.34
526.163	29.86
526.509	30.38
526.854	30.89
527.199	31.39
527.545	31.89
527.89	32.42
528.235	32.94
528.581	33.44
528.926	33.9
529.271	34.35
529.616	34.76
529.961	35.13
530.306	35.49
530.651	35.83
530.996	36.14
531.341	36.43
531.686	36.71
532.031	36.97
532.376	37.26
532.721	37.57
533.065	37.91
533.41	38.28
533.755	38.59
534.099	38.85
534.444	39.08
534.788	39.26
535.133	39.44
535.477	39.59
535.822	39.7
536.166	39.76
536.51	39.77
536.855	39.71
537.199	39.62
537.543	39.52
537.887	39.47
538.231	39.46
538.576	39.45
538.92	39.42
539.264	39.38
539.608	39.32
539.951	39.23
540.295	39.13
540.639	39.02
540.983	38.89
541.327	38.75
541.671	38.62
542.014	38.49
542.358	38.39
542.701	38.39
543.045	38.45
543.389	38.53
543.732	38.64
544.075	38.77
544.419	38.91
544.762	39.05
545.105	39.22
545.449	39.4
545.792	39.59
546.135	39.78
546.478	39.92
546.821	40
547.165	40.01
547.508	39.95
547.851	39.84
548.194	39.69
548.536	39.48
548.879	39.24
549.222	38.97
549.565	38.69
549.908	38.42
550.25	38.19
550.593	38.01
550.936	37.91
551.278	37.87
551.621	37.88
551.963	37.91
552.306	37.96
552.648	38.06
552.991	38.17
553.333	38.31
553.675	38.49
554.017	38.71
554.36	38.95
554.702	39.23
555.044	39.54
555.386	39.9
555.728	40.26
556.07	40.57
556.412	40.89
556.754	41.09
557.096	41.27
557.438	41.46
557.78	41.66
558.121	41.85
558.463	42.04
558.805	42.23
559.147	42.42
559.488	42.61
559.83	42.8
560.171	42.99
560.513	43.17
560.854	43.34
561.196	43.51
561.537	43.68
561.878	43.84
562.22	43.99
562.561	44.15
562.902	44.31
563.243	44.47
563.584	44.62
563.925	44.78
564.266	44.92
564.607	45.08
564.948	45.23
565.289	45.38
565.63	45.52
565.971	45.66
566.312	45.8
566.653	45.93
566.993	46.06
567.334	46.18
567.675	46.31
568.015	46.43
568.356	46.55
568.696	46.66
569.037	46.77
569.377	46.87
569.718	46.98
570.058	47.08
570.398	47.17
570.739	47.27
571.079	47.35
571.419	47.44
571.759	47.51
572.099	47.58
572.439	47.65
572.779	47.74
573.119	47.81
573.459	47.88
573.799	47.94
574.139	48.01
574.479	48.08
574.819	48.14
575.158	48.21
575.498	48.28
575.838	48.35
576.177	48.42
576.517	48.49
576.856	48.54
577.196	48.59
577.535	48.65
577.875	48.71
578.214	48.77
578.553	48.82
578.893	48.87
579.232	48.92
579.571	48.96
579.91	49.01
580.25	49.06
580.589	49.11
580.928	49.15
581.267	49.2
581.606	49.26
581.945	49.32
582.283	49.38
582.622	49.43
582.961	49.49
583.3	49.55
583.639	49.6
583.977	49.66
584.316	49.73
584.654	49.78
584.993	49.86
585.332	49.92
585.67	49.99
586.008	50.05
586.347	50.11
586.685	50.16
587.024	50.22
587.362	50.28
587.7	50.34
588.038	50.41
588.376	50.48
588.715	50.55
589.053	50.64
589.391	50.7
589.729	50.76
590.067	50.84
590.404	50.9
590.742	50.98
591.08	51.04
591.418	51.1
591.756	51.15
592.093	51.2
592.431	51.27
592.769	51.32
593.106	51.38
593.444	51.43
593.781	51.47
594.119	51.51
594.456	51.55
594.793	51.6
595.131	51.65
595.468	51.71
595.805	51.76
596.143	51.82
596.48	51.87
596.817	51.92
597.154	51.97
597.491	52.03
597.828	52.09
598.165	52.15
598.502	52.2
598.839	52.25
599.176	52.29
599.512	52.34
599.849	52.39
600.186	52.43
600.523	52.47
600.859	52.53
601.196	52.56
601.532	52.61
601.869	52.64
602.205	52.66
602.542	52.7
602.878	52.72
603.215	52.74
603.551	52.76
603.887	52.79
604.223	52.81
604.56	52.83
604.896	52.86
605.232	52.88
605.568	52.92
605.904	52.94
606.24	52.96
606.576	52.98
606.912	53.01
607.248	53.02
607.583	53.05
607.919	53.07
608.255	53.1
608.591	53.12
608.926	53.15
609.262	53.16
609.597	53.17
609.933	53.18
610.268	53.2
610.604	53.23
610.939	53.25
611.275	53.25
611.61	53.25
611.945	53.26
612.281	53.27
612.616	53.28
612.951	53.27
613.286	53.29
613.621	53.3
613.956	53.3
614.291	53.31
614.626	53.31
614.961	53.33
615.296	53.34
615.631	53.35
615.966	53.37
616.3	53.38
616.635	53.4
616.97	53.42
617.304	53.43
617.639	53.45
617.973	53.46
618.308	53.49
618.642	53.51
618.977	53.54
619.311	53.55
619.646	53.56
619.98	53.61
620.314	53.63
620.648	53.66
620.983	53.68
621.317	53.7
621.651	53.72
621.985	53.73
622.319	53.76
622.653	53.77
622.987	53.8
623.321	53.83
623.655	53.83
623.988	53.86
624.322	53.88
624.656	53.88
624.99	53.91
625.323	53.91
625.657	53.92
625.99	53.95
626.324	53.98
626.657	54
626.991	54.03
627.324	54.04
627.658	54.07
627.991	54.08
628.324	54.1
628.657	54.12
628.991	54.14
629.324	54.17
629.657	54.2
629.99	54.22
630.323	54.23
630.656	54.24
630.989	54.25
631.322	54.28
631.655	54.28
631.987	54.3
632.32	54.31
632.653	54.32
632.986	54.35
633.318	54.37
633.651	54.37
633.984	54.39
634.316	54.41
634.649	54.42
634.981	54.43
635.313	54.45
635.646	54.47
635.978	54.47
636.31	54.48
636.643	54.49
636.975	54.5
637.307	54.52
637.639	54.54
637.971	54.55
638.303	54.59
638.635	54.61
638.967	54.63
639.299	54.66
639.631	54.68
639.963	54.68
640.295	54.7
640.626	54.7
640.958	54.72
641.29	54.74
641.621	54.76
641.953	54.77
642.285	54.79
642.616	54.82
642.948	54.83
643.279	54.84
643.61	54.85
643.942	54.87
644.273	54.89
644.604	54.9
644.936	54.9
645.267	54.92
645.598	54.94
645.929	54.95
646.26	54.97
646.591	54.97
646.922	55
647.253	55.01
647.584	55.02
647.915	55.02
648.245	55.05
648.576	55.08
648.907	55.09
649.238	55.11
649.568	55.13
649.899	55.15
650.229	55.17
650.56	55.21
650.89	55.22
651.221	55.23
651.551	55.26
651.882	55.25
652.212	55.26
652.542	55.29
652.872	55.29
653.203	55.32
653.533	55.35
653.863	55.36
654.193	55.38
654.523	55.39
654.853	55.39
655.183	55.4
655.513	55.41
655.843	55.43
656.172	55.44
656.502	55.45
656.832	55.45
657.162	55.45
657.491	55.48
657.821	55.49
658.15	55.5
658.48	55.52
658.809	55.54
659.139	55.55
659.468	55.56
659.798	55.57
660.127	55.59
660.456	55.63
660.785	55.64
661.115	55.66
661.444	55.69
661.773	55.71
662.102	55.72
662.431	55.74
662.76	55.74
663.089	55.74
663.418	55.75
663.747	55.75
664.076	55.73
664.404	55.74
664.733	55.77
665.062	55.79
665.39	55.81
665.719	55.83
666.048	55.8
666.376	55.82
666.705	55.81
667.033	55.8
667.362	55.8
667.69	55.82
668.018	55.84
668.347	55.86
668.675	55.85
669.003	55.87
669.331	55.88
669.659	55.89
669.987	55.89
670.315	55.9
670.643	55.94
670.971	55.94
671.299	55.94
671.627	55.95
671.955	55.97
672.283	55.99
672.61	56.02
672.938	56.06
673.266	56.08
673.593	56.07
673.921	56.06
674.249	56.09
674.576	56.1
674.904	56.11
675.231	56.13
675.558	56.15
675.886	56.17
676.213	56.18
676.54	56.2
676.867	56.21
677.195	56.21
677.522	56.25
677.849	56.25
678.176	56.25
678.503	56.26
678.83	56.27
679.157	56.28
679.484	56.32
679.81	56.32
680.137	56.33
680.464	56.35
680.791	56.36
681.117	56.37
681.444	56.38
681.771	56.39
682.097	56.41
682.424	56.44
682.75	56.44
683.077	56.45
683.403	56.46
683.729	56.47
684.056	56.45
684.382	56.45
684.708	56.46
685.034	56.49
685.36	56.5
685.686	56.5
686.012	56.52
686.339	56.53
686.664	56.56
686.99	56.56
687.316	56.57
687.642	56.58
687.968	56.59
688.294	56.6
688.619	56.58
688.945	56.58
689.271	56.59
689.596	56.6
689.922	56.62
690.247	56.63
690.573	56.65
690.898	56.66
691.224	56.67
691.549	56.68
691.874	56.68
692.2	56.69
692.525	56.71
692.85	56.71
693.175	56.72
693.5	56.74
693.825	56.74
694.15	56.72
694.475	56.71
694.8	56.72
695.125	56.72
695.45	56.75
695.775	56.74
696.099	56.75
696.424	56.76
696.749	56.78
697.073	56.8
697.398	56.81
697.723	56.82
698.047	56.84
698.372	56.84
698.696	56.84
699.02	56.85
699.345	56.83
699.669	56.83
699.993	56.84
700.318	56.85
700.642	56.88
700.966	56.88
701.29	56.87
701.614	56.89
701.938	56.9
702.262	56.91
702.586	56.93
702.91	56.93
703.234	56.95
703.557	56.96
703.881	56.97
704.205	56.99
704.529	57.04
704.852	57.06
705.176	57.07
705.499	57.11
705.823	57.11
706.146	57.11
706.47	57.12
706.793	57.13
707.117	57.22
707.44	57.25
707.763	57.27
708.086	57.27
708.409	57.26
708.733	57.23
709.056	57.23
709.379	57.25
709.702	57.29
710.025	57.27
710.348	57.19
710.671	57.21
710.993	57.23
711.316	57.25
711.639	57.27
711.962	57.26
712.284	57.26
712.607	57.29
712.93	57.3
713.252	57.32
713.575	57.32
713.897	57.3
714.22	57.33
714.542	57.37
714.864	57.39
715.187	57.4
715.509	57.41
715.831	57.42
716.153	57.45
716.475	57.45
716.798	57.45
717.12	57.52
717.442	57.52
717.764	57.5
718.085	57.43
718.407	57.44
718.729	57.41
719.051	57.43
719.373	57.46
719.695	57.49
720.016	57.52
720.338	57.49
720.659	57.51
720.981	57.52
721.302	57.54
721.624	57.59
721.945	57.62
722.267	57.64
722.588	57.62
722.909	57.66
723.231	57.69
723.552	57.7
723.873	57.74
724.194	57.74
724.515	57.75
724.836	57.79
725.157	57.81
725.478	57.83
725.799	57.85
726.12	57.84
726.441	57.84
726.762	57.87
727.083	57.88
727.403	57.85
727.724	57.81
728.045	57.77
728.365	57.8
728.686	57.82
729.006	57.84
729.327	57.81
729.647	57.81
729.967	57.82
730.288	57.84
730.608	57.87
730.928	57.91
731.249	57.92
731.569	57.94
731.889	57.96
732.209	57.95
732.529	57.96
732.849	57.93
733.169	57.91
733.489	57.91
733.809	57.91
734.129	57.93
734.448	57.95
734.768	57.95
735.088	57.95
735.408	57.97
735.727	57.98
736.047	57.96
736.366	57.97
736.686	57.98
737.005	57.98
737.325	57.96
737.644	57.96
737.963	57.95
738.283	57.96
738.602	57.94
738.921	57.93
739.24	57.91
739.56	57.87
739.879	57.88
740.198	57.87
740.517	57.89
740.836	57.92
741.155	57.92
741.473	57.93
741.792	57.94
742.111	57.92
742.43	57.98
742.748	57.94
743.067	57.94
743.386	57.95
743.704	57.96
744.023	57.95
744.341	57.93
744.66	57.92
744.978	57.91
745.297	57.93
745.615	57.88
745.933	57.92
746.252	57.92
746.57	57.89
746.888	57.88
747.206	57.87
747.524	57.86
747.842	57.85
748.16	57.84
748.478	57.79
748.796	57.8
749.114	57.78
749.432	57.75
749.749	57.76
750.067	57.74
750.385	57.75
750.703	57.74
751.02	57.74
751.338	57.74
751.655	57.81
751.973	57.8
752.29	57.81
752.608	57.87
752.925	57.84
753.242	57.9
753.56	57.94
753.877	57.94
754.194	57.99
754.511	58
754.828	57.99
755.145	58.03
755.462	57.98
755.779	58.03
756.096	58.08
756.413	58.08
756.73	58.05
757.047	58.07
757.364	58.12
757.68	58.17
757.997	58.15
758.314	58.17
758.63	58.23
758.947	58.27
759.264	58.32
759.58	58.34
759.896	58.32
760.213	58.35
760.529	58.34
760.846	58.35
761.162	58.37
761.478	58.39
761.794	58.37
762.11	58.39
762.426	58.44
762.743	58.42
763.059	58.47
763.375	58.49
763.69	58.5
764.006	58.53
764.322	58.52
764.638	58.48
764.954	58.51
765.27	58.51
765.585	58.52
765.901	58.52
766.216	58.46
766.532	58.42
766.848	58.4
767.163	58.41
767.478	58.45
767.794	58.46
768.109	58.47
768.424	58.49
768.74	58.51
769.055	58.47
769.37	58.49
769.685	58.5
770	58.5
770.315	58.52
770.63	58.49
770.945	58.52
771.26	58.49
771.575	58.47
771.89	58.42
772.205	58.39
772.52	58.33
772.834	58.43
773.149	58.42
773.464	58.39
773.778	58.39
774.093	58.4
774.407	58.4
774.722	58.46
775.036	58.43
775.351	58.37
775.665	58.38
775.979	58.32
776.293	58.3
776.608	58.28
776.922	58.24
777.236	58.3
777.55	58.31
777.864	58.29
778.178	58.28
778.492	58.25
778.806	58.25
779.12	58.23
779.434	58.22
779.747	58.18
780.061	58.22
780.375	58.16
780.689	58.08
781.002	58.04
781.316	58.05
781.629	58.05
781.943	58.07
782.256	58.07
782.57	58.1
782.883	58.07
783.196	58.04
783.51	58.01
783.823	57.99
784.136	58
784.449	58
784.762	58.02
785.075	58.05
785.388	58.08
785.701	58.03
786.014	58.06
786.327	58.08
786.64	57.99
786.953	58.02
787.266	58.05
787.578	58.01
787.891	58.07
788.204	58.07
788.516	58.07
788.829	58.1
789.141	58.04
789.454	58.06
789.766	58.07
790.079	58.05
790.391	58.1
790.703	58.15
791.016	58.14
791.328	58.17
791.64	58.21
791.952	58.25
792.264	58.33
792.576	58.39
792.888	58.43
793.2	58.42
793.512	58.48
793.824	58.45
794.136	58.43
794.448	58.43
794.76	58.47
795.071	58.49
795.383	58.5
795.695	58.55
796.006	58.56
796.318	58.54
796.629	58.52
796.941	58.47
797.252	58.43
797.564	58.45
797.875	58.4
798.186	58.43
798.497	58.45
798.809	58.39
799.12	58.32
799.431	58.36
799.742	58.31
800.053	58.28
800.364	58.3
800.675	58.27
800.986	58.25
801.297	58.31
801.608	58.23
801.918	58.28
802.229	58.28
802.54	58.3
802.851	58.29
803.161	58.3
803.472	58.31
803.782	58.23
804.093	58.22
804.403	58.14
804.714	58.14
805.024	58.12
805.334	58.16
805.645	58.12
805.955	58.19
806.265	58.14
806.575	58.2
806.885	58.15
807.195	58.21
807.505	58.15
807.815	58.08
808.125	58.07
808.435	58.03
808.745	58
809.055	58.08
809.365	58.14
809.674	58.23
809.984	58.31
810.294	58.27
810.603	58.3
810.913	58.38
811.222	58.37
811.532	58.4
811.841	58.53
812.151	58.61
812.46	58.64
812.769	58.63
813.079	58.67
813.388	58.72
813.697	58.73
814.006	58.68
814.315	58.75
814.624	58.81
814.933	58.79
815.242	58.79
815.551	58.86
815.86	58.82
816.169	58.81
816.478	58.89
816.786	58.96
817.095	59.05
817.404	59.09
817.712	59.13
818.021	59.07
818.33	59.11
818.638	59.1
818.947	59.13
819.255	59.13
819.563	59.14
819.872	59.12
820.18	59.2
820.488	59.23
820.796	59.24
821.105	59.28
821.413	59.28
821.721	59.26
822.029	59.32
822.337	59.33
822.645	59.32
822.953	59.37
823.26	59.37
823.568	59.36
823.876	59.34
824.184	59.3
824.491	59.3
824.799	59.28
825.107	59.29
825.414	59.31
825.722	59.33
826.029	59.34
826.337	59.34
826.644	59.33
826.951	59.34
827.259	59.35
827.566	59.39
827.873	59.38
828.18	59.36
828.488	59.38
828.795	59.41
829.102	59.41
829.409	59.41
829.716	59.38
830.023	59.41
830.329	59.43
830.636	59.47
830.943	59.48
831.25	59.5
831.557	59.49
831.863	59.49
832.17	59.52
832.476	59.51
832.783	59.47
833.089	59.44
833.396	59.39
833.702	59.33
834.009	59.33
834.315	59.37
834.621	59.3
834.928	59.28
835.234	59.29
835.54	59.25
835.846	59.28
836.152	59.3
836.458	59.3
836.764	59.3
837.07	59.31
837.376	59.26
837.682	59.19
837.988	59.17
838.293	59.09
838.599	59.08
838.905	59.05
839.211	59.11
839.516	59.13
839.822	59.15
840.127	59.07
840.433	59.15
840.738	59.17
841.044	59.2
841.349	59.24
841.654	59.28
841.959	59.22
842.265	59.23
842.57	59.17
842.875	59.06
843.18	59.11
843.485	59.15
843.79	59.2
844.095	59.31
844.4	59.15
844.705	59.17
845.01	59.23
845.315	59.24
845.619	59.26
845.924	59.22
846.229	59.16
846.533	59.11
846.838	59.06
847.142	58.94
847.447	58.97
847.751	58.78
848.056	58.71
848.36	58.55
848.664	58.51
848.969	58.51
849.273	58.45
849.577	58.31
849.881	58.26
850.185	58.27
850.489	58.42
850.794	58.49
851.097	58.45
851.401	58.56
851.705	58.57
852.009	58.45
852.313	58.38
852.617	58.47
852.92	58.37
853.224	58.29
853.528	58.08
853.831	57.94
854.135	57.73
854.438	57.83
854.742	57.86
855.045	57.85
855.349	58.01
855.652	57.97
855.955	57.93
856.259	57.94
856.562	57.92
856.865	57.95
857.168	57.92
857.471	58.08
857.774	58.1
858.077	58.11
858.38	57.98
858.683	58.06
858.986	57.96
859.289	58.09
859.592	58.26
859.894	58.34
860.197	58.47
860.5	58.56
860.802	58.67
861.105	58.59
861.407	58.63
861.71	58.84
862.012	58.86
862.315	58.83
862.617	58.93
862.919	58.76
863.222	58.78
863.524	58.8
863.826	58.85
864.128	58.94
864.43	59.05
864.732	59.1
865.034	59.24
865.336	59.29
865.638	59.31
865.94	59.24
866.242	59.28
866.544	59.15
866.846	59.3
867.147	59.04
867.449	59.03
867.751	59.03
868.052	59.13
868.354	59.03
868.655	59.08
868.957	59.2
869.258	59.35
869.56	59.56
869.861	59.49
870.162	59.33
870.463	59.19
870.765	59.43
871.066	59.32
871.367	59.22
871.668	59.21
871.969	59.35
872.27	59.42
872.571	59.35
872.872	59.44
873.173	59.38
873.473	59.57
873.774	59.68
874.075	59.61
874.376	59.66
874.676	59.77
874.977	59.57
875.277	59.56
875.578	59.47
875.878	59.27
876.179	59.32
876.479	59.26
876.78	59.26
877.08	59.22
877.38	59.14
877.68	59.08
877.981	59.01
878.281	59.09
878.581	59.01
