Data from UWBM91361_Reflection_00013.txt Node
Date: Sun May 02 12:22:33 EDT 2021
User: vgr7
Spectrometer: USB2G7710
Scans to average: 10
Trigger mode: 4
Integration Time (sec): 1.000000E-1
Electric dark correction enabled: true
Boxcar width: 10
XAxis mode: Wavelengths
Number of Pixels in Spectrum: 2048
>>>>>Begin Spectral Data<<<<<
177.721	158.9
178.105	-135.29
178.488	-25.21
178.871	-25.3
179.254	-379.31
179.636	-123.38
180.019	-19.46
180.402	83.33
180.785	26.96
181.168	62.77
181.55	12.84
181.933	-8.26
182.316	-41.42
182.698	1.74
183.081	37.65
183.463	-13.91
183.846	18.98
184.228	-33.98
184.611	-30.5
184.993	-13.49
185.376	-2.53
185.758	-8.48
186.14	-10.66
186.522	-6.52
186.904	-3.81
187.287	-1.12
187.669	-8.64
188.051	-9.94
188.433	-4.51
188.815	0.42
189.197	-0.5
189.579	5.01
189.961	8.01
190.342	10.93
190.724	13.14
191.106	8.57
191.488	12.88
191.869	10.29
192.251	11.42
192.633	15.26
193.014	10.67
193.396	13.94
193.777	14.65
194.159	15.65
194.54	13.37
194.922	8.92
195.303	15.93
195.684	19.48
196.065	19.85
196.447	15.42
196.828	14.29
197.209	9.67
197.59	3.59
197.971	-1.72
198.352	-0.61
198.733	4.24
199.114	5.29
199.495	2.46
199.876	0.94
200.257	1.77
200.638	2.36
201.018	4.03
201.399	3.09
201.78	1.83
202.16	1.58
202.541	3.59
202.922	6.89
203.302	2.52
203.683	3.04
204.063	-0.15
204.444	2.64
204.824	4.93
205.204	8.87
205.585	9.44
205.965	11.48
206.345	14.74
206.725	5.77
207.106	7.86
207.486	3.42
207.866	8.4
208.246	6.46
208.626	2.98
209.006	2.32
209.386	1.58
209.766	2.71
210.145	5.41
210.525	-1.1
210.905	-0.13
211.285	-0.13
211.664	-2.08
212.044	3.67
212.424	4.94
212.803	1.74
213.183	7.42
213.562	7.8
213.942	7.81
214.321	0.58
214.701	-3.79
215.08	-1.72
215.459	1.33
215.838	-5.27
216.218	-1.03
216.597	2.05
216.976	2.81
217.355	0.94
217.734	1.47
218.113	-2
218.492	3.17
218.871	2.91
219.25	3.47
219.629	3.96
220.008	2.56
220.387	2.56
220.766	-2.3
221.144	-5.93
221.523	-2.47
221.902	-3.38
222.28	0.2
222.659	5.97
223.037	4.61
223.416	7.53
223.794	12.11
224.173	11.99
224.551	10.25
224.929	8.12
225.308	10.96
225.686	9.85
226.064	8.6
226.442	8.1
226.821	7.7
227.199	6.22
227.577	4.38
227.955	2.82
228.333	2.43
228.711	4.09
229.089	4.37
229.467	4.55
229.845	5.78
230.222	5.62
230.6	5.45
230.978	5.46
231.356	4.77
231.733	4.16
232.111	3.5
232.488	3.67
232.866	3.85
233.243	3.01
233.621	3.45
233.998	4.02
234.376	4.22
234.753	5.21
235.13	5.8
235.508	7.18
235.885	7.88
236.262	7.78
236.639	7.61
237.016	7.52
237.393	7.01
237.77	6.24
238.147	6
238.524	6.07
238.901	6.36
239.278	6.19
239.655	6.26
240.032	6.05
240.409	6.13
240.785	6.08
241.162	6.15
241.539	6.11
241.915	6.07
242.292	6.01
242.668	5.83
243.045	5.7
243.421	5.47
243.798	5.44
244.174	5.46
244.551	5.39
244.927	5.26
245.303	5.31
245.679	5.39
246.056	5.32
246.432	5.3
246.808	5.21
247.184	5.23
247.56	5.15
247.936	5.22
248.312	5.18
248.688	5.26
249.064	5.22
249.44	5.23
249.815	5.26
250.191	5.2
250.567	5.1
250.943	5.12
251.318	5.13
251.694	5
252.069	4.94
252.445	5.04
252.82	5.06
253.196	4.97
253.571	4.8
253.947	4.9
254.322	4.9
254.697	4.94
255.073	4.93
255.448	4.9
255.823	4.81
256.198	4.73
256.573	4.63
256.948	4.61
257.323	4.53
257.698	4.42
258.073	4.4
258.448	4.43
258.823	4.4
259.198	4.45
259.573	4.47
259.948	4.47
260.322	4.41
260.697	4.42
261.072	4.41
261.446	4.41
261.821	4.38
262.195	4.28
262.57	4.25
262.944	4.22
263.319	4.23
263.693	4.27
264.067	4.3
264.442	4.26
264.816	4.27
265.19	4.26
265.564	4.32
265.938	4.34
266.313	4.34
266.687	4.3
267.061	4.23
267.435	4.22
267.809	4.24
268.183	4.25
268.556	4.25
268.93	4.26
269.304	4.32
269.678	4.31
270.051	4.35
270.425	4.37
270.799	4.37
271.172	4.38
271.546	4.36
271.919	4.34
272.293	4.31
272.666	4.28
273.04	4.32
273.413	4.28
273.787	4.25
274.16	4.23
274.533	4.27
274.906	4.26
275.279	4.32
275.653	4.29
276.026	4.24
276.399	4.2
276.772	4.24
277.145	4.28
277.518	4.28
277.891	4.3
278.263	4.32
278.636	4.34
279.009	4.33
279.382	4.32
279.755	4.33
280.127	4.42
280.5	4.43
280.872	4.37
281.245	4.4
281.617	4.39
281.99	4.4
282.362	4.35
282.735	4.35
283.107	4.32
283.479	4.35
283.852	4.36
284.224	4.39
284.596	4.37
284.968	4.34
285.34	4.34
285.713	4.37
286.085	4.32
286.457	4.31
286.829	4.29
287.201	4.29
287.572	4.28
287.944	4.29
288.316	4.31
288.688	4.38
289.06	4.39
289.431	4.43
289.803	4.43
290.175	4.49
290.546	4.5
290.918	4.55
291.289	4.55
291.661	4.61
292.032	4.64
292.403	4.66
292.775	4.68
293.146	4.75
293.517	4.77
293.889	4.86
294.26	4.9
294.631	4.94
295.002	4.98
295.373	5.07
295.744	5.07
296.115	5.12
296.486	5.13
296.857	5.16
297.228	5.2
297.599	5.26
297.97	5.29
298.34	5.34
298.711	5.38
299.082	5.43
299.452	5.46
299.823	5.5
300.194	5.56
300.564	5.59
300.935	5.61
301.305	5.67
301.676	5.69
302.046	5.73
302.416	5.77
302.787	5.85
303.157	5.91
303.527	6
303.897	6.04
304.267	6.1
304.637	6.16
305.008	6.27
305.378	6.34
305.748	6.41
306.117	6.5
306.487	6.53
306.857	6.62
307.227	6.67
307.597	6.71
307.967	6.81
308.336	6.9
308.706	7.02
309.076	7.06
309.445	7.14
309.815	7.22
310.184	7.3
310.554	7.35
310.923	7.35
311.293	7.41
311.662	7.5
312.031	7.56
312.401	7.63
312.77	7.64
313.139	7.75
313.508	7.78
313.877	7.83
314.246	7.9
314.616	7.96
314.985	8.06
315.353	8.15
315.722	8.22
316.091	8.3
316.46	8.34
316.829	8.43
317.198	8.52
317.567	8.56
317.935	8.62
318.304	8.66
318.672	8.81
319.041	8.88
319.41	8.91
319.778	9
320.147	9.09
320.515	9.17
320.883	9.22
321.252	9.31
321.62	9.35
321.988	9.46
322.357	9.49
322.725	9.54
323.093	9.6
323.461	9.64
323.829	9.7
324.197	9.69
324.565	9.7
324.933	9.76
325.301	9.87
325.669	9.95
326.037	10.03
326.405	10.06
326.772	10.05
327.14	10.09
327.508	10.13
327.875	10.18
328.243	10.19
328.61	10.18
328.978	10.25
329.346	10.31
329.713	10.3
330.08	10.38
330.448	10.4
330.815	10.42
331.182	10.48
331.55	10.53
331.917	10.62
332.284	10.69
332.651	10.73
333.018	10.76
333.385	10.8
333.752	10.86
334.119	10.87
334.486	10.94
334.853	11
335.22	11.01
335.587	11.04
335.954	11.1
336.32	11.14
336.687	11.13
337.054	11.15
337.42	11.21
337.787	11.21
338.153	11.28
338.52	11.34
338.886	11.37
339.253	11.38
339.619	11.41
339.986	11.43
340.352	11.44
340.718	11.47
341.084	11.49
341.451	11.48
341.817	11.53
342.183	11.59
342.549	11.59
342.915	11.63
343.281	11.7
343.647	11.73
344.013	11.78
344.379	11.81
344.745	11.83
345.11	11.85
345.476	11.88
345.842	11.91
346.208	11.89
346.573	11.9
346.939	11.93
347.304	11.92
347.67	11.94
348.035	11.97
348.401	11.94
348.766	11.93
349.132	11.95
349.497	11.96
349.862	11.93
350.228	11.94
350.593	11.94
350.958	11.88
351.323	11.84
351.688	11.81
352.053	11.79
352.418	11.78
352.783	11.75
353.148	11.73
353.513	11.69
353.878	11.69
354.243	11.68
354.608	11.65
354.972	11.64
355.337	11.59
355.702	11.51
356.066	11.48
356.431	11.45
356.795	11.4
357.16	11.33
357.524	11.29
357.889	11.23
358.253	11.2
358.618	11.17
358.982	11.16
359.346	11.13
359.71	11.1
360.075	11.05
360.439	11.01
360.803	10.96
361.167	10.89
361.531	10.85
361.895	10.8
362.259	10.75
362.623	10.71
362.987	10.68
363.351	10.66
363.714	10.63
364.078	10.57
364.442	10.53
364.806	10.5
365.169	10.46
365.533	10.41
365.896	10.36
366.26	10.3
366.623	10.23
366.987	10.17
367.35	10.09
367.714	10.05
368.077	10
368.44	9.94
368.803	9.89
369.167	9.85
369.53	9.8
369.893	9.74
370.256	9.66
370.619	9.59
370.982	9.51
371.345	9.44
371.708	9.37
372.071	9.29
372.434	9.22
372.797	9.14
373.159	9.09
373.522	9
373.885	8.94
374.247	8.87
374.61	8.79
374.973	8.73
375.335	8.64
375.698	8.55
376.06	8.48
376.423	8.43
376.785	8.35
377.147	8.26
377.51	8.2
377.872	8.13
378.234	8.05
378.596	8.01
378.958	7.94
379.321	7.89
379.683	7.83
380.045	7.76
380.407	7.7
380.769	7.63
381.13	7.58
381.492	7.51
381.854	7.43
382.216	7.39
382.578	7.34
382.939	7.29
383.301	7.24
383.663	7.18
384.024	7.12
384.386	7.07
384.747	7.03
385.109	6.98
385.47	6.94
385.832	6.9
386.193	6.86
386.554	6.82
386.916	6.78
387.277	6.74
387.638	6.71
387.999	6.65
388.36	6.62
388.721	6.57
389.082	6.53
389.443	6.51
389.804	6.45
390.165	6.41
390.526	6.36
390.887	6.32
391.248	6.28
391.609	6.24
391.969	6.21
392.33	6.17
392.691	6.12
393.051	6.09
393.412	6.04
393.772	5.99
394.133	5.95
394.493	5.9
394.854	5.86
395.214	5.8
395.574	5.76
395.935	5.71
396.295	5.66
396.655	5.61
397.015	5.56
397.376	5.51
397.736	5.48
398.096	5.43
398.456	5.38
398.816	5.34
399.176	5.29
399.535	5.24
399.895	5.2
400.255	5.16
400.615	5.12
400.975	5.09
401.334	5.06
401.694	5.04
402.054	5.02
402.413	4.99
402.773	4.97
403.132	4.95
403.492	4.94
403.851	4.91
404.211	4.9
404.57	4.89
404.929	4.87
405.288	4.85
405.648	4.83
406.007	4.83
406.366	4.82
406.725	4.82
407.084	4.8
407.443	4.79
407.802	4.78
408.161	4.77
408.52	4.75
408.879	4.74
409.238	4.72
409.596	4.69
409.955	4.68
410.314	4.67
410.673	4.65
411.031	4.64
411.39	4.63
411.748	4.62
412.107	4.6
412.465	4.59
412.824	4.59
413.182	4.59
413.54	4.58
413.899	4.55
414.257	4.53
414.615	4.52
414.974	4.5
415.332	4.5
415.69	4.48
416.048	4.47
416.406	4.46
416.764	4.46
417.122	4.46
417.48	4.45
417.838	4.45
418.195	4.45
418.553	4.44
418.911	4.44
419.269	4.43
419.626	4.42
419.984	4.42
420.342	4.41
420.699	4.4
421.057	4.4
421.414	4.39
421.772	4.38
422.129	4.38
422.486	4.38
422.844	4.37
423.201	4.36
423.558	4.36
423.915	4.34
424.273	4.33
424.63	4.32
424.987	4.3
425.344	4.29
425.701	4.28
426.058	4.27
426.415	4.25
426.772	4.23
427.128	4.22
427.485	4.2
427.842	4.18
428.199	4.17
428.555	4.15
428.912	4.14
429.269	4.14
429.625	4.13
429.982	4.11
430.338	4.1
430.695	4.1
431.051	4.09
431.407	4.09
431.764	4.09
432.12	4.09
432.476	4.1
432.832	4.09
433.189	4.09
433.545	4.09
433.901	4.1
434.257	4.1
434.613	4.1
434.969	4.1
435.325	4.11
435.681	4.11
436.036	4.11
436.392	4.12
436.748	4.12
437.104	4.12
437.459	4.13
437.815	4.13
438.171	4.13
438.526	4.13
438.882	4.13
439.237	4.13
439.593	4.13
439.948	4.13
440.304	4.14
440.659	4.14
441.014	4.14
441.369	4.13
441.725	4.13
442.08	4.14
442.435	4.14
442.79	4.14
443.145	4.14
443.5	4.14
443.855	4.13
444.21	4.13
444.565	4.13
444.92	4.12
445.275	4.12
445.629	4.11
445.984	4.11
446.339	4.11
446.693	4.1
447.048	4.09
447.403	4.09
447.757	4.09
448.112	4.08
448.466	4.08
448.82	4.07
449.175	4.06
449.529	4.05
449.883	4.04
450.238	4.02
450.592	4.01
450.946	4
451.3	3.99
451.654	3.98
452.008	3.97
452.362	3.96
452.716	3.95
453.07	3.95
453.424	3.93
453.778	3.93
454.132	3.92
454.486	3.92
454.839	3.92
455.193	3.92
455.547	3.92
455.9	3.92
456.254	3.92
456.607	3.93
456.961	3.94
457.314	3.95
457.668	3.95
458.021	3.96
458.375	3.97
458.728	3.98
459.081	3.98
459.434	3.98
459.787	3.98
460.141	3.98
460.494	3.98
460.847	3.99
461.2	3.99
461.553	3.99
461.906	3.99
462.259	3.99
462.611	4
462.964	3.99
463.317	4
463.67	4
464.022	4
464.375	4
464.728	4
465.08	4
465.433	3.99
465.785	4
466.138	4
466.49	3.99
466.843	4
467.195	4.01
467.547	4.02
467.899	4.03
468.252	4.04
468.604	4.05
468.956	4.06
469.308	4.06
469.66	4.06
470.012	4.06
470.364	4.06
470.716	4.07
471.068	4.08
471.42	4.08
471.772	4.09
472.123	4.09
472.475	4.11
472.827	4.12
473.178	4.12
473.53	4.12
473.882	4.12
474.233	4.13
474.585	4.13
474.936	4.13
475.288	4.13
475.639	4.14
475.99	4.14
476.342	4.14
476.693	4.15
477.044	4.14
477.395	4.15
477.746	4.16
478.097	4.16
478.448	4.18
478.8	4.26
479.15	4.36
479.501	4.5
479.852	4.65
480.203	4.81
480.554	4.98
480.905	5.15
481.255	5.32
481.606	5.48
481.957	5.65
482.307	5.8
482.658	5.94
483.009	6.06
483.359	6.17
483.709	6.26
484.06	6.35
484.41	6.44
484.761	6.52
485.111	6.59
485.461	6.67
485.811	6.74
486.162	6.76
486.512	6.76
486.862	6.72
487.212	6.66
487.562	6.58
487.912	6.49
488.262	6.39
488.612	6.28
488.961	6.16
489.311	6.02
489.661	5.89
490.011	5.76
490.36	5.62
490.71	5.48
491.06	5.33
491.409	5.19
491.759	5.07
492.108	4.97
492.458	4.89
492.807	4.82
493.157	4.74
493.506	4.67
493.855	4.6
494.204	4.54
494.554	4.48
494.903	4.43
495.252	4.38
495.601	4.34
495.95	4.3
496.299	4.27
496.648	4.24
496.997	4.21
497.346	4.21
497.695	4.23
498.043	4.27
498.392	4.32
498.741	4.39
499.09	4.44
499.438	4.48
499.787	4.5
500.135	4.52
500.484	4.55
500.832	4.58
501.181	4.62
501.529	4.65
501.878	4.68
502.226	4.71
502.574	4.75
502.923	4.78
503.271	4.81
503.619	4.86
503.967	4.9
504.315	4.94
504.663	4.99
505.011	5.04
505.359	5.08
505.707	5.14
506.055	5.19
506.403	5.25
506.751	5.3
507.098	5.36
507.446	5.42
507.794	5.48
508.141	5.53
508.489	5.59
508.837	5.65
509.184	5.71
509.531	5.77
509.879	5.83
510.226	5.89
510.574	5.95
510.921	6.01
511.268	6.08
511.616	6.14
511.963	6.21
512.31	6.27
512.657	6.34
513.004	6.41
513.351	6.48
513.698	6.57
514.045	6.65
514.392	6.73
514.739	6.82
515.086	6.9
515.432	6.99
515.779	7.08
516.126	7.16
516.473	7.25
516.819	7.33
517.166	7.41
517.512	7.48
517.859	7.56
518.205	7.63
518.552	7.7
518.898	7.76
519.245	7.83
519.591	7.9
519.937	7.98
520.283	8.06
520.629	8.14
520.976	8.21
521.322	8.3
521.668	8.39
522.014	8.48
522.36	8.57
522.706	8.68
523.052	8.81
523.398	9
523.743	9.26
524.089	9.55
524.435	9.86
524.781	10.18
525.126	10.51
525.472	10.83
525.817	11.15
526.163	11.45
526.509	11.73
526.854	11.98
527.199	12.19
527.545	12.35
527.89	12.48
528.235	12.62
528.581	12.74
528.926	12.87
529.271	13
529.616	13.13
529.961	13.24
530.306	13.36
530.651	13.42
530.996	13.43
531.341	13.41
531.686	13.35
532.031	13.25
532.376	13.11
532.721	12.94
533.065	12.76
533.41	12.63
533.755	12.51
534.099	12.43
534.444	12.4
534.788	12.42
535.133	12.47
535.477	12.53
535.822	12.61
536.166	12.7
536.51	12.8
536.855	12.94
537.199	13.1
537.543	13.27
537.887	13.48
538.231	13.69
538.576	13.92
538.92	14.17
539.264	14.44
539.608	14.72
539.951	15
540.295	15.27
540.639	15.46
540.983	15.65
541.327	15.8
541.671	15.95
542.014	16.12
542.358	16.29
542.701	16.45
543.045	16.62
543.389	16.78
543.732	16.94
544.075	17.1
544.419	17.26
544.762	17.4
545.105	17.53
545.449	17.65
545.792	17.76
546.135	17.88
546.478	18
546.821	18.15
547.165	18.35
547.508	18.59
547.851	18.87
548.194	19.18
548.536	19.53
548.879	19.82
549.222	20.08
549.565	20.33
549.908	20.59
550.25	20.86
550.593	21.13
550.936	21.42
551.278	21.68
551.621	21.96
551.963	22.24
552.306	22.53
552.648	22.82
552.991	23.08
553.333	23.36
553.675	23.65
554.017	23.93
554.36	24.21
554.702	24.49
555.044	24.78
555.386	25.07
555.728	25.36
556.07	25.65
556.412	25.93
556.754	26.24
557.096	26.55
557.438	26.85
557.78	27.18
558.121	27.48
558.463	27.79
558.805	28.11
559.147	28.43
559.488	28.73
559.83	29.04
560.171	29.38
560.513	29.71
560.854	30.02
561.196	30.36
561.537	30.7
561.878	31.03
562.22	31.35
562.561	31.67
562.902	32
563.243	32.32
563.584	32.65
563.925	32.96
564.266	33.26
564.607	33.59
564.948	33.88
565.289	34.2
565.63	34.5
565.971	34.8
566.312	35.1
566.653	35.4
566.993	35.7
567.334	36.01
567.675	36.3
568.015	36.59
568.356	36.88
568.696	37.16
569.037	37.45
569.377	37.75
569.718	38.04
570.058	38.33
570.398	38.63
570.739	38.89
571.079	39.16
571.419	39.43
571.759	39.67
572.099	39.9
572.439	40.14
572.779	40.37
573.119	40.6
573.459	40.8
573.799	41.01
574.139	41.21
574.479	41.39
574.819	41.59
575.158	41.78
575.498	41.96
575.838	42.14
576.177	42.3
576.517	42.49
576.856	42.64
577.196	42.79
577.535	42.94
577.875	43.11
578.214	43.25
578.553	43.41
578.893	43.57
579.232	43.74
579.571	43.89
579.91	44.05
580.25	44.21
580.589	44.38
580.928	44.54
581.267	44.71
581.606	44.87
581.945	45.03
582.283	45.22
582.622	45.4
582.961	45.57
583.3	45.75
583.639	45.92
583.977	46.12
584.316	46.31
584.654	46.47
584.993	46.66
585.332	46.87
585.67	47.05
586.008	47.25
586.347	47.43
586.685	47.62
587.024	47.8
587.362	47.97
587.7	48.14
588.038	48.33
588.376	48.5
588.715	48.65
589.053	48.81
589.391	48.95
589.729	49.1
590.067	49.24
590.404	49.4
590.742	49.52
591.08	49.66
591.418	49.79
591.756	49.97
592.093	50.16
592.431	50.31
592.769	50.45
593.106	50.58
593.444	50.71
593.781	50.85
594.119	50.99
594.456	51.1
594.793	51.24
595.131	51.35
595.468	51.44
595.805	51.55
596.143	51.62
596.48	51.73
596.817	51.79
597.154	51.9
597.491	51.95
597.828	52.04
598.165	52.09
598.502	52.19
598.839	52.26
599.176	52.29
599.512	52.38
599.849	52.48
600.186	52.57
600.523	52.67
600.859	52.79
601.196	52.89
601.532	52.98
601.869	53.08
602.205	53.16
602.542	53.27
602.878	53.35
603.215	53.44
603.551	53.51
603.887	53.63
604.223	53.71
604.56	53.79
604.896	53.88
605.232	53.97
605.568	54.04
605.904	54.12
606.24	54.21
606.576	54.27
606.912	54.33
607.248	54.36
607.583	54.4
607.919	54.44
608.255	54.47
608.591	54.53
608.926	54.56
609.262	54.6
609.597	54.62
609.933	54.66
610.268	54.68
610.604	54.69
610.939	54.69
611.275	54.71
611.61	54.77
611.945	54.78
612.281	54.84
612.616	54.86
612.951	54.86
613.286	54.87
613.621	54.89
613.956	54.92
614.291	54.97
614.626	54.99
614.961	54.99
615.296	55.02
615.631	55.02
615.966	55.03
616.3	55.07
616.635	55.11
616.97	55.15
617.304	55.19
617.639	55.24
617.973	55.29
618.308	55.31
618.642	55.34
618.977	55.38
619.311	55.41
619.646	55.42
619.98	55.48
620.314	55.51
620.648	55.55
620.983	55.59
621.317	55.64
621.651	55.71
621.985	55.76
622.319	55.82
622.653	55.9
622.987	55.98
623.321	56.04
623.655	56.11
623.988	56.19
624.322	56.29
624.656	56.36
624.99	56.44
625.323	56.48
625.657	56.52
625.99	56.6
626.324	56.62
626.657	56.68
626.991	56.72
627.324	56.76
627.658	56.77
627.991	56.77
628.324	56.78
628.657	56.79
628.991	56.84
629.324	56.87
629.657	56.9
629.99	56.93
630.323	56.97
630.656	56.97
630.989	56.98
631.322	57
631.655	57.02
631.987	56.97
632.32	57
632.653	57.02
632.986	57
633.318	57.01
633.651	57.02
633.984	57.05
634.316	57.08
634.649	57.09
634.981	57.16
635.313	57.17
635.646	57.19
635.978	57.19
636.31	57.19
636.643	57.18
636.975	57.12
637.307	57.11
637.639	57.12
637.971	57.12
638.303	57.1
638.635	57.09
638.967	57.15
639.299	57.15
639.631	57.17
639.963	57.23
640.295	57.25
640.626	57.27
640.958	57.27
641.29	57.3
641.621	57.37
641.953	57.38
642.285	57.43
642.616	57.42
642.948	57.44
643.279	57.47
643.61	57.5
643.942	57.58
644.273	57.64
644.604	57.68
644.936	57.72
645.267	57.74
645.598	57.78
645.929	57.8
646.26	57.88
646.591	57.91
646.922	57.93
647.253	57.99
647.584	57.98
647.915	58.02
648.245	58.05
648.576	58.04
648.907	58.07
649.238	58.08
649.568	58.13
649.899	58.16
650.229	58.2
650.56	58.22
650.89	58.27
651.221	58.29
651.551	58.36
651.882	58.36
652.212	58.38
652.542	58.38
652.872	58.42
653.203	58.44
653.533	58.47
653.863	58.47
654.193	58.48
654.523	58.52
654.853	58.59
655.183	58.59
655.513	58.67
655.843	58.69
656.172	58.75
656.502	58.8
656.832	58.82
657.162	58.84
657.491	58.91
657.821	58.92
658.15	58.93
658.48	58.93
658.809	58.91
659.139	58.95
659.468	58.99
659.798	58.97
660.127	59
660.456	59.03
660.785	59.05
661.115	59.05
661.444	59.06
661.773	59.03
662.102	59.01
662.431	58.97
662.76	58.99
663.089	58.97
663.418	58.95
663.747	58.97
664.076	58.95
664.404	58.9
664.733	58.88
665.062	58.9
665.39	58.88
665.719	58.95
666.048	58.96
666.376	58.97
666.705	58.97
667.033	58.94
667.362	58.97
667.69	58.96
668.018	58.97
668.347	59.02
668.675	59.07
669.003	59.11
669.331	59.12
669.659	59.16
669.987	59.21
670.315	59.21
670.643	59.23
670.971	59.28
671.299	59.29
671.627	59.33
671.955	59.3
672.283	59.31
672.61	59.32
672.938	59.38
673.266	59.39
673.593	59.45
673.921	59.48
674.249	59.48
674.576	59.53
674.904	59.57
675.231	59.57
675.558	59.63
675.886	59.67
676.213	59.73
676.54	59.78
676.867	59.82
677.195	59.92
677.522	59.95
677.849	59.98
678.176	60
678.503	60.06
678.83	60.1
679.157	60.19
679.484	60.22
679.81	60.21
680.137	60.28
680.464	60.32
680.791	60.34
681.117	60.33
681.444	60.34
681.771	60.39
682.097	60.43
682.424	60.43
682.75	60.42
683.077	60.46
683.403	60.47
683.729	60.46
684.056	60.47
684.382	60.5
684.708	60.55
685.034	60.64
685.36	60.63
685.686	60.72
686.012	60.76
686.339	60.8
686.664	60.82
686.99	60.8
687.316	60.77
687.642	60.8
687.968	60.83
688.294	60.9
688.619	60.91
688.945	60.91
689.271	60.92
689.596	60.99
689.922	61.02
690.247	61.02
690.573	61
690.898	61.01
691.224	61.05
691.549	61.02
691.874	61.01
692.2	61.03
692.525	61.01
692.85	61.03
693.175	61.03
693.5	61.04
693.825	61.06
694.15	61.1
694.475	61.11
694.8	61.11
695.125	61.12
695.45	61.14
695.775	61.18
696.099	61.17
696.424	61.2
696.749	61.22
697.073	61.28
697.398	61.34
697.723	61.32
698.047	61.25
698.372	61.26
698.696	61.24
699.02	61.23
699.345	61.23
699.669	61.2
699.993	61.16
700.318	61.16
700.642	61.18
700.966	61.19
701.29	61.17
701.614	61.17
701.938	61.15
702.262	61.12
702.586	61.07
702.91	61.08
703.234	61.02
703.557	60.95
703.881	60.9
704.205	60.87
704.529	60.81
704.852	60.83
705.176	60.84
705.499	60.93
705.823	60.94
706.146	60.94
706.47	60.9
706.793	60.93
707.117	60.93
707.44	60.93
707.763	60.94
708.086	60.96
708.409	60.97
708.733	61.01
709.056	61.03
709.379	61.1
709.702	61.14
710.025	61.2
710.348	61.25
710.671	61.25
710.993	61.25
711.316	61.32
711.639	61.38
711.962	61.43
712.284	61.36
712.607	61.41
712.93	61.47
713.252	61.52
713.575	61.6
713.897	61.63
714.22	61.69
714.542	61.73
714.864	61.8
715.187	61.92
715.509	61.93
715.831	61.99
716.153	62
716.475	62.02
716.798	62
717.12	62.06
717.442	62.07
717.764	62.1
718.085	62.12
718.407	62.14
718.729	62.13
719.051	62.19
719.373	62.17
719.695	62.1
720.016	62.03
720.338	61.98
720.659	61.99
720.981	61.88
721.302	61.83
721.624	61.83
721.945	61.73
722.267	61.73
722.588	61.65
722.909	61.67
723.231	61.59
723.552	61.66
723.873	61.63
724.194	61.66
724.515	61.72
724.836	61.67
725.157	61.63
725.478	61.6
725.799	61.61
726.12	61.64
726.441	61.68
726.762	61.81
727.083	61.9
727.403	61.94
727.724	62
728.045	62.03
728.365	61.96
728.686	62
729.006	61.96
729.327	62.03
729.647	62.02
729.967	62.1
730.288	62.07
730.608	62.06
730.928	62.05
731.249	61.97
731.569	61.96
731.889	61.99
732.209	61.97
732.529	61.96
732.849	61.93
733.169	61.88
733.489	61.75
733.809	61.69
734.129	61.74
734.448	61.69
734.768	61.65
735.088	61.64
735.408	61.58
735.727	61.54
736.047	61.47
736.366	61.41
736.686	61.31
737.005	61.29
737.325	61.23
737.644	61.15
737.963	61.16
738.283	61.18
738.602	61.14
738.921	61.18
739.24	61.16
739.56	61.16
739.879	61.24
740.198	61.31
740.517	61.36
740.836	61.21
741.155	61.22
741.473	61.17
741.792	61.15
742.111	61.16
742.43	61.21
742.748	61.19
743.067	61.19
743.386	61.18
743.704	61.18
744.023	61.24
744.341	61.32
744.66	61.3
744.978	61.33
745.297	61.31
745.615	61.23
745.933	61.13
746.252	61.08
746.57	60.94
746.888	60.89
747.206	60.8
747.524	60.86
747.842	60.85
748.16	60.96
748.478	60.9
748.796	60.95
749.114	60.96
749.432	61.05
749.749	61.09
750.067	61.17
750.385	61.22
750.703	61.21
751.02	61.15
751.338	61.17
751.655	61.09
751.973	61.13
752.29	61.17
752.608	61.22
752.925	61.21
753.242	61.35
753.56	61.41
753.877	61.42
754.194	61.42
754.511	61.39
754.828	61.31
755.145	61.42
755.462	61.5
755.779	61.51
756.096	61.51
756.413	61.58
756.73	61.62
757.047	61.62
757.364	61.68
757.68	61.75
757.997	61.87
758.314	62.02
758.63	62.14
758.947	62.3
759.264	62.52
759.58	62.78
759.896	62.82
760.213	62.91
760.529	63.01
760.846	63.03
761.162	63.14
761.478	63.33
761.794	63.48
762.11	63.45
762.426	63.53
762.743	63.6
763.059	63.66
763.375	63.67
763.69	63.69
764.006	63.68
764.322	63.71
764.638	63.73
764.954	63.67
765.27	63.64
765.585	63.58
765.901	63.5
766.216	63.33
766.532	63.32
766.848	63.26
767.163	63.23
767.478	63.24
767.794	63.19
768.109	63.07
768.424	62.85
768.74	62.79
769.055	62.68
769.37	62.56
769.685	62.4
770	62.27
770.315	62.15
770.63	62.09
770.945	62.03
771.26	61.88
771.575	61.84
771.89	61.75
772.205	61.75
772.52	61.54
772.834	61.6
773.149	61.51
773.464	61.51
773.778	61.46
774.093	61.44
774.407	61.37
774.722	61.32
775.036	61.38
775.351	61.36
775.665	61.4
775.979	61.42
776.293	61.42
776.608	61.49
776.922	61.48
777.236	61.4
777.55	61.38
777.864	61.42
778.178	61.45
778.492	61.49
778.806	61.45
779.12	61.56
779.434	61.55
779.747	61.59
780.061	61.58
780.375	61.55
780.689	61.55
781.002	61.71
781.316	61.84
781.629	61.9
781.943	61.87
782.256	61.91
782.57	61.97
782.883	61.91
783.196	61.96
783.51	62.03
783.823	62.15
784.136	62.09
784.449	62.09
784.762	62.21
785.075	62.31
785.388	62.38
785.701	62.36
786.014	62.39
786.327	62.45
786.64	62.37
786.953	62.44
787.266	62.5
787.578	62.44
787.891	62.44
788.204	62.54
788.516	62.75
788.829	62.74
789.141	62.67
789.454	62.73
789.766	62.57
790.079	62.57
790.391	62.61
790.703	62.78
791.016	62.94
791.328	62.89
791.64	62.8
791.952	62.62
792.264	62.73
792.576	62.8
792.888	62.79
793.2	62.93
793.512	63.04
793.824	63
794.136	63.01
794.448	63
794.76	63.04
795.071	62.96
795.383	62.87
795.695	62.88
796.006	62.97
796.318	63.1
796.629	63.16
796.941	63.21
797.252	63.24
797.564	63.07
797.875	63.07
798.186	63.14
798.497	63.39
798.809	63.36
799.12	63.46
799.431	63.5
799.742	63.57
800.053	63.56
800.364	63.61
800.675	63.85
800.986	63.88
801.297	63.77
801.608	63.69
801.918	63.9
802.229	64
802.54	64.01
802.851	64.1
803.161	64.17
803.472	64.11
803.782	63.94
804.093	63.98
804.403	63.93
804.714	64.02
805.024	63.96
805.334	64
805.645	63.8
805.955	63.79
806.265	63.68
806.575	63.54
806.885	63.6
807.195	63.24
807.505	63.18
807.815	63.22
808.125	63.34
808.435	63.21
808.745	63.31
809.055	63.43
809.365	63.53
809.674	63.51
809.984	63.62
810.294	63.68
810.603	63.81
810.913	63.93
811.222	63.92
811.532	63.98
811.841	64.15
812.151	64.11
812.46	64.14
812.769	64.3
813.079	64.44
813.388	64.4
813.697	64.69
814.006	64.79
814.315	64.91
814.624	64.92
814.933	65.1
815.242	65
815.551	64.86
815.86	64.73
816.169	64.74
816.478	64.65
816.786	64.67
817.095	64.77
817.404	64.85
817.712	64.69
818.021	64.66
818.33	64.57
818.638	64.8
818.947	64.95
819.255	65.04
819.563	65.21
819.872	65.2
820.18	65.33
820.488	65.32
820.796	65.33
821.105	65.33
821.413	65.3
821.721	65.39
822.029	65.47
822.337	65.47
822.645	65.5
822.953	65.53
823.26	65.53
823.568	65.55
823.876	65.52
824.184	65.58
824.491	65.56
824.799	65.6
825.107	65.55
825.414	65.54
825.722	65.51
826.029	65.48
826.337	65.48
826.644	65.4
826.951	65.4
827.259	65.36
827.566	65.35
827.873	65.36
828.18	65.22
828.488	65.13
828.795	65.17
829.102	65.1
829.409	65.07
829.716	65.07
830.023	65.05
830.329	65.04
830.636	64.95
830.943	65.06
831.25	65.05
831.557	65.11
831.863	65.11
832.17	65.07
832.476	65.02
832.783	65.06
833.089	65.19
833.396	65.24
833.702	65.29
834.009	65.23
834.315	65.15
834.621	65.3
834.928	65.36
835.234	65.25
835.54	65.24
835.846	65.19
836.152	65.21
836.458	65
836.764	65.11
837.07	65.1
837.376	64.96
837.682	64.79
837.988	64.76
838.293	64.78
838.599	64.86
838.905	65.04
839.211	65.06
839.516	64.91
839.822	64.76
840.127	64.59
840.433	64.73
840.738	64.84
841.044	64.84
841.349	64.75
841.654	64.93
841.959	64.98
842.265	65.07
842.57	65.05
842.875	65.15
843.18	64.86
843.485	64.89
843.79	64.82
844.095	65.09
844.4	64.94
844.705	64.72
845.01	64.7
845.315	64.28
845.619	64.05
845.924	64.11
846.229	64.17
846.533	64.31
846.838	64.21
847.142	64.18
847.447	63.79
847.751	63.57
848.056	63.37
848.36	63.27
848.664	63.44
848.969	63.35
849.273	63.47
849.577	63.76
849.881	63.72
850.185	64.07
850.489	64.13
850.794	64.41
851.097	64.56
851.401	64.41
851.705	64.6
852.009	64.6
852.313	64.68
852.617	64.5
852.92	64.6
853.224	64.57
853.528	65.01
853.831	65.43
854.135	65.99
854.438	66.04
854.742	66.04
855.045	65.53
855.349	65.77
855.652	65.75
855.955	65.54
856.259	65.67
856.562	65.57
856.865	65.32
857.168	65.24
857.471	65
857.774	65.12
858.077	65.08
858.38	65.81
858.683	65.4
858.986	65.67
859.289	65.78
859.592	65.61
859.894	64.91
860.197	64.79
860.5	64.42
860.802	64.16
861.105	64.15
861.407	64.66
861.71	64.42
862.012	64.6
862.315	64.77
862.617	64.74
862.919	64.77
863.222	64.37
863.524	63.83
863.826	64.22
864.128	64.11
864.43	63.87
864.732	63.43
865.034	63.7
865.336	63.95
865.638	64.05
865.94	64.37
866.242	64.58
866.544	64.97
866.846	65.13
867.147	65.2
867.449	65.27
867.751	64.85
868.052	65.07
868.354	64.88
868.655	65.14
868.957	64.97
869.258	65.15
869.56	65.62
869.861	66.34
870.162	66.04
870.463	66.04
870.765	66.51
871.066	66.48
871.367	66.73
871.668	66.49
871.969	66.32
872.27	66.5
872.571	66.59
872.872	66.17
873.173	66.34
873.473	66.68
873.774	66.61
874.075	66.55
874.376	66.67
874.676	66.89
874.977	66.64
875.277	66.97
875.578	66.63
875.878	66.66
876.179	66.55
876.479	66.89
876.78	67.04
877.08	66.98
877.38	67.02
877.68	66.7
877.981	66.88
878.281	66.77
878.581	66.47
