Data from UWBM55942_Reflection_00005.txt Node
Date: Sun May 02 14:10:38 EDT 2021
User: vgr7
Spectrometer: USB2G7710
Scans to average: 10
Trigger mode: 4
Integration Time (sec): 1.000000E-1
Electric dark correction enabled: true
Boxcar width: 20
XAxis mode: Wavelengths
Number of Pixels in Spectrum: 2048
>>>>>Begin Spectral Data<<<<<
177.721	-995
178.105	-34.36
178.488	-17.47
178.871	-570.59
179.254	182.18
179.636	81.19
180.019	36.67
180.402	23.96
180.785	24.32
181.168	25
181.55	18.48
181.933	15.59
182.316	9.71
182.698	6.81
183.081	0.81
183.463	-1.67
183.846	-1.92
184.228	8.96
184.611	8.05
184.993	8.28
185.376	7.93
185.758	11.22
186.14	13.63
186.522	10.24
186.904	7.36
187.287	7.85
187.669	10.93
188.051	11.01
188.433	11.72
188.815	7.35
189.197	9.41
189.579	8.69
189.961	6.47
190.342	6.45
190.724	9.62
191.106	10.87
191.488	11.5
191.869	9.21
192.251	6.46
192.633	5.92
193.014	2.51
193.396	-0.13
193.777	2.49
194.159	3.56
194.54	-0.21
194.922	-2.62
195.303	-1.56
195.684	-1.67
196.065	-0.46
196.447	-0.2
196.828	-0.8
197.209	-0.12
197.59	-2.93
197.971	-2.73
198.352	-1.3
198.733	1.3
199.114	0.71
199.495	0.3
199.876	-2.91
200.257	-2.43
200.638	-3.1
201.018	-1.42
201.399	0.21
201.78	-0.59
202.16	0.29
202.541	-0.03
202.922	-1.26
203.302	-2.47
203.683	-2.2
204.063	-2.15
204.444	-2.3
204.824	-2.71
205.204	-5.25
205.585	-3.34
205.965	-2.57
206.345	-4.41
206.725	-5.07
207.106	-5.49
207.486	-5.39
207.866	-2.57
208.246	-2.33
208.626	-1.84
209.006	-0.59
209.386	-1.67
209.766	-1.48
210.145	-1.12
210.525	-0.53
210.905	-1.64
211.285	-3.59
211.664	-3.9
212.044	-4.97
212.424	-5.93
212.803	-7.15
213.183	-6.32
213.562	-4.14
213.942	-5.56
214.321	-6.92
214.701	-5.41
215.08	-4.8
215.459	-5.21
215.838	-5.73
216.218	-6.83
216.597	-7.85
216.976	-8.66
217.355	-8.69
217.734	-8.26
218.113	-7.33
218.492	-7.71
218.871	-7.89
219.25	-7.01
219.629	-7.68
220.008	-6.85
220.387	-7.31
220.766	-4.88
221.144	-4.92
221.523	-4.99
221.902	-3.46
222.28	-3
222.659	-2.78
223.037	-2.6
223.416	-2.22
223.794	-1.95
224.173	-1.23
224.551	-1.79
224.929	-0.01
225.308	-0.23
225.686	0.02
226.064	-0.04
226.442	0.48
226.821	1.97
227.199	2.07
227.577	2.31
227.955	2.77
228.333	3.14
228.711	3.43
229.089	2.75
229.467	2.81
229.845	2.99
230.222	2.82
230.6	3.15
230.978	3.53
231.356	3.87
231.733	4.33
232.111	4.18
232.488	4.11
232.866	4.23
233.243	4.16
233.621	4.17
233.998	4.41
234.376	4.49
234.753	4.25
235.13	4.5
235.508	4.81
235.885	4.86
236.262	4.86
236.639	4.92
237.016	5.03
237.393	5.03
237.77	5.13
238.147	5.27
238.524	5.23
238.901	5.24
239.278	5.37
239.655	5.5
240.032	5.51
240.409	5.46
240.785	5.57
241.162	5.6
241.539	5.65
241.915	5.75
242.292	5.75
242.668	5.78
243.045	5.8
243.421	5.82
243.798	5.85
244.174	5.88
244.551	5.9
244.927	5.92
245.303	5.95
245.679	5.94
246.056	5.89
246.432	5.87
246.808	5.83
247.184	5.84
247.56	5.88
247.936	5.9
248.312	5.92
248.688	5.92
249.064	5.93
249.44	5.95
249.815	5.94
250.191	5.95
250.567	5.96
250.943	5.92
251.318	5.89
251.694	5.9
252.069	5.88
252.445	5.87
252.82	5.85
253.196	5.83
253.571	5.8
253.947	5.79
254.322	5.78
254.697	5.77
255.073	5.72
255.448	5.75
255.823	5.72
256.198	5.7
256.573	5.68
256.948	5.68
257.323	5.63
257.698	5.57
258.073	5.54
258.448	5.5
258.823	5.48
259.198	5.45
259.573	5.43
259.948	5.42
260.322	5.42
260.697	5.38
261.072	5.36
261.446	5.35
261.821	5.36
262.195	5.35
262.57	5.33
262.944	5.32
263.319	5.32
263.693	5.31
264.067	5.29
264.442	5.27
264.816	5.25
265.19	5.25
265.564	5.25
265.938	5.23
266.313	5.23
266.687	5.22
267.061	5.21
267.435	5.21
267.809	5.19
268.183	5.19
268.556	5.17
268.93	5.16
269.304	5.17
269.678	5.16
270.051	5.13
270.425	5.11
270.799	5.08
271.172	5.1
271.546	5.1
271.919	5.1
272.293	5.1
272.666	5.11
273.04	5.14
273.413	5.16
273.787	5.19
274.16	5.18
274.533	5.21
274.906	5.22
275.279	5.22
275.653	5.2
276.026	5.22
276.399	5.22
276.772	5.24
277.145	5.22
277.518	5.23
277.891	5.24
278.263	5.24
278.636	5.25
279.009	5.25
279.382	5.25
279.755	5.27
280.127	5.28
280.5	5.3
280.872	5.32
281.245	5.35
281.617	5.35
281.99	5.36
282.362	5.36
282.735	5.36
283.107	5.37
283.479	5.36
283.852	5.39
284.224	5.41
284.596	5.4
284.968	5.41
285.34	5.43
285.713	5.45
286.085	5.46
286.457	5.46
286.829	5.46
287.201	5.47
287.572	5.47
287.944	5.48
288.316	5.47
288.688	5.47
289.06	5.46
289.431	5.48
289.803	5.47
290.175	5.49
290.546	5.51
290.918	5.55
291.289	5.57
291.661	5.58
292.032	5.6
292.403	5.61
292.775	5.62
293.146	5.63
293.517	5.63
293.889	5.64
294.26	5.67
294.631	5.69
295.002	5.7
295.373	5.71
295.744	5.72
296.115	5.72
296.486	5.73
296.857	5.75
297.228	5.77
297.599	5.79
297.97	5.8
298.34	5.8
298.711	5.82
299.082	5.82
299.452	5.83
299.823	5.84
300.194	5.84
300.564	5.86
300.935	5.87
301.305	5.89
301.676	5.91
302.046	5.92
302.416	5.94
302.787	5.94
303.157	5.95
303.527	5.96
303.897	5.97
304.267	5.98
304.637	5.97
305.008	5.99
305.378	5.99
305.748	5.98
306.117	5.96
306.487	5.97
306.857	5.98
307.227	5.97
307.597	5.98
307.967	5.99
308.336	6
308.706	6.02
309.076	6
309.445	5.99
309.815	5.98
310.184	5.97
310.554	5.96
310.923	5.96
311.293	5.96
311.662	5.95
312.031	5.94
312.401	5.96
312.77	5.96
313.139	5.96
313.508	5.97
313.877	5.95
314.246	5.95
314.616	5.94
314.985	5.94
315.353	5.93
315.722	5.91
316.091	5.91
316.46	5.9
316.829	5.88
317.198	5.88
317.567	5.86
317.935	5.87
318.304	5.86
318.672	5.86
319.041	5.88
319.41	5.88
319.778	5.88
320.147	5.86
320.515	5.85
320.883	5.84
321.252	5.84
321.62	5.85
321.988	5.84
322.357	5.84
322.725	5.83
323.093	5.84
323.461	5.82
323.829	5.82
324.197	5.84
324.565	5.83
324.933	5.83
325.301	5.83
325.669	5.85
326.037	5.84
326.405	5.83
326.772	5.83
327.14	5.82
327.508	5.8
327.875	5.81
328.243	5.8
328.61	5.79
328.978	5.8
329.346	5.79
329.713	5.82
330.08	5.83
330.448	5.83
330.815	5.82
331.182	5.81
331.55	5.81
331.917	5.81
332.284	5.79
332.651	5.79
333.018	5.78
333.385	5.79
333.752	5.79
334.119	5.77
334.486	5.77
334.853	5.77
335.22	5.79
335.587	5.78
335.954	5.79
336.32	5.79
336.687	5.78
337.054	5.78
337.42	5.78
337.787	5.79
338.153	5.79
338.52	5.78
338.886	5.78
339.253	5.78
339.619	5.79
339.986	5.79
340.352	5.8
340.718	5.8
341.084	5.8
341.451	5.79
341.817	5.79
342.183	5.79
342.549	5.8
342.915	5.8
343.281	5.81
343.647	5.81
344.013	5.81
344.379	5.81
344.745	5.8
345.11	5.8
345.476	5.81
345.842	5.82
346.208	5.82
346.573	5.82
346.939	5.82
347.304	5.83
347.67	5.83
348.035	5.83
348.401	5.84
348.766	5.84
349.132	5.85
349.497	5.86
349.862	5.85
350.228	5.85
350.593	5.85
350.958	5.86
351.323	5.86
351.688	5.86
352.053	5.88
352.418	5.88
352.783	5.87
353.148	5.87
353.513	5.88
353.878	5.89
354.243	5.89
354.608	5.88
354.972	5.88
355.337	5.89
355.702	5.89
356.066	5.89
356.431	5.9
356.795	5.9
357.16	5.9
357.524	5.89
357.889	5.9
358.253	5.89
358.618	5.89
358.982	5.89
359.346	5.9
359.71	5.9
360.075	5.91
360.439	5.9
360.803	5.9
361.167	5.91
361.531	5.9
361.895	5.9
362.259	5.89
362.623	5.89
362.987	5.89
363.351	5.89
363.714	5.88
364.078	5.88
364.442	5.89
364.806	5.89
365.169	5.89
365.533	5.89
365.896	5.89
366.26	5.89
366.623	5.89
366.987	5.88
367.35	5.88
367.714	5.89
368.077	5.88
368.44	5.88
368.803	5.87
369.167	5.87
369.53	5.87
369.893	5.86
370.256	5.86
370.619	5.86
370.982	5.86
371.345	5.86
371.708	5.86
372.071	5.86
372.434	5.87
372.797	5.86
373.159	5.86
373.522	5.87
373.885	5.87
374.247	5.86
374.61	5.85
374.973	5.84
375.335	5.84
375.698	5.84
376.06	5.84
376.423	5.84
376.785	5.84
377.147	5.84
377.51	5.84
377.872	5.84
378.234	5.83
378.596	5.83
378.958	5.83
379.321	5.81
379.683	5.82
380.045	5.81
380.407	5.8
380.769	5.8
381.13	5.79
381.492	5.79
381.854	5.79
382.216	5.78
382.578	5.77
382.939	5.77
383.301	5.77
383.663	5.77
384.024	5.77
384.386	5.77
384.747	5.76
385.109	5.76
385.47	5.76
385.832	5.75
386.193	5.75
386.554	5.74
386.916	5.74
387.277	5.73
387.638	5.72
387.999	5.72
388.36	5.71
388.721	5.71
389.082	5.7
389.443	5.7
389.804	5.7
390.165	5.69
390.526	5.69
390.887	5.69
391.248	5.68
391.609	5.68
391.969	5.69
392.33	5.68
392.691	5.68
393.051	5.68
393.412	5.67
393.772	5.67
394.133	5.67
394.493	5.67
394.854	5.67
395.214	5.66
395.574	5.66
395.935	5.66
396.295	5.66
396.655	5.66
397.015	5.65
397.376	5.65
397.736	5.65
398.096	5.65
398.456	5.65
398.816	5.66
399.176	5.65
399.535	5.65
399.895	5.65
400.255	5.65
400.615	5.65
400.975	5.66
401.334	5.66
401.694	5.66
402.054	5.66
402.413	5.66
402.773	5.65
403.132	5.66
403.492	5.65
403.851	5.65
404.211	5.66
404.57	5.66
404.929	5.66
405.288	5.65
405.648	5.65
406.007	5.66
406.366	5.65
406.725	5.65
407.084	5.65
407.443	5.65
407.802	5.65
408.161	5.65
408.52	5.65
408.879	5.65
409.238	5.65
409.596	5.65
409.955	5.66
410.314	5.66
410.673	5.66
411.031	5.67
411.39	5.68
411.748	5.68
412.107	5.69
412.465	5.7
412.824	5.73
413.182	5.76
413.54	5.8
413.899	5.83
414.257	5.88
414.615	5.93
414.974	5.97
415.332	6.02
415.69	6.07
416.048	6.11
416.406	6.17
416.764	6.21
417.122	6.25
417.48	6.29
417.838	6.34
418.195	6.37
418.553	6.4
418.911	6.42
419.269	6.43
419.626	6.43
419.984	6.41
420.342	6.4
420.699	6.38
421.057	6.35
421.414	6.32
421.772	6.3
422.129	6.29
422.486	6.28
422.844	6.27
423.201	6.27
423.558	6.27
423.915	6.27
424.273	6.26
424.63	6.26
424.987	6.26
425.344	6.26
425.701	6.25
426.058	6.25
426.415	6.25
426.772	6.24
427.128	6.24
427.485	6.22
427.842	6.2
428.199	6.17
428.555	6.15
428.912	6.11
429.269	6.07
429.625	6.03
429.982	5.99
430.338	5.95
430.695	5.92
431.051	5.87
431.407	5.84
431.764	5.82
432.12	5.78
432.476	5.76
432.832	5.75
433.189	5.75
433.545	5.75
433.901	5.77
434.257	5.8
434.613	5.83
434.969	5.86
435.325	5.9
435.681	5.95
436.036	5.98
436.392	6.02
436.748	6.04
437.104	6.05
437.459	6.08
437.815	6.11
438.171	6.14
438.526	6.17
438.882	6.22
439.237	6.27
439.593	6.32
439.948	6.36
440.304	6.41
440.659	6.45
441.014	6.48
441.369	6.51
441.725	6.54
442.08	6.56
442.435	6.58
442.79	6.59
443.145	6.59
443.5	6.6
443.855	6.6
444.21	6.6
444.565	6.59
444.92	6.58
445.275	6.56
445.629	6.55
445.984	6.54
446.339	6.52
446.693	6.5
447.048	6.47
447.403	6.45
447.757	6.41
448.112	6.38
448.466	6.35
448.82	6.31
449.175	6.28
449.529	6.25
449.883	6.22
450.238	6.18
450.592	6.18
450.946	6.16
451.3	6.15
451.654	6.16
452.008	6.16
452.362	6.16
452.716	6.16
453.07	6.16
453.424	6.15
453.778	6.14
454.132	6.12
454.486	6.11
454.839	6.08
455.193	6.05
455.547	6.03
455.9	5.98
456.254	5.96
456.607	5.92
456.961	5.88
457.314	5.85
457.668	5.83
458.021	5.82
458.375	5.81
458.728	5.81
459.081	5.81
459.434	5.82
459.787	5.83
460.141	5.84
460.494	5.86
460.847	5.87
461.2	5.88
461.553	5.89
461.906	5.89
462.259	5.9
462.611	5.9
462.964	5.91
463.317	5.92
463.67	5.93
464.022	5.94
464.375	5.95
464.728	5.96
465.08	5.96
465.433	5.96
465.785	5.96
466.138	5.94
466.49	5.92
466.843	5.89
467.195	5.86
467.547	5.83
467.899	5.8
468.252	5.76
468.604	5.72
468.956	5.69
469.308	5.67
469.66	5.67
470.012	5.65
470.364	5.66
470.716	5.67
471.068	5.69
471.42	5.72
471.772	5.75
472.123	5.76
472.475	5.78
472.827	5.8
473.178	5.81
473.53	5.82
473.882	5.85
474.233	5.88
474.585	5.93
474.936	6.02
475.288	6.15
475.639	6.31
475.99	6.5
476.342	6.71
476.693	6.93
477.044	7.17
477.395	7.41
477.746	7.65
478.097	7.9
478.448	8.15
478.8	8.39
479.15	8.62
479.501	8.83
479.852	9.02
480.203	9.2
480.554	9.38
480.905	9.54
481.255	9.7
481.606	9.85
481.957	10
482.307	10.13
482.658	10.26
483.009	10.39
483.359	10.51
483.709	10.63
484.06	10.74
484.41	10.85
484.761	10.96
485.111	11.06
485.461	11.16
485.811	11.25
486.162	11.33
486.512	11.4
486.862	11.46
487.212	11.49
487.562	11.52
487.912	11.53
488.262	11.54
488.612	11.53
488.961	11.5
489.311	11.44
489.661	11.34
490.011	11.21
490.36	11.06
490.71	10.89
491.06	10.7
491.409	10.5
491.759	10.29
492.108	10.07
492.458	9.85
492.807	9.61
493.157	9.38
493.506	9.16
493.855	8.95
494.204	8.75
494.554	8.55
494.903	8.38
495.252	8.21
495.601	8.05
495.95	7.89
496.299	7.74
496.648	7.6
496.997	7.46
497.346	7.34
497.695	7.22
498.043	7.1
498.392	6.99
498.741	6.88
499.09	6.77
499.438	6.67
499.787	6.58
500.135	6.49
500.484	6.41
500.832	6.35
501.181	6.3
501.529	6.26
501.878	6.25
502.226	6.24
502.574	6.24
502.923	6.24
503.271	6.25
503.619	6.25
503.967	6.25
504.315	6.25
504.663	6.25
505.011	6.25
505.359	6.25
505.707	6.25
506.055	6.25
506.403	6.26
506.751	6.26
507.098	6.28
507.446	6.29
507.794	6.3
508.141	6.32
508.489	6.34
508.837	6.37
509.184	6.4
509.531	6.42
509.879	6.44
510.226	6.47
510.574	6.5
510.921	6.53
511.268	6.56
511.616	6.6
511.963	6.63
512.31	6.67
512.657	6.71
513.004	6.74
513.351	6.76
513.698	6.78
514.045	6.79
514.392	6.8
514.739	6.81
515.086	6.81
515.432	6.8
515.779	6.8
516.126	6.8
516.473	6.8
516.819	6.81
517.166	6.82
517.512	6.84
517.859	6.86
518.205	6.89
518.552	6.93
518.898	6.97
519.245	7.04
519.591	7.13
519.937	7.24
520.283	7.38
520.629	7.55
520.976	7.72
521.322	7.9
521.668	8.09
522.014	8.28
522.36	8.47
522.706	8.66
523.052	8.84
523.398	9
523.743	9.14
524.089	9.26
524.435	9.37
524.781	9.47
525.126	9.56
525.472	9.65
525.817	9.72
526.163	9.8
526.509	9.87
526.854	9.94
527.199	10.02
527.545	10.09
527.89	10.17
528.235	10.25
528.581	10.32
528.926	10.38
529.271	10.44
529.616	10.5
529.961	10.55
530.306	10.6
530.651	10.64
530.996	10.67
531.341	10.69
531.686	10.7
532.031	10.71
532.376	10.71
532.721	10.72
533.065	10.73
533.41	10.74
533.755	10.73
534.099	10.71
534.444	10.68
534.788	10.62
535.133	10.56
535.477	10.49
535.822	10.41
536.166	10.33
536.51	10.22
536.855	10.11
537.199	9.98
537.543	9.86
537.887	9.76
538.231	9.67
538.576	9.58
538.92	9.5
539.264	9.41
539.608	9.32
539.951	9.23
540.295	9.14
540.639	9.04
540.983	8.94
541.327	8.84
541.671	8.73
542.014	8.64
542.358	8.55
542.701	8.48
543.045	8.43
543.389	8.4
543.732	8.36
544.075	8.33
544.419	8.31
544.762	8.29
545.105	8.27
545.449	8.26
545.792	8.24
546.135	8.23
546.478	8.21
546.821	8.17
547.165	8.12
547.508	8.07
547.851	7.99
548.194	7.91
548.536	7.81
548.879	7.71
549.222	7.6
549.565	7.49
549.908	7.39
550.25	7.28
550.593	7.19
550.936	7.12
551.278	7.07
551.621	7.02
551.963	6.98
552.306	6.94
552.648	6.91
552.991	6.89
553.333	6.87
553.675	6.86
554.017	6.86
554.36	6.86
554.702	6.87
555.044	6.88
555.386	6.9
555.728	6.94
556.07	6.96
556.412	6.99
556.754	7
557.096	7
557.438	7
557.78	7.01
558.121	7.01
558.463	7.01
558.805	7.01
559.147	7.02
559.488	7.02
559.83	7.02
560.171	7.03
560.513	7.04
560.854	7.05
561.196	7.05
561.537	7.05
561.878	7.05
562.22	7.06
562.561	7.06
562.902	7.06
563.243	7.07
563.584	7.07
563.925	7.08
564.266	7.08
564.607	7.09
564.948	7.09
565.289	7.1
565.63	7.1
565.971	7.11
566.312	7.11
566.653	7.12
566.993	7.13
567.334	7.13
567.675	7.13
568.015	7.14
568.356	7.14
568.696	7.15
569.037	7.16
569.377	7.16
569.718	7.16
570.058	7.16
570.398	7.16
570.739	7.17
571.079	7.17
571.419	7.17
571.759	7.17
572.099	7.18
572.439	7.18
572.779	7.18
573.119	7.18
573.459	7.18
573.799	7.18
574.139	7.17
574.479	7.18
574.819	7.18
575.158	7.18
575.498	7.18
575.838	7.18
576.177	7.18
576.517	7.18
576.856	7.18
577.196	7.18
577.535	7.18
577.875	7.18
578.214	7.18
578.553	7.18
578.893	7.18
579.232	7.18
579.571	7.18
579.91	7.18
580.25	7.18
580.589	7.17
580.928	7.17
581.267	7.17
581.606	7.17
581.945	7.17
582.283	7.17
582.622	7.17
582.961	7.17
583.3	7.17
583.639	7.18
583.977	7.18
584.316	7.18
584.654	7.18
584.993	7.18
585.332	7.18
585.67	7.19
586.008	7.19
586.347	7.19
586.685	7.2
587.024	7.2
587.362	7.21
587.7	7.21
588.038	7.21
588.376	7.21
588.715	7.21
589.053	7.21
589.391	7.22
589.729	7.23
590.067	7.23
590.404	7.23
590.742	7.24
591.08	7.24
591.418	7.24
591.756	7.25
592.093	7.25
592.431	7.25
592.769	7.26
593.106	7.26
593.444	7.27
593.781	7.27
594.119	7.27
594.456	7.27
594.793	7.27
595.131	7.27
595.468	7.27
595.805	7.27
596.143	7.28
596.48	7.28
596.817	7.29
597.154	7.29
597.491	7.29
597.828	7.3
598.165	7.3
598.502	7.31
598.839	7.32
599.176	7.32
599.512	7.33
599.849	7.33
600.186	7.33
600.523	7.34
600.859	7.34
601.196	7.34
601.532	7.35
601.869	7.35
602.205	7.35
602.542	7.36
602.878	7.36
603.215	7.36
603.551	7.36
603.887	7.37
604.223	7.37
604.56	7.38
604.896	7.39
605.232	7.39
605.568	7.39
605.904	7.39
606.24	7.39
606.576	7.39
606.912	7.39
607.248	7.39
607.583	7.39
607.919	7.4
608.255	7.4
608.591	7.41
608.926	7.41
609.262	7.41
609.597	7.41
609.933	7.41
610.268	7.41
610.604	7.41
610.939	7.41
611.275	7.41
611.61	7.41
611.945	7.41
612.281	7.41
612.616	7.41
612.951	7.41
613.286	7.41
613.621	7.41
613.956	7.41
614.291	7.41
614.626	7.41
614.961	7.42
615.296	7.42
615.631	7.43
615.966	7.44
616.3	7.44
616.635	7.43
616.97	7.44
617.304	7.45
617.639	7.45
617.973	7.44
618.308	7.45
618.642	7.45
618.977	7.45
619.311	7.45
619.646	7.46
619.98	7.46
620.314	7.46
620.648	7.48
620.983	7.49
621.317	7.49
621.651	7.49
621.985	7.5
622.319	7.5
622.653	7.51
622.987	7.52
623.321	7.53
623.655	7.54
623.988	7.54
624.322	7.54
624.656	7.55
624.99	7.55
625.323	7.56
625.657	7.56
625.99	7.56
626.324	7.57
626.657	7.57
626.991	7.57
627.324	7.57
627.658	7.57
627.991	7.58
628.324	7.58
628.657	7.59
628.991	7.59
629.324	7.59
629.657	7.59
629.99	7.6
630.323	7.61
630.656	7.6
630.989	7.61
631.322	7.61
631.655	7.61
631.987	7.61
632.32	7.62
632.653	7.63
632.986	7.64
633.318	7.64
633.651	7.64
633.984	7.65
634.316	7.64
634.649	7.65
634.981	7.65
635.313	7.65
635.646	7.65
635.978	7.66
636.31	7.66
636.643	7.66
636.975	7.66
637.307	7.67
637.639	7.67
637.971	7.68
638.303	7.68
638.635	7.68
638.967	7.68
639.299	7.69
639.631	7.69
639.963	7.7
640.295	7.71
640.626	7.71
640.958	7.71
641.29	7.72
641.621	7.72
641.953	7.72
642.285	7.72
642.616	7.73
642.948	7.73
643.279	7.74
643.61	7.75
643.942	7.76
644.273	7.77
644.604	7.77
644.936	7.79
645.267	7.79
645.598	7.8
645.929	7.8
646.26	7.8
646.591	7.8
646.922	7.81
647.253	7.81
647.584	7.82
647.915	7.82
648.245	7.83
648.576	7.83
648.907	7.84
649.238	7.84
649.568	7.84
649.899	7.84
650.229	7.85
650.56	7.87
650.89	7.86
651.221	7.86
651.551	7.87
651.882	7.87
652.212	7.88
652.542	7.89
652.872	7.9
653.203	7.9
653.533	7.9
653.863	7.9
654.193	7.91
654.523	7.92
654.853	7.92
655.183	7.93
655.513	7.93
655.843	7.94
656.172	7.93
656.502	7.94
656.832	7.94
657.162	7.94
657.491	7.94
657.821	7.94
658.15	7.94
658.48	7.94
658.809	7.94
659.139	7.94
659.468	7.95
659.798	7.95
660.127	7.96
660.456	7.96
660.785	7.97
661.115	7.97
661.444	7.99
661.773	7.99
662.102	7.99
662.431	8
662.76	8
663.089	8.01
663.418	8.02
663.747	8.03
664.076	8.03
664.404	8.04
664.733	8.05
665.062	8.06
665.39	8.07
665.719	8.07
666.048	8.08
666.376	8.08
666.705	8.08
667.033	8.09
667.362	8.1
667.69	8.1
668.018	8.11
668.347	8.12
668.675	8.13
669.003	8.13
669.331	8.15
669.659	8.16
669.987	8.16
670.315	8.17
670.643	8.18
670.971	8.18
671.299	8.2
671.627	8.2
671.955	8.2
672.283	8.22
672.61	8.22
672.938	8.22
673.266	8.23
673.593	8.23
673.921	8.23
674.249	8.23
674.576	8.24
674.904	8.24
675.231	8.25
675.558	8.25
675.886	8.26
676.213	8.27
676.54	8.27
676.867	8.26
677.195	8.26
677.522	8.26
677.849	8.27
678.176	8.27
678.503	8.27
678.83	8.27
679.157	8.28
679.484	8.28
679.81	8.29
680.137	8.29
680.464	8.3
680.791	8.31
681.117	8.32
681.444	8.33
681.771	8.32
682.097	8.33
682.424	8.34
682.75	8.33
683.077	8.33
683.403	8.35
683.729	8.35
684.056	8.35
684.382	8.36
684.708	8.37
685.034	8.38
685.36	8.39
685.686	8.39
686.012	8.38
686.339	8.39
686.664	8.4
686.99	8.41
687.316	8.42
687.642	8.44
687.968	8.45
688.294	8.45
688.619	8.46
688.945	8.47
689.271	8.48
689.596	8.48
689.922	8.5
690.247	8.51
690.573	8.51
690.898	8.51
691.224	8.52
691.549	8.54
691.874	8.54
692.2	8.56
692.525	8.58
692.85	8.59
693.175	8.61
693.5	8.63
693.825	8.63
694.15	8.64
694.475	8.64
694.8	8.64
695.125	8.65
695.45	8.66
695.775	8.66
696.099	8.67
696.424	8.69
696.749	8.69
697.073	8.69
697.398	8.7
697.723	8.7
698.047	8.7
698.372	8.7
698.696	8.71
699.02	8.72
699.345	8.73
699.669	8.73
699.993	8.74
700.318	8.75
700.642	8.76
700.966	8.76
701.29	8.76
701.614	8.77
701.938	8.79
702.262	8.8
702.586	8.8
702.91	8.81
703.234	8.8
703.557	8.81
703.881	8.83
704.205	8.84
704.529	8.84
704.852	8.84
705.176	8.85
705.499	8.84
705.823	8.83
706.146	8.84
706.47	8.84
706.793	8.84
707.117	8.85
707.44	8.86
707.763	8.87
708.086	8.89
708.409	8.89
708.733	8.91
709.056	8.93
709.379	8.93
709.702	8.94
710.025	8.95
710.348	8.95
710.671	8.96
710.993	8.96
711.316	8.97
711.639	8.99
711.962	9.01
712.284	9.02
712.607	9.03
712.93	9.03
713.252	9.03
713.575	9.06
713.897	9.06
714.22	9.05
714.542	9.08
714.864	9.08
715.187	9.09
715.509	9.09
715.831	9.08
716.153	9.09
716.475	9.1
716.798	9.11
717.12	9.11
717.442	9.11
717.764	9.13
718.085	9.13
718.407	9.15
718.729	9.15
719.051	9.17
719.373	9.16
719.695	9.17
720.016	9.17
720.338	9.16
720.659	9.18
720.981	9.18
721.302	9.18
721.624	9.19
721.945	9.18
722.267	9.17
722.588	9.19
722.909	9.19
723.231	9.2
723.552	9.21
723.873	9.23
724.194	9.25
724.515	9.26
724.836	9.27
725.157	9.28
725.478	9.28
725.799	9.3
726.12	9.32
726.441	9.33
726.762	9.32
727.083	9.33
727.403	9.34
727.724	9.34
728.045	9.36
728.365	9.36
728.686	9.38
729.006	9.41
729.327	9.43
729.647	9.45
729.967	9.47
730.288	9.5
730.608	9.51
730.928	9.52
731.249	9.54
731.569	9.54
731.889	9.56
732.209	9.56
732.529	9.57
732.849	9.59
733.169	9.62
733.489	9.66
733.809	9.66
734.129	9.67
734.448	9.71
734.768	9.73
735.088	9.77
735.408	9.78
735.727	9.77
736.047	9.8
736.366	9.81
736.686	9.83
737.005	9.85
737.325	9.85
737.644	9.85
737.963	9.84
738.283	9.84
738.602	9.85
738.921	9.87
739.24	9.89
739.56	9.89
739.879	9.9
740.198	9.9
740.517	9.95
740.836	9.94
741.155	9.95
741.473	9.96
741.792	9.95
742.111	9.94
742.43	9.95
742.748	9.95
743.067	9.94
743.386	9.97
743.704	9.98
744.023	9.99
744.341	9.98
744.66	9.99
744.978	10
745.297	10.03
745.615	10.05
745.933	10.05
746.252	10.04
746.57	10.04
746.888	10.06
747.206	10.06
747.524	10.04
747.842	10.04
748.16	10.03
748.478	10.05
748.796	10.06
749.114	10.06
749.432	10.07
749.749	10.08
750.067	10.1
750.385	10.12
750.703	10.14
751.02	10.17
751.338	10.19
751.655	10.21
751.973	10.21
752.29	10.2
752.608	10.21
752.925	10.2
753.242	10.23
753.56	10.23
753.877	10.26
754.194	10.27
754.511	10.29
754.828	10.3
755.145	10.35
755.462	10.38
755.779	10.39
756.096	10.41
756.413	10.4
756.73	10.42
757.047	10.42
757.364	10.46
757.68	10.47
757.997	10.46
758.314	10.47
758.63	10.49
758.947	10.51
759.264	10.53
759.58	10.54
759.896	10.55
760.213	10.56
760.529	10.57
760.846	10.58
761.162	10.61
761.478	10.64
761.794	10.65
762.11	10.67
762.426	10.68
762.743	10.68
763.059	10.66
763.375	10.66
763.69	10.66
764.006	10.67
764.322	10.69
764.638	10.7
764.954	10.72
765.27	10.74
765.585	10.75
765.901	10.78
766.216	10.78
766.532	10.77
766.848	10.79
767.163	10.78
767.478	10.76
767.794	10.78
768.109	10.76
768.424	10.77
768.74	10.79
769.055	10.81
769.37	10.78
769.685	10.78
770	10.8
770.315	10.8
770.63	10.81
770.945	10.85
771.26	10.86
771.575	10.87
771.89	10.91
772.205	10.91
772.52	10.94
772.834	10.94
773.149	10.97
773.464	10.99
773.778	11
774.093	10.98
774.407	10.98
774.722	10.98
775.036	10.98
775.351	10.99
775.665	10.99
775.979	11.04
776.293	11.05
776.608	11.09
776.922	11.11
777.236	11.09
777.55	11.09
777.864	11.11
778.178	11.13
778.492	11.14
778.806	11.14
779.12	11.16
779.434	11.19
779.747	11.19
780.061	11.25
780.375	11.29
780.689	11.29
781.002	11.31
781.316	11.31
781.629	11.28
781.943	11.29
782.256	11.34
782.57	11.32
782.883	11.35
783.196	11.36
783.51	11.37
783.823	11.4
784.136	11.39
784.449	11.38
784.762	11.37
785.075	11.38
785.388	11.4
785.701	11.4
786.014	11.45
786.327	11.47
786.64	11.48
786.953	11.53
787.266	11.57
787.578	11.65
787.891	11.67
788.204	11.69
788.516	11.72
788.829	11.73
789.141	11.76
789.454	11.75
789.766	11.79
790.079	11.82
790.391	11.83
790.703	11.86
791.016	11.86
791.328	11.89
791.64	11.92
791.952	11.95
792.264	11.96
792.576	11.94
792.888	11.92
793.2	11.96
793.512	12
793.824	12.04
794.136	12.03
794.448	12.09
794.76	12.1
795.071	12.11
795.383	12.17
795.695	12.22
796.006	12.22
796.318	12.21
796.629	12.19
796.941	12.26
797.252	12.28
797.564	12.3
797.875	12.29
798.186	12.29
798.497	12.32
798.809	12.29
799.12	12.26
799.431	12.28
799.742	12.26
800.053	12.3
800.364	12.25
800.675	12.25
800.986	12.26
801.297	12.28
801.608	12.3
801.918	12.31
802.229	12.29
802.54	12.27
802.851	12.27
803.161	12.27
803.472	12.28
803.782	12.3
804.093	12.32
804.403	12.33
804.714	12.35
805.024	12.42
805.334	12.42
805.645	12.47
805.955	12.46
806.265	12.46
806.575	12.47
806.885	12.53
807.195	12.54
807.505	12.58
807.815	12.66
808.125	12.7
808.435	12.67
808.745	12.72
809.055	12.76
809.365	12.78
809.674	12.75
809.984	12.79
810.294	12.84
810.603	12.93
810.913	12.96
811.222	13
811.532	13
811.841	13.06
812.151	13.1
812.46	13.12
812.769	13.04
813.079	13.09
813.388	13.15
813.697	13.17
814.006	13.21
814.315	13.16
814.624	13.19
814.933	13.24
815.242	13.27
815.551	13.29
815.86	13.31
816.169	13.32
816.478	13.37
816.786	13.38
817.095	13.37
817.404	13.35
817.712	13.35
818.021	13.36
818.33	13.36
818.638	13.43
818.947	13.48
819.255	13.47
819.563	13.47
819.872	13.46
820.18	13.5
820.488	13.48
820.796	13.5
821.105	13.53
821.413	13.52
821.721	13.55
822.029	13.58
822.337	13.6
822.645	13.59
822.953	13.6
823.26	13.6
823.568	13.62
823.876	13.61
824.184	13.64
824.491	13.63
824.799	13.64
825.107	13.64
825.414	13.66
825.722	13.66
826.029	13.68
826.337	13.69
826.644	13.7
826.951	13.72
827.259	13.72
827.566	13.73
827.873	13.72
828.18	13.73
828.488	13.75
828.795	13.76
829.102	13.75
829.409	13.77
829.716	13.81
830.023	13.85
830.329	13.84
830.636	13.89
830.943	13.94
831.25	13.94
831.557	13.94
831.863	13.98
832.17	14.04
832.476	14.08
832.783	14.04
833.089	14.06
833.396	14.04
833.702	14.02
834.009	14.04
834.315	14.03
834.621	14.03
834.928	14.05
835.234	14.06
835.54	14.05
835.846	14.06
836.152	14.04
836.458	14.06
836.764	14.05
837.07	14.09
837.376	14.1
837.682	14.12
837.988	14.13
838.293	14.15
838.599	14.14
838.905	14.12
839.211	14.1
839.516	14.08
839.822	14.1
840.127	14.13
840.433	14.21
840.738	14.24
841.044	14.26
841.349	14.21
841.654	14.23
841.959	14.22
842.265	14.23
842.57	14.21
842.875	14.27
843.18	14.2
843.485	14.14
843.79	14.15
844.095	14.17
844.4	14.14
844.705	14.12
845.01	14.05
845.315	14.08
845.619	14.01
845.924	14.01
846.229	14.09
846.533	14.2
846.838	14.31
847.142	14.32
847.447	14.28
847.751	14.4
848.056	14.58
848.36	14.6
848.664	14.6
848.969	14.82
849.273	14.94
849.577	14.93
849.881	14.88
850.185	14.98
850.489	14.94
850.794	14.95
851.097	15.05
851.401	15.21
851.705	15.16
852.009	15.27
852.313	15.34
852.617	15.3
852.92	15.22
853.224	15.24
853.528	15.26
853.831	15.32
854.135	15.47
854.438	15.55
854.742	15.52
855.045	15.46
855.349	15.68
855.652	15.77
855.955	15.8
856.259	15.76
856.562	15.91
856.865	16.05
857.168	16
857.471	16.09
857.774	16.17
858.077	16.35
858.38	16.57
858.683	16.52
858.986	16.5
859.289	16.32
859.592	16.43
859.894	16.55
860.197	16.48
860.5	16.41
860.802	16.45
861.105	16.6
861.407	16.36
861.71	16.23
862.012	16.25
862.315	16.33
862.617	16.3
862.919	16.39
863.222	16.42
863.524	16.31
863.826	16.25
864.128	16.24
864.43	16.32
864.732	16.35
865.034	16.42
865.336	16.48
865.638	16.31
865.94	16.37
866.242	16.47
866.544	16.52
866.846	16.56
867.147	16.53
867.449	16.71
867.751	16.49
868.052	16.56
868.354	16.62
868.655	16.6
868.957	16.51
869.258	16.48
869.56	16.61
869.861	16.79
870.162	16.84
870.463	16.9
870.765	16.73
871.066	16.95
871.367	16.93
871.668	16.88
871.969	16.86
872.27	16.65
872.571	16.71
872.872	16.69
873.173	16.72
873.473	16.62
873.774	16.67
874.075	16.77
874.376	16.81
874.676	16.86
874.977	16.98
875.277	17.07
875.578	17.09
875.878	17.15
876.179	17.1
876.479	17.29
876.78	17.18
877.08	17.18
877.38	17.11
877.68	17.09
877.981	17.37
878.281	17.42
878.581	17.48
