Data from UWBM55954_Reflection_00008.txt Node
Date: Sun May 02 13:51:21 EDT 2021
User: vgr7
Spectrometer: USB2G7710
Scans to average: 10
Trigger mode: 4
Integration Time (sec): 1.000000E-1
Electric dark correction enabled: true
Boxcar width: 20
XAxis mode: Wavelengths
Number of Pixels in Spectrum: 2048
>>>>>Begin Spectral Data<<<<<
177.721	153.68
178.105	180.1
178.488	120.63
178.871	125.38
179.254	91.51
179.636	63.85
180.019	44.26
180.402	28.65
180.785	18.23
181.168	18.46
181.55	14.19
181.933	14.97
182.316	17.64
182.698	18.64
183.081	14.58
183.463	10.59
183.846	13.3
184.228	16.26
184.611	14.05
184.993	10.69
185.376	9.42
185.758	12.71
186.14	14.25
186.522	12.49
186.904	15.63
187.287	13.89
187.669	13.58
188.051	13.05
188.433	12.86
188.815	10.26
189.197	13.28
189.579	13.68
189.961	13.75
190.342	11.16
190.724	11.21
191.106	12.14
191.488	13.21
191.869	11.89
192.251	10.59
192.633	11.48
193.014	11.07
193.396	8.29
193.777	10.53
194.159	11.81
194.54	10.73
194.922	11.09
195.303	12.42
195.684	12.98
196.065	14.09
196.447	16.52
196.828	16.39
197.209	15.36
197.59	12.53
197.971	12.03
198.352	11.97
198.733	12.34
199.114	12.27
199.495	12.36
199.876	11.66
200.257	12.75
200.638	12.87
201.018	14.05
201.399	13.77
201.78	13.85
202.16	14.11
202.541	12.4
202.922	12.38
203.302	12.25
203.683	13.71
204.063	13.39
204.444	13.71
204.824	12.13
205.204	9.5
205.585	10.09
205.965	11.74
206.345	11.34
206.725	10.66
207.106	11.31
207.486	11.97
207.866	12.91
208.246	13.24
208.626	11.7
209.006	12.04
209.386	10.73
209.766	8.72
210.145	8.73
210.525	8.35
210.905	9.14
211.285	8.07
211.664	9.22
212.044	8.64
212.424	7.6
212.803	7.42
213.183	8.24
213.562	8.69
213.942	8.36
214.321	7.48
214.701	7.32
215.08	7.38
215.459	7.16
215.838	5.54
216.218	5.36
216.597	3.55
216.976	3.84
217.355	3.29
217.734	3.69
218.113	2.95
218.492	2.78
218.871	2.01
219.25	1.71
219.629	1.92
220.008	1.34
220.387	0.2
220.766	2.54
221.144	1.96
221.523	2.3
221.902	2.51
222.28	2.42
222.659	2.29
223.037	1.74
223.416	2.25
223.794	2.34
224.173	2.87
224.551	2.37
224.929	2.66
225.308	3.04
225.686	3.24
226.064	3.6
226.442	3.25
226.821	3.62
227.199	3.05
227.577	2.63
227.955	3.27
228.333	3.89
228.711	3.71
229.089	3.02
229.467	2.57
229.845	2.79
230.222	2.87
230.6	2.82
230.978	3.12
231.356	3.63
231.733	4.05
232.111	4.51
232.488	4.46
232.866	4.62
233.243	4.45
233.621	4.7
233.998	4.73
234.376	4.93
234.753	4.65
235.13	4.66
235.508	4.76
235.885	4.83
236.262	4.73
236.639	4.77
237.016	4.66
237.393	4.7
237.77	4.7
238.147	4.61
238.524	4.69
238.901	4.7
239.278	4.69
239.655	4.78
240.032	4.85
240.409	4.89
240.785	4.92
241.162	4.92
241.539	4.91
241.915	4.96
242.292	4.99
242.668	5.01
243.045	5.06
243.421	5.06
243.798	5.07
244.174	5.11
244.551	5.12
244.927	5.15
245.303	5.18
245.679	5.21
246.056	5.17
246.432	5.17
246.808	5.14
247.184	5.13
247.56	5.11
247.936	5.08
248.312	5.04
248.688	5.06
249.064	5.05
249.44	5.05
249.815	5.02
250.191	5.01
250.567	5.03
250.943	5.02
251.318	4.99
251.694	4.99
252.069	4.94
252.445	4.94
252.82	4.9
253.196	4.88
253.571	4.85
253.947	4.82
254.322	4.8
254.697	4.78
255.073	4.73
255.448	4.72
255.823	4.68
256.198	4.66
256.573	4.64
256.948	4.64
257.323	4.57
257.698	4.52
258.073	4.49
258.448	4.45
258.823	4.43
259.198	4.41
259.573	4.39
259.948	4.41
260.322	4.42
260.697	4.39
261.072	4.37
261.446	4.36
261.821	4.33
262.195	4.3
262.57	4.28
262.944	4.27
263.319	4.29
263.693	4.29
264.067	4.28
264.442	4.26
264.816	4.23
265.19	4.22
265.564	4.23
265.938	4.21
266.313	4.21
266.687	4.2
267.061	4.21
267.435	4.22
267.809	4.2
268.183	4.2
268.556	4.19
268.93	4.21
269.304	4.21
269.678	4.2
270.051	4.19
270.425	4.16
270.799	4.14
271.172	4.15
271.546	4.13
271.919	4.13
272.293	4.1
272.666	4.11
273.04	4.14
273.413	4.18
273.787	4.21
274.16	4.21
274.533	4.22
274.906	4.22
275.279	4.22
275.653	4.21
276.026	4.23
276.399	4.23
276.772	4.24
277.145	4.25
277.518	4.28
277.891	4.3
278.263	4.28
278.636	4.28
279.009	4.28
279.382	4.28
279.755	4.3
280.127	4.33
280.5	4.35
280.872	4.37
281.245	4.38
281.617	4.39
281.99	4.42
282.362	4.42
282.735	4.43
283.107	4.45
283.479	4.47
283.852	4.5
284.224	4.52
284.596	4.53
284.968	4.54
285.34	4.58
285.713	4.61
286.085	4.65
286.457	4.69
286.829	4.72
287.201	4.77
287.572	4.8
287.944	4.84
288.316	4.87
288.688	4.89
289.06	4.9
289.431	4.94
289.803	4.99
290.175	5.05
290.546	5.09
290.918	5.15
291.289	5.2
291.661	5.26
292.032	5.3
292.403	5.35
292.775	5.41
293.146	5.45
293.517	5.51
293.889	5.57
294.26	5.64
294.631	5.71
295.002	5.78
295.373	5.84
295.744	5.92
296.115	5.98
296.486	6.07
296.857	6.14
297.228	6.2
297.599	6.27
297.97	6.34
298.34	6.4
298.711	6.47
299.082	6.54
299.452	6.61
299.823	6.69
300.194	6.78
300.564	6.86
300.935	6.93
301.305	6.99
301.676	7.06
302.046	7.13
302.416	7.2
302.787	7.27
303.157	7.35
303.527	7.43
303.897	7.52
304.267	7.62
304.637	7.7
305.008	7.78
305.378	7.87
305.748	7.95
306.117	8.04
306.487	8.14
306.857	8.24
307.227	8.33
307.597	8.43
307.967	8.5
308.336	8.6
308.706	8.68
309.076	8.74
309.445	8.82
309.815	8.88
310.184	8.97
310.554	9.03
310.923	9.09
311.293	9.16
311.662	9.2
312.031	9.27
312.401	9.35
312.77	9.41
313.139	9.49
313.508	9.56
313.877	9.64
314.246	9.7
314.616	9.76
314.985	9.84
315.353	9.89
315.722	9.94
316.091	10.02
316.46	10.07
316.829	10.14
317.198	10.22
317.567	10.28
317.935	10.37
318.304	10.45
318.672	10.52
319.041	10.61
319.41	10.67
319.778	10.75
320.147	10.81
320.515	10.88
320.883	10.93
321.252	10.99
321.62	11.05
321.988	11.11
322.357	11.17
322.725	11.22
323.093	11.28
323.461	11.33
323.829	11.37
324.197	11.44
324.565	11.5
324.933	11.57
325.301	11.6
325.669	11.66
326.037	11.71
326.405	11.76
326.772	11.81
327.14	11.85
327.508	11.9
327.875	11.95
328.243	11.97
328.61	11.99
328.978	12.03
329.346	12.07
329.713	12.1
330.08	12.13
330.448	12.15
330.815	12.18
331.182	12.2
331.55	12.26
331.917	12.29
332.284	12.3
332.651	12.35
333.018	12.38
333.385	12.43
333.752	12.46
334.119	12.49
334.486	12.53
334.853	12.56
335.22	12.59
335.587	12.63
335.954	12.68
336.32	12.69
336.687	12.71
337.054	12.72
337.42	12.75
337.787	12.78
338.153	12.82
338.52	12.82
338.886	12.85
339.253	12.86
339.619	12.89
339.986	12.9
340.352	12.93
340.718	12.95
341.084	12.95
341.451	12.97
341.817	12.98
342.183	13.01
342.549	13.02
342.915	13.03
343.281	13.06
343.647	13.08
344.013	13.09
344.379	13.09
344.745	13.11
345.11	13.12
345.476	13.14
345.842	13.16
346.208	13.17
346.573	13.18
346.939	13.18
347.304	13.21
347.67	13.2
348.035	13.2
348.401	13.19
348.766	13.21
349.132	13.21
349.497	13.21
349.862	13.21
350.228	13.21
350.593	13.21
350.958	13.21
351.323	13.21
351.688	13.22
352.053	13.23
352.418	13.22
352.783	13.21
353.148	13.19
353.513	13.19
353.878	13.17
354.243	13.16
354.608	13.13
354.972	13.12
355.337	13.09
355.702	13.08
356.066	13.07
356.431	13.05
356.795	13.03
357.16	13
357.524	12.99
357.889	12.97
358.253	12.95
358.618	12.92
358.982	12.89
359.346	12.87
359.71	12.84
360.075	12.82
360.439	12.79
360.803	12.76
361.167	12.74
361.531	12.71
361.895	12.68
362.259	12.64
362.623	12.61
362.987	12.58
363.351	12.54
363.714	12.5
364.078	12.47
364.442	12.42
364.806	12.38
365.169	12.34
365.533	12.3
365.896	12.25
366.26	12.21
366.623	12.15
366.987	12.09
367.35	12.03
367.714	11.98
368.077	11.93
368.44	11.87
368.803	11.82
369.167	11.75
369.53	11.68
369.893	11.61
370.256	11.54
370.619	11.47
370.982	11.4
371.345	11.32
371.708	11.25
372.071	11.17
372.434	11.09
372.797	11.02
373.159	10.95
373.522	10.88
373.885	10.82
374.247	10.74
374.61	10.66
374.973	10.59
375.335	10.52
375.698	10.44
376.06	10.35
376.423	10.28
376.785	10.21
377.147	10.14
377.51	10.07
377.872	10
378.234	9.92
378.596	9.85
378.958	9.77
379.321	9.7
379.683	9.64
380.045	9.56
380.407	9.5
380.769	9.43
381.13	9.36
381.492	9.3
381.854	9.23
382.216	9.16
382.578	9.09
382.939	9.03
383.301	8.96
383.663	8.89
384.024	8.83
384.386	8.77
384.747	8.71
385.109	8.65
385.47	8.59
385.832	8.52
386.193	8.46
386.554	8.4
386.916	8.34
387.277	8.29
387.638	8.23
387.999	8.17
388.36	8.11
388.721	8.06
389.082	8.01
389.443	7.96
389.804	7.91
390.165	7.85
390.526	7.81
390.887	7.76
391.248	7.7
391.609	7.65
391.969	7.6
392.33	7.55
392.691	7.5
393.051	7.44
393.412	7.38
393.772	7.33
394.133	7.28
394.493	7.22
394.854	7.17
395.214	7.11
395.574	7.06
395.935	7.01
396.295	6.95
396.655	6.9
397.015	6.85
397.376	6.8
397.736	6.75
398.096	6.7
398.456	6.64
398.816	6.59
399.176	6.54
399.535	6.49
399.895	6.44
400.255	6.39
400.615	6.35
400.975	6.3
401.334	6.24
401.694	6.2
402.054	6.15
402.413	6.11
402.773	6.07
403.132	6.03
403.492	6
403.851	5.96
404.211	5.93
404.57	5.9
404.929	5.86
405.288	5.83
405.648	5.8
406.007	5.78
406.366	5.76
406.725	5.73
407.084	5.7
407.443	5.67
407.802	5.65
408.161	5.63
408.52	5.6
408.879	5.58
409.238	5.56
409.596	5.54
409.955	5.53
410.314	5.51
410.673	5.48
411.031	5.47
411.39	5.45
411.748	5.43
412.107	5.42
412.465	5.4
412.824	5.4
413.182	5.41
413.54	5.42
413.899	5.43
414.257	5.45
414.615	5.47
414.974	5.49
415.332	5.51
415.69	5.54
416.048	5.56
416.406	5.59
416.764	5.6
417.122	5.62
417.48	5.63
417.838	5.65
418.195	5.65
418.553	5.66
418.911	5.65
419.269	5.64
419.626	5.62
419.984	5.59
420.342	5.56
420.699	5.53
421.057	5.49
421.414	5.45
421.772	5.42
422.129	5.39
422.486	5.38
422.844	5.36
423.201	5.34
423.558	5.33
423.915	5.31
424.273	5.29
424.63	5.28
424.987	5.26
425.344	5.25
425.701	5.23
426.058	5.22
426.415	5.21
426.772	5.19
427.128	5.17
427.485	5.15
427.842	5.12
428.199	5.09
428.555	5.05
428.912	5.02
429.269	4.97
429.625	4.93
429.982	4.89
430.338	4.85
430.695	4.81
431.051	4.77
431.407	4.74
431.764	4.71
432.12	4.68
432.476	4.66
432.832	4.65
433.189	4.64
433.545	4.64
433.901	4.66
434.257	4.68
434.613	4.7
434.969	4.73
435.325	4.76
435.681	4.8
436.036	4.82
436.392	4.84
436.748	4.86
437.104	4.87
437.459	4.89
437.815	4.91
438.171	4.93
438.526	4.96
438.882	4.99
439.237	5.03
439.593	5.06
439.948	5.09
440.304	5.13
440.659	5.15
441.014	5.17
441.369	5.2
441.725	5.21
442.08	5.22
442.435	5.24
442.79	5.24
443.145	5.24
443.5	5.23
443.855	5.23
444.21	5.23
444.565	5.21
444.92	5.2
445.275	5.18
445.629	5.16
445.984	5.14
446.339	5.12
446.693	5.1
447.048	5.08
447.403	5.05
447.757	5.01
448.112	4.98
448.466	4.95
448.82	4.92
449.175	4.88
449.529	4.85
449.883	4.82
450.238	4.79
450.592	4.78
450.946	4.75
451.3	4.74
451.654	4.74
452.008	4.73
452.362	4.73
452.716	4.72
453.07	4.72
453.424	4.7
453.778	4.68
454.132	4.67
454.486	4.65
454.839	4.63
455.193	4.6
455.547	4.58
455.9	4.54
456.254	4.52
456.607	4.49
456.961	4.46
457.314	4.44
457.668	4.43
458.021	4.42
458.375	4.42
458.728	4.42
459.081	4.42
459.434	4.44
459.787	4.45
460.141	4.47
460.494	4.48
460.847	4.49
461.2	4.5
461.553	4.51
461.906	4.53
462.259	4.54
462.611	4.55
462.964	4.57
463.317	4.58
463.67	4.6
464.022	4.62
464.375	4.63
464.728	4.65
465.08	4.66
465.433	4.68
465.785	4.69
466.138	4.69
466.49	4.69
466.843	4.69
467.195	4.68
467.547	4.67
467.899	4.66
468.252	4.65
468.604	4.63
468.956	4.63
469.308	4.63
469.66	4.64
470.012	4.65
470.364	4.67
470.716	4.69
471.068	4.72
471.42	4.75
471.772	4.79
472.123	4.81
472.475	4.83
472.827	4.86
473.178	4.87
473.53	4.89
473.882	4.92
474.233	4.95
474.585	4.99
474.936	5.07
475.288	5.17
475.639	5.3
475.99	5.46
476.342	5.62
476.693	5.81
477.044	6
477.395	6.19
477.746	6.39
478.097	6.57
478.448	6.77
478.8	6.96
479.15	7.14
479.501	7.3
479.852	7.44
480.203	7.58
480.554	7.72
480.905	7.84
481.255	7.96
481.606	8.07
481.957	8.18
482.307	8.28
482.658	8.37
483.009	8.46
483.359	8.55
483.709	8.64
484.06	8.72
484.41	8.8
484.761	8.88
485.111	8.96
485.461	9.03
485.811	9.1
486.162	9.16
486.512	9.21
486.862	9.26
487.212	9.29
487.562	9.31
487.912	9.32
488.262	9.33
488.612	9.33
488.961	9.31
489.311	9.27
489.661	9.2
490.011	9.11
490.36	9
490.71	8.87
491.06	8.74
491.409	8.59
491.759	8.43
492.108	8.28
492.458	8.12
492.807	7.95
493.157	7.79
493.506	7.63
493.855	7.49
494.204	7.36
494.554	7.23
494.903	7.12
495.252	7.01
495.601	6.92
495.95	6.83
496.299	6.75
496.648	6.68
496.997	6.62
497.346	6.57
497.695	6.52
498.043	6.47
498.392	6.43
498.741	6.4
499.09	6.37
499.438	6.35
499.787	6.34
500.135	6.34
500.484	6.34
500.832	6.37
501.181	6.4
501.529	6.46
501.878	6.53
502.226	6.61
502.574	6.7
502.923	6.8
503.271	6.91
503.619	7.01
503.967	7.12
504.315	7.22
504.663	7.33
505.011	7.45
505.359	7.56
505.707	7.67
506.055	7.79
506.403	7.92
506.751	8.05
507.098	8.18
507.446	8.31
507.794	8.45
508.141	8.6
508.489	8.75
508.837	8.92
509.184	9.08
509.531	9.25
509.879	9.41
510.226	9.59
510.574	9.78
510.921	9.98
511.268	10.18
511.616	10.39
511.963	10.6
512.31	10.82
512.657	11.03
513.004	11.24
513.351	11.44
513.698	11.63
514.045	11.8
514.392	11.97
514.739	12.12
515.086	12.27
515.432	12.41
515.779	12.56
516.126	12.71
516.473	12.88
516.819	13.06
517.166	13.25
517.512	13.45
517.859	13.68
518.205	13.92
518.552	14.18
518.898	14.46
519.245	14.78
519.591	15.17
519.937	15.63
520.283	16.17
520.629	16.76
520.976	17.37
521.322	18.01
521.668	18.67
522.014	19.34
522.36	20
522.706	20.65
523.052	21.27
523.398	21.86
523.743	22.41
524.089	22.91
524.435	23.37
524.781	23.82
525.126	24.26
525.472	24.69
525.817	25.1
526.163	25.51
526.509	25.9
526.854	26.3
527.199	26.68
527.545	27.08
527.89	27.49
528.235	27.89
528.581	28.27
528.926	28.63
529.271	28.97
529.616	29.3
529.961	29.61
530.306	29.9
530.651	30.16
530.996	30.4
531.341	30.62
531.686	30.82
532.031	31.01
532.376	31.22
532.721	31.45
533.065	31.71
533.41	31.97
533.755	32.2
534.099	32.4
534.444	32.55
534.788	32.68
535.133	32.8
535.477	32.89
535.822	32.94
536.166	32.96
536.51	32.94
536.855	32.86
537.199	32.75
537.543	32.64
537.887	32.56
538.231	32.52
538.576	32.49
538.92	32.44
539.264	32.39
539.608	32.31
539.951	32.23
540.295	32.14
540.639	32.04
540.983	31.91
541.327	31.77
541.671	31.62
542.014	31.5
542.358	31.39
542.701	31.37
543.045	31.4
543.389	31.46
543.732	31.53
544.075	31.63
544.419	31.73
544.762	31.85
545.105	31.98
545.449	32.13
545.792	32.28
546.135	32.43
546.478	32.54
546.821	32.61
547.165	32.63
547.508	32.6
547.851	32.52
548.194	32.39
548.536	32.23
548.879	32.04
549.222	31.82
549.565	31.6
549.908	31.39
550.25	31.21
550.593	31.08
550.936	31.01
551.278	30.99
551.621	31.01
551.963	31.05
552.306	31.11
552.648	31.2
552.991	31.33
553.333	31.46
553.675	31.62
554.017	31.81
554.36	32.03
554.702	32.27
555.044	32.56
555.386	32.88
555.728	33.25
556.07	33.55
556.412	33.86
556.754	34.1
557.096	34.31
557.438	34.51
557.78	34.72
558.121	34.92
558.463	35.13
558.805	35.34
559.147	35.55
559.488	35.75
559.83	35.96
560.171	36.17
560.513	36.37
560.854	36.57
561.196	36.76
561.537	36.94
561.878	37.13
562.22	37.33
562.561	37.5
562.902	37.68
563.243	37.86
563.584	38.04
563.925	38.22
564.266	38.4
564.607	38.57
564.948	38.75
565.289	38.92
565.63	39.08
565.971	39.25
566.312	39.42
566.653	39.59
566.993	39.74
567.334	39.9
567.675	40.06
568.015	40.21
568.356	40.36
568.696	40.5
569.037	40.64
569.377	40.77
569.718	40.9
570.058	41.02
570.398	41.15
570.739	41.27
571.079	41.38
571.419	41.5
571.759	41.6
572.099	41.7
572.439	41.81
572.779	41.9
573.119	42
573.459	42.1
573.799	42.19
574.139	42.29
574.479	42.38
574.819	42.48
575.158	42.57
575.498	42.66
575.838	42.75
576.177	42.83
576.517	42.92
576.856	43.01
577.196	43.09
577.535	43.17
577.875	43.26
578.214	43.33
578.553	43.4
578.893	43.48
579.232	43.56
579.571	43.63
579.91	43.7
580.25	43.77
580.589	43.84
580.928	43.91
581.267	43.99
581.606	44.07
581.945	44.14
582.283	44.22
582.622	44.3
582.961	44.38
583.3	44.45
583.639	44.53
583.977	44.6
584.316	44.68
584.654	44.75
584.993	44.84
585.332	44.91
585.67	45
586.008	45.07
586.347	45.14
586.685	45.22
587.024	45.29
587.362	45.37
587.7	45.46
588.038	45.53
588.376	45.61
588.715	45.69
589.053	45.78
589.391	45.86
589.729	45.95
590.067	46.04
590.404	46.11
590.742	46.18
591.08	46.26
591.418	46.34
591.756	46.42
592.093	46.49
592.431	46.55
592.769	46.61
593.106	46.67
593.444	46.73
593.781	46.8
594.119	46.86
594.456	46.92
594.793	46.97
595.131	47.03
595.468	47.09
595.805	47.15
596.143	47.2
596.48	47.24
596.817	47.31
597.154	47.38
597.491	47.44
597.828	47.52
598.165	47.59
598.502	47.65
598.839	47.71
599.176	47.77
599.512	47.82
599.849	47.88
600.186	47.93
600.523	47.97
600.859	48.02
601.196	48.07
601.532	48.12
601.869	48.16
602.205	48.2
602.542	48.25
602.878	48.29
603.215	48.34
603.551	48.36
603.887	48.4
604.223	48.44
604.56	48.48
604.896	48.52
605.232	48.55
605.568	48.57
605.904	48.61
606.24	48.65
606.576	48.69
606.912	48.71
607.248	48.74
607.583	48.77
607.919	48.79
608.255	48.81
608.591	48.84
608.926	48.86
609.262	48.89
609.597	48.91
609.933	48.93
610.268	48.97
610.604	48.98
610.939	49.02
611.275	49.04
611.61	49.04
611.945	49.05
612.281	49.06
612.616	49.07
612.951	49.07
613.286	49.09
613.621	49.11
613.956	49.13
614.291	49.16
614.626	49.17
614.961	49.19
615.296	49.21
615.631	49.23
615.966	49.25
616.3	49.27
616.635	49.28
616.97	49.3
617.304	49.33
617.639	49.36
617.973	49.38
618.308	49.39
618.642	49.41
618.977	49.44
619.311	49.48
619.646	49.5
619.98	49.54
620.314	49.56
620.648	49.6
620.983	49.62
621.317	49.66
621.651	49.72
621.985	49.75
622.319	49.79
622.653	49.82
622.987	49.85
623.321	49.88
623.655	49.9
623.988	49.92
624.322	49.94
624.656	49.96
624.99	49.99
625.323	50.02
625.657	50.04
625.99	50.06
626.324	50.07
626.657	50.1
626.991	50.14
627.324	50.16
627.658	50.18
627.991	50.2
628.324	50.24
628.657	50.28
628.991	50.3
629.324	50.33
629.657	50.36
629.99	50.39
630.323	50.41
630.656	50.43
630.989	50.46
631.322	50.49
631.655	50.52
631.987	50.54
632.32	50.56
632.653	50.58
632.986	50.59
633.318	50.61
633.651	50.63
633.984	50.64
634.316	50.67
634.649	50.7
634.981	50.72
635.313	50.72
635.646	50.74
635.978	50.76
636.31	50.79
636.643	50.81
636.975	50.84
637.307	50.86
637.639	50.89
637.971	50.92
638.303	50.94
638.635	50.96
638.967	50.99
639.299	51.04
639.631	51.07
639.963	51.11
640.295	51.14
640.626	51.16
640.958	51.18
641.29	51.21
641.621	51.24
641.953	51.26
642.285	51.27
642.616	51.3
642.948	51.33
643.279	51.36
643.61	51.39
643.942	51.42
644.273	51.43
644.604	51.46
644.936	51.49
645.267	51.51
645.598	51.54
645.929	51.57
646.26	51.6
646.591	51.65
646.922	51.68
647.253	51.72
647.584	51.77
647.915	51.8
648.245	51.84
648.576	51.88
648.907	51.91
649.238	51.92
649.568	51.96
649.899	51.99
650.229	52.03
650.56	52.06
650.89	52.08
651.221	52.12
651.551	52.15
651.882	52.19
652.212	52.23
652.542	52.26
652.872	52.29
653.203	52.34
653.533	52.38
653.863	52.42
654.193	52.45
654.523	52.49
654.853	52.52
655.183	52.55
655.513	52.58
655.843	52.6
656.172	52.65
656.502	52.68
656.832	52.71
657.162	52.73
657.491	52.77
657.821	52.8
658.15	52.82
658.48	52.83
658.809	52.85
659.139	52.89
659.468	52.92
659.798	52.97
660.127	52.99
660.456	53.01
660.785	53.04
661.115	53.06
661.444	53.08
661.773	53.1
662.102	53.13
662.431	53.17
662.76	53.2
663.089	53.23
663.418	53.27
663.747	53.28
664.076	53.31
664.404	53.35
664.733	53.39
665.062	53.42
665.39	53.46
665.719	53.48
666.048	53.51
666.376	53.55
666.705	53.57
667.033	53.6
667.362	53.63
667.69	53.66
668.018	53.69
668.347	53.73
668.675	53.76
669.003	53.8
669.331	53.84
669.659	53.86
669.987	53.9
670.315	53.93
670.643	53.96
670.971	54
671.299	54.02
671.627	54.04
671.955	54.09
672.283	54.13
672.61	54.16
672.938	54.19
673.266	54.22
673.593	54.27
673.921	54.31
674.249	54.34
674.576	54.36
674.904	54.39
675.231	54.42
675.558	54.44
675.886	54.45
676.213	54.5
676.54	54.51
676.867	54.51
677.195	54.54
677.522	54.58
677.849	54.62
678.176	54.62
678.503	54.63
678.83	54.65
679.157	54.68
679.484	54.7
679.81	54.71
680.137	54.73
680.464	54.74
680.791	54.76
681.117	54.79
681.444	54.82
681.771	54.84
682.097	54.86
682.424	54.89
682.75	54.92
683.077	54.93
683.403	54.95
683.729	54.98
684.056	55.01
684.382	55.01
684.708	55.04
685.034	55.07
685.36	55.1
685.686	55.13
686.012	55.14
686.339	55.18
686.664	55.2
686.99	55.2
687.316	55.21
687.642	55.24
687.968	55.27
688.294	55.29
688.619	55.32
688.945	55.35
689.271	55.39
689.596	55.41
689.922	55.45
690.247	55.48
690.573	55.52
690.898	55.54
691.224	55.58
691.549	55.6
691.874	55.62
692.2	55.63
692.525	55.65
692.85	55.67
693.175	55.69
693.5	55.73
693.825	55.77
694.15	55.8
694.475	55.82
694.8	55.84
695.125	55.86
695.45	55.9
695.775	55.91
696.099	55.92
696.424	55.94
696.749	55.95
697.073	55.96
697.398	55.96
697.723	56
698.047	56.01
698.372	56.03
698.696	56.04
699.02	56.06
699.345	56.07
699.669	56.07
699.993	56.08
700.318	56.1
700.642	56.11
700.966	56.13
701.29	56.16
701.614	56.17
701.938	56.19
702.262	56.2
702.586	56.2
702.91	56.21
703.234	56.23
703.557	56.25
703.881	56.27
704.205	56.28
704.529	56.28
704.852	56.32
705.176	56.34
705.499	56.37
705.823	56.38
706.146	56.39
706.47	56.41
706.793	56.41
707.117	56.42
707.44	56.42
707.763	56.43
708.086	56.44
708.409	56.46
708.733	56.47
709.056	56.5
709.379	56.51
709.702	56.52
710.025	56.53
710.348	56.54
710.671	56.58
710.993	56.61
711.316	56.64
711.639	56.66
711.962	56.68
712.284	56.7
712.607	56.71
712.93	56.74
713.252	56.75
713.575	56.79
713.897	56.81
714.22	56.81
714.542	56.82
714.864	56.83
715.187	56.84
715.509	56.84
715.831	56.84
716.153	56.88
716.475	56.89
716.798	56.9
717.12	56.89
717.442	56.9
717.764	56.9
718.085	56.91
718.407	56.94
718.729	56.97
719.051	57
719.373	57.02
719.695	57.06
720.016	57.08
720.338	57.1
720.659	57.13
720.981	57.15
721.302	57.16
721.624	57.19
721.945	57.19
722.267	57.22
722.588	57.28
722.909	57.27
723.231	57.29
723.552	57.31
723.873	57.32
724.194	57.34
724.515	57.34
724.836	57.34
725.157	57.36
725.478	57.36
725.799	57.39
726.12	57.4
726.441	57.4
726.762	57.4
727.083	57.41
727.403	57.45
727.724	57.47
728.045	57.5
728.365	57.53
728.686	57.56
729.006	57.62
729.327	57.6
729.647	57.6
729.967	57.61
730.288	57.63
730.608	57.63
730.928	57.66
731.249	57.68
731.569	57.67
731.889	57.65
732.209	57.64
732.529	57.67
732.849	57.69
733.169	57.7
733.489	57.71
733.809	57.71
734.129	57.72
734.448	57.76
734.768	57.75
735.088	57.75
735.408	57.75
735.727	57.73
736.047	57.76
736.366	57.76
736.686	57.78
737.005	57.78
737.325	57.76
737.644	57.76
737.963	57.77
738.283	57.75
738.602	57.76
738.921	57.77
739.24	57.78
739.56	57.8
739.879	57.79
740.198	57.78
740.517	57.79
740.836	57.78
741.155	57.76
741.473	57.71
741.792	57.7
742.111	57.67
742.43	57.66
742.748	57.68
743.067	57.7
743.386	57.7
743.704	57.72
744.023	57.7
744.341	57.68
744.66	57.7
744.978	57.74
745.297	57.72
745.615	57.72
745.933	57.71
746.252	57.71
746.57	57.69
746.888	57.71
747.206	57.7
747.524	57.69
747.842	57.7
748.16	57.7
748.478	57.67
748.796	57.67
749.114	57.67
749.432	57.69
749.749	57.69
750.067	57.7
750.385	57.76
750.703	57.76
751.02	57.75
751.338	57.75
751.655	57.78
751.973	57.78
752.29	57.77
752.608	57.77
752.925	57.8
753.242	57.83
753.56	57.8
753.877	57.83
754.194	57.85
754.511	57.93
754.828	57.97
755.145	58.01
755.462	58.06
755.779	58.08
756.096	58.07
756.413	58.09
756.73	58.14
757.047	58.14
757.364	58.16
757.68	58.17
757.997	58.17
758.314	58.2
758.63	58.22
758.947	58.25
759.264	58.27
759.58	58.36
759.896	58.38
760.213	58.4
760.529	58.42
760.846	58.43
761.162	58.46
761.478	58.5
761.794	58.53
762.11	58.53
762.426	58.55
762.743	58.57
763.059	58.59
763.375	58.56
763.69	58.6
764.006	58.66
764.322	58.71
764.638	58.71
764.954	58.72
765.27	58.73
765.585	58.72
765.901	58.73
766.216	58.72
766.532	58.74
766.848	58.78
767.163	58.78
767.478	58.78
767.794	58.79
768.109	58.76
768.424	58.76
768.74	58.75
769.055	58.76
769.37	58.78
769.685	58.76
770	58.79
770.315	58.8
770.63	58.84
770.945	58.86
771.26	58.85
771.575	58.84
771.89	58.82
772.205	58.81
772.52	58.78
772.834	58.77
773.149	58.78
773.464	58.75
773.778	58.78
774.093	58.75
774.407	58.75
774.722	58.78
775.036	58.77
775.351	58.76
775.665	58.72
775.979	58.72
776.293	58.72
776.608	58.71
776.922	58.67
777.236	58.65
777.55	58.62
777.864	58.62
778.178	58.63
778.492	58.66
778.806	58.67
779.12	58.65
779.434	58.66
779.747	58.61
780.061	58.6
780.375	58.6
780.689	58.57
781.002	58.61
781.316	58.58
781.629	58.57
781.943	58.61
782.256	58.56
782.57	58.54
782.883	58.54
783.196	58.55
783.51	58.52
783.823	58.52
784.136	58.55
784.449	58.62
784.762	58.67
785.075	58.68
785.388	58.68
785.701	58.7
786.014	58.72
786.327	58.74
786.64	58.73
786.953	58.75
787.266	58.75
787.578	58.72
787.891	58.73
788.204	58.72
788.516	58.73
788.829	58.73
789.141	58.72
789.454	58.74
789.766	58.76
790.079	58.76
790.391	58.8
790.703	58.79
791.016	58.86
791.328	58.82
791.64	58.82
791.952	58.88
792.264	58.87
792.576	58.92
792.888	58.9
793.2	58.92
793.512	58.95
793.824	58.96
794.136	59.01
794.448	59.04
794.76	59.01
795.071	59.02
795.383	59.05
795.695	59.03
796.006	59.08
796.318	59.06
796.629	59.1
796.941	59.1
797.252	59.08
797.564	59
797.875	58.94
798.186	58.91
798.497	58.87
798.809	58.88
799.12	58.84
799.431	58.83
799.742	58.84
800.053	58.87
800.364	58.89
800.675	58.93
800.986	58.96
801.297	58.98
801.608	59
801.918	59.01
802.229	59.03
802.54	58.93
802.851	58.88
803.161	58.92
803.472	58.88
803.782	58.8
804.093	58.84
804.403	58.85
804.714	58.82
805.024	58.84
805.334	58.79
805.645	58.81
805.955	58.76
806.265	58.79
806.575	58.77
806.885	58.74
807.195	58.73
807.505	58.75
807.815	58.83
808.125	58.88
808.435	58.92
808.745	58.89
809.055	58.91
809.365	58.86
809.674	58.82
809.984	58.8
810.294	58.86
810.603	58.92
810.913	58.95
811.222	58.99
811.532	58.94
811.841	59.01
812.151	59.02
812.46	59.01
812.769	58.96
813.079	58.94
813.388	58.93
813.697	58.91
814.006	58.92
814.315	58.87
814.624	58.89
814.933	58.91
815.242	58.98
815.551	59.02
815.86	58.98
816.169	59.04
816.478	59.07
816.786	59.06
817.095	59.05
817.404	59.04
817.712	59.06
818.021	59.07
818.33	59.09
818.638	59.1
818.947	59.06
819.255	59.09
819.563	59.12
819.872	59.18
820.18	59.22
820.488	59.24
820.796	59.27
821.105	59.28
821.413	59.3
821.721	59.31
822.029	59.31
822.337	59.38
822.645	59.34
822.953	59.33
823.26	59.34
823.568	59.33
823.876	59.32
824.184	59.35
824.491	59.36
824.799	59.36
825.107	59.36
825.414	59.37
825.722	59.38
826.029	59.41
826.337	59.44
826.644	59.45
826.951	59.46
827.259	59.47
827.566	59.46
827.873	59.47
828.18	59.46
828.488	59.48
828.795	59.49
829.102	59.5
829.409	59.5
829.716	59.52
830.023	59.54
830.329	59.56
830.636	59.57
830.943	59.59
831.25	59.62
831.557	59.64
831.863	59.66
832.17	59.63
832.476	59.58
832.783	59.54
833.089	59.5
833.396	59.45
833.702	59.47
834.009	59.45
834.315	59.43
834.621	59.43
834.928	59.37
835.234	59.45
835.54	59.47
835.846	59.47
836.152	59.51
836.458	59.51
836.764	59.53
837.07	59.51
837.376	59.49
837.682	59.49
837.988	59.5
838.293	59.48
838.599	59.43
838.905	59.31
839.211	59.28
839.516	59.2
839.822	59.21
840.127	59.19
840.433	59.2
840.738	59.21
841.044	59.13
841.349	59.07
841.654	59.03
841.959	59
842.265	58.99
842.57	59.03
842.875	58.95
843.18	58.89
843.485	58.87
843.79	58.83
844.095	58.84
844.4	58.76
844.705	58.86
845.01	58.86
845.315	58.86
845.619	58.8
845.924	58.89
846.229	58.78
846.533	58.76
846.838	58.82
847.142	58.9
847.447	58.87
847.751	58.83
848.056	58.8
848.36	58.83
848.664	58.69
848.969	58.81
849.273	58.66
849.577	58.56
849.881	58.56
850.185	58.67
850.489	58.54
850.794	58.67
851.097	58.57
851.401	58.75
851.705	58.82
852.009	58.86
852.313	58.84
852.617	58.74
852.92	58.84
853.224	58.87
853.528	59.02
853.831	59.25
854.135	59.39
854.438	59.47
854.742	59.39
855.045	59.17
855.349	59.29
855.652	59.26
855.955	59.22
856.259	59.28
856.562	59.44
856.865	59.4
857.168	59.32
857.471	59.33
857.774	59.36
858.077	59.41
858.38	59.38
858.683	59.41
858.986	59.61
859.289	59.41
859.592	59.26
859.894	59.24
860.197	59.24
860.5	59.11
860.802	59.14
861.105	59.24
861.407	59.09
861.71	59.05
862.012	59.12
862.315	59.3
862.617	59.36
862.919	59.45
863.222	59.37
863.524	59.44
863.826	59.32
864.128	59.08
864.43	59.09
864.732	59.17
865.034	59.24
865.336	59.09
865.638	59.09
865.94	59.1
866.242	58.9
866.544	58.85
866.846	58.98
867.147	59.02
867.449	59.08
867.751	58.82
868.052	58.82
868.354	58.99
868.655	58.86
868.957	58.76
869.258	58.85
869.56	58.86
869.861	58.89
870.162	59.02
870.463	58.94
870.765	58.77
871.066	58.74
871.367	58.41
871.668	58.52
871.969	58.68
872.27	58.61
872.571	58.52
872.872	58.64
873.173	58.59
873.473	58.54
873.774	58.61
874.075	58.63
874.376	58.61
874.676	58.39
874.977	58.33
875.277	58.26
875.578	58.13
875.878	58.07
876.179	58.14
876.479	58.3
876.78	58.52
877.08	58.43
877.38	58.47
877.68	58.44
877.981	58.43
878.281	58.29
878.581	58.32
