Data from UWBM91361_Reflection_00011.txt Node
Date: Sun May 02 12:22:15 EDT 2021
User: vgr7
Spectrometer: USB2G7710
Scans to average: 10
Trigger mode: 4
Integration Time (sec): 1.000000E-1
Electric dark correction enabled: true
Boxcar width: 10
XAxis mode: Wavelengths
Number of Pixels in Spectrum: 2048
>>>>>Begin Spectral Data<<<<<
177.721	65.75
178.105	211.76
178.488	96.28
178.871	75.89
179.254	310.34
179.636	66.23
180.019	23.35
180.402	83.33
180.785	65.83
181.168	146.81
181.55	126.61
181.933	138.84
182.316	85.21
182.698	156.52
183.081	98.82
183.463	73.04
183.846	69.15
184.228	39.38
184.611	10.69
184.993	17.22
185.376	11.71
185.758	8.69
186.14	-7.99
186.522	-5.67
186.904	-2.98
187.287	0.84
187.669	2.51
188.051	-1.16
188.433	3.3
188.815	5.73
189.197	5.99
189.579	4.04
189.961	1.09
190.342	-1.06
190.724	1.9
191.106	4.47
191.488	3.99
191.869	2.89
192.251	4.71
192.633	4.53
193.014	1.32
193.396	2.42
193.777	4.65
194.159	9.09
194.54	5.98
194.922	0.23
195.303	2.86
195.684	3.3
196.065	2.98
196.447	1.32
196.828	-1.11
197.209	-5.58
197.59	-8.79
197.971	-10.76
198.352	-7.04
198.733	-0.42
199.114	-1.04
199.495	-1.3
199.876	-1.95
200.257	1.49
200.638	5.2
201.018	7.91
201.399	7.56
201.78	4.17
202.16	-1.29
202.541	1.76
202.922	2.13
203.302	-2.67
203.683	-4.1
204.063	-3.12
204.444	-6.42
204.824	-2.03
205.204	3.91
205.585	5.79
205.965	5.71
206.345	8.22
206.725	3.95
207.106	5.63
207.486	7.96
207.866	11.04
208.246	8.4
208.626	3.69
209.006	3.2
209.386	-0.38
209.766	-0.19
210.145	4.2
210.525	0.97
210.905	2.95
211.285	3.59
211.664	2.92
212.044	3.97
212.424	6.15
212.803	2.43
213.183	3.59
213.562	5.33
213.942	5.86
214.321	-2.79
214.701	-7.18
215.08	-8.54
215.459	-9.06
215.838	-11.04
216.218	-9.62
216.597	-8.13
216.976	-10.07
217.355	-5.63
217.734	-6.89
218.113	-6.87
218.492	-3.28
218.871	0.16
219.25	2.18
219.629	5.11
220.008	7.36
220.387	6.58
220.766	3.3
221.144	0.65
221.523	1.26
221.902	1.56
222.28	5.94
222.659	9.45
223.037	12.23
223.416	13.3
223.794	12.19
224.173	11.72
224.551	12.54
224.929	11.41
225.308	12.94
225.686	12.73
226.064	11.32
226.442	11.83
226.821	10.51
227.199	9.48
227.577	8.33
227.955	8.03
228.333	7.6
228.711	8.69
229.089	9.44
229.467	9.37
229.845	10.28
230.222	10
230.6	10.17
230.978	9.11
231.356	7.61
231.733	6.89
232.111	7.38
232.488	7.17
232.866	7.26
233.243	6.81
233.621	7.79
233.998	7.4
234.376	7.07
234.753	7.91
235.13	7.99
235.508	8.51
235.885	8.13
236.262	8.46
236.639	8.21
237.016	7.78
237.393	7.31
237.77	6.51
238.147	6.37
238.524	6.23
238.901	6.36
239.278	6.34
239.655	6.47
240.032	6.45
240.409	6.41
240.785	6.15
241.162	5.9
241.539	5.62
241.915	5.86
242.292	5.77
242.668	5.59
243.045	5.48
243.421	5.3
243.798	5.26
244.174	5.19
244.551	5.12
244.927	5.04
245.303	4.96
245.679	5.04
246.056	4.97
246.432	4.95
246.808	4.83
247.184	4.79
247.56	4.78
247.936	4.75
248.312	4.73
248.688	4.78
249.064	4.78
249.44	4.71
249.815	4.62
250.191	4.61
250.567	4.49
250.943	4.53
251.318	4.62
251.694	4.56
252.069	4.55
252.445	4.6
252.82	4.58
253.196	4.64
253.571	4.58
253.947	4.75
254.322	4.77
254.697	4.79
255.073	4.84
255.448	4.74
255.823	4.69
256.198	4.54
256.573	4.46
256.948	4.41
257.323	4.47
257.698	4.45
258.073	4.41
258.448	4.45
258.823	4.42
259.198	4.33
259.573	4.39
259.948	4.41
260.322	4.38
260.697	4.34
261.072	4.34
261.446	4.33
261.821	4.25
262.195	4.16
262.57	4.17
262.944	4.13
263.319	4.15
263.693	4.14
264.067	4.18
264.442	4.2
264.816	4.21
265.19	4.18
265.564	4.2
265.938	4.12
266.313	4.07
266.687	3.99
267.061	4.03
267.435	3.95
267.809	3.94
268.183	3.95
268.556	3.99
268.93	3.99
269.304	3.95
269.678	3.89
270.051	3.9
270.425	3.89
270.799	3.92
271.172	3.94
271.546	3.95
271.919	3.98
272.293	3.94
272.666	3.91
273.04	3.94
273.413	3.86
273.787	3.89
274.16	3.89
274.533	3.95
274.906	3.91
275.279	3.97
275.653	3.95
276.026	3.89
276.399	3.89
276.772	3.87
277.145	3.9
277.518	3.97
277.891	4.04
278.263	4.08
278.636	4.11
279.009	4.09
279.382	4.02
279.755	3.98
280.127	4.04
280.5	4.09
280.872	4.03
281.245	4.1
281.617	4.08
281.99	4.11
282.362	4.06
282.735	4.03
283.107	4.01
283.479	4
283.852	4.03
284.224	4.05
284.596	4.06
284.968	4.08
285.34	4.06
285.713	4.07
286.085	4.02
286.457	4.01
286.829	4.02
287.201	4.05
287.572	4.07
287.944	4.07
288.316	4.07
288.688	4.12
289.06	4.1
289.431	4.13
289.803	4.13
290.175	4.17
290.546	4.21
290.918	4.22
291.289	4.23
291.661	4.26
292.032	4.26
292.403	4.29
292.775	4.26
293.146	4.26
293.517	4.28
293.889	4.35
294.26	4.36
294.631	4.36
295.002	4.38
295.373	4.42
295.744	4.45
296.115	4.48
296.486	4.48
296.857	4.52
297.228	4.56
297.599	4.58
297.97	4.6
298.34	4.64
298.711	4.67
299.082	4.67
299.452	4.68
299.823	4.72
300.194	4.75
300.564	4.79
300.935	4.84
301.305	4.86
301.676	4.82
302.046	4.86
302.416	4.87
302.787	4.92
303.157	4.94
303.527	5
303.897	5
304.267	5.02
304.637	5.09
305.008	5.1
305.378	5.12
305.748	5.13
306.117	5.18
306.487	5.21
306.857	5.29
307.227	5.32
307.597	5.33
307.967	5.36
308.336	5.44
308.706	5.5
309.076	5.53
309.445	5.58
309.815	5.59
310.184	5.64
310.554	5.69
310.923	5.7
311.293	5.72
311.662	5.75
312.031	5.78
312.401	5.81
312.77	5.86
313.139	5.92
313.508	5.95
313.877	5.99
314.246	6.04
314.616	6.06
314.985	6.09
315.353	6.13
315.722	6.21
316.091	6.25
316.46	6.29
316.829	6.37
317.198	6.46
317.567	6.52
317.935	6.59
318.304	6.64
318.672	6.68
319.041	6.72
319.41	6.8
319.778	6.91
320.147	6.97
320.515	7
320.883	7.03
321.252	7.12
321.62	7.12
321.988	7.13
322.357	7.17
322.725	7.21
323.093	7.26
323.461	7.28
323.829	7.27
324.197	7.28
324.565	7.28
324.933	7.32
325.301	7.4
325.669	7.45
326.037	7.44
326.405	7.46
326.772	7.48
327.14	7.49
327.508	7.47
327.875	7.46
328.243	7.51
328.61	7.56
328.978	7.59
329.346	7.63
329.713	7.62
330.08	7.66
330.448	7.7
330.815	7.71
331.182	7.7
331.55	7.77
331.917	7.83
332.284	7.84
332.651	7.84
333.018	7.84
333.385	7.85
333.752	7.92
334.119	7.95
334.486	8.01
334.853	8.02
335.22	8.04
335.587	8.08
335.954	8.09
336.32	8.08
336.687	8.1
337.054	8.11
337.42	8.17
337.787	8.19
338.153	8.23
338.52	8.28
338.886	8.33
339.253	8.34
339.619	8.36
339.986	8.41
340.352	8.42
340.718	8.46
341.084	8.46
341.451	8.47
341.817	8.51
342.183	8.53
342.549	8.57
342.915	8.59
343.281	8.6
343.647	8.62
344.013	8.65
344.379	8.68
344.745	8.68
345.11	8.7
345.476	8.73
345.842	8.75
346.208	8.75
346.573	8.77
346.939	8.79
347.304	8.78
347.67	8.77
348.035	8.8
348.401	8.78
348.766	8.79
349.132	8.8
349.497	8.81
349.862	8.79
350.228	8.77
350.593	8.81
350.958	8.8
351.323	8.81
351.688	8.82
352.053	8.82
352.418	8.85
352.783	8.83
353.148	8.81
353.513	8.78
353.878	8.78
354.243	8.74
354.608	8.7
354.972	8.72
355.337	8.67
355.702	8.61
356.066	8.6
356.431	8.58
356.795	8.57
357.16	8.53
357.524	8.52
357.889	8.53
358.253	8.49
358.618	8.48
358.982	8.45
359.346	8.41
359.71	8.37
360.075	8.33
360.439	8.31
360.803	8.29
361.167	8.26
361.531	8.23
361.895	8.22
362.259	8.2
362.623	8.17
362.987	8.17
363.351	8.17
363.714	8.16
364.078	8.13
364.442	8.09
364.806	8.07
365.169	8.04
365.533	7.99
365.896	7.96
366.26	7.94
366.623	7.91
366.987	7.88
367.35	7.85
367.714	7.81
368.077	7.79
368.44	7.74
368.803	7.69
369.167	7.66
369.53	7.64
369.893	7.61
370.256	7.57
370.619	7.53
370.982	7.49
371.345	7.44
371.708	7.39
372.071	7.35
372.434	7.31
372.797	7.27
373.159	7.25
373.522	7.2
373.885	7.16
374.247	7.1
374.61	7.05
374.973	7
375.335	6.96
375.698	6.9
376.06	6.88
376.423	6.84
376.785	6.79
377.147	6.74
377.51	6.71
377.872	6.65
378.234	6.58
378.596	6.54
378.958	6.5
379.321	6.48
379.683	6.42
380.045	6.36
380.407	6.32
380.769	6.26
381.13	6.24
381.492	6.18
381.854	6.14
382.216	6.11
382.578	6.08
382.939	6.06
383.301	6.03
383.663	5.98
384.024	5.96
384.386	5.93
384.747	5.91
385.109	5.88
385.47	5.85
385.832	5.83
386.193	5.8
386.554	5.77
386.916	5.75
387.277	5.72
387.638	5.71
387.999	5.68
388.36	5.68
388.721	5.64
389.082	5.62
389.443	5.6
389.804	5.57
390.165	5.54
390.526	5.51
390.887	5.47
391.248	5.45
391.609	5.42
391.969	5.39
392.33	5.36
392.691	5.33
393.051	5.31
393.412	5.29
393.772	5.26
394.133	5.24
394.493	5.21
394.854	5.18
395.214	5.15
395.574	5.13
395.935	5.1
396.295	5.06
396.655	5.03
397.015	5
397.376	4.97
397.736	4.95
398.096	4.91
398.456	4.9
398.816	4.86
399.176	4.83
399.535	4.82
399.895	4.8
400.255	4.77
400.615	4.75
400.975	4.73
401.334	4.7
401.694	4.69
402.054	4.67
402.413	4.65
402.773	4.64
403.132	4.63
403.492	4.61
403.851	4.6
404.211	4.59
404.57	4.58
404.929	4.57
405.288	4.56
405.648	4.55
406.007	4.54
406.366	4.54
406.725	4.53
407.084	4.51
407.443	4.5
407.802	4.48
408.161	4.47
408.52	4.47
408.879	4.46
409.238	4.44
409.596	4.43
409.955	4.42
410.314	4.41
410.673	4.39
411.031	4.38
411.39	4.37
411.748	4.37
412.107	4.36
412.465	4.35
412.824	4.34
413.182	4.34
413.54	4.33
413.899	4.33
414.257	4.32
414.615	4.31
414.974	4.32
415.332	4.31
415.69	4.32
416.048	4.3
416.406	4.31
416.764	4.31
417.122	4.31
417.48	4.3
417.838	4.3
418.195	4.3
418.553	4.31
418.911	4.31
419.269	4.3
419.626	4.3
419.984	4.3
420.342	4.3
420.699	4.3
421.057	4.3
421.414	4.29
421.772	4.29
422.129	4.28
422.486	4.28
422.844	4.28
423.201	4.28
423.558	4.27
423.915	4.27
424.273	4.26
424.63	4.25
424.987	4.24
425.344	4.24
425.701	4.23
426.058	4.22
426.415	4.2
426.772	4.19
427.128	4.18
427.485	4.17
427.842	4.16
428.199	4.15
428.555	4.14
428.912	4.13
429.269	4.12
429.625	4.11
429.982	4.1
430.338	4.1
430.695	4.09
431.051	4.09
431.407	4.08
431.764	4.08
432.12	4.08
432.476	4.08
432.832	4.07
433.189	4.08
433.545	4.08
433.901	4.08
434.257	4.08
434.613	4.08
434.969	4.08
435.325	4.08
435.681	4.09
436.036	4.09
436.392	4.11
436.748	4.12
437.104	4.12
437.459	4.12
437.815	4.13
438.171	4.13
438.526	4.13
438.882	4.14
439.237	4.14
439.593	4.15
439.948	4.16
440.304	4.17
440.659	4.17
441.014	4.17
441.369	4.17
441.725	4.17
442.08	4.18
442.435	4.18
442.79	4.18
443.145	4.18
443.5	4.18
443.855	4.17
444.21	4.17
444.565	4.17
444.92	4.17
445.275	4.16
445.629	4.16
445.984	4.16
446.339	4.15
446.693	4.15
447.048	4.14
447.403	4.13
447.757	4.13
448.112	4.12
448.466	4.12
448.82	4.12
449.175	4.12
449.529	4.11
449.883	4.1
450.238	4.09
450.592	4.08
450.946	4.07
451.3	4.06
451.654	4.06
452.008	4.05
452.362	4.04
452.716	4.04
453.07	4.03
453.424	4.02
453.778	4.02
454.132	4.02
454.486	4.01
454.839	4.01
455.193	4.02
455.547	4.02
455.9	4.03
456.254	4.03
456.607	4.04
456.961	4.05
457.314	4.06
457.668	4.06
458.021	4.07
458.375	4.07
458.728	4.08
459.081	4.08
459.434	4.08
459.787	4.09
460.141	4.08
460.494	4.08
460.847	4.08
461.2	4.08
461.553	4.08
461.906	4.09
462.259	4.09
462.611	4.09
462.964	4.09
463.317	4.08
463.67	4.08
464.022	4.08
464.375	4.08
464.728	4.07
465.08	4.08
465.433	4.08
465.785	4.08
466.138	4.08
466.49	4.08
466.843	4.08
467.195	4.09
467.547	4.1
467.899	4.11
468.252	4.12
468.604	4.12
468.956	4.13
469.308	4.13
469.66	4.13
470.012	4.13
470.364	4.13
470.716	4.14
471.068	4.14
471.42	4.14
471.772	4.14
472.123	4.15
472.475	4.15
472.827	4.15
473.178	4.16
473.53	4.15
473.882	4.16
474.233	4.16
474.585	4.16
474.936	4.16
475.288	4.16
475.639	4.16
475.99	4.17
476.342	4.17
476.693	4.18
477.044	4.18
477.395	4.18
477.746	4.18
478.097	4.18
478.448	4.2
478.8	4.28
479.15	4.39
479.501	4.53
479.852	4.68
480.203	4.85
480.554	5.01
480.905	5.19
481.255	5.36
481.606	5.53
481.957	5.7
482.307	5.86
482.658	6
483.009	6.12
483.359	6.23
483.709	6.32
484.06	6.41
484.41	6.49
484.761	6.57
485.111	6.65
485.461	6.73
485.811	6.8
486.162	6.83
486.512	6.82
486.862	6.79
487.212	6.74
487.562	6.66
487.912	6.56
488.262	6.46
488.612	6.35
488.961	6.22
489.311	6.09
489.661	5.95
490.011	5.82
490.36	5.68
490.71	5.53
491.06	5.39
491.409	5.24
491.759	5.13
492.108	5.03
492.458	4.94
492.807	4.86
493.157	4.78
493.506	4.71
493.855	4.64
494.204	4.57
494.554	4.51
494.903	4.46
495.252	4.41
495.601	4.36
495.95	4.32
496.299	4.29
496.648	4.25
496.997	4.23
497.346	4.22
497.695	4.23
498.043	4.27
498.392	4.32
498.741	4.38
499.09	4.43
499.438	4.46
499.787	4.48
500.135	4.5
500.484	4.52
500.832	4.55
501.181	4.57
501.529	4.59
501.878	4.61
502.226	4.63
502.574	4.66
502.923	4.68
503.271	4.71
503.619	4.75
503.967	4.78
504.315	4.83
504.663	4.85
505.011	4.89
505.359	4.93
505.707	4.97
506.055	5.01
506.403	5.05
506.751	5.09
507.098	5.14
507.446	5.17
507.794	5.21
508.141	5.25
508.489	5.29
508.837	5.33
509.184	5.38
509.531	5.42
509.879	5.47
510.226	5.51
510.574	5.56
510.921	5.6
511.268	5.64
511.616	5.68
511.963	5.73
512.31	5.77
512.657	5.82
513.004	5.87
513.351	5.92
513.698	5.97
514.045	6.03
514.392	6.09
514.739	6.15
515.086	6.21
515.432	6.28
515.779	6.34
516.126	6.4
516.473	6.46
516.819	6.52
517.166	6.57
517.512	6.62
517.859	6.66
518.205	6.71
518.552	6.75
518.898	6.8
519.245	6.85
519.591	6.9
519.937	6.94
520.283	7
520.629	7.05
520.976	7.11
521.322	7.17
521.668	7.23
522.014	7.3
522.36	7.36
522.706	7.43
523.052	7.53
523.398	7.67
523.743	7.88
524.089	8.11
524.435	8.35
524.781	8.61
525.126	8.88
525.472	9.14
525.817	9.39
526.163	9.64
526.509	9.86
526.854	10.05
527.199	10.22
527.545	10.33
527.89	10.43
528.235	10.53
528.581	10.63
528.926	10.73
529.271	10.82
529.616	10.92
529.961	11.02
530.306	11.09
530.651	11.14
530.996	11.13
531.341	11.1
531.686	11.03
532.031	10.94
532.376	10.81
532.721	10.67
533.065	10.52
533.41	10.39
533.755	10.29
534.099	10.22
534.444	10.2
534.788	10.21
535.133	10.24
535.477	10.29
535.822	10.34
536.166	10.41
536.51	10.5
536.855	10.6
537.199	10.72
537.543	10.86
537.887	11.03
538.231	11.2
538.576	11.38
538.92	11.59
539.264	11.81
539.608	12.03
539.951	12.26
540.295	12.47
540.639	12.63
540.983	12.78
541.327	12.89
541.671	13.01
542.014	13.14
542.358	13.28
542.701	13.42
543.045	13.55
543.389	13.69
543.732	13.82
544.075	13.95
544.419	14.08
544.762	14.2
545.105	14.31
545.449	14.41
545.792	14.51
546.135	14.6
546.478	14.71
546.821	14.85
547.165	15.02
547.508	15.24
547.851	15.48
548.194	15.74
548.536	16.04
548.879	16.3
549.222	16.53
549.565	16.75
549.908	16.98
550.25	17.23
550.593	17.47
550.936	17.73
551.278	17.97
551.621	18.23
551.963	18.49
552.306	18.73
552.648	19
552.991	19.24
553.333	19.49
553.675	19.75
554.017	20.02
554.36	20.27
554.702	20.51
555.044	20.76
555.386	21.02
555.728	21.28
556.07	21.54
556.412	21.82
556.754	22.1
557.096	22.38
557.438	22.66
557.78	22.94
558.121	23.21
558.463	23.51
558.805	23.8
559.147	24.09
559.488	24.39
559.83	24.66
560.171	24.96
560.513	25.26
560.854	25.56
561.196	25.86
561.537	26.17
561.878	26.49
562.22	26.79
562.561	27.09
562.902	27.39
563.243	27.7
563.584	27.99
563.925	28.28
564.266	28.57
564.607	28.86
564.948	29.15
565.289	29.42
565.63	29.68
565.971	29.94
566.312	30.22
566.653	30.5
566.993	30.77
567.334	31.05
567.675	31.33
568.015	31.59
568.356	31.86
568.696	32.13
569.037	32.39
569.377	32.66
569.718	32.93
570.058	33.2
570.398	33.47
570.739	33.72
571.079	33.98
571.419	34.22
571.759	34.46
572.099	34.67
572.439	34.89
572.779	35.11
573.119	35.33
573.459	35.52
573.799	35.72
574.139	35.92
574.479	36.1
574.819	36.29
575.158	36.46
575.498	36.63
575.838	36.8
576.177	36.96
576.517	37.12
576.856	37.29
577.196	37.44
577.535	37.59
577.875	37.75
578.214	37.89
578.553	38.06
578.893	38.22
579.232	38.39
579.571	38.55
579.91	38.71
580.25	38.88
580.589	39.04
580.928	39.19
581.267	39.33
581.606	39.49
581.945	39.63
582.283	39.82
582.622	39.99
582.961	40.15
583.3	40.32
583.639	40.5
583.977	40.68
584.316	40.86
584.654	41.03
584.993	41.21
585.332	41.39
585.67	41.56
586.008	41.74
586.347	41.92
586.685	42.1
587.024	42.27
587.362	42.44
587.7	42.6
588.038	42.78
588.376	42.94
588.715	43.1
589.053	43.25
589.391	43.38
589.729	43.53
590.067	43.67
590.404	43.83
590.742	43.95
591.08	44.07
591.418	44.22
591.756	44.37
592.093	44.52
592.431	44.65
592.769	44.78
593.106	44.91
593.444	45.02
593.781	45.12
594.119	45.25
594.456	45.35
594.793	45.47
595.131	45.55
595.468	45.65
595.805	45.74
596.143	45.81
596.48	45.9
596.817	45.95
597.154	46.02
597.491	46.08
597.828	46.16
598.165	46.25
598.502	46.32
598.839	46.4
599.176	46.47
599.512	46.56
599.849	46.68
600.186	46.79
600.523	46.9
600.859	47.03
601.196	47.13
601.532	47.24
601.869	47.35
602.205	47.45
602.542	47.55
602.878	47.66
603.215	47.76
603.551	47.82
603.887	47.95
604.223	48.04
604.56	48.12
604.896	48.19
605.232	48.26
605.568	48.34
605.904	48.4
606.24	48.47
606.576	48.54
606.912	48.58
607.248	48.62
607.583	48.65
607.919	48.67
608.255	48.7
608.591	48.73
608.926	48.77
609.262	48.8
609.597	48.82
609.933	48.85
610.268	48.87
610.604	48.92
610.939	48.94
611.275	48.97
611.61	49
611.945	49.04
612.281	49.07
612.616	49.1
612.951	49.12
613.286	49.14
613.621	49.16
613.956	49.17
614.291	49.21
614.626	49.26
614.961	49.3
615.296	49.35
615.631	49.38
615.966	49.39
616.3	49.45
616.635	49.53
616.97	49.57
617.304	49.63
617.639	49.67
617.973	49.72
618.308	49.76
618.642	49.8
618.977	49.83
619.311	49.86
619.646	49.89
619.98	49.94
620.314	49.99
620.648	50.04
620.983	50.09
621.317	50.14
621.651	50.17
621.985	50.23
622.319	50.28
622.653	50.36
622.987	50.45
623.321	50.51
623.655	50.55
623.988	50.62
624.322	50.69
624.656	50.77
624.99	50.83
625.323	50.86
625.657	50.91
625.99	50.98
626.324	51.05
626.657	51.1
626.991	51.14
627.324	51.19
627.658	51.2
627.991	51.23
628.324	51.25
628.657	51.3
628.991	51.33
629.324	51.36
629.657	51.39
629.99	51.38
630.323	51.4
630.656	51.45
630.989	51.47
631.322	51.5
631.655	51.49
631.987	51.49
632.32	51.54
632.653	51.55
632.986	51.54
633.318	51.52
633.651	51.55
633.984	51.56
634.316	51.56
634.649	51.58
634.981	51.63
635.313	51.66
635.646	51.68
635.978	51.68
636.31	51.71
636.643	51.7
636.975	51.72
637.307	51.73
637.639	51.73
637.971	51.74
638.303	51.71
638.635	51.72
638.967	51.75
639.299	51.73
639.631	51.75
639.963	51.8
640.295	51.83
640.626	51.87
640.958	51.91
641.29	51.98
641.621	52.04
641.953	52.07
642.285	52.12
642.616	52.13
642.948	52.17
643.279	52.17
643.61	52.21
643.942	52.25
644.273	52.26
644.604	52.3
644.936	52.38
645.267	52.43
645.598	52.49
645.929	52.55
646.26	52.61
646.591	52.64
646.922	52.67
647.253	52.73
647.584	52.78
647.915	52.82
648.245	52.82
648.576	52.86
648.907	52.87
649.238	52.86
649.568	52.89
649.899	52.95
650.229	53
650.56	53.02
650.89	53.06
651.221	53.11
651.551	53.14
651.882	53.14
652.212	53.15
652.542	53.15
652.872	53.16
653.203	53.18
653.533	53.21
653.863	53.23
654.193	53.24
654.523	53.26
654.853	53.28
655.183	53.33
655.513	53.36
655.843	53.4
656.172	53.49
656.502	53.55
656.832	53.56
657.162	53.63
657.491	53.7
657.821	53.73
658.15	53.77
658.48	53.78
658.809	53.78
659.139	53.82
659.468	53.87
659.798	53.86
660.127	53.91
660.456	53.98
660.785	54
661.115	54.03
661.444	54.02
661.773	54.03
662.102	54.02
662.431	54.01
662.76	54.01
663.089	53.99
663.418	53.97
663.747	54
664.076	53.95
664.404	53.92
664.733	53.91
665.062	53.89
665.39	53.93
665.719	53.96
666.048	53.98
666.376	53.97
666.705	54.01
667.033	54.01
667.362	54.02
667.69	54.02
668.018	54
668.347	54.08
668.675	54.11
669.003	54.15
669.331	54.15
669.659	54.19
669.987	54.24
670.315	54.25
670.643	54.28
670.971	54.33
671.299	54.34
671.627	54.36
671.955	54.39
672.283	54.38
672.61	54.4
672.938	54.46
673.266	54.51
673.593	54.56
673.921	54.61
674.249	54.59
674.576	54.67
674.904	54.77
675.231	54.78
675.558	54.83
675.886	54.88
676.213	54.96
676.54	54.98
676.867	55.02
677.195	55.07
677.522	55.11
677.849	55.13
678.176	55.18
678.503	55.26
678.83	55.28
679.157	55.36
679.484	55.42
679.81	55.41
680.137	55.45
680.464	55.45
680.791	55.44
681.117	55.48
681.444	55.49
681.771	55.47
682.097	55.53
682.424	55.53
682.75	55.55
683.077	55.55
683.403	55.58
683.729	55.58
684.056	55.63
684.382	55.65
684.708	55.68
685.034	55.73
685.36	55.73
685.686	55.81
686.012	55.84
686.339	55.85
686.664	55.87
686.99	55.87
687.316	55.91
687.642	55.95
687.968	56.01
688.294	56.01
688.619	56.08
688.945	56.06
689.271	56.07
689.596	56.07
689.922	56.14
690.247	56.15
690.573	56.19
690.898	56.18
691.224	56.25
691.549	56.29
691.874	56.24
692.2	56.26
692.525	56.27
692.85	56.28
693.175	56.31
693.5	56.36
693.825	56.4
694.15	56.42
694.475	56.4
694.8	56.34
695.125	56.38
695.45	56.36
695.775	56.37
696.099	56.39
696.424	56.47
696.749	56.45
697.073	56.49
697.398	56.5
697.723	56.51
698.047	56.5
698.372	56.5
698.696	56.56
699.02	56.57
699.345	56.53
699.669	56.51
699.993	56.48
700.318	56.47
700.642	56.48
700.966	56.47
701.29	56.48
701.614	56.5
701.938	56.47
702.262	56.46
702.586	56.46
702.91	56.43
703.234	56.35
703.557	56.32
703.881	56.29
704.205	56.27
704.529	56.24
704.852	56.18
705.176	56.16
705.499	56.17
705.823	56.14
706.146	56.19
706.47	56.17
706.793	56.2
707.117	56.23
707.44	56.17
707.763	56.16
708.086	56.23
708.409	56.23
708.733	56.25
709.056	56.28
709.379	56.36
709.702	56.36
710.025	56.4
710.348	56.45
710.671	56.43
710.993	56.49
711.316	56.5
711.639	56.54
711.962	56.58
712.284	56.56
712.607	56.61
712.93	56.64
713.252	56.73
713.575	56.76
713.897	56.76
714.22	56.86
714.542	56.85
714.864	56.84
715.187	56.96
715.509	57.04
715.831	57.07
716.153	57.11
716.475	57.19
716.798	57.21
717.12	57.22
717.442	57.27
717.764	57.26
718.085	57.32
718.407	57.33
718.729	57.38
719.051	57.41
719.373	57.39
719.695	57.4
720.016	57.32
720.338	57.34
720.659	57.35
720.981	57.31
721.302	57.36
721.624	57.4
721.945	57.29
722.267	57.23
722.588	57.19
722.909	57.14
723.231	57.14
723.552	57.2
723.873	57.21
724.194	57.27
724.515	57.29
724.836	57.27
725.157	57.27
725.478	57.21
725.799	57.31
726.12	57.38
726.441	57.39
726.762	57.49
727.083	57.5
727.403	57.57
727.724	57.56
728.045	57.63
728.365	57.62
728.686	57.72
729.006	57.68
729.327	57.7
729.647	57.72
729.967	57.72
730.288	57.63
730.608	57.65
730.928	57.65
731.249	57.63
731.569	57.65
731.889	57.7
732.209	57.74
732.529	57.66
732.849	57.63
733.169	57.59
733.489	57.49
733.809	57.47
734.129	57.44
734.448	57.51
734.768	57.42
735.088	57.4
735.408	57.36
735.727	57.4
736.047	57.43
736.366	57.36
736.686	57.32
737.005	57.33
737.325	57.28
737.644	57.22
737.963	57.17
738.283	57.19
738.602	57.13
738.921	57.05
739.24	57.04
739.56	57.03
739.879	57.06
740.198	57.1
740.517	57.12
740.836	57.11
741.155	57
741.473	57.02
741.792	56.95
742.111	56.89
742.43	56.86
742.748	56.8
743.067	56.84
743.386	56.78
743.704	56.75
744.023	56.86
744.341	56.77
744.66	56.7
744.978	56.65
745.297	56.66
745.615	56.71
745.933	56.67
746.252	56.62
746.57	56.58
746.888	56.6
747.206	56.56
747.524	56.52
747.842	56.59
748.16	56.59
748.478	56.66
748.796	56.69
749.114	56.66
749.432	56.72
749.749	56.71
750.067	56.8
750.385	56.85
750.703	56.74
751.02	56.8
751.338	56.98
751.655	57.05
751.973	57.01
752.29	57.05
752.608	57.06
752.925	57.06
753.242	57.06
753.56	57.04
753.877	57.04
754.194	57.1
754.511	57.09
754.828	57.08
755.145	57.11
755.462	57.16
755.779	57.29
756.096	57.41
756.413	57.5
756.73	57.56
757.047	57.67
757.364	57.83
757.68	57.91
757.997	57.98
758.314	57.99
758.63	58.11
758.947	58.19
759.264	58.32
759.58	58.54
759.896	58.7
760.213	58.83
760.529	58.91
760.846	58.92
761.162	59.04
761.478	59.15
761.794	59.22
762.11	59.25
762.426	59.3
762.743	59.3
763.059	59.37
763.375	59.39
763.69	59.37
764.006	59.31
764.322	59.32
764.638	59.27
764.954	59.26
765.27	59.21
765.585	59.14
765.901	59.13
766.216	59.01
766.532	58.89
766.848	58.74
767.163	58.72
767.478	58.64
767.794	58.5
768.109	58.38
768.424	58.24
768.74	58.21
769.055	58.1
769.37	57.95
769.685	57.82
770	57.73
770.315	57.65
770.63	57.52
770.945	57.46
771.26	57.44
771.575	57.42
771.89	57.42
772.205	57.48
772.52	57.34
772.834	57.3
773.149	57.3
773.464	57.35
773.778	57.39
774.093	57.46
774.407	57.47
774.722	57.57
775.036	57.55
775.351	57.47
775.665	57.41
775.979	57.45
776.293	57.4
776.608	57.39
776.922	57.39
777.236	57.38
777.55	57.46
777.864	57.46
778.178	57.35
778.492	57.39
778.806	57.29
779.12	57.42
779.434	57.51
779.747	57.49
780.061	57.51
780.375	57.39
780.689	57.37
781.002	57.46
781.316	57.45
781.629	57.49
781.943	57.52
782.256	57.59
782.57	57.63
782.883	57.64
783.196	57.65
783.51	57.69
783.823	57.9
784.136	57.92
784.449	57.84
784.762	57.94
785.075	57.88
785.388	57.98
785.701	57.98
786.014	58.08
786.327	58.25
786.64	58.41
786.953	58.46
787.266	58.53
787.578	58.53
787.891	58.54
788.204	58.7
788.516	58.79
788.829	58.85
789.141	58.93
789.454	58.94
789.766	58.89
790.079	58.92
790.391	58.98
790.703	58.96
791.016	59.03
791.328	59.13
791.64	59.24
791.952	59.21
792.264	59.26
792.576	59.25
792.888	59.27
793.2	59.22
793.512	59.32
793.824	59.36
794.136	59.32
794.448	59.4
794.76	59.36
795.071	59.41
795.383	59.34
795.695	59.18
796.006	59.27
796.318	59.44
796.629	59.51
796.941	59.33
797.252	59.34
797.564	59.42
797.875	59.37
798.186	59.3
798.497	59.34
798.809	59.39
799.12	59.38
799.431	59.23
799.742	59.32
800.053	59.39
800.364	59.35
800.675	59.42
800.986	59.44
801.297	59.48
801.608	59.41
801.918	59.47
802.229	59.53
802.54	59.52
802.851	59.49
803.161	59.5
803.472	59.52
803.782	59.43
804.093	59.38
804.403	59.31
804.714	59.39
805.024	59.42
805.334	59.34
805.645	59.32
805.955	59.56
806.265	59.46
806.575	59.31
806.885	59.31
807.195	59.22
807.505	59.08
807.815	59.2
808.125	59.23
808.435	59.15
808.745	59.28
809.055	59.32
809.365	59.4
809.674	59.36
809.984	59.47
810.294	59.72
810.603	59.77
810.913	60.03
811.222	60.12
811.532	60.16
811.841	60.15
812.151	60.21
812.46	60.18
812.769	60.16
813.079	60.37
813.388	60.31
813.697	60.54
814.006	60.77
814.315	60.71
814.624	60.84
814.933	61.08
815.242	61.11
815.551	61.07
815.86	61.09
816.169	61.26
816.478	61.24
816.786	61.31
817.095	61.35
817.404	61.13
817.712	61
818.021	60.9
818.33	61.02
818.638	61.03
818.947	61.02
819.255	61.23
819.563	61.38
819.872	61.53
820.18	61.53
820.488	61.54
820.796	61.66
821.105	61.69
821.413	61.76
821.721	61.8
822.029	61.9
822.337	61.95
822.645	61.97
822.953	62.06
823.26	62.03
823.568	62.05
823.876	62.08
824.184	62.09
824.491	62.09
824.799	62.06
825.107	62.12
825.414	62.11
825.722	62.14
826.029	62.1
826.337	62.07
826.644	62.09
826.951	62.11
827.259	62.05
827.566	62
827.873	61.95
828.18	61.86
828.488	61.72
828.795	61.7
829.102	61.57
829.409	61.47
829.716	61.41
830.023	61.41
830.329	61.4
830.636	61.4
830.943	61.56
831.25	61.59
831.557	61.54
831.863	61.59
832.17	61.5
832.476	61.53
832.783	61.68
833.089	61.63
833.396	61.68
833.702	61.7
834.009	61.75
834.315	61.77
834.621	61.89
834.928	62
835.234	61.92
835.54	61.92
835.846	61.88
836.152	61.93
836.458	61.79
836.764	61.84
837.07	61.85
837.376	61.72
837.682	61.73
837.988	61.72
838.293	61.87
838.599	61.84
838.905	61.79
839.211	61.57
839.516	61.66
839.822	61.61
840.127	61.47
840.433	61.68
840.738	61.73
841.044	61.81
841.349	61.67
841.654	61.85
841.959	61.98
842.265	62.06
842.57	62.1
842.875	62.15
843.18	61.87
843.485	61.96
843.79	61.71
844.095	61.83
844.4	61.38
844.705	61.05
845.01	61.16
845.315	61.09
845.619	61.42
845.924	61.06
846.229	60.68
846.533	60.73
846.838	60.36
847.142	59.95
847.447	59.76
847.751	59.91
848.056	59.55
848.36	59.29
848.664	59.13
848.969	59.16
849.273	59.42
849.577	59.9
849.881	59.6
850.185	59.81
850.489	59.79
850.794	60.56
851.097	60.69
851.401	60.7
851.705	60.84
852.009	60.35
852.313	60.41
852.617	60.35
852.92	60.59
853.224	60.42
853.528	60.58
853.831	60.59
854.135	60.57
854.438	60.61
854.742	60.62
855.045	60.78
855.349	60.68
855.652	60.4
855.955	60.04
856.259	60.41
856.562	60.48
856.865	60.11
857.168	59.68
857.471	59.49
857.774	59.04
858.077	58.6
858.38	58.83
858.683	58.82
858.986	59.08
859.289	58.91
859.592	58.8
859.894	58.46
860.197	58.74
860.5	58.85
860.802	59.22
861.105	59.54
861.407	59.77
861.71	59.86
862.012	60.41
862.315	60.24
862.617	59.69
862.919	59.83
863.222	60.1
863.524	60.36
863.826	60.03
864.128	60.1
864.43	60.65
864.732	60.62
865.034	60.92
865.336	60.98
865.638	60.87
865.94	60.82
866.242	60.94
866.544	60.57
866.846	60.66
867.147	60.42
867.449	60.2
867.751	59.69
868.052	59.66
868.354	59.45
868.655	60.13
868.957	60.84
869.258	61.15
869.56	61.17
869.861	60.92
870.162	61.32
870.463	61.32
870.765	61.32
871.066	61.37
871.367	61.7
871.668	61.92
871.969	62.31
872.27	62.46
872.571	62.88
872.872	63.54
873.173	63.54
873.473	64.04
873.774	64.5
874.075	64.9
874.376	64.84
874.676	64.62
874.977	64.11
875.277	63.92
875.578	63.44
875.878	63.45
876.179	63.73
876.479	63.88
876.78	64.23
877.08	64.14
877.38	64.35
877.68	63.88
877.981	63.96
878.281	64.03
878.581	64.5
