Data from UWBM37214_Reflection_00004.txt Node
Date: Sun May 02 14:03:43 EDT 2021
User: vgr7
Spectrometer: USB2G7710
Scans to average: 10
Trigger mode: 4
Integration Time (sec): 1.000000E-1
Electric dark correction enabled: true
Boxcar width: 20
XAxis mode: Wavelengths
Number of Pixels in Spectrum: 2048
>>>>>Begin Spectral Data<<<<<
177.721	351.32
178.105	559.32
178.488	-8970
178.871	1293.75
179.254	448.27
179.636	231.49
180.019	114.38
180.402	89.45
180.785	73.91
181.168	68.52
181.55	58.66
181.933	54.62
182.316	41.55
182.698	35.89
183.081	29.22
183.463	26.07
183.846	20.38
184.228	21.88
184.611	21.9
184.993	21.6
185.376	19.42
185.758	21.31
186.14	26.42
186.522	25.24
186.904	25.99
187.287	25.4
187.669	25.96
188.051	24.71
188.433	21.03
188.815	16.19
189.197	14.49
189.579	14.28
189.961	11.79
190.342	10.47
190.724	11.58
191.106	12.47
191.488	11.41
191.869	9.09
192.251	7.97
192.633	6.99
193.014	6.8
193.396	5.66
193.777	6.12
194.159	6.08
194.54	5.63
194.922	3.4
195.303	4.07
195.684	3.45
196.065	3.46
196.447	3.26
196.828	2.06
197.209	1.39
197.59	-0.77
197.971	-0.7
198.352	1.72
198.733	3.76
199.114	4.53
199.495	5.75
199.876	4.9
200.257	5.31
200.638	4.47
201.018	6.26
201.399	6.28
201.78	5.04
202.16	4.81
202.541	4.31
202.922	3.13
203.302	2.5
203.683	2.85
204.063	3.56
204.444	3.51
204.824	3.99
205.204	3.33
205.585	3.96
205.965	5.28
206.345	4.53
206.725	5.4
207.106	5.35
207.486	6.16
207.866	8.55
208.246	7.54
208.626	6.07
209.006	6.35
209.386	5.65
209.766	5.18
210.145	4.1
210.525	4.44
210.905	5.39
211.285	5.15
211.664	4.98
212.044	3.92
212.424	2.72
212.803	2.92
213.183	3.42
213.562	5.53
213.942	3.54
214.321	2.47
214.701	2.89
215.08	3.1
215.459	2.77
215.838	1.12
216.218	0.54
216.597	-1.38
216.976	-1.03
217.355	-0.81
217.734	-1.18
218.113	-1.8
218.492	-1.64
218.871	-1.51
219.25	-2.15
219.629	-2.93
220.008	-2.43
220.387	-3.49
220.766	-2.63
221.144	-2.57
221.523	-2.94
221.902	-3.3
222.28	-3.47
222.659	-3.16
223.037	-3.01
223.416	-3.12
223.794	-2.57
224.173	-1.91
224.551	-1.98
224.929	-0.71
225.308	-0.98
225.686	-0.97
226.064	-0.86
226.442	-0.79
226.821	-0.03
227.199	0.15
227.577	0.52
227.955	1.49
228.333	1.51
228.711	1.28
229.089	0.99
229.467	0.97
229.845	1.04
230.222	0.85
230.6	0.93
230.978	1.13
231.356	1.66
231.733	2.03
232.111	2.14
232.488	2.18
232.866	2.21
233.243	2.5
233.621	2.67
233.998	3.09
234.376	3.28
234.753	3.37
235.13	3.63
235.508	3.82
235.885	3.94
236.262	3.83
236.639	3.79
237.016	3.8
237.393	3.91
237.77	3.92
238.147	3.86
238.524	3.92
238.901	3.89
239.278	3.95
239.655	3.99
240.032	3.98
240.409	3.93
240.785	4.04
241.162	4.08
241.539	4.09
241.915	4.13
242.292	4.11
242.668	4.12
243.045	4.11
243.421	4.07
243.798	4.07
244.174	4.13
244.551	4.1
244.927	4.12
245.303	4.12
245.679	4.12
246.056	4.11
246.432	4.1
246.808	4.07
247.184	4.07
247.56	4.07
247.936	4.03
248.312	4.01
248.688	3.97
249.064	3.99
249.44	3.97
249.815	3.94
250.191	3.91
250.567	3.91
250.943	3.88
251.318	3.84
251.694	3.86
252.069	3.85
252.445	3.86
252.82	3.84
253.196	3.81
253.571	3.81
253.947	3.8
254.322	3.77
254.697	3.76
255.073	3.72
255.448	3.73
255.823	3.7
256.198	3.67
256.573	3.65
256.948	3.64
257.323	3.59
257.698	3.55
258.073	3.52
258.448	3.5
258.823	3.48
259.198	3.46
259.573	3.45
259.948	3.47
260.322	3.46
260.697	3.46
261.072	3.46
261.446	3.45
261.821	3.44
262.195	3.44
262.57	3.42
262.944	3.43
263.319	3.45
263.693	3.46
264.067	3.47
264.442	3.46
264.816	3.45
265.19	3.46
265.564	3.49
265.938	3.48
266.313	3.48
266.687	3.51
267.061	3.52
267.435	3.52
267.809	3.51
268.183	3.51
268.556	3.52
268.93	3.54
269.304	3.53
269.678	3.54
270.051	3.53
270.425	3.52
270.799	3.51
271.172	3.53
271.546	3.53
271.919	3.52
272.293	3.54
272.666	3.54
273.04	3.56
273.413	3.6
273.787	3.62
274.16	3.63
274.533	3.65
274.906	3.65
275.279	3.64
275.653	3.64
276.026	3.65
276.399	3.64
276.772	3.66
277.145	3.66
277.518	3.65
277.891	3.67
278.263	3.65
278.636	3.66
279.009	3.66
279.382	3.65
279.755	3.65
280.127	3.65
280.5	3.65
280.872	3.65
281.245	3.64
281.617	3.64
281.99	3.61
282.362	3.59
282.735	3.58
283.107	3.57
283.479	3.55
283.852	3.56
284.224	3.55
284.596	3.54
284.968	3.54
285.34	3.55
285.713	3.56
286.085	3.57
286.457	3.55
286.829	3.54
287.201	3.54
287.572	3.53
287.944	3.53
288.316	3.52
288.688	3.5
289.06	3.5
289.431	3.49
289.803	3.49
290.175	3.48
290.546	3.48
290.918	3.5
291.289	3.51
291.661	3.51
292.032	3.5
292.403	3.5
292.775	3.5
293.146	3.5
293.517	3.5
293.889	3.5
294.26	3.51
294.631	3.52
295.002	3.53
295.373	3.53
295.744	3.53
296.115	3.54
296.486	3.55
296.857	3.56
297.228	3.56
297.599	3.57
297.97	3.57
298.34	3.58
298.711	3.59
299.082	3.58
299.452	3.59
299.823	3.58
300.194	3.58
300.564	3.56
300.935	3.57
301.305	3.56
301.676	3.58
302.046	3.57
302.416	3.58
302.787	3.57
303.157	3.56
303.527	3.55
303.897	3.55
304.267	3.54
304.637	3.54
305.008	3.54
305.378	3.53
305.748	3.54
306.117	3.52
306.487	3.52
306.857	3.52
307.227	3.51
307.597	3.51
307.967	3.5
308.336	3.5
308.706	3.5
309.076	3.49
309.445	3.48
309.815	3.46
310.184	3.44
310.554	3.43
310.923	3.43
311.293	3.42
311.662	3.4
312.031	3.41
312.401	3.42
312.77	3.41
313.139	3.41
313.508	3.41
313.877	3.41
314.246	3.42
314.616	3.41
314.985	3.43
315.353	3.44
315.722	3.44
316.091	3.43
316.46	3.42
316.829	3.42
317.198	3.43
317.567	3.43
317.935	3.43
318.304	3.43
318.672	3.42
319.041	3.42
319.41	3.41
319.778	3.42
320.147	3.4
320.515	3.4
320.883	3.38
321.252	3.36
321.62	3.34
321.988	3.34
322.357	3.34
322.725	3.33
323.093	3.34
323.461	3.33
323.829	3.32
324.197	3.32
324.565	3.31
324.933	3.32
325.301	3.32
325.669	3.32
326.037	3.31
326.405	3.32
326.772	3.31
327.14	3.3
327.508	3.29
327.875	3.27
328.243	3.26
328.61	3.26
328.978	3.26
329.346	3.24
329.713	3.25
330.08	3.23
330.448	3.2
330.815	3.21
331.182	3.2
331.55	3.2
331.917	3.19
332.284	3.17
332.651	3.15
333.018	3.15
333.385	3.14
333.752	3.15
334.119	3.14
334.486	3.13
334.853	3.13
335.22	3.14
335.587	3.13
335.954	3.11
336.32	3.11
336.687	3.12
337.054	3.12
337.42	3.13
337.787	3.13
338.153	3.14
338.52	3.12
338.886	3.11
339.253	3.11
339.619	3.12
339.986	3.11
340.352	3.11
340.718	3.1
341.084	3.11
341.451	3.1
341.817	3.1
342.183	3.11
342.549	3.11
342.915	3.11
343.281	3.12
343.647	3.11
344.013	3.1
344.379	3.11
344.745	3.11
345.11	3.11
345.476	3.12
345.842	3.12
346.208	3.12
346.573	3.12
346.939	3.12
347.304	3.13
347.67	3.14
348.035	3.15
348.401	3.15
348.766	3.15
349.132	3.16
349.497	3.17
349.862	3.17
350.228	3.16
350.593	3.16
350.958	3.18
351.323	3.19
351.688	3.2
352.053	3.2
352.418	3.19
352.783	3.19
353.148	3.19
353.513	3.2
353.878	3.21
354.243	3.22
354.608	3.21
354.972	3.22
355.337	3.21
355.702	3.22
356.066	3.23
356.431	3.22
356.795	3.23
357.16	3.21
357.524	3.22
357.889	3.22
358.253	3.22
358.618	3.22
358.982	3.22
359.346	3.22
359.71	3.23
360.075	3.23
360.439	3.23
360.803	3.22
361.167	3.22
361.531	3.22
361.895	3.22
362.259	3.22
362.623	3.21
362.987	3.21
363.351	3.21
363.714	3.21
364.078	3.21
364.442	3.2
364.806	3.21
365.169	3.21
365.533	3.21
365.896	3.21
366.26	3.21
366.623	3.2
366.987	3.19
367.35	3.2
367.714	3.2
368.077	3.2
368.44	3.2
368.803	3.19
369.167	3.19
369.53	3.19
369.893	3.18
370.256	3.18
370.619	3.17
370.982	3.17
371.345	3.17
371.708	3.17
372.071	3.18
372.434	3.18
372.797	3.19
373.159	3.19
373.522	3.2
373.885	3.2
374.247	3.2
374.61	3.19
374.973	3.18
375.335	3.18
375.698	3.18
376.06	3.18
376.423	3.18
376.785	3.18
377.147	3.19
377.51	3.19
377.872	3.18
378.234	3.18
378.596	3.18
378.958	3.18
379.321	3.18
379.683	3.19
380.045	3.19
380.407	3.19
380.769	3.19
381.13	3.19
381.492	3.19
381.854	3.2
382.216	3.2
382.578	3.2
382.939	3.2
383.301	3.2
383.663	3.2
384.024	3.2
384.386	3.21
384.747	3.22
385.109	3.22
385.47	3.22
385.832	3.21
386.193	3.21
386.554	3.21
386.916	3.21
387.277	3.2
387.638	3.2
387.999	3.2
388.36	3.19
388.721	3.19
389.082	3.19
389.443	3.19
389.804	3.19
390.165	3.19
390.526	3.19
390.887	3.19
391.248	3.19
391.609	3.19
391.969	3.2
392.33	3.2
392.691	3.2
393.051	3.2
393.412	3.21
393.772	3.21
394.133	3.21
394.493	3.21
394.854	3.21
395.214	3.21
395.574	3.21
395.935	3.21
396.295	3.21
396.655	3.2
397.015	3.21
397.376	3.2
397.736	3.21
398.096	3.21
398.456	3.2
398.816	3.21
399.176	3.2
399.535	3.2
399.895	3.21
400.255	3.21
400.615	3.22
400.975	3.22
401.334	3.22
401.694	3.23
402.054	3.23
402.413	3.23
402.773	3.24
403.132	3.24
403.492	3.25
403.851	3.25
404.211	3.25
404.57	3.26
404.929	3.26
405.288	3.26
405.648	3.27
406.007	3.27
406.366	3.27
406.725	3.27
407.084	3.27
407.443	3.27
407.802	3.28
408.161	3.28
408.52	3.27
408.879	3.28
409.238	3.28
409.596	3.28
409.955	3.29
410.314	3.29
410.673	3.3
411.031	3.31
411.39	3.31
411.748	3.31
412.107	3.32
412.465	3.33
412.824	3.36
413.182	3.38
413.54	3.41
413.899	3.44
414.257	3.47
414.615	3.5
414.974	3.53
415.332	3.57
415.69	3.6
416.048	3.63
416.406	3.67
416.764	3.69
417.122	3.72
417.48	3.75
417.838	3.78
418.195	3.8
418.553	3.82
418.911	3.84
419.269	3.84
419.626	3.84
419.984	3.84
420.342	3.84
420.699	3.83
421.057	3.81
421.414	3.8
421.772	3.79
422.129	3.78
422.486	3.78
422.844	3.78
423.201	3.78
423.558	3.78
423.915	3.78
424.273	3.78
424.63	3.79
424.987	3.79
425.344	3.79
425.701	3.79
426.058	3.79
426.415	3.79
426.772	3.79
427.128	3.79
427.485	3.78
427.842	3.77
428.199	3.76
428.555	3.75
428.912	3.73
429.269	3.7
429.625	3.68
429.982	3.66
430.338	3.63
430.695	3.62
431.051	3.59
431.407	3.57
431.764	3.55
432.12	3.54
432.476	3.53
432.832	3.52
433.189	3.52
433.545	3.53
433.901	3.54
434.257	3.56
434.613	3.58
434.969	3.6
435.325	3.63
435.681	3.66
436.036	3.68
436.392	3.7
436.748	3.72
437.104	3.73
437.459	3.75
437.815	3.76
438.171	3.78
438.526	3.8
438.882	3.83
439.237	3.86
439.593	3.9
439.948	3.92
440.304	3.95
440.659	3.98
441.014	3.99
441.369	4.02
441.725	4.04
442.08	4.06
442.435	4.07
442.79	4.08
443.145	4.08
443.5	4.08
443.855	4.08
444.21	4.09
444.565	4.09
444.92	4.08
445.275	4.08
445.629	4.07
445.984	4.06
446.339	4.05
446.693	4.04
447.048	4.02
447.403	4.01
447.757	3.99
448.112	3.98
448.466	3.96
448.82	3.94
449.175	3.91
449.529	3.9
449.883	3.88
450.238	3.86
450.592	3.86
450.946	3.85
451.3	3.85
451.654	3.85
452.008	3.85
452.362	3.86
452.716	3.86
453.07	3.87
453.424	3.86
453.778	3.86
454.132	3.85
454.486	3.84
454.839	3.83
455.193	3.81
455.547	3.8
455.9	3.78
456.254	3.76
456.607	3.74
456.961	3.71
457.314	3.7
457.668	3.69
458.021	3.68
458.375	3.68
458.728	3.67
459.081	3.68
459.434	3.68
459.787	3.69
460.141	3.7
460.494	3.7
460.847	3.71
461.2	3.72
461.553	3.72
461.906	3.72
462.259	3.73
462.611	3.73
462.964	3.73
463.317	3.74
463.67	3.74
464.022	3.75
464.375	3.75
464.728	3.75
465.08	3.76
465.433	3.76
465.785	3.75
466.138	3.74
466.49	3.72
466.843	3.7
467.195	3.68
467.547	3.66
467.899	3.64
468.252	3.61
468.604	3.59
468.956	3.57
469.308	3.55
469.66	3.55
470.012	3.54
470.364	3.54
470.716	3.54
471.068	3.55
471.42	3.56
471.772	3.58
472.123	3.59
472.475	3.6
472.827	3.6
473.178	3.61
473.53	3.62
473.882	3.63
474.233	3.65
474.585	3.68
474.936	3.73
475.288	3.81
475.639	3.91
475.99	4.03
476.342	4.16
476.693	4.3
477.044	4.45
477.395	4.59
477.746	4.75
478.097	4.9
478.448	5.05
478.8	5.2
479.15	5.34
479.501	5.48
479.852	5.6
480.203	5.72
480.554	5.83
480.905	5.93
481.255	6.04
481.606	6.13
481.957	6.22
482.307	6.31
482.658	6.39
483.009	6.47
483.359	6.55
483.709	6.62
484.06	6.69
484.41	6.76
484.761	6.83
485.111	6.9
485.461	6.96
485.811	7.02
486.162	7.07
486.512	7.12
486.862	7.16
487.212	7.18
487.562	7.2
487.912	7.21
488.262	7.21
488.612	7.21
488.961	7.19
489.311	7.15
489.661	7.09
490.011	7.01
490.36	6.92
490.71	6.81
491.06	6.69
491.409	6.57
491.759	6.44
492.108	6.3
492.458	6.16
492.807	6.01
493.157	5.87
493.506	5.73
493.855	5.59
494.204	5.46
494.554	5.34
494.903	5.22
495.252	5.11
495.601	5.01
495.95	4.9
496.299	4.81
496.648	4.71
496.997	4.63
497.346	4.54
497.695	4.46
498.043	4.38
498.392	4.3
498.741	4.23
499.09	4.16
499.438	4.09
499.787	4.02
500.135	3.96
500.484	3.91
500.832	3.86
501.181	3.82
501.529	3.8
501.878	3.78
502.226	3.77
502.574	3.77
502.923	3.76
503.271	3.76
503.619	3.76
503.967	3.75
504.315	3.75
504.663	3.74
505.011	3.74
505.359	3.73
505.707	3.72
506.055	3.72
506.403	3.72
506.751	3.72
507.098	3.72
507.446	3.72
507.794	3.72
508.141	3.72
508.489	3.73
508.837	3.74
509.184	3.75
509.531	3.76
509.879	3.76
510.226	3.77
510.574	3.79
510.921	3.8
511.268	3.82
511.616	3.84
511.963	3.85
512.31	3.88
512.657	3.89
513.004	3.91
513.351	3.93
513.698	3.94
514.045	3.94
514.392	3.95
514.739	3.95
515.086	3.94
515.432	3.94
515.779	3.94
516.126	3.93
516.473	3.93
516.819	3.93
517.166	3.93
517.512	3.94
517.859	3.95
518.205	3.96
518.552	3.98
518.898	4
519.245	4.04
519.591	4.09
519.937	4.14
520.283	4.22
520.629	4.3
520.976	4.4
521.322	4.5
521.668	4.6
522.014	4.71
522.36	4.82
522.706	4.92
523.052	5.02
523.398	5.11
523.743	5.19
524.089	5.27
524.435	5.33
524.781	5.38
525.126	5.43
525.472	5.48
525.817	5.53
526.163	5.57
526.509	5.6
526.854	5.64
527.199	5.68
527.545	5.72
527.89	5.75
528.235	5.79
528.581	5.83
528.926	5.87
529.271	5.9
529.616	5.93
529.961	5.96
530.306	5.98
530.651	6
530.996	6.02
531.341	6.03
531.686	6.03
532.031	6.04
532.376	6.04
532.721	6.04
533.065	6.04
533.41	6.05
533.755	6.04
534.099	6.03
534.444	6
534.788	5.97
535.133	5.93
535.477	5.89
535.822	5.85
536.166	5.8
536.51	5.74
536.855	5.67
537.199	5.6
537.543	5.54
537.887	5.48
538.231	5.42
538.576	5.37
538.92	5.32
539.264	5.27
539.608	5.22
539.951	5.16
540.295	5.11
540.639	5.05
540.983	5
541.327	4.94
541.671	4.88
542.014	4.83
542.358	4.78
542.701	4.74
543.045	4.71
543.389	4.68
543.732	4.66
544.075	4.64
544.419	4.63
544.762	4.61
545.105	4.6
545.449	4.59
545.792	4.58
546.135	4.57
546.478	4.56
546.821	4.54
547.165	4.51
547.508	4.48
547.851	4.44
548.194	4.4
548.536	4.34
548.879	4.28
549.222	4.22
549.565	4.16
549.908	4.1
550.25	4.04
550.593	3.99
550.936	3.94
551.278	3.91
551.621	3.88
551.963	3.85
552.306	3.82
552.648	3.81
552.991	3.79
553.333	3.78
553.675	3.77
554.017	3.76
554.36	3.76
554.702	3.77
555.044	3.77
555.386	3.78
555.728	3.8
556.07	3.81
556.412	3.83
556.754	3.83
557.096	3.83
557.438	3.84
557.78	3.84
558.121	3.83
558.463	3.83
558.805	3.84
559.147	3.84
559.488	3.84
559.83	3.84
560.171	3.84
560.513	3.84
560.854	3.84
561.196	3.84
561.537	3.84
561.878	3.84
562.22	3.84
562.561	3.84
562.902	3.84
563.243	3.84
563.584	3.85
563.925	3.85
564.266	3.84
564.607	3.85
564.948	3.85
565.289	3.85
565.63	3.85
565.971	3.86
566.312	3.86
566.653	3.86
566.993	3.86
567.334	3.87
567.675	3.87
568.015	3.88
568.356	3.88
568.696	3.88
569.037	3.88
569.377	3.88
569.718	3.88
570.058	3.88
570.398	3.88
570.739	3.88
571.079	3.88
571.419	3.88
571.759	3.88
572.099	3.88
572.439	3.88
572.779	3.88
573.119	3.88
573.459	3.88
573.799	3.88
574.139	3.88
574.479	3.87
574.819	3.88
575.158	3.88
575.498	3.87
575.838	3.87
576.177	3.87
576.517	3.87
576.856	3.88
577.196	3.88
577.535	3.88
577.875	3.87
578.214	3.88
578.553	3.88
578.893	3.88
579.232	3.88
579.571	3.88
579.91	3.88
580.25	3.87
580.589	3.87
580.928	3.86
581.267	3.86
581.606	3.86
581.945	3.85
582.283	3.85
582.622	3.86
582.961	3.86
583.3	3.86
583.639	3.86
583.977	3.86
584.316	3.86
584.654	3.86
584.993	3.86
585.332	3.86
585.67	3.86
586.008	3.86
586.347	3.87
586.685	3.87
587.024	3.87
587.362	3.87
587.7	3.87
588.038	3.88
588.376	3.88
588.715	3.87
589.053	3.87
589.391	3.88
589.729	3.88
590.067	3.89
590.404	3.89
590.742	3.89
591.08	3.89
591.418	3.89
591.756	3.9
592.093	3.9
592.431	3.91
592.769	3.91
593.106	3.91
593.444	3.91
593.781	3.91
594.119	3.92
594.456	3.92
594.793	3.92
595.131	3.92
595.468	3.92
595.805	3.93
596.143	3.92
596.48	3.92
596.817	3.92
597.154	3.92
597.491	3.93
597.828	3.93
598.165	3.93
598.502	3.93
598.839	3.93
599.176	3.94
599.512	3.94
599.849	3.94
600.186	3.94
600.523	3.94
600.859	3.94
601.196	3.94
601.532	3.95
601.869	3.94
602.205	3.95
602.542	3.95
602.878	3.95
603.215	3.95
603.551	3.94
603.887	3.95
604.223	3.94
604.56	3.95
604.896	3.94
605.232	3.95
605.568	3.95
605.904	3.95
606.24	3.95
606.576	3.95
606.912	3.95
607.248	3.95
607.583	3.94
607.919	3.94
608.255	3.95
608.591	3.95
608.926	3.95
609.262	3.95
609.597	3.95
609.933	3.95
610.268	3.95
610.604	3.95
610.939	3.95
611.275	3.95
611.61	3.96
611.945	3.96
612.281	3.96
612.616	3.96
612.951	3.96
613.286	3.95
613.621	3.95
613.956	3.96
614.291	3.96
614.626	3.96
614.961	3.96
615.296	3.96
615.631	3.97
615.966	3.97
616.3	3.97
616.635	3.97
616.97	3.97
617.304	3.98
617.639	3.98
617.973	3.98
618.308	3.97
618.642	3.97
618.977	3.97
619.311	3.97
619.646	3.97
619.98	3.98
620.314	3.98
620.648	3.98
620.983	3.98
621.317	3.99
621.651	3.99
621.985	4
622.319	4
622.653	4.01
622.987	4.01
623.321	4.01
623.655	4.02
623.988	4.02
624.322	4.03
624.656	4.03
624.99	4.04
625.323	4.04
625.657	4.04
625.99	4.04
626.324	4.04
626.657	4.04
626.991	4.04
627.324	4.05
627.658	4.05
627.991	4.05
628.324	4.05
628.657	4.05
628.991	4.06
629.324	4.06
629.657	4.06
629.99	4.06
630.323	4.06
630.656	4.07
630.989	4.07
631.322	4.07
631.655	4.08
631.987	4.08
632.32	4.09
632.653	4.09
632.986	4.1
633.318	4.1
633.651	4.11
633.984	4.12
634.316	4.12
634.649	4.12
634.981	4.12
635.313	4.12
635.646	4.12
635.978	4.12
636.31	4.12
636.643	4.13
636.975	4.13
637.307	4.13
637.639	4.14
637.971	4.14
638.303	4.13
638.635	4.14
638.967	4.14
639.299	4.14
639.631	4.14
639.963	4.15
640.295	4.15
640.626	4.16
640.958	4.17
641.29	4.17
641.621	4.17
641.953	4.18
642.285	4.18
642.616	4.19
642.948	4.19
643.279	4.2
643.61	4.2
643.942	4.21
644.273	4.22
644.604	4.23
644.936	4.23
645.267	4.23
645.598	4.23
645.929	4.23
646.26	4.23
646.591	4.23
646.922	4.23
647.253	4.23
647.584	4.23
647.915	4.23
648.245	4.22
648.576	4.23
648.907	4.24
649.238	4.24
649.568	4.24
649.899	4.24
650.229	4.24
650.56	4.24
650.89	4.24
651.221	4.23
651.551	4.24
651.882	4.25
652.212	4.25
652.542	4.26
652.872	4.26
653.203	4.27
653.533	4.27
653.863	4.27
654.193	4.27
654.523	4.27
654.853	4.28
655.183	4.29
655.513	4.3
655.843	4.3
656.172	4.29
656.502	4.3
656.832	4.3
657.162	4.3
657.491	4.3
657.821	4.3
658.15	4.3
658.48	4.31
658.809	4.31
659.139	4.31
659.468	4.32
659.798	4.32
660.127	4.33
660.456	4.34
660.785	4.34
661.115	4.35
661.444	4.36
661.773	4.38
662.102	4.38
662.431	4.38
662.76	4.39
663.089	4.39
663.418	4.4
663.747	4.41
664.076	4.42
664.404	4.43
664.733	4.44
665.062	4.44
665.39	4.44
665.719	4.45
666.048	4.46
666.376	4.46
666.705	4.46
667.033	4.47
667.362	4.48
667.69	4.48
668.018	4.49
668.347	4.49
668.675	4.49
669.003	4.5
669.331	4.5
669.659	4.5
669.987	4.5
670.315	4.5
670.643	4.51
670.971	4.51
671.299	4.52
671.627	4.53
671.955	4.53
672.283	4.53
672.61	4.54
672.938	4.54
673.266	4.54
673.593	4.54
673.921	4.54
674.249	4.55
674.576	4.55
674.904	4.54
675.231	4.54
675.558	4.54
675.886	4.55
676.213	4.55
676.54	4.56
676.867	4.56
677.195	4.55
677.522	4.55
677.849	4.55
678.176	4.56
678.503	4.56
678.83	4.56
679.157	4.57
679.484	4.57
679.81	4.58
680.137	4.57
680.464	4.58
680.791	4.59
681.117	4.6
681.444	4.59
681.771	4.59
682.097	4.6
682.424	4.6
682.75	4.6
683.077	4.61
683.403	4.62
683.729	4.62
684.056	4.62
684.382	4.63
684.708	4.63
685.034	4.64
685.36	4.64
685.686	4.65
686.012	4.65
686.339	4.66
686.664	4.66
686.99	4.67
687.316	4.67
687.642	4.68
687.968	4.69
688.294	4.7
688.619	4.7
688.945	4.71
689.271	4.72
689.596	4.72
689.922	4.72
690.247	4.73
690.573	4.74
690.898	4.75
691.224	4.76
691.549	4.76
691.874	4.77
692.2	4.79
692.525	4.8
692.85	4.81
693.175	4.82
693.5	4.84
693.825	4.83
694.15	4.83
694.475	4.84
694.8	4.84
695.125	4.84
695.45	4.85
695.775	4.86
696.099	4.87
696.424	4.86
696.749	4.87
697.073	4.88
697.398	4.89
697.723	4.91
698.047	4.91
698.372	4.91
698.696	4.92
699.02	4.93
699.345	4.94
699.669	4.94
699.993	4.96
700.318	4.96
700.642	4.97
700.966	4.97
701.29	4.98
701.614	4.99
701.938	4.99
702.262	5.01
702.586	5.01
702.91	5.02
703.234	5.01
703.557	5.03
703.881	5.05
704.205	5.05
704.529	5.06
704.852	5.07
705.176	5.08
705.499	5.06
705.823	5.06
706.146	5.07
706.47	5.08
706.793	5.08
707.117	5.09
707.44	5.09
707.763	5.1
708.086	5.11
708.409	5.12
708.733	5.13
709.056	5.13
709.379	5.14
709.702	5.16
710.025	5.16
710.348	5.16
710.671	5.16
710.993	5.15
711.316	5.16
711.639	5.16
711.962	5.17
712.284	5.19
712.607	5.19
712.93	5.19
713.252	5.19
713.575	5.19
713.897	5.19
714.22	5.18
714.542	5.19
714.864	5.17
715.187	5.19
715.509	5.19
715.831	5.2
716.153	5.21
716.475	5.23
716.798	5.21
717.12	5.2
717.442	5.22
717.764	5.22
718.085	5.23
718.407	5.23
718.729	5.25
719.051	5.26
719.373	5.26
719.695	5.24
720.016	5.25
720.338	5.27
720.659	5.27
720.981	5.28
721.302	5.27
721.624	5.29
721.945	5.28
722.267	5.29
722.588	5.31
722.909	5.3
723.231	5.32
723.552	5.31
723.873	5.33
724.194	5.35
724.515	5.37
724.836	5.37
725.157	5.37
725.478	5.36
725.799	5.39
726.12	5.41
726.441	5.41
726.762	5.43
727.083	5.43
727.403	5.45
727.724	5.45
728.045	5.48
728.365	5.49
728.686	5.5
729.006	5.51
729.327	5.52
729.647	5.51
729.967	5.54
730.288	5.54
730.608	5.55
730.928	5.56
731.249	5.57
731.569	5.56
731.889	5.56
732.209	5.57
732.529	5.56
732.849	5.59
733.169	5.6
733.489	5.62
733.809	5.63
734.129	5.65
734.448	5.68
734.768	5.69
735.088	5.71
735.408	5.7
735.727	5.69
736.047	5.7
736.366	5.71
736.686	5.72
737.005	5.73
737.325	5.73
737.644	5.73
737.963	5.74
738.283	5.74
738.602	5.76
738.921	5.75
739.24	5.75
739.56	5.76
739.879	5.76
740.198	5.78
740.517	5.79
740.836	5.78
741.155	5.79
741.473	5.79
741.792	5.8
742.111	5.8
742.43	5.8
742.748	5.83
743.067	5.85
743.386	5.88
743.704	5.88
744.023	5.88
744.341	5.86
744.66	5.88
744.978	5.9
745.297	5.93
745.615	5.96
745.933	5.99
746.252	6
746.57	6
746.888	6.02
747.206	6.02
747.524	6.01
747.842	6.02
748.16	6.03
748.478	6.04
748.796	6.05
749.114	6.07
749.432	6.07
749.749	6.09
750.067	6.09
750.385	6.12
750.703	6.14
751.02	6.14
751.338	6.16
751.655	6.18
751.973	6.19
752.29	6.2
752.608	6.2
752.925	6.2
753.242	6.22
753.56	6.23
753.877	6.28
754.194	6.27
754.511	6.25
754.828	6.25
755.145	6.26
755.462	6.29
755.779	6.32
756.096	6.32
756.413	6.29
756.73	6.3
757.047	6.27
757.364	6.28
757.68	6.29
757.997	6.29
758.314	6.31
758.63	6.31
758.947	6.31
759.264	6.32
759.58	6.29
759.896	6.3
760.213	6.29
760.529	6.32
760.846	6.32
761.162	6.35
761.478	6.38
761.794	6.4
762.11	6.4
762.426	6.43
762.743	6.41
763.059	6.42
763.375	6.4
763.69	6.42
764.006	6.44
764.322	6.45
764.638	6.45
764.954	6.45
765.27	6.45
765.585	6.45
765.901	6.48
766.216	6.47
766.532	6.46
766.848	6.46
767.163	6.47
767.478	6.49
767.794	6.51
768.109	6.5
768.424	6.48
768.74	6.47
769.055	6.47
769.37	6.48
769.685	6.5
770	6.53
770.315	6.56
770.63	6.58
770.945	6.6
771.26	6.57
771.575	6.58
771.89	6.6
772.205	6.6
772.52	6.62
772.834	6.63
773.149	6.68
773.464	6.65
773.778	6.67
774.093	6.64
774.407	6.64
774.722	6.65
775.036	6.66
775.351	6.67
775.665	6.7
775.979	6.7
776.293	6.69
776.608	6.72
776.922	6.71
777.236	6.69
777.55	6.7
777.864	6.75
778.178	6.79
778.492	6.83
778.806	6.84
779.12	6.85
779.434	6.89
779.747	6.89
780.061	6.89
780.375	6.9
780.689	6.9
781.002	6.9
781.316	6.89
781.629	6.91
781.943	6.93
782.256	6.95
782.57	6.96
782.883	6.97
783.196	6.96
783.51	7.01
783.823	7.01
784.136	7.03
784.449	7.03
784.762	7.02
785.075	7
785.388	7.01
785.701	6.97
786.014	7
786.327	7.05
786.64	7.05
786.953	7.1
787.266	7.11
787.578	7.13
787.891	7.16
788.204	7.16
788.516	7.17
788.829	7.18
789.141	7.23
789.454	7.21
789.766	7.22
790.079	7.26
790.391	7.29
790.703	7.32
791.016	7.28
791.328	7.28
791.64	7.28
791.952	7.32
792.264	7.27
792.576	7.27
792.888	7.24
793.2	7.26
793.512	7.31
793.824	7.33
794.136	7.35
794.448	7.34
794.76	7.38
795.071	7.36
795.383	7.39
795.695	7.4
796.006	7.39
796.318	7.36
796.629	7.36
796.941	7.34
797.252	7.39
797.564	7.4
797.875	7.45
798.186	7.5
798.497	7.54
798.809	7.48
799.12	7.49
799.431	7.5
799.742	7.5
800.053	7.54
800.364	7.56
800.675	7.55
800.986	7.52
801.297	7.53
801.608	7.57
801.918	7.55
802.229	7.54
802.54	7.55
802.851	7.52
803.161	7.49
803.472	7.49
803.782	7.49
804.093	7.49
804.403	7.5
804.714	7.5
805.024	7.58
805.334	7.6
805.645	7.67
805.955	7.64
806.265	7.64
806.575	7.66
806.885	7.67
807.195	7.72
807.505	7.74
807.815	7.83
808.125	7.85
808.435	7.87
808.745	7.86
809.055	7.88
809.365	7.9
809.674	7.95
809.984	7.91
810.294	7.94
810.603	7.9
810.913	7.88
811.222	7.9
811.532	7.93
811.841	7.95
812.151	7.98
812.46	7.94
812.769	7.89
813.079	7.89
813.388	7.9
813.697	7.95
814.006	7.95
814.315	7.93
814.624	7.98
814.933	8.01
815.242	8.06
815.551	8.07
815.86	8.08
816.169	8.07
816.478	8.14
816.786	8.13
817.095	8.11
817.404	8.07
817.712	8.07
818.021	8.07
818.33	8.07
818.638	8.12
818.947	8.12
819.255	8.1
819.563	8.12
819.872	8.12
820.18	8.14
820.488	8.13
820.796	8.12
821.105	8.13
821.413	8.15
821.721	8.17
822.029	8.18
822.337	8.17
822.645	8.17
822.953	8.19
823.26	8.2
823.568	8.22
823.876	8.23
824.184	8.24
824.491	8.23
824.799	8.23
825.107	8.25
825.414	8.27
825.722	8.27
826.029	8.28
826.337	8.29
826.644	8.31
826.951	8.31
827.259	8.32
827.566	8.32
827.873	8.31
828.18	8.33
828.488	8.34
828.795	8.36
829.102	8.33
829.409	8.36
829.716	8.4
830.023	8.43
830.329	8.44
830.636	8.48
830.943	8.5
831.25	8.51
831.557	8.53
831.863	8.59
832.17	8.61
832.476	8.62
832.783	8.62
833.089	8.61
833.396	8.62
833.702	8.62
834.009	8.65
834.315	8.66
834.621	8.69
834.928	8.72
835.234	8.73
835.54	8.71
835.846	8.7
836.152	8.66
836.458	8.68
836.764	8.69
837.07	8.74
837.376	8.72
837.682	8.72
837.988	8.68
838.293	8.69
838.599	8.69
838.905	8.61
839.211	8.6
839.516	8.62
839.822	8.63
840.127	8.68
840.433	8.71
840.738	8.74
841.044	8.74
841.349	8.7
841.654	8.74
841.959	8.76
842.265	8.76
842.57	8.76
842.875	8.78
843.18	8.7
843.485	8.72
843.79	8.81
844.095	8.76
844.4	8.86
844.705	8.92
845.01	8.88
845.315	8.86
845.619	8.89
845.924	8.93
846.229	8.94
846.533	9.03
846.838	9.03
847.142	9
847.447	9.09
847.751	9.18
848.056	9.3
848.36	9.33
848.664	9.41
848.969	9.51
849.273	9.51
849.577	9.5
849.881	9.68
850.185	9.82
850.489	9.75
850.794	9.86
851.097	10.02
851.401	10.23
851.705	10.24
852.009	10.4
852.313	10.41
852.617	10.39
852.92	10.35
853.224	10.34
853.528	10.25
853.831	10.29
854.135	10.32
854.438	10.28
854.742	10.23
855.045	10.16
855.349	10.4
855.652	10.56
855.955	10.64
856.259	10.64
856.562	10.69
856.865	10.58
857.168	10.49
857.471	10.66
857.774	10.69
858.077	10.7
858.38	10.8
858.683	10.87
858.986	10.86
859.289	10.76
859.592	10.81
859.894	10.75
860.197	10.79
860.5	10.77
860.802	10.94
861.105	10.99
861.407	10.93
861.71	10.94
862.012	11.1
862.315	11.05
862.617	11.03
862.919	11.15
863.222	11.11
863.524	10.95
863.826	10.93
864.128	10.89
864.43	10.71
864.732	10.62
865.034	10.58
865.336	10.58
865.638	10.52
865.94	10.61
866.242	10.77
866.544	10.84
866.846	10.93
867.147	10.93
867.449	10.99
867.751	10.71
868.052	10.62
868.354	10.61
868.655	10.59
868.957	10.51
869.258	10.63
869.56	10.63
869.861	10.67
870.162	10.73
870.463	10.9
870.765	10.93
871.066	11.01
871.367	10.84
871.668	10.9
871.969	10.92
872.27	10.8
872.571	10.75
872.872	10.77
873.173	10.74
873.473	10.72
873.774	10.72
874.075	10.81
874.376	10.69
874.676	10.59
874.977	10.61
875.277	10.67
875.578	10.7
875.878	10.73
876.179	10.65
876.479	10.7
876.78	10.87
877.08	10.98
877.38	10.96
877.68	11.1
877.981	11.15
878.281	11.25
878.581	11.19
