Data from UWBM122453_Reflection_00014.txt Node
Date: Sun May 02 12:46:00 EDT 2021
User: vgr7
Spectrometer: USB2G7710
Scans to average: 10
Trigger mode: 4
Integration Time (sec): 1.000000E-1
Electric dark correction enabled: true
Boxcar width: 20
XAxis mode: Wavelengths
Number of Pixels in Spectrum: 2048
>>>>>Begin Spectral Data<<<<<
177.721	98.69
178.105	99.83
178.488	100.34
178.871	100.17
179.254	99.41
179.636	97.75
180.019	94.81
180.402	93.65
180.785	91.15
181.168	88.77
181.55	86.61
181.933	111.02
182.316	112.83
182.698	113.26
183.081	112.47
183.463	112.8
183.846	115.54
184.228	117.75
184.611	118.53
184.993	122.57
185.376	125.54
185.758	-69.67
186.14	-23.45
186.522	-1.22
186.904	6.39
187.287	16.76
187.669	20.06
188.051	17.36
188.433	24.41
188.815	22.73
189.197	22.54
189.579	25.04
189.961	26.05
190.342	23.39
190.724	26.05
191.106	23.18
191.488	21.33
191.869	17.22
192.251	17.01
192.633	14.45
193.014	12.92
193.396	11.32
193.777	16.12
194.159	15.16
194.54	12.89
194.922	12.94
195.303	14.61
195.684	15.99
196.065	14.74
196.447	12.8
196.828	11.9
197.209	13.19
197.59	2.33
197.971	1.82
198.352	2.47
198.733	4.9
199.114	3.67
199.495	4.89
199.876	5.16
200.257	3.02
200.638	1.78
201.018	-2.07
201.399	-1.14
201.78	-2.4
202.16	-2.85
202.541	-1.55
202.922	-0.39
203.302	-2.85
203.683	-1.04
204.063	-2.02
204.444	-1.1
204.824	0.26
205.204	1.82
205.585	8.66
205.965	9.3
206.345	9.66
206.725	6.97
207.106	9.89
207.486	9.61
207.866	10.67
208.246	10.54
208.626	12.53
209.006	17.52
209.386	14.69
209.766	16.37
210.145	16.26
210.525	16.23
210.905	17.74
211.285	17.74
211.664	16.77
212.044	17.87
212.424	18.49
212.803	14.91
213.183	16.57
213.562	16.31
213.942	16.09
214.321	12.8
214.701	11.48
215.08	11.23
215.459	11.89
215.838	10.93
216.218	11.63
216.597	9.66
216.976	6.51
217.355	6.5
217.734	7.3
218.113	7.88
218.492	7.91
218.871	8.66
219.25	9.62
219.629	9.96
220.008	9.91
220.387	9.96
220.766	10.66
221.144	9.96
221.523	11.05
221.902	11.4
222.28	11.42
222.659	11.17
223.037	10.87
223.416	11.64
223.794	12.92
224.173	12.57
224.551	12.38
224.929	12.46
225.308	12.36
225.686	12.2
226.064	11.91
226.442	11.4
226.821	10.73
227.199	10.6
227.577	9.87
227.955	8.9
228.333	8.42
228.711	8.55
229.089	8.82
229.467	8.07
229.845	8.77
230.222	8.98
230.6	9.4
230.978	9.27
231.356	8.86
231.733	8.45
232.111	8.6
232.488	8.39
232.866	8.34
233.243	7.8
233.621	7.75
233.998	7.41
234.376	7.3
234.753	7.11
235.13	6.93
235.508	7.32
235.885	7.36
236.262	7.14
236.639	7.08
237.016	6.9
237.393	6.78
237.77	6.55
238.147	6.43
238.524	6.48
238.901	6.43
239.278	6.48
239.655	6.49
240.032	6.39
240.409	6.43
240.785	6.41
241.162	6.46
241.539	6.42
241.915	6.47
242.292	6.48
242.668	6.4
243.045	6.42
243.421	6.35
243.798	6.35
244.174	6.32
244.551	6.26
244.927	6.11
245.303	6.06
245.679	6.1
246.056	6.03
246.432	6.02
246.808	5.81
247.184	5.84
247.56	5.81
247.936	5.83
248.312	5.81
248.688	5.87
249.064	5.87
249.44	5.85
249.815	5.86
250.191	5.79
250.567	5.78
250.943	5.85
251.318	5.84
251.694	5.8
252.069	5.76
252.445	5.76
252.82	5.87
253.196	5.89
253.571	5.82
253.947	5.9
254.322	5.86
254.697	5.97
255.073	5.94
255.448	5.92
255.823	5.88
256.198	5.84
256.573	5.66
256.948	5.65
257.323	5.63
257.698	5.57
258.073	5.58
258.448	5.44
258.823	5.41
259.198	5.39
259.573	5.4
259.948	5.42
260.322	5.38
260.697	5.36
261.072	5.33
261.446	5.29
261.821	5.26
262.195	5.2
262.57	5.17
262.944	5.16
263.319	5.12
263.693	5.14
264.067	5.14
264.442	5.22
264.816	5.21
265.19	5.17
265.564	5.22
265.938	5.18
266.313	5.21
266.687	5.17
267.061	5.16
267.435	5.13
267.809	5.11
268.183	5.08
268.556	5.07
268.93	5.09
269.304	5.06
269.678	5.02
270.051	4.99
270.425	4.98
270.799	4.97
271.172	4.97
271.546	4.95
271.919	4.95
272.293	4.92
272.666	4.91
273.04	4.91
273.413	4.86
273.787	4.84
274.16	4.86
274.533	4.89
274.906	4.87
275.279	4.88
275.653	4.87
276.026	4.86
276.399	4.82
276.772	4.84
277.145	4.86
277.518	4.89
277.891	4.91
278.263	4.92
278.636	4.94
279.009	4.97
279.382	4.96
279.755	4.91
280.127	4.94
280.5	4.97
280.872	4.97
281.245	5.1
281.617	5.12
281.99	5.16
282.362	5.21
282.735	5.22
283.107	5.24
283.479	5.26
283.852	5.31
284.224	5.35
284.596	5.34
284.968	5.25
285.34	5.27
285.713	5.27
286.085	5.23
286.457	5.27
286.829	5.27
287.201	5.31
287.572	5.4
287.944	5.43
288.316	5.5
288.688	5.55
289.06	5.6
289.431	5.62
289.803	5.66
290.175	5.73
290.546	5.8
290.918	5.85
291.289	5.88
291.661	5.95
292.032	5.96
292.403	6.05
292.775	6.19
293.146	6.24
293.517	6.33
293.889	6.44
294.26	6.49
294.631	6.57
295.002	6.67
295.373	6.75
295.744	6.79
296.115	6.85
296.486	6.85
296.857	6.92
297.228	6.96
297.599	7.03
297.97	7.08
298.34	7.17
298.711	7.17
299.082	7.22
299.452	7.3
299.823	7.4
300.194	7.47
300.564	7.53
300.935	7.63
301.305	7.68
301.676	7.73
302.046	7.81
302.416	7.9
302.787	7.98
303.157	8
303.527	8.1
303.897	8.17
304.267	8.27
304.637	8.39
305.008	8.5
305.378	8.59
305.748	8.67
306.117	8.82
306.487	8.97
306.857	9.11
307.227	9.2
307.597	9.27
307.967	9.35
308.336	9.42
308.706	9.51
309.076	9.58
309.445	9.64
309.815	9.61
310.184	9.67
310.554	9.69
310.923	9.8
311.293	9.88
311.662	9.95
312.031	10
312.401	10.08
312.77	10.11
313.139	10.17
313.508	10.25
313.877	10.29
314.246	10.34
314.616	10.4
314.985	10.42
315.353	10.48
315.722	10.54
316.091	10.59
316.46	10.66
316.829	10.75
317.198	10.82
317.567	11.01
317.935	11.07
318.304	11.18
318.672	11.26
319.041	11.35
319.41	11.44
319.778	11.52
320.147	11.59
320.515	11.64
320.883	11.69
321.252	11.7
321.62	11.78
321.988	11.83
322.357	11.88
322.725	11.99
323.093	12.03
323.461	12.09
323.829	12.13
324.197	12.18
324.565	12.21
324.933	12.26
325.301	12.28
325.669	12.34
326.037	12.36
326.405	12.37
326.772	12.41
327.14	12.46
327.508	12.48
327.875	12.53
328.243	12.57
328.61	12.57
328.978	12.6
329.346	12.63
329.713	12.65
330.08	12.68
330.448	12.71
330.815	12.72
331.182	12.77
331.55	12.8
331.917	12.85
332.284	12.88
332.651	12.91
333.018	12.94
333.385	12.98
333.752	13.03
334.119	13.08
334.486	13.11
334.853	13.12
335.22	13.15
335.587	13.19
335.954	13.24
336.32	13.3
336.687	13.33
337.054	13.35
337.42	13.41
337.787	13.42
338.153	13.47
338.52	13.53
338.886	13.58
339.253	13.61
339.619	13.63
339.986	13.64
340.352	13.68
340.718	13.73
341.084	13.75
341.451	13.76
341.817	13.77
342.183	13.79
342.549	13.83
342.915	13.86
343.281	13.89
343.647	13.94
344.013	14
344.379	14.03
344.745	14.04
345.11	14.08
345.476	14.11
345.842	14.14
346.208	14.14
346.573	14.15
346.939	14.19
347.304	14.2
347.67	14.23
348.035	14.26
348.401	14.27
348.766	14.3
349.132	14.31
349.497	14.34
349.862	14.36
350.228	14.4
350.593	14.43
350.958	14.42
351.323	14.41
351.688	14.42
352.053	14.43
352.418	14.42
352.783	14.44
353.148	14.43
353.513	14.43
353.878	14.44
354.243	14.44
354.608	14.43
354.972	14.44
355.337	14.43
355.702	14.4
356.066	14.42
356.431	14.41
356.795	14.42
357.16	14.4
357.524	14.39
357.889	14.38
358.253	14.37
358.618	14.36
358.982	14.35
359.346	14.35
359.71	14.35
360.075	14.34
360.439	14.34
360.803	14.32
361.167	14.3
361.531	14.3
361.895	14.28
362.259	14.26
362.623	14.24
362.987	14.23
363.351	14.21
363.714	14.19
364.078	14.17
364.442	14.15
364.806	14.14
365.169	14.1
365.533	14.06
365.896	14.02
366.26	14
366.623	13.96
366.987	13.93
367.35	13.9
367.714	13.86
368.077	13.83
368.44	13.79
368.803	13.74
369.167	13.7
369.53	13.65
369.893	13.61
370.256	13.55
370.619	13.51
370.982	13.44
371.345	13.37
371.708	13.3
372.071	13.23
372.434	13.17
372.797	13.12
373.159	13.08
373.522	13.02
373.885	12.95
374.247	12.87
374.61	12.8
374.973	12.72
375.335	12.65
375.698	12.59
376.06	12.52
376.423	12.45
376.785	12.38
377.147	12.31
377.51	12.25
377.872	12.17
378.234	12.1
378.596	12.05
378.958	11.99
379.321	11.93
379.683	11.85
380.045	11.78
380.407	11.72
380.769	11.65
381.13	11.59
381.492	11.53
381.854	11.47
382.216	11.41
382.578	11.35
382.939	11.29
383.301	11.23
383.663	11.17
384.024	11.1
384.386	11.04
384.747	10.97
385.109	10.9
385.47	10.84
385.832	10.78
386.193	10.71
386.554	10.65
386.916	10.59
387.277	10.53
387.638	10.48
387.999	10.41
388.36	10.35
388.721	10.3
389.082	10.24
389.443	10.18
389.804	10.12
390.165	10.06
390.526	10
390.887	9.93
391.248	9.87
391.609	9.82
391.969	9.76
392.33	9.7
392.691	9.64
393.051	9.58
393.412	9.51
393.772	9.45
394.133	9.38
394.493	9.32
394.854	9.26
395.214	9.19
395.574	9.13
395.935	9.06
396.295	8.99
396.655	8.92
397.015	8.86
397.376	8.78
397.736	8.72
398.096	8.65
398.456	8.59
398.816	8.54
399.176	8.46
399.535	8.41
399.895	8.36
400.255	8.3
400.615	8.24
400.975	8.19
401.334	8.13
401.694	8.08
402.054	8.03
402.413	7.96
402.773	7.92
403.132	7.88
403.492	7.84
403.851	7.8
404.211	7.75
404.57	7.72
404.929	7.69
405.288	7.66
405.648	7.63
406.007	7.6
406.366	7.57
406.725	7.55
407.084	7.52
407.443	7.49
407.802	7.45
408.161	7.42
408.52	7.38
408.879	7.35
409.238	7.32
409.596	7.3
409.955	7.28
410.314	7.25
410.673	7.21
411.031	7.19
411.39	7.17
411.748	7.14
412.107	7.11
412.465	7.09
412.824	7.09
413.182	7.09
413.54	7.09
413.899	7.08
414.257	7.09
414.615	7.12
414.974	7.13
415.332	7.15
415.69	7.18
416.048	7.19
416.406	7.22
416.764	7.23
417.122	7.24
417.48	7.26
417.838	7.27
418.195	7.27
418.553	7.27
418.911	7.26
419.269	7.24
419.626	7.21
419.984	7.17
420.342	7.12
420.699	7.07
421.057	7.01
421.414	6.96
421.772	6.92
422.129	6.88
422.486	6.86
422.844	6.83
423.201	6.81
423.558	6.79
423.915	6.76
424.273	6.74
424.63	6.72
424.987	6.69
425.344	6.67
425.701	6.65
426.058	6.63
426.415	6.61
426.772	6.59
427.128	6.57
427.485	6.53
427.842	6.5
428.199	6.46
428.555	6.43
428.912	6.38
429.269	6.33
429.625	6.29
429.982	6.24
430.338	6.19
430.695	6.15
431.051	6.09
431.407	6.06
431.764	6.02
432.12	5.98
432.476	5.96
432.832	5.94
433.189	5.94
433.545	5.94
433.901	5.96
434.257	5.99
434.613	6.02
434.969	6.05
435.325	6.09
435.681	6.15
436.036	6.17
436.392	6.2
436.748	6.21
437.104	6.21
437.459	6.24
437.815	6.26
438.171	6.28
438.526	6.31
438.882	6.35
439.237	6.39
439.593	6.44
439.948	6.47
440.304	6.51
440.659	6.54
441.014	6.56
441.369	6.58
441.725	6.59
442.08	6.61
442.435	6.61
442.79	6.61
443.145	6.6
443.5	6.6
443.855	6.58
444.21	6.57
444.565	6.55
444.92	6.52
445.275	6.5
445.629	6.48
445.984	6.45
446.339	6.42
446.693	6.4
447.048	6.37
447.403	6.33
447.757	6.28
448.112	6.24
448.466	6.19
448.82	6.15
449.175	6.11
449.529	6.08
449.883	6.04
450.238	5.99
450.592	5.97
450.946	5.95
451.3	5.94
451.654	5.94
452.008	5.93
452.362	5.93
452.716	5.92
453.07	5.91
453.424	5.89
453.778	5.88
454.132	5.85
454.486	5.84
454.839	5.81
455.193	5.78
455.547	5.76
455.9	5.72
456.254	5.7
456.607	5.66
456.961	5.63
457.314	5.6
457.668	5.6
458.021	5.6
458.375	5.6
458.728	5.62
459.081	5.63
459.434	5.65
459.787	5.68
460.141	5.7
460.494	5.72
460.847	5.74
461.2	5.76
461.553	5.79
461.906	5.81
462.259	5.84
462.611	5.86
462.964	5.89
463.317	5.92
463.67	5.95
464.022	5.97
464.375	6
464.728	6.02
465.08	6.05
465.433	6.08
465.785	6.1
466.138	6.1
466.49	6.11
466.843	6.11
467.195	6.11
467.547	6.11
467.899	6.1
468.252	6.09
468.604	6.08
468.956	6.08
469.308	6.08
469.66	6.1
470.012	6.11
470.364	6.14
470.716	6.17
471.068	6.21
471.42	6.26
471.772	6.3
472.123	6.33
472.475	6.36
472.827	6.38
473.178	6.4
473.53	6.42
473.882	6.44
474.233	6.47
474.585	6.52
474.936	6.61
475.288	6.74
475.639	6.9
475.99	7.09
476.342	7.3
476.693	7.52
477.044	7.75
477.395	7.98
477.746	8.21
478.097	8.45
478.448	8.69
478.8	8.92
479.15	9.13
479.501	9.32
479.852	9.49
480.203	9.65
480.554	9.81
480.905	9.96
481.255	10.1
481.606	10.23
481.957	10.35
482.307	10.48
482.658	10.59
483.009	10.7
483.359	10.81
483.709	10.92
484.06	11.02
484.41	11.12
484.761	11.21
485.111	11.31
485.461	11.4
485.811	11.48
486.162	11.56
486.512	11.63
486.862	11.69
487.212	11.73
487.562	11.77
487.912	11.8
488.262	11.81
488.612	11.82
488.961	11.81
489.311	11.77
489.661	11.69
490.011	11.59
490.36	11.46
490.71	11.31
491.06	11.15
491.409	10.98
491.759	10.81
492.108	10.63
492.458	10.45
492.807	10.25
493.157	10.06
493.506	9.89
493.855	9.72
494.204	9.58
494.554	9.45
494.903	9.34
495.252	9.24
495.601	9.15
495.95	9.07
496.299	9
496.648	8.95
496.997	8.91
497.346	8.88
497.695	8.86
498.043	8.85
498.392	8.85
498.741	8.86
499.09	8.88
499.438	8.91
499.787	8.95
500.135	9.01
500.484	9.08
500.832	9.18
501.181	9.3
501.529	9.44
501.878	9.62
502.226	9.8
502.574	10.01
502.923	10.22
503.271	10.45
503.619	10.68
503.967	10.93
504.315	11.17
504.663	11.42
505.011	11.67
505.359	11.93
505.707	12.19
506.055	12.46
506.403	12.74
506.751	13.03
507.098	13.32
507.446	13.63
507.794	13.95
508.141	14.28
508.489	14.63
508.837	14.97
509.184	15.32
509.531	15.68
509.879	16.05
510.226	16.44
510.574	16.84
510.921	17.24
511.268	17.65
511.616	18.09
511.963	18.53
512.31	18.98
512.657	19.41
513.004	19.84
513.351	20.26
513.698	20.64
514.045	21.01
514.392	21.35
514.739	21.68
515.086	21.99
515.432	22.3
515.779	22.62
516.126	22.95
516.473	23.3
516.819	23.67
517.166	24.06
517.512	24.47
517.859	24.91
518.205	25.38
518.552	25.88
518.898	26.43
519.245	27.04
519.591	27.76
519.937	28.61
520.283	29.58
520.629	30.64
520.976	31.74
521.322	32.88
521.668	34.03
522.014	35.17
522.36	36.31
522.706	37.42
523.052	38.5
523.398	39.53
523.743	40.47
524.089	41.32
524.435	42.11
524.781	42.88
525.126	43.63
525.472	44.36
525.817	45.06
526.163	45.74
526.509	46.39
526.854	47.05
527.199	47.7
527.545	48.34
527.89	49.01
528.235	49.66
528.581	50.29
528.926	50.87
529.271	51.43
529.616	51.94
529.961	52.39
530.306	52.8
530.651	53.19
530.996	53.54
531.341	53.84
531.686	54.13
532.031	54.38
532.376	54.67
532.721	54.98
533.065	55.32
533.41	55.67
533.755	55.94
534.099	56.13
534.444	56.26
534.788	56.33
535.133	56.37
535.477	56.37
535.822	56.31
536.166	56.2
536.51	56
536.855	55.73
537.199	55.4
537.543	55.08
537.887	54.81
538.231	54.61
538.576	54.42
538.92	54.2
539.264	53.97
539.608	53.72
539.951	53.44
540.295	53.15
540.639	52.84
540.983	52.51
541.327	52.15
541.671	51.82
542.014	51.51
542.358	51.23
542.701	51.11
543.045	51.04
543.389	51.01
543.732	51.02
544.075	51.06
544.419	51.12
544.762	51.19
545.105	51.27
545.449	51.38
545.792	51.5
546.135	51.62
546.478	51.67
546.821	51.65
547.165	51.54
547.508	51.34
547.851	51.08
548.194	50.75
548.536	50.36
548.879	49.92
549.222	49.45
549.565	48.96
549.908	48.49
550.25	48.05
550.593	47.69
550.936	47.44
551.278	47.26
551.621	47.15
551.963	47.06
552.306	46.99
552.648	46.98
552.991	47.01
553.333	47.05
553.675	47.15
554.017	47.28
554.36	47.45
554.702	47.67
555.044	47.93
555.386	48.26
555.728	48.56
556.07	48.83
556.412	49.11
556.754	49.24
557.096	49.37
557.438	49.5
557.78	49.63
558.121	49.76
558.463	49.89
558.805	50.01
559.147	50.14
559.488	50.27
559.83	50.41
560.171	50.53
560.513	50.65
560.854	50.76
561.196	50.87
561.537	50.98
561.878	51.1
562.22	51.21
562.561	51.32
562.902	51.43
563.243	51.53
563.584	51.64
563.925	51.76
564.266	51.86
564.607	51.97
564.948	52.08
565.289	52.17
565.63	52.28
565.971	52.39
566.312	52.49
566.653	52.59
566.993	52.69
567.334	52.79
567.675	52.89
568.015	52.98
568.356	53.06
568.696	53.14
569.037	53.22
569.377	53.31
569.718	53.39
570.058	53.46
570.398	53.52
570.739	53.59
571.079	53.65
571.419	53.7
571.759	53.77
572.099	53.82
572.439	53.86
572.779	53.92
573.119	53.97
573.459	54.01
573.799	54.05
574.139	54.09
574.479	54.14
574.819	54.18
575.158	54.22
575.498	54.26
575.838	54.3
576.177	54.34
576.517	54.37
576.856	54.41
577.196	54.45
577.535	54.48
577.875	54.51
578.214	54.54
578.553	54.58
578.893	54.6
579.232	54.64
579.571	54.66
579.91	54.68
580.25	54.71
580.589	54.74
580.928	54.75
581.267	54.76
581.606	54.78
581.945	54.8
582.283	54.85
582.622	54.89
582.961	54.92
583.3	54.94
583.639	54.97
583.977	55.01
584.316	55.05
584.654	55.09
584.993	55.12
585.332	55.16
585.67	55.18
586.008	55.22
586.347	55.26
586.685	55.3
587.024	55.33
587.362	55.38
587.7	55.43
588.038	55.48
588.376	55.53
588.715	55.57
589.053	55.62
589.391	55.67
589.729	55.72
590.067	55.77
590.404	55.83
590.742	55.88
591.08	55.94
591.418	55.99
591.756	56.03
592.093	56.08
592.431	56.13
592.769	56.16
593.106	56.19
593.444	56.23
593.781	56.26
594.119	56.28
594.456	56.3
594.793	56.33
595.131	56.37
595.468	56.42
595.805	56.45
596.143	56.49
596.48	56.52
596.817	56.55
597.154	56.6
597.491	56.65
597.828	56.69
598.165	56.74
598.502	56.78
598.839	56.81
599.176	56.84
599.512	56.88
599.849	56.91
600.186	56.95
600.523	56.97
600.859	57.01
601.196	57.03
601.532	57.06
601.869	57.08
602.205	57.11
602.542	57.14
602.878	57.16
603.215	57.19
603.551	57.2
603.887	57.22
604.223	57.24
604.56	57.24
604.896	57.26
605.232	57.27
605.568	57.29
605.904	57.31
606.24	57.32
606.576	57.34
606.912	57.36
607.248	57.37
607.583	57.38
607.919	57.39
608.255	57.41
608.591	57.42
608.926	57.45
609.262	57.45
609.597	57.46
609.933	57.47
610.268	57.49
610.604	57.5
610.939	57.51
611.275	57.5
611.61	57.5
611.945	57.5
612.281	57.5
612.616	57.51
612.951	57.51
613.286	57.53
613.621	57.53
613.956	57.53
614.291	57.54
614.626	57.55
614.961	57.55
615.296	57.55
615.631	57.55
615.966	57.56
616.3	57.57
616.635	57.57
616.97	57.56
617.304	57.57
617.639	57.58
617.973	57.6
618.308	57.61
618.642	57.61
618.977	57.61
619.311	57.62
619.646	57.64
619.98	57.66
620.314	57.68
620.648	57.71
620.983	57.73
621.317	57.76
621.651	57.78
621.985	57.79
622.319	57.81
622.653	57.83
622.987	57.85
623.321	57.86
623.655	57.86
623.988	57.87
624.322	57.9
624.656	57.91
624.99	57.93
625.323	57.94
625.657	57.95
625.99	57.97
626.324	57.99
626.657	58.01
626.991	58.03
627.324	58.05
627.658	58.07
627.991	58.08
628.324	58.09
628.657	58.11
628.991	58.13
629.324	58.16
629.657	58.18
629.99	58.19
630.323	58.21
630.656	58.23
630.989	58.24
631.322	58.25
631.655	58.26
631.987	58.27
632.32	58.29
632.653	58.31
632.986	58.32
633.318	58.32
633.651	58.34
633.984	58.35
634.316	58.37
634.649	58.38
634.981	58.4
635.313	58.42
635.646	58.43
635.978	58.44
636.31	58.43
636.643	58.45
636.975	58.46
637.307	58.47
637.639	58.48
637.971	58.49
638.303	58.51
638.635	58.52
638.967	58.53
639.299	58.55
639.631	58.57
639.963	58.58
640.295	58.59
640.626	58.59
640.958	58.59
641.29	58.6
641.621	58.61
641.953	58.62
642.285	58.64
642.616	58.65
642.948	58.65
643.279	58.65
643.61	58.67
643.942	58.68
644.273	58.68
644.604	58.69
644.936	58.7
645.267	58.71
645.598	58.72
645.929	58.72
646.26	58.72
646.591	58.73
646.922	58.75
647.253	58.76
647.584	58.76
647.915	58.75
648.245	58.75
648.576	58.76
648.907	58.77
649.238	58.77
649.568	58.78
649.899	58.82
650.229	58.82
650.56	58.86
650.89	58.87
651.221	58.87
651.551	58.89
651.882	58.9
652.212	58.92
652.542	58.93
652.872	58.94
653.203	58.94
653.533	58.97
653.863	58.98
654.193	58.97
654.523	58.98
654.853	59
655.183	59.01
655.513	59.02
655.843	59.04
656.172	59.06
656.502	59.06
656.832	59.07
657.162	59.06
657.491	59.08
657.821	59.11
658.15	59.12
658.48	59.13
658.809	59.15
659.139	59.17
659.468	59.19
659.798	59.2
660.127	59.21
660.456	59.25
660.785	59.26
661.115	59.28
661.444	59.3
661.773	59.31
662.102	59.34
662.431	59.35
662.76	59.35
663.089	59.34
663.418	59.33
663.747	59.34
664.076	59.35
664.404	59.37
664.733	59.4
665.062	59.4
665.39	59.4
665.719	59.42
666.048	59.43
666.376	59.44
666.705	59.44
667.033	59.46
667.362	59.46
667.69	59.49
668.018	59.51
668.347	59.51
668.675	59.5
669.003	59.53
669.331	59.55
669.659	59.53
669.987	59.54
670.315	59.55
670.643	59.57
670.971	59.57
671.299	59.56
671.627	59.56
671.955	59.57
672.283	59.56
672.61	59.57
672.938	59.58
673.266	59.61
673.593	59.61
673.921	59.61
674.249	59.61
674.576	59.62
674.904	59.64
675.231	59.64
675.558	59.66
675.886	59.68
676.213	59.7
676.54	59.74
676.867	59.76
677.195	59.76
677.522	59.78
677.849	59.79
678.176	59.79
678.503	59.8
678.83	59.82
679.157	59.8
679.484	59.83
679.81	59.83
680.137	59.84
680.464	59.84
680.791	59.84
681.117	59.84
681.444	59.85
681.771	59.86
682.097	59.88
682.424	59.9
682.75	59.88
683.077	59.91
683.403	59.92
683.729	59.93
684.056	59.93
684.382	59.92
684.708	59.92
685.034	59.97
685.36	59.97
685.686	60.01
686.012	60.03
686.339	60.04
686.664	60.04
686.99	60.03
687.316	60.05
687.642	60.07
687.968	60.1
688.294	60.09
688.619	60.1
688.945	60.1
689.271	60.11
689.596	60.11
689.922	60.11
690.247	60.1
690.573	60.12
690.898	60.12
691.224	60.13
691.549	60.12
691.874	60.13
692.2	60.15
692.525	60.17
692.85	60.15
693.175	60.16
693.5	60.18
693.825	60.19
694.15	60.19
694.475	60.19
694.8	60.2
695.125	60.2
695.45	60.21
695.775	60.19
696.099	60.22
696.424	60.23
696.749	60.24
697.073	60.25
697.398	60.26
697.723	60.28
698.047	60.3
698.372	60.31
698.696	60.3
699.02	60.29
699.345	60.29
699.669	60.31
699.993	60.3
700.318	60.32
700.642	60.34
700.966	60.31
701.29	60.32
701.614	60.34
701.938	60.35
702.262	60.39
702.586	60.39
702.91	60.41
703.234	60.42
703.557	60.44
703.881	60.45
704.205	60.46
704.529	60.5
704.852	60.52
705.176	60.51
705.499	60.52
705.823	60.53
706.146	60.55
706.47	60.54
706.793	60.56
707.117	60.61
707.44	60.61
707.763	60.63
708.086	60.62
708.409	60.65
708.733	60.65
709.056	60.65
709.379	60.64
709.702	60.63
710.025	60.64
710.348	60.57
710.671	60.59
710.993	60.6
711.316	60.58
711.639	60.58
711.962	60.59
712.284	60.6
712.607	60.63
712.93	60.64
713.252	60.66
713.575	60.66
713.897	60.65
714.22	60.7
714.542	60.72
714.864	60.76
715.187	60.78
715.509	60.76
715.831	60.77
716.153	60.78
716.475	60.78
716.798	60.78
717.12	60.84
717.442	60.88
717.764	60.85
718.085	60.83
718.407	60.85
718.729	60.84
719.051	60.87
719.373	60.85
719.695	60.87
720.016	60.86
720.338	60.85
720.659	60.9
720.981	60.89
721.302	60.92
721.624	60.95
721.945	60.96
722.267	60.99
722.588	60.99
722.909	60.99
723.231	61.01
723.552	61.03
723.873	61.06
724.194	61.09
724.515	61.13
724.836	61.19
725.157	61.2
725.478	61.22
725.799	61.21
726.12	61.22
726.441	61.22
726.762	61.25
727.083	61.26
727.403	61.26
727.724	61.24
728.045	61.2
728.365	61.22
728.686	61.26
729.006	61.26
729.327	61.29
729.647	61.28
729.967	61.26
730.288	61.29
730.608	61.29
730.928	61.32
731.249	61.32
731.569	61.33
731.889	61.32
732.209	61.33
732.529	61.35
732.849	61.37
733.169	61.36
733.489	61.36
733.809	61.36
734.129	61.41
734.448	61.41
734.768	61.38
735.088	61.38
735.408	61.4
735.727	61.41
736.047	61.47
736.366	61.45
736.686	61.48
737.005	61.48
737.325	61.42
737.644	61.39
737.963	61.38
738.283	61.39
738.602	61.35
738.921	61.38
739.24	61.38
739.56	61.37
739.879	61.36
740.198	61.37
740.517	61.32
740.836	61.31
741.155	61.31
741.473	61.32
741.792	61.35
742.111	61.33
742.43	61.3
742.748	61.3
743.067	61.33
743.386	61.32
743.704	61.3
744.023	61.32
744.341	61.3
744.66	61.33
744.978	61.32
745.297	61.31
745.615	61.3
745.933	61.3
746.252	61.31
746.57	61.31
746.888	61.29
747.206	61.26
747.524	61.28
747.842	61.3
748.16	61.3
748.478	61.27
748.796	61.29
749.114	61.27
749.432	61.27
749.749	61.26
750.067	61.26
750.385	61.3
750.703	61.3
751.02	61.29
751.338	61.31
751.655	61.36
751.973	61.35
752.29	61.34
752.608	61.37
752.925	61.35
753.242	61.37
753.56	61.41
753.877	61.42
754.194	61.44
754.511	61.44
754.828	61.42
755.145	61.44
755.462	61.4
755.779	61.45
756.096	61.46
756.413	61.51
756.73	61.53
757.047	61.55
757.364	61.61
757.68	61.59
757.997	61.61
758.314	61.65
758.63	61.69
758.947	61.74
759.264	61.76
759.58	61.74
759.896	61.67
760.213	61.7
760.529	61.67
760.846	61.66
761.162	61.66
761.478	61.66
761.794	61.65
762.11	61.66
762.426	61.7
762.743	61.68
763.059	61.69
763.375	61.7
763.69	61.71
764.006	61.72
764.322	61.71
764.638	61.7
764.954	61.71
765.27	61.71
765.585	61.71
765.901	61.71
766.216	61.66
766.532	61.65
766.848	61.65
767.163	61.67
767.478	61.67
767.794	61.68
768.109	61.68
768.424	61.75
768.74	61.72
769.055	61.72
769.37	61.69
769.685	61.66
770	61.65
770.315	61.64
770.63	61.66
770.945	61.65
771.26	61.63
771.575	61.58
771.89	61.53
772.205	61.53
772.52	61.52
772.834	61.65
773.149	61.64
773.464	61.62
773.778	61.65
774.093	61.65
774.407	61.65
774.722	61.65
775.036	61.62
775.351	61.58
775.665	61.58
775.979	61.55
776.293	61.5
776.608	61.5
776.922	61.52
777.236	61.57
777.55	61.59
777.864	61.58
778.178	61.63
778.492	61.66
778.806	61.68
779.12	61.71
779.434	61.7
779.747	61.65
780.061	61.67
780.375	61.7
780.689	61.62
781.002	61.6
781.316	61.6
781.629	61.59
781.943	61.61
782.256	61.61
782.57	61.64
782.883	61.62
783.196	61.57
783.51	61.52
783.823	61.52
784.136	61.48
784.449	61.52
784.762	61.53
785.075	61.58
785.388	61.54
785.701	61.53
786.014	61.53
786.327	61.52
786.64	61.44
786.953	61.45
787.266	61.49
787.578	61.44
787.891	61.44
788.204	61.48
788.516	61.47
788.829	61.5
789.141	61.52
789.454	61.52
789.766	61.52
790.079	61.54
790.391	61.57
790.703	61.62
791.016	61.57
791.328	61.53
791.64	61.56
791.952	61.55
792.264	61.58
792.576	61.68
792.888	61.7
793.2	61.63
793.512	61.66
793.824	61.64
794.136	61.61
794.448	61.72
794.76	61.78
795.071	61.81
795.383	61.81
795.695	61.84
796.006	61.88
796.318	61.86
796.629	61.85
796.941	61.85
797.252	61.82
797.564	61.82
797.875	61.77
798.186	61.82
798.497	61.83
798.809	61.79
799.12	61.8
799.431	61.8
799.742	61.83
800.053	61.79
800.364	61.84
800.675	61.86
800.986	61.82
801.297	61.91
801.608	61.84
801.918	61.85
802.229	61.87
802.54	61.91
802.851	61.87
803.161	61.89
803.472	61.9
803.782	61.85
804.093	61.89
804.403	61.78
804.714	61.79
805.024	61.76
805.334	61.75
805.645	61.74
805.955	61.86
806.265	61.79
806.575	61.83
806.885	61.83
807.195	61.76
807.505	61.67
807.815	61.57
808.125	61.6
808.435	61.63
808.745	61.68
809.055	61.79
809.365	61.8
809.674	61.85
809.984	61.95
810.294	61.96
810.603	61.91
810.913	61.96
811.222	61.91
811.532	61.97
811.841	61.97
812.151	62.01
812.46	62
812.769	62.02
813.079	62.07
813.388	62.06
813.697	62.04
814.006	62
814.315	62.09
814.624	62.11
814.933	62.07
815.242	62.05
815.551	62.07
815.86	62.05
816.169	62.06
816.478	62.07
816.786	62.11
817.095	62.24
817.404	62.32
817.712	62.32
818.021	62.29
818.33	62.34
818.638	62.31
818.947	62.39
819.255	62.43
819.563	62.43
819.872	62.45
820.18	62.47
820.488	62.5
820.796	62.54
821.105	62.54
821.413	62.52
821.721	62.53
822.029	62.56
822.337	62.57
822.645	62.56
822.953	62.54
823.26	62.56
823.568	62.54
823.876	62.54
824.184	62.52
824.491	62.53
824.799	62.55
825.107	62.55
825.414	62.57
825.722	62.59
826.029	62.59
826.337	62.6
826.644	62.59
826.951	62.59
827.259	62.6
827.566	62.63
827.873	62.63
828.18	62.64
828.488	62.65
828.795	62.67
829.102	62.71
829.409	62.7
829.716	62.65
830.023	62.66
830.329	62.69
830.636	62.74
830.943	62.75
831.25	62.81
831.557	62.77
831.863	62.73
832.17	62.75
832.476	62.77
832.783	62.76
833.089	62.76
833.396	62.71
833.702	62.67
834.009	62.67
834.315	62.63
834.621	62.63
834.928	62.61
835.234	62.59
835.54	62.63
835.846	62.67
836.152	62.7
836.458	62.72
836.764	62.76
837.07	62.75
837.376	62.69
837.682	62.69
837.988	62.67
838.293	62.53
838.599	62.52
838.905	62.54
839.211	62.55
839.516	62.59
839.822	62.58
840.127	62.55
840.433	62.56
840.738	62.51
841.044	62.47
841.349	62.49
841.654	62.48
841.959	62.51
842.265	62.55
842.57	62.5
842.875	62.47
843.18	62.4
843.485	62.36
843.79	62.32
844.095	62.54
844.4	62.5
844.705	62.56
845.01	62.51
845.315	62.6
845.619	62.6
845.924	62.42
846.229	62.41
846.533	62.39
846.838	62.43
847.142	62.33
847.447	62.42
847.751	62.23
848.056	62.28
848.36	62.17
848.664	62.25
848.969	62.18
849.273	62
849.577	61.94
849.881	61.92
850.185	61.76
850.489	61.92
850.794	62.13
851.097	62.28
851.401	62.24
851.705	62.33
852.009	62.29
852.313	62.31
852.617	62.31
852.92	62.37
853.224	62.42
853.528	62.45
853.831	62.36
854.135	62.26
854.438	62.21
854.742	62.15
855.045	62.14
855.349	62.14
855.652	62.19
855.955	62.28
856.259	62.25
856.562	62.23
856.865	62.19
857.168	62.2
857.471	62.31
857.774	62.15
858.077	62.12
858.38	62.2
858.683	62.13
858.986	61.98
859.289	62.07
859.592	62.25
859.894	62.27
860.197	62.44
860.5	62.21
860.802	62.32
861.105	62.19
861.407	62.24
861.71	62.35
862.012	62.2
862.315	62.19
862.617	62.11
862.919	61.74
863.222	61.54
863.524	61.45
863.826	61.56
864.128	61.65
864.43	61.68
864.732	61.7
865.034	61.96
865.336	61.98
865.638	61.92
865.94	61.74
866.242	61.7
866.544	61.47
866.846	61.61
867.147	61.52
867.449	61.53
867.751	61.74
868.052	61.84
868.354	61.71
868.655	61.77
868.957	61.74
869.258	61.85
869.56	61.84
869.861	61.88
870.162	61.95
870.463	61.85
870.765	61.97
871.066	62.01
871.367	61.96
871.668	61.93
871.969	61.98
872.27	62.08
872.571	62.02
872.872	62.31
873.173	62.23
873.473	62.41
873.774	62.5
874.075	62.46
874.376	62.71
874.676	62.73
874.977	62.79
875.277	63
875.578	63.13
875.878	63.03
876.179	63.07
876.479	62.98
876.78	63.15
877.08	63.13
877.38	63.06
877.68	62.93
877.981	62.77
878.281	62.85
878.581	62.93
