Data from UWBM41002_Reflection_00008.txt Node
Date: Sun May 02 14:14:19 EDT 2021
User: vgr7
Spectrometer: USB2G7710
Scans to average: 10
Trigger mode: 4
Integration Time (sec): 1.000000E-1
Electric dark correction enabled: true
Boxcar width: 20
XAxis mode: Wavelengths
Number of Pixels in Spectrum: 2048
>>>>>Begin Spectral Data<<<<<
177.721	121.43
178.105	89.41
178.488	111.84
178.871	98.2
179.254	88.48
179.636	69.25
180.019	59.46
180.402	47.38
180.785	43.93
181.168	43.12
181.55	38.56
181.933	39.26
182.316	37.47
182.698	37.71
183.081	35.21
183.463	30.29
183.846	26.09
184.228	26.29
184.611	26.66
184.993	27.04
185.376	26.84
185.758	28.16
186.14	29.36
186.522	28.63
186.904	29.97
187.287	29.11
187.669	28.75
188.051	26.54
188.433	27.14
188.815	24.85
189.197	24.19
189.579	22.35
189.961	19.09
190.342	20
190.724	22.15
191.106	23.21
191.488	23.85
191.869	23.51
192.251	21.09
192.633	20.57
193.014	21.18
193.396	17.46
193.777	20.16
194.159	19.3
194.54	19.01
194.922	18.14
195.303	17.43
195.684	17.47
196.065	19.42
196.447	20.77
196.828	21.2
197.209	21.76
197.59	19.79
197.971	18.44
198.352	20.2
198.733	20.27
199.114	20.31
199.495	20.69
199.876	20.16
200.257	19.73
200.638	18.88
201.018	20.14
201.399	21.68
201.78	20.55
202.16	18.75
202.541	17.82
202.922	17.66
203.302	16.47
203.683	17.4
204.063	16.65
204.444	16.9
204.824	16.61
205.204	16.32
205.585	19.51
205.965	19.43
206.345	18.59
206.725	17.88
207.106	18.55
207.486	18.69
207.866	19.2
208.246	18.32
208.626	17
209.006	17.45
209.386	15.39
209.766	15.57
210.145	14.66
210.525	14.86
210.905	15.45
211.285	14.16
211.664	12.53
212.044	10.97
212.424	10.17
212.803	9.74
213.183	9.5
213.562	11.87
213.942	11.48
214.321	10.76
214.701	11.04
215.08	11.25
215.459	11.07
215.838	11.17
216.218	11.44
216.597	10.33
216.976	9.59
217.355	9.13
217.734	10.12
218.113	10.38
218.492	10.3
218.871	10.43
219.25	10.78
219.629	10.48
220.008	10.29
220.387	9.92
220.766	10.83
221.144	9.48
221.523	8.99
221.902	8.81
222.28	7.9
222.659	7.04
223.037	7.1
223.416	7.84
223.794	7.91
224.173	8.32
224.551	8.21
224.929	8.91
225.308	8.14
225.686	8.37
226.064	7.93
226.442	8.04
226.821	8.54
227.199	8.94
227.577	9.11
227.955	9.18
228.333	9.19
228.711	8.7
229.089	7.72
229.467	6.83
229.845	6.74
230.222	6.61
230.6	6.48
230.978	6.33
231.356	6.42
231.733	6.11
232.111	6.14
232.488	5.9
232.866	5.67
233.243	5.24
233.621	5.18
233.998	5.15
234.376	5.22
234.753	5.03
235.13	4.99
235.508	4.98
235.885	4.97
236.262	4.78
236.639	4.79
237.016	4.65
237.393	4.67
237.77	4.69
238.147	4.66
238.524	4.56
238.901	4.4
239.278	4.4
239.655	4.37
240.032	4.36
240.409	4.32
240.785	4.36
241.162	4.37
241.539	4.32
241.915	4.31
242.292	4.34
242.668	4.31
243.045	4.28
243.421	4.27
243.798	4.24
244.174	4.33
244.551	4.35
244.927	4.35
245.303	4.37
245.679	4.38
246.056	4.34
246.432	4.34
246.808	4.28
247.184	4.31
247.56	4.31
247.936	4.31
248.312	4.33
248.688	4.37
249.064	4.37
249.44	4.36
249.815	4.32
250.191	4.28
250.567	4.27
250.943	4.26
251.318	4.22
251.694	4.22
252.069	4.19
252.445	4.18
252.82	4.15
253.196	4.12
253.571	4.11
253.947	4.1
254.322	4.08
254.697	4.05
255.073	4.02
255.448	4.02
255.823	3.99
256.198	3.98
256.573	3.96
256.948	3.97
257.323	3.94
257.698	3.88
258.073	3.86
258.448	3.86
258.823	3.83
259.198	3.82
259.573	3.77
259.948	3.77
260.322	3.77
260.697	3.73
261.072	3.7
261.446	3.71
261.821	3.71
262.195	3.72
262.57	3.7
262.944	3.68
263.319	3.68
263.693	3.69
264.067	3.68
264.442	3.67
264.816	3.64
265.19	3.65
265.564	3.67
265.938	3.66
266.313	3.68
266.687	3.68
267.061	3.66
267.435	3.67
267.809	3.68
268.183	3.68
268.556	3.69
268.93	3.69
269.304	3.71
269.678	3.72
270.051	3.72
270.425	3.71
270.799	3.7
271.172	3.72
271.546	3.71
271.919	3.71
272.293	3.71
272.666	3.7
273.04	3.73
273.413	3.76
273.787	3.75
274.16	3.76
274.533	3.77
274.906	3.78
275.279	3.78
275.653	3.78
276.026	3.79
276.399	3.83
276.772	3.84
277.145	3.83
277.518	3.83
277.891	3.85
278.263	3.84
278.636	3.84
279.009	3.82
279.382	3.81
279.755	3.81
280.127	3.83
280.5	3.84
280.872	3.85
281.245	3.86
281.617	3.85
281.99	3.87
282.362	3.87
282.735	3.88
283.107	3.87
283.479	3.87
283.852	3.87
284.224	3.88
284.596	3.87
284.968	3.89
285.34	3.91
285.713	3.91
286.085	3.92
286.457	3.92
286.829	3.93
287.201	3.94
287.572	3.94
287.944	3.97
288.316	3.97
288.688	3.96
289.06	3.99
289.431	3.99
289.803	4.02
290.175	4.03
290.546	4.06
290.918	4.09
291.289	4.12
291.661	4.13
292.032	4.14
292.403	4.16
292.775	4.2
293.146	4.22
293.517	4.26
293.889	4.28
294.26	4.33
294.631	4.37
295.002	4.41
295.373	4.44
295.744	4.47
296.115	4.49
296.486	4.54
296.857	4.57
297.228	4.6
297.599	4.65
297.97	4.68
298.34	4.72
298.711	4.75
299.082	4.79
299.452	4.83
299.823	4.87
300.194	4.9
300.564	4.95
300.935	4.99
301.305	5.04
301.676	5.08
302.046	5.13
302.416	5.17
302.787	5.21
303.157	5.25
303.527	5.29
303.897	5.35
304.267	5.4
304.637	5.46
305.008	5.51
305.378	5.57
305.748	5.62
306.117	5.67
306.487	5.74
306.857	5.8
307.227	5.86
307.597	5.93
307.967	5.97
308.336	6.01
308.706	6.04
309.076	6.09
309.445	6.14
309.815	6.16
310.184	6.2
310.554	6.23
310.923	6.27
311.293	6.3
311.662	6.34
312.031	6.39
312.401	6.43
312.77	6.47
313.139	6.52
313.508	6.57
313.877	6.62
314.246	6.66
314.616	6.7
314.985	6.74
315.353	6.78
315.722	6.82
316.091	6.88
316.46	6.91
316.829	6.97
317.198	7.04
317.567	7.11
317.935	7.17
318.304	7.23
318.672	7.29
319.041	7.35
319.41	7.39
319.778	7.46
320.147	7.51
320.515	7.55
320.883	7.59
321.252	7.62
321.62	7.65
321.988	7.69
322.357	7.72
322.725	7.75
323.093	7.79
323.461	7.84
323.829	7.87
324.197	7.93
324.565	7.95
324.933	8.01
325.301	8.03
325.669	8.09
326.037	8.15
326.405	8.19
326.772	8.22
327.14	8.24
327.508	8.27
327.875	8.3
328.243	8.33
328.61	8.34
328.978	8.36
329.346	8.37
329.713	8.42
330.08	8.44
330.448	8.45
330.815	8.48
331.182	8.48
331.55	8.53
331.917	8.55
332.284	8.55
332.651	8.56
333.018	8.59
333.385	8.61
333.752	8.64
334.119	8.66
334.486	8.7
334.853	8.72
335.22	8.74
335.587	8.77
335.954	8.79
336.32	8.82
336.687	8.84
337.054	8.86
337.42	8.88
337.787	8.9
338.153	8.93
338.52	8.94
338.886	8.95
339.253	8.97
339.619	9
339.986	9.01
340.352	9.04
340.718	9.05
341.084	9.05
341.451	9.08
341.817	9.09
342.183	9.12
342.549	9.14
342.915	9.16
343.281	9.17
343.647	9.2
344.013	9.22
344.379	9.24
344.745	9.24
345.11	9.25
345.476	9.26
345.842	9.27
346.208	9.3
346.573	9.29
346.939	9.28
347.304	9.3
347.67	9.31
348.035	9.31
348.401	9.32
348.766	9.32
349.132	9.32
349.497	9.32
349.862	9.34
350.228	9.34
350.593	9.33
350.958	9.34
351.323	9.34
351.688	9.34
352.053	9.33
352.418	9.32
352.783	9.32
353.148	9.31
353.513	9.3
353.878	9.28
354.243	9.27
354.608	9.25
354.972	9.24
355.337	9.22
355.702	9.2
356.066	9.19
356.431	9.16
356.795	9.15
357.16	9.12
357.524	9.1
357.889	9.07
358.253	9.05
358.618	9.02
358.982	8.99
359.346	8.97
359.71	8.95
360.075	8.93
360.439	8.9
360.803	8.88
361.167	8.85
361.531	8.83
361.895	8.81
362.259	8.77
362.623	8.75
362.987	8.73
363.351	8.7
363.714	8.68
364.078	8.64
364.442	8.61
364.806	8.57
365.169	8.54
365.533	8.5
365.896	8.47
366.26	8.43
366.623	8.39
366.987	8.35
367.35	8.31
367.714	8.28
368.077	8.24
368.44	8.2
368.803	8.15
369.167	8.11
369.53	8.06
369.893	8
370.256	7.95
370.619	7.9
370.982	7.85
371.345	7.8
371.708	7.74
372.071	7.7
372.434	7.64
372.797	7.6
373.159	7.55
373.522	7.51
373.885	7.46
374.247	7.41
374.61	7.35
374.973	7.29
375.335	7.24
375.698	7.18
376.06	7.13
376.423	7.07
376.785	7.02
377.147	6.96
377.51	6.91
377.872	6.86
378.234	6.8
378.596	6.75
378.958	6.69
379.321	6.64
379.683	6.59
380.045	6.54
380.407	6.5
380.769	6.45
381.13	6.4
381.492	6.35
381.854	6.31
382.216	6.26
382.578	6.22
382.939	6.17
383.301	6.12
383.663	6.08
384.024	6.04
384.386	6
384.747	5.96
385.109	5.91
385.47	5.87
385.832	5.82
386.193	5.78
386.554	5.74
386.916	5.7
387.277	5.66
387.638	5.63
387.999	5.59
388.36	5.55
388.721	5.52
389.082	5.49
389.443	5.46
389.804	5.42
390.165	5.39
390.526	5.37
390.887	5.34
391.248	5.31
391.609	5.28
391.969	5.26
392.33	5.22
392.691	5.2
393.051	5.16
393.412	5.14
393.772	5.11
394.133	5.07
394.493	5.04
394.854	5.01
395.214	4.98
395.574	4.95
395.935	4.92
396.295	4.9
396.655	4.87
397.015	4.84
397.376	4.81
397.736	4.79
398.096	4.76
398.456	4.73
398.816	4.7
399.176	4.68
399.535	4.65
399.895	4.63
400.255	4.61
400.615	4.58
400.975	4.56
401.334	4.54
401.694	4.51
402.054	4.5
402.413	4.48
402.773	4.45
403.132	4.44
403.492	4.42
403.851	4.4
404.211	4.39
404.57	4.38
404.929	4.36
405.288	4.35
405.648	4.33
406.007	4.32
406.366	4.3
406.725	4.29
407.084	4.28
407.443	4.26
407.802	4.25
408.161	4.24
408.52	4.23
408.879	4.23
409.238	4.22
409.596	4.22
409.955	4.21
410.314	4.2
410.673	4.19
411.031	4.19
411.39	4.18
411.748	4.17
412.107	4.17
412.465	4.16
412.824	4.18
413.182	4.19
413.54	4.2
413.899	4.22
414.257	4.24
414.615	4.27
414.974	4.29
415.332	4.32
415.69	4.35
416.048	4.36
416.406	4.4
416.764	4.41
417.122	4.43
417.48	4.45
417.838	4.47
418.195	4.48
418.553	4.5
418.911	4.5
419.269	4.5
419.626	4.49
419.984	4.48
420.342	4.46
420.699	4.44
421.057	4.41
421.414	4.39
421.772	4.37
422.129	4.36
422.486	4.35
422.844	4.34
423.201	4.34
423.558	4.33
423.915	4.32
424.273	4.31
424.63	4.31
424.987	4.3
425.344	4.29
425.701	4.28
426.058	4.28
426.415	4.28
426.772	4.27
427.128	4.26
427.485	4.24
427.842	4.22
428.199	4.2
428.555	4.18
428.912	4.16
429.269	4.13
429.625	4.1
429.982	4.07
430.338	4.03
430.695	4.01
431.051	3.98
431.407	3.95
431.764	3.94
432.12	3.92
432.476	3.9
432.832	3.9
433.189	3.9
433.545	3.9
433.901	3.91
434.257	3.93
434.613	3.95
434.969	3.97
435.325	4
435.681	4.03
436.036	4.05
436.392	4.08
436.748	4.09
437.104	4.1
437.459	4.12
437.815	4.13
438.171	4.15
438.526	4.18
438.882	4.21
439.237	4.24
439.593	4.27
439.948	4.3
440.304	4.34
440.659	4.36
441.014	4.38
441.369	4.4
441.725	4.42
442.08	4.43
442.435	4.45
442.79	4.45
443.145	4.45
443.5	4.45
443.855	4.45
444.21	4.45
444.565	4.45
444.92	4.44
445.275	4.43
445.629	4.42
445.984	4.41
446.339	4.4
446.693	4.38
447.048	4.36
447.403	4.35
447.757	4.32
448.112	4.3
448.466	4.27
448.82	4.25
449.175	4.22
449.529	4.2
449.883	4.18
450.238	4.15
450.592	4.15
450.946	4.13
451.3	4.12
451.654	4.13
452.008	4.13
452.362	4.13
452.716	4.13
453.07	4.12
453.424	4.12
453.778	4.11
454.132	4.1
454.486	4.09
454.839	4.07
455.193	4.05
455.547	4.04
455.9	4.01
456.254	4
456.607	3.97
456.961	3.95
457.314	3.93
457.668	3.92
458.021	3.92
458.375	3.91
458.728	3.91
459.081	3.91
459.434	3.92
459.787	3.93
460.141	3.94
460.494	3.95
460.847	3.96
461.2	3.97
461.553	3.98
461.906	3.98
462.259	3.99
462.611	4
462.964	4
463.317	4.01
463.67	4.02
464.022	4.03
464.375	4.04
464.728	4.05
465.08	4.06
465.433	4.07
465.785	4.07
466.138	4.06
466.49	4.05
466.843	4.04
467.195	4.03
467.547	4.01
467.899	4
468.252	3.98
468.604	3.96
468.956	3.94
469.308	3.93
469.66	3.93
470.012	3.93
470.364	3.94
470.716	3.95
471.068	3.97
471.42	3.99
471.772	4.02
472.123	4.03
472.475	4.04
472.827	4.05
473.178	4.06
473.53	4.08
473.882	4.09
474.233	4.11
474.585	4.15
474.936	4.21
475.288	4.29
475.639	4.4
475.99	4.53
476.342	4.67
476.693	4.82
477.044	4.97
477.395	5.14
477.746	5.3
478.097	5.46
478.448	5.63
478.8	5.79
479.15	5.94
479.501	6.08
479.852	6.21
480.203	6.33
480.554	6.44
480.905	6.55
481.255	6.65
481.606	6.75
481.957	6.85
482.307	6.93
482.658	7.02
483.009	7.1
483.359	7.18
483.709	7.26
484.06	7.33
484.41	7.4
484.761	7.47
485.111	7.53
485.461	7.6
485.811	7.66
486.162	7.71
486.512	7.76
486.862	7.8
487.212	7.82
487.562	7.84
487.912	7.86
488.262	7.86
488.612	7.86
488.961	7.84
489.311	7.81
489.661	7.74
490.011	7.66
490.36	7.57
490.71	7.46
491.06	7.34
491.409	7.21
491.759	7.08
492.108	6.94
492.458	6.8
492.807	6.65
493.157	6.5
493.506	6.36
493.855	6.23
494.204	6.11
494.554	5.99
494.903	5.89
495.252	5.79
495.601	5.7
495.95	5.61
496.299	5.53
496.648	5.46
496.997	5.39
497.346	5.33
497.695	5.27
498.043	5.22
498.392	5.18
498.741	5.13
499.09	5.1
499.438	5.06
499.787	5.04
500.135	5.02
500.484	5.01
500.832	5.02
501.181	5.03
501.529	5.07
501.878	5.12
502.226	5.17
502.574	5.24
502.923	5.31
503.271	5.38
503.619	5.46
503.967	5.54
504.315	5.62
504.663	5.71
505.011	5.8
505.359	5.88
505.707	5.97
506.055	6.07
506.403	6.17
506.751	6.27
507.098	6.38
507.446	6.5
507.794	6.62
508.141	6.75
508.489	6.88
508.837	7.02
509.184	7.16
509.531	7.31
509.879	7.46
510.226	7.63
510.574	7.8
510.921	7.99
511.268	8.17
511.616	8.36
511.963	8.56
512.31	8.76
512.657	8.96
513.004	9.16
513.351	9.35
513.698	9.53
514.045	9.7
514.392	9.86
514.739	10.02
515.086	10.17
515.432	10.32
515.779	10.48
516.126	10.63
516.473	10.79
516.819	10.97
517.166	11.17
517.512	11.38
517.859	11.6
518.205	11.84
518.552	12.1
518.898	12.38
519.245	12.7
519.591	13.08
519.937	13.52
520.283	14.04
520.629	14.6
520.976	15.19
521.322	15.81
521.668	16.44
522.014	17.07
522.36	17.71
522.706	18.34
523.052	18.95
523.398	19.53
523.743	20.07
524.089	20.56
524.435	21.02
524.781	21.46
525.126	21.91
525.472	22.35
525.817	22.78
526.163	23.2
526.509	23.61
526.854	24.02
527.199	24.43
527.545	24.84
527.89	25.27
528.235	25.69
528.581	26.09
528.926	26.48
529.271	26.84
529.616	27.19
529.961	27.53
530.306	27.86
530.651	28.16
530.996	28.45
531.341	28.71
531.686	28.95
532.031	29.18
532.376	29.44
532.721	29.72
533.065	30.03
533.41	30.36
533.755	30.66
534.099	30.93
534.444	31.16
534.788	31.37
535.133	31.57
535.477	31.75
535.822	31.9
536.166	32.02
536.51	32.08
536.855	32.09
537.199	32.07
537.543	32.05
537.887	32.06
538.231	32.1
538.576	32.15
538.92	32.18
539.264	32.2
539.608	32.2
539.951	32.19
540.295	32.16
540.639	32.12
540.983	32.06
541.327	31.99
541.671	31.9
542.014	31.83
542.358	31.78
542.701	31.8
543.045	31.88
543.389	31.99
543.732	32.12
544.075	32.26
544.419	32.41
544.762	32.58
545.105	32.76
545.449	32.95
545.792	33.16
546.135	33.36
546.478	33.52
546.821	33.64
547.165	33.7
547.508	33.71
547.851	33.66
548.194	33.59
548.536	33.46
548.879	33.32
549.222	33.14
549.565	32.96
549.908	32.78
550.25	32.62
550.593	32.53
550.936	32.49
551.278	32.51
551.621	32.56
551.963	32.63
552.306	32.72
552.648	32.84
552.991	32.98
553.333	33.14
553.675	33.34
554.017	33.56
554.36	33.81
554.702	34.1
555.044	34.41
555.386	34.76
555.728	35.16
556.07	35.49
556.412	35.84
556.754	36.11
557.096	36.33
557.438	36.55
557.78	36.77
558.121	37
558.463	37.23
558.805	37.45
559.147	37.67
559.488	37.89
559.83	38.11
560.171	38.32
560.513	38.52
560.854	38.72
561.196	38.92
561.537	39.12
561.878	39.32
562.22	39.5
562.561	39.68
562.902	39.85
563.243	40.03
563.584	40.21
563.925	40.37
564.266	40.55
564.607	40.72
564.948	40.89
565.289	41.06
565.63	41.23
565.971	41.39
566.312	41.55
566.653	41.7
566.993	41.86
567.334	42
567.675	42.14
568.015	42.28
568.356	42.42
568.696	42.55
569.037	42.68
569.377	42.81
569.718	42.92
570.058	43.04
570.398	43.16
570.739	43.27
571.079	43.37
571.419	43.47
571.759	43.56
572.099	43.65
572.439	43.74
572.779	43.82
573.119	43.91
573.459	43.99
573.799	44.07
574.139	44.15
574.479	44.24
574.819	44.33
575.158	44.41
575.498	44.49
575.838	44.56
576.177	44.65
576.517	44.73
576.856	44.82
577.196	44.88
577.535	44.96
577.875	45.04
578.214	45.1
578.553	45.18
578.893	45.24
579.232	45.3
579.571	45.36
579.91	45.43
580.25	45.5
580.589	45.57
580.928	45.62
581.267	45.69
581.606	45.75
581.945	45.83
582.283	45.88
582.622	45.96
582.961	46.02
583.3	46.09
583.639	46.15
583.977	46.22
584.316	46.28
584.654	46.34
584.993	46.41
585.332	46.47
585.67	46.54
586.008	46.6
586.347	46.67
586.685	46.74
587.024	46.81
587.362	46.88
587.7	46.94
588.038	47.02
588.376	47.08
588.715	47.14
589.053	47.21
589.391	47.28
589.729	47.35
590.067	47.42
590.404	47.49
590.742	47.55
591.08	47.62
591.418	47.68
591.756	47.73
592.093	47.79
592.431	47.83
592.769	47.88
593.106	47.94
593.444	47.99
593.781	48.03
594.119	48.08
594.456	48.13
594.793	48.18
595.131	48.22
595.468	48.27
595.805	48.3
596.143	48.36
596.48	48.4
596.817	48.46
597.154	48.53
597.491	48.59
597.828	48.66
598.165	48.71
598.502	48.77
598.839	48.82
599.176	48.88
599.512	48.93
599.849	48.98
600.186	49.02
600.523	49.05
600.859	49.09
601.196	49.12
601.532	49.15
601.869	49.19
602.205	49.23
602.542	49.27
602.878	49.31
603.215	49.33
603.551	49.37
603.887	49.4
604.223	49.42
604.56	49.45
604.896	49.47
605.232	49.51
605.568	49.53
605.904	49.57
606.24	49.59
606.576	49.62
606.912	49.64
607.248	49.66
607.583	49.69
607.919	49.7
608.255	49.72
608.591	49.75
608.926	49.77
609.262	49.79
609.597	49.81
609.933	49.83
610.268	49.85
610.604	49.86
610.939	49.87
611.275	49.88
611.61	49.89
611.945	49.92
612.281	49.92
612.616	49.93
612.951	49.94
613.286	49.94
613.621	49.96
613.956	49.97
614.291	49.99
614.626	50
614.961	50.03
615.296	50.07
615.631	50.09
615.966	50.1
616.3	50.11
616.635	50.12
616.97	50.13
617.304	50.14
617.639	50.15
617.973	50.17
618.308	50.21
618.642	50.24
618.977	50.26
619.311	50.29
619.646	50.3
619.98	50.34
620.314	50.38
620.648	50.41
620.983	50.44
621.317	50.45
621.651	50.49
621.985	50.52
622.319	50.55
622.653	50.58
622.987	50.6
623.321	50.64
623.655	50.66
623.988	50.69
624.322	50.71
624.656	50.72
624.99	50.73
625.323	50.75
625.657	50.76
625.99	50.78
626.324	50.8
626.657	50.82
626.991	50.85
627.324	50.87
627.658	50.89
627.991	50.9
628.324	50.93
628.657	50.94
628.991	50.95
629.324	50.96
629.657	50.98
629.99	51
630.323	51.01
630.656	51.03
630.989	51.06
631.322	51.08
631.655	51.1
631.987	51.11
632.32	51.12
632.653	51.14
632.986	51.16
633.318	51.17
633.651	51.17
633.984	51.18
634.316	51.2
634.649	51.21
634.981	51.25
635.313	51.25
635.646	51.27
635.978	51.29
636.31	51.31
636.643	51.33
636.975	51.33
637.307	51.35
637.639	51.37
637.971	51.39
638.303	51.41
638.635	51.43
638.967	51.45
639.299	51.47
639.631	51.5
639.963	51.52
640.295	51.53
640.626	51.55
640.958	51.59
641.29	51.61
641.621	51.63
641.953	51.64
642.285	51.65
642.616	51.68
642.948	51.71
643.279	51.74
643.61	51.75
643.942	51.79
644.273	51.79
644.604	51.8
644.936	51.82
645.267	51.84
645.598	51.85
645.929	51.86
646.26	51.87
646.591	51.89
646.922	51.92
647.253	51.94
647.584	51.95
647.915	51.96
648.245	51.98
648.576	51.98
648.907	52.01
649.238	52.02
649.568	52.02
649.899	52.03
650.229	52.04
650.56	52.06
650.89	52.08
651.221	52.09
651.551	52.1
651.882	52.11
652.212	52.12
652.542	52.14
652.872	52.15
653.203	52.16
653.533	52.16
653.863	52.17
654.193	52.18
654.523	52.17
654.853	52.17
655.183	52.19
655.513	52.21
655.843	52.23
656.172	52.23
656.502	52.24
656.832	52.26
657.162	52.27
657.491	52.29
657.821	52.31
658.15	52.32
658.48	52.32
658.809	52.33
659.139	52.35
659.468	52.36
659.798	52.39
660.127	52.39
660.456	52.41
660.785	52.41
661.115	52.43
661.444	52.44
661.773	52.45
662.102	52.45
662.431	52.46
662.76	52.47
663.089	52.49
663.418	52.52
663.747	52.54
664.076	52.55
664.404	52.55
664.733	52.55
665.062	52.58
665.39	52.6
665.719	52.62
666.048	52.63
666.376	52.64
666.705	52.65
667.033	52.67
667.362	52.7
667.69	52.72
668.018	52.74
668.347	52.76
668.675	52.78
669.003	52.79
669.331	52.79
669.659	52.8
669.987	52.82
670.315	52.83
670.643	52.86
670.971	52.85
671.299	52.87
671.627	52.9
671.955	52.93
672.283	52.94
672.61	52.95
672.938	52.96
673.266	52.97
673.593	52.99
673.921	52.99
674.249	53.01
674.576	53.02
674.904	53.03
675.231	53.06
675.558	53.07
675.886	53.1
676.213	53.11
676.54	53.13
676.867	53.13
677.195	53.15
677.522	53.16
677.849	53.16
678.176	53.17
678.503	53.18
678.83	53.19
679.157	53.2
679.484	53.22
679.81	53.24
680.137	53.25
680.464	53.27
680.791	53.26
681.117	53.27
681.444	53.31
681.771	53.33
682.097	53.33
682.424	53.33
682.75	53.35
683.077	53.35
683.403	53.36
683.729	53.37
684.056	53.38
684.382	53.4
684.708	53.4
685.034	53.41
685.36	53.43
685.686	53.45
686.012	53.47
686.339	53.47
686.664	53.48
686.99	53.5
687.316	53.51
687.642	53.53
687.968	53.54
688.294	53.57
688.619	53.58
688.945	53.62
689.271	53.63
689.596	53.64
689.922	53.65
690.247	53.65
690.573	53.65
690.898	53.67
691.224	53.68
691.549	53.7
691.874	53.69
692.2	53.7
692.525	53.7
692.85	53.71
693.175	53.71
693.5	53.73
693.825	53.75
694.15	53.78
694.475	53.79
694.8	53.75
695.125	53.77
695.45	53.79
695.775	53.81
696.099	53.84
696.424	53.84
696.749	53.85
697.073	53.86
697.398	53.86
697.723	53.88
698.047	53.89
698.372	53.9
698.696	53.92
699.02	53.93
699.345	53.94
699.669	53.97
699.993	53.97
700.318	53.98
700.642	53.99
700.966	54
701.29	54.01
701.614	54.01
701.938	54.02
702.262	54.02
702.586	54.04
702.91	54.06
703.234	54.06
703.557	54.08
703.881	54.11
704.205	54.12
704.529	54.16
704.852	54.17
705.176	54.2
705.499	54.21
705.823	54.21
706.146	54.24
706.47	54.27
706.793	54.28
707.117	54.28
707.44	54.29
707.763	54.29
708.086	54.32
708.409	54.32
708.733	54.33
709.056	54.35
709.379	54.33
709.702	54.38
710.025	54.4
710.348	54.4
710.671	54.41
710.993	54.45
711.316	54.46
711.639	54.49
711.962	54.49
712.284	54.51
712.607	54.51
712.93	54.5
713.252	54.53
713.575	54.53
713.897	54.56
714.22	54.58
714.542	54.6
714.864	54.6
715.187	54.63
715.509	54.6
715.831	54.6
716.153	54.62
716.475	54.63
716.798	54.62
717.12	54.63
717.442	54.63
717.764	54.64
718.085	54.65
718.407	54.67
718.729	54.68
719.051	54.72
719.373	54.74
719.695	54.72
720.016	54.73
720.338	54.73
720.659	54.75
720.981	54.8
721.302	54.81
721.624	54.85
721.945	54.85
722.267	54.86
722.588	54.91
722.909	54.9
723.231	54.92
723.552	54.92
723.873	54.94
724.194	54.95
724.515	54.94
724.836	54.93
725.157	54.93
725.478	54.9
725.799	54.92
726.12	54.94
726.441	54.95
726.762	54.97
727.083	54.97
727.403	54.95
727.724	54.95
728.045	54.98
728.365	54.98
728.686	55.01
729.006	55.03
729.327	55.05
729.647	55.06
729.967	55.08
730.288	55.08
730.608	55.09
730.928	55.12
731.249	55.11
731.569	55.09
731.889	55.12
732.209	55.12
732.529	55.13
732.849	55.17
733.169	55.17
733.489	55.21
733.809	55.21
734.129	55.23
734.448	55.23
734.768	55.23
735.088	55.24
735.408	55.27
735.727	55.25
736.047	55.26
736.366	55.25
736.686	55.27
737.005	55.26
737.325	55.23
737.644	55.25
737.963	55.21
738.283	55.21
738.602	55.22
738.921	55.24
739.24	55.23
739.56	55.25
739.879	55.24
740.198	55.22
740.517	55.25
740.836	55.25
741.155	55.22
741.473	55.19
741.792	55.2
742.111	55.18
742.43	55.18
742.748	55.18
743.067	55.21
743.386	55.22
743.704	55.23
744.023	55.21
744.341	55.24
744.66	55.28
744.978	55.26
745.297	55.29
745.615	55.28
745.933	55.27
746.252	55.26
746.57	55.26
746.888	55.25
747.206	55.22
747.524	55.26
747.842	55.26
748.16	55.24
748.478	55.2
748.796	55.17
749.114	55.19
749.432	55.2
749.749	55.22
750.067	55.22
750.385	55.24
750.703	55.24
751.02	55.3
751.338	55.31
751.655	55.35
751.973	55.32
752.29	55.31
752.608	55.28
752.925	55.29
753.242	55.32
753.56	55.31
753.877	55.31
754.194	55.29
754.511	55.32
754.828	55.34
755.145	55.36
755.462	55.38
755.779	55.4
756.096	55.36
756.413	55.38
756.73	55.39
757.047	55.42
757.364	55.46
757.68	55.46
757.997	55.48
758.314	55.48
758.63	55.51
758.947	55.55
759.264	55.55
759.58	55.56
759.896	55.6
760.213	55.62
760.529	55.59
760.846	55.6
761.162	55.62
761.478	55.64
761.794	55.68
762.11	55.66
762.426	55.66
762.743	55.65
763.059	55.65
763.375	55.65
763.69	55.66
764.006	55.65
764.322	55.64
764.638	55.61
764.954	55.63
765.27	55.66
765.585	55.7
765.901	55.69
766.216	55.69
766.532	55.71
766.848	55.71
767.163	55.73
767.478	55.72
767.794	55.73
768.109	55.73
768.424	55.71
768.74	55.69
769.055	55.7
769.37	55.68
769.685	55.69
770	55.68
770.315	55.65
770.63	55.63
770.945	55.65
771.26	55.64
771.575	55.64
771.89	55.63
772.205	55.65
772.52	55.62
772.834	55.59
773.149	55.59
773.464	55.6
773.778	55.59
774.093	55.6
774.407	55.61
774.722	55.61
775.036	55.61
775.351	55.61
775.665	55.62
775.979	55.63
776.293	55.67
776.608	55.66
776.922	55.66
777.236	55.7
777.55	55.74
777.864	55.78
778.178	55.76
778.492	55.71
778.806	55.69
779.12	55.69
779.434	55.72
779.747	55.76
780.061	55.78
780.375	55.8
780.689	55.76
781.002	55.75
781.316	55.74
781.629	55.76
781.943	55.78
782.256	55.8
782.57	55.78
782.883	55.7
783.196	55.71
783.51	55.7
783.823	55.66
784.136	55.64
784.449	55.64
784.762	55.6
785.075	55.61
785.388	55.63
785.701	55.61
786.014	55.62
786.327	55.7
786.64	55.72
786.953	55.74
787.266	55.73
787.578	55.69
787.891	55.72
788.204	55.74
788.516	55.76
788.829	55.75
789.141	55.74
789.454	55.73
789.766	55.75
790.079	55.75
790.391	55.76
790.703	55.79
791.016	55.78
791.328	55.83
791.64	55.82
791.952	55.83
792.264	55.75
792.576	55.69
792.888	55.69
793.2	55.71
793.512	55.73
793.824	55.73
794.136	55.8
794.448	55.77
794.76	55.77
795.071	55.76
795.383	55.79
795.695	55.86
796.006	55.85
796.318	55.85
796.629	55.86
796.941	55.93
797.252	55.91
797.564	55.97
797.875	55.93
798.186	55.9
798.497	55.94
798.809	55.88
799.12	55.84
799.431	55.81
799.742	55.77
800.053	55.77
800.364	55.77
800.675	55.79
800.986	55.78
801.297	55.79
801.608	55.85
801.918	55.83
802.229	55.81
802.54	55.84
802.851	55.82
803.161	55.85
803.472	55.79
803.782	55.83
804.093	55.74
804.403	55.78
804.714	55.76
805.024	55.77
805.334	55.82
805.645	55.87
805.955	55.88
806.265	55.88
806.575	55.84
806.885	55.75
807.195	55.77
807.505	55.77
807.815	55.8
808.125	55.71
808.435	55.75
808.745	55.76
809.055	55.79
809.365	55.79
809.674	55.75
809.984	55.76
810.294	55.76
810.603	55.82
810.913	55.86
811.222	55.86
811.532	55.87
811.841	55.87
812.151	55.91
812.46	55.95
812.769	55.98
813.079	56.01
813.388	55.96
813.697	55.98
814.006	55.9
814.315	55.9
814.624	55.87
814.933	55.9
815.242	55.87
815.551	55.84
815.86	55.89
816.169	56.05
816.478	56.07
816.786	56.2
817.095	56.17
817.404	56.2
817.712	56.25
818.021	56.32
818.33	56.31
818.638	56.29
818.947	56.29
819.255	56.3
819.563	56.35
819.872	56.38
820.18	56.45
820.488	56.47
820.796	56.54
821.105	56.56
821.413	56.6
821.721	56.65
822.029	56.68
822.337	56.67
822.645	56.68
822.953	56.68
823.26	56.65
823.568	56.66
823.876	56.68
824.184	56.68
824.491	56.67
824.799	56.68
825.107	56.7
825.414	56.71
825.722	56.69
826.029	56.71
826.337	56.71
826.644	56.74
826.951	56.72
827.259	56.73
827.566	56.76
827.873	56.76
828.18	56.77
828.488	56.76
828.795	56.72
829.102	56.71
829.409	56.69
829.716	56.73
830.023	56.74
830.329	56.74
830.636	56.71
830.943	56.72
831.25	56.73
831.557	56.74
831.863	56.78
832.17	56.77
832.476	56.76
832.783	56.73
833.089	56.7
833.396	56.64
833.702	56.62
834.009	56.53
834.315	56.47
834.621	56.44
834.928	56.47
835.234	56.46
835.54	56.44
835.846	56.45
836.152	56.43
836.458	56.36
836.764	56.38
837.07	56.38
837.376	56.36
837.682	56.33
837.988	56.29
838.293	56.37
838.599	56.41
838.905	56.39
839.211	56.38
839.516	56.43
839.822	56.45
840.127	56.37
840.433	56.43
840.738	56.52
841.044	56.43
841.349	56.45
841.654	56.53
841.959	56.57
842.265	56.57
842.57	56.55
842.875	56.6
843.18	56.6
843.485	56.57
843.79	56.68
844.095	56.8
844.4	56.79
844.705	56.85
845.01	56.91
845.315	56.76
845.619	56.76
845.924	56.87
846.229	56.81
846.533	56.94
846.838	56.9
847.142	56.84
847.447	56.81
847.751	56.89
848.056	56.83
848.36	57.03
848.664	56.98
848.969	57.01
849.273	57.04
849.577	57.09
849.881	57.08
850.185	57
850.489	57.08
850.794	57.06
851.097	57.06
851.401	57.07
851.705	57.06
852.009	57.07
852.313	57.07
852.617	57.03
852.92	56.93
853.224	56.82
853.528	56.97
853.831	56.82
854.135	56.81
854.438	56.73
854.742	56.56
855.045	56.48
855.349	56.5
855.652	56.66
855.955	56.88
856.259	56.83
856.562	56.75
856.865	56.85
857.168	56.73
857.471	56.75
857.774	56.71
858.077	56.65
858.38	56.61
858.683	56.7
858.986	56.5
859.289	56.58
859.592	56.78
859.894	56.78
860.197	56.61
860.5	56.59
860.802	56.5
861.105	56.55
861.407	56.66
861.71	56.58
862.012	56.36
862.315	56.31
862.617	56.36
862.919	56.4
863.222	56.3
863.524	56.14
863.826	56.08
864.128	56.03
864.43	56.03
864.732	56.01
865.034	56.03
865.336	56.03
865.638	56.04
865.94	56.02
866.242	56.08
866.544	55.98
866.846	55.95
867.147	55.95
867.449	55.86
867.751	55.83
868.052	55.79
868.354	55.72
868.655	55.47
868.957	55.36
869.258	55.3
869.56	55.41
869.861	55.44
870.162	55.48
870.463	55.67
870.765	55.62
871.066	55.66
871.367	55.79
871.668	55.75
871.969	55.74
872.27	55.71
872.571	55.81
872.872	55.9
873.173	55.88
873.473	55.9
873.774	55.83
874.075	55.86
874.376	56.11
874.676	56.1
874.977	56.11
875.277	55.98
875.578	55.97
875.878	56.03
876.179	55.96
876.479	55.99
876.78	55.98
877.08	55.92
877.38	56
877.68	56.08
877.981	55.98
878.281	55.95
878.581	55.94
