Data from UWBM59058_Reflection_00001.txt Node
Date: Sun May 02 12:56:35 EDT 2021
User: vgr7
Spectrometer: USB2G7710
Scans to average: 10
Trigger mode: 4
Integration Time (sec): 1.000000E-1
Electric dark correction enabled: true
Boxcar width: 20
XAxis mode: Wavelengths
Number of Pixels in Spectrum: 2048
>>>>>Begin Spectral Data<<<<<
177.721	100.71
178.105	99.83
178.488	99.31
178.871	100.54
179.254	100.7
179.636	97.91
180.019	96.1
180.402	93.39
180.785	89.68
181.168	87.19
181.55	84.86
181.933	114.58
182.316	115.64
182.698	116.77
183.081	118.45
183.463	120.24
183.846	122.29
184.228	124.02
184.611	126.63
184.993	129.78
185.376	133.2
185.758	-129.5
186.14	-68.49
186.522	-28.51
186.904	-12.71
187.287	0.54
187.669	7.27
188.051	10.72
188.433	16.35
188.815	11.9
189.197	10.78
189.579	11.17
189.961	9.58
190.342	5.29
190.724	9.63
191.106	9.54
191.488	9.67
191.869	5.43
192.251	5.79
192.633	2.74
193.014	0.51
193.396	-0.64
193.777	6.18
194.159	4.92
194.54	2.2
194.922	2.79
195.303	5.48
195.684	6.37
196.065	7.1
196.447	5.87
196.828	4.88
197.209	5.82
197.59	-4.28
197.971	-7.22
198.352	-5.76
198.733	-2.21
199.114	-2.77
199.495	-1.82
199.876	-2.19
200.257	-2.36
200.638	-3.72
201.018	-10.34
201.399	-12.72
201.78	-15.19
202.16	-17.83
202.541	-15.38
202.922	-14.76
203.302	-18.42
203.683	-19.29
204.063	-19.6
204.444	-17.97
204.824	-15.3
205.204	-12.87
205.585	-3.38
205.965	-3.15
206.345	-2.64
206.725	-8.82
207.106	-8.04
207.486	-8.05
207.866	-9.07
208.246	-9.97
208.626	-6.27
209.006	0.74
209.386	-3.46
209.766	-1.34
210.145	-0.95
210.525	-2.69
210.905	-2.25
211.285	-1.15
211.664	-2.47
212.044	-0.64
212.424	-0.54
212.803	-5.54
213.183	-2.77
213.562	-1.76
213.942	-3.66
214.321	-6.17
214.701	-6.86
215.08	-6.57
215.459	-5.72
215.838	-6.92
216.218	-5.17
216.597	-7.33
216.976	-11.65
217.355	-10.48
217.734	-9.61
218.113	-9.31
218.492	-8.91
218.871	-7.57
219.25	-6.78
219.629	-7.74
220.008	-8.17
220.387	-6.63
220.766	-6
221.144	-6.84
221.523	-4.58
221.902	-4.07
222.28	-2.37
222.659	-1.04
223.037	-0.65
223.416	1.82
223.794	3.1
224.173	3.31
224.551	3.13
224.929	3.91
225.308	4.4
225.686	3.5
226.064	3.92
226.442	4.11
226.821	3.78
227.199	3.77
227.577	3.28
227.955	2.75
228.333	2.58
228.711	2.57
229.089	3.26
229.467	2.72
229.845	3.43
230.222	3.81
230.6	4.57
230.978	4.79
231.356	4.45
231.733	4.46
232.111	4.66
232.488	4.72
232.866	4.68
233.243	4.28
233.621	4.32
233.998	4.06
234.376	4.12
234.753	4.27
235.13	4.46
235.508	5.1
235.885	5.14
236.262	5.17
236.639	5.48
237.016	5.42
237.393	5.4
237.77	5.2
238.147	5.04
238.524	5
238.901	5.01
239.278	5.05
239.655	4.94
240.032	4.86
240.409	4.83
240.785	4.75
241.162	4.9
241.539	4.82
241.915	4.82
242.292	4.81
242.668	4.76
243.045	4.75
243.421	4.68
243.798	4.64
244.174	4.63
244.551	4.53
244.927	4.4
245.303	4.37
245.679	4.35
246.056	4.28
246.432	4.27
246.808	4.06
247.184	4.02
247.56	4
247.936	4.01
248.312	4.03
248.688	4.12
249.064	4.08
249.44	4.06
249.815	4.05
250.191	4.01
250.567	3.95
250.943	4.02
251.318	4.01
251.694	3.96
252.069	3.87
252.445	3.86
252.82	3.96
253.196	3.98
253.571	3.97
253.947	4.08
254.322	4.02
254.697	4.15
255.073	4.16
255.448	4.14
255.823	4.13
256.198	4.08
256.573	3.89
256.948	3.89
257.323	3.91
257.698	3.86
258.073	3.85
258.448	3.74
258.823	3.72
259.198	3.72
259.573	3.74
259.948	3.81
260.322	3.78
260.697	3.78
261.072	3.79
261.446	3.77
261.821	3.74
262.195	3.71
262.57	3.7
262.944	3.7
263.319	3.69
263.693	3.69
264.067	3.7
264.442	3.83
264.816	3.83
265.19	3.82
265.564	3.85
265.938	3.83
266.313	3.89
266.687	3.85
267.061	3.86
267.435	3.86
267.809	3.84
268.183	3.83
268.556	3.86
268.93	3.87
269.304	3.84
269.678	3.8
270.051	3.8
270.425	3.81
270.799	3.83
271.172	3.82
271.546	3.81
271.919	3.82
272.293	3.81
272.666	3.78
273.04	3.79
273.413	3.73
273.787	3.73
274.16	3.72
274.533	3.76
274.906	3.73
275.279	3.74
275.653	3.71
276.026	3.69
276.399	3.65
276.772	3.65
277.145	3.68
277.518	3.69
277.891	3.71
278.263	3.7
278.636	3.71
279.009	3.74
279.382	3.72
279.755	3.65
280.127	3.66
280.5	3.66
280.872	3.65
281.245	3.77
281.617	3.79
281.99	3.82
282.362	3.85
282.735	3.81
283.107	3.82
283.479	3.82
283.852	3.82
284.224	3.83
284.596	3.81
284.968	3.69
285.34	3.67
285.713	3.63
286.085	3.55
286.457	3.55
286.829	3.54
287.201	3.54
287.572	3.59
287.944	3.62
288.316	3.66
288.688	3.7
289.06	3.67
289.431	3.68
289.803	3.68
290.175	3.68
290.546	3.69
290.918	3.71
291.289	3.67
291.661	3.68
292.032	3.64
292.403	3.66
292.775	3.75
293.146	3.74
293.517	3.79
293.889	3.87
294.26	3.85
294.631	3.87
295.002	3.93
295.373	3.95
295.744	3.95
296.115	3.94
296.486	3.86
296.857	3.86
297.228	3.85
297.599	3.84
297.97	3.84
298.34	3.85
298.711	3.79
299.082	3.78
299.452	3.8
299.823	3.83
300.194	3.85
300.564	3.84
300.935	3.85
301.305	3.83
301.676	3.81
302.046	3.8
302.416	3.8
302.787	3.8
303.157	3.72
303.527	3.71
303.897	3.72
304.267	3.74
304.637	3.75
305.008	3.76
305.378	3.76
305.748	3.74
306.117	3.79
306.487	3.84
306.857	3.89
307.227	3.89
307.597	3.85
307.967	3.86
308.336	3.86
308.706	3.87
309.076	3.87
309.445	3.86
309.815	3.73
310.184	3.71
310.554	3.65
310.923	3.67
311.293	3.69
311.662	3.7
312.031	3.69
312.401	3.69
312.77	3.66
313.139	3.65
313.508	3.68
313.877	3.63
314.246	3.62
314.616	3.6
314.985	3.55
315.353	3.56
315.722	3.57
316.091	3.56
316.46	3.56
316.829	3.58
317.198	3.61
317.567	3.76
317.935	3.76
318.304	3.8
318.672	3.82
319.041	3.81
319.41	3.82
319.778	3.83
320.147	3.84
320.515	3.83
320.883	3.84
321.252	3.78
321.62	3.84
321.988	3.85
322.357	3.85
322.725	3.92
323.093	3.93
323.461	3.92
323.829	3.92
324.197	3.9
324.565	3.89
324.933	3.89
325.301	3.87
325.669	3.87
326.037	3.88
326.405	3.83
326.772	3.81
327.14	3.81
327.508	3.78
327.875	3.78
328.243	3.79
328.61	3.74
328.978	3.74
329.346	3.73
329.713	3.71
330.08	3.7
330.448	3.7
330.815	3.67
331.182	3.68
331.55	3.68
331.917	3.7
332.284	3.69
332.651	3.69
333.018	3.68
333.385	3.7
333.752	3.71
334.119	3.72
334.486	3.73
334.853	3.7
335.22	3.7
335.587	3.68
335.954	3.7
336.32	3.71
336.687	3.7
337.054	3.69
337.42	3.7
337.787	3.7
338.153	3.72
338.52	3.76
338.886	3.79
339.253	3.78
339.619	3.77
339.986	3.75
340.352	3.75
340.718	3.76
341.084	3.77
341.451	3.75
341.817	3.75
342.183	3.74
342.549	3.77
342.915	3.77
343.281	3.78
343.647	3.79
344.013	3.81
344.379	3.83
344.745	3.82
345.11	3.83
345.476	3.83
345.842	3.84
346.208	3.82
346.573	3.81
346.939	3.82
347.304	3.82
347.67	3.83
348.035	3.85
348.401	3.83
348.766	3.84
349.132	3.84
349.497	3.85
349.862	3.87
350.228	3.89
350.593	3.9
350.958	3.88
351.323	3.86
351.688	3.88
352.053	3.86
352.418	3.87
352.783	3.86
353.148	3.84
353.513	3.82
353.878	3.82
354.243	3.83
354.608	3.82
354.972	3.83
355.337	3.84
355.702	3.81
356.066	3.82
356.431	3.81
356.795	3.81
357.16	3.79
357.524	3.78
357.889	3.78
358.253	3.78
358.618	3.79
358.982	3.8
359.346	3.81
359.71	3.81
360.075	3.81
360.439	3.82
360.803	3.82
361.167	3.81
361.531	3.83
361.895	3.83
362.259	3.83
362.623	3.83
362.987	3.82
363.351	3.83
363.714	3.83
364.078	3.83
364.442	3.83
364.806	3.84
365.169	3.82
365.533	3.82
365.896	3.83
366.26	3.83
366.623	3.82
366.987	3.82
367.35	3.82
367.714	3.83
368.077	3.84
368.44	3.84
368.803	3.84
369.167	3.84
369.53	3.85
369.893	3.86
370.256	3.86
370.619	3.88
370.982	3.88
371.345	3.87
371.708	3.88
372.071	3.88
372.434	3.89
372.797	3.92
373.159	3.93
373.522	3.92
373.885	3.9
374.247	3.88
374.61	3.88
374.973	3.87
375.335	3.86
375.698	3.85
376.06	3.86
376.423	3.86
376.785	3.86
377.147	3.85
377.51	3.86
377.872	3.85
378.234	3.85
378.596	3.86
378.958	3.88
379.321	3.88
379.683	3.88
380.045	3.87
380.407	3.87
380.769	3.87
381.13	3.87
381.492	3.88
381.854	3.88
382.216	3.88
382.578	3.88
382.939	3.88
383.301	3.88
383.663	3.88
384.024	3.88
384.386	3.88
384.747	3.88
385.109	3.87
385.47	3.86
385.832	3.87
386.193	3.86
386.554	3.86
386.916	3.86
387.277	3.85
387.638	3.85
387.999	3.86
388.36	3.86
388.721	3.87
389.082	3.87
389.443	3.87
389.804	3.87
390.165	3.88
390.526	3.88
390.887	3.87
391.248	3.86
391.609	3.87
391.969	3.87
392.33	3.88
392.691	3.88
393.051	3.88
393.412	3.87
393.772	3.88
394.133	3.88
394.493	3.88
394.854	3.88
395.214	3.88
395.574	3.88
395.935	3.87
396.295	3.87
396.655	3.87
397.015	3.87
397.376	3.86
397.736	3.87
398.096	3.87
398.456	3.87
398.816	3.89
399.176	3.87
399.535	3.88
399.895	3.89
400.255	3.89
400.615	3.89
400.975	3.9
401.334	3.9
401.694	3.9
402.054	3.91
402.413	3.9
402.773	3.9
403.132	3.91
403.492	3.91
403.851	3.91
404.211	3.92
404.57	3.93
404.929	3.94
405.288	3.95
405.648	3.96
406.007	3.97
406.366	3.97
406.725	3.98
407.084	3.97
407.443	3.98
407.802	3.97
408.161	3.97
408.52	3.97
408.879	3.97
409.238	3.97
409.596	3.97
409.955	3.99
410.314	3.99
410.673	4
411.031	4.01
411.39	4.01
411.748	4.03
412.107	4.03
412.465	4.05
412.824	4.07
413.182	4.1
413.54	4.12
413.899	4.14
414.257	4.17
414.615	4.22
414.974	4.25
415.332	4.29
415.69	4.33
416.048	4.36
416.406	4.41
416.764	4.44
417.122	4.48
417.48	4.51
417.838	4.54
418.195	4.57
418.553	4.59
418.911	4.61
419.269	4.61
419.626	4.61
419.984	4.6
420.342	4.59
420.699	4.57
421.057	4.56
421.414	4.55
421.772	4.54
422.129	4.53
422.486	4.53
422.844	4.53
423.201	4.53
423.558	4.53
423.915	4.53
424.273	4.53
424.63	4.53
424.987	4.53
425.344	4.54
425.701	4.54
426.058	4.54
426.415	4.54
426.772	4.54
427.128	4.54
427.485	4.53
427.842	4.52
428.199	4.51
428.555	4.5
428.912	4.48
429.269	4.46
429.625	4.44
429.982	4.42
430.338	4.39
430.695	4.37
431.051	4.34
431.407	4.31
431.764	4.3
432.12	4.27
432.476	4.27
432.832	4.26
433.189	4.26
433.545	4.27
433.901	4.28
434.257	4.31
434.613	4.33
434.969	4.36
435.325	4.39
435.681	4.43
436.036	4.44
436.392	4.47
436.748	4.48
437.104	4.48
437.459	4.5
437.815	4.52
438.171	4.54
438.526	4.56
438.882	4.59
439.237	4.63
439.593	4.66
439.948	4.7
440.304	4.73
440.659	4.76
441.014	4.78
441.369	4.81
441.725	4.83
442.08	4.85
442.435	4.86
442.79	4.86
443.145	4.86
443.5	4.87
443.855	4.87
444.21	4.87
444.565	4.87
444.92	4.86
445.275	4.85
445.629	4.84
445.984	4.84
446.339	4.83
446.693	4.83
447.048	4.82
447.403	4.8
447.757	4.78
448.112	4.76
448.466	4.74
448.82	4.73
449.175	4.71
449.529	4.69
449.883	4.68
450.238	4.66
450.592	4.66
450.946	4.65
451.3	4.65
451.654	4.67
452.008	4.67
452.362	4.67
452.716	4.68
453.07	4.68
453.424	4.68
453.778	4.67
454.132	4.66
454.486	4.65
454.839	4.63
455.193	4.61
455.547	4.6
455.9	4.57
456.254	4.55
456.607	4.52
456.961	4.49
457.314	4.47
457.668	4.46
458.021	4.46
458.375	4.45
458.728	4.46
459.081	4.46
459.434	4.47
459.787	4.47
460.141	4.48
460.494	4.49
460.847	4.49
461.2	4.49
461.553	4.5
461.906	4.5
462.259	4.51
462.611	4.51
462.964	4.51
463.317	4.52
463.67	4.52
464.022	4.52
464.375	4.52
464.728	4.52
465.08	4.52
465.433	4.52
465.785	4.51
466.138	4.5
466.49	4.48
466.843	4.46
467.195	4.44
467.547	4.42
467.899	4.39
468.252	4.36
468.604	4.33
468.956	4.31
469.308	4.29
469.66	4.29
470.012	4.28
470.364	4.28
470.716	4.28
471.068	4.3
471.42	4.32
471.772	4.34
472.123	4.35
472.475	4.36
472.827	4.37
473.178	4.38
473.53	4.39
473.882	4.4
474.233	4.42
474.585	4.47
474.936	4.53
475.288	4.62
475.639	4.74
475.99	4.89
476.342	5.04
476.693	5.22
477.044	5.39
477.395	5.58
477.746	5.76
478.097	5.94
478.448	6.13
478.8	6.31
479.15	6.48
479.501	6.64
479.852	6.78
480.203	6.91
480.554	7.04
480.905	7.17
481.255	7.29
481.606	7.4
481.957	7.5
482.307	7.6
482.658	7.7
483.009	7.79
483.359	7.88
483.709	7.97
484.06	8.05
484.41	8.13
484.761	8.21
485.111	8.29
485.461	8.36
485.811	8.42
486.162	8.48
486.512	8.54
486.862	8.58
487.212	8.61
487.562	8.63
487.912	8.65
488.262	8.65
488.612	8.65
488.961	8.62
489.311	8.58
489.661	8.51
490.011	8.41
490.36	8.3
490.71	8.17
491.06	8.02
491.409	7.87
491.759	7.71
492.108	7.54
492.458	7.38
492.807	7.2
493.157	7.02
493.506	6.85
493.855	6.69
494.204	6.54
494.554	6.39
494.903	6.26
495.252	6.13
495.601	6
495.95	5.88
496.299	5.77
496.648	5.66
496.997	5.56
497.346	5.46
497.695	5.37
498.043	5.28
498.392	5.2
498.741	5.11
499.09	5.02
499.438	4.94
499.787	4.86
500.135	4.79
500.484	4.73
500.832	4.68
501.181	4.63
501.529	4.6
501.878	4.58
502.226	4.56
502.574	4.56
502.923	4.55
503.271	4.55
503.619	4.55
503.967	4.55
504.315	4.55
504.663	4.54
505.011	4.53
505.359	4.52
505.707	4.51
506.055	4.51
506.403	4.51
506.751	4.51
507.098	4.51
507.446	4.51
507.794	4.52
508.141	4.53
508.489	4.55
508.837	4.56
509.184	4.57
509.531	4.58
509.879	4.59
510.226	4.6
510.574	4.62
510.921	4.63
511.268	4.64
511.616	4.66
511.963	4.68
512.31	4.7
512.657	4.71
513.004	4.73
513.351	4.75
513.698	4.75
514.045	4.76
514.392	4.76
514.739	4.76
515.086	4.76
515.432	4.76
515.779	4.75
516.126	4.75
516.473	4.75
516.819	4.75
517.166	4.76
517.512	4.77
517.859	4.78
518.205	4.8
518.552	4.82
518.898	4.85
519.245	4.89
519.591	4.94
519.937	5.02
520.283	5.11
520.629	5.22
520.976	5.33
521.322	5.45
521.668	5.58
522.014	5.69
522.36	5.81
522.706	5.93
523.052	6.04
523.398	6.15
523.743	6.24
524.089	6.32
524.435	6.39
524.781	6.46
525.126	6.51
525.472	6.57
525.817	6.62
526.163	6.68
526.509	6.72
526.854	6.77
527.199	6.81
527.545	6.86
527.89	6.91
528.235	6.95
528.581	7
528.926	7.05
529.271	7.09
529.616	7.13
529.961	7.16
530.306	7.19
530.651	7.22
530.996	7.23
531.341	7.24
531.686	7.25
532.031	7.24
532.376	7.25
532.721	7.24
533.065	7.25
533.41	7.25
533.755	7.25
534.099	7.21
534.444	7.18
534.788	7.14
535.133	7.1
535.477	7.05
535.822	6.99
536.166	6.93
536.51	6.86
536.855	6.78
537.199	6.7
537.543	6.62
537.887	6.55
538.231	6.48
538.576	6.42
538.92	6.36
539.264	6.31
539.608	6.25
539.951	6.19
540.295	6.13
540.639	6.06
540.983	6
541.327	5.95
541.671	5.89
542.014	5.83
542.358	5.77
542.701	5.73
543.045	5.7
543.389	5.67
543.732	5.65
544.075	5.63
544.419	5.62
544.762	5.59
545.105	5.58
545.449	5.57
545.792	5.56
546.135	5.55
546.478	5.54
546.821	5.52
547.165	5.49
547.508	5.44
547.851	5.39
548.194	5.34
548.536	5.27
548.879	5.2
549.222	5.13
549.565	5.06
549.908	4.98
550.25	4.92
550.593	4.86
550.936	4.81
551.278	4.77
551.621	4.74
551.963	4.71
552.306	4.69
552.648	4.67
552.991	4.65
553.333	4.64
553.675	4.63
554.017	4.63
554.36	4.63
554.702	4.64
555.044	4.64
555.386	4.66
555.728	4.67
556.07	4.67
556.412	4.68
556.754	4.69
557.096	4.69
557.438	4.69
557.78	4.69
558.121	4.69
558.463	4.69
558.805	4.7
559.147	4.7
559.488	4.7
559.83	4.7
560.171	4.71
560.513	4.71
560.854	4.7
561.196	4.7
561.537	4.7
561.878	4.7
562.22	4.7
562.561	4.7
562.902	4.71
563.243	4.72
563.584	4.72
563.925	4.73
564.266	4.73
564.607	4.73
564.948	4.73
565.289	4.74
565.63	4.74
565.971	4.74
566.312	4.75
566.653	4.75
566.993	4.75
567.334	4.75
567.675	4.76
568.015	4.77
568.356	4.77
568.696	4.77
569.037	4.77
569.377	4.78
569.718	4.78
570.058	4.79
570.398	4.79
570.739	4.79
571.079	4.79
571.419	4.78
571.759	4.79
572.099	4.78
572.439	4.78
572.779	4.79
573.119	4.79
573.459	4.78
573.799	4.78
574.139	4.79
574.479	4.79
574.819	4.78
575.158	4.78
575.498	4.79
575.838	4.78
576.177	4.79
576.517	4.79
576.856	4.78
577.196	4.78
577.535	4.78
577.875	4.77
578.214	4.77
578.553	4.78
578.893	4.77
579.232	4.77
579.571	4.77
579.91	4.76
580.25	4.76
580.589	4.76
580.928	4.75
581.267	4.74
581.606	4.74
581.945	4.74
582.283	4.74
582.622	4.74
582.961	4.74
583.3	4.75
583.639	4.74
583.977	4.74
584.316	4.74
584.654	4.75
584.993	4.74
585.332	4.74
585.67	4.74
586.008	4.74
586.347	4.74
586.685	4.74
587.024	4.74
587.362	4.75
587.7	4.75
588.038	4.75
588.376	4.74
588.715	4.75
589.053	4.76
589.391	4.76
589.729	4.76
590.067	4.77
590.404	4.77
590.742	4.77
591.08	4.77
591.418	4.78
591.756	4.78
592.093	4.79
592.431	4.79
592.769	4.8
593.106	4.8
593.444	4.81
593.781	4.8
594.119	4.8
594.456	4.8
594.793	4.8
595.131	4.81
595.468	4.81
595.805	4.8
596.143	4.81
596.48	4.81
596.817	4.81
597.154	4.81
597.491	4.82
597.828	4.82
598.165	4.83
598.502	4.83
598.839	4.84
599.176	4.84
599.512	4.85
599.849	4.85
600.186	4.86
600.523	4.85
600.859	4.86
601.196	4.86
601.532	4.87
601.869	4.87
602.205	4.88
602.542	4.88
602.878	4.88
603.215	4.87
603.551	4.88
603.887	4.88
604.223	4.88
604.56	4.89
604.896	4.89
605.232	4.89
605.568	4.89
605.904	4.89
606.24	4.9
606.576	4.9
606.912	4.9
607.248	4.9
607.583	4.91
607.919	4.91
608.255	4.91
608.591	4.91
608.926	4.91
609.262	4.91
609.597	4.91
609.933	4.92
610.268	4.93
610.604	4.94
610.939	4.94
611.275	4.94
611.61	4.94
611.945	4.93
612.281	4.93
612.616	4.92
612.951	4.91
613.286	4.91
613.621	4.9
613.956	4.89
614.291	4.9
614.626	4.9
614.961	4.9
615.296	4.9
615.631	4.91
615.966	4.91
616.3	4.91
616.635	4.9
616.97	4.89
617.304	4.89
617.639	4.88
617.973	4.88
618.308	4.88
618.642	4.88
618.977	4.87
619.311	4.86
619.646	4.87
619.98	4.88
620.314	4.88
620.648	4.88
620.983	4.89
621.317	4.88
621.651	4.89
621.985	4.89
622.319	4.88
622.653	4.89
622.987	4.89
623.321	4.89
623.655	4.89
623.988	4.9
624.322	4.89
624.656	4.9
624.99	4.9
625.323	4.9
625.657	4.91
625.99	4.92
626.324	4.93
626.657	4.93
626.991	4.93
627.324	4.93
627.658	4.94
627.991	4.94
628.324	4.94
628.657	4.94
628.991	4.95
629.324	4.95
629.657	4.97
629.99	4.97
630.323	4.98
630.656	4.98
630.989	4.98
631.322	4.99
631.655	4.99
631.987	4.99
632.32	4.99
632.653	4.99
632.986	5
633.318	5
633.651	4.99
633.984	4.99
634.316	5
634.649	5
634.981	5
635.313	5
635.646	5
635.978	5
636.31	4.99
636.643	4.99
636.975	4.99
637.307	4.98
637.639	4.98
637.971	4.99
638.303	4.98
638.635	4.99
638.967	4.99
639.299	4.99
639.631	5
639.963	5.01
640.295	5.02
640.626	5.04
640.958	5.04
641.29	5.03
641.621	5.04
641.953	5.06
642.285	5.06
642.616	5.07
642.948	5.06
643.279	5.08
643.61	5.07
643.942	5.07
644.273	5.08
644.604	5.07
644.936	5.07
645.267	5.08
645.598	5.09
645.929	5.09
646.26	5.1
646.591	5.1
646.922	5.1
647.253	5.11
647.584	5.1
647.915	5.11
648.245	5.12
648.576	5.12
648.907	5.11
649.238	5.12
649.568	5.11
649.899	5.11
650.229	5.12
650.56	5.14
650.89	5.14
651.221	5.15
651.551	5.16
651.882	5.17
652.212	5.16
652.542	5.16
652.872	5.16
653.203	5.17
653.533	5.17
653.863	5.17
654.193	5.16
654.523	5.16
654.853	5.16
655.183	5.16
655.513	5.16
655.843	5.17
656.172	5.17
656.502	5.17
656.832	5.16
657.162	5.17
657.491	5.17
657.821	5.16
658.15	5.17
658.48	5.17
658.809	5.16
659.139	5.16
659.468	5.17
659.798	5.17
660.127	5.17
660.456	5.2
660.785	5.21
661.115	5.22
661.444	5.22
661.773	5.23
662.102	5.23
662.431	5.23
662.76	5.23
663.089	5.24
663.418	5.25
663.747	5.24
664.076	5.25
664.404	5.26
664.733	5.27
665.062	5.28
665.39	5.29
665.719	5.29
666.048	5.28
666.376	5.28
666.705	5.27
667.033	5.26
667.362	5.25
667.69	5.26
668.018	5.25
668.347	5.25
668.675	5.24
669.003	5.25
669.331	5.25
669.659	5.26
669.987	5.27
670.315	5.26
670.643	5.27
670.971	5.28
671.299	5.29
671.627	5.28
671.955	5.27
672.283	5.27
672.61	5.29
672.938	5.3
673.266	5.31
673.593	5.31
673.921	5.32
674.249	5.32
674.576	5.33
674.904	5.35
675.231	5.36
675.558	5.37
675.886	5.4
676.213	5.39
676.54	5.4
676.867	5.4
677.195	5.41
677.522	5.42
677.849	5.44
678.176	5.44
678.503	5.45
678.83	5.45
679.157	5.46
679.484	5.46
679.81	5.45
680.137	5.45
680.464	5.46
680.791	5.46
681.117	5.46
681.444	5.46
681.771	5.46
682.097	5.46
682.424	5.45
682.75	5.44
683.077	5.44
683.403	5.44
683.729	5.44
684.056	5.44
684.382	5.43
684.708	5.42
685.034	5.43
685.36	5.43
685.686	5.45
686.012	5.46
686.339	5.48
686.664	5.48
686.99	5.49
687.316	5.5
687.642	5.51
687.968	5.54
688.294	5.54
688.619	5.54
688.945	5.55
689.271	5.55
689.596	5.56
689.922	5.58
690.247	5.59
690.573	5.6
690.898	5.62
691.224	5.63
691.549	5.63
691.874	5.62
692.2	5.64
692.525	5.65
692.85	5.64
693.175	5.65
693.5	5.67
693.825	5.67
694.15	5.67
694.475	5.67
694.8	5.66
695.125	5.66
695.45	5.7
695.775	5.7
696.099	5.7
696.424	5.7
696.749	5.71
697.073	5.72
697.398	5.72
697.723	5.72
698.047	5.73
698.372	5.74
698.696	5.72
699.02	5.72
699.345	5.71
699.669	5.72
699.993	5.73
700.318	5.72
700.642	5.71
700.966	5.71
701.29	5.71
701.614	5.71
701.938	5.72
702.262	5.73
702.586	5.72
702.91	5.72
703.234	5.73
703.557	5.72
703.881	5.71
704.205	5.73
704.529	5.75
704.852	5.73
705.176	5.75
705.499	5.77
705.823	5.78
706.146	5.78
706.47	5.79
706.793	5.81
707.117	5.92
707.44	5.92
707.763	5.9
708.086	5.92
708.409	5.91
708.733	5.9
709.056	5.91
709.379	5.9
709.702	5.92
710.025	5.93
710.348	5.76
710.671	5.77
710.993	5.77
711.316	5.77
711.639	5.8
711.962	5.8
712.284	5.8
712.607	5.81
712.93	5.82
713.252	5.83
713.575	5.82
713.897	5.82
714.22	5.83
714.542	5.86
714.864	5.92
715.187	5.96
715.509	5.95
715.831	5.95
716.153	5.97
716.475	5.94
716.798	5.94
717.12	6.12
717.442	6.14
717.764	6.13
718.085	6.05
718.407	6.06
718.729	6.03
719.051	6.04
719.373	6.05
719.695	6.05
720.016	6.03
720.338	5.95
720.659	5.97
720.981	6
721.302	6
721.624	6.01
721.945	5.99
722.267	5.98
722.588	6
722.909	6.04
723.231	6.07
723.552	6.08
723.873	6.11
724.194	6.12
724.515	6.15
724.836	6.27
725.157	6.27
725.478	6.3
725.799	6.31
726.12	6.31
726.441	6.31
726.762	6.32
727.083	6.3
727.403	6.31
727.724	6.28
728.045	6.21
728.365	6.24
728.686	6.29
729.006	6.3
729.327	6.31
729.647	6.3
729.967	6.3
730.288	6.31
730.608	6.31
730.928	6.33
731.249	6.34
731.569	6.35
731.889	6.35
732.209	6.37
732.529	6.38
732.849	6.4
733.169	6.42
733.489	6.43
733.809	6.44
734.129	6.44
734.448	6.48
734.768	6.47
735.088	6.48
735.408	6.5
735.727	6.5
736.047	6.52
736.366	6.52
736.686	6.53
737.005	6.52
737.325	6.49
737.644	6.49
737.963	6.48
738.283	6.49
738.602	6.5
738.921	6.5
739.24	6.5
739.56	6.51
739.879	6.51
740.198	6.54
740.517	6.53
740.836	6.54
741.155	6.55
741.473	6.58
741.792	6.6
742.111	6.62
742.43	6.63
742.748	6.64
743.067	6.63
743.386	6.65
743.704	6.65
744.023	6.68
744.341	6.67
744.66	6.69
744.978	6.65
745.297	6.66
745.615	6.64
745.933	6.64
746.252	6.61
746.57	6.54
746.888	6.53
747.206	6.52
747.524	6.49
747.842	6.5
748.16	6.52
748.478	6.53
748.796	6.49
749.114	6.47
749.432	6.47
749.749	6.51
750.067	6.52
750.385	6.53
750.703	6.54
751.02	6.53
751.338	6.54
751.655	6.61
751.973	6.65
752.29	6.64
752.608	6.68
752.925	6.7
753.242	6.78
753.56	6.83
753.877	6.79
754.194	6.85
754.511	6.81
754.828	6.76
755.145	6.81
755.462	6.83
755.779	6.83
756.096	6.87
756.413	6.83
756.73	6.82
757.047	6.83
757.364	6.85
757.68	6.86
757.997	6.85
758.314	6.86
758.63	6.88
758.947	6.94
759.264	6.94
759.58	6.97
759.896	6.97
760.213	7
760.529	7.02
760.846	7.01
761.162	7.01
761.478	7.02
761.794	7.02
762.11	7.04
762.426	7.07
762.743	7.05
763.059	7.13
763.375	7.16
763.69	7.17
764.006	7.19
764.322	7.2
764.638	7.18
764.954	7.2
765.27	7.22
765.585	7.2
765.901	7.23
766.216	7.08
766.532	7.03
766.848	7.03
767.163	7.07
767.478	7.16
767.794	7.2
768.109	7.19
768.424	7.21
768.74	7.23
769.055	7.23
769.37	7.28
769.685	7.26
770	7.27
770.315	7.29
770.63	7.2
770.945	7.17
771.26	7.19
771.575	7.17
771.89	7.1
772.205	7.12
772.52	7.11
772.834	7.32
773.149	7.36
773.464	7.29
773.778	7.29
774.093	7.31
774.407	7.3
774.722	7.33
775.036	7.31
775.351	7.3
775.665	7.26
775.979	7.1
776.293	7.12
776.608	7.15
776.922	7.12
777.236	7.21
777.55	7.3
777.864	7.31
778.178	7.36
778.492	7.3
778.806	7.28
779.12	7.32
779.434	7.35
779.747	7.29
780.061	7.38
780.375	7.3
780.689	7.24
781.002	7.23
781.316	7.22
781.629	7.31
781.943	7.35
782.256	7.39
782.57	7.46
782.883	7.44
783.196	7.4
783.51	7.49
783.823	7.53
784.136	7.49
784.449	7.54
784.762	7.61
785.075	7.69
785.388	7.63
785.701	7.6
786.014	7.6
786.327	7.62
786.64	7.61
786.953	7.65
787.266	7.72
787.578	7.7
787.891	7.73
788.204	7.7
788.516	7.75
788.829	7.82
789.141	7.76
789.454	7.75
789.766	7.79
790.079	7.8
790.391	7.79
790.703	7.9
791.016	7.79
791.328	7.86
791.64	7.92
791.952	7.97
792.264	8
792.576	8.04
792.888	8.05
793.2	8.05
793.512	8.06
793.824	7.99
794.136	7.96
794.448	7.97
794.76	8
795.071	8.05
795.383	8.02
795.695	8.16
796.006	8.25
796.318	8.26
796.629	8.28
796.941	8.24
797.252	8.22
797.564	8.25
797.875	8.18
798.186	8.15
798.497	8.13
798.809	8.04
799.12	8.05
799.431	8.03
799.742	8.01
800.053	7.94
800.364	8.05
800.675	8.05
800.986	8.07
801.297	8.15
801.608	8.13
801.918	8.14
802.229	8.12
802.54	8.06
802.851	8.03
803.161	8.04
803.472	8.05
803.782	7.98
804.093	8.02
804.403	7.91
804.714	8.03
805.024	8.07
805.334	8.25
805.645	8.24
805.955	8.27
806.265	8.29
806.575	8.41
806.885	8.34
807.195	8.33
807.505	8.32
807.815	8.27
808.125	8.34
808.435	8.35
808.745	8.3
809.055	8.29
809.365	8.4
809.674	8.45
809.984	8.49
810.294	8.54
810.603	8.53
810.913	8.82
811.222	8.79
811.532	8.85
811.841	8.91
812.151	8.97
812.46	8.98
812.769	9.1
813.079	9.07
813.388	9.15
813.697	9.12
814.006	9.06
814.315	9.11
814.624	9.15
814.933	9.16
815.242	9.1
815.551	9.18
815.86	9.12
816.169	9.08
816.478	9.1
816.786	9.06
817.095	9.05
817.404	9.03
817.712	9.03
818.021	8.95
818.33	8.98
818.638	9.01
818.947	8.99
819.255	9.01
819.563	9.05
819.872	9.05
820.18	9.06
820.488	9.07
820.796	9.04
821.105	9.03
821.413	9.06
821.721	9.1
822.029	9.11
822.337	9.15
822.645	9.15
822.953	9.12
823.26	9.15
823.568	9.17
823.876	9.14
824.184	9.16
824.491	9.13
824.799	9.15
825.107	9.15
825.414	9.14
825.722	9.16
826.029	9.14
826.337	9.16
826.644	9.17
826.951	9.2
827.259	9.22
827.566	9.28
827.873	9.3
828.18	9.27
828.488	9.26
828.795	9.28
829.102	9.3
829.409	9.33
829.716	9.36
830.023	9.37
830.329	9.42
830.636	9.44
830.943	9.5
831.25	9.55
831.557	9.58
831.863	9.61
832.17	9.63
832.476	9.67
832.783	9.67
833.089	9.71
833.396	9.67
833.702	9.7
834.009	9.65
834.315	9.64
834.621	9.71
834.928	9.74
835.234	9.76
835.54	9.82
835.846	9.87
836.152	9.84
836.458	9.89
836.764	9.83
837.07	9.88
837.376	9.75
837.682	9.67
837.988	9.79
838.293	9.68
838.599	9.75
838.905	9.71
839.211	9.77
839.516	9.82
839.822	9.89
840.127	9.8
840.433	9.88
840.738	9.86
841.044	9.94
841.349	10
841.654	10.08
841.959	10.13
842.265	10.05
842.57	10.04
842.875	10.03
843.18	10.19
843.485	10.25
843.79	10.38
844.095	10.49
844.4	10.31
844.705	10.56
845.01	10.54
845.315	10.62
845.619	10.49
845.924	10.44
846.229	10.09
846.533	10.18
846.838	10.29
847.142	10.12
847.447	10.04
847.751	9.86
848.056	9.88
848.36	9.89
848.664	9.88
848.969	9.88
849.273	9.78
849.577	9.67
849.881	9.63
850.185	9.74
850.489	10.06
850.794	10.28
851.097	10.14
851.401	10.34
851.705	10.41
852.009	10.44
852.313	10.46
852.617	10.52
852.92	10.45
853.224	10.44
853.528	10.21
853.831	10.18
854.135	10.01
854.438	10.09
854.742	10.25
855.045	10.47
855.349	10.61
855.652	10.92
855.955	10.99
856.259	11.1
856.562	11.3
856.865	11.26
857.168	11.17
857.471	11.22
857.774	11.18
858.077	10.96
858.38	11.04
858.683	11.16
858.986	10.97
859.289	11.11
859.592	11.25
859.894	11.64
860.197	11.7
860.5	11.69
860.802	11.7
861.105	11.72
861.407	11.91
861.71	12
862.012	11.94
862.315	12.03
862.617	11.82
862.919	11.26
863.222	11.38
863.524	11.55
863.826	11.72
864.128	11.79
864.43	11.81
864.732	11.69
865.034	11.91
865.336	11.97
865.638	11.92
865.94	11.9
866.242	11.95
866.544	11.5
866.846	11.81
867.147	11.6
867.449	11.36
867.751	11.43
868.052	11.39
868.354	11.21
868.655	11.25
868.957	11.19
869.258	11.18
869.56	11.21
869.861	11.32
870.162	11.18
870.463	11.14
870.765	11.31
871.066	11.48
871.367	11.34
871.668	11.5
871.969	11.37
872.27	11.24
872.571	11.36
872.872	11.8
873.173	11.63
873.473	11.91
873.774	12
874.075	11.93
874.376	12.2
874.676	12.19
874.977	12.2
875.277	12.1
875.578	11.98
875.878	11.61
876.179	11.58
876.479	11.45
876.78	11.45
877.08	11.57
877.38	11.58
877.68	11.7
877.981	11.58
878.281	11.6
878.581	11.48
