Data from UWBM59333_Reflection_00010.txt Node
Date: Sun May 02 13:48:43 EDT 2021
User: vgr7
Spectrometer: USB2G7710
Scans to average: 10
Trigger mode: 4
Integration Time (sec): 1.000000E-1
Electric dark correction enabled: true
Boxcar width: 20
XAxis mode: Wavelengths
Number of Pixels in Spectrum: 2048
>>>>>Begin Spectral Data<<<<<
177.721	24.64
178.105	1.96
178.488	10.85
178.871	32.29
179.254	15.91
179.636	17.62
180.019	7.38
180.402	7.42
180.785	14.01
181.168	19.51
181.55	15.19
181.933	21.39
182.316	18.85
182.698	20.1
183.081	18.78
183.463	14.95
183.846	12.83
184.228	14.03
184.611	14.98
184.993	13.63
185.376	13.33
185.758	16.56
186.14	18.05
186.522	13.05
186.904	12.74
187.287	13.92
187.669	14.65
188.051	12.87
188.433	12.77
188.815	9.38
189.197	7.2
189.579	7.8
189.961	5.85
190.342	2.84
190.724	4.82
191.106	7.18
191.488	7.57
191.869	6
192.251	3.71
192.633	2.12
193.014	2.61
193.396	2.32
193.777	4.04
194.159	4.68
194.54	3.42
194.922	4.36
195.303	3.14
195.684	2.83
196.065	1
196.447	1.82
196.828	0.76
197.209	-0.15
197.59	-2.47
197.971	-3.2
198.352	-1.89
198.733	0.74
199.114	1.42
199.495	3.54
199.876	3.1
200.257	4.15
200.638	3.76
201.018	5.4
201.399	6.38
201.78	5.79
202.16	5.6
202.541	5.75
202.922	4.57
203.302	5.31
203.683	6.62
204.063	8.2
204.444	8.53
204.824	9.4
205.204	8.43
205.585	10.09
205.965	13.65
206.345	13.19
206.725	13.28
207.106	12.64
207.486	13.51
207.866	15.5
208.246	16.41
208.626	15.49
209.006	14.31
209.386	13.78
209.766	12.21
210.145	11.7
210.525	11.02
210.905	13.64
211.285	13.2
211.664	15.21
212.044	14.05
212.424	12.28
212.803	13.01
213.183	13
213.562	13.86
213.942	11.8
214.321	9.84
214.701	9.56
215.08	9.06
215.459	9.1
215.838	6.78
216.218	7.08
216.597	7.06
216.976	5.63
217.355	4.84
217.734	5.84
218.113	5.18
218.492	6.06
218.871	5.26
219.25	5.3
219.629	5.36
220.008	5.96
220.387	4.79
220.766	5.6
221.144	4.59
221.523	4.26
221.902	4.14
222.28	4.1
222.659	4.62
223.037	4.56
223.416	4.97
223.794	5.49
224.173	5.89
224.551	6.42
224.929	7.18
225.308	7.67
225.686	8.09
226.064	7.99
226.442	7.06
226.821	7.82
227.199	8.32
227.577	8.29
227.955	8.88
228.333	8.68
228.711	8.28
229.089	7.64
229.467	7.25
229.845	7.19
230.222	7.52
230.6	7.3
230.978	7.2
231.356	7.36
231.733	7.26
232.111	7.14
232.488	7.04
232.866	7.01
233.243	6.86
233.621	6.81
233.998	6.67
234.376	6.58
234.753	6.29
235.13	6.19
235.508	6.12
235.885	6.08
236.262	6.01
236.639	6
237.016	5.87
237.393	5.85
237.77	5.84
238.147	5.67
238.524	5.64
238.901	5.49
239.278	5.48
239.655	5.44
240.032	5.39
240.409	5.3
240.785	5.26
241.162	5.22
241.539	5.2
241.915	5.21
242.292	5.14
242.668	5.06
243.045	5.05
243.421	5
243.798	5.02
244.174	5.06
244.551	5.07
244.927	5.09
245.303	5.1
245.679	5.07
246.056	5.01
246.432	5.03
246.808	4.99
247.184	4.99
247.56	4.97
247.936	4.97
248.312	4.95
248.688	4.94
249.064	4.94
249.44	4.94
249.815	4.9
250.191	4.85
250.567	4.85
250.943	4.83
251.318	4.82
251.694	4.81
252.069	4.8
252.445	4.77
252.82	4.71
253.196	4.67
253.571	4.66
253.947	4.64
254.322	4.62
254.697	4.58
255.073	4.55
255.448	4.54
255.823	4.51
256.198	4.49
256.573	4.48
256.948	4.48
257.323	4.44
257.698	4.42
258.073	4.4
258.448	4.38
258.823	4.37
259.198	4.35
259.573	4.33
259.948	4.34
260.322	4.33
260.697	4.3
261.072	4.27
261.446	4.27
261.821	4.27
262.195	4.27
262.57	4.25
262.944	4.23
263.319	4.22
263.693	4.22
264.067	4.21
264.442	4.2
264.816	4.18
265.19	4.19
265.564	4.21
265.938	4.2
266.313	4.2
266.687	4.19
267.061	4.19
267.435	4.18
267.809	4.19
268.183	4.2
268.556	4.18
268.93	4.19
269.304	4.19
269.678	4.17
270.051	4.17
270.425	4.16
270.799	4.16
271.172	4.17
271.546	4.18
271.919	4.17
272.293	4.17
272.666	4.18
273.04	4.19
273.413	4.22
273.787	4.23
274.16	4.23
274.533	4.23
274.906	4.22
275.279	4.2
275.653	4.22
276.026	4.23
276.399	4.25
276.772	4.26
277.145	4.24
277.518	4.25
277.891	4.26
278.263	4.25
278.636	4.26
279.009	4.25
279.382	4.24
279.755	4.25
280.127	4.26
280.5	4.27
280.872	4.27
281.245	4.27
281.617	4.27
281.99	4.28
282.362	4.26
282.735	4.25
283.107	4.25
283.479	4.24
283.852	4.27
284.224	4.28
284.596	4.28
284.968	4.28
285.34	4.29
285.713	4.3
286.085	4.3
286.457	4.3
286.829	4.31
287.201	4.31
287.572	4.31
287.944	4.31
288.316	4.3
288.688	4.29
289.06	4.29
289.431	4.3
289.803	4.31
290.175	4.33
290.546	4.34
290.918	4.36
291.289	4.37
291.661	4.37
292.032	4.37
292.403	4.38
292.775	4.39
293.146	4.41
293.517	4.42
293.889	4.43
294.26	4.45
294.631	4.47
295.002	4.49
295.373	4.5
295.744	4.51
296.115	4.52
296.486	4.55
296.857	4.59
297.228	4.6
297.599	4.63
297.97	4.65
298.34	4.66
298.711	4.7
299.082	4.7
299.452	4.72
299.823	4.73
300.194	4.76
300.564	4.78
300.935	4.8
301.305	4.84
301.676	4.85
302.046	4.88
302.416	4.91
302.787	4.91
303.157	4.95
303.527	4.97
303.897	5
304.267	5.03
304.637	5.06
305.008	5.09
305.378	5.13
305.748	5.16
306.117	5.2
306.487	5.24
306.857	5.28
307.227	5.32
307.597	5.36
307.967	5.39
308.336	5.41
308.706	5.42
309.076	5.45
309.445	5.49
309.815	5.51
310.184	5.53
310.554	5.56
310.923	5.6
311.293	5.62
311.662	5.65
312.031	5.68
312.401	5.72
312.77	5.75
313.139	5.78
313.508	5.81
313.877	5.84
314.246	5.89
314.616	5.91
314.985	5.94
315.353	5.98
315.722	6
316.091	6.04
316.46	6.05
316.829	6.1
317.198	6.13
317.567	6.17
317.935	6.22
318.304	6.26
318.672	6.3
319.041	6.37
319.41	6.4
319.778	6.45
320.147	6.47
320.515	6.51
320.883	6.53
321.252	6.55
321.62	6.57
321.988	6.61
322.357	6.64
322.725	6.67
323.093	6.7
323.461	6.73
323.829	6.79
324.197	6.82
324.565	6.84
324.933	6.88
325.301	6.9
325.669	6.92
326.037	6.93
326.405	6.97
326.772	6.98
327.14	6.99
327.508	7
327.875	7.03
328.243	7.04
328.61	7.05
328.978	7.06
329.346	7.07
329.713	7.11
330.08	7.14
330.448	7.15
330.815	7.16
331.182	7.18
331.55	7.21
331.917	7.23
332.284	7.25
332.651	7.27
333.018	7.29
333.385	7.31
333.752	7.34
334.119	7.35
334.486	7.38
334.853	7.39
335.22	7.41
335.587	7.45
335.954	7.48
336.32	7.5
336.687	7.52
337.054	7.53
337.42	7.56
337.787	7.58
338.153	7.59
338.52	7.61
338.886	7.6
339.253	7.63
339.619	7.66
339.986	7.66
340.352	7.68
340.718	7.71
341.084	7.73
341.451	7.73
341.817	7.76
342.183	7.77
342.549	7.79
342.915	7.79
343.281	7.82
343.647	7.83
344.013	7.85
344.379	7.87
344.745	7.88
345.11	7.89
345.476	7.9
345.842	7.92
346.208	7.93
346.573	7.94
346.939	7.95
347.304	7.96
347.67	7.95
348.035	7.95
348.401	7.97
348.766	7.97
349.132	7.98
349.497	7.99
349.862	8
350.228	8
350.593	7.99
350.958	7.99
351.323	7.99
351.688	7.99
352.053	8
352.418	7.99
352.783	7.98
353.148	7.97
353.513	7.97
353.878	7.97
354.243	7.96
354.608	7.95
354.972	7.96
355.337	7.95
355.702	7.95
356.066	7.94
356.431	7.93
356.795	7.92
357.16	7.9
357.524	7.9
357.889	7.9
358.253	7.88
358.618	7.86
358.982	7.85
359.346	7.84
359.71	7.82
360.075	7.81
360.439	7.8
360.803	7.78
361.167	7.77
361.531	7.76
361.895	7.73
362.259	7.71
362.623	7.69
362.987	7.68
363.351	7.66
363.714	7.64
364.078	7.6
364.442	7.57
364.806	7.55
365.169	7.52
365.533	7.49
365.896	7.47
366.26	7.45
366.623	7.42
366.987	7.39
367.35	7.36
367.714	7.33
368.077	7.31
368.44	7.27
368.803	7.23
369.167	7.19
369.53	7.15
369.893	7.11
370.256	7.06
370.619	7.01
370.982	6.97
371.345	6.93
371.708	6.89
372.071	6.85
372.434	6.81
372.797	6.76
373.159	6.73
373.522	6.7
373.885	6.66
374.247	6.61
374.61	6.57
374.973	6.52
375.335	6.48
375.698	6.43
376.06	6.4
376.423	6.35
376.785	6.3
377.147	6.27
377.51	6.23
377.872	6.19
378.234	6.15
378.596	6.11
378.958	6.07
379.321	6.04
379.683	6
380.045	5.97
380.407	5.94
380.769	5.9
381.13	5.86
381.492	5.83
381.854	5.79
382.216	5.76
382.578	5.72
382.939	5.7
383.301	5.66
383.663	5.64
384.024	5.6
384.386	5.58
384.747	5.55
385.109	5.52
385.47	5.49
385.832	5.46
386.193	5.42
386.554	5.4
386.916	5.37
387.277	5.34
387.638	5.32
387.999	5.29
388.36	5.27
388.721	5.24
389.082	5.22
389.443	5.2
389.804	5.17
390.165	5.15
390.526	5.13
390.887	5.1
391.248	5.08
391.609	5.07
391.969	5.04
392.33	5.02
392.691	5
393.051	4.98
393.412	4.96
393.772	4.95
394.133	4.92
394.493	4.9
394.854	4.87
395.214	4.85
395.574	4.83
395.935	4.82
396.295	4.79
396.655	4.78
397.015	4.75
397.376	4.73
397.736	4.71
398.096	4.69
398.456	4.67
398.816	4.66
399.176	4.64
399.535	4.62
399.895	4.61
400.255	4.6
400.615	4.58
400.975	4.57
401.334	4.56
401.694	4.55
402.054	4.53
402.413	4.52
402.773	4.51
403.132	4.5
403.492	4.49
403.851	4.48
404.211	4.47
404.57	4.46
404.929	4.45
405.288	4.45
405.648	4.44
406.007	4.44
406.366	4.43
406.725	4.42
407.084	4.42
407.443	4.42
407.802	4.41
408.161	4.41
408.52	4.4
408.879	4.4
409.238	4.4
409.596	4.4
409.955	4.39
410.314	4.39
410.673	4.39
411.031	4.39
411.39	4.39
411.748	4.38
412.107	4.39
412.465	4.39
412.824	4.41
413.182	4.43
413.54	4.45
413.899	4.47
414.257	4.5
414.615	4.53
414.974	4.56
415.332	4.59
415.69	4.62
416.048	4.65
416.406	4.68
416.764	4.71
417.122	4.73
417.48	4.76
417.838	4.78
418.195	4.8
418.553	4.82
418.911	4.83
419.269	4.83
419.626	4.83
419.984	4.81
420.342	4.8
420.699	4.78
421.057	4.76
421.414	4.73
421.772	4.71
422.129	4.7
422.486	4.69
422.844	4.68
423.201	4.67
423.558	4.67
423.915	4.66
424.273	4.66
424.63	4.65
424.987	4.65
425.344	4.65
425.701	4.64
426.058	4.64
426.415	4.64
426.772	4.63
427.128	4.62
427.485	4.6
427.842	4.59
428.199	4.57
428.555	4.54
428.912	4.52
429.269	4.49
429.625	4.46
429.982	4.43
430.338	4.4
430.695	4.38
431.051	4.34
431.407	4.32
431.764	4.3
432.12	4.27
432.476	4.26
432.832	4.25
433.189	4.25
433.545	4.25
433.901	4.27
434.257	4.29
434.613	4.31
434.969	4.33
435.325	4.36
435.681	4.4
436.036	4.42
436.392	4.44
436.748	4.46
437.104	4.47
437.459	4.49
437.815	4.51
438.171	4.53
438.526	4.56
438.882	4.59
439.237	4.63
439.593	4.66
439.948	4.69
440.304	4.73
440.659	4.75
441.014	4.78
441.369	4.81
441.725	4.83
442.08	4.84
442.435	4.86
442.79	4.86
443.145	4.87
443.5	4.87
443.855	4.87
444.21	4.87
444.565	4.86
444.92	4.85
445.275	4.84
445.629	4.83
445.984	4.82
446.339	4.8
446.693	4.79
447.048	4.77
447.403	4.75
447.757	4.72
448.112	4.7
448.466	4.68
448.82	4.65
449.175	4.62
449.529	4.6
449.883	4.58
450.238	4.55
450.592	4.54
450.946	4.53
451.3	4.53
451.654	4.53
452.008	4.53
452.362	4.53
452.716	4.53
453.07	4.53
453.424	4.52
453.778	4.51
454.132	4.5
454.486	4.48
454.839	4.46
455.193	4.44
455.547	4.43
455.9	4.39
456.254	4.37
456.607	4.34
456.961	4.31
457.314	4.29
457.668	4.28
458.021	4.27
458.375	4.27
458.728	4.27
459.081	4.27
459.434	4.27
459.787	4.28
460.141	4.3
460.494	4.3
460.847	4.31
461.2	4.32
461.553	4.32
461.906	4.33
462.259	4.34
462.611	4.34
462.964	4.35
463.317	4.35
463.67	4.36
464.022	4.37
464.375	4.38
464.728	4.39
465.08	4.39
465.433	4.4
465.785	4.4
466.138	4.39
466.49	4.38
466.843	4.36
467.195	4.34
467.547	4.33
467.899	4.3
468.252	4.28
468.604	4.26
468.956	4.24
469.308	4.23
469.66	4.23
470.012	4.22
470.364	4.23
470.716	4.24
471.068	4.25
471.42	4.28
471.772	4.3
472.123	4.32
472.475	4.33
472.827	4.34
473.178	4.35
473.53	4.37
473.882	4.38
474.233	4.41
474.585	4.45
474.936	4.51
475.288	4.61
475.639	4.72
475.99	4.86
476.342	5.01
476.693	5.17
477.044	5.34
477.395	5.52
477.746	5.69
478.097	5.87
478.448	6.05
478.8	6.22
479.15	6.38
479.501	6.53
479.852	6.66
480.203	6.79
480.554	6.92
480.905	7.03
481.255	7.14
481.606	7.25
481.957	7.35
482.307	7.45
482.658	7.54
483.009	7.62
483.359	7.71
483.709	7.8
484.06	7.87
484.41	7.95
484.761	8.03
485.111	8.1
485.461	8.17
485.811	8.23
486.162	8.29
486.512	8.34
486.862	8.38
487.212	8.41
487.562	8.43
487.912	8.44
488.262	8.44
488.612	8.44
488.961	8.42
489.311	8.37
489.661	8.3
490.011	8.21
490.36	8.11
490.71	7.98
491.06	7.85
491.409	7.7
491.759	7.56
492.108	7.4
492.458	7.24
492.807	7.08
493.157	6.92
493.506	6.77
493.855	6.62
494.204	6.49
494.554	6.35
494.903	6.23
495.252	6.12
495.601	6.02
495.95	5.91
496.299	5.82
496.648	5.72
496.997	5.64
497.346	5.57
497.695	5.49
498.043	5.42
498.392	5.36
498.741	5.29
499.09	5.24
499.438	5.19
499.787	5.14
500.135	5.11
500.484	5.07
500.832	5.05
501.181	5.05
501.529	5.07
501.878	5.09
502.226	5.13
502.574	5.17
502.923	5.22
503.271	5.27
503.619	5.32
503.967	5.38
504.315	5.43
504.663	5.49
505.011	5.55
505.359	5.61
505.707	5.67
506.055	5.74
506.403	5.81
506.751	5.89
507.098	5.97
507.446	6.05
507.794	6.14
508.141	6.23
508.489	6.34
508.837	6.44
509.184	6.55
509.531	6.67
509.879	6.79
510.226	6.92
510.574	7.06
510.921	7.21
511.268	7.36
511.616	7.52
511.963	7.68
512.31	7.85
512.657	8.01
513.004	8.17
513.351	8.33
513.698	8.48
514.045	8.62
514.392	8.76
514.739	8.89
515.086	9.02
515.432	9.15
515.779	9.28
516.126	9.41
516.473	9.56
516.819	9.71
517.166	9.89
517.512	10.07
517.859	10.28
518.205	10.49
518.552	10.73
518.898	10.99
519.245	11.28
519.591	11.64
519.937	12.05
520.283	12.52
520.629	13.04
520.976	13.58
521.322	14.15
521.668	14.73
522.014	15.32
522.36	15.91
522.706	16.49
523.052	17.06
523.398	17.6
523.743	18.1
524.089	18.55
524.435	18.97
524.781	19.4
525.126	19.81
525.472	20.22
525.817	20.62
526.163	21.01
526.509	21.39
526.854	21.78
527.199	22.16
527.545	22.54
527.89	22.94
528.235	23.33
528.581	23.71
528.926	24.06
529.271	24.39
529.616	24.71
529.961	25.02
530.306	25.32
530.651	25.6
530.996	25.86
531.341	26.09
531.686	26.32
532.031	26.52
532.376	26.76
532.721	27.01
533.065	27.28
533.41	27.57
533.755	27.83
534.099	28.07
534.444	28.27
534.788	28.46
535.133	28.62
535.477	28.78
535.822	28.9
536.166	28.99
536.51	29.03
536.855	29.03
537.199	29
537.543	28.97
537.887	28.96
538.231	28.99
538.576	29.02
538.92	29.03
539.264	29.04
539.608	29.02
539.951	28.99
540.295	28.96
540.639	28.92
540.983	28.85
541.327	28.77
541.671	28.68
542.014	28.61
542.358	28.55
542.701	28.55
543.045	28.62
543.389	28.71
543.732	28.82
544.075	28.94
544.419	29.08
544.762	29.22
545.105	29.37
545.449	29.54
545.792	29.71
546.135	29.88
546.478	30.02
546.821	30.13
547.165	30.18
547.508	30.18
547.851	30.14
548.194	30.07
548.536	29.96
548.879	29.82
549.222	29.67
549.565	29.5
549.908	29.34
550.25	29.2
550.593	29.11
550.936	29.08
551.278	29.1
551.621	29.15
551.963	29.23
552.306	29.32
552.648	29.44
552.991	29.59
553.333	29.75
553.675	29.94
554.017	30.16
554.36	30.4
554.702	30.67
555.044	30.97
555.386	31.32
555.728	31.69
556.07	32.01
556.412	32.34
556.754	32.63
557.096	32.85
557.438	33.08
557.78	33.31
558.121	33.53
558.463	33.76
558.805	33.99
559.147	34.23
559.488	34.47
559.83	34.7
560.171	34.93
560.513	35.15
560.854	35.37
561.196	35.59
561.537	35.81
561.878	36.02
562.22	36.22
562.561	36.42
562.902	36.62
563.243	36.82
563.584	37.03
563.925	37.24
564.266	37.45
564.607	37.65
564.948	37.85
565.289	38.04
565.63	38.24
565.971	38.44
566.312	38.62
566.653	38.81
566.993	38.99
567.334	39.17
567.675	39.35
568.015	39.52
568.356	39.68
568.696	39.85
569.037	40
569.377	40.15
569.718	40.3
570.058	40.46
570.398	40.6
570.739	40.74
571.079	40.87
571.419	40.99
571.759	41.12
572.099	41.26
572.439	41.39
572.779	41.5
573.119	41.63
573.459	41.74
573.799	41.86
574.139	41.97
574.479	42.09
574.819	42.21
575.158	42.33
575.498	42.43
575.838	42.54
576.177	42.66
576.517	42.77
576.856	42.87
577.196	42.97
577.535	43.08
577.875	43.18
578.214	43.27
578.553	43.38
578.893	43.48
579.232	43.58
579.571	43.69
579.91	43.78
580.25	43.88
580.589	43.99
580.928	44.09
581.267	44.19
581.606	44.31
581.945	44.42
582.283	44.52
582.622	44.63
582.961	44.73
583.3	44.84
583.639	44.95
583.977	45.05
584.316	45.16
584.654	45.26
584.993	45.37
585.332	45.48
585.67	45.58
586.008	45.68
586.347	45.78
586.685	45.89
587.024	45.99
587.362	46.08
587.7	46.18
588.038	46.29
588.376	46.4
588.715	46.49
589.053	46.6
589.391	46.72
589.729	46.82
590.067	46.93
590.404	47.04
590.742	47.14
591.08	47.24
591.418	47.34
591.756	47.42
592.093	47.51
592.431	47.59
592.769	47.68
593.106	47.75
593.444	47.81
593.781	47.89
594.119	47.96
594.456	48.02
594.793	48.1
595.131	48.17
595.468	48.23
595.805	48.31
596.143	48.39
596.48	48.47
596.817	48.56
597.154	48.65
597.491	48.73
597.828	48.83
598.165	48.91
598.502	48.99
598.839	49.06
599.176	49.14
599.512	49.22
599.849	49.29
600.186	49.35
600.523	49.41
600.859	49.47
601.196	49.53
601.532	49.61
601.869	49.66
602.205	49.72
602.542	49.78
602.878	49.83
603.215	49.89
603.551	49.94
603.887	49.99
604.223	50.04
604.56	50.1
604.896	50.15
605.232	50.19
605.568	50.25
605.904	50.29
606.24	50.34
606.576	50.38
606.912	50.43
607.248	50.47
607.583	50.51
607.919	50.55
608.255	50.59
608.591	50.63
608.926	50.67
609.262	50.71
609.597	50.74
609.933	50.77
610.268	50.8
610.604	50.82
610.939	50.84
611.275	50.87
611.61	50.88
611.945	50.91
612.281	50.93
612.616	50.95
612.951	50.98
613.286	50.99
613.621	51.02
613.956	51.06
614.291	51.09
614.626	51.13
614.961	51.15
615.296	51.16
615.631	51.19
615.966	51.22
616.3	51.25
616.635	51.28
616.97	51.31
617.304	51.33
617.639	51.36
617.973	51.39
618.308	51.41
618.642	51.44
618.977	51.47
619.311	51.51
619.646	51.56
619.98	51.59
620.314	51.61
620.648	51.64
620.983	51.69
621.317	51.72
621.651	51.76
621.985	51.81
622.319	51.83
622.653	51.88
622.987	51.92
623.321	51.96
623.655	51.99
623.988	52.02
624.322	52.05
624.656	52.09
624.99	52.11
625.323	52.15
625.657	52.18
625.99	52.21
626.324	52.24
626.657	52.25
626.991	52.28
627.324	52.3
627.658	52.34
627.991	52.37
628.324	52.39
628.657	52.41
628.991	52.44
629.324	52.48
629.657	52.51
629.99	52.54
630.323	52.56
630.656	52.58
630.989	52.6
631.322	52.62
631.655	52.67
631.987	52.69
632.32	52.71
632.653	52.75
632.986	52.77
633.318	52.79
633.651	52.81
633.984	52.85
634.316	52.87
634.649	52.88
634.981	52.9
635.313	52.91
635.646	52.92
635.978	52.95
636.31	52.96
636.643	52.97
636.975	52.98
637.307	52.99
637.639	53.03
637.971	53.05
638.303	53.08
638.635	53.11
638.967	53.13
639.299	53.14
639.631	53.16
639.963	53.19
640.295	53.21
640.626	53.23
640.958	53.26
641.29	53.28
641.621	53.31
641.953	53.33
642.285	53.36
642.616	53.39
642.948	53.41
643.279	53.41
643.61	53.45
643.942	53.47
644.273	53.51
644.604	53.53
644.936	53.56
645.267	53.56
645.598	53.58
645.929	53.62
646.26	53.64
646.591	53.65
646.922	53.68
647.253	53.71
647.584	53.73
647.915	53.77
648.245	53.81
648.576	53.85
648.907	53.89
649.238	53.93
649.568	53.95
649.899	53.98
650.229	54.02
650.56	54.05
650.89	54.09
651.221	54.11
651.551	54.13
651.882	54.14
652.212	54.17
652.542	54.19
652.872	54.23
653.203	54.24
653.533	54.28
653.863	54.33
654.193	54.36
654.523	54.4
654.853	54.42
655.183	54.44
655.513	54.46
655.843	54.48
656.172	54.52
656.502	54.54
656.832	54.57
657.162	54.57
657.491	54.59
657.821	54.63
658.15	54.65
658.48	54.68
658.809	54.71
659.139	54.73
659.468	54.74
659.798	54.77
660.127	54.81
660.456	54.84
660.785	54.85
661.115	54.87
661.444	54.88
661.773	54.9
662.102	54.92
662.431	54.92
662.76	54.94
663.089	54.94
663.418	54.97
663.747	54.99
664.076	55.01
664.404	55.03
664.733	55.04
665.062	55.06
665.39	55.09
665.719	55.1
666.048	55.14
666.376	55.17
666.705	55.19
667.033	55.19
667.362	55.2
667.69	55.21
668.018	55.22
668.347	55.24
668.675	55.24
669.003	55.29
669.331	55.3
669.659	55.32
669.987	55.34
670.315	55.36
670.643	55.39
670.971	55.41
671.299	55.41
671.627	55.44
671.955	55.45
672.283	55.46
672.61	55.47
672.938	55.48
673.266	55.5
673.593	55.5
673.921	55.53
674.249	55.56
674.576	55.57
674.904	55.58
675.231	55.6
675.558	55.62
675.886	55.65
676.213	55.67
676.54	55.7
676.867	55.7
677.195	55.72
677.522	55.74
677.849	55.74
678.176	55.77
678.503	55.79
678.83	55.81
679.157	55.83
679.484	55.84
679.81	55.86
680.137	55.89
680.464	55.9
680.791	55.93
681.117	55.93
681.444	55.96
681.771	55.99
682.097	56.02
682.424	56
682.75	56.01
683.077	56.02
683.403	56.03
683.729	56.04
684.056	56.06
684.382	56.07
684.708	56.09
685.034	56.1
685.36	56.11
685.686	56.13
686.012	56.15
686.339	56.17
686.664	56.16
686.99	56.2
687.316	56.2
687.642	56.21
687.968	56.24
688.294	56.26
688.619	56.28
688.945	56.29
689.271	56.33
689.596	56.36
689.922	56.37
690.247	56.37
690.573	56.37
690.898	56.4
691.224	56.41
691.549	56.44
691.874	56.46
692.2	56.48
692.525	56.48
692.85	56.51
693.175	56.51
693.5	56.52
693.825	56.56
694.15	56.57
694.475	56.6
694.8	56.62
695.125	56.63
695.45	56.63
695.775	56.66
696.099	56.68
696.424	56.69
696.749	56.7
697.073	56.71
697.398	56.74
697.723	56.76
698.047	56.77
698.372	56.79
698.696	56.82
699.02	56.84
699.345	56.85
699.669	56.87
699.993	56.91
700.318	56.92
700.642	56.94
700.966	56.95
701.29	56.96
701.614	56.99
701.938	56.99
702.262	57
702.586	56.99
702.91	57
703.234	57.02
703.557	57.06
703.881	57.08
704.205	57.08
704.529	57.12
704.852	57.15
705.176	57.16
705.499	57.16
705.823	57.2
706.146	57.21
706.47	57.22
706.793	57.25
707.117	57.25
707.44	57.27
707.763	57.28
708.086	57.29
708.409	57.31
708.733	57.33
709.056	57.37
709.379	57.38
709.702	57.43
710.025	57.46
710.348	57.47
710.671	57.48
710.993	57.51
711.316	57.53
711.639	57.57
711.962	57.57
712.284	57.59
712.607	57.62
712.93	57.61
713.252	57.63
713.575	57.62
713.897	57.64
714.22	57.65
714.542	57.66
714.864	57.68
715.187	57.7
715.509	57.7
715.831	57.73
716.153	57.75
716.475	57.78
716.798	57.81
717.12	57.84
717.442	57.86
717.764	57.88
718.085	57.89
718.407	57.9
718.729	57.91
719.051	57.91
719.373	57.94
719.695	58.01
720.016	58.04
720.338	58.05
720.659	58.08
720.981	58.11
721.302	58.15
721.624	58.18
721.945	58.21
722.267	58.21
722.588	58.21
722.909	58.22
723.231	58.22
723.552	58.24
723.873	58.26
724.194	58.24
724.515	58.28
724.836	58.26
725.157	58.27
725.478	58.27
725.799	58.27
726.12	58.31
726.441	58.33
726.762	58.38
727.083	58.38
727.403	58.39
727.724	58.38
728.045	58.36
728.365	58.37
728.686	58.4
729.006	58.4
729.327	58.39
729.647	58.39
729.967	58.39
730.288	58.41
730.608	58.42
730.928	58.44
731.249	58.45
731.569	58.46
731.889	58.47
732.209	58.47
732.529	58.49
732.849	58.48
733.169	58.48
733.489	58.5
733.809	58.52
734.129	58.5
734.448	58.5
734.768	58.52
735.088	58.52
735.408	58.54
735.727	58.56
736.047	58.56
736.366	58.58
736.686	58.61
737.005	58.59
737.325	58.59
737.644	58.56
737.963	58.57
738.283	58.57
738.602	58.59
738.921	58.59
739.24	58.59
739.56	58.59
739.879	58.58
740.198	58.57
740.517	58.56
740.836	58.6
741.155	58.61
741.473	58.62
741.792	58.64
742.111	58.64
742.43	58.63
742.748	58.64
743.067	58.63
743.386	58.64
743.704	58.63
744.023	58.61
744.341	58.61
744.66	58.61
744.978	58.61
745.297	58.65
745.615	58.66
745.933	58.67
746.252	58.67
746.57	58.65
746.888	58.68
747.206	58.7
747.524	58.67
747.842	58.66
748.16	58.67
748.478	58.62
748.796	58.63
749.114	58.65
749.432	58.65
749.749	58.62
750.067	58.66
750.385	58.69
750.703	58.71
751.02	58.72
751.338	58.75
751.655	58.75
751.973	58.78
752.29	58.79
752.608	58.76
752.925	58.76
753.242	58.75
753.56	58.81
753.877	58.82
754.194	58.84
754.511	58.86
754.828	58.86
755.145	58.85
755.462	58.93
755.779	58.95
756.096	58.98
756.413	59.01
756.73	59.05
757.047	59.03
757.364	59.05
757.68	59.11
757.997	59.17
758.314	59.16
758.63	59.18
758.947	59.17
759.264	59.2
759.58	59.23
759.896	59.23
760.213	59.24
760.529	59.29
760.846	59.3
761.162	59.3
761.478	59.34
761.794	59.34
762.11	59.32
762.426	59.34
762.743	59.34
763.059	59.32
763.375	59.32
763.69	59.34
764.006	59.36
764.322	59.37
764.638	59.39
764.954	59.37
765.27	59.37
765.585	59.41
765.901	59.4
766.216	59.4
766.532	59.39
766.848	59.42
767.163	59.41
767.478	59.41
767.794	59.42
768.109	59.47
768.424	59.43
768.74	59.4
769.055	59.39
769.37	59.37
769.685	59.37
770	59.4
770.315	59.4
770.63	59.36
770.945	59.36
771.26	59.37
771.575	59.36
771.89	59.38
772.205	59.36
772.52	59.33
772.834	59.3
773.149	59.32
773.464	59.33
773.778	59.32
774.093	59.31
774.407	59.35
774.722	59.37
775.036	59.39
775.351	59.36
775.665	59.34
775.979	59.4
776.293	59.4
776.608	59.41
776.922	59.41
777.236	59.4
777.55	59.41
777.864	59.44
778.178	59.44
778.492	59.46
778.806	59.49
779.12	59.55
779.434	59.58
779.747	59.58
780.061	59.63
780.375	59.61
780.689	59.6
781.002	59.55
781.316	59.58
781.629	59.59
781.943	59.59
782.256	59.61
782.57	59.57
782.883	59.57
783.196	59.56
783.51	59.56
783.823	59.55
784.136	59.53
784.449	59.54
784.762	59.52
785.075	59.54
785.388	59.54
785.701	59.55
786.014	59.56
786.327	59.56
786.64	59.59
786.953	59.64
787.266	59.6
787.578	59.59
787.891	59.6
788.204	59.58
788.516	59.65
788.829	59.62
789.141	59.63
789.454	59.58
789.766	59.58
790.079	59.57
790.391	59.56
790.703	59.57
791.016	59.56
791.328	59.55
791.64	59.59
791.952	59.6
792.264	59.55
792.576	59.52
792.888	59.51
793.2	59.56
793.512	59.52
793.824	59.54
794.136	59.55
794.448	59.55
794.76	59.6
795.071	59.57
795.383	59.64
795.695	59.64
796.006	59.63
796.318	59.6
796.629	59.57
796.941	59.56
797.252	59.58
797.564	59.58
797.875	59.55
798.186	59.59
798.497	59.63
798.809	59.62
799.12	59.58
799.431	59.6
799.742	59.57
800.053	59.57
800.364	59.61
800.675	59.61
800.986	59.67
801.297	59.63
801.608	59.68
801.918	59.72
802.229	59.76
802.54	59.76
802.851	59.76
803.161	59.78
803.472	59.8
803.782	59.79
804.093	59.87
804.403	59.86
804.714	59.84
805.024	59.88
805.334	59.85
805.645	59.9
805.955	59.85
806.265	59.88
806.575	59.85
806.885	59.86
807.195	59.9
807.505	59.9
807.815	59.93
808.125	59.92
808.435	59.95
808.745	59.93
809.055	59.99
809.365	60.03
809.674	60.08
809.984	60.13
810.294	60.18
810.603	60.16
810.913	60.16
811.222	60.1
811.532	60.03
811.841	60.05
812.151	59.96
812.46	59.98
812.769	60.02
813.079	60.08
813.388	60.15
813.697	60.15
814.006	60.19
814.315	60.21
814.624	60.2
814.933	60.15
815.242	60.12
815.551	60.12
815.86	60.19
816.169	60.21
816.478	60.27
816.786	60.3
817.095	60.31
817.404	60.32
817.712	60.36
818.021	60.42
818.33	60.42
818.638	60.44
818.947	60.44
819.255	60.48
819.563	60.46
819.872	60.47
820.18	60.46
820.488	60.49
820.796	60.53
821.105	60.53
821.413	60.57
821.721	60.55
822.029	60.55
822.337	60.55
822.645	60.55
822.953	60.57
823.26	60.6
823.568	60.6
823.876	60.63
824.184	60.64
824.491	60.65
824.799	60.64
825.107	60.65
825.414	60.63
825.722	60.61
826.029	60.6
826.337	60.6
826.644	60.59
826.951	60.58
827.259	60.57
827.566	60.58
827.873	60.59
828.18	60.61
828.488	60.6
828.795	60.59
829.102	60.6
829.409	60.59
829.716	60.57
830.023	60.59
830.329	60.59
830.636	60.58
830.943	60.59
831.25	60.6
831.557	60.62
831.863	60.61
832.17	60.64
832.476	60.66
832.783	60.64
833.089	60.59
833.396	60.53
833.702	60.55
834.009	60.54
834.315	60.57
834.621	60.57
834.928	60.55
835.234	60.48
835.54	60.44
835.846	60.44
836.152	60.47
836.458	60.46
836.764	60.48
837.07	60.5
837.376	60.51
837.682	60.56
837.988	60.59
838.293	60.62
838.599	60.57
838.905	60.54
839.211	60.54
839.516	60.58
839.822	60.62
840.127	60.67
840.433	60.68
840.738	60.68
841.044	60.68
841.349	60.68
841.654	60.64
841.959	60.62
842.265	60.66
842.57	60.69
842.875	60.74
843.18	60.8
843.485	60.81
843.79	60.82
844.095	60.84
844.4	60.8
844.705	60.77
845.01	60.8
845.315	60.91
845.619	61.01
845.924	60.98
846.229	60.93
846.533	60.84
846.838	60.81
847.142	60.83
847.447	60.83
847.751	61.08
848.056	61.03
848.36	60.97
848.664	60.81
848.969	60.75
849.273	60.71
849.577	60.73
849.881	60.81
850.185	60.7
850.489	60.56
850.794	60.47
851.097	60.55
851.401	60.66
851.705	60.7
852.009	60.61
852.313	60.61
852.617	60.59
852.92	60.66
853.224	60.73
853.528	60.68
853.831	60.78
854.135	60.81
854.438	60.79
854.742	60.8
855.045	60.55
855.349	60.49
855.652	60.24
855.955	60.08
856.259	60.15
856.562	60.18
856.865	60.39
857.168	60.46
857.471	60.31
857.774	60.39
858.077	60.37
858.38	60.59
858.683	60.78
858.986	60.93
859.289	61.02
859.592	61.21
859.894	61.37
860.197	61.1
860.5	61.17
860.802	61.29
861.105	61.48
861.407	61.46
861.71	61.48
862.012	61.36
862.315	61.37
862.617	61.34
862.919	61.54
863.222	61.68
863.524	61.85
863.826	61.71
864.128	61.77
864.43	61.78
864.732	61.77
865.034	61.82
865.336	61.65
865.638	61.61
865.94	61.64
866.242	61.68
866.544	61.71
866.846	61.76
867.147	61.85
867.449	62.04
867.751	61.94
868.052	62.24
868.354	62.12
868.655	62.01
868.957	61.98
869.258	61.96
869.56	61.98
869.861	61.93
870.162	61.85
870.463	62.05
870.765	61.99
871.066	62.02
871.367	61.96
871.668	61.97
871.969	61.91
872.27	61.89
872.571	61.99
872.872	61.97
873.173	61.95
873.473	61.87
873.774	62
874.075	62.05
874.376	62.15
874.676	62.18
874.977	62.22
875.277	62.24
875.578	62.2
875.878	62.11
876.179	62.2
876.479	62.12
876.78	62.2
877.08	62.18
877.38	62.13
877.68	62.36
877.981	62.43
878.281	62.51
878.581	62.41
