Data from UWBM41002_Reflection_00006.txt Node
Date: Sun May 02 14:13:56 EDT 2021
User: vgr7
Spectrometer: USB2G7710
Scans to average: 10
Trigger mode: 4
Integration Time (sec): 1.000000E-1
Electric dark correction enabled: true
Boxcar width: 20
XAxis mode: Wavelengths
Number of Pixels in Spectrum: 2048
>>>>>Begin Spectral Data<<<<<
177.721	106.7
178.105	87.65
178.488	100.39
178.871	105.39
179.254	79.3
179.636	52.66
180.019	59.12
180.402	57.99
180.785	51.75
181.168	51.12
181.55	46.61
181.933	46.66
182.316	44.89
182.698	42.67
183.081	39.38
183.463	36.19
183.846	31.1
184.228	30.75
184.611	31.34
184.993	33.49
185.376	30.92
185.758	33.71
186.14	31.04
186.522	27.11
186.904	28.36
187.287	30.43
187.669	30.62
188.051	29.48
188.433	27.95
188.815	25.87
189.197	28.15
189.579	28.6
189.961	28.23
190.342	25.06
190.724	25.48
191.106	24.41
191.488	24.04
191.869	21.44
192.251	19.98
192.633	19.74
193.014	18.98
193.396	14.93
193.777	16.36
194.159	16.08
194.54	13.93
194.922	13.39
195.303	13.73
195.684	13.75
196.065	13.3
196.447	12.89
196.828	12.28
197.209	10.13
197.59	8.05
197.971	7.67
198.352	7.45
198.733	8.22
199.114	8.28
199.495	9.68
199.876	8.58
200.257	7.58
200.638	5.31
201.018	7.86
201.399	7.15
201.78	6.03
202.16	6.54
202.541	4.96
202.922	4.19
203.302	4.09
203.683	3.1
204.063	4.2
204.444	2.77
204.824	0.16
205.204	-1.77
205.585	-0.51
205.965	1.61
206.345	0.42
206.725	0.48
207.106	0.6
207.486	0.41
207.866	1.78
208.246	1.02
208.626	-0.35
209.006	2.05
209.386	1.07
209.766	0.45
210.145	0.69
210.525	1.04
210.905	1.87
211.285	0.2
211.664	0.42
212.044	-0.04
212.424	-0.38
212.803	0.88
213.183	0.93
213.562	2.08
213.942	2.89
214.321	1.81
214.701	1.42
215.08	1.81
215.459	2.63
215.838	1.99
216.218	1.7
216.597	-0.09
216.976	-0.09
217.355	0.4
217.734	0.62
218.113	1.38
218.492	1.01
218.871	0.89
219.25	2.13
219.629	2.25
220.008	3.07
220.387	2.86
220.766	5.14
221.144	4.76
221.523	3.9
221.902	4.37
222.28	4
222.659	4.3
223.037	4.66
223.416	4.74
223.794	4.5
224.173	5.21
224.551	4.91
224.929	5.57
225.308	5.67
225.686	5.68
226.064	5.43
226.442	5.24
226.821	5.34
227.199	5.84
227.577	5.91
227.955	6.19
228.333	6.27
228.711	6.12
229.089	5.32
229.467	4.62
229.845	4.73
230.222	4.75
230.6	4.51
230.978	4.13
231.356	4.65
231.733	4.74
232.111	4.98
232.488	5.05
232.866	5.06
233.243	4.92
233.621	4.99
233.998	5.23
234.376	5.04
234.753	4.73
235.13	4.86
235.508	4.92
235.885	5.01
236.262	4.75
236.639	4.68
237.016	4.72
237.393	4.81
237.77	4.91
238.147	4.85
238.524	4.89
238.901	4.78
239.278	4.83
239.655	4.95
240.032	4.91
240.409	4.84
240.785	4.85
241.162	4.84
241.539	4.84
241.915	4.86
242.292	4.87
242.668	4.81
243.045	4.79
243.421	4.73
243.798	4.73
244.174	4.76
244.551	4.79
244.927	4.82
245.303	4.81
245.679	4.81
246.056	4.77
246.432	4.79
246.808	4.74
247.184	4.76
247.56	4.74
247.936	4.73
248.312	4.72
248.688	4.7
249.064	4.7
249.44	4.66
249.815	4.66
250.191	4.63
250.567	4.63
250.943	4.62
251.318	4.59
251.694	4.62
252.069	4.62
252.445	4.62
252.82	4.58
253.196	4.53
253.571	4.52
253.947	4.49
254.322	4.49
254.697	4.47
255.073	4.41
255.448	4.43
255.823	4.39
256.198	4.38
256.573	4.38
256.948	4.38
257.323	4.37
257.698	4.33
258.073	4.31
258.448	4.3
258.823	4.3
259.198	4.29
259.573	4.26
259.948	4.26
260.322	4.26
260.697	4.25
261.072	4.22
261.446	4.22
261.821	4.21
262.195	4.19
262.57	4.18
262.944	4.17
263.319	4.18
263.693	4.17
264.067	4.17
264.442	4.16
264.816	4.15
265.19	4.16
265.564	4.17
265.938	4.15
266.313	4.16
266.687	4.17
267.061	4.14
267.435	4.15
267.809	4.13
268.183	4.13
268.556	4.14
268.93	4.12
269.304	4.13
269.678	4.14
270.051	4.14
270.425	4.15
270.799	4.13
271.172	4.14
271.546	4.14
271.919	4.14
272.293	4.12
272.666	4.1
273.04	4.11
273.413	4.15
273.787	4.17
274.16	4.18
274.533	4.17
274.906	4.19
275.279	4.19
275.653	4.2
276.026	4.22
276.399	4.22
276.772	4.25
277.145	4.24
277.518	4.28
277.891	4.3
278.263	4.29
278.636	4.28
279.009	4.27
279.382	4.28
279.755	4.29
280.127	4.3
280.5	4.3
280.872	4.32
281.245	4.32
281.617	4.29
281.99	4.29
282.362	4.28
282.735	4.27
283.107	4.28
283.479	4.25
283.852	4.26
284.224	4.27
284.596	4.27
284.968	4.27
285.34	4.27
285.713	4.27
286.085	4.27
286.457	4.26
286.829	4.26
287.201	4.27
287.572	4.28
287.944	4.28
288.316	4.29
288.688	4.27
289.06	4.26
289.431	4.26
289.803	4.27
290.175	4.26
290.546	4.26
290.918	4.27
291.289	4.25
291.661	4.26
292.032	4.25
292.403	4.25
292.775	4.24
293.146	4.21
293.517	4.21
293.889	4.21
294.26	4.22
294.631	4.22
295.002	4.23
295.373	4.23
295.744	4.23
296.115	4.22
296.486	4.23
296.857	4.24
297.228	4.24
297.599	4.25
297.97	4.25
298.34	4.24
298.711	4.25
299.082	4.25
299.452	4.25
299.823	4.25
300.194	4.24
300.564	4.23
300.935	4.22
301.305	4.23
301.676	4.23
302.046	4.23
302.416	4.22
302.787	4.2
303.157	4.21
303.527	4.19
303.897	4.18
304.267	4.19
304.637	4.18
305.008	4.17
305.378	4.17
305.748	4.16
306.117	4.14
306.487	4.15
306.857	4.14
307.227	4.14
307.597	4.14
307.967	4.13
308.336	4.15
308.706	4.14
309.076	4.12
309.445	4.12
309.815	4.11
310.184	4.1
310.554	4.09
310.923	4.09
311.293	4.09
311.662	4.08
312.031	4.08
312.401	4.09
312.77	4.07
313.139	4.07
313.508	4.08
313.877	4.08
314.246	4.07
314.616	4.06
314.985	4.07
315.353	4.07
315.722	4.06
316.091	4.07
316.46	4.06
316.829	4.06
317.198	4.06
317.567	4.05
317.935	4.05
318.304	4.03
318.672	4.02
319.041	4.02
319.41	4.01
319.778	4.02
320.147	4
320.515	3.98
320.883	3.97
321.252	3.96
321.62	3.96
321.988	3.96
322.357	3.95
322.725	3.95
323.093	3.95
323.461	3.93
323.829	3.94
324.197	3.95
324.565	3.95
324.933	3.96
325.301	3.95
325.669	3.94
326.037	3.93
326.405	3.94
326.772	3.94
327.14	3.93
327.508	3.92
327.875	3.92
328.243	3.91
328.61	3.88
328.978	3.87
329.346	3.86
329.713	3.87
330.08	3.87
330.448	3.86
330.815	3.85
331.182	3.84
331.55	3.83
331.917	3.82
332.284	3.82
332.651	3.82
333.018	3.83
333.385	3.82
333.752	3.84
334.119	3.83
334.486	3.84
334.853	3.84
335.22	3.84
335.587	3.85
335.954	3.85
336.32	3.84
336.687	3.84
337.054	3.82
337.42	3.83
337.787	3.83
338.153	3.84
338.52	3.83
338.886	3.81
339.253	3.82
339.619	3.82
339.986	3.81
340.352	3.81
340.718	3.81
341.084	3.81
341.451	3.8
341.817	3.79
342.183	3.79
342.549	3.8
342.915	3.79
343.281	3.8
343.647	3.82
344.013	3.82
344.379	3.82
344.745	3.81
345.11	3.82
345.476	3.82
345.842	3.82
346.208	3.82
346.573	3.82
346.939	3.81
347.304	3.82
347.67	3.82
348.035	3.83
348.401	3.83
348.766	3.83
349.132	3.82
349.497	3.82
349.862	3.81
350.228	3.81
350.593	3.82
350.958	3.83
351.323	3.83
351.688	3.83
352.053	3.84
352.418	3.84
352.783	3.84
353.148	3.84
353.513	3.84
353.878	3.84
354.243	3.84
354.608	3.84
354.972	3.84
355.337	3.85
355.702	3.85
356.066	3.85
356.431	3.86
356.795	3.85
357.16	3.85
357.524	3.85
357.889	3.85
358.253	3.85
358.618	3.84
358.982	3.84
359.346	3.85
359.71	3.86
360.075	3.86
360.439	3.85
360.803	3.86
361.167	3.87
361.531	3.87
361.895	3.86
362.259	3.86
362.623	3.86
362.987	3.85
363.351	3.85
363.714	3.85
364.078	3.85
364.442	3.85
364.806	3.85
365.169	3.85
365.533	3.85
365.896	3.84
366.26	3.85
366.623	3.84
366.987	3.83
367.35	3.83
367.714	3.83
368.077	3.83
368.44	3.83
368.803	3.84
369.167	3.84
369.53	3.83
369.893	3.83
370.256	3.82
370.619	3.81
370.982	3.82
371.345	3.82
371.708	3.83
372.071	3.83
372.434	3.83
372.797	3.84
373.159	3.84
373.522	3.84
373.885	3.85
374.247	3.84
374.61	3.84
374.973	3.83
375.335	3.84
375.698	3.83
376.06	3.82
376.423	3.82
376.785	3.82
377.147	3.82
377.51	3.82
377.872	3.82
378.234	3.82
378.596	3.82
378.958	3.82
379.321	3.82
379.683	3.83
380.045	3.83
380.407	3.83
380.769	3.83
381.13	3.82
381.492	3.83
381.854	3.83
382.216	3.83
382.578	3.83
382.939	3.83
383.301	3.83
383.663	3.82
384.024	3.82
384.386	3.82
384.747	3.82
385.109	3.83
385.47	3.83
385.832	3.82
386.193	3.82
386.554	3.82
386.916	3.81
387.277	3.81
387.638	3.81
387.999	3.81
388.36	3.81
388.721	3.81
389.082	3.81
389.443	3.81
389.804	3.81
390.165	3.81
390.526	3.81
390.887	3.81
391.248	3.81
391.609	3.81
391.969	3.81
392.33	3.82
392.691	3.82
393.051	3.82
393.412	3.82
393.772	3.82
394.133	3.82
394.493	3.81
394.854	3.81
395.214	3.81
395.574	3.81
395.935	3.81
396.295	3.81
396.655	3.81
397.015	3.81
397.376	3.81
397.736	3.82
398.096	3.82
398.456	3.82
398.816	3.82
399.176	3.83
399.535	3.83
399.895	3.83
400.255	3.83
400.615	3.83
400.975	3.84
401.334	3.84
401.694	3.84
402.054	3.85
402.413	3.85
402.773	3.85
403.132	3.85
403.492	3.86
403.851	3.86
404.211	3.86
404.57	3.87
404.929	3.87
405.288	3.87
405.648	3.86
406.007	3.87
406.366	3.87
406.725	3.87
407.084	3.87
407.443	3.87
407.802	3.88
408.161	3.88
408.52	3.88
408.879	3.89
409.238	3.89
409.596	3.9
409.955	3.91
410.314	3.91
410.673	3.91
411.031	3.92
411.39	3.92
411.748	3.93
412.107	3.94
412.465	3.95
412.824	3.97
413.182	4
413.54	4.02
413.899	4.05
414.257	4.09
414.615	4.13
414.974	4.17
415.332	4.21
415.69	4.25
416.048	4.28
416.406	4.32
416.764	4.35
417.122	4.38
417.48	4.42
417.838	4.45
418.195	4.48
418.553	4.5
418.911	4.52
419.269	4.53
419.626	4.53
419.984	4.53
420.342	4.52
420.699	4.51
421.057	4.49
421.414	4.48
421.772	4.47
422.129	4.46
422.486	4.46
422.844	4.46
423.201	4.46
423.558	4.46
423.915	4.46
424.273	4.46
424.63	4.46
424.987	4.46
425.344	4.46
425.701	4.46
426.058	4.46
426.415	4.47
426.772	4.47
427.128	4.46
427.485	4.46
427.842	4.45
428.199	4.44
428.555	4.42
428.912	4.4
429.269	4.37
429.625	4.35
429.982	4.32
430.338	4.29
430.695	4.27
431.051	4.24
431.407	4.22
431.764	4.2
432.12	4.18
432.476	4.17
432.832	4.17
433.189	4.17
433.545	4.17
433.901	4.18
434.257	4.21
434.613	4.23
434.969	4.26
435.325	4.29
435.681	4.33
436.036	4.35
436.392	4.37
436.748	4.39
437.104	4.4
437.459	4.42
437.815	4.44
438.171	4.46
438.526	4.49
438.882	4.52
439.237	4.56
439.593	4.59
439.948	4.63
440.304	4.67
440.659	4.69
441.014	4.71
441.369	4.75
441.725	4.76
442.08	4.78
442.435	4.8
442.79	4.81
443.145	4.81
443.5	4.82
443.855	4.82
444.21	4.82
444.565	4.82
444.92	4.81
445.275	4.8
445.629	4.8
445.984	4.79
446.339	4.77
446.693	4.76
447.048	4.75
447.403	4.73
447.757	4.7
448.112	4.69
448.466	4.66
448.82	4.64
449.175	4.62
449.529	4.6
449.883	4.58
450.238	4.55
450.592	4.55
450.946	4.54
451.3	4.54
451.654	4.55
452.008	4.55
452.362	4.56
452.716	4.56
453.07	4.56
453.424	4.56
453.778	4.56
454.132	4.55
454.486	4.54
454.839	4.52
455.193	4.51
455.547	4.5
455.9	4.47
456.254	4.45
456.607	4.42
456.961	4.39
457.314	4.36
457.668	4.35
458.021	4.35
458.375	4.34
458.728	4.34
459.081	4.34
459.434	4.35
459.787	4.36
460.141	4.36
460.494	4.37
460.847	4.38
461.2	4.38
461.553	4.39
461.906	4.39
462.259	4.4
462.611	4.4
462.964	4.4
463.317	4.4
463.67	4.41
464.022	4.42
464.375	4.42
464.728	4.43
465.08	4.43
465.433	4.43
465.785	4.42
466.138	4.41
466.49	4.39
466.843	4.37
467.195	4.34
467.547	4.32
467.899	4.29
468.252	4.26
468.604	4.23
468.956	4.2
469.308	4.18
469.66	4.17
470.012	4.16
470.364	4.17
470.716	4.17
471.068	4.19
471.42	4.2
471.772	4.23
472.123	4.23
472.475	4.24
472.827	4.25
473.178	4.26
473.53	4.27
473.882	4.28
474.233	4.31
474.585	4.34
474.936	4.41
475.288	4.5
475.639	4.62
475.99	4.76
476.342	4.91
476.693	5.07
477.044	5.25
477.395	5.43
477.746	5.61
478.097	5.78
478.448	5.97
478.8	6.15
479.15	6.32
479.501	6.47
479.852	6.61
480.203	6.75
480.554	6.88
480.905	7
481.255	7.12
481.606	7.24
481.957	7.34
482.307	7.44
482.658	7.54
483.009	7.63
483.359	7.72
483.709	7.82
484.06	7.89
484.41	7.98
484.761	8.05
485.111	8.13
485.461	8.2
485.811	8.27
486.162	8.33
486.512	8.39
486.862	8.43
487.212	8.46
487.562	8.48
487.912	8.5
488.262	8.5
488.612	8.5
488.961	8.47
489.311	8.43
489.661	8.36
490.011	8.26
490.36	8.15
490.71	8.02
491.06	7.89
491.409	7.74
491.759	7.58
492.108	7.42
492.458	7.25
492.807	7.08
493.157	6.9
493.506	6.74
493.855	6.58
494.204	6.43
494.554	6.28
494.903	6.15
495.252	6.03
495.601	5.9
495.95	5.78
496.299	5.66
496.648	5.56
496.997	5.45
497.346	5.36
497.695	5.26
498.043	5.17
498.392	5.08
498.741	5
499.09	4.91
499.438	4.83
499.787	4.76
500.135	4.69
500.484	4.62
500.832	4.57
501.181	4.52
501.529	4.49
501.878	4.48
502.226	4.46
502.574	4.45
502.923	4.45
503.271	4.45
503.619	4.44
503.967	4.44
504.315	4.43
504.663	4.43
505.011	4.42
505.359	4.41
505.707	4.41
506.055	4.4
506.403	4.4
506.751	4.4
507.098	4.4
507.446	4.41
507.794	4.41
508.141	4.42
508.489	4.43
508.837	4.44
509.184	4.45
509.531	4.46
509.879	4.47
510.226	4.48
510.574	4.5
510.921	4.52
511.268	4.54
511.616	4.55
511.963	4.57
512.31	4.59
512.657	4.61
513.004	4.63
513.351	4.65
513.698	4.66
514.045	4.67
514.392	4.67
514.739	4.67
515.086	4.67
515.432	4.66
515.779	4.65
516.126	4.65
516.473	4.64
516.819	4.65
517.166	4.65
517.512	4.66
517.859	4.67
518.205	4.69
518.552	4.71
518.898	4.74
519.245	4.78
519.591	4.84
519.937	4.91
520.283	5
520.629	5.1
520.976	5.22
521.322	5.33
521.668	5.46
522.014	5.58
522.36	5.71
522.706	5.83
523.052	5.94
523.398	6.05
523.743	6.15
524.089	6.23
524.435	6.3
524.781	6.36
525.126	6.42
525.472	6.48
525.817	6.53
526.163	6.58
526.509	6.63
526.854	6.67
527.199	6.72
527.545	6.76
527.89	6.81
528.235	6.86
528.581	6.91
528.926	6.95
529.271	6.99
529.616	7.02
529.961	7.06
530.306	7.09
530.651	7.11
530.996	7.13
531.341	7.14
531.686	7.15
532.031	7.15
532.376	7.15
532.721	7.15
533.065	7.16
533.41	7.16
533.755	7.15
534.099	7.14
534.444	7.11
534.788	7.08
535.133	7.03
535.477	6.99
535.822	6.93
536.166	6.88
536.51	6.81
536.855	6.73
537.199	6.65
537.543	6.57
537.887	6.49
538.231	6.43
538.576	6.38
538.92	6.32
539.264	6.26
539.608	6.2
539.951	6.13
540.295	6.07
540.639	6
540.983	5.94
541.327	5.87
541.671	5.8
542.014	5.73
542.358	5.67
542.701	5.63
543.045	5.59
543.389	5.57
543.732	5.55
544.075	5.52
544.419	5.5
544.762	5.49
545.105	5.48
545.449	5.47
545.792	5.46
546.135	5.45
546.478	5.43
546.821	5.41
547.165	5.37
547.508	5.34
547.851	5.29
548.194	5.23
548.536	5.17
548.879	5.1
549.222	5.03
549.565	4.95
549.908	4.88
550.25	4.8
550.593	4.74
550.936	4.7
551.278	4.66
551.621	4.62
551.963	4.59
552.306	4.57
552.648	4.54
552.991	4.53
553.333	4.51
553.675	4.51
554.017	4.51
554.36	4.5
554.702	4.5
555.044	4.51
555.386	4.53
555.728	4.54
556.07	4.56
556.412	4.58
556.754	4.58
557.096	4.58
557.438	4.58
557.78	4.58
558.121	4.58
558.463	4.58
558.805	4.58
559.147	4.58
559.488	4.58
559.83	4.59
560.171	4.59
560.513	4.59
560.854	4.59
561.196	4.59
561.537	4.59
561.878	4.59
562.22	4.59
562.561	4.59
562.902	4.6
563.243	4.6
563.584	4.6
563.925	4.6
564.266	4.61
564.607	4.61
564.948	4.61
565.289	4.61
565.63	4.61
565.971	4.61
566.312	4.62
566.653	4.62
566.993	4.63
567.334	4.62
567.675	4.62
568.015	4.63
568.356	4.63
568.696	4.63
569.037	4.63
569.377	4.63
569.718	4.63
570.058	4.63
570.398	4.63
570.739	4.63
571.079	4.63
571.419	4.63
571.759	4.63
572.099	4.63
572.439	4.63
572.779	4.63
573.119	4.63
573.459	4.63
573.799	4.63
574.139	4.62
574.479	4.62
574.819	4.62
575.158	4.62
575.498	4.62
575.838	4.61
576.177	4.62
576.517	4.61
576.856	4.61
577.196	4.61
577.535	4.6
577.875	4.6
578.214	4.6
578.553	4.6
578.893	4.6
579.232	4.6
579.571	4.59
579.91	4.59
580.25	4.59
580.589	4.58
580.928	4.58
581.267	4.58
581.606	4.58
581.945	4.58
582.283	4.58
582.622	4.58
582.961	4.57
583.3	4.58
583.639	4.58
583.977	4.58
584.316	4.58
584.654	4.58
584.993	4.58
585.332	4.58
585.67	4.58
586.008	4.58
586.347	4.58
586.685	4.59
587.024	4.59
587.362	4.59
587.7	4.59
588.038	4.59
588.376	4.6
588.715	4.59
589.053	4.6
589.391	4.6
589.729	4.6
590.067	4.6
590.404	4.61
590.742	4.61
591.08	4.61
591.418	4.62
591.756	4.62
592.093	4.62
592.431	4.62
592.769	4.63
593.106	4.63
593.444	4.64
593.781	4.64
594.119	4.64
594.456	4.64
594.793	4.64
595.131	4.64
595.468	4.64
595.805	4.64
596.143	4.64
596.48	4.64
596.817	4.64
597.154	4.64
597.491	4.64
597.828	4.65
598.165	4.65
598.502	4.65
598.839	4.66
599.176	4.66
599.512	4.66
599.849	4.66
600.186	4.67
600.523	4.66
600.859	4.67
601.196	4.67
601.532	4.67
601.869	4.67
602.205	4.67
602.542	4.68
602.878	4.68
603.215	4.68
603.551	4.68
603.887	4.68
604.223	4.68
604.56	4.68
604.896	4.68
605.232	4.69
605.568	4.68
605.904	4.68
606.24	4.69
606.576	4.68
606.912	4.68
607.248	4.68
607.583	4.68
607.919	4.68
608.255	4.68
608.591	4.68
608.926	4.68
609.262	4.68
609.597	4.68
609.933	4.68
610.268	4.67
610.604	4.67
610.939	4.67
611.275	4.67
611.61	4.67
611.945	4.67
612.281	4.66
612.616	4.66
612.951	4.66
613.286	4.65
613.621	4.65
613.956	4.64
614.291	4.64
614.626	4.64
614.961	4.64
615.296	4.64
615.631	4.64
615.966	4.64
616.3	4.64
616.635	4.64
616.97	4.64
617.304	4.64
617.639	4.64
617.973	4.64
618.308	4.64
618.642	4.63
618.977	4.63
619.311	4.63
619.646	4.63
619.98	4.63
620.314	4.63
620.648	4.63
620.983	4.64
621.317	4.65
621.651	4.64
621.985	4.65
622.319	4.65
622.653	4.66
622.987	4.66
623.321	4.66
623.655	4.67
623.988	4.67
624.322	4.67
624.656	4.67
624.99	4.68
625.323	4.68
625.657	4.68
625.99	4.68
626.324	4.68
626.657	4.68
626.991	4.69
627.324	4.69
627.658	4.69
627.991	4.7
628.324	4.7
628.657	4.7
628.991	4.7
629.324	4.71
629.657	4.71
629.99	4.71
630.323	4.71
630.656	4.72
630.989	4.72
631.322	4.72
631.655	4.72
631.987	4.73
632.32	4.73
632.653	4.73
632.986	4.73
633.318	4.73
633.651	4.74
633.984	4.74
634.316	4.74
634.649	4.74
634.981	4.74
635.313	4.74
635.646	4.74
635.978	4.74
636.31	4.75
636.643	4.75
636.975	4.75
637.307	4.75
637.639	4.75
637.971	4.75
638.303	4.75
638.635	4.76
638.967	4.76
639.299	4.76
639.631	4.77
639.963	4.77
640.295	4.77
640.626	4.77
640.958	4.79
641.29	4.79
641.621	4.79
641.953	4.79
642.285	4.79
642.616	4.79
642.948	4.79
643.279	4.79
643.61	4.79
643.942	4.8
644.273	4.8
644.604	4.8
644.936	4.81
645.267	4.82
645.598	4.81
645.929	4.82
646.26	4.82
646.591	4.82
646.922	4.82
647.253	4.83
647.584	4.84
647.915	4.83
648.245	4.84
648.576	4.84
648.907	4.84
649.238	4.84
649.568	4.84
649.899	4.84
650.229	4.84
650.56	4.84
650.89	4.85
651.221	4.85
651.551	4.85
651.882	4.85
652.212	4.85
652.542	4.84
652.872	4.84
653.203	4.85
653.533	4.85
653.863	4.85
654.193	4.86
654.523	4.86
654.853	4.86
655.183	4.86
655.513	4.87
655.843	4.87
656.172	4.87
656.502	4.88
656.832	4.89
657.162	4.88
657.491	4.88
657.821	4.89
658.15	4.89
658.48	4.9
658.809	4.89
659.139	4.9
659.468	4.89
659.798	4.9
660.127	4.91
660.456	4.91
660.785	4.91
661.115	4.91
661.444	4.92
661.773	4.93
662.102	4.93
662.431	4.94
662.76	4.95
663.089	4.95
663.418	4.96
663.747	4.96
664.076	4.97
664.404	4.96
664.733	4.97
665.062	4.99
665.39	4.99
665.719	4.99
666.048	5.01
666.376	5.01
666.705	5.01
667.033	5.02
667.362	5.02
667.69	5.02
668.018	5.02
668.347	5.03
668.675	5.03
669.003	5.03
669.331	5.03
669.659	5.04
669.987	5.03
670.315	5.03
670.643	5.04
670.971	5.04
671.299	5.03
671.627	5.02
671.955	5.02
672.283	5.03
672.61	5.02
672.938	5.03
673.266	5.03
673.593	5.03
673.921	5.02
674.249	5.02
674.576	5.02
674.904	5.02
675.231	5.02
675.558	5.01
675.886	5.02
676.213	5.02
676.54	5.02
676.867	5.02
677.195	5.02
677.522	5.02
677.849	5.02
678.176	5.03
678.503	5.02
678.83	5.03
679.157	5.03
679.484	5.03
679.81	5.03
680.137	5.03
680.464	5.03
680.791	5.04
681.117	5.04
681.444	5.05
681.771	5.05
682.097	5.06
682.424	5.06
682.75	5.06
683.077	5.05
683.403	5.06
683.729	5.07
684.056	5.07
684.382	5.07
684.708	5.09
685.034	5.1
685.36	5.11
685.686	5.12
686.012	5.13
686.339	5.14
686.664	5.14
686.99	5.15
687.316	5.15
687.642	5.16
687.968	5.18
688.294	5.18
688.619	5.18
688.945	5.19
689.271	5.19
689.596	5.19
689.922	5.19
690.247	5.21
690.573	5.21
690.898	5.2
691.224	5.22
691.549	5.22
691.874	5.23
692.2	5.23
692.525	5.23
692.85	5.24
693.175	5.26
693.5	5.27
693.825	5.27
694.15	5.27
694.475	5.27
694.8	5.26
695.125	5.26
695.45	5.26
695.775	5.27
696.099	5.28
696.424	5.3
696.749	5.29
697.073	5.29
697.398	5.29
697.723	5.3
698.047	5.3
698.372	5.3
698.696	5.29
699.02	5.29
699.345	5.29
699.669	5.29
699.993	5.3
700.318	5.3
700.642	5.31
700.966	5.3
701.29	5.31
701.614	5.31
701.938	5.32
702.262	5.34
702.586	5.34
702.91	5.35
703.234	5.35
703.557	5.34
703.881	5.35
704.205	5.35
704.529	5.36
704.852	5.36
705.176	5.36
705.499	5.36
705.823	5.37
706.146	5.38
706.47	5.37
706.793	5.37
707.117	5.37
707.44	5.38
707.763	5.39
708.086	5.4
708.409	5.4
708.733	5.4
709.056	5.41
709.379	5.4
709.702	5.4
710.025	5.42
710.348	5.42
710.671	5.44
710.993	5.44
711.316	5.45
711.639	5.45
711.962	5.47
712.284	5.47
712.607	5.47
712.93	5.47
713.252	5.47
713.575	5.47
713.897	5.48
714.22	5.5
714.542	5.49
714.864	5.48
715.187	5.48
715.509	5.49
715.831	5.49
716.153	5.48
716.475	5.5
716.798	5.49
717.12	5.49
717.442	5.5
717.764	5.5
718.085	5.52
718.407	5.51
718.729	5.53
719.051	5.54
719.373	5.53
719.695	5.53
720.016	5.54
720.338	5.55
720.659	5.54
720.981	5.55
721.302	5.55
721.624	5.57
721.945	5.57
722.267	5.58
722.588	5.59
722.909	5.59
723.231	5.59
723.552	5.58
723.873	5.59
724.194	5.6
724.515	5.6
724.836	5.61
725.157	5.6
725.478	5.62
725.799	5.64
726.12	5.65
726.441	5.64
726.762	5.64
727.083	5.62
727.403	5.61
727.724	5.62
728.045	5.65
728.365	5.65
728.686	5.65
729.006	5.66
729.327	5.68
729.647	5.69
729.967	5.7
730.288	5.7
730.608	5.7
730.928	5.71
731.249	5.72
731.569	5.73
731.889	5.72
732.209	5.71
732.529	5.71
732.849	5.73
733.169	5.76
733.489	5.78
733.809	5.8
734.129	5.8
734.448	5.82
734.768	5.84
735.088	5.84
735.408	5.85
735.727	5.86
736.047	5.88
736.366	5.9
736.686	5.91
737.005	5.92
737.325	5.94
737.644	5.92
737.963	5.92
738.283	5.93
738.602	5.94
738.921	5.95
739.24	5.96
739.56	5.97
739.879	5.98
740.198	6
740.517	6.02
740.836	6.03
741.155	6.02
741.473	6.02
741.792	6.02
742.111	6.01
742.43	6
742.748	6.01
743.067	6.02
743.386	6.06
743.704	6.07
744.023	6.08
744.341	6.06
744.66	6.07
744.978	6.08
745.297	6.11
745.615	6.14
745.933	6.14
746.252	6.14
746.57	6.13
746.888	6.13
747.206	6.14
747.524	6.12
747.842	6.11
748.16	6.11
748.478	6.11
748.796	6.1
749.114	6.11
749.432	6.09
749.749	6.11
750.067	6.12
750.385	6.12
750.703	6.14
751.02	6.16
751.338	6.17
751.655	6.19
751.973	6.21
752.29	6.21
752.608	6.21
752.925	6.21
753.242	6.24
753.56	6.23
753.877	6.24
754.194	6.25
754.511	6.28
754.828	6.27
755.145	6.32
755.462	6.34
755.779	6.37
756.096	6.39
756.413	6.39
756.73	6.41
757.047	6.4
757.364	6.43
757.68	6.44
757.997	6.45
758.314	6.45
758.63	6.45
758.947	6.45
759.264	6.46
759.58	6.44
759.896	6.47
760.213	6.46
760.529	6.48
760.846	6.49
761.162	6.52
761.478	6.52
761.794	6.54
762.11	6.54
762.426	6.56
762.743	6.55
763.059	6.53
763.375	6.55
763.69	6.56
764.006	6.56
764.322	6.57
764.638	6.58
764.954	6.57
765.27	6.6
765.585	6.62
765.901	6.64
766.216	6.62
766.532	6.64
766.848	6.64
767.163	6.66
767.478	6.62
767.794	6.64
768.109	6.61
768.424	6.61
768.74	6.61
769.055	6.6
769.37	6.58
769.685	6.57
770	6.59
770.315	6.59
770.63	6.59
770.945	6.6
771.26	6.6
771.575	6.62
771.89	6.64
772.205	6.64
772.52	6.68
772.834	6.69
773.149	6.74
773.464	6.78
773.778	6.79
774.093	6.77
774.407	6.8
774.722	6.8
775.036	6.81
775.351	6.81
775.665	6.84
775.979	6.9
776.293	6.88
776.608	6.88
776.922	6.88
777.236	6.86
777.55	6.87
777.864	6.86
778.178	6.85
778.492	6.82
778.806	6.82
779.12	6.82
779.434	6.84
779.747	6.9
780.061	6.92
780.375	6.98
780.689	6.96
781.002	7
781.316	7
781.629	6.98
781.943	7
782.256	7.02
782.57	7.01
782.883	7
783.196	7.02
783.51	7.04
783.823	7.05
784.136	7.05
784.449	7.04
784.762	7.03
785.075	7.04
785.388	7.03
785.701	6.97
786.014	6.98
786.327	6.98
786.64	6.97
786.953	7.02
787.266	7.01
787.578	7.03
787.891	7.04
788.204	7.04
788.516	7.03
788.829	7.04
789.141	7.04
789.454	7.07
789.766	7.1
790.079	7.14
790.391	7.14
790.703	7.19
791.016	7.17
791.328	7.2
791.64	7.21
791.952	7.25
792.264	7.21
792.576	7.18
792.888	7.14
793.2	7.17
793.512	7.22
793.824	7.23
794.136	7.23
794.448	7.22
794.76	7.26
795.071	7.26
795.383	7.32
795.695	7.33
796.006	7.3
796.318	7.27
796.629	7.29
796.941	7.29
797.252	7.29
797.564	7.3
797.875	7.28
798.186	7.32
798.497	7.35
798.809	7.33
799.12	7.29
799.431	7.3
799.742	7.3
800.053	7.33
800.364	7.34
800.675	7.31
800.986	7.35
801.297	7.37
801.608	7.34
801.918	7.36
802.229	7.33
802.54	7.33
802.851	7.31
803.161	7.29
803.472	7.33
803.782	7.35
804.093	7.37
804.403	7.37
804.714	7.35
805.024	7.42
805.334	7.43
805.645	7.5
805.955	7.47
806.265	7.48
806.575	7.47
806.885	7.51
807.195	7.56
807.505	7.61
807.815	7.71
808.125	7.68
808.435	7.69
808.745	7.7
809.055	7.74
809.365	7.73
809.674	7.75
809.984	7.8
810.294	7.81
810.603	7.85
810.913	7.84
811.222	7.83
811.532	7.83
811.841	7.88
812.151	7.91
812.46	7.94
812.769	7.87
813.079	7.9
813.388	7.98
813.697	7.97
814.006	7.97
814.315	7.98
814.624	8.01
814.933	8.01
815.242	8.05
815.551	8.05
815.86	8.07
816.169	8.02
816.478	8.05
816.786	8.04
817.095	8.03
817.404	8
817.712	7.98
818.021	7.98
818.33	7.96
818.638	8.01
818.947	8
819.255	8
819.563	7.98
819.872	7.97
820.18	7.96
820.488	7.94
820.796	7.94
821.105	7.95
821.413	7.97
821.721	8.01
822.029	8.04
822.337	8.05
822.645	8.03
822.953	8.03
823.26	8.03
823.568	8.04
823.876	8.05
824.184	8.07
824.491	8.06
824.799	8.06
825.107	8.06
825.414	8.08
825.722	8.08
826.029	8.07
826.337	8.08
826.644	8.09
826.951	8.1
827.259	8.09
827.566	8.09
827.873	8.06
828.18	8.06
828.488	8.06
828.795	8.06
829.102	8.03
829.409	8.03
829.716	8.07
830.023	8.09
830.329	8.1
830.636	8.11
830.943	8.11
831.25	8.1
831.557	8.1
831.863	8.14
832.17	8.16
832.476	8.17
832.783	8.15
833.089	8.17
833.396	8.16
833.702	8.16
834.009	8.18
834.315	8.14
834.621	8.12
834.928	8.15
835.234	8.19
835.54	8.18
835.846	8.18
836.152	8.16
836.458	8.15
836.764	8.15
837.07	8.16
837.376	8.16
837.682	8.12
837.988	8.11
838.293	8.11
838.599	8.1
838.905	8.07
839.211	8.04
839.516	8.01
839.822	8.01
840.127	8.05
840.433	8.13
840.738	8.17
841.044	8.18
841.349	8.16
841.654	8.21
841.959	8.25
842.265	8.17
842.57	8.2
842.875	8.23
843.18	8.2
843.485	8.22
843.79	8.24
844.095	8.31
844.4	8.27
844.705	8.35
845.01	8.37
845.315	8.4
845.619	8.34
845.924	8.43
846.229	8.47
846.533	8.49
846.838	8.48
847.142	8.42
847.447	8.4
847.751	8.43
848.056	8.5
848.36	8.65
848.664	8.65
848.969	8.7
849.273	8.81
849.577	8.77
849.881	8.76
850.185	8.92
850.489	8.85
850.794	9.06
851.097	9.07
851.401	9.16
851.705	9.15
852.009	9.31
852.313	9.37
852.617	9.42
852.92	9.34
853.224	9.4
853.528	9.41
853.831	9.44
854.135	9.63
854.438	9.71
854.742	9.79
855.045	9.69
855.349	9.68
855.652	9.83
855.955	10
856.259	9.97
856.562	9.97
856.865	10.13
857.168	10.06
857.471	10.05
857.774	10.19
858.077	10.32
858.38	10.24
858.683	10.38
858.986	10.44
859.289	10.46
859.592	10.59
859.894	10.59
860.197	10.64
860.5	10.71
860.802	10.68
861.105	10.77
861.407	10.75
861.71	10.52
862.012	10.57
862.315	10.63
862.617	10.67
862.919	10.89
863.222	10.66
863.524	10.62
863.826	10.75
864.128	10.67
864.43	10.63
864.732	10.67
865.034	10.7
865.336	10.67
865.638	10.61
865.94	10.65
866.242	10.74
866.544	10.72
866.846	10.76
867.147	10.6
867.449	10.67
867.751	10.7
868.052	10.76
868.354	10.59
868.655	10.56
868.957	10.53
869.258	10.38
869.56	10.51
869.861	10.56
870.162	10.61
870.463	10.67
870.765	10.65
871.066	10.64
871.367	10.56
871.668	10.42
871.969	10.42
872.27	10.36
872.571	10.28
872.872	10.2
873.173	10.18
873.473	10.14
873.774	10.22
874.075	10.34
874.376	10.4
874.676	10.38
874.977	10.34
875.277	10.27
875.578	10.35
875.878	10.52
876.179	10.35
876.479	10.52
876.78	10.6
877.08	10.54
877.38	10.47
877.68	10.6
877.981	10.67
878.281	10.7
878.581	10.75
