Data from UWBM12228_Reflection_00014.txt Node
Date: Sun May 02 12:54:58 EDT 2021
User: vgr7
Spectrometer: USB2G7710
Scans to average: 10
Trigger mode: 4
Integration Time (sec): 1.000000E-1
Electric dark correction enabled: true
Boxcar width: 20
XAxis mode: Wavelengths
Number of Pixels in Spectrum: 2048
>>>>>Begin Spectral Data<<<<<
177.721	98.06
178.105	97.2
178.488	96.18
178.871	95.95
179.254	95.88
179.636	93.23
180.019	90.72
180.402	88.92
180.785	87.57
181.168	85.61
181.55	83.66
181.933	115.82
182.316	115.54
182.698	115.91
183.081	116.15
183.463	117.88
183.846	120.35
184.228	121.52
184.611	122.05
184.993	125.17
185.376	127.66
185.758	-96.21
186.14	-45.44
186.522	-10.93
186.904	5.71
187.287	16.76
187.669	22.39
188.051	23.04
188.433	28.15
188.815	25.38
189.197	26.05
189.579	25.01
189.961	25.53
190.342	21.9
190.724	23.78
191.106	22.42
191.488	21.65
191.869	15.11
192.251	13.76
192.633	11.21
193.014	11.06
193.396	11.12
193.777	17.85
194.159	19.08
194.54	16.05
194.922	15.39
195.303	18.06
195.684	19.19
196.065	19.6
196.447	17.45
196.828	16.67
197.209	17.02
197.59	8.07
197.971	5.46
198.352	4.81
198.733	6.68
199.114	5.53
199.495	5.59
199.876	5.9
200.257	5.21
200.638	6.22
201.018	0.99
201.399	0.16
201.78	0.16
202.16	1.96
202.541	1.37
202.922	2.8
203.302	-0.26
203.683	-1.48
204.063	-2.33
204.444	-1.14
204.824	0.22
205.204	3.37
205.585	12.96
205.965	13.69
206.345	15.43
206.725	12.19
207.106	13.49
207.486	14.13
207.866	14.93
208.246	16.18
208.626	18.58
209.006	23.13
209.386	19.63
209.766	20.44
210.145	19.38
210.525	18.44
210.905	19.08
211.285	19.16
211.664	17.33
212.044	18.68
212.424	19.8
212.803	15.12
213.183	17.8
213.562	18.65
213.942	18.82
214.321	16.5
214.701	16.18
215.08	17.76
215.459	17.9
215.838	17.61
216.218	16.86
216.597	16.22
216.976	14.25
217.355	13.27
217.734	12.55
218.113	13.46
218.492	13.89
218.871	14.5
219.25	14.87
219.629	12.69
220.008	12.28
220.387	12.89
220.766	11.79
221.144	10.16
221.523	11.23
221.902	10.61
222.28	11.42
222.659	12.21
223.037	11.04
223.416	11
223.794	11.1
224.173	10.25
224.551	10
224.929	9.7
225.308	9.58
225.686	9.69
226.064	10.01
226.442	9.99
226.821	9.94
227.199	9.64
227.577	8.93
227.955	8.08
228.333	7.9
228.711	7.6
229.089	8
229.467	7.44
229.845	8.01
230.222	8.2
230.6	8.28
230.978	8.3
231.356	7.39
231.733	7.37
232.111	7.39
232.488	7.03
232.866	7.12
233.243	6.78
233.621	6.57
233.998	6.19
234.376	6.23
234.753	6.25
235.13	6.35
235.508	6.68
235.885	6.49
236.262	6.53
236.639	6.52
237.016	6.38
237.393	6.28
237.77	6.04
238.147	5.93
238.524	6.05
238.901	6.06
239.278	6.07
239.655	5.98
240.032	5.82
240.409	5.82
240.785	5.7
241.162	5.72
241.539	5.59
241.915	5.57
242.292	5.55
242.668	5.48
243.045	5.48
243.421	5.36
243.798	5.33
244.174	5.32
244.551	5.24
244.927	5.09
245.303	5.02
245.679	5.02
246.056	4.94
246.432	4.89
246.808	4.7
247.184	4.68
247.56	4.65
247.936	4.66
248.312	4.64
248.688	4.69
249.064	4.66
249.44	4.65
249.815	4.65
250.191	4.59
250.567	4.58
250.943	4.63
251.318	4.64
251.694	4.59
252.069	4.51
252.445	4.51
252.82	4.59
253.196	4.57
253.571	4.51
253.947	4.57
254.322	4.51
254.697	4.61
255.073	4.61
255.448	4.6
255.823	4.58
256.198	4.54
256.573	4.38
256.948	4.39
257.323	4.39
257.698	4.32
258.073	4.32
258.448	4.19
258.823	4.18
259.198	4.18
259.573	4.19
259.948	4.22
260.322	4.18
260.697	4.18
261.072	4.17
261.446	4.15
261.821	4.14
262.195	4.11
262.57	4.09
262.944	4.06
263.319	4.02
263.693	4.03
264.067	4.04
264.442	4.14
264.816	4.13
265.19	4.09
265.564	4.13
265.938	4.09
266.313	4.15
266.687	4.09
267.061	4.09
267.435	4.09
267.809	4.07
268.183	4.05
268.556	4.08
268.93	4.09
269.304	4.07
269.678	4.05
270.051	4.04
270.425	4.04
270.799	4.05
271.172	4.04
271.546	4.05
271.919	4.06
272.293	4.03
272.666	4.03
273.04	4.04
273.413	3.99
273.787	3.99
274.16	3.98
274.533	4
274.906	3.97
275.279	3.99
275.653	3.97
276.026	3.95
276.399	3.92
276.772	3.93
277.145	3.95
277.518	3.96
277.891	3.97
278.263	3.99
278.636	4.02
279.009	4.04
279.382	4.01
279.755	3.95
280.127	3.95
280.5	3.97
280.872	3.96
281.245	4.07
281.617	4.07
281.99	4.11
282.362	4.14
282.735	4.13
283.107	4.13
283.479	4.14
283.852	4.16
284.224	4.19
284.596	4.18
284.968	4.08
285.34	4.08
285.713	4.05
286.085	4
286.457	4.01
286.829	4
287.201	4.02
287.572	4.09
287.944	4.11
288.316	4.15
288.688	4.2
289.06	4.21
289.431	4.24
289.803	4.25
290.175	4.29
290.546	4.32
290.918	4.35
291.289	4.35
291.661	4.39
292.032	4.36
292.403	4.4
292.775	4.52
293.146	4.54
293.517	4.59
293.889	4.68
294.26	4.7
294.631	4.76
295.002	4.83
295.373	4.9
295.744	4.92
296.115	4.95
296.486	4.92
296.857	4.95
297.228	4.97
297.599	5.01
297.97	5.03
298.34	5.09
298.711	5.08
299.082	5.11
299.452	5.17
299.823	5.25
300.194	5.31
300.564	5.35
300.935	5.39
301.305	5.42
301.676	5.45
302.046	5.51
302.416	5.54
302.787	5.6
303.157	5.59
303.527	5.66
303.897	5.71
304.267	5.8
304.637	5.87
305.008	5.94
305.378	6.01
305.748	6.06
306.117	6.18
306.487	6.31
306.857	6.44
307.227	6.51
307.597	6.56
307.967	6.64
308.336	6.7
308.706	6.78
309.076	6.86
309.445	6.9
309.815	6.87
310.184	6.92
310.554	6.95
310.923	7.02
311.293	7.11
311.662	7.19
312.031	7.25
312.401	7.32
312.77	7.35
313.139	7.42
313.508	7.5
313.877	7.51
314.246	7.57
314.616	7.6
314.985	7.61
315.353	7.67
315.722	7.73
316.091	7.81
316.46	7.89
316.829	7.97
317.198	8.06
317.567	8.26
317.935	8.32
318.304	8.44
318.672	8.54
319.041	8.63
319.41	8.72
319.778	8.83
320.147	8.93
320.515	9.01
320.883	9.09
321.252	9.11
321.62	9.22
321.988	9.29
322.357	9.37
322.725	9.5
323.093	9.56
323.461	9.62
323.829	9.7
324.197	9.74
324.565	9.8
324.933	9.85
325.301	9.9
325.669	9.96
326.037	10.04
326.405	10.06
326.772	10.09
327.14	10.16
327.508	10.2
327.875	10.25
328.243	10.32
328.61	10.33
328.978	10.4
329.346	10.46
329.713	10.48
330.08	10.53
330.448	10.58
330.815	10.6
331.182	10.66
331.55	10.71
331.917	10.77
332.284	10.81
332.651	10.87
333.018	10.92
333.385	10.98
333.752	11.04
334.119	11.1
334.486	11.16
334.853	11.18
335.22	11.24
335.587	11.28
335.954	11.33
336.32	11.4
336.687	11.44
337.054	11.48
337.42	11.54
337.787	11.58
338.153	11.63
338.52	11.71
338.886	11.77
339.253	11.8
339.619	11.83
339.986	11.84
340.352	11.87
340.718	11.91
341.084	11.94
341.451	11.94
341.817	11.97
342.183	11.97
342.549	12.02
342.915	12.05
343.281	12.09
343.647	12.13
344.013	12.18
344.379	12.21
344.745	12.24
345.11	12.27
345.476	12.3
345.842	12.34
346.208	12.32
346.573	12.33
346.939	12.36
347.304	12.38
347.67	12.4
348.035	12.42
348.401	12.42
348.766	12.44
349.132	12.46
349.497	12.47
349.862	12.48
350.228	12.49
350.593	12.5
350.958	12.49
351.323	12.48
351.688	12.47
352.053	12.45
352.418	12.44
352.783	12.42
353.148	12.41
353.513	12.37
353.878	12.36
354.243	12.34
354.608	12.32
354.972	12.31
355.337	12.29
355.702	12.25
356.066	12.23
356.431	12.2
356.795	12.18
357.16	12.15
357.524	12.13
357.889	12.1
358.253	12.07
358.618	12.04
358.982	12.02
359.346	11.98
359.71	11.96
360.075	11.92
360.439	11.9
360.803	11.85
361.167	11.82
361.531	11.8
361.895	11.77
362.259	11.73
362.623	11.69
362.987	11.66
363.351	11.63
363.714	11.59
364.078	11.54
364.442	11.5
364.806	11.46
365.169	11.4
365.533	11.35
365.896	11.3
366.26	11.24
366.623	11.18
366.987	11.13
367.35	11.08
367.714	11.03
368.077	10.98
368.44	10.93
368.803	10.86
369.167	10.8
369.53	10.74
369.893	10.68
370.256	10.61
370.619	10.55
370.982	10.47
371.345	10.38
371.708	10.31
372.071	10.23
372.434	10.16
372.797	10.1
373.159	10.05
373.522	9.97
373.885	9.89
374.247	9.81
374.61	9.74
374.973	9.66
375.335	9.59
375.698	9.52
376.06	9.43
376.423	9.36
376.785	9.28
377.147	9.2
377.51	9.14
377.872	9.07
378.234	8.99
378.596	8.93
378.958	8.87
379.321	8.8
379.683	8.74
380.045	8.66
380.407	8.6
380.769	8.53
381.13	8.47
381.492	8.41
381.854	8.35
382.216	8.29
382.578	8.23
382.939	8.18
383.301	8.11
383.663	8.05
384.024	7.98
384.386	7.93
384.747	7.86
385.109	7.8
385.47	7.74
385.832	7.69
386.193	7.63
386.554	7.58
386.916	7.53
387.277	7.47
387.638	7.44
387.999	7.38
388.36	7.34
388.721	7.3
389.082	7.25
389.443	7.2
389.804	7.15
390.165	7.11
390.526	7.07
390.887	7.02
391.248	6.97
391.609	6.94
391.969	6.9
392.33	6.86
392.691	6.81
393.051	6.77
393.412	6.72
393.772	6.67
394.133	6.63
394.493	6.58
394.854	6.54
395.214	6.49
395.574	6.44
395.935	6.4
396.295	6.35
396.655	6.3
397.015	6.26
397.376	6.2
397.736	6.16
398.096	6.12
398.456	6.08
398.816	6.05
399.176	6
399.535	5.96
399.895	5.93
400.255	5.89
400.615	5.85
400.975	5.82
401.334	5.78
401.694	5.74
402.054	5.7
402.413	5.65
402.773	5.62
403.132	5.59
403.492	5.55
403.851	5.53
404.211	5.5
404.57	5.49
404.929	5.46
405.288	5.44
405.648	5.41
406.007	5.39
406.366	5.37
406.725	5.36
407.084	5.33
407.443	5.31
407.802	5.28
408.161	5.26
408.52	5.23
408.879	5.22
409.238	5.2
409.596	5.18
409.955	5.17
410.314	5.16
410.673	5.13
411.031	5.12
411.39	5.11
411.748	5.1
412.107	5.09
412.465	5.08
412.824	5.09
413.182	5.08
413.54	5.09
413.899	5.09
414.257	5.11
414.615	5.13
414.974	5.15
415.332	5.17
415.69	5.2
416.048	5.21
416.406	5.24
416.764	5.26
417.122	5.28
417.48	5.3
417.838	5.31
418.195	5.32
418.553	5.33
418.911	5.33
419.269	5.31
419.626	5.29
419.984	5.27
420.342	5.24
420.699	5.21
421.057	5.17
421.414	5.15
421.772	5.12
422.129	5.1
422.486	5.09
422.844	5.07
423.201	5.06
423.558	5.05
423.915	5.04
424.273	5.02
424.63	5.01
424.987	5
425.344	4.98
425.701	4.97
426.058	4.96
426.415	4.95
426.772	4.93
427.128	4.91
427.485	4.89
427.842	4.87
428.199	4.85
428.555	4.82
428.912	4.79
429.269	4.75
429.625	4.72
429.982	4.69
430.338	4.65
430.695	4.62
431.051	4.58
431.407	4.54
431.764	4.52
432.12	4.48
432.476	4.47
432.832	4.46
433.189	4.46
433.545	4.45
433.901	4.46
434.257	4.48
434.613	4.5
434.969	4.53
435.325	4.55
435.681	4.59
436.036	4.6
436.392	4.62
436.748	4.63
437.104	4.63
437.459	4.64
437.815	4.66
438.171	4.68
438.526	4.7
438.882	4.73
439.237	4.76
439.593	4.8
439.948	4.83
440.304	4.86
440.659	4.88
441.014	4.9
441.369	4.92
441.725	4.93
442.08	4.95
442.435	4.96
442.79	4.96
443.145	4.96
443.5	4.96
443.855	4.95
444.21	4.95
444.565	4.94
444.92	4.93
445.275	4.91
445.629	4.9
445.984	4.89
446.339	4.87
446.693	4.87
447.048	4.85
447.403	4.83
447.757	4.8
448.112	4.77
448.466	4.75
448.82	4.73
449.175	4.7
449.529	4.68
449.883	4.66
450.238	4.63
450.592	4.62
450.946	4.61
451.3	4.61
451.654	4.61
452.008	4.6
452.362	4.6
452.716	4.6
453.07	4.59
453.424	4.58
453.778	4.57
454.132	4.55
454.486	4.54
454.839	4.51
455.193	4.49
455.547	4.47
455.9	4.44
456.254	4.41
456.607	4.38
456.961	4.34
457.314	4.32
457.668	4.31
458.021	4.31
458.375	4.31
458.728	4.31
459.081	4.31
459.434	4.32
459.787	4.33
460.141	4.34
460.494	4.34
460.847	4.35
461.2	4.35
461.553	4.36
461.906	4.37
462.259	4.38
462.611	4.39
462.964	4.4
463.317	4.41
463.67	4.41
464.022	4.42
464.375	4.42
464.728	4.43
465.08	4.43
465.433	4.44
465.785	4.44
466.138	4.43
466.49	4.43
466.843	4.42
467.195	4.41
467.547	4.39
467.899	4.38
468.252	4.36
468.604	4.34
468.956	4.33
469.308	4.32
469.66	4.33
470.012	4.33
470.364	4.34
470.716	4.35
471.068	4.38
471.42	4.42
471.772	4.44
472.123	4.47
472.475	4.49
472.827	4.5
473.178	4.51
473.53	4.52
473.882	4.54
474.233	4.57
474.585	4.62
474.936	4.68
475.288	4.79
475.639	4.92
475.99	5.06
476.342	5.23
476.693	5.41
477.044	5.58
477.395	5.76
477.746	5.95
478.097	6.13
478.448	6.32
478.8	6.5
479.15	6.67
479.501	6.82
479.852	6.96
480.203	7.09
480.554	7.21
480.905	7.33
481.255	7.44
481.606	7.55
481.957	7.64
482.307	7.74
482.658	7.83
483.009	7.92
483.359	8
483.709	8.08
484.06	8.16
484.41	8.23
484.761	8.3
485.111	8.37
485.461	8.43
485.811	8.5
486.162	8.55
486.512	8.59
486.862	8.63
487.212	8.66
487.562	8.68
487.912	8.69
488.262	8.69
488.612	8.68
488.961	8.66
489.311	8.62
489.661	8.55
490.011	8.45
490.36	8.34
490.71	8.21
491.06	8.06
491.409	7.92
491.759	7.76
492.108	7.61
492.458	7.45
492.807	7.27
493.157	7.11
493.506	6.94
493.855	6.79
494.204	6.66
494.554	6.53
494.903	6.42
495.252	6.31
495.601	6.2
495.95	6.1
496.299	6.01
496.648	5.93
496.997	5.85
497.346	5.78
497.695	5.71
498.043	5.66
498.392	5.6
498.741	5.55
499.09	5.5
499.438	5.45
499.787	5.42
500.135	5.39
500.484	5.36
500.832	5.36
501.181	5.36
501.529	5.38
501.878	5.41
502.226	5.45
502.574	5.5
502.923	5.55
503.271	5.61
503.619	5.67
503.967	5.73
504.315	5.8
504.663	5.86
505.011	5.92
505.359	5.99
505.707	6.05
506.055	6.12
506.403	6.2
506.751	6.28
507.098	6.36
507.446	6.45
507.794	6.55
508.141	6.65
508.489	6.77
508.837	6.87
509.184	6.98
509.531	7.09
509.879	7.21
510.226	7.33
510.574	7.46
510.921	7.59
511.268	7.73
511.616	7.87
511.963	8.02
512.31	8.17
512.657	8.32
513.004	8.47
513.351	8.62
513.698	8.75
514.045	8.87
514.392	9
514.739	9.12
515.086	9.23
515.432	9.35
515.779	9.48
516.126	9.61
516.473	9.74
516.819	9.89
517.166	10.05
517.512	10.23
517.859	10.41
518.205	10.6
518.552	10.82
518.898	11.07
519.245	11.34
519.591	11.66
519.937	12.05
520.283	12.51
520.629	13
520.976	13.52
521.322	14.06
521.668	14.61
522.014	15.15
522.36	15.69
522.706	16.23
523.052	16.76
523.398	17.27
523.743	17.74
524.089	18.17
524.435	18.58
524.781	18.98
525.126	19.38
525.472	19.77
525.817	20.17
526.163	20.55
526.509	20.92
526.854	21.29
527.199	21.66
527.545	22.04
527.89	22.43
528.235	22.81
528.581	23.18
528.926	23.53
529.271	23.87
529.616	24.18
529.961	24.46
530.306	24.72
530.651	24.99
530.996	25.24
531.341	25.47
531.686	25.69
532.031	25.91
532.376	26.15
532.721	26.42
533.065	26.71
533.41	27.01
533.755	27.29
534.099	27.54
534.444	27.77
534.788	27.98
535.133	28.19
535.477	28.37
535.822	28.52
536.166	28.66
536.51	28.74
536.855	28.78
537.199	28.79
537.543	28.8
537.887	28.84
538.231	28.9
538.576	28.97
538.92	29.03
539.264	29.07
539.608	29.11
539.951	29.13
540.295	29.14
540.639	29.14
540.983	29.12
541.327	29.1
541.671	29.09
542.014	29.08
542.358	29.09
542.701	29.18
543.045	29.29
543.389	29.43
543.732	29.6
544.075	29.78
544.419	29.98
544.762	30.17
545.105	30.39
545.449	30.63
545.792	30.87
546.135	31.12
546.478	31.33
546.821	31.49
547.165	31.6
547.508	31.67
547.851	31.7
548.194	31.69
548.536	31.64
548.879	31.57
549.222	31.48
549.565	31.38
549.908	31.29
550.25	31.22
550.593	31.2
550.936	31.24
551.278	31.33
551.621	31.46
551.963	31.61
552.306	31.78
552.648	31.98
552.991	32.2
553.333	32.44
553.675	32.71
554.017	33.01
554.36	33.33
554.702	33.7
555.044	34.1
555.386	34.54
555.728	34.96
556.07	35.35
556.412	35.74
556.754	36.01
557.096	36.29
557.438	36.58
557.78	36.86
558.121	37.13
558.463	37.41
558.805	37.68
559.147	37.96
559.488	38.24
559.83	38.51
560.171	38.77
560.513	39.05
560.854	39.31
561.196	39.57
561.537	39.83
561.878	40.07
562.22	40.31
562.561	40.55
562.902	40.78
563.243	41.01
563.584	41.25
563.925	41.48
564.266	41.7
564.607	41.92
564.948	42.15
565.289	42.36
565.63	42.58
565.971	42.78
566.312	42.98
566.653	43.18
566.993	43.37
567.334	43.55
567.675	43.74
568.015	43.93
568.356	44.11
568.696	44.28
569.037	44.44
569.377	44.6
569.718	44.75
570.058	44.89
570.398	45.03
570.739	45.18
571.079	45.31
571.419	45.45
571.759	45.58
572.099	45.7
572.439	45.82
572.779	45.95
573.119	46.06
573.459	46.17
573.799	46.28
574.139	46.39
574.479	46.49
574.819	46.58
575.158	46.69
575.498	46.79
575.838	46.89
576.177	46.98
576.517	47.08
576.856	47.16
577.196	47.24
577.535	47.33
577.875	47.42
578.214	47.5
578.553	47.59
578.893	47.66
579.232	47.74
579.571	47.81
579.91	47.89
580.25	47.97
580.589	48.05
580.928	48.12
581.267	48.2
581.606	48.28
581.945	48.37
582.283	48.44
582.622	48.52
582.961	48.6
583.3	48.69
583.639	48.78
583.977	48.87
584.316	48.94
584.654	49.03
584.993	49.11
585.332	49.18
585.67	49.26
586.008	49.34
586.347	49.41
586.685	49.49
587.024	49.56
587.362	49.64
587.7	49.73
588.038	49.82
588.376	49.89
588.715	49.97
589.053	50.06
589.391	50.14
589.729	50.23
590.067	50.3
590.404	50.38
590.742	50.48
591.08	50.57
591.418	50.64
591.756	50.72
592.093	50.79
592.431	50.86
592.769	50.93
593.106	50.98
593.444	51.04
593.781	51.09
594.119	51.15
594.456	51.2
594.793	51.26
595.131	51.31
595.468	51.36
595.805	51.41
596.143	51.47
596.48	51.53
596.817	51.6
597.154	51.66
597.491	51.72
597.828	51.78
598.165	51.86
598.502	51.91
598.839	51.97
599.176	52.02
599.512	52.07
599.849	52.12
600.186	52.17
600.523	52.22
600.859	52.26
601.196	52.29
601.532	52.34
601.869	52.38
602.205	52.43
602.542	52.48
602.878	52.52
603.215	52.56
603.551	52.59
603.887	52.63
604.223	52.66
604.56	52.69
604.896	52.71
605.232	52.73
605.568	52.76
605.904	52.78
606.24	52.82
606.576	52.85
606.912	52.87
607.248	52.9
607.583	52.92
607.919	52.95
608.255	52.97
608.591	53
608.926	53.02
609.262	53.05
609.597	53.07
609.933	53.09
610.268	53.11
610.604	53.12
610.939	53.13
611.275	53.13
611.61	53.15
611.945	53.15
612.281	53.17
612.616	53.18
612.951	53.19
613.286	53.21
613.621	53.21
613.956	53.22
614.291	53.24
614.626	53.27
614.961	53.3
615.296	53.31
615.631	53.33
615.966	53.33
616.3	53.33
616.635	53.34
616.97	53.34
617.304	53.35
617.639	53.36
617.973	53.37
618.308	53.39
618.642	53.41
618.977	53.42
619.311	53.44
619.646	53.46
619.98	53.48
620.314	53.5
620.648	53.54
620.983	53.57
621.317	53.6
621.651	53.61
621.985	53.64
622.319	53.66
622.653	53.69
622.987	53.7
623.321	53.73
623.655	53.75
623.988	53.78
624.322	53.8
624.656	53.82
624.99	53.84
625.323	53.87
625.657	53.88
625.99	53.9
626.324	53.91
626.657	53.92
626.991	53.94
627.324	53.97
627.658	53.98
627.991	54
628.324	54.01
628.657	54.04
628.991	54.05
629.324	54.07
629.657	54.1
629.99	54.12
630.323	54.15
630.656	54.17
630.989	54.2
631.322	54.23
631.655	54.26
631.987	54.27
632.32	54.29
632.653	54.31
632.986	54.32
633.318	54.34
633.651	54.35
633.984	54.36
634.316	54.37
634.649	54.39
634.981	54.4
635.313	54.43
635.646	54.44
635.978	54.46
636.31	54.46
636.643	54.49
636.975	54.48
637.307	54.48
637.639	54.48
637.971	54.5
638.303	54.51
638.635	54.53
638.967	54.55
639.299	54.58
639.631	54.59
639.963	54.62
640.295	54.64
640.626	54.66
640.958	54.67
641.29	54.7
641.621	54.7
641.953	54.71
642.285	54.72
642.616	54.75
642.948	54.75
643.279	54.78
643.61	54.79
643.942	54.79
644.273	54.8
644.604	54.8
644.936	54.82
645.267	54.82
645.598	54.83
645.929	54.85
646.26	54.87
646.591	54.9
646.922	54.91
647.253	54.93
647.584	54.94
647.915	54.97
648.245	54.99
648.576	55.01
648.907	55.02
649.238	55.04
649.568	55.03
649.899	55.04
650.229	55.06
650.56	55.09
650.89	55.12
651.221	55.16
651.551	55.17
651.882	55.2
652.212	55.22
652.542	55.22
652.872	55.23
653.203	55.27
653.533	55.28
653.863	55.29
654.193	55.3
654.523	55.31
654.853	55.31
655.183	55.34
655.513	55.36
655.843	55.36
656.172	55.37
656.502	55.38
656.832	55.37
657.162	55.38
657.491	55.4
657.821	55.42
658.15	55.43
658.48	55.46
658.809	55.48
659.139	55.5
659.468	55.52
659.798	55.54
660.127	55.55
660.456	55.58
660.785	55.59
661.115	55.61
661.444	55.62
661.773	55.63
662.102	55.63
662.431	55.65
662.76	55.68
663.089	55.69
663.418	55.7
663.747	55.72
664.076	55.74
664.404	55.75
664.733	55.76
665.062	55.79
665.39	55.8
665.719	55.79
666.048	55.82
666.376	55.83
666.705	55.84
667.033	55.85
667.362	55.85
667.69	55.87
668.018	55.88
668.347	55.9
668.675	55.88
669.003	55.89
669.331	55.9
669.659	55.9
669.987	55.92
670.315	55.93
670.643	55.96
670.971	55.96
671.299	55.97
671.627	55.98
671.955	55.96
672.283	55.98
672.61	55.99
672.938	56.02
673.266	56.02
673.593	56.02
673.921	56.02
674.249	56.04
674.576	56.06
674.904	56.08
675.231	56.09
675.558	56.12
675.886	56.12
676.213	56.12
676.54	56.15
676.867	56.16
677.195	56.17
677.522	56.18
677.849	56.21
678.176	56.23
678.503	56.24
678.83	56.27
679.157	56.29
679.484	56.27
679.81	56.29
680.137	56.27
680.464	56.29
680.791	56.32
681.117	56.33
681.444	56.34
681.771	56.37
682.097	56.4
682.424	56.41
682.75	56.43
683.077	56.45
683.403	56.47
683.729	56.48
684.056	56.47
684.382	56.49
684.708	56.49
685.034	56.52
685.36	56.53
685.686	56.53
686.012	56.54
686.339	56.55
686.664	56.57
686.99	56.59
687.316	56.61
687.642	56.63
687.968	56.67
688.294	56.67
688.619	56.68
688.945	56.71
689.271	56.72
689.596	56.72
689.922	56.72
690.247	56.74
690.573	56.74
690.898	56.75
691.224	56.75
691.549	56.75
691.874	56.73
692.2	56.74
692.525	56.75
692.85	56.76
693.175	56.78
693.5	56.82
693.825	56.83
694.15	56.82
694.475	56.83
694.8	56.84
695.125	56.84
695.45	56.86
695.775	56.88
696.099	56.89
696.424	56.92
696.749	56.92
697.073	56.93
697.398	56.94
697.723	56.96
698.047	56.97
698.372	56.98
698.696	56.98
699.02	56.99
699.345	56.99
699.669	57
699.993	57.01
700.318	57.02
700.642	57.03
700.966	57.05
701.29	57.05
701.614	57.05
701.938	57.07
702.262	57.09
702.586	57.1
702.91	57.12
703.234	57.16
703.557	57.17
703.881	57.19
704.205	57.21
704.529	57.24
704.852	57.25
705.176	57.28
705.499	57.3
705.823	57.32
706.146	57.35
706.47	57.37
706.793	57.38
707.117	57.45
707.44	57.47
707.763	57.46
708.086	57.48
708.409	57.47
708.733	57.48
709.056	57.49
709.379	57.51
709.702	57.52
710.025	57.54
710.348	57.49
710.671	57.51
710.993	57.5
711.316	57.5
711.639	57.53
711.962	57.55
712.284	57.57
712.607	57.59
712.93	57.61
713.252	57.61
713.575	57.62
713.897	57.62
714.22	57.63
714.542	57.65
714.864	57.71
715.187	57.74
715.509	57.75
715.831	57.77
716.153	57.79
716.475	57.78
716.798	57.78
717.12	57.89
717.442	57.91
717.764	57.9
718.085	57.87
718.407	57.84
718.729	57.86
719.051	57.88
719.373	57.9
719.695	57.89
720.016	57.9
720.338	57.89
720.659	57.92
720.981	57.97
721.302	57.99
721.624	58.03
721.945	58.03
722.267	58.01
722.588	58.03
722.909	58.06
723.231	58.08
723.552	58.11
723.873	58.15
724.194	58.15
724.515	58.19
724.836	58.26
725.157	58.23
725.478	58.25
725.799	58.25
726.12	58.26
726.441	58.28
726.762	58.3
727.083	58.29
727.403	58.29
727.724	58.27
728.045	58.24
728.365	58.26
728.686	58.31
729.006	58.33
729.327	58.31
729.647	58.34
729.967	58.35
730.288	58.34
730.608	58.34
730.928	58.36
731.249	58.38
731.569	58.39
731.889	58.39
732.209	58.4
732.529	58.39
732.849	58.39
733.169	58.41
733.489	58.41
733.809	58.38
734.129	58.37
734.448	58.35
734.768	58.34
735.088	58.36
735.408	58.35
735.727	58.34
736.047	58.33
736.366	58.33
736.686	58.32
737.005	58.32
737.325	58.34
737.644	58.32
737.963	58.32
738.283	58.34
738.602	58.35
738.921	58.37
739.24	58.37
739.56	58.37
739.879	58.35
740.198	58.36
740.517	58.37
740.836	58.37
741.155	58.36
741.473	58.34
741.792	58.3
742.111	58.31
742.43	58.35
742.748	58.35
743.067	58.32
743.386	58.34
743.704	58.34
744.023	58.33
744.341	58.32
744.66	58.37
744.978	58.36
745.297	58.37
745.615	58.37
745.933	58.38
746.252	58.37
746.57	58.34
746.888	58.41
747.206	58.42
747.524	58.43
747.842	58.46
748.16	58.46
748.478	58.46
748.796	58.42
749.114	58.41
749.432	58.39
749.749	58.37
750.067	58.35
750.385	58.34
750.703	58.32
751.02	58.31
751.338	58.3
751.655	58.28
751.973	58.27
752.29	58.25
752.608	58.27
752.925	58.29
753.242	58.32
753.56	58.36
753.877	58.37
754.194	58.4
754.511	58.43
754.828	58.41
755.145	58.43
755.462	58.44
755.779	58.42
756.096	58.45
756.413	58.46
756.73	58.45
757.047	58.46
757.364	58.51
757.68	58.54
757.997	58.52
758.314	58.53
758.63	58.54
758.947	58.59
759.264	58.62
759.58	58.64
759.896	58.65
760.213	58.66
760.529	58.69
760.846	58.7
761.162	58.73
761.478	58.78
761.794	58.81
762.11	58.86
762.426	58.92
762.743	58.93
763.059	58.99
763.375	59.01
763.69	59.04
764.006	59.06
764.322	59.08
764.638	59.08
764.954	59.11
765.27	59.15
765.585	59.14
765.901	59.15
766.216	59.11
766.532	59.07
766.848	59.05
767.163	59.06
767.478	59.06
767.794	59.12
768.109	59.08
768.424	59.07
768.74	59.09
769.055	59.1
769.37	59.15
769.685	59.15
770	59.16
770.315	59.15
770.63	59.11
770.945	59.1
771.26	59.07
771.575	59.06
771.89	59.02
772.205	58.98
772.52	58.97
772.834	59
773.149	58.99
773.464	58.95
773.778	58.92
774.093	58.92
774.407	58.85
774.722	58.87
775.036	58.82
775.351	58.76
775.665	58.72
775.979	58.66
776.293	58.67
776.608	58.69
776.922	58.63
777.236	58.68
777.55	58.75
777.864	58.81
778.178	58.81
778.492	58.81
778.806	58.77
779.12	58.79
779.434	58.82
779.747	58.81
780.061	58.92
780.375	58.91
780.689	58.84
781.002	58.88
781.316	58.88
781.629	58.89
781.943	58.88
782.256	58.84
782.57	58.91
782.883	58.94
783.196	58.93
783.51	58.93
783.823	58.96
784.136	58.97
784.449	58.97
784.762	59.01
785.075	59.03
785.388	59
785.701	59.03
786.014	59.08
786.327	59.1
786.64	59.09
786.953	59.09
787.266	59.19
787.578	59.19
787.891	59.22
788.204	59.22
788.516	59.24
788.829	59.23
789.141	59.19
789.454	59.19
789.766	59.2
790.079	59.18
790.391	59.17
790.703	59.12
791.016	59.02
791.328	59.03
791.64	59.07
791.952	59.11
792.264	59.12
792.576	59.17
792.888	59.11
793.2	59.07
793.512	59.07
793.824	59.05
794.136	59.1
794.448	59.16
794.76	59.2
795.071	59.24
795.383	59.22
795.695	59.28
796.006	59.28
796.318	59.33
796.629	59.34
796.941	59.35
797.252	59.33
797.564	59.34
797.875	59.31
798.186	59.3
798.497	59.32
798.809	59.23
799.12	59.22
799.431	59.22
799.742	59.23
800.053	59.15
800.364	59.16
800.675	59.12
800.986	59.16
801.297	59.18
801.608	59.19
801.918	59.25
802.229	59.2
802.54	59.2
802.851	59.15
803.161	59.17
803.472	59.19
803.782	59.21
804.093	59.23
804.403	59.19
804.714	59.18
805.024	59.18
805.334	59.26
805.645	59.25
805.955	59.32
806.265	59.29
806.575	59.27
806.885	59.15
807.195	59.07
807.505	59.11
807.815	59.09
808.125	59.09
808.435	59.07
808.745	59.11
809.055	59.05
809.365	59.07
809.674	59.11
809.984	59.17
810.294	59.14
810.603	59.14
810.913	59.28
811.222	59.24
811.532	59.24
811.841	59.23
812.151	59.2
812.46	59.2
812.769	59.21
813.079	59.21
813.388	59.27
813.697	59.21
814.006	59.22
814.315	59.27
814.624	59.25
814.933	59.29
815.242	59.22
815.551	59.26
815.86	59.16
816.169	59.15
816.478	59.11
816.786	59.08
817.095	59.06
817.404	59.08
817.712	59.1
818.021	59.09
818.33	59.11
818.638	59.15
818.947	59.16
819.255	59.15
819.563	59.23
819.872	59.29
820.18	59.36
820.488	59.39
820.796	59.43
821.105	59.42
821.413	59.42
821.721	59.46
822.029	59.51
822.337	59.53
822.645	59.52
822.953	59.52
823.26	59.52
823.568	59.51
823.876	59.51
824.184	59.52
824.491	59.52
824.799	59.55
825.107	59.56
825.414	59.6
825.722	59.61
826.029	59.63
826.337	59.65
826.644	59.63
826.951	59.63
827.259	59.62
827.566	59.63
827.873	59.66
828.18	59.67
828.488	59.69
828.795	59.68
829.102	59.71
829.409	59.74
829.716	59.72
830.023	59.72
830.329	59.73
830.636	59.72
830.943	59.77
831.25	59.77
831.557	59.79
831.863	59.85
832.17	59.82
832.476	59.81
832.783	59.73
833.089	59.72
833.396	59.63
833.702	59.6
834.009	59.57
834.315	59.58
834.621	59.57
834.928	59.49
835.234	59.51
835.54	59.52
835.846	59.58
836.152	59.56
836.458	59.53
836.764	59.53
837.07	59.51
837.376	59.44
837.682	59.38
837.988	59.35
838.293	59.26
838.599	59.19
838.905	59.19
839.211	59.25
839.516	59.23
839.822	59.29
840.127	59.3
840.433	59.3
840.738	59.28
841.044	59.25
841.349	59.41
841.654	59.48
841.959	59.52
842.265	59.63
842.57	59.68
842.875	59.74
843.18	59.74
843.485	59.75
843.79	59.81
844.095	59.87
844.4	59.72
844.705	59.74
845.01	59.73
845.315	59.67
845.619	59.53
845.924	59.47
846.229	59.46
846.533	59.48
846.838	59.33
847.142	59.17
847.447	59.28
847.751	59.12
848.056	59.14
848.36	59.14
848.664	59.07
848.969	58.96
849.273	58.8
849.577	58.81
849.881	58.69
850.185	58.66
850.489	58.76
850.794	58.85
851.097	58.87
851.401	58.75
851.705	58.61
852.009	58.71
852.313	58.76
852.617	58.66
852.92	58.57
853.224	58.57
853.528	58.55
853.831	58.46
854.135	58.34
854.438	58.37
854.742	58.43
855.045	58.68
855.349	58.64
855.652	58.9
855.955	58.96
856.259	59.02
856.562	59.18
856.865	59.09
857.168	59.1
857.471	59.1
857.774	58.97
858.077	58.85
858.38	58.95
858.683	58.95
858.986	58.93
859.289	59.13
859.592	59.34
859.894	59.48
860.197	59.65
860.5	59.53
860.802	59.53
861.105	59.64
861.407	59.8
861.71	59.9
862.012	59.73
862.315	59.79
862.617	59.63
862.919	59.47
863.222	59.47
863.524	59.48
863.826	59.84
864.128	60.1
864.43	60.15
864.732	59.98
865.034	60.1
865.336	60.16
865.638	60.08
865.94	60.09
866.242	60.09
866.544	59.84
866.846	60.02
867.147	59.82
867.449	59.62
867.751	59.64
868.052	59.62
868.354	59.63
868.655	59.52
868.957	59.55
869.258	59.69
869.56	59.72
869.861	59.76
870.162	59.89
870.463	59.91
870.765	59.79
871.066	59.92
871.367	59.72
871.668	59.89
871.969	59.81
872.27	59.8
872.571	59.81
872.872	60.06
873.173	60
873.473	60.08
873.774	60.18
874.075	60.16
874.376	60.35
874.676	60.42
874.977	60.54
875.277	60.54
875.578	60.61
875.878	60.47
876.179	60.28
876.479	60.05
876.78	60
877.08	60.16
877.38	60.24
877.68	60.37
877.981	60.35
878.281	60.43
878.581	60.24
