Data from UWBM42201_Reflection_00003.txt Node
Date: Sun May 02 12:48:11 EDT 2021
User: vgr7
Spectrometer: USB2G7710
Scans to average: 10
Trigger mode: 4
Integration Time (sec): 1.000000E-1
Electric dark correction enabled: true
Boxcar width: 20
XAxis mode: Wavelengths
Number of Pixels in Spectrum: 2048
>>>>>Begin Spectral Data<<<<<
177.721	99.56
178.105	99.49
178.488	97.7
178.871	97.32
179.254	96.2
179.636	92.63
180.019	91.49
180.402	89.24
180.785	86.95
181.168	83.45
181.55	79.56
181.933	118.57
182.316	118.24
182.698	118.87
183.081	119.92
183.463	120.9
183.846	123.35
184.228	125.07
184.611	125.59
184.993	129.37
185.376	132.05
185.758	-119.59
186.14	-64.95
186.522	-27.22
186.904	-12.92
187.287	2.55
187.669	4.57
188.051	6.64
188.433	10.1
188.815	3.83
189.197	4.93
189.579	4.12
189.961	3.95
190.342	1.52
190.724	5.77
191.106	4.79
191.488	5.64
191.869	1.45
192.251	0.81
192.633	0.22
193.014	-2.47
193.396	-3.5
193.777	3.82
194.159	4.97
194.54	1.77
194.922	3.47
195.303	7.92
195.684	7.46
196.065	7.88
196.447	6.07
196.828	5.08
197.209	7.95
197.59	-3.24
197.971	-6.18
198.352	-5.61
198.733	-2.66
199.114	-3.78
199.495	-3.92
199.876	-2.9
200.257	-4.29
200.638	-3.39
201.018	-9.35
201.399	-11.61
201.78	-11.96
202.16	-10.87
202.541	-8.88
202.922	-8.69
203.302	-10.88
203.683	-10.18
204.063	-9.72
204.444	-7.8
204.824	-4.62
205.204	-0.45
205.585	8.96
205.965	8.15
206.345	7.6
206.725	3.07
207.106	4.12
207.486	5.11
207.866	5.02
208.246	4.27
208.626	8.15
209.006	13.27
209.386	8.77
209.766	8.92
210.145	8.65
210.525	7.76
210.905	7.86
211.285	9.8
211.664	9.06
212.044	10.42
212.424	11.72
212.803	5.41
213.183	7.46
213.562	9.07
213.942	8.1
214.321	4.28
214.701	3.84
215.08	4.2
215.459	4.71
215.838	4.1
216.218	3.45
216.597	2.04
216.976	-1.04
217.355	0.14
217.734	-0.73
218.113	-1.31
218.492	-1.82
218.871	-0.86
219.25	-1.34
219.629	-2.73
220.008	-2.53
220.387	-1.93
220.766	-1.39
221.144	-2.58
221.523	-0.23
221.902	0.48
222.28	1.28
222.659	2.28
223.037	2.34
223.416	3.13
223.794	4.21
224.173	4.2
224.551	3.84
224.929	4.73
225.308	5.27
225.686	5.13
226.064	5.26
226.442	5.25
226.821	4.66
227.199	4
227.577	3.28
227.955	2.61
228.333	2.75
228.711	2.96
229.089	3.19
229.467	2.68
229.845	3.52
230.222	3.56
230.6	4.2
230.978	4.39
231.356	4.07
231.733	4.26
232.111	4.48
232.488	4.51
232.866	4.54
233.243	4.29
233.621	4.52
233.998	4.5
234.376	4.72
234.753	4.73
235.13	4.88
235.508	5.34
235.885	5.36
236.262	5.26
236.639	5.41
237.016	5.36
237.393	5.36
237.77	5.18
238.147	5.12
238.524	5.07
238.901	5.1
239.278	5.02
239.655	4.92
240.032	4.84
240.409	4.82
240.785	4.82
241.162	4.91
241.539	4.83
241.915	4.84
242.292	4.84
242.668	4.83
243.045	4.84
243.421	4.76
243.798	4.74
244.174	4.75
244.551	4.66
244.927	4.54
245.303	4.49
245.679	4.5
246.056	4.45
246.432	4.41
246.808	4.21
247.184	4.19
247.56	4.16
247.936	4.19
248.312	4.15
248.688	4.21
249.064	4.18
249.44	4.17
249.815	4.16
250.191	4.14
250.567	4.09
250.943	4.19
251.318	4.2
251.694	4.14
252.069	4.09
252.445	4.09
252.82	4.18
253.196	4.22
253.571	4.17
253.947	4.26
254.322	4.23
254.697	4.39
255.073	4.37
255.448	4.38
255.823	4.37
256.198	4.31
256.573	4.15
256.948	4.16
257.323	4.16
257.698	4.11
258.073	4.11
258.448	4
258.823	4.01
259.198	4.01
259.573	4.02
259.948	4.08
260.322	4.05
260.697	4.04
261.072	4.03
261.446	4.01
261.821	4
262.195	3.97
262.57	3.95
262.944	3.93
263.319	3.9
263.693	3.93
264.067	3.94
264.442	4.03
264.816	4.01
265.19	3.99
265.564	4.03
265.938	4.02
266.313	4.05
266.687	3.99
267.061	3.98
267.435	3.97
267.809	3.95
268.183	3.92
268.556	3.92
268.93	3.92
269.304	3.9
269.678	3.87
270.051	3.84
270.425	3.84
270.799	3.84
271.172	3.83
271.546	3.84
271.919	3.84
272.293	3.81
272.666	3.81
273.04	3.82
273.413	3.75
273.787	3.73
274.16	3.72
274.533	3.74
274.906	3.72
275.279	3.72
275.653	3.7
276.026	3.69
276.399	3.65
276.772	3.65
277.145	3.66
277.518	3.68
277.891	3.69
278.263	3.7
278.636	3.72
279.009	3.72
279.382	3.71
279.755	3.65
280.127	3.66
280.5	3.65
280.872	3.64
281.245	3.73
281.617	3.73
281.99	3.77
282.362	3.8
282.735	3.78
283.107	3.78
283.479	3.79
283.852	3.81
284.224	3.84
284.596	3.8
284.968	3.69
285.34	3.67
285.713	3.66
286.085	3.58
286.457	3.58
286.829	3.55
287.201	3.54
287.572	3.59
287.944	3.59
288.316	3.62
288.688	3.66
289.06	3.66
289.431	3.66
289.803	3.67
290.175	3.66
290.546	3.68
290.918	3.7
291.289	3.67
291.661	3.69
292.032	3.63
292.403	3.65
292.775	3.73
293.146	3.73
293.517	3.75
293.889	3.81
294.26	3.79
294.631	3.82
295.002	3.85
295.373	3.88
295.744	3.87
296.115	3.86
296.486	3.79
296.857	3.79
297.228	3.77
297.599	3.77
297.97	3.76
298.34	3.77
298.711	3.71
299.082	3.7
299.452	3.72
299.823	3.76
300.194	3.77
300.564	3.76
300.935	3.76
301.305	3.75
301.676	3.74
302.046	3.75
302.416	3.75
302.787	3.74
303.157	3.69
303.527	3.69
303.897	3.68
304.267	3.69
304.637	3.69
305.008	3.69
305.378	3.7
305.748	3.68
306.117	3.72
306.487	3.78
306.857	3.81
307.227	3.82
307.597	3.79
307.967	3.78
308.336	3.78
308.706	3.79
309.076	3.79
309.445	3.78
309.815	3.66
310.184	3.65
310.554	3.6
310.923	3.63
311.293	3.64
311.662	3.65
312.031	3.65
312.401	3.64
312.77	3.61
313.139	3.62
313.508	3.64
313.877	3.59
314.246	3.57
314.616	3.54
314.985	3.48
315.353	3.49
315.722	3.5
316.091	3.5
316.46	3.49
316.829	3.51
317.198	3.52
317.567	3.65
317.935	3.66
318.304	3.7
318.672	3.72
319.041	3.72
319.41	3.72
319.778	3.74
320.147	3.74
320.515	3.74
320.883	3.74
321.252	3.7
321.62	3.72
321.988	3.71
322.357	3.72
322.725	3.79
323.093	3.79
323.461	3.78
323.829	3.79
324.197	3.77
324.565	3.75
324.933	3.75
325.301	3.75
325.669	3.74
326.037	3.74
326.405	3.69
326.772	3.68
327.14	3.67
327.508	3.65
327.875	3.65
328.243	3.64
328.61	3.59
328.978	3.61
329.346	3.6
329.713	3.59
330.08	3.58
330.448	3.58
330.815	3.55
331.182	3.56
331.55	3.55
331.917	3.55
332.284	3.55
332.651	3.56
333.018	3.57
333.385	3.56
333.752	3.55
334.119	3.56
334.486	3.56
334.853	3.54
335.22	3.56
335.587	3.53
335.954	3.54
336.32	3.55
336.687	3.55
337.054	3.56
337.42	3.58
337.787	3.56
338.153	3.59
338.52	3.63
338.886	3.66
339.253	3.66
339.619	3.66
339.986	3.64
340.352	3.63
340.718	3.65
341.084	3.65
341.451	3.64
341.817	3.62
342.183	3.61
342.549	3.64
342.915	3.63
343.281	3.65
343.647	3.66
344.013	3.67
344.379	3.68
344.745	3.67
345.11	3.68
345.476	3.69
345.842	3.7
346.208	3.68
346.573	3.67
346.939	3.69
347.304	3.68
347.67	3.69
348.035	3.7
348.401	3.69
348.766	3.71
349.132	3.7
349.497	3.73
349.862	3.74
350.228	3.75
350.593	3.76
350.958	3.75
351.323	3.73
351.688	3.74
352.053	3.73
352.418	3.72
352.783	3.72
353.148	3.71
353.513	3.69
353.878	3.69
354.243	3.7
354.608	3.68
354.972	3.69
355.337	3.7
355.702	3.68
356.066	3.69
356.431	3.68
356.795	3.68
357.16	3.66
357.524	3.66
357.889	3.65
358.253	3.66
358.618	3.66
358.982	3.67
359.346	3.68
359.71	3.68
360.075	3.68
360.439	3.68
360.803	3.67
361.167	3.66
361.531	3.68
361.895	3.69
362.259	3.69
362.623	3.68
362.987	3.67
363.351	3.69
363.714	3.69
364.078	3.69
364.442	3.7
364.806	3.7
365.169	3.68
365.533	3.68
365.896	3.67
366.26	3.68
366.623	3.67
366.987	3.67
367.35	3.69
367.714	3.69
368.077	3.69
368.44	3.69
368.803	3.7
369.167	3.7
369.53	3.71
369.893	3.71
370.256	3.72
370.619	3.73
370.982	3.72
371.345	3.72
371.708	3.74
372.071	3.74
372.434	3.75
372.797	3.77
373.159	3.78
373.522	3.78
373.885	3.77
374.247	3.76
374.61	3.76
374.973	3.75
375.335	3.75
375.698	3.75
376.06	3.76
376.423	3.75
376.785	3.75
377.147	3.74
377.51	3.75
377.872	3.75
378.234	3.75
378.596	3.76
378.958	3.78
379.321	3.78
379.683	3.79
380.045	3.78
380.407	3.79
380.769	3.79
381.13	3.8
381.492	3.81
381.854	3.81
382.216	3.8
382.578	3.8
382.939	3.82
383.301	3.81
383.663	3.82
384.024	3.82
384.386	3.83
384.747	3.82
385.109	3.81
385.47	3.81
385.832	3.82
386.193	3.81
386.554	3.81
386.916	3.82
387.277	3.82
387.638	3.83
387.999	3.83
388.36	3.83
388.721	3.84
389.082	3.84
389.443	3.85
389.804	3.85
390.165	3.86
390.526	3.86
390.887	3.86
391.248	3.85
391.609	3.86
391.969	3.87
392.33	3.88
392.691	3.88
393.051	3.88
393.412	3.88
393.772	3.88
394.133	3.89
394.493	3.88
394.854	3.89
395.214	3.89
395.574	3.88
395.935	3.88
396.295	3.87
396.655	3.88
397.015	3.89
397.376	3.88
397.736	3.88
398.096	3.88
398.456	3.89
398.816	3.9
399.176	3.89
399.535	3.9
399.895	3.91
400.255	3.91
400.615	3.92
400.975	3.92
401.334	3.92
401.694	3.93
402.054	3.93
402.413	3.92
402.773	3.92
403.132	3.93
403.492	3.92
403.851	3.92
404.211	3.93
404.57	3.95
404.929	3.95
405.288	3.95
405.648	3.96
406.007	3.97
406.366	3.97
406.725	3.99
407.084	3.98
407.443	3.98
407.802	3.98
408.161	3.97
408.52	3.97
408.879	3.97
409.238	3.97
409.596	3.97
409.955	3.99
410.314	3.99
410.673	3.99
411.031	4
411.39	4.01
411.748	4.02
412.107	4.03
412.465	4.04
412.824	4.06
413.182	4.08
413.54	4.11
413.899	4.13
414.257	4.16
414.615	4.2
414.974	4.23
415.332	4.27
415.69	4.31
416.048	4.34
416.406	4.38
416.764	4.41
417.122	4.44
417.48	4.48
417.838	4.51
418.195	4.53
418.553	4.56
418.911	4.57
419.269	4.57
419.626	4.57
419.984	4.57
420.342	4.55
420.699	4.54
421.057	4.52
421.414	4.5
421.772	4.49
422.129	4.49
422.486	4.49
422.844	4.49
423.201	4.49
423.558	4.49
423.915	4.49
424.273	4.49
424.63	4.49
424.987	4.49
425.344	4.49
425.701	4.49
426.058	4.5
426.415	4.5
426.772	4.49
427.128	4.49
427.485	4.48
427.842	4.48
428.199	4.47
428.555	4.45
428.912	4.44
429.269	4.42
429.625	4.4
429.982	4.38
430.338	4.36
430.695	4.34
431.051	4.3
431.407	4.29
431.764	4.27
432.12	4.25
432.476	4.24
432.832	4.23
433.189	4.24
433.545	4.24
433.901	4.26
434.257	4.28
434.613	4.31
434.969	4.34
435.325	4.37
435.681	4.41
436.036	4.42
436.392	4.44
436.748	4.45
437.104	4.45
437.459	4.47
437.815	4.49
438.171	4.51
438.526	4.53
438.882	4.57
439.237	4.6
439.593	4.64
439.948	4.67
440.304	4.71
440.659	4.73
441.014	4.75
441.369	4.78
441.725	4.8
442.08	4.82
442.435	4.83
442.79	4.83
443.145	4.83
443.5	4.84
443.855	4.83
444.21	4.83
444.565	4.83
444.92	4.82
445.275	4.81
445.629	4.8
445.984	4.8
446.339	4.8
446.693	4.79
447.048	4.78
447.403	4.77
447.757	4.74
448.112	4.72
448.466	4.7
448.82	4.69
449.175	4.67
449.529	4.66
449.883	4.65
450.238	4.62
450.592	4.62
450.946	4.62
451.3	4.62
451.654	4.63
452.008	4.64
452.362	4.64
452.716	4.65
453.07	4.65
453.424	4.64
453.778	4.64
454.132	4.62
454.486	4.62
454.839	4.6
455.193	4.58
455.547	4.57
455.9	4.53
456.254	4.51
456.607	4.48
456.961	4.46
457.314	4.44
457.668	4.43
458.021	4.43
458.375	4.43
458.728	4.43
459.081	4.43
459.434	4.44
459.787	4.45
460.141	4.46
460.494	4.47
460.847	4.47
461.2	4.48
461.553	4.49
461.906	4.5
462.259	4.5
462.611	4.5
462.964	4.51
463.317	4.51
463.67	4.52
464.022	4.52
464.375	4.52
464.728	4.52
465.08	4.52
465.433	4.52
465.785	4.51
466.138	4.5
466.49	4.49
466.843	4.47
467.195	4.45
467.547	4.42
467.899	4.4
468.252	4.37
468.604	4.34
468.956	4.33
469.308	4.31
469.66	4.31
470.012	4.3
470.364	4.31
470.716	4.31
471.068	4.33
471.42	4.36
471.772	4.38
472.123	4.39
472.475	4.4
472.827	4.41
473.178	4.42
473.53	4.43
473.882	4.45
474.233	4.47
474.585	4.51
474.936	4.57
475.288	4.66
475.639	4.78
475.99	4.93
476.342	5.09
476.693	5.27
477.044	5.44
477.395	5.62
477.746	5.81
478.097	5.99
478.448	6.18
478.8	6.37
479.15	6.54
479.501	6.69
479.852	6.84
480.203	6.97
480.554	7.1
480.905	7.23
481.255	7.35
481.606	7.46
481.957	7.56
482.307	7.67
482.658	7.77
483.009	7.86
483.359	7.95
483.709	8.03
484.06	8.12
484.41	8.21
484.761	8.28
485.111	8.36
485.461	8.42
485.811	8.49
486.162	8.55
486.512	8.6
486.862	8.64
487.212	8.67
487.562	8.7
487.912	8.71
488.262	8.72
488.612	8.71
488.961	8.69
489.311	8.66
489.661	8.58
490.011	8.49
490.36	8.37
490.71	8.24
491.06	8.09
491.409	7.94
491.759	7.79
492.108	7.62
492.458	7.46
492.807	7.27
493.157	7.1
493.506	6.93
493.855	6.77
494.204	6.62
494.554	6.48
494.903	6.35
495.252	6.23
495.601	6.1
495.95	5.98
496.299	5.87
496.648	5.77
496.997	5.66
497.346	5.57
497.695	5.48
498.043	5.39
498.392	5.31
498.741	5.22
499.09	5.14
499.438	5.06
499.787	4.98
500.135	4.92
500.484	4.86
500.832	4.81
501.181	4.76
501.529	4.73
501.878	4.71
502.226	4.7
502.574	4.7
502.923	4.69
503.271	4.69
503.619	4.69
503.967	4.69
504.315	4.69
504.663	4.68
505.011	4.68
505.359	4.67
505.707	4.67
506.055	4.67
506.403	4.67
506.751	4.67
507.098	4.68
507.446	4.69
507.794	4.7
508.141	4.71
508.489	4.73
508.837	4.75
509.184	4.76
509.531	4.78
509.879	4.79
510.226	4.8
510.574	4.82
510.921	4.83
511.268	4.84
511.616	4.86
511.963	4.88
512.31	4.9
512.657	4.92
513.004	4.94
513.351	4.95
513.698	4.96
514.045	4.96
514.392	4.98
514.739	4.98
515.086	4.97
515.432	4.98
515.779	4.98
516.126	4.98
516.473	4.98
516.819	4.98
517.166	4.99
517.512	5.01
517.859	5.02
518.205	5.04
518.552	5.06
518.898	5.1
519.245	5.14
519.591	5.2
519.937	5.27
520.283	5.37
520.629	5.48
520.976	5.6
521.322	5.73
521.668	5.85
522.014	5.97
522.36	6.09
522.706	6.22
523.052	6.33
523.398	6.45
523.743	6.54
524.089	6.62
524.435	6.7
524.781	6.77
525.126	6.84
525.472	6.9
525.817	6.96
526.163	7.02
526.509	7.07
526.854	7.12
527.199	7.17
527.545	7.23
527.89	7.28
528.235	7.33
528.581	7.38
528.926	7.43
529.271	7.48
529.616	7.52
529.961	7.55
530.306	7.57
530.651	7.6
530.996	7.62
531.341	7.63
531.686	7.64
532.031	7.63
532.376	7.64
532.721	7.64
533.065	7.65
533.41	7.65
533.755	7.65
534.099	7.62
534.444	7.59
534.788	7.55
535.133	7.51
535.477	7.46
535.822	7.41
536.166	7.35
536.51	7.28
536.855	7.2
537.199	7.11
537.543	7.03
537.887	6.96
538.231	6.89
538.576	6.83
538.92	6.77
539.264	6.71
539.608	6.65
539.951	6.59
540.295	6.52
540.639	6.46
540.983	6.39
541.327	6.34
541.671	6.27
542.014	6.21
542.358	6.15
542.701	6.12
543.045	6.08
543.389	6.06
543.732	6.04
544.075	6.02
544.419	6.01
544.762	5.98
545.105	5.97
545.449	5.97
545.792	5.97
546.135	5.96
546.478	5.95
546.821	5.93
547.165	5.9
547.508	5.86
547.851	5.81
548.194	5.75
548.536	5.69
548.879	5.62
549.222	5.55
549.565	5.48
549.908	5.4
550.25	5.34
550.593	5.28
550.936	5.23
551.278	5.2
551.621	5.16
551.963	5.14
552.306	5.12
552.648	5.11
552.991	5.09
553.333	5.08
553.675	5.07
554.017	5.08
554.36	5.08
554.702	5.1
555.044	5.11
555.386	5.14
555.728	5.16
556.07	5.17
556.412	5.18
556.754	5.19
557.096	5.19
557.438	5.2
557.78	5.2
558.121	5.2
558.463	5.21
558.805	5.22
559.147	5.22
559.488	5.22
559.83	5.23
560.171	5.23
560.513	5.24
560.854	5.24
561.196	5.23
561.537	5.24
561.878	5.24
562.22	5.25
562.561	5.25
562.902	5.26
563.243	5.27
563.584	5.27
563.925	5.27
564.266	5.27
564.607	5.28
564.948	5.28
565.289	5.29
565.63	5.29
565.971	5.29
566.312	5.3
566.653	5.31
566.993	5.3
567.334	5.31
567.675	5.31
568.015	5.33
568.356	5.33
568.696	5.34
569.037	5.34
569.377	5.34
569.718	5.34
570.058	5.34
570.398	5.34
570.739	5.34
571.079	5.34
571.419	5.34
571.759	5.34
572.099	5.34
572.439	5.34
572.779	5.34
573.119	5.35
573.459	5.34
573.799	5.34
574.139	5.35
574.479	5.36
574.819	5.35
575.158	5.36
575.498	5.36
575.838	5.36
576.177	5.36
576.517	5.36
576.856	5.36
577.196	5.36
577.535	5.36
577.875	5.36
578.214	5.37
578.553	5.37
578.893	5.37
579.232	5.37
579.571	5.37
579.91	5.37
580.25	5.37
580.589	5.37
580.928	5.37
581.267	5.37
581.606	5.37
581.945	5.37
582.283	5.37
582.622	5.37
582.961	5.38
583.3	5.38
583.639	5.39
583.977	5.39
584.316	5.4
584.654	5.4
584.993	5.41
585.332	5.4
585.67	5.41
586.008	5.41
586.347	5.41
586.685	5.42
587.024	5.43
587.362	5.43
587.7	5.44
588.038	5.44
588.376	5.44
588.715	5.44
589.053	5.45
589.391	5.45
589.729	5.45
590.067	5.45
590.404	5.44
590.742	5.45
591.08	5.45
591.418	5.45
591.756	5.46
592.093	5.47
592.431	5.48
592.769	5.49
593.106	5.49
593.444	5.49
593.781	5.49
594.119	5.5
594.456	5.5
594.793	5.5
595.131	5.5
595.468	5.51
595.805	5.5
596.143	5.51
596.48	5.51
596.817	5.52
597.154	5.52
597.491	5.52
597.828	5.53
598.165	5.53
598.502	5.54
598.839	5.54
599.176	5.54
599.512	5.54
599.849	5.55
600.186	5.55
600.523	5.55
600.859	5.55
601.196	5.56
601.532	5.57
601.869	5.57
602.205	5.58
602.542	5.58
602.878	5.59
603.215	5.58
603.551	5.58
603.887	5.58
604.223	5.59
604.56	5.59
604.896	5.6
605.232	5.59
605.568	5.6
605.904	5.6
606.24	5.6
606.576	5.61
606.912	5.62
607.248	5.62
607.583	5.62
607.919	5.62
608.255	5.62
608.591	5.63
608.926	5.63
609.262	5.63
609.597	5.63
609.933	5.64
610.268	5.66
610.604	5.66
610.939	5.67
611.275	5.67
611.61	5.67
611.945	5.67
612.281	5.68
612.616	5.68
612.951	5.67
613.286	5.68
613.621	5.68
613.956	5.68
614.291	5.69
614.626	5.69
614.961	5.71
615.296	5.71
615.631	5.72
615.966	5.72
616.3	5.73
616.635	5.73
616.97	5.73
617.304	5.73
617.639	5.74
617.973	5.75
618.308	5.76
618.642	5.76
618.977	5.76
619.311	5.76
619.646	5.77
619.98	5.79
620.314	5.78
620.648	5.8
620.983	5.79
621.317	5.8
621.651	5.81
621.985	5.8
622.319	5.81
622.653	5.81
622.987	5.82
623.321	5.82
623.655	5.83
623.988	5.84
624.322	5.85
624.656	5.85
624.99	5.86
625.323	5.87
625.657	5.87
625.99	5.88
626.324	5.89
626.657	5.9
626.991	5.91
627.324	5.91
627.658	5.91
627.991	5.91
628.324	5.92
628.657	5.92
628.991	5.93
629.324	5.94
629.657	5.94
629.99	5.93
630.323	5.94
630.656	5.95
630.989	5.95
631.322	5.96
631.655	5.95
631.987	5.95
632.32	5.96
632.653	5.96
632.986	5.97
633.318	5.97
633.651	5.97
633.984	5.98
634.316	5.98
634.649	5.99
634.981	6
635.313	6
635.646	6.01
635.978	6.01
636.31	6.01
636.643	6
636.975	6.01
637.307	6.01
637.639	6.01
637.971	6.02
638.303	6.03
638.635	6.03
638.967	6.03
639.299	6.03
639.631	6.04
639.963	6.05
640.295	6.06
640.626	6.07
640.958	6.07
641.29	6.07
641.621	6.08
641.953	6.09
642.285	6.1
642.616	6.11
642.948	6.11
643.279	6.14
643.61	6.15
643.942	6.15
644.273	6.16
644.604	6.16
644.936	6.17
645.267	6.18
645.598	6.19
645.929	6.19
646.26	6.2
646.591	6.2
646.922	6.21
647.253	6.22
647.584	6.2
647.915	6.22
648.245	6.22
648.576	6.23
648.907	6.22
649.238	6.22
649.568	6.22
649.899	6.22
650.229	6.24
650.56	6.25
650.89	6.26
651.221	6.26
651.551	6.27
651.882	6.28
652.212	6.27
652.542	6.27
652.872	6.28
653.203	6.29
653.533	6.29
653.863	6.28
654.193	6.28
654.523	6.28
654.853	6.28
655.183	6.29
655.513	6.3
655.843	6.31
656.172	6.32
656.502	6.32
656.832	6.3
657.162	6.31
657.491	6.31
657.821	6.31
658.15	6.32
658.48	6.32
658.809	6.32
659.139	6.33
659.468	6.34
659.798	6.35
660.127	6.36
660.456	6.4
660.785	6.41
661.115	6.44
661.444	6.44
661.773	6.46
662.102	6.47
662.431	6.48
662.76	6.49
663.089	6.5
663.418	6.51
663.747	6.51
664.076	6.51
664.404	6.52
664.733	6.53
665.062	6.56
665.39	6.56
665.719	6.57
666.048	6.57
666.376	6.57
666.705	6.57
667.033	6.57
667.362	6.57
667.69	6.59
668.018	6.59
668.347	6.6
668.675	6.59
669.003	6.59
669.331	6.59
669.659	6.59
669.987	6.61
670.315	6.62
670.643	6.63
670.971	6.64
671.299	6.64
671.627	6.65
671.955	6.65
672.283	6.64
672.61	6.66
672.938	6.67
673.266	6.67
673.593	6.67
673.921	6.68
674.249	6.68
674.576	6.69
674.904	6.7
675.231	6.7
675.558	6.72
675.886	6.73
676.213	6.73
676.54	6.74
676.867	6.74
677.195	6.75
677.522	6.77
677.849	6.79
678.176	6.81
678.503	6.82
678.83	6.83
679.157	6.84
679.484	6.84
679.81	6.84
680.137	6.84
680.464	6.86
680.791	6.85
681.117	6.84
681.444	6.83
681.771	6.84
682.097	6.83
682.424	6.83
682.75	6.82
683.077	6.82
683.403	6.82
683.729	6.83
684.056	6.84
684.382	6.84
684.708	6.84
685.034	6.85
685.36	6.84
685.686	6.86
686.012	6.88
686.339	6.9
686.664	6.9
686.99	6.91
687.316	6.91
687.642	6.94
687.968	6.98
688.294	6.99
688.619	6.99
688.945	7.01
689.271	7.02
689.596	7.03
689.922	7.06
690.247	7.08
690.573	7.09
690.898	7.11
691.224	7.12
691.549	7.11
691.874	7.09
692.2	7.11
692.525	7.12
692.85	7.11
693.175	7.12
693.5	7.14
693.825	7.15
694.15	7.15
694.475	7.16
694.8	7.17
695.125	7.17
695.45	7.21
695.775	7.21
696.099	7.21
696.424	7.23
696.749	7.23
697.073	7.23
697.398	7.22
697.723	7.23
698.047	7.24
698.372	7.25
698.696	7.24
699.02	7.24
699.345	7.24
699.669	7.24
699.993	7.25
700.318	7.23
700.642	7.23
700.966	7.24
701.29	7.23
701.614	7.24
701.938	7.23
702.262	7.24
702.586	7.25
702.91	7.25
703.234	7.27
703.557	7.26
703.881	7.25
704.205	7.27
704.529	7.3
704.852	7.3
705.176	7.32
705.499	7.35
705.823	7.37
706.146	7.37
706.47	7.4
706.793	7.41
707.117	7.53
707.44	7.55
707.763	7.54
708.086	7.55
708.409	7.55
708.733	7.54
709.056	7.55
709.379	7.57
709.702	7.61
710.025	7.62
710.348	7.47
710.671	7.48
710.993	7.48
711.316	7.47
711.639	7.49
711.962	7.5
712.284	7.52
712.607	7.52
712.93	7.55
713.252	7.57
713.575	7.57
713.897	7.56
714.22	7.56
714.542	7.6
714.864	7.68
715.187	7.71
715.509	7.72
715.831	7.72
716.153	7.74
716.475	7.7
716.798	7.7
717.12	7.89
717.442	7.9
717.764	7.89
718.085	7.81
718.407	7.81
718.729	7.8
719.051	7.81
719.373	7.83
719.695	7.82
720.016	7.81
720.338	7.73
720.659	7.74
720.981	7.77
721.302	7.77
721.624	7.79
721.945	7.79
722.267	7.79
722.588	7.79
722.909	7.8
723.231	7.84
723.552	7.86
723.873	7.89
724.194	7.9
724.515	7.92
724.836	8.05
725.157	8.05
725.478	8.07
725.799	8.09
726.12	8.08
726.441	8.08
726.762	8.11
727.083	8.11
727.403	8.12
727.724	8.1
728.045	8.02
728.365	8.04
728.686	8.09
729.006	8.1
729.327	8.1
729.647	8.12
729.967	8.1
730.288	8.13
730.608	8.14
730.928	8.18
731.249	8.18
731.569	8.21
731.889	8.21
732.209	8.22
732.529	8.23
732.849	8.26
733.169	8.29
733.489	8.3
733.809	8.31
734.129	8.31
734.448	8.33
734.768	8.32
735.088	8.34
735.408	8.36
735.727	8.38
736.047	8.42
736.366	8.42
736.686	8.43
737.005	8.45
737.325	8.45
737.644	8.47
737.963	8.46
738.283	8.49
738.602	8.5
738.921	8.52
739.24	8.53
739.56	8.55
739.879	8.56
740.198	8.59
740.517	8.61
740.836	8.63
741.155	8.64
741.473	8.71
741.792	8.73
742.111	8.75
742.43	8.77
742.748	8.76
743.067	8.79
743.386	8.79
743.704	8.81
744.023	8.83
744.341	8.81
744.66	8.83
744.978	8.8
745.297	8.81
745.615	8.81
745.933	8.82
746.252	8.81
746.57	8.75
746.888	8.76
747.206	8.78
747.524	8.81
747.842	8.87
748.16	8.87
748.478	8.87
748.796	8.85
749.114	8.83
749.432	8.85
749.749	8.89
750.067	8.88
750.385	8.89
750.703	8.89
751.02	8.9
751.338	8.89
751.655	8.96
751.973	8.96
752.29	8.95
752.608	9
752.925	9.01
753.242	9.09
753.56	9.13
753.877	9.09
754.194	9.16
754.511	9.12
754.828	9.09
755.145	9.14
755.462	9.15
755.779	9.15
756.096	9.18
756.413	9.17
756.73	9.11
757.047	9.11
757.364	9.12
757.68	9.14
757.997	9.13
758.314	9.12
758.63	9.12
758.947	9.17
759.264	9.15
759.58	9.15
759.896	9.14
760.213	9.16
760.529	9.15
760.846	9.1
761.162	9.11
761.478	9.11
761.794	9.09
762.11	9.11
762.426	9.13
762.743	9.1
763.059	9.19
763.375	9.23
763.69	9.25
764.006	9.26
764.322	9.28
764.638	9.28
764.954	9.35
765.27	9.39
765.585	9.35
765.901	9.39
766.216	9.25
766.532	9.21
766.848	9.22
767.163	9.24
767.478	9.3
767.794	9.32
768.109	9.34
768.424	9.36
768.74	9.4
769.055	9.41
769.37	9.46
769.685	9.49
770	9.54
770.315	9.57
770.63	9.51
770.945	9.48
771.26	9.5
771.575	9.51
771.89	9.53
772.205	9.6
772.52	9.61
772.834	9.83
773.149	9.89
773.464	9.85
773.778	9.88
774.093	9.94
774.407	9.97
774.722	10.01
775.036	9.99
775.351	9.97
775.665	9.97
775.979	9.83
776.293	9.81
776.608	9.8
776.922	9.8
777.236	9.91
777.55	10.02
777.864	10.03
778.178	10.05
778.492	10.04
778.806	10.01
779.12	10.04
779.434	10.08
779.747	10.04
780.061	10.14
780.375	10.08
780.689	10.04
781.002	10.07
781.316	10.06
781.629	10.14
781.943	10.2
782.256	10.26
782.57	10.3
782.883	10.26
783.196	10.25
783.51	10.3
783.823	10.34
784.136	10.31
784.449	10.34
784.762	10.32
785.075	10.37
785.388	10.35
785.701	10.31
786.014	10.28
786.327	10.3
786.64	10.29
786.953	10.31
787.266	10.38
787.578	10.35
787.891	10.4
788.204	10.4
788.516	10.43
788.829	10.48
789.141	10.45
789.454	10.47
789.766	10.47
790.079	10.47
790.391	10.42
790.703	10.51
791.016	10.4
791.328	10.42
791.64	10.43
791.952	10.48
792.264	10.5
792.576	10.5
792.888	10.53
793.2	10.56
793.512	10.57
793.824	10.47
794.136	10.48
794.448	10.49
794.76	10.51
795.071	10.52
795.383	10.52
795.695	10.61
796.006	10.7
796.318	10.74
796.629	10.76
796.941	10.8
797.252	10.77
797.564	10.86
797.875	10.79
798.186	10.73
798.497	10.76
798.809	10.65
799.12	10.65
799.431	10.61
799.742	10.64
800.053	10.58
800.364	10.66
800.675	10.68
800.986	10.7
801.297	10.81
801.608	10.82
801.918	10.85
802.229	10.88
802.54	10.89
802.851	10.87
803.161	10.85
803.472	10.85
803.782	10.78
804.093	10.84
804.403	10.76
804.714	10.86
805.024	10.84
805.334	11.03
805.645	11.01
805.955	11.07
806.265	11.09
806.575	11.15
806.885	11.07
807.195	11.05
807.505	11.07
807.815	11.05
808.125	11.14
808.435	11.15
808.745	11.12
809.055	11.13
809.365	11.24
809.674	11.27
809.984	11.35
810.294	11.35
810.603	11.34
810.913	11.59
811.222	11.55
811.532	11.66
811.841	11.68
812.151	11.79
812.46	11.74
812.769	11.83
813.079	11.88
813.388	11.9
813.697	11.82
814.006	11.74
814.315	11.8
814.624	11.78
814.933	11.72
815.242	11.64
815.551	11.67
815.86	11.65
816.169	11.63
816.478	11.63
816.786	11.57
817.095	11.56
817.404	11.54
817.712	11.56
818.021	11.45
818.33	11.45
818.638	11.42
818.947	11.37
819.255	11.39
819.563	11.4
819.872	11.41
820.18	11.4
820.488	11.41
820.796	11.38
821.105	11.36
821.413	11.37
821.721	11.39
822.029	11.38
822.337	11.4
822.645	11.37
822.953	11.35
823.26	11.4
823.568	11.41
823.876	11.38
824.184	11.38
824.491	11.37
824.799	11.37
825.107	11.37
825.414	11.39
825.722	11.4
826.029	11.38
826.337	11.4
826.644	11.39
826.951	11.42
827.259	11.44
827.566	11.48
827.873	11.5
828.18	11.47
828.488	11.46
828.795	11.46
829.102	11.48
829.409	11.51
829.716	11.53
830.023	11.54
830.329	11.57
830.636	11.62
830.943	11.7
831.25	11.76
831.557	11.78
831.863	11.8
832.17	11.81
832.476	11.86
832.783	11.87
833.089	11.88
833.396	11.86
833.702	11.84
834.009	11.81
834.315	11.85
834.621	11.96
834.928	11.96
835.234	12
835.54	12.04
835.846	12.09
836.152	12.09
836.458	12.14
836.764	12.1
837.07	12.15
837.376	12.07
837.682	12.04
837.988	12.11
838.293	11.99
838.599	12.07
838.905	12.1
839.211	12.15
839.516	12.16
839.822	12.26
840.127	12.22
840.433	12.27
840.738	12.3
841.044	12.34
841.349	12.44
841.654	12.52
841.959	12.61
842.265	12.61
842.57	12.66
842.875	12.76
843.18	12.94
843.485	12.97
843.79	13.16
844.095	13.43
844.4	13.36
844.705	13.58
845.01	13.55
845.315	13.57
845.619	13.55
845.924	13.44
846.229	13.42
846.533	13.46
846.838	13.51
847.142	13.35
847.447	13.48
847.751	13.36
848.056	13.48
848.36	13.42
848.664	13.48
848.969	13.5
849.273	13.52
849.577	13.35
849.881	13.24
850.185	13.24
850.489	13.59
850.794	13.88
851.097	13.76
851.401	13.67
851.705	13.84
852.009	14
852.313	13.92
852.617	14.15
852.92	14.14
853.224	14.05
853.528	13.93
853.831	13.84
854.135	13.61
854.438	13.53
854.742	13.69
855.045	13.76
855.349	13.77
855.652	14.04
855.955	14.04
856.259	14.09
856.562	14.12
856.865	14
857.168	14.01
857.471	13.92
857.774	13.93
858.077	13.77
858.38	13.74
858.683	13.63
858.986	13.65
859.289	13.8
859.592	13.77
859.894	14.08
860.197	14.17
860.5	14.17
860.802	14.46
861.105	14.43
861.407	14.55
861.71	14.42
862.012	14.5
862.315	14.67
862.617	14.4
862.919	13.8
863.222	13.92
863.524	14.06
863.826	14.42
864.128	14.58
864.43	14.6
864.732	14.59
865.034	14.72
865.336	14.75
865.638	14.62
865.94	14.51
866.242	14.53
866.544	14.17
866.846	14.55
867.147	14.23
867.449	13.96
867.751	14.05
868.052	13.94
868.354	13.81
868.655	13.79
868.957	14.04
869.258	14.23
869.56	14.05
869.861	14.36
870.162	14.26
870.463	14.25
870.765	14.47
871.066	14.53
871.367	14.37
871.668	14.44
871.969	14.52
872.27	14.39
872.571	14.41
872.872	14.74
873.173	14.42
873.473	14.64
873.774	14.72
874.075	14.75
874.376	14.94
874.676	14.91
874.977	15.02
875.277	15.03
875.578	14.91
875.878	14.63
876.179	14.55
876.479	14.3
876.78	14.33
877.08	14.34
877.38	14.27
877.68	14.42
877.981	14.57
878.281	14.71
878.581	14.69
