Data from UWBM79812_Reflection_00008.txt Node
Date: Sun May 02 13:57:55 EDT 2021
User: vgr7
Spectrometer: USB2G7710
Scans to average: 10
Trigger mode: 4
Integration Time (sec): 1.000000E-1
Electric dark correction enabled: true
Boxcar width: 20
XAxis mode: Wavelengths
Number of Pixels in Spectrum: 2048
>>>>>Begin Spectral Data<<<<<
177.721	54
178.105	52.75
178.488	115.08
178.871	111.2
179.254	80.83
179.636	62.41
180.019	58.95
180.402	49.51
180.785	46.39
181.168	43.39
181.55	43.84
181.933	44.72
182.316	38.11
182.698	35.96
183.081	32.06
183.463	27.32
183.846	22.95
184.228	20.91
184.611	21.06
184.993	23.46
185.376	25.03
185.758	28.01
186.14	29.03
186.522	28.73
186.904	26.54
187.287	25.81
187.669	27.03
188.051	25.71
188.433	25.94
188.815	24.41
189.197	25.02
189.579	25.95
189.961	22.92
190.342	24.73
190.724	26.18
191.106	26.46
191.488	26
191.869	22.83
192.251	20.49
192.633	20.9
193.014	22.04
193.396	20.12
193.777	21.65
194.159	20.47
194.54	20.86
194.922	19.85
195.303	20.07
195.684	19.39
196.065	20.66
196.447	21.72
196.828	21.95
197.209	21.22
197.59	18.8
197.971	17.69
198.352	18.03
198.733	19.35
199.114	20.29
199.495	21.94
199.876	22.2
200.257	22.91
200.638	22.06
201.018	22.55
201.399	21.7
201.78	21.07
202.16	21.09
202.541	21.79
202.922	21.82
203.302	21.55
203.683	22.42
204.063	23.1
204.444	21.9
204.824	21.3
205.204	19.69
205.585	21.67
205.965	21.58
206.345	21.13
206.725	20.69
207.106	19.46
207.486	20.76
207.866	21.85
208.246	20.5
208.626	19.85
209.006	19.89
209.386	18.49
209.766	17.95
210.145	17.7
210.525	17.95
210.905	18.87
211.285	18.41
211.664	17.18
212.044	15.74
212.424	15.62
212.803	15.68
213.183	15.99
213.562	16.85
213.942	16.79
214.321	16.08
214.701	15.79
215.08	16.33
215.459	16.37
215.838	14.95
216.218	14.73
216.597	12.89
216.976	13.05
217.355	12.57
217.734	12.43
218.113	12.09
218.492	11.62
218.871	11.49
219.25	11.7
219.629	11.7
220.008	12.31
220.387	10.82
220.766	11.1
221.144	10.52
221.523	10.3
221.902	10.09
222.28	9.03
222.659	9.6
223.037	8.23
223.416	8.83
223.794	9.03
224.173	9.27
224.551	8.9
224.929	10.01
225.308	9.58
225.686	9.24
226.064	9.02
226.442	8.46
226.821	8.31
227.199	8.61
227.577	8.55
227.955	8.53
228.333	8.46
228.711	8.4
229.089	8.08
229.467	7.67
229.845	7.28
230.222	7.33
230.6	6.91
230.978	6.91
231.356	7.05
231.733	6.78
232.111	6.65
232.488	6.3
232.866	6.14
233.243	5.93
233.621	5.89
233.998	5.91
234.376	5.71
234.753	5.33
235.13	5.2
235.508	5.18
235.885	5.31
236.262	5.24
236.639	5.21
237.016	5.1
237.393	5.04
237.77	5.1
238.147	5
238.524	5.1
238.901	4.94
239.278	4.92
239.655	4.88
240.032	4.79
240.409	4.73
240.785	4.79
241.162	4.76
241.539	4.72
241.915	4.74
242.292	4.71
242.668	4.68
243.045	4.63
243.421	4.57
243.798	4.54
244.174	4.56
244.551	4.58
244.927	4.59
245.303	4.63
245.679	4.63
246.056	4.61
246.432	4.59
246.808	4.57
247.184	4.61
247.56	4.64
247.936	4.66
248.312	4.63
248.688	4.63
249.064	4.61
249.44	4.59
249.815	4.6
250.191	4.6
250.567	4.61
250.943	4.59
251.318	4.58
251.694	4.56
252.069	4.55
252.445	4.55
252.82	4.53
253.196	4.48
253.571	4.46
253.947	4.42
254.322	4.42
254.697	4.4
255.073	4.39
255.448	4.4
255.823	4.35
256.198	4.31
256.573	4.31
256.948	4.33
257.323	4.3
257.698	4.28
258.073	4.27
258.448	4.27
258.823	4.28
259.198	4.27
259.573	4.26
259.948	4.27
260.322	4.27
260.697	4.25
261.072	4.22
261.446	4.2
261.821	4.18
262.195	4.17
262.57	4.14
262.944	4.13
263.319	4.14
263.693	4.16
264.067	4.16
264.442	4.16
264.816	4.15
265.19	4.15
265.564	4.15
265.938	4.14
266.313	4.15
266.687	4.13
267.061	4.12
267.435	4.11
267.809	4.1
268.183	4.11
268.556	4.11
268.93	4.12
269.304	4.12
269.678	4.11
270.051	4.1
270.425	4.09
270.799	4.09
271.172	4.11
271.546	4.13
271.919	4.13
272.293	4.11
272.666	4.11
273.04	4.13
273.413	4.14
273.787	4.16
274.16	4.17
274.533	4.18
274.906	4.18
275.279	4.17
275.653	4.17
276.026	4.18
276.399	4.19
276.772	4.22
277.145	4.21
277.518	4.21
277.891	4.22
278.263	4.2
278.636	4.2
279.009	4.19
279.382	4.2
279.755	4.19
280.127	4.19
280.5	4.2
280.872	4.2
281.245	4.21
281.617	4.2
281.99	4.2
282.362	4.21
282.735	4.22
283.107	4.21
283.479	4.2
283.852	4.21
284.224	4.22
284.596	4.22
284.968	4.23
285.34	4.25
285.713	4.26
286.085	4.27
286.457	4.27
286.829	4.24
287.201	4.26
287.572	4.27
287.944	4.27
288.316	4.27
288.688	4.27
289.06	4.27
289.431	4.27
289.803	4.28
290.175	4.29
290.546	4.3
290.918	4.32
291.289	4.32
291.661	4.33
292.032	4.32
292.403	4.34
292.775	4.35
293.146	4.36
293.517	4.37
293.889	4.38
294.26	4.41
294.631	4.43
295.002	4.46
295.373	4.48
295.744	4.48
296.115	4.51
296.486	4.54
296.857	4.56
297.228	4.58
297.599	4.6
297.97	4.62
298.34	4.64
298.711	4.69
299.082	4.71
299.452	4.73
299.823	4.76
300.194	4.77
300.564	4.78
300.935	4.79
301.305	4.81
301.676	4.84
302.046	4.88
302.416	4.9
302.787	4.91
303.157	4.93
303.527	4.97
303.897	5
304.267	5.03
304.637	5.07
305.008	5.09
305.378	5.11
305.748	5.15
306.117	5.16
306.487	5.19
306.857	5.23
307.227	5.27
307.597	5.31
307.967	5.34
308.336	5.38
308.706	5.41
309.076	5.43
309.445	5.46
309.815	5.48
310.184	5.5
310.554	5.51
310.923	5.55
311.293	5.56
311.662	5.57
312.031	5.6
312.401	5.63
312.77	5.67
313.139	5.69
313.508	5.74
313.877	5.74
314.246	5.77
314.616	5.77
314.985	5.81
315.353	5.84
315.722	5.87
316.091	5.89
316.46	5.92
316.829	5.96
317.198	5.98
317.567	6.01
317.935	6.05
318.304	6.09
318.672	6.11
319.041	6.14
319.41	6.17
319.778	6.21
320.147	6.24
320.515	6.26
320.883	6.28
321.252	6.31
321.62	6.35
321.988	6.38
322.357	6.4
322.725	6.44
323.093	6.47
323.461	6.49
323.829	6.54
324.197	6.57
324.565	6.59
324.933	6.62
325.301	6.63
325.669	6.66
326.037	6.67
326.405	6.7
326.772	6.73
327.14	6.74
327.508	6.75
327.875	6.77
328.243	6.78
328.61	6.78
328.978	6.81
329.346	6.83
329.713	6.87
330.08	6.89
330.448	6.91
330.815	6.94
331.182	6.97
331.55	6.98
331.917	6.99
332.284	7.01
332.651	7.04
333.018	7.07
333.385	7.08
333.752	7.11
334.119	7.14
334.486	7.16
334.853	7.18
335.22	7.21
335.587	7.24
335.954	7.27
336.32	7.29
336.687	7.31
337.054	7.32
337.42	7.35
337.787	7.36
338.153	7.37
338.52	7.39
338.886	7.4
339.253	7.42
339.619	7.43
339.986	7.47
340.352	7.49
340.718	7.51
341.084	7.52
341.451	7.54
341.817	7.55
342.183	7.57
342.549	7.59
342.915	7.61
343.281	7.63
343.647	7.65
344.013	7.67
344.379	7.68
344.745	7.7
345.11	7.71
345.476	7.74
345.842	7.74
346.208	7.76
346.573	7.78
346.939	7.8
347.304	7.82
347.67	7.83
348.035	7.85
348.401	7.87
348.766	7.88
349.132	7.88
349.497	7.9
349.862	7.92
350.228	7.92
350.593	7.94
350.958	7.95
351.323	7.96
351.688	7.96
352.053	7.97
352.418	7.98
352.783	7.99
353.148	7.99
353.513	7.99
353.878	7.99
354.243	8
354.608	8
354.972	7.99
355.337	8
355.702	8.01
356.066	8.01
356.431	8.01
356.795	8
357.16	7.99
357.524	7.99
357.889	7.99
358.253	7.98
358.618	7.98
358.982	7.97
359.346	7.96
359.71	7.95
360.075	7.94
360.439	7.92
360.803	7.92
361.167	7.91
361.531	7.9
361.895	7.89
362.259	7.88
362.623	7.86
362.987	7.85
363.351	7.83
363.714	7.81
364.078	7.8
364.442	7.78
364.806	7.76
365.169	7.74
365.533	7.72
365.896	7.7
366.26	7.68
366.623	7.66
366.987	7.63
367.35	7.62
367.714	7.6
368.077	7.58
368.44	7.56
368.803	7.53
369.167	7.5
369.53	7.47
369.893	7.43
370.256	7.4
370.619	7.37
370.982	7.34
371.345	7.31
371.708	7.28
372.071	7.25
372.434	7.22
372.797	7.19
373.159	7.17
373.522	7.14
373.885	7.11
374.247	7.08
374.61	7.05
374.973	7.01
375.335	6.98
375.698	6.95
376.06	6.92
376.423	6.89
376.785	6.85
377.147	6.82
377.51	6.79
377.872	6.76
378.234	6.73
378.596	6.7
378.958	6.67
379.321	6.63
379.683	6.61
380.045	6.58
380.407	6.55
380.769	6.52
381.13	6.49
381.492	6.46
381.854	6.43
382.216	6.4
382.578	6.37
382.939	6.35
383.301	6.32
383.663	6.3
384.024	6.26
384.386	6.23
384.747	6.21
385.109	6.19
385.47	6.16
385.832	6.13
386.193	6.1
386.554	6.08
386.916	6.05
387.277	6.02
387.638	6
387.999	5.98
388.36	5.95
388.721	5.93
389.082	5.91
389.443	5.89
389.804	5.87
390.165	5.85
390.526	5.83
390.887	5.8
391.248	5.77
391.609	5.75
391.969	5.73
392.33	5.71
392.691	5.69
393.051	5.67
393.412	5.65
393.772	5.63
394.133	5.6
394.493	5.57
394.854	5.55
395.214	5.53
395.574	5.51
395.935	5.49
396.295	5.46
396.655	5.44
397.015	5.42
397.376	5.4
397.736	5.37
398.096	5.35
398.456	5.33
398.816	5.31
399.176	5.29
399.535	5.26
399.895	5.24
400.255	5.22
400.615	5.2
400.975	5.18
401.334	5.16
401.694	5.14
402.054	5.12
402.413	5.1
402.773	5.08
403.132	5.07
403.492	5.05
403.851	5.04
404.211	5.03
404.57	5.01
404.929	5
405.288	4.98
405.648	4.97
406.007	4.96
406.366	4.95
406.725	4.93
407.084	4.92
407.443	4.91
407.802	4.9
408.161	4.89
408.52	4.88
408.879	4.87
409.238	4.86
409.596	4.85
409.955	4.85
410.314	4.84
410.673	4.83
411.031	4.82
411.39	4.82
411.748	4.81
412.107	4.81
412.465	4.81
412.824	4.83
413.182	4.84
413.54	4.86
413.899	4.89
414.257	4.92
414.615	4.96
414.974	4.98
415.332	5.02
415.69	5.05
416.048	5.08
416.406	5.12
416.764	5.14
417.122	5.17
417.48	5.19
417.838	5.22
418.195	5.24
418.553	5.25
418.911	5.26
419.269	5.26
419.626	5.25
419.984	5.24
420.342	5.22
420.699	5.2
421.057	5.17
421.414	5.14
421.772	5.12
422.129	5.1
422.486	5.09
422.844	5.08
423.201	5.07
423.558	5.07
423.915	5.06
424.273	5.05
424.63	5.04
424.987	5.03
425.344	5.03
425.701	5.02
426.058	5.02
426.415	5.01
426.772	5
427.128	4.99
427.485	4.96
427.842	4.94
428.199	4.92
428.555	4.89
428.912	4.86
429.269	4.82
429.625	4.79
429.982	4.75
430.338	4.71
430.695	4.68
431.051	4.64
431.407	4.61
431.764	4.59
432.12	4.56
432.476	4.54
432.832	4.52
433.189	4.52
433.545	4.52
433.901	4.53
434.257	4.55
434.613	4.58
434.969	4.6
435.325	4.62
435.681	4.67
436.036	4.69
436.392	4.71
436.748	4.73
437.104	4.73
437.459	4.75
437.815	4.77
438.171	4.79
438.526	4.81
438.882	4.85
439.237	4.89
439.593	4.93
439.948	4.96
440.304	5
440.659	5.02
441.014	5.04
441.369	5.07
441.725	5.08
442.08	5.1
442.435	5.11
442.79	5.12
443.145	5.12
443.5	5.12
443.855	5.12
444.21	5.12
444.565	5.11
444.92	5.1
445.275	5.09
445.629	5.08
445.984	5.06
446.339	5.04
446.693	5.03
447.048	5.01
447.403	4.99
447.757	4.96
448.112	4.94
448.466	4.91
448.82	4.88
449.175	4.85
449.529	4.83
449.883	4.8
450.238	4.77
450.592	4.76
450.946	4.75
451.3	4.74
451.654	4.75
452.008	4.74
452.362	4.75
452.716	4.74
453.07	4.74
453.424	4.73
453.778	4.72
454.132	4.7
454.486	4.69
454.839	4.67
455.193	4.64
455.547	4.63
455.9	4.59
456.254	4.57
456.607	4.54
456.961	4.51
457.314	4.48
457.668	4.47
458.021	4.46
458.375	4.46
458.728	4.45
459.081	4.46
459.434	4.46
459.787	4.47
460.141	4.48
460.494	4.49
460.847	4.5
461.2	4.51
461.553	4.52
461.906	4.52
462.259	4.52
462.611	4.52
462.964	4.53
463.317	4.54
463.67	4.55
464.022	4.56
464.375	4.57
464.728	4.57
465.08	4.58
465.433	4.58
465.785	4.58
466.138	4.58
466.49	4.56
466.843	4.54
467.195	4.52
467.547	4.5
467.899	4.48
468.252	4.45
468.604	4.43
468.956	4.41
469.308	4.4
469.66	4.4
470.012	4.4
470.364	4.41
470.716	4.41
471.068	4.43
471.42	4.46
471.772	4.48
472.123	4.5
472.475	4.52
472.827	4.53
473.178	4.54
473.53	4.56
473.882	4.58
474.233	4.6
474.585	4.65
474.936	4.72
475.288	4.82
475.639	4.95
475.99	5.1
476.342	5.26
476.693	5.44
477.044	5.62
477.395	5.81
477.746	6.01
478.097	6.2
478.448	6.39
478.8	6.58
479.15	6.76
479.501	6.92
479.852	7.06
480.203	7.21
480.554	7.34
480.905	7.47
481.255	7.6
481.606	7.72
481.957	7.83
482.307	7.93
482.658	8.03
483.009	8.12
483.359	8.22
483.709	8.3
484.06	8.39
484.41	8.47
484.761	8.55
485.111	8.63
485.461	8.7
485.811	8.77
486.162	8.83
486.512	8.89
486.862	8.93
487.212	8.96
487.562	8.98
487.912	8.99
488.262	9
488.612	8.99
488.961	8.97
489.311	8.92
489.661	8.85
490.011	8.75
490.36	8.63
490.71	8.5
491.06	8.36
491.409	8.21
491.759	8.05
492.108	7.87
492.458	7.7
492.807	7.52
493.157	7.35
493.506	7.18
493.855	7.02
494.204	6.88
494.554	6.73
494.903	6.6
495.252	6.48
495.601	6.36
495.95	6.24
496.299	6.14
496.648	6.04
496.997	5.95
497.346	5.86
497.695	5.78
498.043	5.7
498.392	5.63
498.741	5.56
499.09	5.49
499.438	5.44
499.787	5.38
500.135	5.33
500.484	5.29
500.832	5.26
501.181	5.25
501.529	5.25
501.878	5.26
502.226	5.29
502.574	5.31
502.923	5.35
503.271	5.38
503.619	5.42
503.967	5.46
504.315	5.49
504.663	5.53
505.011	5.57
505.359	5.6
505.707	5.64
506.055	5.69
506.403	5.73
506.751	5.79
507.098	5.84
507.446	5.89
507.794	5.95
508.141	6.02
508.489	6.08
508.837	6.16
509.184	6.23
509.531	6.31
509.879	6.39
510.226	6.48
510.574	6.57
510.921	6.67
511.268	6.77
511.616	6.88
511.963	6.98
512.31	7.09
512.657	7.21
513.004	7.32
513.351	7.42
513.698	7.52
514.045	7.61
514.392	7.7
514.739	7.78
515.086	7.85
515.432	7.93
515.779	8.01
516.126	8.09
516.473	8.17
516.819	8.27
517.166	8.38
517.512	8.5
517.859	8.63
518.205	8.78
518.552	8.93
518.898	9.11
519.245	9.31
519.591	9.56
519.937	9.85
520.283	10.2
520.629	10.57
520.976	10.97
521.322	11.38
521.668	11.81
522.014	12.24
522.36	12.68
522.706	13.1
523.052	13.52
523.398	13.91
523.743	14.27
524.089	14.59
524.435	14.9
524.781	15.2
525.126	15.49
525.472	15.78
525.817	16.06
526.163	16.34
526.509	16.61
526.854	16.89
527.199	17.15
527.545	17.42
527.89	17.71
528.235	17.98
528.581	18.24
528.926	18.49
529.271	18.73
529.616	18.96
529.961	19.19
530.306	19.4
530.651	19.6
530.996	19.79
531.341	19.95
531.686	20.11
532.031	20.26
532.376	20.42
532.721	20.6
533.065	20.8
533.41	21.01
533.755	21.2
534.099	21.37
534.444	21.52
534.788	21.65
535.133	21.77
535.477	21.88
535.822	21.98
536.166	22.04
536.51	22.08
536.855	22.07
537.199	22.05
537.543	22.02
537.887	22.02
538.231	22.05
538.576	22.07
538.92	22.09
539.264	22.11
539.608	22.12
539.951	22.11
540.295	22.09
540.639	22.08
540.983	22.05
541.327	22.01
541.671	21.95
542.014	21.91
542.358	21.89
542.701	21.92
543.045	21.99
543.389	22.08
543.732	22.19
544.075	22.31
544.419	22.44
544.762	22.58
545.105	22.73
545.449	22.89
545.792	23.07
546.135	23.24
546.478	23.39
546.821	23.5
547.165	23.59
547.508	23.64
547.851	23.66
548.194	23.65
548.536	23.61
548.879	23.55
549.222	23.48
549.565	23.42
549.908	23.35
550.25	23.31
550.593	23.3
550.936	23.35
551.278	23.43
551.621	23.53
551.963	23.66
552.306	23.8
552.648	23.97
552.991	24.16
553.333	24.36
553.675	24.59
554.017	24.84
554.36	25.12
554.702	25.41
555.044	25.73
555.386	26.09
555.728	26.48
556.07	26.83
556.412	27.19
556.754	27.49
557.096	27.76
557.438	28.03
557.78	28.31
558.121	28.59
558.463	28.87
558.805	29.15
559.147	29.43
559.488	29.71
559.83	29.98
560.171	30.26
560.513	30.54
560.854	30.82
561.196	31.09
561.537	31.35
561.878	31.61
562.22	31.86
562.561	32.11
562.902	32.37
563.243	32.63
563.584	32.87
563.925	33.12
564.266	33.37
564.607	33.63
564.948	33.88
565.289	34.12
565.63	34.36
565.971	34.61
566.312	34.84
566.653	35.08
566.993	35.3
567.334	35.53
567.675	35.75
568.015	35.96
568.356	36.17
568.696	36.38
569.037	36.58
569.377	36.79
569.718	36.99
570.058	37.17
570.398	37.36
570.739	37.53
571.079	37.71
571.419	37.87
571.759	38.03
572.099	38.19
572.439	38.35
572.779	38.5
573.119	38.65
573.459	38.8
573.799	38.95
574.139	39.09
574.479	39.24
574.819	39.39
575.158	39.54
575.498	39.68
575.838	39.82
576.177	39.97
576.517	40.11
576.856	40.24
577.196	40.37
577.535	40.51
577.875	40.63
578.214	40.76
578.553	40.89
578.893	41.02
579.232	41.15
579.571	41.27
579.91	41.39
580.25	41.52
580.589	41.65
580.928	41.77
581.267	41.9
581.606	42.02
581.945	42.15
582.283	42.27
582.622	42.39
582.961	42.51
583.3	42.63
583.639	42.75
583.977	42.88
584.316	43
584.654	43.12
584.993	43.24
585.332	43.37
585.67	43.5
586.008	43.6
586.347	43.72
586.685	43.83
587.024	43.95
587.362	44.08
587.7	44.2
588.038	44.32
588.376	44.44
588.715	44.56
589.053	44.68
589.391	44.79
589.729	44.91
590.067	45.02
590.404	45.14
590.742	45.25
591.08	45.35
591.418	45.45
591.756	45.55
592.093	45.64
592.431	45.73
592.769	45.81
593.106	45.89
593.444	45.97
593.781	46.05
594.119	46.12
594.456	46.21
594.793	46.29
595.131	46.37
595.468	46.45
595.805	46.53
596.143	46.62
596.48	46.71
596.817	46.81
597.154	46.9
597.491	46.98
597.828	47.08
598.165	47.16
598.502	47.25
598.839	47.33
599.176	47.39
599.512	47.46
599.849	47.53
600.186	47.6
600.523	47.67
600.859	47.73
601.196	47.78
601.532	47.83
601.869	47.89
602.205	47.95
602.542	47.99
602.878	48.05
603.215	48.11
603.551	48.17
603.887	48.21
604.223	48.26
604.56	48.32
604.896	48.37
605.232	48.42
605.568	48.46
605.904	48.51
606.24	48.54
606.576	48.58
606.912	48.62
607.248	48.67
607.583	48.71
607.919	48.74
608.255	48.78
608.591	48.81
608.926	48.85
609.262	48.88
609.597	48.92
609.933	48.94
610.268	48.97
610.604	49
610.939	49.02
611.275	49.05
611.61	49.07
611.945	49.09
612.281	49.1
612.616	49.12
612.951	49.15
613.286	49.17
613.621	49.21
613.956	49.24
614.291	49.27
614.626	49.3
614.961	49.34
615.296	49.37
615.631	49.4
615.966	49.43
616.3	49.46
616.635	49.48
616.97	49.51
617.304	49.53
617.639	49.56
617.973	49.59
618.308	49.62
618.642	49.65
618.977	49.68
619.311	49.73
619.646	49.76
619.98	49.81
620.314	49.85
620.648	49.89
620.983	49.92
621.317	49.97
621.651	50.01
621.985	50.04
622.319	50.07
622.653	50.1
622.987	50.13
623.321	50.15
623.655	50.19
623.988	50.21
624.322	50.24
624.656	50.27
624.99	50.29
625.323	50.32
625.657	50.35
625.99	50.38
626.324	50.41
626.657	50.45
626.991	50.49
627.324	50.5
627.658	50.52
627.991	50.54
628.324	50.56
628.657	50.58
628.991	50.61
629.324	50.64
629.657	50.66
629.99	50.68
630.323	50.72
630.656	50.74
630.989	50.76
631.322	50.79
631.655	50.82
631.987	50.84
632.32	50.86
632.653	50.87
632.986	50.89
633.318	50.92
633.651	50.93
633.984	50.95
634.316	50.98
634.649	50.99
634.981	51.01
635.313	51.02
635.646	51.03
635.978	51.05
636.31	51.09
636.643	51.1
636.975	51.13
637.307	51.14
637.639	51.17
637.971	51.18
638.303	51.2
638.635	51.23
638.967	51.25
639.299	51.27
639.631	51.3
639.963	51.33
640.295	51.35
640.626	51.36
640.958	51.39
641.29	51.42
641.621	51.46
641.953	51.49
642.285	51.51
642.616	51.54
642.948	51.55
643.279	51.57
643.61	51.59
643.942	51.61
644.273	51.62
644.604	51.65
644.936	51.67
645.267	51.7
645.598	51.71
645.929	51.74
646.26	51.78
646.591	51.8
646.922	51.82
647.253	51.86
647.584	51.89
647.915	51.93
648.245	51.94
648.576	51.96
648.907	52
649.238	52.03
649.568	52.04
649.899	52.06
650.229	52.11
650.56	52.13
650.89	52.15
651.221	52.18
651.551	52.21
651.882	52.24
652.212	52.26
652.542	52.28
652.872	52.29
653.203	52.3
653.533	52.31
653.863	52.31
654.193	52.35
654.523	52.37
654.853	52.39
655.183	52.4
655.513	52.41
655.843	52.42
656.172	52.42
656.502	52.44
656.832	52.46
657.162	52.47
657.491	52.48
657.821	52.5
658.15	52.51
658.48	52.53
658.809	52.54
659.139	52.56
659.468	52.57
659.798	52.58
660.127	52.59
660.456	52.6
660.785	52.61
661.115	52.63
661.444	52.64
661.773	52.66
662.102	52.68
662.431	52.68
662.76	52.72
663.089	52.73
663.418	52.75
663.747	52.76
664.076	52.76
664.404	52.79
664.733	52.8
665.062	52.82
665.39	52.85
665.719	52.85
666.048	52.87
666.376	52.91
666.705	52.93
667.033	52.95
667.362	52.99
667.69	52.99
668.018	53
668.347	53.01
668.675	53.02
669.003	53.03
669.331	53.05
669.659	53.07
669.987	53.1
670.315	53.12
670.643	53.16
670.971	53.18
671.299	53.2
671.627	53.23
671.955	53.23
672.283	53.24
672.61	53.25
672.938	53.27
673.266	53.3
673.593	53.32
673.921	53.34
674.249	53.35
674.576	53.37
674.904	53.39
675.231	53.39
675.558	53.41
675.886	53.43
676.213	53.42
676.54	53.43
676.867	53.46
677.195	53.47
677.522	53.49
677.849	53.49
678.176	53.51
678.503	53.52
678.83	53.51
679.157	53.53
679.484	53.54
679.81	53.54
680.137	53.56
680.464	53.56
680.791	53.58
681.117	53.6
681.444	53.6
681.771	53.62
682.097	53.64
682.424	53.65
682.75	53.67
683.077	53.69
683.403	53.7
683.729	53.71
684.056	53.72
684.382	53.73
684.708	53.75
685.034	53.76
685.36	53.8
685.686	53.82
686.012	53.83
686.339	53.84
686.664	53.83
686.99	53.84
687.316	53.86
687.642	53.87
687.968	53.89
688.294	53.9
688.619	53.92
688.945	53.93
689.271	53.95
689.596	53.99
689.922	54.02
690.247	54.01
690.573	54.02
690.898	54.03
691.224	54.08
691.549	54.08
691.874	54.09
692.2	54.12
692.525	54.15
692.85	54.19
693.175	54.19
693.5	54.22
693.825	54.24
694.15	54.24
694.475	54.25
694.8	54.27
695.125	54.28
695.45	54.28
695.775	54.31
696.099	54.32
696.424	54.31
696.749	54.32
697.073	54.32
697.398	54.33
697.723	54.35
698.047	54.35
698.372	54.37
698.696	54.37
699.02	54.39
699.345	54.41
699.669	54.43
699.993	54.45
700.318	54.45
700.642	54.45
700.966	54.47
701.29	54.47
701.614	54.5
701.938	54.52
702.262	54.54
702.586	54.53
702.91	54.53
703.234	54.53
703.557	54.53
703.881	54.56
704.205	54.57
704.529	54.57
704.852	54.58
705.176	54.59
705.499	54.6
705.823	54.62
706.146	54.6
706.47	54.61
706.793	54.64
707.117	54.67
707.44	54.68
707.763	54.71
708.086	54.74
708.409	54.75
708.733	54.78
709.056	54.81
709.379	54.81
709.702	54.86
710.025	54.9
710.348	54.93
710.671	54.94
710.993	54.96
711.316	54.99
711.639	55
711.962	55.02
712.284	55.01
712.607	55.02
712.93	55.03
713.252	55.03
713.575	55.06
713.897	55.09
714.22	55.08
714.542	55.11
714.864	55.11
715.187	55.11
715.509	55.09
715.831	55.12
716.153	55.11
716.475	55.13
716.798	55.16
717.12	55.16
717.442	55.17
717.764	55.17
718.085	55.2
718.407	55.21
718.729	55.22
719.051	55.22
719.373	55.26
719.695	55.28
720.016	55.29
720.338	55.3
720.659	55.3
720.981	55.31
721.302	55.34
721.624	55.36
721.945	55.33
722.267	55.34
722.588	55.36
722.909	55.34
723.231	55.31
723.552	55.3
723.873	55.31
724.194	55.31
724.515	55.31
724.836	55.3
725.157	55.31
725.478	55.33
725.799	55.34
726.12	55.33
726.441	55.32
726.762	55.32
727.083	55.3
727.403	55.34
727.724	55.34
728.045	55.37
728.365	55.38
728.686	55.41
729.006	55.43
729.327	55.45
729.647	55.47
729.967	55.46
730.288	55.45
730.608	55.46
730.928	55.48
731.249	55.5
731.569	55.5
731.889	55.51
732.209	55.51
732.529	55.5
732.849	55.5
733.169	55.49
733.489	55.5
733.809	55.5
734.129	55.5
734.448	55.48
734.768	55.46
735.088	55.5
735.408	55.52
735.727	55.52
736.047	55.55
736.366	55.57
736.686	55.58
737.005	55.58
737.325	55.59
737.644	55.59
737.963	55.55
738.283	55.54
738.602	55.54
738.921	55.57
739.24	55.58
739.56	55.62
739.879	55.61
740.198	55.61
740.517	55.6
740.836	55.59
741.155	55.56
741.473	55.56
741.792	55.54
742.111	55.55
742.43	55.53
742.748	55.51
743.067	55.52
743.386	55.55
743.704	55.56
744.023	55.55
744.341	55.53
744.66	55.52
744.978	55.54
745.297	55.54
745.615	55.56
745.933	55.58
746.252	55.55
746.57	55.53
746.888	55.55
747.206	55.54
747.524	55.56
747.842	55.58
748.16	55.59
748.478	55.58
748.796	55.58
749.114	55.59
749.432	55.59
749.749	55.6
750.067	55.6
750.385	55.58
750.703	55.58
751.02	55.63
751.338	55.66
751.655	55.68
751.973	55.66
752.29	55.65
752.608	55.64
752.925	55.67
753.242	55.7
753.56	55.69
753.877	55.7
754.194	55.7
754.511	55.67
754.828	55.68
755.145	55.65
755.462	55.69
755.779	55.71
756.096	55.76
756.413	55.77
756.73	55.78
757.047	55.77
757.364	55.78
757.68	55.8
757.997	55.79
758.314	55.83
758.63	55.84
758.947	55.85
759.264	55.9
759.58	55.9
759.896	55.92
760.213	55.96
760.529	55.96
760.846	55.99
761.162	55.99
761.478	56.02
761.794	56.05
762.11	56.03
762.426	56.04
762.743	56.06
763.059	56.04
763.375	56.06
763.69	56.05
764.006	56.07
764.322	56.09
764.638	56.07
764.954	56.09
765.27	56.12
765.585	56.13
765.901	56.15
766.216	56.16
766.532	56.17
766.848	56.17
767.163	56.2
767.478	56.22
767.794	56.24
768.109	56.26
768.424	56.28
768.74	56.3
769.055	56.3
769.37	56.29
769.685	56.31
770	56.32
770.315	56.34
770.63	56.36
770.945	56.36
771.26	56.33
771.575	56.32
771.89	56.34
772.205	56.32
772.52	56.34
772.834	56.36
773.149	56.37
773.464	56.37
773.778	56.33
774.093	56.31
774.407	56.27
774.722	56.25
775.036	56.26
775.351	56.28
775.665	56.28
775.979	56.33
776.293	56.32
776.608	56.31
776.922	56.32
777.236	56.29
777.55	56.27
777.864	56.3
778.178	56.28
778.492	56.3
778.806	56.27
779.12	56.26
779.434	56.29
779.747	56.25
780.061	56.26
780.375	56.3
780.689	56.3
781.002	56.28
781.316	56.22
781.629	56.23
781.943	56.18
782.256	56.22
782.57	56.18
782.883	56.23
783.196	56.25
783.51	56.29
783.823	56.3
784.136	56.33
784.449	56.35
784.762	56.35
785.075	56.38
785.388	56.38
785.701	56.37
786.014	56.38
786.327	56.42
786.64	56.43
786.953	56.49
787.266	56.55
787.578	56.57
787.891	56.6
788.204	56.62
788.516	56.6
788.829	56.61
789.141	56.62
789.454	56.64
789.766	56.64
790.079	56.69
790.391	56.7
790.703	56.71
791.016	56.71
791.328	56.71
791.64	56.69
791.952	56.72
792.264	56.69
792.576	56.75
792.888	56.7
793.2	56.71
793.512	56.71
793.824	56.69
794.136	56.7
794.448	56.68
794.76	56.73
795.071	56.72
795.383	56.76
795.695	56.71
796.006	56.7
796.318	56.64
796.629	56.66
796.941	56.63
797.252	56.61
797.564	56.6
797.875	56.59
798.186	56.61
798.497	56.63
798.809	56.57
799.12	56.57
799.431	56.6
799.742	56.53
800.053	56.51
800.364	56.47
800.675	56.42
800.986	56.38
801.297	56.43
801.608	56.42
801.918	56.45
802.229	56.46
802.54	56.49
802.851	56.45
803.161	56.46
803.472	56.46
803.782	56.44
804.093	56.43
804.403	56.49
804.714	56.47
805.024	56.48
805.334	56.48
805.645	56.54
805.955	56.5
806.265	56.46
806.575	56.56
806.885	56.6
807.195	56.63
807.505	56.66
807.815	56.68
808.125	56.67
808.435	56.69
808.745	56.7
809.055	56.76
809.365	56.81
809.674	56.8
809.984	56.84
810.294	56.81
810.603	56.81
810.913	56.88
811.222	56.85
811.532	56.85
811.841	56.79
812.151	56.76
812.46	56.82
812.769	56.81
813.079	56.82
813.388	56.79
813.697	56.81
814.006	56.74
814.315	56.71
814.624	56.72
814.933	56.73
815.242	56.74
815.551	56.68
815.86	56.66
816.169	56.69
816.478	56.72
816.786	56.69
817.095	56.66
817.404	56.63
817.712	56.65
818.021	56.67
818.33	56.64
818.638	56.64
818.947	56.63
819.255	56.58
819.563	56.59
819.872	56.61
820.18	56.61
820.488	56.61
820.796	56.61
821.105	56.6
821.413	56.6
821.721	56.59
822.029	56.56
822.337	56.6
822.645	56.62
822.953	56.64
823.26	56.65
823.568	56.64
823.876	56.65
824.184	56.67
824.491	56.68
824.799	56.69
825.107	56.7
825.414	56.71
825.722	56.73
826.029	56.78
826.337	56.79
826.644	56.8
826.951	56.8
827.259	56.81
827.566	56.79
827.873	56.79
828.18	56.82
828.488	56.84
828.795	56.81
829.102	56.8
829.409	56.82
829.716	56.82
830.023	56.83
830.329	56.81
830.636	56.8
830.943	56.82
831.25	56.82
831.557	56.86
831.863	56.89
832.17	56.86
832.476	56.8
832.783	56.78
833.089	56.79
833.396	56.78
833.702	56.81
834.009	56.84
834.315	56.86
834.621	56.89
834.928	56.89
835.234	56.84
835.54	56.82
835.846	56.79
836.152	56.74
836.458	56.74
836.764	56.76
837.07	56.79
837.376	56.77
837.682	56.75
837.988	56.74
838.293	56.75
838.599	56.68
838.905	56.67
839.211	56.66
839.516	56.65
839.822	56.64
840.127	56.7
840.433	56.68
840.738	56.64
841.044	56.62
841.349	56.65
841.654	56.68
841.959	56.69
842.265	56.72
842.57	56.78
842.875	56.82
843.18	56.82
843.485	56.84
843.79	56.87
844.095	56.9
844.4	56.93
844.705	57.06
845.01	57.11
845.315	57.17
845.619	57.09
845.924	57.21
846.229	57.18
846.533	57.13
846.838	57.17
847.142	57.25
847.447	57.26
847.751	57.37
848.056	57.43
848.36	57.45
848.664	57.48
848.969	57.49
849.273	57.52
849.577	57.52
849.881	57.76
850.185	57.68
850.489	57.52
850.794	57.57
851.097	57.5
851.401	57.58
851.705	57.62
852.009	57.78
852.313	57.89
852.617	57.92
852.92	58.08
853.224	58.32
853.528	58.39
853.831	58.38
854.135	58.46
854.438	58.56
854.742	58.65
855.045	58.55
855.349	58.47
855.652	58.62
855.955	58.62
856.259	58.77
856.562	58.74
856.865	58.79
857.168	58.71
857.471	58.96
857.774	58.99
858.077	59.04
858.38	59.12
858.683	59.14
858.986	59.13
859.289	59.14
859.592	58.93
859.894	58.95
860.197	58.81
860.5	58.89
860.802	58.99
861.105	59.1
861.407	58.97
861.71	58.72
862.012	58.63
862.315	58.4
862.617	58.53
862.919	58.98
863.222	58.89
863.524	58.87
863.826	58.85
864.128	58.92
864.43	58.95
864.732	58.81
865.034	58.8
865.336	58.69
865.638	58.42
865.94	58.3
866.242	58.33
866.544	58.32
866.846	58.39
867.147	58.33
867.449	58.49
867.751	58.66
868.052	58.62
868.354	58.61
868.655	58.6
868.957	58.68
869.258	58.76
869.56	58.73
869.861	58.66
870.162	58.51
870.463	58.66
870.765	58.52
871.066	58.62
871.367	58.6
871.668	58.55
871.969	58.74
872.27	58.49
872.571	58.47
872.872	58.38
873.173	58.38
873.473	58.41
873.774	58.52
874.075	58.67
874.376	58.78
874.676	58.85
874.977	58.85
875.277	58.52
875.578	58.6
875.878	58.67
876.179	58.61
876.479	58.66
876.78	58.45
877.08	58.45
877.38	58.42
877.68	58.4
877.981	58.56
878.281	58.7
878.581	58.71
