Data from UWBM41002_Reflection_00007.txt Node
Date: Sun May 02 14:14:10 EDT 2021
User: vgr7
Spectrometer: USB2G7710
Scans to average: 10
Trigger mode: 4
Integration Time (sec): 1.000000E-1
Electric dark correction enabled: true
Boxcar width: 20
XAxis mode: Wavelengths
Number of Pixels in Spectrum: 2048
>>>>>Begin Spectral Data<<<<<
177.721	37.95
178.105	-17.94
178.488	-15.92
178.871	2.4
179.254	1.78
179.636	4.92
180.019	19.26
180.402	13.8
180.785	11.41
181.168	12.92
181.55	9.55
181.933	12.99
182.316	6.89
182.698	6.65
183.081	1.16
183.463	-5.9
183.846	-4.27
184.228	2.75
184.611	2.11
184.993	3.99
185.376	4.63
185.758	8.82
186.14	10.82
186.522	8.59
186.904	6.27
187.287	6.14
187.669	5.95
188.051	5.87
188.433	2.74
188.815	1.8
189.197	2.9
189.579	4.55
189.961	2.97
190.342	2.3
190.724	4.19
191.106	3.49
191.488	4.86
191.869	1.16
192.251	-1.1
192.633	-0.99
193.014	1.42
193.396	-2.43
193.777	0.42
194.159	1.33
194.54	1.03
194.922	1.02
195.303	0.56
195.684	-1.61
196.065	-0.52
196.447	0.41
196.828	-0.21
197.209	0.18
197.59	-2.92
197.971	-2.73
198.352	-2.92
198.733	0.1
199.114	1.36
199.495	2.78
199.876	-0.05
200.257	-0.77
200.638	-2.04
201.018	-2.14
201.399	-2.05
201.78	-2.87
202.16	-2.25
202.541	-2.41
202.922	-2.31
203.302	-1.52
203.683	0.02
204.063	0.57
204.444	-0.26
204.824	-1.34
205.204	-1.98
205.585	-1.8
205.965	-0.51
206.345	-2.09
206.725	-2.44
207.106	-2.8
207.486	-2.54
207.866	-0.42
208.246	-1.1
208.626	-1.72
209.006	-0.04
209.386	-1.22
209.766	-1.58
210.145	-2.46
210.525	-2.85
210.905	-2.01
211.285	-1.9
211.664	-2.39
212.044	-2.81
212.424	-1.53
212.803	-1.53
213.183	-0.1
213.562	1.18
213.942	0.62
214.321	-0.82
214.701	-0.99
215.08	-1.88
215.459	-0.32
215.838	0.18
216.218	0.13
216.597	0.75
216.976	1.53
217.355	2.47
217.734	1.85
218.113	2.84
218.492	2.31
218.871	1.16
219.25	0.39
219.629	0.97
220.008	1.67
220.387	0.57
220.766	0.35
221.144	0.86
221.523	0.96
221.902	2.86
222.28	3.33
222.659	3.19
223.037	3.29
223.416	3.29
223.794	2.94
224.173	2.69
224.551	2.84
224.929	3.56
225.308	3.75
225.686	4.11
226.064	4.22
226.442	4.2
226.821	4.82
227.199	5.3
227.577	5.3
227.955	5.15
228.333	4.93
228.711	4.61
229.089	4.32
229.467	4.37
229.845	4.36
230.222	4.36
230.6	4.36
230.978	4.08
231.356	4.03
231.733	4
232.111	3.73
232.488	3.35
232.866	2.8
233.243	2.87
233.621	2.82
233.998	3.03
234.376	3.27
234.753	3.24
235.13	3.25
235.508	3.43
235.885	3.71
236.262	3.73
236.639	3.65
237.016	3.65
237.393	3.53
237.77	3.55
238.147	3.64
238.524	3.65
238.901	3.6
239.278	3.74
239.655	3.76
240.032	3.73
240.409	3.8
240.785	3.8
241.162	3.77
241.539	3.76
241.915	3.83
242.292	3.78
242.668	3.75
243.045	3.74
243.421	3.72
243.798	3.73
244.174	3.79
244.551	3.79
244.927	3.8
245.303	3.81
245.679	3.81
246.056	3.75
246.432	3.8
246.808	3.79
247.184	3.82
247.56	3.85
247.936	3.87
248.312	3.91
248.688	3.91
249.064	3.93
249.44	3.94
249.815	3.91
250.191	3.9
250.567	3.92
250.943	3.88
251.318	3.84
251.694	3.86
252.069	3.85
252.445	3.84
252.82	3.85
253.196	3.83
253.571	3.79
253.947	3.79
254.322	3.78
254.697	3.78
255.073	3.77
255.448	3.79
255.823	3.73
256.198	3.7
256.573	3.68
256.948	3.69
257.323	3.65
257.698	3.63
258.073	3.6
258.448	3.58
258.823	3.55
259.198	3.53
259.573	3.51
259.948	3.52
260.322	3.52
260.697	3.49
261.072	3.49
261.446	3.5
261.821	3.46
262.195	3.46
262.57	3.44
262.944	3.43
263.319	3.42
263.693	3.42
264.067	3.4
264.442	3.39
264.816	3.37
265.19	3.4
265.564	3.41
265.938	3.4
266.313	3.43
266.687	3.43
267.061	3.43
267.435	3.43
267.809	3.43
268.183	3.42
268.556	3.42
268.93	3.43
269.304	3.44
269.678	3.43
270.051	3.42
270.425	3.42
270.799	3.41
271.172	3.41
271.546	3.44
271.919	3.46
272.293	3.46
272.666	3.47
273.04	3.5
273.413	3.55
273.787	3.57
274.16	3.58
274.533	3.59
274.906	3.59
275.279	3.57
275.653	3.57
276.026	3.59
276.399	3.6
276.772	3.61
277.145	3.61
277.518	3.63
277.891	3.65
278.263	3.63
278.636	3.64
279.009	3.63
279.382	3.65
279.755	3.67
280.127	3.69
280.5	3.7
280.872	3.72
281.245	3.72
281.617	3.71
281.99	3.73
282.362	3.72
282.735	3.73
283.107	3.73
283.479	3.74
283.852	3.75
284.224	3.77
284.596	3.76
284.968	3.77
285.34	3.78
285.713	3.78
286.085	3.81
286.457	3.83
286.829	3.82
287.201	3.82
287.572	3.84
287.944	3.85
288.316	3.85
288.688	3.85
289.06	3.86
289.431	3.88
289.803	3.91
290.175	3.93
290.546	3.96
290.918	4.01
291.289	4.03
291.661	4.05
292.032	4.06
292.403	4.09
292.775	4.11
293.146	4.13
293.517	4.17
293.889	4.19
294.26	4.23
294.631	4.27
295.002	4.3
295.373	4.31
295.744	4.32
296.115	4.35
296.486	4.4
296.857	4.44
297.228	4.47
297.599	4.51
297.97	4.53
298.34	4.56
298.711	4.6
299.082	4.62
299.452	4.66
299.823	4.7
300.194	4.75
300.564	4.79
300.935	4.83
301.305	4.86
301.676	4.9
302.046	4.95
302.416	4.99
302.787	5.01
303.157	5.06
303.527	5.1
303.897	5.14
304.267	5.19
304.637	5.23
305.008	5.28
305.378	5.33
305.748	5.38
306.117	5.42
306.487	5.48
306.857	5.54
307.227	5.6
307.597	5.65
307.967	5.69
308.336	5.74
308.706	5.78
309.076	5.82
309.445	5.86
309.815	5.88
310.184	5.92
310.554	5.97
310.923	6.02
311.293	6.06
311.662	6.09
312.031	6.11
312.401	6.17
312.77	6.2
313.139	6.25
313.508	6.3
313.877	6.34
314.246	6.39
314.616	6.42
314.985	6.48
315.353	6.51
315.722	6.55
316.091	6.6
316.46	6.63
316.829	6.69
317.198	6.74
317.567	6.79
317.935	6.86
318.304	6.91
318.672	6.96
319.041	7.02
319.41	7.06
319.778	7.12
320.147	7.16
320.515	7.2
320.883	7.24
321.252	7.28
321.62	7.33
321.988	7.36
322.357	7.4
322.725	7.44
323.093	7.48
323.461	7.51
323.829	7.56
324.197	7.61
324.565	7.64
324.933	7.69
325.301	7.72
325.669	7.77
326.037	7.8
326.405	7.84
326.772	7.87
327.14	7.91
327.508	7.93
327.875	7.97
328.243	8
328.61	8.03
328.978	8.06
329.346	8.09
329.713	8.13
330.08	8.16
330.448	8.18
330.815	8.2
331.182	8.22
331.55	8.25
331.917	8.27
332.284	8.28
332.651	8.31
333.018	8.34
333.385	8.37
333.752	8.39
334.119	8.42
334.486	8.46
334.853	8.49
335.22	8.52
335.587	8.56
335.954	8.59
336.32	8.61
336.687	8.63
337.054	8.68
337.42	8.7
337.787	8.73
338.153	8.76
338.52	8.78
338.886	8.8
339.253	8.82
339.619	8.84
339.986	8.86
340.352	8.89
340.718	8.9
341.084	8.92
341.451	8.92
341.817	8.95
342.183	8.98
342.549	8.99
342.915	9.01
343.281	9.03
343.647	9.05
344.013	9.05
344.379	9.06
344.745	9.07
345.11	9.08
345.476	9.09
345.842	9.11
346.208	9.12
346.573	9.13
346.939	9.13
347.304	9.14
347.67	9.14
348.035	9.15
348.401	9.17
348.766	9.18
349.132	9.18
349.497	9.19
349.862	9.19
350.228	9.19
350.593	9.19
350.958	9.2
351.323	9.2
351.688	9.2
352.053	9.19
352.418	9.18
352.783	9.17
353.148	9.17
353.513	9.17
353.878	9.16
354.243	9.14
354.608	9.12
354.972	9.12
355.337	9.11
355.702	9.1
356.066	9.09
356.431	9.08
356.795	9.05
357.16	9.03
357.524	9.02
357.889	9
358.253	8.98
358.618	8.95
358.982	8.93
359.346	8.92
359.71	8.91
360.075	8.89
360.439	8.87
360.803	8.84
361.167	8.82
361.531	8.8
361.895	8.78
362.259	8.75
362.623	8.73
362.987	8.69
363.351	8.67
363.714	8.64
364.078	8.6
364.442	8.57
364.806	8.54
365.169	8.51
365.533	8.48
365.896	8.44
366.26	8.41
366.623	8.37
366.987	8.33
367.35	8.29
367.714	8.24
368.077	8.19
368.44	8.15
368.803	8.1
369.167	8.06
369.53	8.01
369.893	7.94
370.256	7.89
370.619	7.83
370.982	7.78
371.345	7.73
371.708	7.68
372.071	7.63
372.434	7.58
372.797	7.52
373.159	7.46
373.522	7.41
373.885	7.36
374.247	7.3
374.61	7.24
374.973	7.18
375.335	7.13
375.698	7.07
376.06	7.02
376.423	6.97
376.785	6.92
377.147	6.87
377.51	6.82
377.872	6.77
378.234	6.72
378.596	6.67
378.958	6.62
379.321	6.57
379.683	6.52
380.045	6.47
380.407	6.42
380.769	6.38
381.13	6.33
381.492	6.28
381.854	6.24
382.216	6.19
382.578	6.16
382.939	6.11
383.301	6.07
383.663	6.03
384.024	5.99
384.386	5.96
384.747	5.92
385.109	5.88
385.47	5.84
385.832	5.8
386.193	5.76
386.554	5.72
386.916	5.68
387.277	5.64
387.638	5.61
387.999	5.58
388.36	5.55
388.721	5.52
389.082	5.49
389.443	5.46
389.804	5.43
390.165	5.4
390.526	5.37
390.887	5.34
391.248	5.31
391.609	5.28
391.969	5.25
392.33	5.22
392.691	5.19
393.051	5.16
393.412	5.13
393.772	5.1
394.133	5.06
394.493	5.03
394.854	5
395.214	4.97
395.574	4.94
395.935	4.92
396.295	4.89
396.655	4.86
397.015	4.83
397.376	4.8
397.736	4.78
398.096	4.75
398.456	4.72
398.816	4.7
399.176	4.67
399.535	4.64
399.895	4.62
400.255	4.6
400.615	4.57
400.975	4.55
401.334	4.52
401.694	4.5
402.054	4.48
402.413	4.46
402.773	4.44
403.132	4.42
403.492	4.4
403.851	4.38
404.211	4.37
404.57	4.35
404.929	4.34
405.288	4.32
405.648	4.31
406.007	4.3
406.366	4.29
406.725	4.28
407.084	4.27
407.443	4.26
407.802	4.25
408.161	4.24
408.52	4.23
408.879	4.22
409.238	4.21
409.596	4.21
409.955	4.2
410.314	4.19
410.673	4.18
411.031	4.18
411.39	4.18
411.748	4.17
412.107	4.17
412.465	4.16
412.824	4.18
413.182	4.18
413.54	4.2
413.899	4.21
414.257	4.23
414.615	4.26
414.974	4.29
415.332	4.31
415.69	4.34
416.048	4.36
416.406	4.4
416.764	4.41
417.122	4.43
417.48	4.45
417.838	4.48
418.195	4.49
418.553	4.51
418.911	4.52
419.269	4.52
419.626	4.51
419.984	4.5
420.342	4.48
420.699	4.46
421.057	4.43
421.414	4.4
421.772	4.38
422.129	4.37
422.486	4.36
422.844	4.35
423.201	4.35
423.558	4.34
423.915	4.33
424.273	4.32
424.63	4.32
424.987	4.31
425.344	4.31
425.701	4.3
426.058	4.29
426.415	4.29
426.772	4.28
427.128	4.27
427.485	4.25
427.842	4.24
428.199	4.22
428.555	4.2
428.912	4.18
429.269	4.14
429.625	4.11
429.982	4.08
430.338	4.05
430.695	4.02
431.051	3.99
431.407	3.97
431.764	3.95
432.12	3.93
432.476	3.91
432.832	3.9
433.189	3.9
433.545	3.9
433.901	3.91
434.257	3.93
434.613	3.95
434.969	3.97
435.325	3.99
435.681	4.03
436.036	4.05
436.392	4.07
436.748	4.09
437.104	4.1
437.459	4.11
437.815	4.13
438.171	4.15
438.526	4.17
438.882	4.19
439.237	4.23
439.593	4.26
439.948	4.29
440.304	4.32
440.659	4.35
441.014	4.36
441.369	4.39
441.725	4.4
442.08	4.42
442.435	4.43
442.79	4.43
443.145	4.43
443.5	4.43
443.855	4.43
444.21	4.43
444.565	4.43
444.92	4.42
445.275	4.41
445.629	4.4
445.984	4.39
446.339	4.37
446.693	4.36
447.048	4.34
447.403	4.32
447.757	4.3
448.112	4.28
448.466	4.25
448.82	4.23
449.175	4.2
449.529	4.18
449.883	4.16
450.238	4.13
450.592	4.12
450.946	4.11
451.3	4.1
451.654	4.11
452.008	4.1
452.362	4.11
452.716	4.11
453.07	4.1
453.424	4.09
453.778	4.08
454.132	4.08
454.486	4.07
454.839	4.05
455.193	4.03
455.547	4.01
455.9	3.98
456.254	3.97
456.607	3.94
456.961	3.91
457.314	3.89
457.668	3.89
458.021	3.88
458.375	3.88
458.728	3.88
459.081	3.88
459.434	3.88
459.787	3.89
460.141	3.9
460.494	3.91
460.847	3.92
461.2	3.93
461.553	3.93
461.906	3.94
462.259	3.95
462.611	3.95
462.964	3.96
463.317	3.97
463.67	3.98
464.022	3.99
464.375	4
464.728	4.01
465.08	4.01
465.433	4.02
465.785	4.02
466.138	4.01
466.49	4
466.843	3.99
467.195	3.97
467.547	3.96
467.899	3.95
468.252	3.93
468.604	3.91
468.956	3.89
469.308	3.89
469.66	3.89
470.012	3.89
470.364	3.9
470.716	3.91
471.068	3.92
471.42	3.95
471.772	3.97
472.123	3.99
472.475	4
472.827	4.01
473.178	4.02
473.53	4.04
473.882	4.06
474.233	4.08
474.585	4.12
474.936	4.18
475.288	4.26
475.639	4.37
475.99	4.5
476.342	4.64
476.693	4.79
477.044	4.95
477.395	5.11
477.746	5.28
478.097	5.44
478.448	5.61
478.8	5.77
479.15	5.92
479.501	6.06
479.852	6.19
480.203	6.31
480.554	6.42
480.905	6.53
481.255	6.64
481.606	6.74
481.957	6.83
482.307	6.92
482.658	7
483.009	7.08
483.359	7.16
483.709	7.24
484.06	7.31
484.41	7.38
484.761	7.45
485.111	7.52
485.461	7.58
485.811	7.64
486.162	7.7
486.512	7.74
486.862	7.78
487.212	7.81
487.562	7.82
487.912	7.84
488.262	7.84
488.612	7.83
488.961	7.82
489.311	7.78
489.661	7.71
490.011	7.63
490.36	7.54
490.71	7.42
491.06	7.3
491.409	7.17
491.759	7.04
492.108	6.9
492.458	6.76
492.807	6.61
493.157	6.46
493.506	6.32
493.855	6.19
494.204	6.07
494.554	5.95
494.903	5.84
495.252	5.74
495.601	5.65
495.95	5.56
496.299	5.47
496.648	5.4
496.997	5.33
497.346	5.27
497.695	5.21
498.043	5.16
498.392	5.11
498.741	5.06
499.09	5.02
499.438	4.99
499.787	4.96
500.135	4.94
500.484	4.92
500.832	4.92
501.181	4.93
501.529	4.96
501.878	5
502.226	5.05
502.574	5.1
502.923	5.17
503.271	5.23
503.619	5.31
503.967	5.38
504.315	5.46
504.663	5.53
505.011	5.6
505.359	5.68
505.707	5.76
506.055	5.84
506.403	5.93
506.751	6.02
507.098	6.12
507.446	6.21
507.794	6.32
508.141	6.42
508.489	6.54
508.837	6.66
509.184	6.77
509.531	6.9
509.879	7.03
510.226	7.18
510.574	7.32
510.921	7.48
511.268	7.63
511.616	7.79
511.963	7.96
512.31	8.13
512.657	8.3
513.004	8.46
513.351	8.62
513.698	8.77
514.045	8.91
514.392	9.05
514.739	9.17
515.086	9.3
515.432	9.42
515.779	9.54
516.126	9.67
516.473	9.8
516.819	9.95
517.166	10.1
517.512	10.27
517.859	10.45
518.205	10.65
518.552	10.86
518.898	11.1
519.245	11.36
519.591	11.69
519.937	12.07
520.283	12.51
520.629	12.99
520.976	13.49
521.322	14.01
521.668	14.56
522.014	15.1
522.36	15.65
522.706	16.2
523.052	16.72
523.398	17.22
523.743	17.68
524.089	18.1
524.435	18.49
524.781	18.88
525.126	19.27
525.472	19.65
525.817	20.01
526.163	20.37
526.509	20.73
526.854	21.08
527.199	21.43
527.545	21.79
527.89	22.16
528.235	22.53
528.581	22.88
528.926	23.22
529.271	23.54
529.616	23.85
529.961	24.15
530.306	24.44
530.651	24.71
530.996	24.97
531.341	25.2
531.686	25.42
532.031	25.63
532.376	25.87
532.721	26.12
533.065	26.41
533.41	26.71
533.755	26.99
534.099	27.25
534.444	27.48
534.788	27.7
535.133	27.9
535.477	28.09
535.822	28.25
536.166	28.39
536.51	28.47
536.855	28.51
537.199	28.52
537.543	28.54
537.887	28.57
538.231	28.64
538.576	28.71
538.92	28.77
539.264	28.82
539.608	28.85
539.951	28.87
540.295	28.88
540.639	28.88
540.983	28.86
541.327	28.83
541.671	28.79
542.014	28.76
542.358	28.74
542.701	28.79
543.045	28.89
543.389	29.02
543.732	29.18
544.075	29.34
544.419	29.51
544.762	29.7
545.105	29.9
545.449	30.12
545.792	30.33
546.135	30.55
546.478	30.75
546.821	30.89
547.165	30.99
547.508	31.04
547.851	31.05
548.194	31.03
548.536	30.96
548.879	30.86
549.222	30.74
549.565	30.62
549.908	30.51
550.25	30.41
550.593	30.38
550.936	30.4
551.278	30.46
551.621	30.56
551.963	30.68
552.306	30.81
552.648	30.97
552.991	31.16
553.333	31.36
553.675	31.6
554.017	31.86
554.36	32.15
554.702	32.45
555.044	32.8
555.386	33.19
555.728	33.62
556.07	34
556.412	34.38
556.754	34.7
557.096	34.96
557.438	35.22
557.78	35.47
558.121	35.74
558.463	36
558.805	36.26
559.147	36.52
559.488	36.77
559.83	37.04
560.171	37.29
560.513	37.53
560.854	37.77
561.196	38.01
561.537	38.25
561.878	38.47
562.22	38.69
562.561	38.91
562.902	39.11
563.243	39.33
563.584	39.55
563.925	39.76
564.266	39.97
564.607	40.16
564.948	40.36
565.289	40.56
565.63	40.76
565.971	40.95
566.312	41.14
566.653	41.32
566.993	41.5
567.334	41.68
567.675	41.85
568.015	42.02
568.356	42.19
568.696	42.35
569.037	42.5
569.377	42.65
569.718	42.8
570.058	42.94
570.398	43.07
570.739	43.19
571.079	43.3
571.419	43.42
571.759	43.54
572.099	43.65
572.439	43.76
572.779	43.87
573.119	43.98
573.459	44.08
573.799	44.19
574.139	44.29
574.479	44.38
574.819	44.49
575.158	44.59
575.498	44.68
575.838	44.77
576.177	44.87
576.517	44.96
576.856	45.05
577.196	45.13
577.535	45.22
577.875	45.3
578.214	45.39
578.553	45.47
578.893	45.55
579.232	45.62
579.571	45.7
579.91	45.78
580.25	45.85
580.589	45.93
580.928	46
581.267	46.08
581.606	46.16
581.945	46.23
582.283	46.3
582.622	46.38
582.961	46.45
583.3	46.53
583.639	46.61
583.977	46.69
584.316	46.77
584.654	46.86
584.993	46.94
585.332	47.02
585.67	47.09
586.008	47.17
586.347	47.25
586.685	47.32
587.024	47.41
587.362	47.48
587.7	47.55
588.038	47.63
588.376	47.71
588.715	47.79
589.053	47.87
589.391	47.94
589.729	48.03
590.067	48.11
590.404	48.19
590.742	48.28
591.08	48.36
591.418	48.43
591.756	48.51
592.093	48.57
592.431	48.64
592.769	48.69
593.106	48.76
593.444	48.82
593.781	48.86
594.119	48.92
594.456	48.97
594.793	49.03
595.131	49.08
595.468	49.14
595.805	49.2
596.143	49.26
596.48	49.33
596.817	49.38
597.154	49.45
597.491	49.52
597.828	49.58
598.165	49.64
598.502	49.7
598.839	49.76
599.176	49.82
599.512	49.87
599.849	49.93
600.186	49.97
600.523	50.02
600.859	50.06
601.196	50.09
601.532	50.13
601.869	50.18
602.205	50.22
602.542	50.26
602.878	50.3
603.215	50.34
603.551	50.38
603.887	50.42
604.223	50.45
604.56	50.47
604.896	50.5
605.232	50.54
605.568	50.56
605.904	50.59
606.24	50.62
606.576	50.64
606.912	50.66
607.248	50.68
607.583	50.71
607.919	50.74
608.255	50.77
608.591	50.8
608.926	50.82
609.262	50.84
609.597	50.86
609.933	50.88
610.268	50.88
610.604	50.9
610.939	50.91
611.275	50.93
611.61	50.95
611.945	50.96
612.281	50.97
612.616	50.98
612.951	50.99
613.286	51
613.621	51.03
613.956	51.05
614.291	51.06
614.626	51.07
614.961	51.08
615.296	51.11
615.631	51.12
615.966	51.12
616.3	51.13
616.635	51.15
616.97	51.17
617.304	51.17
617.639	51.18
617.973	51.2
618.308	51.22
618.642	51.25
618.977	51.26
619.311	51.29
619.646	51.32
619.98	51.35
620.314	51.39
620.648	51.43
620.983	51.47
621.317	51.5
621.651	51.52
621.985	51.55
622.319	51.56
622.653	51.6
622.987	51.63
623.321	51.64
623.655	51.68
623.988	51.71
624.322	51.73
624.656	51.75
624.99	51.77
625.323	51.79
625.657	51.81
625.99	51.83
626.324	51.84
626.657	51.87
626.991	51.89
627.324	51.91
627.658	51.93
627.991	51.95
628.324	51.99
628.657	52.02
628.991	52.04
629.324	52.06
629.657	52.1
629.99	52.13
630.323	52.15
630.656	52.16
630.989	52.18
631.322	52.2
631.655	52.21
631.987	52.24
632.32	52.25
632.653	52.27
632.986	52.29
633.318	52.3
633.651	52.31
633.984	52.32
634.316	52.33
634.649	52.34
634.981	52.35
635.313	52.36
635.646	52.38
635.978	52.4
636.31	52.41
636.643	52.43
636.975	52.45
637.307	52.46
637.639	52.47
637.971	52.5
638.303	52.52
638.635	52.54
638.967	52.54
639.299	52.56
639.631	52.58
639.963	52.61
640.295	52.62
640.626	52.64
640.958	52.66
641.29	52.68
641.621	52.69
641.953	52.69
642.285	52.7
642.616	52.72
642.948	52.74
643.279	52.75
643.61	52.76
643.942	52.78
644.273	52.79
644.604	52.8
644.936	52.83
645.267	52.86
645.598	52.87
645.929	52.88
646.26	52.89
646.591	52.9
646.922	52.92
647.253	52.95
647.584	52.97
647.915	52.99
648.245	53.01
648.576	53.03
648.907	53.05
649.238	53.07
649.568	53.08
649.899	53.11
650.229	53.13
650.56	53.16
650.89	53.18
651.221	53.2
651.551	53.21
651.882	53.23
652.212	53.22
652.542	53.26
652.872	53.27
653.203	53.3
653.533	53.3
653.863	53.32
654.193	53.33
654.523	53.33
654.853	53.34
655.183	53.37
655.513	53.4
655.843	53.41
656.172	53.44
656.502	53.46
656.832	53.48
657.162	53.49
657.491	53.51
657.821	53.53
658.15	53.56
658.48	53.58
658.809	53.59
659.139	53.6
659.468	53.61
659.798	53.64
660.127	53.64
660.456	53.68
660.785	53.68
661.115	53.7
661.444	53.72
661.773	53.73
662.102	53.73
662.431	53.76
662.76	53.78
663.089	53.79
663.418	53.8
663.747	53.81
664.076	53.82
664.404	53.83
664.733	53.84
665.062	53.87
665.39	53.88
665.719	53.91
666.048	53.92
666.376	53.92
666.705	53.94
667.033	53.96
667.362	53.97
667.69	53.98
668.018	54.02
668.347	54.02
668.675	54.03
669.003	54.03
669.331	54.05
669.659	54.04
669.987	54.05
670.315	54.05
670.643	54.07
670.971	54.08
671.299	54.08
671.627	54.11
671.955	54.11
672.283	54.14
672.61	54.14
672.938	54.17
673.266	54.19
673.593	54.21
673.921	54.22
674.249	54.24
674.576	54.25
674.904	54.26
675.231	54.27
675.558	54.3
675.886	54.32
676.213	54.31
676.54	54.32
676.867	54.32
677.195	54.33
677.522	54.34
677.849	54.34
678.176	54.35
678.503	54.36
678.83	54.36
679.157	54.38
679.484	54.38
679.81	54.41
680.137	54.42
680.464	54.43
680.791	54.44
681.117	54.46
681.444	54.46
681.771	54.48
682.097	54.49
682.424	54.5
682.75	54.51
683.077	54.52
683.403	54.53
683.729	54.55
684.056	54.56
684.382	54.56
684.708	54.57
685.034	54.56
685.36	54.61
685.686	54.59
686.012	54.61
686.339	54.61
686.664	54.61
686.99	54.63
687.316	54.63
687.642	54.65
687.968	54.66
688.294	54.68
688.619	54.69
688.945	54.71
689.271	54.72
689.596	54.74
689.922	54.76
690.247	54.78
690.573	54.77
690.898	54.78
691.224	54.8
691.549	54.81
691.874	54.82
692.2	54.85
692.525	54.86
692.85	54.88
693.175	54.87
693.5	54.9
693.825	54.92
694.15	54.94
694.475	54.97
694.8	54.98
695.125	55
695.45	55.03
695.775	55.05
696.099	55.05
696.424	55.04
696.749	55.05
697.073	55.05
697.398	55.08
697.723	55.1
698.047	55.13
698.372	55.17
698.696	55.15
699.02	55.17
699.345	55.17
699.669	55.19
699.993	55.19
700.318	55.21
700.642	55.22
700.966	55.23
701.29	55.24
701.614	55.25
701.938	55.26
702.262	55.26
702.586	55.28
702.91	55.29
703.234	55.28
703.557	55.3
703.881	55.34
704.205	55.35
704.529	55.36
704.852	55.36
705.176	55.37
705.499	55.38
705.823	55.39
706.146	55.41
706.47	55.44
706.793	55.44
707.117	55.46
707.44	55.44
707.763	55.44
708.086	55.46
708.409	55.47
708.733	55.49
709.056	55.49
709.379	55.52
709.702	55.57
710.025	55.6
710.348	55.63
710.671	55.62
710.993	55.65
711.316	55.64
711.639	55.64
711.962	55.66
712.284	55.68
712.607	55.7
712.93	55.71
713.252	55.73
713.575	55.73
713.897	55.76
714.22	55.77
714.542	55.78
714.864	55.8
715.187	55.81
715.509	55.81
715.831	55.82
716.153	55.86
716.475	55.88
716.798	55.91
717.12	55.9
717.442	55.88
717.764	55.9
718.085	55.94
718.407	55.95
718.729	55.97
719.051	56
719.373	56.02
719.695	56.02
720.016	56.03
720.338	56.03
720.659	56.08
720.981	56.1
721.302	56.11
721.624	56.12
721.945	56.11
722.267	56.13
722.588	56.15
722.909	56.15
723.231	56.16
723.552	56.16
723.873	56.17
724.194	56.16
724.515	56.18
724.836	56.18
725.157	56.2
725.478	56.19
725.799	56.19
726.12	56.2
726.441	56.2
726.762	56.21
727.083	56.21
727.403	56.2
727.724	56.18
728.045	56.16
728.365	56.17
728.686	56.2
729.006	56.22
729.327	56.21
729.647	56.19
729.967	56.19
730.288	56.2
730.608	56.25
730.928	56.28
731.249	56.28
731.569	56.25
731.889	56.27
732.209	56.26
732.529	56.26
732.849	56.28
733.169	56.3
733.489	56.33
733.809	56.3
734.129	56.32
734.448	56.33
734.768	56.31
735.088	56.31
735.408	56.31
735.727	56.28
736.047	56.29
736.366	56.3
736.686	56.31
737.005	56.33
737.325	56.32
737.644	56.3
737.963	56.29
738.283	56.28
738.602	56.3
738.921	56.32
739.24	56.34
739.56	56.34
739.879	56.35
740.198	56.34
740.517	56.37
740.836	56.39
741.155	56.39
741.473	56.37
741.792	56.35
742.111	56.3
742.43	56.29
742.748	56.35
743.067	56.37
743.386	56.38
743.704	56.38
744.023	56.35
744.341	56.36
744.66	56.41
744.978	56.39
745.297	56.4
745.615	56.4
745.933	56.38
746.252	56.36
746.57	56.35
746.888	56.36
747.206	56.33
747.524	56.34
747.842	56.37
748.16	56.36
748.478	56.35
748.796	56.39
749.114	56.39
749.432	56.36
749.749	56.38
750.067	56.38
750.385	56.4
750.703	56.41
751.02	56.46
751.338	56.43
751.655	56.46
751.973	56.41
752.29	56.39
752.608	56.37
752.925	56.38
753.242	56.4
753.56	56.38
753.877	56.37
754.194	56.4
754.511	56.45
754.828	56.44
755.145	56.48
755.462	56.49
755.779	56.5
756.096	56.48
756.413	56.47
756.73	56.49
757.047	56.54
757.364	56.51
757.68	56.5
757.997	56.55
758.314	56.55
758.63	56.59
758.947	56.66
759.264	56.67
759.58	56.7
759.896	56.75
760.213	56.81
760.529	56.81
760.846	56.83
761.162	56.87
761.478	56.91
761.794	56.92
762.11	56.93
762.426	56.94
762.743	56.95
763.059	56.95
763.375	56.97
763.69	57
764.006	56.97
764.322	57.01
764.638	56.99
764.954	56.99
765.27	57.02
765.585	57.05
765.901	57.05
766.216	57.07
766.532	57.09
766.848	57.08
767.163	57.06
767.478	57.04
767.794	57.06
768.109	57.05
768.424	57.04
768.74	57.04
769.055	57.05
769.37	57.05
769.685	57.06
770	57.04
770.315	57.08
770.63	57.07
770.945	57.05
771.26	57.07
771.575	57.04
771.89	57.03
772.205	57.04
772.52	57.02
772.834	56.99
773.149	56.95
773.464	56.95
773.778	56.93
774.093	56.91
774.407	56.87
774.722	56.87
775.036	56.88
775.351	56.87
775.665	56.85
775.979	56.84
776.293	56.85
776.608	56.84
776.922	56.84
777.236	56.86
777.55	56.87
777.864	56.91
778.178	56.88
778.492	56.85
778.806	56.82
779.12	56.79
779.434	56.8
779.747	56.83
780.061	56.85
780.375	56.88
780.689	56.93
781.002	56.9
781.316	56.92
781.629	56.91
781.943	56.95
782.256	56.97
782.57	56.93
782.883	56.94
783.196	56.92
783.51	56.9
783.823	56.88
784.136	56.9
784.449	56.86
784.762	56.84
785.075	56.87
785.388	56.82
785.701	56.8
786.014	56.86
786.327	56.9
786.64	56.91
786.953	56.91
787.266	56.94
787.578	56.92
787.891	56.9
788.204	56.96
788.516	56.93
788.829	56.97
789.141	56.96
789.454	56.95
789.766	56.97
790.079	56.98
790.391	56.99
790.703	57.01
791.016	57.08
791.328	57.08
791.64	57.1
791.952	57.07
792.264	56.97
792.576	56.96
792.888	56.94
793.2	56.93
793.512	56.93
793.824	56.93
794.136	56.94
794.448	56.9
794.76	56.86
795.071	56.84
795.383	56.85
795.695	56.85
796.006	56.82
796.318	56.8
796.629	56.84
796.941	56.81
797.252	56.85
797.564	56.83
797.875	56.81
798.186	56.8
798.497	56.86
798.809	56.8
799.12	56.76
799.431	56.74
799.742	56.7
800.053	56.7
800.364	56.68
800.675	56.68
800.986	56.63
801.297	56.66
801.608	56.67
801.918	56.65
802.229	56.65
802.54	56.64
802.851	56.58
803.161	56.58
803.472	56.59
803.782	56.59
804.093	56.55
804.403	56.56
804.714	56.55
805.024	56.61
805.334	56.58
805.645	56.64
805.955	56.63
806.265	56.57
806.575	56.56
806.885	56.55
807.195	56.6
807.505	56.68
807.815	56.69
808.125	56.73
808.435	56.72
808.745	56.77
809.055	56.83
809.365	56.83
809.674	56.82
809.984	56.81
810.294	56.85
810.603	56.81
810.913	56.87
811.222	56.79
811.532	56.81
811.841	56.84
812.151	56.88
812.46	56.9
812.769	56.88
813.079	56.96
813.388	56.96
813.697	56.94
814.006	56.89
814.315	56.87
814.624	56.93
814.933	56.89
815.242	56.96
815.551	56.94
815.86	57.01
816.169	56.98
816.478	57.04
816.786	57.11
817.095	57.12
817.404	57.16
817.712	57.2
818.021	57.25
818.33	57.26
818.638	57.25
818.947	57.27
819.255	57.32
819.563	57.34
819.872	57.36
820.18	57.39
820.488	57.4
820.796	57.45
821.105	57.49
821.413	57.53
821.721	57.57
822.029	57.57
822.337	57.57
822.645	57.59
822.953	57.6
823.26	57.6
823.568	57.6
823.876	57.65
824.184	57.66
824.491	57.64
824.799	57.65
825.107	57.68
825.414	57.7
825.722	57.7
826.029	57.71
826.337	57.74
826.644	57.77
826.951	57.75
827.259	57.74
827.566	57.78
827.873	57.75
828.18	57.78
828.488	57.74
828.795	57.75
829.102	57.73
829.409	57.73
829.716	57.77
830.023	57.82
830.329	57.82
830.636	57.84
830.943	57.88
831.25	57.92
831.557	57.95
831.863	57.95
832.17	57.94
832.476	57.92
832.783	57.9
833.089	57.88
833.396	57.81
833.702	57.77
834.009	57.74
834.315	57.69
834.621	57.66
834.928	57.68
835.234	57.65
835.54	57.6
835.846	57.6
836.152	57.59
836.458	57.51
836.764	57.48
837.07	57.48
837.376	57.41
837.682	57.35
837.988	57.3
838.293	57.29
838.599	57.3
838.905	57.21
839.211	57.19
839.516	57.19
839.822	57.18
840.127	57.1
840.433	57.19
840.738	57.17
841.044	57.16
841.349	57.18
841.654	57.23
841.959	57.2
842.265	57.13
842.57	57
842.875	57
843.18	56.87
843.485	56.72
843.79	56.7
844.095	56.63
844.4	56.59
844.705	56.66
845.01	56.73
845.315	56.6
845.619	56.61
845.924	56.64
846.229	56.69
846.533	56.7
846.838	56.77
847.142	56.77
847.447	56.83
847.751	56.86
848.056	56.91
848.36	56.98
848.664	56.98
848.969	57.06
849.273	57.15
849.577	57.15
849.881	57.28
850.185	57.34
850.489	57.38
850.794	57.34
851.097	57.19
851.401	57.33
851.705	57.3
852.009	57.39
852.313	57.49
852.617	57.62
852.92	57.47
853.224	57.48
853.528	57.56
853.831	57.48
854.135	57.26
854.438	57.38
854.742	57.3
855.045	57.16
855.349	57.21
855.652	57.43
855.955	57.54
856.259	57.51
856.562	57.52
856.865	57.53
857.168	57.42
857.471	57.34
857.774	57.32
858.077	57.39
858.38	57.26
858.683	57.27
858.986	57.06
859.289	56.9
859.592	57.08
859.894	57
860.197	57.05
860.5	57.18
860.802	57.19
861.105	57.1
861.407	57.03
861.71	56.98
862.012	56.89
862.315	56.86
862.617	56.68
862.919	56.73
863.222	56.69
863.524	56.77
863.826	56.77
864.128	56.79
864.43	56.77
864.732	56.69
865.034	56.67
865.336	56.7
865.638	56.68
865.94	56.64
866.242	56.67
866.544	56.93
866.846	56.89
867.147	56.92
867.449	57.02
867.751	57.03
868.052	56.93
868.354	56.93
868.655	56.87
868.957	56.92
869.258	56.94
869.56	57.1
869.861	57.21
870.162	57.41
870.463	57.35
870.765	57.4
871.066	57.32
871.367	57.48
871.668	57.57
871.969	57.43
872.27	57.25
872.571	57.27
872.872	57.13
873.173	57.17
873.473	57.27
873.774	57.35
874.075	57.27
874.376	57.35
874.676	57.27
874.977	57.47
875.277	57.42
875.578	57.52
875.878	57.5
876.179	57.49
876.479	57.48
876.78	57.58
877.08	57.57
877.38	57.44
877.68	57.5
877.981	57.45
878.281	57.61
878.581	57.82
