Data from UWBM86267_Reflection_00007.txt Node
Date: Sun May 02 14:07:55 EDT 2021
User: vgr7
Spectrometer: USB2G7710
Scans to average: 10
Trigger mode: 4
Integration Time (sec): 1.000000E-1
Electric dark correction enabled: true
Boxcar width: 20
XAxis mode: Wavelengths
Number of Pixels in Spectrum: 2048
>>>>>Begin Spectral Data<<<<<
177.721	166.86
178.105	163
178.488	223.44
178.871	319.4
179.254	202.75
179.636	176.38
180.019	148.87
180.402	151.05
180.785	110.23
181.168	93.11
181.55	61.45
181.933	54.58
182.316	54.87
182.698	48.08
183.081	46.31
183.463	47.46
183.846	41.43
184.228	42.58
184.611	44.21
184.993	44.13
185.376	45.24
185.758	47.39
186.14	43.7
186.522	38.91
186.904	35.43
187.287	34.06
187.669	37.71
188.051	36.31
188.433	35.89
188.815	31.52
189.197	30.53
189.579	30.83
189.961	30.94
190.342	31.87
190.724	35.38
191.106	36.88
191.488	37.24
191.869	35.32
192.251	35.36
192.633	32.76
193.014	29.93
193.396	27.63
193.777	30.33
194.159	30.38
194.54	28.99
194.922	26.68
195.303	25.11
195.684	23.82
196.065	23.23
196.447	22.14
196.828	21.82
197.209	22.48
197.59	21.85
197.971	20.1
198.352	21.71
198.733	21.47
199.114	20.71
199.495	22.85
199.876	20.83
200.257	21.58
200.638	19.06
201.018	19.36
201.399	18.69
201.78	18.93
202.16	18.69
202.541	19.79
202.922	19.85
203.302	19.64
203.683	19.63
204.063	20.1
204.444	19.19
204.824	19.22
205.204	17.63
205.585	15.98
205.965	16.75
206.345	15.14
206.725	12.73
207.106	11.91
207.486	12.12
207.866	12.44
208.246	12.53
208.626	12.52
209.006	13.38
209.386	11.78
209.766	10.19
210.145	8.2
210.525	8.89
210.905	10.42
211.285	9.08
211.664	9.45
212.044	9.3
212.424	9.37
212.803	10.49
213.183	11.03
213.562	12.84
213.942	11.83
214.321	12.01
214.701	10.7
215.08	10.99
215.459	11.04
215.838	7.81
216.218	9.2
216.597	8.7
216.976	8.9
217.355	8.11
217.734	9.27
218.113	8.8
218.492	7.18
218.871	6.31
219.25	7.15
219.629	6.53
220.008	7.08
220.387	6.72
220.766	7.24
221.144	7.93
221.523	7.39
221.902	6.57
222.28	6.57
222.659	7.31
223.037	6.91
223.416	6.97
223.794	7.12
224.173	7.18
224.551	6.56
224.929	6.98
225.308	6.92
225.686	7.05
226.064	7.85
226.442	7.5
226.821	8.42
227.199	8.38
227.577	8.39
227.955	8.17
228.333	7.99
228.711	7.68
229.089	6.88
229.467	6.47
229.845	6.25
230.222	6.26
230.6	5.93
230.978	5.65
231.356	6.11
231.733	6.05
232.111	5.56
232.488	5.26
232.866	5.22
233.243	4.77
233.621	4.61
233.998	4.98
234.376	4.98
234.753	4.55
235.13	4.42
235.508	4.49
235.885	4.38
236.262	4.32
236.639	4.26
237.016	4.25
237.393	4.41
237.77	4.46
238.147	4.34
238.524	4.36
238.901	4.25
239.278	4.21
239.655	4.18
240.032	4.15
240.409	4.08
240.785	4.13
241.162	4.1
241.539	3.96
241.915	4
242.292	3.93
242.668	3.91
243.045	3.9
243.421	3.87
243.798	3.87
244.174	3.88
244.551	3.9
244.927	3.93
245.303	3.92
245.679	3.95
246.056	3.91
246.432	3.91
246.808	3.82
247.184	3.83
247.56	3.85
247.936	3.85
248.312	3.83
248.688	3.84
249.064	3.85
249.44	3.83
249.815	3.8
250.191	3.77
250.567	3.81
250.943	3.79
251.318	3.78
251.694	3.81
252.069	3.77
252.445	3.74
252.82	3.69
253.196	3.64
253.571	3.62
253.947	3.61
254.322	3.61
254.697	3.6
255.073	3.58
255.448	3.59
255.823	3.57
256.198	3.52
256.573	3.5
256.948	3.53
257.323	3.49
257.698	3.46
258.073	3.44
258.448	3.42
258.823	3.41
259.198	3.41
259.573	3.38
259.948	3.38
260.322	3.37
260.697	3.35
261.072	3.33
261.446	3.32
261.821	3.32
262.195	3.34
262.57	3.32
262.944	3.32
263.319	3.33
263.693	3.33
264.067	3.33
264.442	3.31
264.816	3.28
265.19	3.27
265.564	3.28
265.938	3.26
266.313	3.27
266.687	3.27
267.061	3.26
267.435	3.27
267.809	3.26
268.183	3.26
268.556	3.27
268.93	3.26
269.304	3.25
269.678	3.25
270.051	3.24
270.425	3.21
270.799	3.2
271.172	3.2
271.546	3.21
271.919	3.22
272.293	3.22
272.666	3.21
273.04	3.23
273.413	3.26
273.787	3.28
274.16	3.28
274.533	3.28
274.906	3.28
275.279	3.27
275.653	3.28
276.026	3.28
276.399	3.29
276.772	3.3
277.145	3.29
277.518	3.29
277.891	3.31
278.263	3.3
278.636	3.31
279.009	3.31
279.382	3.31
279.755	3.32
280.127	3.35
280.5	3.36
280.872	3.39
281.245	3.39
281.617	3.4
281.99	3.41
282.362	3.39
282.735	3.39
283.107	3.42
283.479	3.42
283.852	3.45
284.224	3.45
284.596	3.45
284.968	3.45
285.34	3.47
285.713	3.49
286.085	3.51
286.457	3.52
286.829	3.52
287.201	3.54
287.572	3.54
287.944	3.56
288.316	3.58
288.688	3.58
289.06	3.59
289.431	3.61
289.803	3.62
290.175	3.66
290.546	3.69
290.918	3.72
291.289	3.74
291.661	3.78
292.032	3.8
292.403	3.83
292.775	3.87
293.146	3.89
293.517	3.92
293.889	3.93
294.26	3.98
294.631	4.01
295.002	4.05
295.373	4.07
295.744	4.12
296.115	4.15
296.486	4.2
296.857	4.23
297.228	4.27
297.599	4.33
297.97	4.38
298.34	4.39
298.711	4.43
299.082	4.47
299.452	4.54
299.823	4.6
300.194	4.65
300.564	4.7
300.935	4.75
301.305	4.8
301.676	4.85
302.046	4.9
302.416	4.95
302.787	5
303.157	5.04
303.527	5.09
303.897	5.16
304.267	5.22
304.637	5.28
305.008	5.35
305.378	5.4
305.748	5.46
306.117	5.53
306.487	5.59
306.857	5.65
307.227	5.7
307.597	5.78
307.967	5.84
308.336	5.9
308.706	5.96
309.076	6.01
309.445	6.07
309.815	6.12
310.184	6.17
310.554	6.23
310.923	6.28
311.293	6.32
311.662	6.37
312.031	6.43
312.401	6.5
312.77	6.55
313.139	6.6
313.508	6.67
313.877	6.73
314.246	6.78
314.616	6.8
314.985	6.86
315.353	6.91
315.722	6.96
316.091	7.03
316.46	7.06
316.829	7.13
317.198	7.19
317.567	7.25
317.935	7.33
318.304	7.39
318.672	7.45
319.041	7.52
319.41	7.59
319.778	7.65
320.147	7.71
320.515	7.75
320.883	7.81
321.252	7.85
321.62	7.9
321.988	7.95
322.357	8
322.725	8.04
323.093	8.09
323.461	8.12
323.829	8.17
324.197	8.22
324.565	8.25
324.933	8.29
325.301	8.32
325.669	8.36
326.037	8.4
326.405	8.43
326.772	8.45
327.14	8.46
327.508	8.48
327.875	8.5
328.243	8.52
328.61	8.54
328.978	8.55
329.346	8.57
329.713	8.6
330.08	8.6
330.448	8.61
330.815	8.61
331.182	8.62
331.55	8.63
331.917	8.63
332.284	8.62
332.651	8.64
333.018	8.64
333.385	8.67
333.752	8.68
334.119	8.68
334.486	8.7
334.853	8.72
335.22	8.73
335.587	8.75
335.954	8.77
336.32	8.78
336.687	8.78
337.054	8.8
337.42	8.81
337.787	8.8
338.153	8.8
338.52	8.81
338.886	8.79
339.253	8.79
339.619	8.81
339.986	8.82
340.352	8.82
340.718	8.81
341.084	8.81
341.451	8.8
341.817	8.82
342.183	8.83
342.549	8.83
342.915	8.82
343.281	8.82
343.647	8.82
344.013	8.81
344.379	8.8
344.745	8.81
345.11	8.81
345.476	8.81
345.842	8.81
346.208	8.82
346.573	8.82
346.939	8.82
347.304	8.83
347.67	8.82
348.035	8.82
348.401	8.8
348.766	8.79
349.132	8.78
349.497	8.77
349.862	8.76
350.228	8.74
350.593	8.72
350.958	8.69
351.323	8.67
351.688	8.66
352.053	8.63
352.418	8.62
352.783	8.6
353.148	8.57
353.513	8.54
353.878	8.52
354.243	8.49
354.608	8.46
354.972	8.43
355.337	8.4
355.702	8.37
356.066	8.34
356.431	8.31
356.795	8.26
357.16	8.22
357.524	8.2
357.889	8.17
358.253	8.14
358.618	8.1
358.982	8.08
359.346	8.06
359.71	8.03
360.075	7.99
360.439	7.96
360.803	7.92
361.167	7.88
361.531	7.85
361.895	7.81
362.259	7.76
362.623	7.72
362.987	7.68
363.351	7.64
363.714	7.61
364.078	7.56
364.442	7.52
364.806	7.47
365.169	7.43
365.533	7.39
365.896	7.34
366.26	7.31
366.623	7.26
366.987	7.21
367.35	7.15
367.714	7.1
368.077	7.06
368.44	7.01
368.803	6.95
369.167	6.9
369.53	6.83
369.893	6.76
370.256	6.71
370.619	6.65
370.982	6.6
371.345	6.54
371.708	6.49
372.071	6.43
372.434	6.36
372.797	6.31
373.159	6.25
373.522	6.21
373.885	6.15
374.247	6.09
374.61	6.03
374.973	5.98
375.335	5.93
375.698	5.87
376.06	5.82
376.423	5.77
376.785	5.71
377.147	5.66
377.51	5.61
377.872	5.57
378.234	5.52
378.596	5.46
378.958	5.42
379.321	5.36
379.683	5.32
380.045	5.27
380.407	5.23
380.769	5.18
381.13	5.14
381.492	5.09
381.854	5.06
382.216	5.02
382.578	4.98
382.939	4.95
383.301	4.91
383.663	4.87
384.024	4.84
384.386	4.8
384.747	4.77
385.109	4.73
385.47	4.69
385.832	4.65
386.193	4.62
386.554	4.59
386.916	4.56
387.277	4.52
387.638	4.49
387.999	4.47
388.36	4.44
388.721	4.41
389.082	4.38
389.443	4.36
389.804	4.33
390.165	4.3
390.526	4.28
390.887	4.26
391.248	4.24
391.609	4.22
391.969	4.2
392.33	4.18
392.691	4.15
393.051	4.13
393.412	4.11
393.772	4.09
394.133	4.06
394.493	4.04
394.854	4.01
395.214	3.99
395.574	3.97
395.935	3.95
396.295	3.92
396.655	3.9
397.015	3.88
397.376	3.85
397.736	3.83
398.096	3.81
398.456	3.79
398.816	3.77
399.176	3.75
399.535	3.73
399.895	3.71
400.255	3.7
400.615	3.68
400.975	3.66
401.334	3.64
401.694	3.63
402.054	3.62
402.413	3.6
402.773	3.58
403.132	3.56
403.492	3.56
403.851	3.55
404.211	3.53
404.57	3.52
404.929	3.51
405.288	3.5
405.648	3.48
406.007	3.47
406.366	3.46
406.725	3.45
407.084	3.44
407.443	3.43
407.802	3.42
408.161	3.41
408.52	3.4
408.879	3.39
409.238	3.38
409.596	3.38
409.955	3.38
410.314	3.37
410.673	3.36
411.031	3.36
411.39	3.36
411.748	3.36
412.107	3.35
412.465	3.35
412.824	3.36
413.182	3.37
413.54	3.39
413.899	3.4
414.257	3.42
414.615	3.44
414.974	3.46
415.332	3.49
415.69	3.51
416.048	3.53
416.406	3.56
416.764	3.57
417.122	3.59
417.48	3.61
417.838	3.63
418.195	3.64
418.553	3.65
418.911	3.66
419.269	3.66
419.626	3.65
419.984	3.64
420.342	3.63
420.699	3.61
421.057	3.59
421.414	3.57
421.772	3.56
422.129	3.55
422.486	3.54
422.844	3.54
423.201	3.53
423.558	3.53
423.915	3.52
424.273	3.52
424.63	3.51
424.987	3.51
425.344	3.5
425.701	3.5
426.058	3.49
426.415	3.49
426.772	3.48
427.128	3.48
427.485	3.47
427.842	3.45
428.199	3.44
428.555	3.42
428.912	3.4
429.269	3.37
429.625	3.35
429.982	3.32
430.338	3.3
430.695	3.28
431.051	3.25
431.407	3.23
431.764	3.21
432.12	3.19
432.476	3.18
432.832	3.17
433.189	3.17
433.545	3.17
433.901	3.18
434.257	3.19
434.613	3.21
434.969	3.23
435.325	3.25
435.681	3.28
436.036	3.3
436.392	3.31
436.748	3.32
437.104	3.33
437.459	3.34
437.815	3.36
438.171	3.37
438.526	3.39
438.882	3.42
439.237	3.45
439.593	3.47
439.948	3.5
440.304	3.52
440.659	3.54
441.014	3.55
441.369	3.57
441.725	3.59
442.08	3.6
442.435	3.61
442.79	3.61
443.145	3.61
443.5	3.61
443.855	3.61
444.21	3.61
444.565	3.61
444.92	3.6
445.275	3.59
445.629	3.59
445.984	3.58
446.339	3.56
446.693	3.55
447.048	3.54
447.403	3.53
447.757	3.51
448.112	3.49
448.466	3.47
448.82	3.45
449.175	3.43
449.529	3.41
449.883	3.39
450.238	3.37
450.592	3.37
450.946	3.35
451.3	3.35
451.654	3.36
452.008	3.36
452.362	3.36
452.716	3.35
453.07	3.35
453.424	3.34
453.778	3.34
454.132	3.33
454.486	3.32
454.839	3.3
455.193	3.29
455.547	3.28
455.9	3.26
456.254	3.24
456.607	3.22
456.961	3.2
457.314	3.19
457.668	3.18
458.021	3.18
458.375	3.17
458.728	3.17
459.081	3.17
459.434	3.18
459.787	3.18
460.141	3.2
460.494	3.2
460.847	3.21
461.2	3.21
461.553	3.22
461.906	3.22
462.259	3.22
462.611	3.23
462.964	3.23
463.317	3.24
463.67	3.24
464.022	3.25
464.375	3.26
464.728	3.26
465.08	3.27
465.433	3.27
465.785	3.27
466.138	3.26
466.49	3.25
466.843	3.24
467.195	3.23
467.547	3.22
467.899	3.2
468.252	3.19
468.604	3.17
468.956	3.16
469.308	3.15
469.66	3.15
470.012	3.14
470.364	3.15
470.716	3.15
471.068	3.16
471.42	3.18
471.772	3.2
472.123	3.21
472.475	3.21
472.827	3.22
473.178	3.23
473.53	3.24
473.882	3.25
474.233	3.27
474.585	3.3
474.936	3.34
475.288	3.41
475.639	3.5
475.99	3.6
476.342	3.72
476.693	3.84
477.044	3.96
477.395	4.09
477.746	4.23
478.097	4.36
478.448	4.5
478.8	4.63
479.15	4.75
479.501	4.86
479.852	4.97
480.203	5.07
480.554	5.17
480.905	5.26
481.255	5.34
481.606	5.43
481.957	5.5
482.307	5.57
482.658	5.64
483.009	5.7
483.359	5.77
483.709	5.83
484.06	5.89
484.41	5.95
484.761	6.01
485.111	6.06
485.461	6.11
485.811	6.16
486.162	6.21
486.512	6.25
486.862	6.28
487.212	6.3
487.562	6.31
487.912	6.33
488.262	6.33
488.612	6.32
488.961	6.31
489.311	6.28
489.661	6.23
490.011	6.16
490.36	6.08
490.71	5.99
491.06	5.89
491.409	5.79
491.759	5.68
492.108	5.56
492.458	5.44
492.807	5.32
493.157	5.19
493.506	5.08
493.855	4.97
494.204	4.86
494.554	4.76
494.903	4.66
495.252	4.58
495.601	4.49
495.95	4.41
496.299	4.34
496.648	4.27
496.997	4.21
497.346	4.15
497.695	4.09
498.043	4.03
498.392	3.98
498.741	3.93
499.09	3.89
499.438	3.85
499.787	3.81
500.135	3.78
500.484	3.75
500.832	3.73
501.181	3.72
501.529	3.72
501.878	3.73
502.226	3.74
502.574	3.77
502.923	3.79
503.271	3.82
503.619	3.85
503.967	3.88
504.315	3.9
504.663	3.94
505.011	3.97
505.359	4
505.707	4.03
506.055	4.06
506.403	4.1
506.751	4.14
507.098	4.18
507.446	4.22
507.794	4.27
508.141	4.32
508.489	4.37
508.837	4.43
509.184	4.49
509.531	4.55
509.879	4.61
510.226	4.68
510.574	4.75
510.921	4.83
511.268	4.9
511.616	4.98
511.963	5.06
512.31	5.15
512.657	5.24
513.004	5.32
513.351	5.4
513.698	5.48
514.045	5.55
514.392	5.61
514.739	5.67
515.086	5.73
515.432	5.79
515.779	5.85
516.126	5.91
516.473	5.97
516.819	6.05
517.166	6.13
517.512	6.21
517.859	6.31
518.205	6.41
518.552	6.53
518.898	6.65
519.245	6.79
519.591	6.97
519.937	7.18
520.283	7.42
520.629	7.68
520.976	7.96
521.322	8.26
521.668	8.56
522.014	8.87
522.36	9.18
522.706	9.48
523.052	9.77
523.398	10.05
523.743	10.3
524.089	10.53
524.435	10.75
524.781	10.96
525.126	11.17
525.472	11.37
525.817	11.56
526.163	11.76
526.509	11.94
526.854	12.13
527.199	12.32
527.545	12.5
527.89	12.69
528.235	12.88
528.581	13.07
528.926	13.24
529.271	13.41
529.616	13.57
529.961	13.72
530.306	13.87
530.651	14
530.996	14.13
531.341	14.24
531.686	14.35
532.031	14.45
532.376	14.56
532.721	14.68
533.065	14.82
533.41	14.96
533.755	15.09
534.099	15.21
534.444	15.31
534.788	15.4
535.133	15.48
535.477	15.55
535.822	15.61
536.166	15.65
536.51	15.67
536.855	15.67
537.199	15.65
537.543	15.63
537.887	15.63
538.231	15.65
538.576	15.67
538.92	15.69
539.264	15.7
539.608	15.71
539.951	15.71
540.295	15.71
540.639	15.7
540.983	15.69
541.327	15.67
541.671	15.63
542.014	15.62
542.358	15.61
542.701	15.64
543.045	15.7
543.389	15.78
543.732	15.87
544.075	15.97
544.419	16.08
544.762	16.2
545.105	16.32
545.449	16.46
545.792	16.6
546.135	16.74
546.478	16.87
546.821	16.98
547.165	17.07
547.508	17.14
547.851	17.18
548.194	17.21
548.536	17.23
548.879	17.23
549.222	17.22
549.565	17.21
549.908	17.2
550.25	17.22
550.593	17.26
550.936	17.34
551.278	17.45
551.621	17.58
551.963	17.72
552.306	17.88
552.648	18.06
552.991	18.26
553.333	18.47
553.675	18.71
554.017	18.97
554.36	19.24
554.702	19.53
555.044	19.86
555.386	20.2
555.728	20.58
556.07	20.94
556.412	21.3
556.754	21.62
557.096	21.91
557.438	22.21
557.78	22.51
558.121	22.82
558.463	23.14
558.805	23.46
559.147	23.79
559.488	24.11
559.83	24.45
560.171	24.78
560.513	25.1
560.854	25.42
561.196	25.74
561.537	26.07
561.878	26.4
562.22	26.72
562.561	27.03
562.902	27.35
563.243	27.68
563.584	28.02
563.925	28.35
564.266	28.68
564.607	29.02
564.948	29.35
565.289	29.69
565.63	30.02
565.971	30.35
566.312	30.67
566.653	31
566.993	31.32
567.334	31.65
567.675	31.96
568.015	32.27
568.356	32.58
568.696	32.88
569.037	33.17
569.377	33.46
569.718	33.75
570.058	34.04
570.398	34.32
570.739	34.58
571.079	34.85
571.419	35.11
571.759	35.37
572.099	35.63
572.439	35.9
572.779	36.16
573.119	36.42
573.459	36.68
573.799	36.95
574.139	37.21
574.479	37.46
574.819	37.73
575.158	38
575.498	38.25
575.838	38.5
576.177	38.75
576.517	39
576.856	39.25
577.196	39.5
577.535	39.74
577.875	39.99
578.214	40.24
578.553	40.48
578.893	40.74
579.232	40.99
579.571	41.24
579.91	41.51
580.25	41.77
580.589	42.03
580.928	42.3
581.267	42.55
581.606	42.82
581.945	43.08
582.283	43.35
582.622	43.62
582.961	43.9
583.3	44.18
583.639	44.44
583.977	44.7
584.316	44.96
584.654	45.21
584.993	45.47
585.332	45.72
585.67	45.96
586.008	46.2
586.347	46.44
586.685	46.67
587.024	46.91
587.362	47.14
587.7	47.37
588.038	47.61
588.376	47.86
588.715	48.1
589.053	48.35
589.391	48.58
589.729	48.82
590.067	49.05
590.404	49.29
590.742	49.51
591.08	49.72
591.418	49.93
591.756	50.14
592.093	50.34
592.431	50.53
592.769	50.7
593.106	50.88
593.444	51.04
593.781	51.19
594.119	51.35
594.456	51.51
594.793	51.67
595.131	51.84
595.468	52.01
595.805	52.17
596.143	52.36
596.48	52.52
596.817	52.7
597.154	52.87
597.491	53.04
597.828	53.23
598.165	53.39
598.502	53.56
598.839	53.72
599.176	53.87
599.512	54.02
599.849	54.17
600.186	54.3
600.523	54.44
600.859	54.57
601.196	54.7
601.532	54.83
601.869	54.97
602.205	55.09
602.542	55.22
602.878	55.33
603.215	55.46
603.551	55.58
603.887	55.7
604.223	55.81
604.56	55.92
604.896	56.02
605.232	56.13
605.568	56.23
605.904	56.33
606.24	56.42
606.576	56.51
606.912	56.6
607.248	56.68
607.583	56.77
607.919	56.85
608.255	56.93
608.591	57.01
608.926	57.09
609.262	57.17
609.597	57.25
609.933	57.32
610.268	57.4
610.604	57.47
610.939	57.53
611.275	57.6
611.61	57.66
611.945	57.73
612.281	57.79
612.616	57.86
612.951	57.93
613.286	58
613.621	58.07
613.956	58.13
614.291	58.21
614.626	58.27
614.961	58.34
615.296	58.4
615.631	58.46
615.966	58.52
616.3	58.58
616.635	58.64
616.97	58.69
617.304	58.75
617.639	58.81
617.973	58.89
618.308	58.94
618.642	59.02
618.977	59.08
619.311	59.16
619.646	59.23
619.98	59.3
620.314	59.37
620.648	59.44
620.983	59.51
621.317	59.56
621.651	59.62
621.985	59.68
622.319	59.77
622.653	59.82
622.987	59.87
623.321	59.93
623.655	59.98
623.988	60.03
624.322	60.1
624.656	60.16
624.99	60.2
625.323	60.26
625.657	60.32
625.99	60.36
626.324	60.4
626.657	60.46
626.991	60.49
627.324	60.53
627.658	60.59
627.991	60.64
628.324	60.68
628.657	60.72
628.991	60.76
629.324	60.8
629.657	60.84
629.99	60.88
630.323	60.93
630.656	60.97
630.989	61
631.322	61.03
631.655	61.08
631.987	61.12
632.32	61.14
632.653	61.17
632.986	61.2
633.318	61.23
633.651	61.27
633.984	61.3
634.316	61.33
634.649	61.36
634.981	61.41
635.313	61.45
635.646	61.48
635.978	61.5
636.31	61.52
636.643	61.55
636.975	61.58
637.307	61.6
637.639	61.64
637.971	61.65
638.303	61.66
638.635	61.68
638.967	61.7
639.299	61.72
639.631	61.76
639.963	61.79
640.295	61.82
640.626	61.85
640.958	61.9
641.29	61.92
641.621	61.92
641.953	61.95
642.285	61.98
642.616	62.01
642.948	62.04
643.279	62.08
643.61	62.11
643.942	62.15
644.273	62.17
644.604	62.21
644.936	62.24
645.267	62.26
645.598	62.29
645.929	62.33
646.26	62.36
646.591	62.39
646.922	62.43
647.253	62.46
647.584	62.49
647.915	62.53
648.245	62.57
648.576	62.59
648.907	62.59
649.238	62.64
649.568	62.66
649.899	62.69
650.229	62.73
650.56	62.76
650.89	62.8
651.221	62.83
651.551	62.86
651.882	62.91
652.212	62.95
652.542	62.99
652.872	63.04
653.203	63.06
653.533	63.09
653.863	63.11
654.193	63.13
654.523	63.15
654.853	63.18
655.183	63.2
655.513	63.24
655.843	63.26
656.172	63.29
656.502	63.3
656.832	63.31
657.162	63.34
657.491	63.35
657.821	63.37
658.15	63.4
658.48	63.41
658.809	63.43
659.139	63.45
659.468	63.47
659.798	63.51
660.127	63.53
660.456	63.56
660.785	63.57
661.115	63.59
661.444	63.61
661.773	63.61
662.102	63.64
662.431	63.67
662.76	63.66
663.089	63.68
663.418	63.68
663.747	63.69
664.076	63.71
664.404	63.71
664.733	63.71
665.062	63.72
665.39	63.72
665.719	63.74
666.048	63.75
666.376	63.76
666.705	63.77
667.033	63.79
667.362	63.8
667.69	63.81
668.018	63.83
668.347	63.85
668.675	63.88
669.003	63.91
669.331	63.9
669.659	63.92
669.987	63.94
670.315	63.96
670.643	63.96
670.971	63.98
671.299	63.99
671.627	64.01
671.955	64.03
672.283	64.05
672.61	64.08
672.938	64.07
673.266	64.06
673.593	64.06
673.921	64.05
674.249	64.08
674.576	64.1
674.904	64.09
675.231	64.12
675.558	64.13
675.886	64.14
676.213	64.17
676.54	64.19
676.867	64.21
677.195	64.23
677.522	64.23
677.849	64.25
678.176	64.28
678.503	64.31
678.83	64.32
679.157	64.32
679.484	64.35
679.81	64.35
680.137	64.37
680.464	64.39
680.791	64.43
681.117	64.45
681.444	64.46
681.771	64.47
682.097	64.47
682.424	64.47
682.75	64.51
683.077	64.5
683.403	64.49
683.729	64.5
684.056	64.5
684.382	64.5
684.708	64.5
685.034	64.5
685.36	64.5
685.686	64.49
686.012	64.5
686.339	64.51
686.664	64.52
686.99	64.54
687.316	64.56
687.642	64.57
687.968	64.58
688.294	64.6
688.619	64.61
688.945	64.61
689.271	64.62
689.596	64.64
689.922	64.63
690.247	64.66
690.573	64.67
690.898	64.67
691.224	64.69
691.549	64.71
691.874	64.71
692.2	64.7
692.525	64.73
692.85	64.75
693.175	64.77
693.5	64.76
693.825	64.75
694.15	64.72
694.475	64.73
694.8	64.73
695.125	64.72
695.45	64.72
695.775	64.71
696.099	64.72
696.424	64.73
696.749	64.73
697.073	64.75
697.398	64.78
697.723	64.8
698.047	64.82
698.372	64.84
698.696	64.86
699.02	64.88
699.345	64.88
699.669	64.91
699.993	64.94
700.318	64.94
700.642	64.94
700.966	64.93
701.29	64.95
701.614	64.97
701.938	64.96
702.262	64.99
702.586	65.01
702.91	65.03
703.234	65.04
703.557	65.05
703.881	65.08
704.205	65.1
704.529	65.12
704.852	65.13
705.176	65.15
705.499	65.17
705.823	65.15
706.146	65.14
706.47	65.16
706.793	65.21
707.117	65.22
707.44	65.25
707.763	65.27
708.086	65.27
708.409	65.32
708.733	65.34
709.056	65.38
709.379	65.38
709.702	65.39
710.025	65.43
710.348	65.46
710.671	65.46
710.993	65.46
711.316	65.46
711.639	65.47
711.962	65.49
712.284	65.51
712.607	65.51
712.93	65.51
713.252	65.54
713.575	65.54
713.897	65.55
714.22	65.58
714.542	65.59
714.864	65.61
715.187	65.64
715.509	65.65
715.831	65.64
716.153	65.63
716.475	65.63
716.798	65.64
717.12	65.64
717.442	65.67
717.764	65.67
718.085	65.67
718.407	65.68
718.729	65.7
719.051	65.74
719.373	65.76
719.695	65.75
720.016	65.72
720.338	65.74
720.659	65.77
720.981	65.8
721.302	65.82
721.624	65.81
721.945	65.82
722.267	65.82
722.588	65.85
722.909	65.88
723.231	65.91
723.552	65.91
723.873	65.93
724.194	65.93
724.515	65.99
724.836	66.02
725.157	66.02
725.478	66.01
725.799	66.03
726.12	66.04
726.441	66.04
726.762	66.03
727.083	66.02
727.403	66
727.724	66
728.045	66.02
728.365	66
728.686	66.01
729.006	66.05
729.327	66.07
729.647	66.1
729.967	66.09
730.288	66.1
730.608	66.1
730.928	66.11
731.249	66.1
731.569	66.11
731.889	66.12
732.209	66.13
732.529	66.12
732.849	66.13
733.169	66.18
733.489	66.2
733.809	66.21
734.129	66.21
734.448	66.2
734.768	66.22
735.088	66.25
735.408	66.26
735.727	66.24
736.047	66.25
736.366	66.24
736.686	66.24
737.005	66.22
737.325	66.23
737.644	66.19
737.963	66.15
738.283	66.14
738.602	66.16
738.921	66.17
739.24	66.19
739.56	66.17
739.879	66.23
740.198	66.25
740.517	66.26
740.836	66.26
741.155	66.24
741.473	66.26
741.792	66.25
742.111	66.22
742.43	66.23
742.748	66.23
743.067	66.23
743.386	66.26
743.704	66.24
744.023	66.26
744.341	66.29
744.66	66.29
744.978	66.27
745.297	66.28
745.615	66.31
745.933	66.29
746.252	66.24
746.57	66.23
746.888	66.23
747.206	66.22
747.524	66.26
747.842	66.25
748.16	66.2
748.478	66.19
748.796	66.2
749.114	66.2
749.432	66.21
749.749	66.21
750.067	66.21
750.385	66.25
750.703	66.26
751.02	66.27
751.338	66.28
751.655	66.27
751.973	66.26
752.29	66.23
752.608	66.2
752.925	66.18
753.242	66.18
753.56	66.18
753.877	66.22
754.194	66.22
754.511	66.22
754.828	66.19
755.145	66.21
755.462	66.22
755.779	66.25
756.096	66.26
756.413	66.21
756.73	66.22
757.047	66.23
757.364	66.24
757.68	66.25
757.997	66.25
758.314	66.27
758.63	66.27
758.947	66.33
759.264	66.4
759.58	66.44
759.896	66.46
760.213	66.46
760.529	66.46
760.846	66.52
761.162	66.56
761.478	66.56
761.794	66.6
762.11	66.63
762.426	66.63
762.743	66.67
763.059	66.66
763.375	66.66
763.69	66.68
764.006	66.7
764.322	66.68
764.638	66.69
764.954	66.68
765.27	66.7
765.585	66.73
765.901	66.74
766.216	66.74
766.532	66.74
766.848	66.74
767.163	66.73
767.478	66.71
767.794	66.76
768.109	66.76
768.424	66.75
768.74	66.73
769.055	66.74
769.37	66.73
769.685	66.71
770	66.74
770.315	66.73
770.63	66.75
770.945	66.75
771.26	66.71
771.575	66.7
771.89	66.68
772.205	66.65
772.52	66.6
772.834	66.6
773.149	66.6
773.464	66.56
773.778	66.51
774.093	66.48
774.407	66.47
774.722	66.43
775.036	66.4
775.351	66.4
775.665	66.37
775.979	66.44
776.293	66.45
776.608	66.45
776.922	66.44
777.236	66.44
777.55	66.46
777.864	66.51
778.178	66.52
778.492	66.54
778.806	66.51
779.12	66.5
779.434	66.51
779.747	66.51
780.061	66.57
780.375	66.62
780.689	66.62
781.002	66.6
781.316	66.62
781.629	66.67
781.943	66.71
782.256	66.75
782.57	66.8
782.883	66.76
783.196	66.71
783.51	66.69
783.823	66.71
784.136	66.73
784.449	66.71
784.762	66.68
785.075	66.65
785.388	66.68
785.701	66.66
786.014	66.71
786.327	66.74
786.64	66.74
786.953	66.77
787.266	66.81
787.578	66.77
787.891	66.75
788.204	66.74
788.516	66.78
788.829	66.79
789.141	66.82
789.454	66.76
789.766	66.83
790.079	66.9
790.391	66.87
790.703	66.89
791.016	66.93
791.328	66.91
791.64	67.01
791.952	67.06
792.264	67.03
792.576	67.02
792.888	66.99
793.2	66.98
793.512	67.02
793.824	67.03
794.136	67
794.448	66.94
794.76	66.97
795.071	67.04
795.383	67.02
795.695	67.03
796.006	67.07
796.318	67.04
796.629	67
796.941	66.98
797.252	66.98
797.564	67.02
797.875	67.05
798.186	67.05
798.497	67.06
798.809	67.05
799.12	67.04
799.431	67.04
799.742	67.02
800.053	67.04
800.364	67.05
800.675	67
800.986	67.01
801.297	67
801.608	66.93
801.918	66.9
802.229	66.92
802.54	66.87
802.851	66.86
803.161	66.87
803.472	66.86
803.782	66.81
804.093	66.76
804.403	66.68
804.714	66.64
805.024	66.69
805.334	66.66
805.645	66.64
805.955	66.62
806.265	66.58
806.575	66.61
806.885	66.56
807.195	66.6
807.505	66.54
807.815	66.47
808.125	66.54
808.435	66.57
808.745	66.58
809.055	66.65
809.365	66.75
809.674	66.84
809.984	66.82
810.294	66.77
810.603	66.73
810.913	66.73
811.222	66.77
811.532	66.8
811.841	66.82
812.151	66.85
812.46	66.85
812.769	66.86
813.079	66.97
813.388	67.05
813.697	67.06
814.006	67.02
814.315	67.08
814.624	67.12
814.933	67.08
815.242	67.04
815.551	67.04
815.86	67.11
816.169	67.13
816.478	67.14
816.786	67.1
817.095	67.13
817.404	67.05
817.712	67.01
818.021	67.02
818.33	67
818.638	66.98
818.947	66.97
819.255	66.93
819.563	66.93
819.872	66.95
820.18	66.96
820.488	66.98
820.796	66.98
821.105	66.99
821.413	67.02
821.721	67.02
822.029	67.02
822.337	67.02
822.645	67.03
822.953	67.03
823.26	67.02
823.568	67.02
823.876	66.98
824.184	66.96
824.491	66.96
824.799	66.94
825.107	66.96
825.414	66.94
825.722	66.94
826.029	66.93
826.337	66.95
826.644	66.95
826.951	66.93
827.259	66.92
827.566	66.91
827.873	66.91
828.18	66.89
828.488	66.86
828.795	66.85
829.102	66.83
829.409	66.85
829.716	66.82
830.023	66.86
830.329	66.85
830.636	66.85
830.943	66.87
831.25	66.89
831.557	66.94
831.863	66.96
832.17	66.96
832.476	66.94
832.783	66.93
833.089	66.88
833.396	66.86
833.702	66.8
834.009	66.79
834.315	66.76
834.621	66.71
834.928	66.7
835.234	66.68
835.54	66.68
835.846	66.69
836.152	66.67
836.458	66.74
836.764	66.8
837.07	66.78
837.376	66.79
837.682	66.75
837.988	66.8
838.293	66.78
838.599	66.78
838.905	66.69
839.211	66.74
839.516	66.76
839.822	66.81
840.127	66.84
840.433	66.89
840.738	66.93
841.044	66.95
841.349	66.95
841.654	67.04
841.959	67.01
842.265	67.1
842.57	67.13
842.875	67.2
843.18	67.14
843.485	67.21
843.79	67.12
844.095	66.88
844.4	66.98
844.705	67.1
845.01	67.04
845.315	67.03
845.619	67.11
845.924	67
846.229	67.01
846.533	66.99
846.838	67.1
847.142	67.13
847.447	67.15
847.751	67.25
848.056	67.22
848.36	67.34
848.664	67.36
848.969	67.47
849.273	67.38
849.577	67.3
849.881	67.19
850.185	67.31
850.489	67.21
850.794	67.18
851.097	67.19
851.401	67.37
851.705	67.18
852.009	67.19
852.313	67.1
852.617	67.19
852.92	67.19
853.224	67.17
853.528	67.3
853.831	67.2
854.135	67.18
854.438	67.26
854.742	67.16
855.045	67.16
855.349	67.32
855.652	67.47
855.955	67.33
856.259	67.51
856.562	67.76
856.865	67.74
857.168	67.6
857.471	67.57
857.774	67.59
858.077	67.64
858.38	67.73
858.683	67.71
858.986	67.67
859.289	67.52
859.592	67.49
859.894	67.39
860.197	67.25
860.5	67.24
860.802	67.27
861.105	67.34
861.407	67.21
861.71	67.23
862.012	67.29
862.315	67.28
862.617	67.26
862.919	67.19
863.222	67.2
863.524	67.11
863.826	66.98
864.128	67.21
864.43	67.22
864.732	67.23
865.034	67.23
865.336	67.02
865.638	67.06
865.94	66.98
866.242	67.08
866.544	67
866.846	67.04
867.147	67.05
867.449	67.1
867.751	67.01
868.052	66.95
868.354	66.84
868.655	66.76
868.957	66.62
869.258	66.6
869.56	66.7
869.861	66.97
870.162	66.82
870.463	66.89
870.765	66.93
871.066	66.97
871.367	66.85
871.668	66.88
871.969	66.89
872.27	66.91
872.571	66.95
872.872	67
873.173	66.93
873.473	66.83
873.774	66.78
874.075	66.72
874.376	66.8
874.676	66.9
874.977	66.79
875.277	66.95
875.578	66.93
875.878	67
876.179	67.07
876.479	66.94
876.78	66.94
877.08	66.88
877.38	66.87
877.68	67.03
877.981	67.02
878.281	66.94
878.581	66.89
