Data from UWBM48344_Reflection_00014.txt Node
Date: Sun May 02 14:02:11 EDT 2021
User: vgr7
Spectrometer: USB2G7710
Scans to average: 10
Trigger mode: 4
Integration Time (sec): 1.000000E-1
Electric dark correction enabled: true
Boxcar width: 20
XAxis mode: Wavelengths
Number of Pixels in Spectrum: 2048
>>>>>Begin Spectral Data<<<<<
177.721	322.22
178.105	800
178.488	355.56
178.871	338.89
179.254	159.46
179.636	81.82
180.019	75
180.402	60.95
180.785	55.97
181.168	57.93
181.55	54.45
181.933	58.3
182.316	50.2
182.698	45.08
183.081	39.15
183.463	34.14
183.846	27.78
184.228	28.45
184.611	28.26
184.993	27.75
185.376	23.82
185.758	27.52
186.14	31.92
186.522	33.81
186.904	36.56
187.287	37.27
187.669	35.81
188.051	32.94
188.433	29.09
188.815	25.61
189.197	26.91
189.579	23.29
189.961	20.18
190.342	17.73
190.724	20.4
191.106	24.49
191.488	24
191.869	21.63
192.251	17.77
192.633	15.83
193.014	16.32
193.396	12.7
193.777	14.35
194.159	14.69
194.54	12.19
194.922	12.81
195.303	11.99
195.684	11.31
196.065	11.76
196.447	10.83
196.828	10.42
197.209	9.06
197.59	6.1
197.971	5.01
198.352	7.55
198.733	8.83
199.114	9.89
199.495	11.81
199.876	12.03
200.257	12.78
200.638	13.1
201.018	14.55
201.399	13.42
201.78	13.25
202.16	11.6
202.541	10.44
202.922	10.25
203.302	10.48
203.683	11.55
204.063	12.97
204.444	13.47
204.824	12
205.204	12.43
205.585	13.73
205.965	15.57
206.345	14.45
206.725	12.93
207.106	13.48
207.486	14.35
207.866	16.2
208.246	16.28
208.626	15.72
209.006	15.9
209.386	14.28
209.766	13.39
210.145	13.1
210.525	12.92
210.905	15.46
211.285	14.39
211.664	14.01
212.044	13.88
212.424	12.44
212.803	11.68
213.183	11.46
213.562	13.6
213.942	12.56
214.321	10.91
214.701	9.41
215.08	9.82
215.459	8.65
215.838	8.11
216.218	7.86
216.597	6.26
216.976	6.16
217.355	5.48
217.734	4.94
218.113	5.75
218.492	5.19
218.871	5.35
219.25	4.93
219.629	4.69
220.008	4.52
220.387	4.05
220.766	5.42
221.144	4.67
221.523	4.85
221.902	4.88
222.28	5.17
222.659	4.92
223.037	4.84
223.416	4.83
223.794	5.46
224.173	5.84
224.551	5.67
224.929	6.72
225.308	6.94
225.686	7.32
226.064	7.05
226.442	6.57
226.821	7.35
227.199	7.45
227.577	7.65
227.955	8.14
228.333	8.28
228.711	7.94
229.089	7.29
229.467	6.97
229.845	7.33
230.222	7.62
230.6	7.16
230.978	7.28
231.356	7.03
231.733	6.93
232.111	7.08
232.488	7.11
232.866	7.01
233.243	6.91
233.621	6.75
233.998	6.67
234.376	6.46
234.753	6.5
235.13	6.45
235.508	6.58
235.885	6.4
236.262	6.18
236.639	6.13
237.016	5.95
237.393	5.92
237.77	5.93
238.147	5.9
238.524	5.79
238.901	5.69
239.278	5.69
239.655	5.66
240.032	5.68
240.409	5.61
240.785	5.6
241.162	5.55
241.539	5.52
241.915	5.56
242.292	5.53
242.668	5.53
243.045	5.51
243.421	5.46
243.798	5.44
244.174	5.51
244.551	5.56
244.927	5.55
245.303	5.56
245.679	5.55
246.056	5.49
246.432	5.46
246.808	5.46
247.184	5.45
247.56	5.45
247.936	5.46
248.312	5.44
248.688	5.45
249.064	5.44
249.44	5.44
249.815	5.44
250.191	5.35
250.567	5.34
250.943	5.28
251.318	5.28
251.694	5.3
252.069	5.26
252.445	5.26
252.82	5.23
253.196	5.18
253.571	5.16
253.947	5.16
254.322	5.16
254.697	5.13
255.073	5.1
255.448	5.09
255.823	5.04
256.198	5.02
256.573	5.01
256.948	5.01
257.323	4.98
257.698	4.93
258.073	4.89
258.448	4.86
258.823	4.85
259.198	4.85
259.573	4.82
259.948	4.79
260.322	4.78
260.697	4.74
261.072	4.72
261.446	4.73
261.821	4.72
262.195	4.7
262.57	4.69
262.944	4.69
263.319	4.7
263.693	4.69
264.067	4.67
264.442	4.66
264.816	4.63
265.19	4.63
265.564	4.65
265.938	4.65
266.313	4.64
266.687	4.64
267.061	4.62
267.435	4.62
267.809	4.61
268.183	4.6
268.556	4.59
268.93	4.6
269.304	4.6
269.678	4.58
270.051	4.55
270.425	4.55
270.799	4.53
271.172	4.56
271.546	4.57
271.919	4.56
272.293	4.54
272.666	4.53
273.04	4.55
273.413	4.59
273.787	4.6
274.16	4.6
274.533	4.59
274.906	4.6
275.279	4.59
275.653	4.6
276.026	4.6
276.399	4.62
276.772	4.62
277.145	4.62
277.518	4.64
277.891	4.64
278.263	4.61
278.636	4.62
279.009	4.61
279.382	4.62
279.755	4.63
280.127	4.63
280.5	4.64
280.872	4.65
281.245	4.65
281.617	4.67
281.99	4.68
282.362	4.67
282.735	4.67
283.107	4.68
283.479	4.69
283.852	4.71
284.224	4.69
284.596	4.68
284.968	4.7
285.34	4.72
285.713	4.72
286.085	4.74
286.457	4.74
286.829	4.72
287.201	4.74
287.572	4.76
287.944	4.77
288.316	4.77
288.688	4.76
289.06	4.77
289.431	4.79
289.803	4.81
290.175	4.83
290.546	4.85
290.918	4.86
291.289	4.89
291.661	4.89
292.032	4.9
292.403	4.91
292.775	4.93
293.146	4.96
293.517	4.98
293.889	5
294.26	5.03
294.631	5.07
295.002	5.1
295.373	5.13
295.744	5.14
296.115	5.15
296.486	5.19
296.857	5.2
297.228	5.21
297.599	5.24
297.97	5.26
298.34	5.26
298.711	5.29
299.082	5.29
299.452	5.32
299.823	5.36
300.194	5.38
300.564	5.4
300.935	5.44
301.305	5.47
301.676	5.51
302.046	5.54
302.416	5.57
302.787	5.58
303.157	5.6
303.527	5.63
303.897	5.67
304.267	5.72
304.637	5.74
305.008	5.79
305.378	5.82
305.748	5.85
306.117	5.89
306.487	5.95
306.857	6
307.227	6.04
307.597	6.08
307.967	6.11
308.336	6.14
308.706	6.16
309.076	6.17
309.445	6.2
309.815	6.23
310.184	6.24
310.554	6.26
310.923	6.3
311.293	6.33
311.662	6.35
312.031	6.38
312.401	6.42
312.77	6.45
313.139	6.5
313.508	6.55
313.877	6.58
314.246	6.62
314.616	6.67
314.985	6.7
315.353	6.73
315.722	6.75
316.091	6.77
316.46	6.78
316.829	6.81
317.198	6.85
317.567	6.89
317.935	6.94
318.304	6.98
318.672	7
319.041	7.05
319.41	7.08
319.778	7.12
320.147	7.12
320.515	7.15
320.883	7.17
321.252	7.2
321.62	7.2
321.988	7.22
322.357	7.24
322.725	7.26
323.093	7.29
323.461	7.3
323.829	7.33
324.197	7.35
324.565	7.38
324.933	7.41
325.301	7.42
325.669	7.46
326.037	7.49
326.405	7.51
326.772	7.53
327.14	7.55
327.508	7.57
327.875	7.57
328.243	7.57
328.61	7.58
328.978	7.6
329.346	7.61
329.713	7.63
330.08	7.65
330.448	7.65
330.815	7.67
331.182	7.7
331.55	7.72
331.917	7.74
332.284	7.74
332.651	7.75
333.018	7.78
333.385	7.8
333.752	7.82
334.119	7.84
334.486	7.86
334.853	7.89
335.22	7.92
335.587	7.94
335.954	7.97
336.32	7.99
336.687	7.99
337.054	8.01
337.42	8.03
337.787	8.05
338.153	8.08
338.52	8.09
338.886	8.11
339.253	8.12
339.619	8.14
339.986	8.14
340.352	8.16
340.718	8.16
341.084	8.16
341.451	8.17
341.817	8.17
342.183	8.19
342.549	8.2
342.915	8.22
343.281	8.25
343.647	8.26
344.013	8.28
344.379	8.28
344.745	8.28
345.11	8.3
345.476	8.32
345.842	8.33
346.208	8.33
346.573	8.33
346.939	8.33
347.304	8.33
347.67	8.34
348.035	8.34
348.401	8.35
348.766	8.36
349.132	8.35
349.497	8.35
349.862	8.35
350.228	8.35
350.593	8.35
350.958	8.35
351.323	8.34
351.688	8.36
352.053	8.35
352.418	8.35
352.783	8.33
353.148	8.31
353.513	8.32
353.878	8.31
354.243	8.31
354.608	8.29
354.972	8.29
355.337	8.27
355.702	8.28
356.066	8.26
356.431	8.25
356.795	8.24
357.16	8.22
357.524	8.22
357.889	8.2
358.253	8.18
358.618	8.16
358.982	8.14
359.346	8.13
359.71	8.11
360.075	8.09
360.439	8.07
360.803	8.06
361.167	8.05
361.531	8.03
361.895	8.02
362.259	7.99
362.623	7.96
362.987	7.94
363.351	7.92
363.714	7.9
364.078	7.87
364.442	7.84
364.806	7.82
365.169	7.79
365.533	7.76
365.896	7.74
366.26	7.71
366.623	7.68
366.987	7.65
367.35	7.63
367.714	7.6
368.077	7.58
368.44	7.54
368.803	7.51
369.167	7.47
369.53	7.43
369.893	7.39
370.256	7.35
370.619	7.31
370.982	7.27
371.345	7.24
371.708	7.2
372.071	7.17
372.434	7.13
372.797	7.1
373.159	7.06
373.522	7.03
373.885	6.99
374.247	6.95
374.61	6.91
374.973	6.87
375.335	6.84
375.698	6.78
376.06	6.74
376.423	6.71
376.785	6.67
377.147	6.63
377.51	6.6
377.872	6.57
378.234	6.53
378.596	6.49
378.958	6.46
379.321	6.42
379.683	6.38
380.045	6.34
380.407	6.31
380.769	6.27
381.13	6.24
381.492	6.21
381.854	6.17
382.216	6.13
382.578	6.09
382.939	6.06
383.301	6.03
383.663	6
384.024	5.97
384.386	5.94
384.747	5.91
385.109	5.88
385.47	5.85
385.832	5.83
386.193	5.8
386.554	5.77
386.916	5.74
387.277	5.71
387.638	5.68
387.999	5.66
388.36	5.63
388.721	5.61
389.082	5.59
389.443	5.57
389.804	5.54
390.165	5.52
390.526	5.5
390.887	5.48
391.248	5.45
391.609	5.43
391.969	5.41
392.33	5.39
392.691	5.37
393.051	5.35
393.412	5.33
393.772	5.31
394.133	5.28
394.493	5.26
394.854	5.24
395.214	5.22
395.574	5.2
395.935	5.18
396.295	5.16
396.655	5.14
397.015	5.11
397.376	5.09
397.736	5.07
398.096	5.05
398.456	5.03
398.816	5.01
399.176	4.99
399.535	4.97
399.895	4.95
400.255	4.93
400.615	4.91
400.975	4.89
401.334	4.88
401.694	4.86
402.054	4.84
402.413	4.82
402.773	4.8
403.132	4.79
403.492	4.77
403.851	4.76
404.211	4.75
404.57	4.74
404.929	4.72
405.288	4.71
405.648	4.7
406.007	4.7
406.366	4.68
406.725	4.67
407.084	4.66
407.443	4.65
407.802	4.64
408.161	4.63
408.52	4.62
408.879	4.62
409.238	4.61
409.596	4.61
409.955	4.6
410.314	4.59
410.673	4.58
411.031	4.59
411.39	4.58
411.748	4.58
412.107	4.58
412.465	4.58
412.824	4.6
413.182	4.61
413.54	4.63
413.899	4.65
414.257	4.68
414.615	4.72
414.974	4.74
415.332	4.77
415.69	4.81
416.048	4.83
416.406	4.87
416.764	4.9
417.122	4.92
417.48	4.95
417.838	4.98
418.195	5
418.553	5.01
418.911	5.02
419.269	5.03
419.626	5.02
419.984	5
420.342	4.99
420.699	4.96
421.057	4.94
421.414	4.92
421.772	4.9
422.129	4.88
422.486	4.87
422.844	4.87
423.201	4.86
423.558	4.85
423.915	4.85
424.273	4.84
424.63	4.84
424.987	4.83
425.344	4.83
425.701	4.82
426.058	4.81
426.415	4.81
426.772	4.8
427.128	4.79
427.485	4.78
427.842	4.76
428.199	4.74
428.555	4.72
428.912	4.69
429.269	4.65
429.625	4.63
429.982	4.59
430.338	4.56
430.695	4.53
431.051	4.49
431.407	4.46
431.764	4.44
432.12	4.42
432.476	4.4
432.832	4.39
433.189	4.39
433.545	4.39
433.901	4.4
434.257	4.42
434.613	4.45
434.969	4.47
435.325	4.5
435.681	4.54
436.036	4.56
436.392	4.59
436.748	4.6
437.104	4.61
437.459	4.64
437.815	4.65
438.171	4.68
438.526	4.7
438.882	4.73
439.237	4.77
439.593	4.81
439.948	4.84
440.304	4.88
440.659	4.9
441.014	4.93
441.369	4.96
441.725	4.97
442.08	4.99
442.435	5
442.79	5.01
443.145	5.01
443.5	5.01
443.855	5.01
444.21	5.01
444.565	5
444.92	4.99
445.275	4.98
445.629	4.97
445.984	4.96
446.339	4.95
446.693	4.93
447.048	4.91
447.403	4.89
447.757	4.86
448.112	4.84
448.466	4.81
448.82	4.79
449.175	4.76
449.529	4.74
449.883	4.71
450.238	4.68
450.592	4.68
450.946	4.66
451.3	4.66
451.654	4.67
452.008	4.66
452.362	4.67
452.716	4.67
453.07	4.66
453.424	4.65
453.778	4.64
454.132	4.63
454.486	4.62
454.839	4.6
455.193	4.58
455.547	4.56
455.9	4.53
456.254	4.51
456.607	4.48
456.961	4.45
457.314	4.42
457.668	4.42
458.021	4.41
458.375	4.41
458.728	4.41
459.081	4.41
459.434	4.42
459.787	4.43
460.141	4.44
460.494	4.45
460.847	4.46
461.2	4.47
461.553	4.47
461.906	4.48
462.259	4.49
462.611	4.49
462.964	4.5
463.317	4.51
463.67	4.52
464.022	4.53
464.375	4.54
464.728	4.55
465.08	4.55
465.433	4.56
465.785	4.56
466.138	4.55
466.49	4.53
466.843	4.52
467.195	4.5
467.547	4.48
467.899	4.46
468.252	4.44
468.604	4.41
468.956	4.4
469.308	4.38
469.66	4.38
470.012	4.38
470.364	4.39
470.716	4.4
471.068	4.42
471.42	4.44
471.772	4.47
472.123	4.48
472.475	4.49
472.827	4.51
473.178	4.52
473.53	4.53
473.882	4.55
474.233	4.58
474.585	4.62
474.936	4.69
475.288	4.79
475.639	4.91
475.99	5.05
476.342	5.21
476.693	5.39
477.044	5.56
477.395	5.74
477.746	5.92
478.097	6.11
478.448	6.29
478.8	6.48
479.15	6.65
479.501	6.8
479.852	6.95
480.203	7.09
480.554	7.22
480.905	7.34
481.255	7.46
481.606	7.57
481.957	7.67
482.307	7.77
482.658	7.87
483.009	7.96
483.359	8.04
483.709	8.13
484.06	8.21
484.41	8.29
484.761	8.36
485.111	8.44
485.461	8.51
485.811	8.58
486.162	8.64
486.512	8.69
486.862	8.73
487.212	8.76
487.562	8.78
487.912	8.79
488.262	8.79
488.612	8.79
488.961	8.77
489.311	8.72
489.661	8.65
490.011	8.56
490.36	8.44
490.71	8.31
491.06	8.18
491.409	8.03
491.759	7.88
492.108	7.72
492.458	7.55
492.807	7.38
493.157	7.21
493.506	7.05
493.855	6.9
494.204	6.75
494.554	6.61
494.903	6.49
495.252	6.37
495.601	6.26
495.95	6.15
496.299	6.05
496.648	5.96
496.997	5.88
497.346	5.8
497.695	5.73
498.043	5.66
498.392	5.59
498.741	5.53
499.09	5.47
499.438	5.42
499.787	5.38
500.135	5.34
500.484	5.3
500.832	5.29
501.181	5.28
501.529	5.3
501.878	5.32
502.226	5.36
502.574	5.4
502.923	5.44
503.271	5.49
503.619	5.54
503.967	5.6
504.315	5.65
504.663	5.7
505.011	5.76
505.359	5.82
505.707	5.88
506.055	5.94
506.403	6.02
506.751	6.09
507.098	6.16
507.446	6.24
507.794	6.33
508.141	6.42
508.489	6.51
508.837	6.62
509.184	6.72
509.531	6.82
509.879	6.92
510.226	7.05
510.574	7.17
510.921	7.3
511.268	7.44
511.616	7.58
511.963	7.72
512.31	7.87
512.657	8.01
513.004	8.16
513.351	8.3
513.698	8.43
514.045	8.55
514.392	8.67
514.739	8.78
515.086	8.89
515.432	9
515.779	9.1
516.126	9.21
516.473	9.33
516.819	9.46
517.166	9.61
517.512	9.77
517.859	9.94
518.205	10.13
518.552	10.33
518.898	10.55
519.245	10.81
519.591	11.11
519.937	11.47
520.283	11.89
520.629	12.35
520.976	12.83
521.322	13.34
521.668	13.86
522.014	14.38
522.36	14.91
522.706	15.42
523.052	15.93
523.398	16.4
523.743	16.84
524.089	17.25
524.435	17.62
524.781	17.99
525.126	18.35
525.472	18.71
525.817	19.06
526.163	19.41
526.509	19.75
526.854	20.09
527.199	20.42
527.545	20.76
527.89	21.12
528.235	21.46
528.581	21.8
528.926	22.11
529.271	22.41
529.616	22.7
529.961	22.98
530.306	23.25
530.651	23.5
530.996	23.74
531.341	23.95
531.686	24.15
532.031	24.34
532.376	24.55
532.721	24.78
533.065	25.04
533.41	25.3
533.755	25.55
534.099	25.77
534.444	25.96
534.788	26.14
535.133	26.3
535.477	26.45
535.822	26.57
536.166	26.66
536.51	26.71
536.855	26.72
537.199	26.7
537.543	26.69
537.887	26.7
538.231	26.74
538.576	26.78
538.92	26.81
539.264	26.83
539.608	26.83
539.951	26.82
540.295	26.8
540.639	26.77
540.983	26.73
541.327	26.67
541.671	26.59
542.014	26.55
542.358	26.51
542.701	26.54
543.045	26.61
543.389	26.71
543.732	26.83
544.075	26.95
544.419	27.1
544.762	27.25
545.105	27.41
545.449	27.58
545.792	27.76
546.135	27.94
546.478	28.09
546.821	28.19
547.165	28.25
547.508	28.28
547.851	28.26
548.194	28.21
548.536	28.12
548.879	28.01
549.222	27.89
549.565	27.75
549.908	27.63
550.25	27.52
550.593	27.46
550.936	27.46
551.278	27.51
551.621	27.58
551.963	27.67
552.306	27.77
552.648	27.9
552.991	28.06
553.333	28.23
553.675	28.43
554.017	28.67
554.36	28.92
554.702	29.2
555.044	29.5
555.386	29.85
555.728	30.24
556.07	30.56
556.412	30.9
556.754	31.18
557.096	31.41
557.438	31.64
557.78	31.87
558.121	32.11
558.463	32.35
558.805	32.59
559.147	32.82
559.488	33.06
559.83	33.3
560.171	33.53
560.513	33.76
560.854	33.99
561.196	34.22
561.537	34.45
561.878	34.67
562.22	34.88
562.561	35.09
562.902	35.3
563.243	35.51
563.584	35.72
563.925	35.92
564.266	36.13
564.607	36.34
564.948	36.53
565.289	36.73
565.63	36.92
565.971	37.12
566.312	37.32
566.653	37.5
566.993	37.68
567.334	37.86
567.675	38.04
568.015	38.21
568.356	38.37
568.696	38.53
569.037	38.69
569.377	38.84
569.718	38.99
570.058	39.13
570.398	39.28
570.739	39.41
571.079	39.55
571.419	39.69
571.759	39.83
572.099	39.95
572.439	40.07
572.779	40.19
573.119	40.31
573.459	40.43
573.799	40.54
574.139	40.66
574.479	40.77
574.819	40.89
575.158	41
575.498	41.11
575.838	41.21
576.177	41.32
576.517	41.42
576.856	41.53
577.196	41.63
577.535	41.73
577.875	41.83
578.214	41.93
578.553	42.03
578.893	42.12
579.232	42.22
579.571	42.31
579.91	42.41
580.25	42.5
580.589	42.6
580.928	42.71
581.267	42.81
581.606	42.91
581.945	43.01
582.283	43.12
582.622	43.23
582.961	43.33
583.3	43.44
583.639	43.54
583.977	43.65
584.316	43.75
584.654	43.84
584.993	43.93
585.332	44.03
585.67	44.12
586.008	44.22
586.347	44.32
586.685	44.4
587.024	44.5
587.362	44.6
587.7	44.71
588.038	44.81
588.376	44.92
588.715	45.02
589.053	45.13
589.391	45.25
589.729	45.35
590.067	45.46
590.404	45.56
590.742	45.64
591.08	45.75
591.418	45.84
591.756	45.93
592.093	46.01
592.431	46.08
592.769	46.16
593.106	46.23
593.444	46.3
593.781	46.38
594.119	46.45
594.456	46.52
594.793	46.59
595.131	46.66
595.468	46.72
595.805	46.8
596.143	46.88
596.48	46.96
596.817	47.04
597.154	47.12
597.491	47.21
597.828	47.28
598.165	47.36
598.502	47.44
598.839	47.52
599.176	47.58
599.512	47.64
599.849	47.71
600.186	47.76
600.523	47.82
600.859	47.88
601.196	47.94
601.532	48
601.869	48.05
602.205	48.11
602.542	48.15
602.878	48.2
603.215	48.24
603.551	48.29
603.887	48.34
604.223	48.38
604.56	48.43
604.896	48.46
605.232	48.5
605.568	48.54
605.904	48.57
606.24	48.6
606.576	48.64
606.912	48.68
607.248	48.72
607.583	48.74
607.919	48.77
608.255	48.81
608.591	48.84
608.926	48.86
609.262	48.89
609.597	48.91
609.933	48.94
610.268	48.95
610.604	48.97
610.939	48.98
611.275	49
611.61	49.02
611.945	49.05
612.281	49.06
612.616	49.09
612.951	49.11
613.286	49.14
613.621	49.16
613.956	49.19
614.291	49.21
614.626	49.25
614.961	49.26
615.296	49.27
615.631	49.29
615.966	49.3
616.3	49.32
616.635	49.34
616.97	49.36
617.304	49.38
617.639	49.4
617.973	49.44
618.308	49.47
618.642	49.5
618.977	49.53
619.311	49.57
619.646	49.61
619.98	49.67
620.314	49.7
620.648	49.73
620.983	49.77
621.317	49.82
621.651	49.85
621.985	49.88
622.319	49.91
622.653	49.96
622.987	50
623.321	50.03
623.655	50.04
623.988	50.08
624.322	50.11
624.656	50.13
624.99	50.15
625.323	50.18
625.657	50.2
625.99	50.22
626.324	50.24
626.657	50.26
626.991	50.28
627.324	50.3
627.658	50.33
627.991	50.36
628.324	50.37
628.657	50.41
628.991	50.44
629.324	50.46
629.657	50.47
629.99	50.5
630.323	50.53
630.656	50.54
630.989	50.56
631.322	50.58
631.655	50.59
631.987	50.61
632.32	50.63
632.653	50.64
632.986	50.66
633.318	50.68
633.651	50.69
633.984	50.7
634.316	50.72
634.649	50.74
634.981	50.75
635.313	50.77
635.646	50.79
635.978	50.81
636.31	50.82
636.643	50.84
636.975	50.86
637.307	50.88
637.639	50.9
637.971	50.92
638.303	50.93
638.635	50.95
638.967	50.97
639.299	50.98
639.631	51.01
639.963	51.04
640.295	51.08
640.626	51.09
640.958	51.11
641.29	51.14
641.621	51.17
641.953	51.19
642.285	51.2
642.616	51.21
642.948	51.23
643.279	51.26
643.61	51.28
643.942	51.29
644.273	51.33
644.604	51.34
644.936	51.36
645.267	51.39
645.598	51.41
645.929	51.44
646.26	51.48
646.591	51.5
646.922	51.51
647.253	51.53
647.584	51.58
647.915	51.6
648.245	51.63
648.576	51.65
648.907	51.67
649.238	51.68
649.568	51.69
649.899	51.7
650.229	51.73
650.56	51.74
650.89	51.76
651.221	51.78
651.551	51.81
651.882	51.84
652.212	51.88
652.542	51.89
652.872	51.92
653.203	51.94
653.533	51.96
653.863	51.98
654.193	52.01
654.523	52.03
654.853	52.04
655.183	52.04
655.513	52.06
655.843	52.08
656.172	52.09
656.502	52.11
656.832	52.14
657.162	52.16
657.491	52.18
657.821	52.2
658.15	52.24
658.48	52.26
658.809	52.27
659.139	52.27
659.468	52.29
659.798	52.3
660.127	52.3
660.456	52.32
660.785	52.32
661.115	52.32
661.444	52.34
661.773	52.35
662.102	52.36
662.431	52.38
662.76	52.39
663.089	52.41
663.418	52.42
663.747	52.43
664.076	52.46
664.404	52.48
664.733	52.49
665.062	52.5
665.39	52.52
665.719	52.52
666.048	52.54
666.376	52.56
666.705	52.55
667.033	52.55
667.362	52.57
667.69	52.6
668.018	52.62
668.347	52.65
668.675	52.68
669.003	52.69
669.331	52.72
669.659	52.75
669.987	52.77
670.315	52.77
670.643	52.8
670.971	52.81
671.299	52.82
671.627	52.84
671.955	52.86
672.283	52.9
672.61	52.92
672.938	52.94
673.266	52.96
673.593	52.98
673.921	53
674.249	53.03
674.576	53.05
674.904	53.05
675.231	53.09
675.558	53.11
675.886	53.14
676.213	53.17
676.54	53.2
676.867	53.23
677.195	53.25
677.522	53.27
677.849	53.29
678.176	53.31
678.503	53.33
678.83	53.35
679.157	53.39
679.484	53.41
679.81	53.43
680.137	53.46
680.464	53.49
680.791	53.52
681.117	53.52
681.444	53.54
681.771	53.55
682.097	53.56
682.424	53.57
682.75	53.59
683.077	53.6
683.403	53.6
683.729	53.61
684.056	53.63
684.382	53.65
684.708	53.67
685.034	53.66
685.36	53.69
685.686	53.69
686.012	53.71
686.339	53.72
686.664	53.73
686.99	53.76
687.316	53.8
687.642	53.81
687.968	53.84
688.294	53.88
688.619	53.88
688.945	53.91
689.271	53.92
689.596	53.94
689.922	53.96
690.247	53.98
690.573	54
690.898	54
691.224	54.03
691.549	54.06
691.874	54.07
692.2	54.1
692.525	54.1
692.85	54.13
693.175	54.13
693.5	54.16
693.825	54.18
694.15	54.18
694.475	54.19
694.8	54.2
695.125	54.22
695.45	54.26
695.775	54.28
696.099	54.3
696.424	54.31
696.749	54.34
697.073	54.36
697.398	54.38
697.723	54.4
698.047	54.42
698.372	54.46
698.696	54.45
699.02	54.46
699.345	54.48
699.669	54.5
699.993	54.52
700.318	54.54
700.642	54.53
700.966	54.55
701.29	54.56
701.614	54.55
701.938	54.57
702.262	54.58
702.586	54.59
702.91	54.58
703.234	54.6
703.557	54.61
703.881	54.62
704.205	54.64
704.529	54.66
704.852	54.69
705.176	54.72
705.499	54.71
705.823	54.73
706.146	54.72
706.47	54.76
706.793	54.77
707.117	54.77
707.44	54.81
707.763	54.84
708.086	54.87
708.409	54.87
708.733	54.88
709.056	54.9
709.379	54.9
709.702	54.92
710.025	54.94
710.348	54.95
710.671	54.96
710.993	54.98
711.316	55
711.639	55
711.962	55.02
712.284	55.04
712.607	55.06
712.93	55.08
713.252	55.1
713.575	55.11
713.897	55.13
714.22	55.16
714.542	55.17
714.864	55.14
715.187	55.16
715.509	55.19
715.831	55.22
716.153	55.26
716.475	55.28
716.798	55.3
717.12	55.32
717.442	55.34
717.764	55.34
718.085	55.32
718.407	55.31
718.729	55.33
719.051	55.36
719.373	55.38
719.695	55.41
720.016	55.43
720.338	55.44
720.659	55.47
720.981	55.51
721.302	55.51
721.624	55.53
721.945	55.51
722.267	55.53
722.588	55.55
722.909	55.56
723.231	55.57
723.552	55.58
723.873	55.59
724.194	55.63
724.515	55.67
724.836	55.72
725.157	55.72
725.478	55.75
725.799	55.75
726.12	55.77
726.441	55.76
726.762	55.78
727.083	55.79
727.403	55.78
727.724	55.8
728.045	55.85
728.365	55.86
728.686	55.84
729.006	55.85
729.327	55.87
729.647	55.86
729.967	55.86
730.288	55.87
730.608	55.89
730.928	55.88
731.249	55.9
731.569	55.9
731.889	55.94
732.209	55.95
732.529	55.95
732.849	55.95
733.169	55.95
733.489	55.96
733.809	55.97
734.129	55.94
734.448	55.99
734.768	55.99
735.088	56.03
735.408	56.03
735.727	56.05
736.047	56.04
736.366	56.04
736.686	56.06
737.005	56.07
737.325	56.06
737.644	56.04
737.963	56.03
738.283	56.04
738.602	56.03
738.921	56.03
739.24	56.03
739.56	56.05
739.879	56.03
740.198	56.06
740.517	56.07
740.836	56.06
741.155	56.1
741.473	56.07
741.792	56.08
742.111	56.1
742.43	56.06
742.748	56.07
743.067	56.1
743.386	56.1
743.704	56.09
744.023	56.12
744.341	56.15
744.66	56.18
744.978	56.16
745.297	56.13
745.615	56.15
745.933	56.13
746.252	56.17
746.57	56.18
746.888	56.15
747.206	56.14
747.524	56.14
747.842	56.13
748.16	56.12
748.478	56.13
748.796	56.14
749.114	56.17
749.432	56.17
749.749	56.16
750.067	56.17
750.385	56.2
750.703	56.18
751.02	56.19
751.338	56.2
751.655	56.25
751.973	56.23
752.29	56.21
752.608	56.21
752.925	56.2
753.242	56.2
753.56	56.22
753.877	56.27
754.194	56.25
754.511	56.28
754.828	56.28
755.145	56.29
755.462	56.31
755.779	56.32
756.096	56.33
756.413	56.35
756.73	56.37
757.047	56.43
757.364	56.43
757.68	56.44
757.997	56.46
758.314	56.5
758.63	56.52
758.947	56.59
759.264	56.58
759.58	56.59
759.896	56.61
760.213	56.66
760.529	56.65
760.846	56.68
761.162	56.74
761.478	56.78
761.794	56.8
762.11	56.85
762.426	56.86
762.743	56.91
763.059	56.9
763.375	56.88
763.69	56.9
764.006	56.89
764.322	56.9
764.638	56.9
764.954	56.92
765.27	56.94
765.585	56.96
765.901	56.98
766.216	57
766.532	56.99
766.848	56.99
767.163	56.99
767.478	57.01
767.794	57.05
768.109	57.05
768.424	57.07
768.74	57.05
769.055	57.06
769.37	57.1
769.685	57.08
770	57.07
770.315	57.08
770.63	57.1
770.945	57.09
771.26	57.08
771.575	57.08
771.89	57.05
772.205	57.07
772.52	57.09
772.834	57.1
773.149	57.08
773.464	57.13
773.778	57.11
774.093	57.08
774.407	57.04
774.722	57
775.036	56.96
775.351	56.98
775.665	56.95
775.979	56.99
776.293	56.97
776.608	57.03
776.922	57.04
777.236	57.05
777.55	57.04
777.864	57.05
778.178	57.07
778.492	57.07
778.806	57.07
779.12	57.03
779.434	57.01
779.747	57.02
780.061	57.03
780.375	57.01
780.689	56.98
781.002	56.98
781.316	56.96
781.629	56.99
781.943	57
782.256	56.96
782.57	56.99
782.883	56.94
783.196	56.98
783.51	56.98
783.823	56.99
784.136	56.97
784.449	57
784.762	57
785.075	57.05
785.388	57.05
785.701	57.04
786.014	57.04
786.327	57.03
786.64	57.07
786.953	57.04
787.266	57.04
787.578	57.07
787.891	57.06
788.204	57.06
788.516	57.1
788.829	57.09
789.141	57.08
789.454	57.03
789.766	57.09
790.079	57.07
790.391	57.04
790.703	57.07
791.016	57.1
791.328	57.09
791.64	57.12
791.952	57.16
792.264	57.21
792.576	57.21
792.888	57.19
793.2	57.24
793.512	57.27
793.824	57.26
794.136	57.22
794.448	57.21
794.76	57.27
795.071	57.28
795.383	57.29
795.695	57.29
796.006	57.26
796.318	57.23
796.629	57.26
796.941	57.26
797.252	57.24
797.564	57.24
797.875	57.19
798.186	57.24
798.497	57.21
798.809	57.23
799.12	57.22
799.431	57.2
799.742	57.18
800.053	57.21
800.364	57.32
800.675	57.36
800.986	57.34
801.297	57.32
801.608	57.37
801.918	57.41
802.229	57.42
802.54	57.37
802.851	57.41
803.161	57.45
803.472	57.47
803.782	57.42
804.093	57.48
804.403	57.49
804.714	57.5
805.024	57.43
805.334	57.42
805.645	57.5
805.955	57.49
806.265	57.48
806.575	57.5
806.885	57.51
807.195	57.51
807.505	57.47
807.815	57.46
808.125	57.47
808.435	57.51
808.745	57.53
809.055	57.52
809.365	57.51
809.674	57.53
809.984	57.51
810.294	57.53
810.603	57.5
810.913	57.51
811.222	57.58
811.532	57.54
811.841	57.58
812.151	57.65
812.46	57.63
812.769	57.62
813.079	57.5
813.388	57.43
813.697	57.44
814.006	57.49
814.315	57.44
814.624	57.45
814.933	57.5
815.242	57.47
815.551	57.46
815.86	57.5
816.169	57.54
816.478	57.59
816.786	57.54
817.095	57.56
817.404	57.53
817.712	57.61
818.021	57.62
818.33	57.59
818.638	57.63
818.947	57.66
819.255	57.68
819.563	57.69
819.872	57.73
820.18	57.78
820.488	57.8
820.796	57.82
821.105	57.83
821.413	57.84
821.721	57.87
822.029	57.87
822.337	57.87
822.645	57.9
822.953	57.9
823.26	57.93
823.568	57.94
823.876	57.96
824.184	57.95
824.491	57.94
824.799	57.93
825.107	57.95
825.414	57.96
825.722	57.98
826.029	57.99
826.337	58
826.644	58
826.951	58
827.259	58.01
827.566	58
827.873	58.01
828.18	58.02
828.488	58.02
828.795	58.04
829.102	58.04
829.409	58.04
829.716	58.06
830.023	58.08
830.329	58.08
830.636	58.11
830.943	58.12
831.25	58.11
831.557	58.12
831.863	58.13
832.17	58.15
832.476	58.12
832.783	58.07
833.089	58.05
833.396	58.01
833.702	58.01
834.009	58.02
834.315	58.01
834.621	58.02
834.928	58.05
835.234	58.01
835.54	58.04
835.846	58.02
836.152	57.95
836.458	57.89
836.764	57.98
837.07	57.98
837.376	57.96
837.682	57.99
837.988	57.98
838.293	57.95
838.599	57.93
838.905	57.91
839.211	57.86
839.516	57.85
839.822	57.84
840.127	57.85
840.433	57.93
840.738	57.93
841.044	57.9
841.349	57.8
841.654	57.79
841.959	57.91
842.265	57.85
842.57	57.88
842.875	57.89
843.18	57.94
843.485	58.04
843.79	58.02
844.095	57.93
844.4	57.95
844.705	57.99
845.01	58.01
845.315	58.02
845.619	58.05
845.924	58.2
846.229	58.25
846.533	58.28
846.838	58.3
847.142	58.24
847.447	58.24
847.751	58.27
848.056	58.17
848.36	58.14
848.664	58.34
848.969	58.27
849.273	58.15
849.577	58.23
849.881	58.37
850.185	58.25
850.489	58.19
850.794	58.27
851.097	58.31
851.401	58.24
851.705	58.44
852.009	58.63
852.313	58.69
852.617	58.64
852.92	58.56
853.224	58.49
853.528	58.61
853.831	58.64
854.135	58.69
854.438	58.54
854.742	58.45
855.045	58.41
855.349	58.34
855.652	58.25
855.955	58.34
856.259	58.44
856.562	58.53
856.865	58.49
857.168	58.48
857.471	58.49
857.774	58.52
858.077	58.61
858.38	58.52
858.683	58.54
858.986	58.45
859.289	58.41
859.592	58.52
859.894	58.48
860.197	58.34
860.5	58.4
860.802	58.35
861.105	58.28
861.407	58.28
861.71	58.26
862.012	58.14
862.315	58.03
862.617	57.99
862.919	58.23
863.222	58.14
863.524	58.19
863.826	58.35
864.128	58.13
864.43	57.9
864.732	57.68
865.034	57.8
865.336	57.74
865.638	57.81
865.94	57.62
866.242	57.55
866.544	57.65
866.846	57.72
867.147	57.86
867.449	57.94
867.751	57.83
868.052	57.86
868.354	57.81
868.655	57.69
868.957	57.61
869.258	57.64
869.56	57.71
869.861	57.86
870.162	57.79
870.463	57.58
870.765	57.48
871.066	57.39
871.367	57.45
871.668	57.54
871.969	57.42
872.27	57.51
872.571	57.66
872.872	57.62
873.173	57.75
873.473	57.72
873.774	57.78
874.075	57.8
874.376	57.92
874.676	57.93
874.977	58.08
875.277	57.86
875.578	57.91
875.878	57.89
876.179	57.83
876.479	57.91
876.78	58
877.08	58.27
877.38	58.08
877.68	58.14
877.981	58.01
878.281	58.17
878.581	58.38
