Data from UWBM59058_Reflection_00004.txt Node
Date: Sun May 02 12:58:03 EDT 2021
User: vgr7
Spectrometer: USB2G7710
Scans to average: 10
Trigger mode: 4
Integration Time (sec): 1.000000E-1
Electric dark correction enabled: true
Boxcar width: 20
XAxis mode: Wavelengths
Number of Pixels in Spectrum: 2048
>>>>>Begin Spectral Data<<<<<
177.721	101.41
178.105	100.9
178.488	100.36
178.871	100.64
179.254	100.66
179.636	97.81
180.019	96.69
180.402	95.25
180.785	92.93
181.168	90.83
181.55	89.54
181.933	111.69
182.316	112.61
182.698	114.27
183.081	115.17
183.463	116.93
183.846	118.38
184.228	119.98
184.611	122.62
184.993	125.9
185.376	129.63
185.758	-109.54
186.14	-51.91
186.522	-10.6
186.904	1.09
187.287	12.67
187.669	17.84
188.051	19.61
188.433	23.48
188.815	17.68
189.197	17.71
189.579	16.28
189.961	14.82
190.342	12.74
190.724	14.57
191.106	14.67
191.488	15.38
191.869	8.66
192.251	8.28
192.633	4.79
193.014	2.28
193.396	1.08
193.777	9.4
194.159	9.67
194.54	7.81
194.922	7.15
195.303	9.8
195.684	10.34
196.065	10.52
196.447	8.59
196.828	7.92
197.209	9.65
197.59	2.07
197.971	-0.09
198.352	0.48
198.733	3.07
199.114	2.66
199.495	2.81
199.876	3.99
200.257	4.91
200.638	5.16
201.018	-0.13
201.399	-1.33
201.78	-3.06
202.16	-4.76
202.541	-3.86
202.922	-3.81
203.302	-6.59
203.683	-6
204.063	-6.28
204.444	-4.49
204.824	-2.94
205.204	-1.28
205.585	7.94
205.965	7.55
206.345	8.23
206.725	2.87
207.106	2.96
207.486	4.6
207.866	5.09
208.246	4.94
208.626	8.53
209.006	13.51
209.386	7.96
209.766	8.13
210.145	8.13
210.525	7.57
210.905	8
211.285	10.05
211.664	9.63
212.044	11.27
212.424	10.48
212.803	3.77
213.183	4.22
213.562	5.04
213.942	4.56
214.321	1.83
214.701	1.8
215.08	3.06
215.459	1.91
215.838	0.49
216.218	0.61
216.597	-0.71
216.976	-3.92
217.355	-3.11
217.734	-2.71
218.113	-1.93
218.492	-0.13
218.871	0.93
219.25	0.57
219.629	0.39
220.008	-0.56
220.387	-0.52
220.766	-0.04
221.144	-1.31
221.523	0.69
221.902	2.45
222.28	4.04
222.659	5.56
223.037	4.86
223.416	6.09
223.794	6.94
224.173	6.64
224.551	6.84
224.929	7.37
225.308	8.56
225.686	8.34
226.064	8.53
226.442	9.03
226.821	8.21
227.199	7.99
227.577	6.93
227.955	6.26
228.333	6.49
228.711	6.97
229.089	7.18
229.467	6.87
229.845	7.46
230.222	7.18
230.6	7.33
230.978	7.29
231.356	6.86
231.733	6.62
232.111	6.69
232.488	6.49
232.866	6.6
233.243	6.15
233.621	6.12
233.998	5.75
234.376	5.84
234.753	6.03
235.13	6.08
235.508	6.74
235.885	6.86
236.262	6.86
236.639	7
237.016	7.01
237.393	6.95
237.77	6.77
238.147	6.69
238.524	6.79
238.901	6.68
239.278	6.72
239.655	6.67
240.032	6.56
240.409	6.62
240.785	6.53
241.162	6.6
241.539	6.55
241.915	6.53
242.292	6.51
242.668	6.45
243.045	6.43
243.421	6.37
243.798	6.33
244.174	6.32
244.551	6.26
244.927	6.08
245.303	6.04
245.679	6.07
246.056	6.02
246.432	6
246.808	5.79
247.184	5.82
247.56	5.79
247.936	5.81
248.312	5.76
248.688	5.81
249.064	5.77
249.44	5.74
249.815	5.73
250.191	5.65
250.567	5.63
250.943	5.7
251.318	5.7
251.694	5.63
252.069	5.56
252.445	5.51
252.82	5.58
253.196	5.54
253.571	5.5
253.947	5.57
254.322	5.56
254.697	5.67
255.073	5.66
255.448	5.66
255.823	5.61
256.198	5.54
256.573	5.33
256.948	5.32
257.323	5.29
257.698	5.23
258.073	5.2
258.448	5.08
258.823	5.04
259.198	5.03
259.573	5.04
259.948	5.08
260.322	5.03
260.697	5.02
261.072	5.03
261.446	5.01
261.821	4.98
262.195	4.94
262.57	4.89
262.944	4.89
263.319	4.87
263.693	4.91
264.067	4.92
264.442	5.04
264.816	5.04
265.19	5.02
265.564	5.08
265.938	5.04
266.313	5.1
266.687	5.03
267.061	5.05
267.435	5.05
267.809	5.05
268.183	5.04
268.556	5.07
268.93	5.06
269.304	5.05
269.678	5.01
270.051	4.98
270.425	4.98
270.799	4.98
271.172	4.97
271.546	5
271.919	5.01
272.293	4.98
272.666	4.99
273.04	4.98
273.413	4.93
273.787	4.93
274.16	4.94
274.533	4.97
274.906	4.93
275.279	4.95
275.653	4.93
276.026	4.9
276.399	4.84
276.772	4.84
277.145	4.87
277.518	4.88
277.891	4.91
278.263	4.91
278.636	4.9
279.009	4.94
279.382	4.91
279.755	4.83
280.127	4.83
280.5	4.83
280.872	4.81
281.245	4.93
281.617	4.92
281.99	4.96
282.362	4.98
282.735	4.95
283.107	4.95
283.479	4.95
283.852	4.97
284.224	4.99
284.596	4.96
284.968	4.84
285.34	4.83
285.713	4.8
286.085	4.71
286.457	4.71
286.829	4.68
287.201	4.68
287.572	4.74
287.944	4.74
288.316	4.78
288.688	4.81
289.06	4.8
289.431	4.8
289.803	4.79
290.175	4.8
290.546	4.8
290.918	4.81
291.289	4.78
291.661	4.8
292.032	4.75
292.403	4.77
292.775	4.84
293.146	4.83
293.517	4.87
293.889	4.95
294.26	4.92
294.631	4.95
295.002	4.99
295.373	5.02
295.744	5
296.115	4.98
296.486	4.91
296.857	4.92
297.228	4.91
297.599	4.9
297.97	4.88
298.34	4.88
298.711	4.82
299.082	4.81
299.452	4.83
299.823	4.86
300.194	4.85
300.564	4.83
300.935	4.82
301.305	4.81
301.676	4.79
302.046	4.79
302.416	4.78
302.787	4.77
303.157	4.69
303.527	4.69
303.897	4.68
304.267	4.68
304.637	4.68
305.008	4.7
305.378	4.7
305.748	4.68
306.117	4.74
306.487	4.81
306.857	4.85
307.227	4.84
307.597	4.82
307.967	4.83
308.336	4.83
308.706	4.84
309.076	4.82
309.445	4.8
309.815	4.68
310.184	4.65
310.554	4.59
310.923	4.63
311.293	4.64
311.662	4.63
312.031	4.61
312.401	4.6
312.77	4.56
313.139	4.56
313.508	4.57
313.877	4.51
314.246	4.48
314.616	4.45
314.985	4.38
315.353	4.39
315.722	4.4
316.091	4.4
316.46	4.39
316.829	4.41
317.198	4.43
317.567	4.56
317.935	4.58
318.304	4.63
318.672	4.66
319.041	4.65
319.41	4.67
319.778	4.68
320.147	4.68
320.515	4.68
320.883	4.67
321.252	4.59
321.62	4.61
321.988	4.61
322.357	4.6
322.725	4.68
323.093	4.69
323.461	4.68
323.829	4.68
324.197	4.67
324.565	4.66
324.933	4.67
325.301	4.67
325.669	4.67
326.037	4.68
326.405	4.64
326.772	4.63
327.14	4.62
327.508	4.6
327.875	4.6
328.243	4.61
328.61	4.57
328.978	4.58
329.346	4.57
329.713	4.56
330.08	4.57
330.448	4.56
330.815	4.53
331.182	4.54
331.55	4.53
331.917	4.53
332.284	4.52
332.651	4.54
333.018	4.52
333.385	4.52
333.752	4.53
334.119	4.54
334.486	4.54
334.853	4.52
335.22	4.52
335.587	4.51
335.954	4.52
336.32	4.54
336.687	4.54
337.054	4.52
337.42	4.55
337.787	4.54
338.153	4.55
338.52	4.57
338.886	4.6
339.253	4.59
339.619	4.58
339.986	4.55
340.352	4.55
340.718	4.56
341.084	4.56
341.451	4.55
341.817	4.54
342.183	4.52
342.549	4.54
342.915	4.54
343.281	4.55
343.647	4.56
344.013	4.59
344.379	4.6
344.745	4.6
345.11	4.6
345.476	4.62
345.842	4.64
346.208	4.61
346.573	4.61
346.939	4.63
347.304	4.63
347.67	4.63
348.035	4.66
348.401	4.64
348.766	4.65
349.132	4.65
349.497	4.68
349.862	4.68
350.228	4.7
350.593	4.7
350.958	4.69
351.323	4.68
351.688	4.69
352.053	4.68
352.418	4.67
352.783	4.67
353.148	4.66
353.513	4.66
353.878	4.67
354.243	4.67
354.608	4.67
354.972	4.67
355.337	4.67
355.702	4.65
356.066	4.66
356.431	4.65
356.795	4.65
357.16	4.63
357.524	4.63
357.889	4.63
358.253	4.63
358.618	4.64
358.982	4.65
359.346	4.65
359.71	4.64
360.075	4.64
360.439	4.64
360.803	4.63
361.167	4.62
361.531	4.64
361.895	4.65
362.259	4.63
362.623	4.63
362.987	4.62
363.351	4.63
363.714	4.64
364.078	4.63
364.442	4.62
364.806	4.64
365.169	4.62
365.533	4.62
365.896	4.61
366.26	4.61
366.623	4.6
366.987	4.61
367.35	4.62
367.714	4.62
368.077	4.63
368.44	4.62
368.803	4.62
369.167	4.62
369.53	4.63
369.893	4.64
370.256	4.64
370.619	4.66
370.982	4.66
371.345	4.65
371.708	4.66
372.071	4.67
372.434	4.67
372.797	4.69
373.159	4.7
373.522	4.7
373.885	4.7
374.247	4.69
374.61	4.69
374.973	4.68
375.335	4.68
375.698	4.68
376.06	4.68
376.423	4.68
376.785	4.68
377.147	4.68
377.51	4.68
377.872	4.68
378.234	4.68
378.596	4.69
378.958	4.7
379.321	4.71
379.683	4.71
380.045	4.7
380.407	4.7
380.769	4.69
381.13	4.7
381.492	4.71
381.854	4.71
382.216	4.71
382.578	4.71
382.939	4.71
383.301	4.71
383.663	4.71
384.024	4.7
384.386	4.7
384.747	4.69
385.109	4.68
385.47	4.68
385.832	4.68
386.193	4.67
386.554	4.67
386.916	4.67
387.277	4.67
387.638	4.68
387.999	4.67
388.36	4.68
388.721	4.68
389.082	4.67
389.443	4.68
389.804	4.68
390.165	4.69
390.526	4.69
390.887	4.69
391.248	4.67
391.609	4.68
391.969	4.68
392.33	4.69
392.691	4.69
393.051	4.69
393.412	4.68
393.772	4.68
394.133	4.69
394.493	4.68
394.854	4.69
395.214	4.68
395.574	4.68
395.935	4.67
396.295	4.66
396.655	4.67
397.015	4.67
397.376	4.66
397.736	4.67
398.096	4.67
398.456	4.67
398.816	4.69
399.176	4.68
399.535	4.69
399.895	4.7
400.255	4.69
400.615	4.7
400.975	4.71
401.334	4.71
401.694	4.71
402.054	4.71
402.413	4.69
402.773	4.7
403.132	4.71
403.492	4.71
403.851	4.71
404.211	4.71
404.57	4.72
404.929	4.73
405.288	4.73
405.648	4.74
406.007	4.74
406.366	4.75
406.725	4.75
407.084	4.75
407.443	4.76
407.802	4.75
408.161	4.74
408.52	4.74
408.879	4.75
409.238	4.75
409.596	4.75
409.955	4.77
410.314	4.77
410.673	4.77
411.031	4.78
411.39	4.79
411.748	4.81
412.107	4.82
412.465	4.83
412.824	4.86
413.182	4.88
413.54	4.92
413.899	4.94
414.257	4.98
414.615	5.03
414.974	5.07
415.332	5.12
415.69	5.17
416.048	5.2
416.406	5.25
416.764	5.29
417.122	5.33
417.48	5.37
417.838	5.41
418.195	5.44
418.553	5.46
418.911	5.48
419.269	5.49
419.626	5.49
419.984	5.48
420.342	5.46
420.699	5.45
421.057	5.43
421.414	5.41
421.772	5.4
422.129	5.39
422.486	5.39
422.844	5.39
423.201	5.39
423.558	5.39
423.915	5.39
424.273	5.39
424.63	5.4
424.987	5.4
425.344	5.4
425.701	5.4
426.058	5.41
426.415	5.41
426.772	5.4
427.128	5.4
427.485	5.39
427.842	5.38
428.199	5.36
428.555	5.35
428.912	5.32
429.269	5.29
429.625	5.27
429.982	5.24
430.338	5.21
430.695	5.18
431.051	5.14
431.407	5.12
431.764	5.1
432.12	5.07
432.476	5.06
432.832	5.05
433.189	5.06
433.545	5.06
433.901	5.08
434.257	5.11
434.613	5.14
434.969	5.17
435.325	5.2
435.681	5.26
436.036	5.27
436.392	5.3
436.748	5.31
437.104	5.31
437.459	5.33
437.815	5.35
438.171	5.38
438.526	5.41
438.882	5.45
439.237	5.49
439.593	5.53
439.948	5.56
440.304	5.61
440.659	5.64
441.014	5.66
441.369	5.69
441.725	5.71
442.08	5.74
442.435	5.75
442.79	5.76
443.145	5.76
443.5	5.76
443.855	5.77
444.21	5.77
444.565	5.76
444.92	5.75
445.275	5.74
445.629	5.73
445.984	5.73
446.339	5.72
446.693	5.71
447.048	5.69
447.403	5.68
447.757	5.65
448.112	5.63
448.466	5.6
448.82	5.58
449.175	5.55
449.529	5.54
449.883	5.52
450.238	5.49
450.592	5.49
450.946	5.48
451.3	5.48
451.654	5.5
452.008	5.5
452.362	5.51
452.716	5.51
453.07	5.51
453.424	5.51
453.778	5.5
454.132	5.48
454.486	5.48
454.839	5.46
455.193	5.43
455.547	5.42
455.9	5.37
456.254	5.35
456.607	5.31
456.961	5.28
457.314	5.25
457.668	5.24
458.021	5.24
458.375	5.23
458.728	5.23
459.081	5.23
459.434	5.24
459.787	5.25
460.141	5.26
460.494	5.26
460.847	5.27
461.2	5.27
461.553	5.28
461.906	5.29
462.259	5.29
462.611	5.29
462.964	5.3
463.317	5.31
463.67	5.32
464.022	5.32
464.375	5.32
464.728	5.32
465.08	5.31
465.433	5.32
465.785	5.31
466.138	5.28
466.49	5.26
466.843	5.23
467.195	5.21
467.547	5.19
467.899	5.16
468.252	5.12
468.604	5.08
468.956	5.06
469.308	5.03
469.66	5.03
470.012	5.02
470.364	5.03
470.716	5.04
471.068	5.06
471.42	5.09
471.772	5.11
472.123	5.12
472.475	5.14
472.827	5.15
473.178	5.16
473.53	5.17
473.882	5.19
474.233	5.21
474.585	5.26
474.936	5.33
475.288	5.44
475.639	5.58
475.99	5.74
476.342	5.93
476.693	6.13
477.044	6.34
477.395	6.55
477.746	6.76
478.097	6.98
478.448	7.2
478.8	7.41
479.15	7.61
479.501	7.79
479.852	7.95
480.203	8.11
480.554	8.26
480.905	8.41
481.255	8.55
481.606	8.68
481.957	8.79
482.307	8.92
482.658	9.03
483.009	9.14
483.359	9.24
483.709	9.34
484.06	9.44
484.41	9.54
484.761	9.62
485.111	9.71
485.461	9.79
485.811	9.87
486.162	9.93
486.512	9.99
486.862	10.04
487.212	10.07
487.562	10.1
487.912	10.11
488.262	10.11
488.612	10.11
488.961	10.08
489.311	10.04
489.661	9.95
490.011	9.84
490.36	9.7
490.71	9.54
491.06	9.37
491.409	9.19
491.759	9
492.108	8.81
492.458	8.61
492.807	8.41
493.157	8.2
493.506	8
493.855	7.81
494.204	7.63
494.554	7.46
494.903	7.31
495.252	7.16
495.601	7.01
495.95	6.87
496.299	6.74
496.648	6.62
496.997	6.49
497.346	6.38
497.695	6.27
498.043	6.16
498.392	6.06
498.741	5.96
499.09	5.86
499.438	5.77
499.787	5.68
500.135	5.6
500.484	5.52
500.832	5.46
501.181	5.41
501.529	5.37
501.878	5.35
502.226	5.33
502.574	5.33
502.923	5.32
503.271	5.32
503.619	5.32
503.967	5.31
504.315	5.31
504.663	5.3
505.011	5.29
505.359	5.29
505.707	5.28
506.055	5.27
506.403	5.27
506.751	5.27
507.098	5.27
507.446	5.27
507.794	5.28
508.141	5.3
508.489	5.31
508.837	5.33
509.184	5.34
509.531	5.36
509.879	5.37
510.226	5.38
510.574	5.4
510.921	5.41
511.268	5.43
511.616	5.45
511.963	5.47
512.31	5.49
512.657	5.51
513.004	5.53
513.351	5.55
513.698	5.56
514.045	5.56
514.392	5.57
514.739	5.57
515.086	5.56
515.432	5.56
515.779	5.56
516.126	5.56
516.473	5.56
516.819	5.56
517.166	5.56
517.512	5.57
517.859	5.59
518.205	5.61
518.552	5.64
518.898	5.67
519.245	5.72
519.591	5.79
519.937	5.87
520.283	5.98
520.629	6.1
520.976	6.23
521.322	6.38
521.668	6.52
522.014	6.65
522.36	6.79
522.706	6.93
523.052	7.06
523.398	7.19
523.743	7.29
524.089	7.39
524.435	7.47
524.781	7.54
525.126	7.61
525.472	7.68
525.817	7.75
526.163	7.81
526.509	7.86
526.854	7.92
527.199	7.97
527.545	8.03
527.89	8.08
528.235	8.14
528.581	8.19
528.926	8.24
529.271	8.29
529.616	8.34
529.961	8.37
530.306	8.4
530.651	8.43
530.996	8.45
531.341	8.46
531.686	8.47
532.031	8.46
532.376	8.46
532.721	8.46
533.065	8.46
533.41	8.47
533.755	8.46
534.099	8.42
534.444	8.38
534.788	8.34
535.133	8.29
535.477	8.23
535.822	8.17
536.166	8.1
536.51	8.02
536.855	7.92
537.199	7.82
537.543	7.73
537.887	7.64
538.231	7.56
538.576	7.49
538.92	7.42
539.264	7.36
539.608	7.28
539.951	7.21
540.295	7.14
540.639	7.06
540.983	6.98
541.327	6.93
541.671	6.85
542.014	6.78
542.358	6.71
542.701	6.66
543.045	6.62
543.389	6.59
543.732	6.56
544.075	6.54
544.419	6.53
544.762	6.49
545.105	6.48
545.449	6.47
545.792	6.46
546.135	6.46
546.478	6.44
546.821	6.41
547.165	6.37
547.508	6.32
547.851	6.26
548.194	6.2
548.536	6.12
548.879	6.04
549.222	5.96
549.565	5.87
549.908	5.79
550.25	5.71
550.593	5.64
550.936	5.58
551.278	5.54
551.621	5.5
551.963	5.47
552.306	5.44
552.648	5.42
552.991	5.39
553.333	5.37
553.675	5.37
554.017	5.36
554.36	5.36
554.702	5.37
555.044	5.38
555.386	5.4
555.728	5.41
556.07	5.42
556.412	5.43
556.754	5.44
557.096	5.44
557.438	5.44
557.78	5.44
558.121	5.44
558.463	5.43
558.805	5.43
559.147	5.44
559.488	5.44
559.83	5.44
560.171	5.45
560.513	5.44
560.854	5.44
561.196	5.44
561.537	5.44
561.878	5.45
562.22	5.45
562.561	5.44
562.902	5.45
563.243	5.46
563.584	5.46
563.925	5.47
564.266	5.46
564.607	5.47
564.948	5.47
565.289	5.48
565.63	5.48
565.971	5.48
566.312	5.49
566.653	5.49
566.993	5.49
567.334	5.49
567.675	5.5
568.015	5.51
568.356	5.52
568.696	5.52
569.037	5.52
569.377	5.53
569.718	5.53
570.058	5.53
570.398	5.54
570.739	5.54
571.079	5.54
571.419	5.54
571.759	5.54
572.099	5.54
572.439	5.54
572.779	5.54
573.119	5.54
573.459	5.54
573.799	5.54
574.139	5.54
574.479	5.55
574.819	5.55
575.158	5.55
575.498	5.55
575.838	5.55
576.177	5.54
576.517	5.55
576.856	5.54
577.196	5.54
577.535	5.54
577.875	5.54
578.214	5.53
578.553	5.54
578.893	5.53
579.232	5.53
579.571	5.53
579.91	5.53
580.25	5.52
580.589	5.52
580.928	5.52
581.267	5.51
581.606	5.51
581.945	5.5
582.283	5.5
582.622	5.5
582.961	5.49
583.3	5.5
583.639	5.49
583.977	5.49
584.316	5.49
584.654	5.5
584.993	5.5
585.332	5.49
585.67	5.49
586.008	5.48
586.347	5.49
586.685	5.49
587.024	5.49
587.362	5.5
587.7	5.5
588.038	5.5
588.376	5.49
588.715	5.5
589.053	5.5
589.391	5.5
589.729	5.5
590.067	5.5
590.404	5.5
590.742	5.5
591.08	5.5
591.418	5.51
591.756	5.51
592.093	5.52
592.431	5.53
592.769	5.54
593.106	5.55
593.444	5.54
593.781	5.54
594.119	5.54
594.456	5.55
594.793	5.55
595.131	5.55
595.468	5.56
595.805	5.55
596.143	5.56
596.48	5.56
596.817	5.57
597.154	5.57
597.491	5.58
597.828	5.59
598.165	5.59
598.502	5.59
598.839	5.59
599.176	5.59
599.512	5.6
599.849	5.6
600.186	5.61
600.523	5.61
600.859	5.61
601.196	5.62
601.532	5.62
601.869	5.63
602.205	5.64
602.542	5.64
602.878	5.64
603.215	5.64
603.551	5.63
603.887	5.63
604.223	5.64
604.56	5.64
604.896	5.64
605.232	5.64
605.568	5.65
605.904	5.65
606.24	5.65
606.576	5.65
606.912	5.66
607.248	5.66
607.583	5.66
607.919	5.66
608.255	5.66
608.591	5.66
608.926	5.66
609.262	5.66
609.597	5.66
609.933	5.66
610.268	5.68
610.604	5.68
610.939	5.68
611.275	5.67
611.61	5.67
611.945	5.67
612.281	5.67
612.616	5.67
612.951	5.66
613.286	5.66
613.621	5.64
613.956	5.64
614.291	5.64
614.626	5.64
614.961	5.64
615.296	5.64
615.631	5.64
615.966	5.63
616.3	5.64
616.635	5.64
616.97	5.63
617.304	5.63
617.639	5.63
617.973	5.62
618.308	5.63
618.642	5.63
618.977	5.63
619.311	5.61
619.646	5.62
619.98	5.63
620.314	5.63
620.648	5.63
620.983	5.64
621.317	5.64
621.651	5.65
621.985	5.65
622.319	5.65
622.653	5.65
622.987	5.66
623.321	5.66
623.655	5.66
623.988	5.66
624.322	5.66
624.656	5.67
624.99	5.67
625.323	5.68
625.657	5.68
625.99	5.69
626.324	5.7
626.657	5.71
626.991	5.71
627.324	5.72
627.658	5.72
627.991	5.72
628.324	5.72
628.657	5.73
628.991	5.74
629.324	5.74
629.657	5.75
629.99	5.75
630.323	5.76
630.656	5.76
630.989	5.77
631.322	5.78
631.655	5.77
631.987	5.77
632.32	5.78
632.653	5.78
632.986	5.79
633.318	5.78
633.651	5.77
633.984	5.77
634.316	5.78
634.649	5.78
634.981	5.78
635.313	5.78
635.646	5.77
635.978	5.76
636.31	5.75
636.643	5.75
636.975	5.75
637.307	5.75
637.639	5.75
637.971	5.75
638.303	5.75
638.635	5.75
638.967	5.75
639.299	5.76
639.631	5.76
639.963	5.77
640.295	5.78
640.626	5.79
640.958	5.79
641.29	5.79
641.621	5.8
641.953	5.81
642.285	5.81
642.616	5.82
642.948	5.81
643.279	5.84
643.61	5.83
643.942	5.82
644.273	5.83
644.604	5.83
644.936	5.83
645.267	5.83
645.598	5.84
645.929	5.84
646.26	5.85
646.591	5.85
646.922	5.86
647.253	5.86
647.584	5.85
647.915	5.86
648.245	5.87
648.576	5.87
648.907	5.87
649.238	5.87
649.568	5.86
649.899	5.87
650.229	5.88
650.56	5.89
650.89	5.9
651.221	5.9
651.551	5.92
651.882	5.92
652.212	5.92
652.542	5.92
652.872	5.92
653.203	5.94
653.533	5.93
653.863	5.93
654.193	5.93
654.523	5.94
654.853	5.95
655.183	5.95
655.513	5.95
655.843	5.96
656.172	5.96
656.502	5.97
656.832	5.95
657.162	5.95
657.491	5.96
657.821	5.96
658.15	5.95
658.48	5.95
658.809	5.95
659.139	5.94
659.468	5.95
659.798	5.96
660.127	5.96
660.456	5.99
660.785	6
661.115	6.01
661.444	6.02
661.773	6.03
662.102	6.04
662.431	6.04
662.76	6.05
663.089	6.05
663.418	6.06
663.747	6.04
664.076	6.05
664.404	6.05
664.733	6.06
665.062	6.07
665.39	6.08
665.719	6.08
666.048	6.08
666.376	6.07
666.705	6.05
667.033	6.05
667.362	6.04
667.69	6.04
668.018	6.04
668.347	6.04
668.675	6.02
669.003	6.04
669.331	6.03
669.659	6.03
669.987	6.05
670.315	6.05
670.643	6.07
670.971	6.08
671.299	6.07
671.627	6.08
671.955	6.07
672.283	6.08
672.61	6.1
672.938	6.11
673.266	6.12
673.593	6.13
673.921	6.13
674.249	6.15
674.576	6.16
674.904	6.17
675.231	6.18
675.558	6.21
675.886	6.23
676.213	6.23
676.54	6.24
676.867	6.26
677.195	6.27
677.522	6.28
677.849	6.31
678.176	6.33
678.503	6.34
678.83	6.35
679.157	6.35
679.484	6.35
679.81	6.34
680.137	6.35
680.464	6.36
680.791	6.36
681.117	6.35
681.444	6.35
681.771	6.34
682.097	6.34
682.424	6.34
682.75	6.33
683.077	6.33
683.403	6.33
683.729	6.32
684.056	6.32
684.382	6.31
684.708	6.31
685.034	6.33
685.36	6.32
685.686	6.34
686.012	6.35
686.339	6.37
686.664	6.37
686.99	6.36
687.316	6.38
687.642	6.4
687.968	6.43
688.294	6.44
688.619	6.42
688.945	6.42
689.271	6.43
689.596	6.42
689.922	6.45
690.247	6.46
690.573	6.47
690.898	6.5
691.224	6.49
691.549	6.48
691.874	6.46
692.2	6.48
692.525	6.5
692.85	6.49
693.175	6.5
693.5	6.53
693.825	6.53
694.15	6.53
694.475	6.54
694.8	6.53
695.125	6.54
695.45	6.58
695.775	6.58
696.099	6.59
696.424	6.6
696.749	6.59
697.073	6.61
697.398	6.61
697.723	6.62
698.047	6.63
698.372	6.64
698.696	6.63
699.02	6.62
699.345	6.62
699.669	6.63
699.993	6.62
700.318	6.61
700.642	6.62
700.966	6.62
701.29	6.6
701.614	6.61
701.938	6.62
702.262	6.63
702.586	6.64
702.91	6.65
703.234	6.65
703.557	6.63
703.881	6.63
704.205	6.64
704.529	6.66
704.852	6.66
705.176	6.68
705.499	6.7
705.823	6.7
706.146	6.71
706.47	6.72
706.793	6.73
707.117	6.85
707.44	6.86
707.763	6.83
708.086	6.85
708.409	6.83
708.733	6.82
709.056	6.81
709.379	6.82
709.702	6.85
710.025	6.85
710.348	6.69
710.671	6.69
710.993	6.7
711.316	6.68
711.639	6.69
711.962	6.7
712.284	6.73
712.607	6.75
712.93	6.76
713.252	6.78
713.575	6.78
713.897	6.76
714.22	6.78
714.542	6.81
714.864	6.87
715.187	6.91
715.509	6.9
715.831	6.88
716.153	6.89
716.475	6.87
716.798	6.87
717.12	7.05
717.442	7.06
717.764	7.04
718.085	6.95
718.407	6.95
718.729	6.94
719.051	6.97
719.373	6.98
719.695	6.97
720.016	6.96
720.338	6.89
720.659	6.9
720.981	6.93
721.302	6.93
721.624	6.95
721.945	6.94
722.267	6.95
722.588	6.95
722.909	6.98
723.231	7.02
723.552	7.02
723.873	7.06
724.194	7.06
724.515	7.07
724.836	7.2
725.157	7.18
725.478	7.18
725.799	7.19
726.12	7.18
726.441	7.17
726.762	7.2
727.083	7.19
727.403	7.19
727.724	7.17
728.045	7.09
728.365	7.11
728.686	7.16
729.006	7.18
729.327	7.19
729.647	7.19
729.967	7.17
730.288	7.19
730.608	7.21
730.928	7.23
731.249	7.23
731.569	7.25
731.889	7.24
732.209	7.24
732.529	7.25
732.849	7.29
733.169	7.32
733.489	7.31
733.809	7.33
734.129	7.33
734.448	7.37
734.768	7.36
735.088	7.38
735.408	7.38
735.727	7.38
736.047	7.41
736.366	7.41
736.686	7.43
737.005	7.43
737.325	7.4
737.644	7.42
737.963	7.41
738.283	7.41
738.602	7.42
738.921	7.42
739.24	7.4
739.56	7.43
739.879	7.43
740.198	7.46
740.517	7.47
740.836	7.48
741.155	7.49
741.473	7.52
741.792	7.53
742.111	7.52
742.43	7.54
742.748	7.55
743.067	7.57
743.386	7.6
743.704	7.6
744.023	7.63
744.341	7.64
744.66	7.66
744.978	7.61
745.297	7.63
745.615	7.59
745.933	7.56
746.252	7.53
746.57	7.46
746.888	7.45
747.206	7.45
747.524	7.42
747.842	7.45
748.16	7.45
748.478	7.43
748.796	7.41
749.114	7.39
749.432	7.38
749.749	7.43
750.067	7.43
750.385	7.44
750.703	7.45
751.02	7.46
751.338	7.46
751.655	7.54
751.973	7.57
752.29	7.57
752.608	7.6
752.925	7.61
753.242	7.69
753.56	7.72
753.877	7.72
754.194	7.77
754.511	7.76
754.828	7.75
755.145	7.81
755.462	7.85
755.779	7.85
756.096	7.88
756.413	7.87
756.73	7.84
757.047	7.86
757.364	7.87
757.68	7.91
757.997	7.92
758.314	7.93
758.63	7.97
758.947	8.03
759.264	8.04
759.58	8.04
759.896	8.05
760.213	8.09
760.529	8.11
760.846	8.08
761.162	8.09
761.478	8.11
761.794	8.1
762.11	8.1
762.426	8.14
762.743	8.13
763.059	8.2
763.375	8.25
763.69	8.26
764.006	8.27
764.322	8.3
764.638	8.27
764.954	8.31
765.27	8.33
765.585	8.3
765.901	8.35
766.216	8.19
766.532	8.15
766.848	8.12
767.163	8.16
767.478	8.23
767.794	8.25
768.109	8.26
768.424	8.26
768.74	8.27
769.055	8.27
769.37	8.32
769.685	8.32
770	8.33
770.315	8.34
770.63	8.26
770.945	8.19
771.26	8.19
771.575	8.18
771.89	8.15
772.205	8.18
772.52	8.17
772.834	8.34
773.149	8.39
773.464	8.34
773.778	8.34
774.093	8.37
774.407	8.38
774.722	8.39
775.036	8.36
775.351	8.35
775.665	8.33
775.979	8.2
776.293	8.2
776.608	8.2
776.922	8.16
777.236	8.28
777.55	8.38
777.864	8.39
778.178	8.44
778.492	8.43
778.806	8.37
779.12	8.42
779.434	8.48
779.747	8.44
780.061	8.56
780.375	8.48
780.689	8.42
781.002	8.46
781.316	8.45
781.629	8.5
781.943	8.54
782.256	8.58
782.57	8.64
782.883	8.64
783.196	8.59
783.51	8.65
783.823	8.71
784.136	8.63
784.449	8.67
784.762	8.71
785.075	8.76
785.388	8.75
785.701	8.71
786.014	8.7
786.327	8.75
786.64	8.73
786.953	8.74
787.266	8.82
787.578	8.79
787.891	8.85
788.204	8.8
788.516	8.81
788.829	8.86
789.141	8.8
789.454	8.82
789.766	8.87
790.079	8.88
790.391	8.87
790.703	9.01
791.016	8.88
791.328	8.92
791.64	8.91
791.952	8.97
792.264	8.98
792.576	9
792.888	8.97
793.2	8.98
793.512	9.04
793.824	8.93
794.136	8.93
794.448	8.97
794.76	9.02
795.071	9.03
795.383	8.95
795.695	9.1
796.006	9.21
796.318	9.21
796.629	9.21
796.941	9.26
797.252	9.27
797.564	9.32
797.875	9.22
798.186	9.14
798.497	9.15
798.809	9.03
799.12	9.03
799.431	9.04
799.742	9.05
800.053	8.97
800.364	9.1
800.675	9.13
800.986	9.13
801.297	9.25
801.608	9.23
801.918	9.27
802.229	9.25
802.54	9.21
802.851	9.17
803.161	9.16
803.472	9.16
803.782	9.11
804.093	9.15
804.403	9.06
804.714	9.11
805.024	9.13
805.334	9.26
805.645	9.29
805.955	9.34
806.265	9.29
806.575	9.37
806.885	9.29
807.195	9.3
807.505	9.32
807.815	9.31
808.125	9.48
808.435	9.43
808.745	9.4
809.055	9.42
809.365	9.53
809.674	9.53
809.984	9.54
810.294	9.54
810.603	9.58
810.913	9.85
811.222	9.82
811.532	9.86
811.841	9.89
812.151	9.93
812.46	9.94
812.769	10.04
813.079	10.03
813.388	10.06
813.697	10.08
814.006	10
814.315	10.07
814.624	10.05
814.933	10
815.242	9.93
815.551	9.99
815.86	9.93
816.169	9.92
816.478	9.96
816.786	9.96
817.095	9.98
817.404	10
817.712	10.01
818.021	9.96
818.33	9.98
818.638	10.02
818.947	10
819.255	10.01
819.563	10.05
819.872	10.03
820.18	10.03
820.488	10.04
820.796	10
821.105	9.98
821.413	10.01
821.721	10.06
822.029	10.07
822.337	10.12
822.645	10.12
822.953	10.12
823.26	10.16
823.568	10.17
823.876	10.13
824.184	10.14
824.491	10.13
824.799	10.13
825.107	10.15
825.414	10.15
825.722	10.16
826.029	10.15
826.337	10.16
826.644	10.15
826.951	10.17
827.259	10.19
827.566	10.25
827.873	10.27
828.18	10.24
828.488	10.25
828.795	10.26
829.102	10.28
829.409	10.31
829.716	10.32
830.023	10.32
830.329	10.35
830.636	10.39
830.943	10.45
831.25	10.5
831.557	10.49
831.863	10.53
832.17	10.56
832.476	10.63
832.783	10.62
833.089	10.65
833.396	10.64
833.702	10.63
834.009	10.58
834.315	10.57
834.621	10.66
834.928	10.64
835.234	10.69
835.54	10.68
835.846	10.72
836.152	10.75
836.458	10.79
836.764	10.73
837.07	10.76
837.376	10.65
837.682	10.55
837.988	10.61
838.293	10.5
838.599	10.56
838.905	10.52
839.211	10.62
839.516	10.68
839.822	10.8
840.127	10.76
840.433	10.83
840.738	10.84
841.044	10.89
841.349	10.92
841.654	10.99
841.959	11.03
842.265	11.05
842.57	11.11
842.875	11.16
843.18	11.26
843.485	11.36
843.79	11.44
844.095	11.65
844.4	11.45
844.705	11.68
845.01	11.63
845.315	11.69
845.619	11.54
845.924	11.37
846.229	11.28
846.533	11.38
846.838	11.39
847.142	11.25
847.447	11.32
847.751	11.07
848.056	11.15
848.36	11.07
848.664	10.99
848.969	10.94
849.273	10.96
849.577	10.92
849.881	10.78
850.185	10.83
850.489	11.16
850.794	11.38
851.097	11.27
851.401	11.36
851.705	11.36
852.009	11.35
852.313	11.28
852.617	11.4
852.92	11.36
853.224	11.27
853.528	11.09
853.831	11.11
854.135	10.95
854.438	10.88
854.742	11.06
855.045	11.06
855.349	11.23
855.652	11.48
855.955	11.46
856.259	11.51
856.562	11.74
856.865	11.7
857.168	11.45
857.471	11.49
857.774	11.45
858.077	11.29
858.38	11.36
858.683	11.32
858.986	11.17
859.289	11.49
859.592	11.64
859.894	11.91
860.197	11.96
860.5	11.99
860.802	12.2
861.105	12.21
861.407	12.4
861.71	12.43
862.012	12.46
862.315	12.64
862.617	12.53
862.919	12.02
863.222	12.14
863.524	12.22
863.826	12.5
864.128	12.7
864.43	12.78
864.732	12.73
865.034	12.8
865.336	12.86
865.638	12.84
865.94	12.75
866.242	12.68
866.544	12.18
866.846	12.55
867.147	12.18
867.449	12.01
867.751	12.09
868.052	12.07
868.354	11.94
868.655	12
868.957	12.04
869.258	12.13
869.56	12.08
869.861	12.27
870.162	12.21
870.463	12.25
870.765	12.36
871.066	12.38
871.367	12.28
871.668	12.2
871.969	12.25
872.27	12.22
872.571	12.29
872.872	12.71
873.173	12.47
873.473	12.71
873.774	12.85
874.075	12.85
874.376	12.94
874.676	12.95
874.977	12.94
875.277	12.87
875.578	12.82
875.878	12.51
876.179	12.57
876.479	12.35
876.78	12.38
877.08	12.47
877.38	12.56
877.68	12.62
877.981	12.64
878.281	12.65
878.581	12.69
