Data from UWBM55954_Reflection_00009.txt Node
Date: Sun May 02 13:51:30 EDT 2021
User: vgr7
Spectrometer: USB2G7710
Scans to average: 10
Trigger mode: 4
Integration Time (sec): 1.000000E-1
Electric dark correction enabled: true
Boxcar width: 20
XAxis mode: Wavelengths
Number of Pixels in Spectrum: 2048
>>>>>Begin Spectral Data<<<<<
177.721	92.63
178.105	61.78
178.488	61.6
178.871	91.54
179.254	66.98
179.636	50.65
180.019	43.44
180.402	42.94
180.785	39.5
181.168	39.14
181.55	33.08
181.933	38.8
182.316	33.63
182.698	33.7
183.081	37.56
183.463	34.41
183.846	29.13
184.228	27.97
184.611	25.98
184.993	26.11
185.376	26.63
185.758	28
186.14	30.09
186.522	29.1
186.904	27.43
187.287	26.66
187.669	28.47
188.051	28.47
188.433	26.29
188.815	23.77
189.197	24.25
189.579	24.75
189.961	23.27
190.342	20.56
190.724	17.38
191.106	18.39
191.488	20.43
191.869	18.55
192.251	17.11
192.633	17.94
193.014	16.4
193.396	15.41
193.777	17.48
194.159	17.19
194.54	16.16
194.922	16.19
195.303	15.4
195.684	14.91
196.065	13.61
196.447	12.92
196.828	11.88
197.209	12.01
197.59	8.04
197.971	8.22
198.352	8.7
198.733	9.22
199.114	9.4
199.495	11.6
199.876	10.52
200.257	10.22
200.638	9.42
201.018	10.31
201.399	11.16
201.78	11.55
202.16	11.61
202.541	12.03
202.922	12.16
203.302	11.73
203.683	11.86
204.063	12.67
204.444	12.78
204.824	11.92
205.204	11.09
205.585	12.89
205.965	13.62
206.345	14.54
206.725	14.22
207.106	12.66
207.486	12.92
207.866	14.26
208.246	14.06
208.626	12.04
209.006	12.5
209.386	11.59
209.766	10.51
210.145	10.38
210.525	10.57
210.905	11.38
211.285	10.47
211.664	11.59
212.044	11.32
212.424	11.54
212.803	11.08
213.183	11.52
213.562	12.15
213.942	11.42
214.321	8.95
214.701	8.53
215.08	8.46
215.459	9.41
215.838	9.46
216.218	9.25
216.597	7.96
216.976	8.06
217.355	7.58
217.734	8.04
218.113	8.03
218.492	6.54
218.871	6.34
219.25	6.49
219.629	5.91
220.008	6.07
220.387	4.85
220.766	5.6
221.144	5.22
221.523	5.8
221.902	5.3
222.28	5.11
222.659	5.89
223.037	6.04
223.416	6.08
223.794	5.79
224.173	6.4
224.551	5.79
224.929	6.57
225.308	6.89
225.686	6.97
226.064	6.65
226.442	6.38
226.821	7.13
227.199	7.21
227.577	7.21
227.955	7.25
228.333	7.1
228.711	6.85
229.089	6.85
229.467	6.68
229.845	6.93
230.222	7.41
230.6	7.14
230.978	7.04
231.356	7.08
231.733	6.87
232.111	6.88
232.488	6.87
232.866	6.42
233.243	6.22
233.621	6.12
233.998	6.24
234.376	6.26
234.753	5.89
235.13	5.85
235.508	5.89
235.885	5.87
236.262	5.84
236.639	5.72
237.016	5.57
237.393	5.64
237.77	5.63
238.147	5.49
238.524	5.44
238.901	5.25
239.278	5.24
239.655	5.25
240.032	5.26
240.409	5.2
240.785	5.2
241.162	5.16
241.539	5.15
241.915	5.18
242.292	5.1
242.668	5.05
243.045	5.04
243.421	5.03
243.798	5.06
244.174	5.11
244.551	5.06
244.927	5.04
245.303	5.06
245.679	5.02
246.056	4.98
246.432	4.95
246.808	4.94
247.184	4.97
247.56	4.97
247.936	4.93
248.312	4.95
248.688	4.94
249.064	4.94
249.44	4.95
249.815	4.89
250.191	4.88
250.567	4.91
250.943	4.86
251.318	4.84
251.694	4.81
252.069	4.8
252.445	4.81
252.82	4.78
253.196	4.74
253.571	4.73
253.947	4.72
254.322	4.72
254.697	4.7
255.073	4.67
255.448	4.67
255.823	4.64
256.198	4.62
256.573	4.61
256.948	4.6
257.323	4.57
257.698	4.55
258.073	4.52
258.448	4.5
258.823	4.47
259.198	4.45
259.573	4.42
259.948	4.42
260.322	4.41
260.697	4.37
261.072	4.35
261.446	4.35
261.821	4.35
262.195	4.32
262.57	4.28
262.944	4.24
263.319	4.27
263.693	4.26
264.067	4.26
264.442	4.24
264.816	4.21
265.19	4.23
265.564	4.24
265.938	4.22
266.313	4.23
266.687	4.21
267.061	4.2
267.435	4.19
267.809	4.17
268.183	4.17
268.556	4.16
268.93	4.17
269.304	4.15
269.678	4.15
270.051	4.14
270.425	4.12
270.799	4.11
271.172	4.11
271.546	4.11
271.919	4.11
272.293	4.09
272.666	4.08
273.04	4.09
273.413	4.12
273.787	4.15
274.16	4.14
274.533	4.15
274.906	4.16
275.279	4.15
275.653	4.15
276.026	4.17
276.399	4.17
276.772	4.19
277.145	4.2
277.518	4.21
277.891	4.24
278.263	4.24
278.636	4.24
279.009	4.23
279.382	4.23
279.755	4.24
280.127	4.27
280.5	4.27
280.872	4.28
281.245	4.27
281.617	4.28
281.99	4.3
282.362	4.29
282.735	4.3
283.107	4.31
283.479	4.32
283.852	4.34
284.224	4.34
284.596	4.34
284.968	4.36
285.34	4.38
285.713	4.4
286.085	4.42
286.457	4.43
286.829	4.45
287.201	4.46
287.572	4.48
287.944	4.51
288.316	4.53
288.688	4.53
289.06	4.54
289.431	4.57
289.803	4.6
290.175	4.63
290.546	4.66
290.918	4.72
291.289	4.75
291.661	4.78
292.032	4.8
292.403	4.82
292.775	4.86
293.146	4.9
293.517	4.95
293.889	4.97
294.26	5.01
294.631	5.05
295.002	5.09
295.373	5.12
295.744	5.16
296.115	5.19
296.486	5.25
296.857	5.29
297.228	5.34
297.599	5.39
297.97	5.42
298.34	5.47
298.711	5.49
299.082	5.54
299.452	5.59
299.823	5.66
300.194	5.69
300.564	5.74
300.935	5.78
301.305	5.83
301.676	5.88
302.046	5.91
302.416	5.98
302.787	6.02
303.157	6.07
303.527	6.15
303.897	6.2
304.267	6.28
304.637	6.33
305.008	6.39
305.378	6.45
305.748	6.5
306.117	6.57
306.487	6.64
306.857	6.72
307.227	6.78
307.597	6.85
307.967	6.9
308.336	6.95
308.706	7
309.076	7.06
309.445	7.11
309.815	7.17
310.184	7.23
310.554	7.26
310.923	7.31
311.293	7.36
311.662	7.42
312.031	7.48
312.401	7.55
312.77	7.62
313.139	7.67
313.508	7.74
313.877	7.8
314.246	7.85
314.616	7.91
314.985	7.96
315.353	8.02
315.722	8.07
316.091	8.13
316.46	8.18
316.829	8.24
317.198	8.31
317.567	8.36
317.935	8.44
318.304	8.51
318.672	8.55
319.041	8.64
319.41	8.69
319.778	8.78
320.147	8.83
320.515	8.9
320.883	8.95
321.252	8.98
321.62	9.03
321.988	9.07
322.357	9.11
322.725	9.17
323.093	9.21
323.461	9.25
323.829	9.31
324.197	9.36
324.565	9.39
324.933	9.43
325.301	9.46
325.669	9.53
326.037	9.57
326.405	9.62
326.772	9.64
327.14	9.68
327.508	9.69
327.875	9.71
328.243	9.74
328.61	9.75
328.978	9.79
329.346	9.82
329.713	9.84
330.08	9.87
330.448	9.88
330.815	9.91
331.182	9.93
331.55	9.96
331.917	9.99
332.284	10
332.651	10.03
333.018	10.06
333.385	10.09
333.752	10.12
334.119	10.16
334.486	10.19
334.853	10.2
335.22	10.24
335.587	10.26
335.954	10.31
336.32	10.34
336.687	10.36
337.054	10.39
337.42	10.43
337.787	10.46
338.153	10.49
338.52	10.49
338.886	10.52
339.253	10.54
339.619	10.57
339.986	10.59
340.352	10.63
340.718	10.64
341.084	10.66
341.451	10.68
341.817	10.71
342.183	10.73
342.549	10.76
342.915	10.77
343.281	10.79
343.647	10.83
344.013	10.85
344.379	10.86
344.745	10.87
345.11	10.89
345.476	10.9
345.842	10.93
346.208	10.94
346.573	10.96
346.939	10.97
347.304	11
347.67	11.02
348.035	11.01
348.401	11.02
348.766	11.04
349.132	11.05
349.497	11.06
349.862	11.07
350.228	11.07
350.593	11.08
350.958	11.07
351.323	11.08
351.688	11.1
352.053	11.09
352.418	11.08
352.783	11.08
353.148	11.07
353.513	11.08
353.878	11.07
354.243	11.06
354.608	11.06
354.972	11.05
355.337	11.03
355.702	11.02
356.066	11.01
356.431	10.99
356.795	10.96
357.16	10.95
357.524	10.94
357.889	10.93
358.253	10.91
358.618	10.89
358.982	10.87
359.346	10.86
359.71	10.84
360.075	10.82
360.439	10.8
360.803	10.78
361.167	10.77
361.531	10.74
361.895	10.72
362.259	10.69
362.623	10.66
362.987	10.63
363.351	10.6
363.714	10.57
364.078	10.54
364.442	10.51
364.806	10.47
365.169	10.43
365.533	10.4
365.896	10.37
366.26	10.33
366.623	10.29
366.987	10.25
367.35	10.21
367.714	10.17
368.077	10.12
368.44	10.07
368.803	10.02
369.167	9.97
369.53	9.92
369.893	9.86
370.256	9.8
370.619	9.74
370.982	9.68
371.345	9.63
371.708	9.58
372.071	9.52
372.434	9.45
372.797	9.38
373.159	9.32
373.522	9.27
373.885	9.22
374.247	9.15
374.61	9.09
374.973	9.03
375.335	8.97
375.698	8.91
376.06	8.84
376.423	8.78
376.785	8.71
377.147	8.65
377.51	8.59
377.872	8.53
378.234	8.47
378.596	8.4
378.958	8.34
379.321	8.28
379.683	8.23
380.045	8.16
380.407	8.11
380.769	8.05
381.13	7.99
381.492	7.93
381.854	7.88
382.216	7.82
382.578	7.76
382.939	7.71
383.301	7.66
383.663	7.6
384.024	7.55
384.386	7.49
384.747	7.44
385.109	7.39
385.47	7.34
385.832	7.28
386.193	7.23
386.554	7.18
386.916	7.13
387.277	7.08
387.638	7.04
387.999	7
388.36	6.95
388.721	6.9
389.082	6.86
389.443	6.82
389.804	6.77
390.165	6.73
390.526	6.69
390.887	6.65
391.248	6.61
391.609	6.57
391.969	6.52
392.33	6.48
392.691	6.44
393.051	6.4
393.412	6.36
393.772	6.31
394.133	6.27
394.493	6.23
394.854	6.18
395.214	6.14
395.574	6.09
395.935	6.05
396.295	6.01
396.655	5.97
397.015	5.93
397.376	5.88
397.736	5.84
398.096	5.8
398.456	5.76
398.816	5.73
399.176	5.69
399.535	5.65
399.895	5.61
400.255	5.58
400.615	5.54
400.975	5.51
401.334	5.47
401.694	5.43
402.054	5.4
402.413	5.36
402.773	5.33
403.132	5.3
403.492	5.27
403.851	5.24
404.211	5.22
404.57	5.19
404.929	5.16
405.288	5.14
405.648	5.12
406.007	5.1
406.366	5.08
406.725	5.06
407.084	5.05
407.443	5.03
407.802	5
408.161	4.99
408.52	4.97
408.879	4.95
409.238	4.94
409.596	4.92
409.955	4.91
410.314	4.89
410.673	4.88
411.031	4.87
411.39	4.86
411.748	4.84
412.107	4.84
412.465	4.83
412.824	4.84
413.182	4.84
413.54	4.85
413.899	4.86
414.257	4.87
414.615	4.9
414.974	4.92
415.332	4.95
415.69	4.97
416.048	4.99
416.406	5.02
416.764	5.04
417.122	5.06
417.48	5.08
417.838	5.1
418.195	5.11
418.553	5.12
418.911	5.12
419.269	5.12
419.626	5.1
419.984	5.08
420.342	5.05
420.699	5.03
421.057	5
421.414	4.97
421.772	4.94
422.129	4.92
422.486	4.91
422.844	4.89
423.201	4.88
423.558	4.87
423.915	4.86
424.273	4.85
424.63	4.84
424.987	4.83
425.344	4.82
425.701	4.8
426.058	4.79
426.415	4.79
426.772	4.77
427.128	4.76
427.485	4.74
427.842	4.71
428.199	4.69
428.555	4.66
428.912	4.63
429.269	4.59
429.625	4.56
429.982	4.52
430.338	4.48
430.695	4.45
431.051	4.41
431.407	4.39
431.764	4.36
432.12	4.34
432.476	4.32
432.832	4.31
433.189	4.3
433.545	4.3
433.901	4.31
434.257	4.33
434.613	4.36
434.969	4.38
435.325	4.4
435.681	4.44
436.036	4.46
436.392	4.48
436.748	4.5
437.104	4.51
437.459	4.53
437.815	4.54
438.171	4.56
438.526	4.58
438.882	4.62
439.237	4.65
439.593	4.69
439.948	4.71
440.304	4.75
440.659	4.77
441.014	4.79
441.369	4.82
441.725	4.83
442.08	4.84
442.435	4.86
442.79	4.86
443.145	4.86
443.5	4.86
443.855	4.86
444.21	4.85
444.565	4.84
444.92	4.83
445.275	4.82
445.629	4.8
445.984	4.79
446.339	4.77
446.693	4.75
447.048	4.73
447.403	4.71
447.757	4.68
448.112	4.66
448.466	4.63
448.82	4.6
449.175	4.57
449.529	4.54
449.883	4.51
450.238	4.49
450.592	4.48
450.946	4.46
451.3	4.45
451.654	4.46
452.008	4.45
452.362	4.45
452.716	4.45
453.07	4.44
453.424	4.43
453.778	4.42
454.132	4.41
454.486	4.39
454.839	4.37
455.193	4.35
455.547	4.34
455.9	4.3
456.254	4.28
456.607	4.25
456.961	4.23
457.314	4.2
457.668	4.19
458.021	4.19
458.375	4.18
458.728	4.18
459.081	4.19
459.434	4.2
459.787	4.21
460.141	4.22
460.494	4.23
460.847	4.24
461.2	4.25
461.553	4.26
461.906	4.27
462.259	4.28
462.611	4.28
462.964	4.29
463.317	4.3
463.67	4.32
464.022	4.33
464.375	4.34
464.728	4.35
465.08	4.36
465.433	4.37
465.785	4.38
466.138	4.37
466.49	4.36
466.843	4.35
467.195	4.34
467.547	4.32
467.899	4.31
468.252	4.29
468.604	4.27
468.956	4.26
469.308	4.25
469.66	4.26
470.012	4.26
470.364	4.27
470.716	4.28
471.068	4.3
471.42	4.33
471.772	4.36
472.123	4.38
472.475	4.4
472.827	4.41
473.178	4.43
473.53	4.44
473.882	4.46
474.233	4.48
474.585	4.52
474.936	4.59
475.288	4.68
475.639	4.81
475.99	4.94
476.342	5.1
476.693	5.26
477.044	5.44
477.395	5.61
477.746	5.79
478.097	5.96
478.448	6.14
478.8	6.32
479.15	6.48
479.501	6.63
479.852	6.77
480.203	6.9
480.554	7.03
480.905	7.14
481.255	7.25
481.606	7.37
481.957	7.46
482.307	7.56
482.658	7.65
483.009	7.73
483.359	7.82
483.709	7.9
484.06	7.98
484.41	8.06
484.761	8.13
485.111	8.2
485.461	8.27
485.811	8.33
486.162	8.39
486.512	8.44
486.862	8.48
487.212	8.51
487.562	8.53
487.912	8.54
488.262	8.55
488.612	8.55
488.961	8.53
489.311	8.49
489.661	8.42
490.011	8.34
490.36	8.23
490.71	8.11
491.06	7.98
491.409	7.84
491.759	7.7
492.108	7.55
492.458	7.4
492.807	7.24
493.157	7.08
493.506	6.93
493.855	6.79
494.204	6.66
494.554	6.53
494.903	6.42
495.252	6.32
495.601	6.22
495.95	6.13
496.299	6.04
496.648	5.97
496.997	5.9
497.346	5.84
497.695	5.78
498.043	5.73
498.392	5.68
498.741	5.63
499.09	5.59
499.438	5.56
499.787	5.54
500.135	5.52
500.484	5.51
500.832	5.51
501.181	5.53
501.529	5.57
501.878	5.61
502.226	5.67
502.574	5.74
502.923	5.81
503.271	5.88
503.619	5.96
503.967	6.04
504.315	6.12
504.663	6.2
505.011	6.29
505.359	6.37
505.707	6.45
506.055	6.54
506.403	6.64
506.751	6.74
507.098	6.84
507.446	6.95
507.794	7.06
508.141	7.18
508.489	7.3
508.837	7.43
509.184	7.56
509.531	7.69
509.879	7.83
510.226	7.98
510.574	8.13
510.921	8.29
511.268	8.46
511.616	8.63
511.963	8.81
512.31	8.99
512.657	9.16
513.004	9.34
513.351	9.51
513.698	9.66
514.045	9.81
514.392	9.96
514.739	10.09
515.086	10.21
515.432	10.34
515.779	10.47
516.126	10.6
516.473	10.74
516.819	10.89
517.166	11.06
517.512	11.24
517.859	11.43
518.205	11.64
518.552	11.87
518.898	12.12
519.245	12.4
519.591	12.75
519.937	13.16
520.283	13.62
520.629	14.14
520.976	14.68
521.322	15.24
521.668	15.82
522.014	16.4
522.36	16.99
522.706	17.56
523.052	18.12
523.398	18.64
523.743	19.12
524.089	19.56
524.435	19.97
524.781	20.37
525.126	20.77
525.472	21.15
525.817	21.53
526.163	21.9
526.509	22.26
526.854	22.62
527.199	22.99
527.545	23.34
527.89	23.71
528.235	24.08
528.581	24.43
528.926	24.76
529.271	25.07
529.616	25.38
529.961	25.67
530.306	25.94
530.651	26.19
530.996	26.41
531.341	26.63
531.686	26.83
532.031	27.01
532.376	27.21
532.721	27.44
533.065	27.69
533.41	27.95
533.755	28.17
534.099	28.37
534.444	28.54
534.788	28.69
535.133	28.82
535.477	28.93
535.822	29.02
536.166	29.07
536.51	29.08
536.855	29.04
537.199	28.97
537.543	28.91
537.887	28.88
538.231	28.88
538.576	28.88
538.92	28.87
539.264	28.85
539.608	28.81
539.951	28.76
540.295	28.71
540.639	28.64
540.983	28.56
541.327	28.46
541.671	28.35
542.014	28.27
542.358	28.2
542.701	28.2
543.045	28.25
543.389	28.32
543.732	28.41
544.075	28.51
544.419	28.63
544.762	28.77
545.105	28.91
545.449	29.07
545.792	29.22
546.135	29.39
546.478	29.52
546.821	29.61
547.165	29.65
547.508	29.65
547.851	29.61
548.194	29.52
548.536	29.41
548.879	29.26
549.222	29.11
549.565	28.94
549.908	28.78
550.25	28.64
550.593	28.55
550.936	28.52
551.278	28.54
551.621	28.59
551.963	28.66
552.306	28.74
552.648	28.86
552.991	29.01
553.333	29.17
553.675	29.35
554.017	29.56
554.36	29.79
554.702	30.05
555.044	30.35
555.386	30.69
555.728	31.06
556.07	31.37
556.412	31.7
556.754	31.96
557.096	32.18
557.438	32.41
557.78	32.63
558.121	32.86
558.463	33.09
558.805	33.31
559.147	33.54
559.488	33.76
559.83	33.99
560.171	34.21
560.513	34.43
560.854	34.64
561.196	34.86
561.537	35.07
561.878	35.28
562.22	35.48
562.561	35.69
562.902	35.88
563.243	36.07
563.584	36.27
563.925	36.46
564.266	36.66
564.607	36.85
564.948	37.05
565.289	37.23
565.63	37.42
565.971	37.6
566.312	37.78
566.653	37.95
566.993	38.13
567.334	38.3
567.675	38.47
568.015	38.64
568.356	38.81
568.696	38.96
569.037	39.1
569.377	39.25
569.718	39.39
570.058	39.53
570.398	39.66
570.739	39.79
571.079	39.92
571.419	40.04
571.759	40.15
572.099	40.26
572.439	40.38
572.779	40.5
573.119	40.61
573.459	40.72
573.799	40.83
574.139	40.94
574.479	41.05
574.819	41.15
575.158	41.25
575.498	41.35
575.838	41.45
576.177	41.55
576.517	41.65
576.856	41.75
577.196	41.86
577.535	41.94
577.875	42.04
578.214	42.13
578.553	42.21
578.893	42.3
579.232	42.38
579.571	42.46
579.91	42.56
580.25	42.65
580.589	42.74
580.928	42.82
581.267	42.91
581.606	42.99
581.945	43.08
582.283	43.17
582.622	43.26
582.961	43.35
583.3	43.44
583.639	43.53
583.977	43.61
584.316	43.7
584.654	43.78
584.993	43.87
585.332	43.96
585.67	44.05
586.008	44.13
586.347	44.22
586.685	44.31
587.024	44.39
587.362	44.47
587.7	44.55
588.038	44.63
588.376	44.72
588.715	44.81
589.053	44.91
589.391	44.99
589.729	45.09
590.067	45.17
590.404	45.26
590.742	45.34
591.08	45.42
591.418	45.51
591.756	45.59
592.093	45.66
592.431	45.73
592.769	45.8
593.106	45.86
593.444	45.93
593.781	45.99
594.119	46.05
594.456	46.1
594.793	46.15
595.131	46.22
595.468	46.27
595.805	46.34
596.143	46.4
596.48	46.47
596.817	46.54
597.154	46.61
597.491	46.67
597.828	46.74
598.165	46.8
598.502	46.87
598.839	46.95
599.176	47.01
599.512	47.06
599.849	47.12
600.186	47.18
600.523	47.22
600.859	47.27
601.196	47.32
601.532	47.37
601.869	47.41
602.205	47.45
602.542	47.49
602.878	47.54
603.215	47.57
603.551	47.61
603.887	47.66
604.223	47.69
604.56	47.73
604.896	47.77
605.232	47.8
605.568	47.83
605.904	47.86
606.24	47.89
606.576	47.92
606.912	47.95
607.248	47.97
607.583	48
607.919	48.02
608.255	48.06
608.591	48.08
608.926	48.11
609.262	48.15
609.597	48.16
609.933	48.18
610.268	48.21
610.604	48.24
610.939	48.25
611.275	48.28
611.61	48.29
611.945	48.31
612.281	48.32
612.616	48.33
612.951	48.34
613.286	48.36
613.621	48.38
613.956	48.4
614.291	48.43
614.626	48.45
614.961	48.47
615.296	48.49
615.631	48.52
615.966	48.54
616.3	48.57
616.635	48.58
616.97	48.62
617.304	48.64
617.639	48.66
617.973	48.7
618.308	48.73
618.642	48.74
618.977	48.76
619.311	48.8
619.646	48.82
619.98	48.85
620.314	48.89
620.648	48.91
620.983	48.96
621.317	48.98
621.651	49.02
621.985	49.04
622.319	49.09
622.653	49.11
622.987	49.12
623.321	49.15
623.655	49.18
623.988	49.19
624.322	49.21
624.656	49.24
624.99	49.26
625.323	49.28
625.657	49.3
625.99	49.33
626.324	49.33
626.657	49.37
626.991	49.39
627.324	49.4
627.658	49.42
627.991	49.43
628.324	49.46
628.657	49.48
628.991	49.51
629.324	49.53
629.657	49.54
629.99	49.58
630.323	49.6
630.656	49.62
630.989	49.63
631.322	49.65
631.655	49.68
631.987	49.69
632.32	49.71
632.653	49.73
632.986	49.75
633.318	49.78
633.651	49.79
633.984	49.8
634.316	49.83
634.649	49.84
634.981	49.86
635.313	49.88
635.646	49.9
635.978	49.91
636.31	49.93
636.643	49.97
636.975	50
637.307	50.03
637.639	50.06
637.971	50.08
638.303	50.09
638.635	50.1
638.967	50.12
639.299	50.15
639.631	50.17
639.963	50.21
640.295	50.22
640.626	50.23
640.958	50.25
641.29	50.27
641.621	50.29
641.953	50.3
642.285	50.31
642.616	50.33
642.948	50.36
643.279	50.39
643.61	50.39
643.942	50.41
644.273	50.44
644.604	50.46
644.936	50.49
645.267	50.49
645.598	50.51
645.929	50.53
646.26	50.54
646.591	50.55
646.922	50.57
647.253	50.59
647.584	50.63
647.915	50.63
648.245	50.66
648.576	50.7
648.907	50.7
649.238	50.7
649.568	50.72
649.899	50.73
650.229	50.76
650.56	50.78
650.89	50.78
651.221	50.8
651.551	50.81
651.882	50.84
652.212	50.86
652.542	50.89
652.872	50.91
653.203	50.94
653.533	50.95
653.863	50.98
654.193	51
654.523	51.03
654.853	51.06
655.183	51.07
655.513	51.1
655.843	51.13
656.172	51.14
656.502	51.16
656.832	51.18
657.162	51.21
657.491	51.22
657.821	51.23
658.15	51.25
658.48	51.25
658.809	51.28
659.139	51.3
659.468	51.32
659.798	51.34
660.127	51.36
660.456	51.38
660.785	51.38
661.115	51.38
661.444	51.39
661.773	51.41
662.102	51.4
662.431	51.43
662.76	51.46
663.089	51.47
663.418	51.51
663.747	51.52
664.076	51.53
664.404	51.55
664.733	51.56
665.062	51.59
665.39	51.6
665.719	51.61
666.048	51.62
666.376	51.64
666.705	51.66
667.033	51.68
667.362	51.7
667.69	51.72
668.018	51.72
668.347	51.74
668.675	51.76
669.003	51.79
669.331	51.8
669.659	51.82
669.987	51.83
670.315	51.84
670.643	51.86
670.971	51.87
671.299	51.89
671.627	51.9
671.955	51.92
672.283	51.93
672.61	51.95
672.938	51.97
673.266	51.97
673.593	52.01
673.921	52.04
674.249	52.06
674.576	52.08
674.904	52.11
675.231	52.13
675.558	52.14
675.886	52.15
676.213	52.18
676.54	52.19
676.867	52.17
677.195	52.18
677.522	52.19
677.849	52.22
678.176	52.24
678.503	52.25
678.83	52.27
679.157	52.28
679.484	52.3
679.81	52.33
680.137	52.34
680.464	52.36
680.791	52.36
681.117	52.38
681.444	52.41
681.771	52.42
682.097	52.45
682.424	52.46
682.75	52.48
683.077	52.49
683.403	52.51
683.729	52.53
684.056	52.54
684.382	52.55
684.708	52.58
685.034	52.6
685.36	52.61
685.686	52.64
686.012	52.64
686.339	52.67
686.664	52.71
686.99	52.71
687.316	52.73
687.642	52.74
687.968	52.78
688.294	52.79
688.619	52.79
688.945	52.84
689.271	52.87
689.596	52.88
689.922	52.91
690.247	52.93
690.573	52.94
690.898	52.98
691.224	52.98
691.549	52.98
691.874	52.98
692.2	52.97
692.525	52.98
692.85	53
693.175	53.01
693.5	53.01
693.825	53.02
694.15	53.06
694.475	53.06
694.8	53.06
695.125	53.08
695.45	53.07
695.775	53.1
696.099	53.11
696.424	53.12
696.749	53.13
697.073	53.13
697.398	53.14
697.723	53.17
698.047	53.17
698.372	53.2
698.696	53.21
699.02	53.21
699.345	53.23
699.669	53.21
699.993	53.2
700.318	53.21
700.642	53.21
700.966	53.23
701.29	53.24
701.614	53.26
701.938	53.28
702.262	53.29
702.586	53.3
702.91	53.31
703.234	53.32
703.557	53.34
703.881	53.37
704.205	53.37
704.529	53.4
704.852	53.42
705.176	53.44
705.499	53.5
705.823	53.52
706.146	53.54
706.47	53.54
706.793	53.58
707.117	53.61
707.44	53.6
707.763	53.61
708.086	53.63
708.409	53.64
708.733	53.67
709.056	53.68
709.379	53.66
709.702	53.7
710.025	53.71
710.348	53.71
710.671	53.72
710.993	53.73
711.316	53.73
711.639	53.72
711.962	53.74
712.284	53.76
712.607	53.77
712.93	53.79
713.252	53.81
713.575	53.84
713.897	53.85
714.22	53.85
714.542	53.84
714.864	53.87
715.187	53.87
715.509	53.87
715.831	53.86
716.153	53.86
716.475	53.87
716.798	53.85
717.12	53.86
717.442	53.87
717.764	53.87
718.085	53.89
718.407	53.93
718.729	53.93
719.051	53.94
719.373	53.93
719.695	53.94
720.016	53.94
720.338	53.94
720.659	53.94
720.981	53.95
721.302	53.97
721.624	53.98
721.945	53.99
722.267	53.99
722.588	54.02
722.909	53.98
723.231	53.99
723.552	54.01
723.873	54.03
724.194	54.06
724.515	54.09
724.836	54.09
725.157	54.09
725.478	54.08
725.799	54.11
726.12	54.11
726.441	54.1
726.762	54.08
727.083	54.06
727.403	54.08
727.724	54.1
728.045	54.09
728.365	54.1
728.686	54.12
729.006	54.14
729.327	54.17
729.647	54.17
729.967	54.2
730.288	54.21
730.608	54.22
730.928	54.24
731.249	54.22
731.569	54.2
731.889	54.19
732.209	54.18
732.529	54.2
732.849	54.22
733.169	54.24
733.489	54.24
733.809	54.26
734.129	54.29
734.448	54.27
734.768	54.27
735.088	54.27
735.408	54.28
735.727	54.27
736.047	54.27
736.366	54.29
736.686	54.3
737.005	54.28
737.325	54.24
737.644	54.23
737.963	54.22
738.283	54.2
738.602	54.22
738.921	54.2
739.24	54.2
739.56	54.23
739.879	54.23
740.198	54.23
740.517	54.21
740.836	54.23
741.155	54.22
741.473	54.19
741.792	54.17
742.111	54.18
742.43	54.14
742.748	54.13
743.067	54.13
743.386	54.13
743.704	54.12
744.023	54.14
744.341	54.15
744.66	54.17
744.978	54.17
745.297	54.18
745.615	54.18
745.933	54.14
746.252	54.11
746.57	54.11
746.888	54.1
747.206	54.08
747.524	54.08
747.842	54.07
748.16	54.04
748.478	54.05
748.796	54.05
749.114	54.08
749.432	54.06
749.749	54.08
750.067	54.08
750.385	54.1
750.703	54.11
751.02	54.1
751.338	54.12
751.655	54.1
751.973	54.12
752.29	54.1
752.608	54.09
752.925	54.11
753.242	54.14
753.56	54.11
753.877	54.14
754.194	54.14
754.511	54.18
754.828	54.18
755.145	54.15
755.462	54.18
755.779	54.24
756.096	54.25
756.413	54.25
756.73	54.25
757.047	54.22
757.364	54.24
757.68	54.22
757.997	54.24
758.314	54.23
758.63	54.24
758.947	54.27
759.264	54.3
759.58	54.32
759.896	54.35
760.213	54.35
760.529	54.34
760.846	54.36
761.162	54.4
761.478	54.39
761.794	54.39
762.11	54.4
762.426	54.41
762.743	54.43
763.059	54.43
763.375	54.43
763.69	54.44
764.006	54.48
764.322	54.47
764.638	54.48
764.954	54.48
765.27	54.5
765.585	54.49
765.901	54.52
766.216	54.53
766.532	54.56
766.848	54.57
767.163	54.59
767.478	54.6
767.794	54.63
768.109	54.63
768.424	54.61
768.74	54.58
769.055	54.55
769.37	54.55
769.685	54.54
770	54.54
770.315	54.53
770.63	54.57
770.945	54.56
771.26	54.59
771.575	54.56
771.89	54.55
772.205	54.52
772.52	54.52
772.834	54.52
773.149	54.55
773.464	54.56
773.778	54.59
774.093	54.56
774.407	54.61
774.722	54.61
775.036	54.6
775.351	54.58
775.665	54.52
775.979	54.54
776.293	54.57
776.608	54.58
776.922	54.57
777.236	54.56
777.55	54.55
777.864	54.56
778.178	54.53
778.492	54.6
778.806	54.53
779.12	54.48
779.434	54.44
779.747	54.35
780.061	54.36
780.375	54.35
780.689	54.31
781.002	54.3
781.316	54.26
781.629	54.24
781.943	54.29
782.256	54.31
782.57	54.32
782.883	54.33
783.196	54.35
783.51	54.32
783.823	54.29
784.136	54.27
784.449	54.33
784.762	54.37
785.075	54.41
785.388	54.39
785.701	54.33
786.014	54.36
786.327	54.37
786.64	54.32
786.953	54.35
787.266	54.31
787.578	54.32
787.891	54.34
788.204	54.31
788.516	54.35
788.829	54.36
789.141	54.34
789.454	54.31
789.766	54.33
790.079	54.41
790.391	54.4
790.703	54.42
791.016	54.46
791.328	54.41
791.64	54.46
791.952	54.51
792.264	54.54
792.576	54.58
792.888	54.52
793.2	54.54
793.512	54.58
793.824	54.62
794.136	54.68
794.448	54.74
794.76	54.68
795.071	54.64
795.383	54.67
795.695	54.64
796.006	54.61
796.318	54.58
796.629	54.66
796.941	54.67
797.252	54.65
797.564	54.57
797.875	54.52
798.186	54.56
798.497	54.56
798.809	54.53
799.12	54.5
799.431	54.45
799.742	54.42
800.053	54.42
800.364	54.43
800.675	54.41
800.986	54.49
801.297	54.44
801.608	54.44
801.918	54.44
802.229	54.45
802.54	54.39
802.851	54.28
803.161	54.28
803.472	54.23
803.782	54.2
804.093	54.21
804.403	54.21
804.714	54.2
805.024	54.17
805.334	54.15
805.645	54.19
805.955	54.17
806.265	54.16
806.575	54.13
806.885	54.14
807.195	54.11
807.505	54.16
807.815	54.18
808.125	54.22
808.435	54.25
808.745	54.3
809.055	54.32
809.365	54.28
809.674	54.26
809.984	54.29
810.294	54.36
810.603	54.36
810.913	54.36
811.222	54.43
811.532	54.34
811.841	54.38
812.151	54.44
812.46	54.46
812.769	54.49
813.079	54.46
813.388	54.46
813.697	54.37
814.006	54.46
814.315	54.44
814.624	54.48
814.933	54.46
815.242	54.5
815.551	54.52
815.86	54.51
816.169	54.56
816.478	54.63
816.786	54.61
817.095	54.54
817.404	54.5
817.712	54.54
818.021	54.57
818.33	54.57
818.638	54.55
818.947	54.51
819.255	54.54
819.563	54.54
819.872	54.57
820.18	54.59
820.488	54.62
820.796	54.64
821.105	54.64
821.413	54.68
821.721	54.7
822.029	54.72
822.337	54.74
822.645	54.72
822.953	54.73
823.26	54.73
823.568	54.72
823.876	54.68
824.184	54.71
824.491	54.72
824.799	54.73
825.107	54.74
825.414	54.74
825.722	54.74
826.029	54.76
826.337	54.77
826.644	54.74
826.951	54.75
827.259	54.75
827.566	54.77
827.873	54.78
828.18	54.8
828.488	54.81
828.795	54.81
829.102	54.79
829.409	54.78
829.716	54.82
830.023	54.85
830.329	54.84
830.636	54.84
830.943	54.84
831.25	54.87
831.557	54.9
831.863	54.91
832.17	54.88
832.476	54.87
832.783	54.85
833.089	54.82
833.396	54.76
833.702	54.76
834.009	54.71
834.315	54.7
834.621	54.67
834.928	54.68
835.234	54.67
835.54	54.65
835.846	54.67
836.152	54.7
836.458	54.74
836.764	54.77
837.07	54.75
837.376	54.73
837.682	54.69
837.988	54.71
838.293	54.7
838.599	54.69
838.905	54.68
839.211	54.7
839.516	54.62
839.822	54.61
840.127	54.56
840.433	54.51
840.738	54.49
841.044	54.45
841.349	54.42
841.654	54.37
841.959	54.45
842.265	54.49
842.57	54.52
842.875	54.54
843.18	54.53
843.485	54.52
843.79	54.51
844.095	54.55
844.4	54.51
844.705	54.68
845.01	54.57
845.315	54.57
845.619	54.65
845.924	54.7
846.229	54.64
846.533	54.63
846.838	54.72
847.142	54.75
847.447	54.65
847.751	54.7
848.056	54.77
848.36	54.75
848.664	54.72
848.969	54.81
849.273	54.76
849.577	54.78
849.881	54.78
850.185	54.75
850.489	54.68
850.794	54.79
851.097	54.74
851.401	54.79
851.705	54.93
852.009	55.13
852.313	55.19
852.617	55.27
852.92	55.29
853.224	55.33
853.528	55.44
853.831	55.46
854.135	55.54
854.438	55.49
854.742	55.43
855.045	55.42
855.349	55.48
855.652	55.52
855.955	55.52
856.259	55.39
856.562	55.44
856.865	55.41
857.168	55.33
857.471	55.49
857.774	55.51
858.077	55.37
858.38	55.39
858.683	55.48
858.986	55.46
859.289	55.17
859.592	55.15
859.894	55.16
860.197	55.16
860.5	54.99
860.802	54.95
861.105	54.92
861.407	54.92
861.71	54.96
862.012	54.98
862.315	54.98
862.617	55.11
862.919	55.29
863.222	55.24
863.524	55.28
863.826	55.24
864.128	55
864.43	54.96
864.732	55.12
865.034	55.15
865.336	55.2
865.638	55.16
865.94	55.27
866.242	55.41
866.544	55.5
866.846	55.51
867.147	55.41
867.449	55.4
867.751	55.29
868.052	55.27
868.354	55.41
868.655	55.42
868.957	55.34
869.258	55.35
869.56	55.26
869.861	55.23
870.162	55.31
870.463	55.3
870.765	55.3
871.066	55.52
871.367	55.47
871.668	55.7
871.969	55.74
872.27	55.68
872.571	55.63
872.872	55.7
873.173	55.75
873.473	55.81
873.774	55.82
874.075	55.81
874.376	55.77
874.676	55.83
874.977	55.75
875.277	55.58
875.578	55.55
875.878	55.55
876.179	55.68
876.479	55.9
876.78	55.97
877.08	55.63
877.38	55.61
877.68	55.61
877.981	55.67
878.281	55.39
878.581	55.28
