Data from UWBM59333_Reflection_00013.txt Node
Date: Sun May 02 13:49:10 EDT 2021
User: vgr7
Spectrometer: USB2G7710
Scans to average: 10
Trigger mode: 4
Integration Time (sec): 1.000000E-1
Electric dark correction enabled: true
Boxcar width: 20
XAxis mode: Wavelengths
Number of Pixels in Spectrum: 2048
>>>>>Begin Spectral Data<<<<<
177.721	26.45
178.105	56.86
178.488	57.46
178.871	83.33
179.254	60.59
179.636	59.92
180.019	46.64
180.402	43.47
180.785	46.54
181.168	46.38
181.55	49.72
181.933	51.36
182.316	42.85
182.698	36.99
183.081	36.91
183.463	41.24
183.846	39.74
184.228	39.65
184.611	42.48
184.993	42.83
185.376	41.28
185.758	41.87
186.14	44.04
186.522	38.47
186.904	37.55
187.287	39.38
187.669	38.69
188.051	36.34
188.433	35.99
188.815	32.92
189.197	34.83
189.579	34.05
189.961	34.62
190.342	35.58
190.724	37.74
191.106	37.24
191.488	37.38
191.869	35.31
192.251	32.39
192.633	31.55
193.014	29.99
193.396	28.98
193.777	28.64
194.159	28.46
194.54	27.05
194.922	26.63
195.303	26.61
195.684	26.52
196.065	26.44
196.447	27.75
196.828	26.92
197.209	25.19
197.59	23.97
197.971	25.67
198.352	26.15
198.733	26.38
199.114	23.62
199.495	23.94
199.876	23.49
200.257	22.42
200.638	22.61
201.018	24.12
201.399	24.31
201.78	23.41
202.16	24.07
202.541	23.16
202.922	23.36
203.302	23.2
203.683	23.86
204.063	24.62
204.444	25.25
204.824	23.86
205.204	22.6
205.585	24.29
205.965	24.72
206.345	23.45
206.725	22.53
207.106	22.35
207.486	21.42
207.866	22.04
208.246	21.29
208.626	20.77
209.006	22.53
209.386	22.28
209.766	22.06
210.145	19.96
210.525	20.48
210.905	20.94
211.285	20.32
211.664	20.41
212.044	17.37
212.424	16.26
212.803	16.2
213.183	16.04
213.562	16.7
213.942	16.65
214.321	16.29
214.701	17.01
215.08	17.61
215.459	18.03
215.838	17.76
216.218	16.28
216.597	15.14
216.976	15.33
217.355	16.37
217.734	16.7
218.113	18.37
218.492	17.13
218.871	17.4
219.25	18.03
219.629	16.76
220.008	16.16
220.387	14.92
220.766	15.23
221.144	13.69
221.523	13.13
221.902	12.81
222.28	12.53
222.659	12.87
223.037	12.69
223.416	12.95
223.794	12.79
224.173	13.72
224.551	13.37
224.929	13.71
225.308	13.35
225.686	13.94
226.064	13.24
226.442	12.37
226.821	12.73
227.199	12.22
227.577	12.4
227.955	12.79
228.333	12.37
228.711	11.79
229.089	10.88
229.467	10.83
229.845	10.39
230.222	10.22
230.6	9.63
230.978	9.27
231.356	9.21
231.733	8.95
232.111	8.8
232.488	8.39
232.866	7.89
233.243	7.54
233.621	7.29
233.998	7.2
234.376	6.89
234.753	6.49
235.13	6.4
235.508	6.49
235.885	6.54
236.262	6.32
236.639	6.22
237.016	6.14
237.393	6.06
237.77	6.01
238.147	5.82
238.524	5.73
238.901	5.71
239.278	5.63
239.655	5.59
240.032	5.42
240.409	5.34
240.785	5.37
241.162	5.34
241.539	5.35
241.915	5.38
242.292	5.36
242.668	5.35
243.045	5.35
243.421	5.29
243.798	5.27
244.174	5.3
244.551	5.34
244.927	5.32
245.303	5.34
245.679	5.3
246.056	5.29
246.432	5.29
246.808	5.25
247.184	5.26
247.56	5.25
247.936	5.24
248.312	5.26
248.688	5.27
249.064	5.26
249.44	5.27
249.815	5.26
250.191	5.24
250.567	5.24
250.943	5.18
251.318	5.12
251.694	5.13
252.069	5.11
252.445	5.09
252.82	5.09
253.196	5.06
253.571	5.04
253.947	5.06
254.322	5.02
254.697	5.02
255.073	5.01
255.448	5.04
255.823	5
256.198	4.97
256.573	4.95
256.948	4.96
257.323	4.93
257.698	4.89
258.073	4.86
258.448	4.83
258.823	4.84
259.198	4.83
259.573	4.81
259.948	4.79
260.322	4.79
260.697	4.76
261.072	4.74
261.446	4.73
261.821	4.73
262.195	4.71
262.57	4.68
262.944	4.67
263.319	4.68
263.693	4.65
264.067	4.65
264.442	4.62
264.816	4.6
265.19	4.6
265.564	4.61
265.938	4.59
266.313	4.61
266.687	4.62
267.061	4.61
267.435	4.61
267.809	4.6
268.183	4.59
268.556	4.58
268.93	4.6
269.304	4.58
269.678	4.57
270.051	4.56
270.425	4.52
270.799	4.5
271.172	4.52
271.546	4.51
271.919	4.5
272.293	4.48
272.666	4.47
273.04	4.5
273.413	4.53
273.787	4.56
274.16	4.53
274.533	4.53
274.906	4.55
275.279	4.54
275.653	4.54
276.026	4.56
276.399	4.57
276.772	4.59
277.145	4.58
277.518	4.59
277.891	4.62
278.263	4.62
278.636	4.62
279.009	4.62
279.382	4.61
279.755	4.61
280.127	4.64
280.5	4.65
280.872	4.66
281.245	4.67
281.617	4.68
281.99	4.68
282.362	4.69
282.735	4.69
283.107	4.71
283.479	4.71
283.852	4.74
284.224	4.74
284.596	4.75
284.968	4.75
285.34	4.77
285.713	4.79
286.085	4.82
286.457	4.84
286.829	4.84
287.201	4.88
287.572	4.9
287.944	4.93
288.316	4.93
288.688	4.94
289.06	4.96
289.431	4.99
289.803	5.02
290.175	5.04
290.546	5.08
290.918	5.13
291.289	5.17
291.661	5.21
292.032	5.23
292.403	5.27
292.775	5.31
293.146	5.34
293.517	5.38
293.889	5.44
294.26	5.49
294.631	5.55
295.002	5.62
295.373	5.65
295.744	5.7
296.115	5.75
296.486	5.81
296.857	5.85
297.228	5.9
297.599	5.97
297.97	6.02
298.34	6.07
298.711	6.13
299.082	6.18
299.452	6.24
299.823	6.3
300.194	6.36
300.564	6.43
300.935	6.49
301.305	6.54
301.676	6.6
302.046	6.67
302.416	6.73
302.787	6.78
303.157	6.85
303.527	6.93
303.897	7.01
304.267	7.1
304.637	7.2
305.008	7.29
305.378	7.38
305.748	7.46
306.117	7.54
306.487	7.63
306.857	7.72
307.227	7.81
307.597	7.89
307.967	7.97
308.336	8.06
308.706	8.13
309.076	8.19
309.445	8.26
309.815	8.32
310.184	8.37
310.554	8.45
310.923	8.53
311.293	8.61
311.662	8.68
312.031	8.76
312.401	8.84
312.77	8.92
313.139	8.99
313.508	9.07
313.877	9.16
314.246	9.25
314.616	9.31
314.985	9.38
315.353	9.46
315.722	9.51
316.091	9.61
316.46	9.68
316.829	9.78
317.198	9.87
317.567	9.97
317.935	10.07
318.304	10.17
318.672	10.28
319.041	10.38
319.41	10.46
319.778	10.55
320.147	10.62
320.515	10.7
320.883	10.77
321.252	10.83
321.62	10.89
321.988	10.96
322.357	11.04
322.725	11.12
323.093	11.18
323.461	11.25
323.829	11.32
324.197	11.38
324.565	11.44
324.933	11.52
325.301	11.58
325.669	11.63
326.037	11.68
326.405	11.73
326.772	11.79
327.14	11.84
327.508	11.88
327.875	11.91
328.243	11.96
328.61	11.99
328.978	12.03
329.346	12.07
329.713	12.13
330.08	12.17
330.448	12.2
330.815	12.25
331.182	12.29
331.55	12.34
331.917	12.37
332.284	12.39
332.651	12.43
333.018	12.47
333.385	12.51
333.752	12.53
334.119	12.57
334.486	12.62
334.853	12.66
335.22	12.72
335.587	12.77
335.954	12.82
336.32	12.87
336.687	12.91
337.054	12.94
337.42	12.96
337.787	12.99
338.153	13.04
338.52	13.06
338.886	13.08
339.253	13.11
339.619	13.15
339.986	13.18
340.352	13.22
340.718	13.26
341.084	13.29
341.451	13.32
341.817	13.34
342.183	13.37
342.549	13.4
342.915	13.43
343.281	13.46
343.647	13.5
344.013	13.52
344.379	13.54
344.745	13.57
345.11	13.6
345.476	13.64
345.842	13.67
346.208	13.69
346.573	13.7
346.939	13.73
347.304	13.76
347.67	13.78
348.035	13.8
348.401	13.83
348.766	13.84
349.132	13.85
349.497	13.86
349.862	13.87
350.228	13.88
350.593	13.88
350.958	13.89
351.323	13.89
351.688	13.91
352.053	13.92
352.418	13.93
352.783	13.93
353.148	13.93
353.513	13.93
353.878	13.93
354.243	13.92
354.608	13.92
354.972	13.92
355.337	13.9
355.702	13.88
356.066	13.88
356.431	13.87
356.795	13.86
357.16	13.84
357.524	13.83
357.889	13.82
358.253	13.81
358.618	13.79
358.982	13.77
359.346	13.75
359.71	13.73
360.075	13.71
360.439	13.67
360.803	13.65
361.167	13.62
361.531	13.61
361.895	13.58
362.259	13.55
362.623	13.51
362.987	13.47
363.351	13.43
363.714	13.41
364.078	13.37
364.442	13.33
364.806	13.29
365.169	13.25
365.533	13.22
365.896	13.17
366.26	13.14
366.623	13.09
366.987	13.04
367.35	12.99
367.714	12.94
368.077	12.88
368.44	12.82
368.803	12.77
369.167	12.71
369.53	12.64
369.893	12.57
370.256	12.5
370.619	12.44
370.982	12.36
371.345	12.29
371.708	12.21
372.071	12.14
372.434	12.07
372.797	11.99
373.159	11.92
373.522	11.86
373.885	11.79
374.247	11.71
374.61	11.64
374.973	11.56
375.335	11.49
375.698	11.41
376.06	11.33
376.423	11.24
376.785	11.16
377.147	11.09
377.51	11.03
377.872	10.96
378.234	10.88
378.596	10.8
378.958	10.73
379.321	10.65
379.683	10.58
380.045	10.51
380.407	10.43
380.769	10.37
381.13	10.29
381.492	10.23
381.854	10.16
382.216	10.08
382.578	10.02
382.939	9.96
383.301	9.9
383.663	9.83
384.024	9.76
384.386	9.69
384.747	9.63
385.109	9.57
385.47	9.5
385.832	9.44
386.193	9.38
386.554	9.32
386.916	9.26
387.277	9.2
387.638	9.14
387.999	9.09
388.36	9.03
388.721	8.97
389.082	8.92
389.443	8.87
389.804	8.82
390.165	8.77
390.526	8.73
390.887	8.68
391.248	8.63
391.609	8.58
391.969	8.53
392.33	8.48
392.691	8.43
393.051	8.37
393.412	8.32
393.772	8.27
394.133	8.22
394.493	8.17
394.854	8.12
395.214	8.06
395.574	8.01
395.935	7.96
396.295	7.91
396.655	7.86
397.015	7.82
397.376	7.77
397.736	7.72
398.096	7.68
398.456	7.62
398.816	7.59
399.176	7.53
399.535	7.48
399.895	7.43
400.255	7.39
400.615	7.35
400.975	7.3
401.334	7.26
401.694	7.21
402.054	7.18
402.413	7.13
402.773	7.09
403.132	7.06
403.492	7.03
403.851	6.99
404.211	6.96
404.57	6.93
404.929	6.9
405.288	6.86
405.648	6.84
406.007	6.82
406.366	6.8
406.725	6.77
407.084	6.75
407.443	6.72
407.802	6.7
408.161	6.68
408.52	6.66
408.879	6.64
409.238	6.63
409.596	6.61
409.955	6.6
410.314	6.58
410.673	6.56
411.031	6.55
411.39	6.53
411.748	6.52
412.107	6.51
412.465	6.5
412.824	6.51
413.182	6.52
413.54	6.54
413.899	6.56
414.257	6.59
414.615	6.63
414.974	6.66
415.332	6.7
415.69	6.74
416.048	6.76
416.406	6.8
416.764	6.82
417.122	6.84
417.48	6.87
417.838	6.89
418.195	6.91
418.553	6.92
418.911	6.93
419.269	6.92
419.626	6.89
419.984	6.86
420.342	6.83
420.699	6.79
421.057	6.74
421.414	6.69
421.772	6.66
422.129	6.63
422.486	6.6
422.844	6.59
423.201	6.57
423.558	6.55
423.915	6.53
424.273	6.52
424.63	6.5
424.987	6.48
425.344	6.46
425.701	6.45
426.058	6.43
426.415	6.41
426.772	6.39
427.128	6.37
427.485	6.34
427.842	6.3
428.199	6.26
428.555	6.23
428.912	6.18
429.269	6.12
429.625	6.07
429.982	6.02
430.338	5.97
430.695	5.92
431.051	5.87
431.407	5.83
431.764	5.8
432.12	5.76
432.476	5.74
432.832	5.72
433.189	5.71
433.545	5.71
433.901	5.73
434.257	5.76
434.613	5.79
434.969	5.82
435.325	5.86
435.681	5.92
436.036	5.95
436.392	5.98
436.748	6
437.104	6.01
437.459	6.04
437.815	6.06
438.171	6.09
438.526	6.13
438.882	6.17
439.237	6.22
439.593	6.27
439.948	6.31
440.304	6.36
440.659	6.39
441.014	6.41
441.369	6.45
441.725	6.47
442.08	6.49
442.435	6.5
442.79	6.5
443.145	6.5
443.5	6.5
443.855	6.49
444.21	6.49
444.565	6.48
444.92	6.46
445.275	6.44
445.629	6.42
445.984	6.4
446.339	6.38
446.693	6.35
447.048	6.32
447.403	6.29
447.757	6.24
448.112	6.2
448.466	6.16
448.82	6.11
449.175	6.07
449.529	6.03
449.883	6
450.238	5.95
450.592	5.93
450.946	5.91
451.3	5.9
451.654	5.9
452.008	5.89
452.362	5.88
452.716	5.87
453.07	5.86
453.424	5.84
453.778	5.82
454.132	5.8
454.486	5.78
454.839	5.75
455.193	5.71
455.547	5.69
455.9	5.65
456.254	5.62
456.607	5.58
456.961	5.54
457.314	5.51
457.668	5.5
458.021	5.49
458.375	5.48
458.728	5.48
459.081	5.49
459.434	5.5
459.787	5.51
460.141	5.53
460.494	5.55
460.847	5.56
461.2	5.58
461.553	5.59
461.906	5.6
462.259	5.62
462.611	5.63
462.964	5.64
463.317	5.66
463.67	5.68
464.022	5.7
464.375	5.72
464.728	5.74
465.08	5.75
465.433	5.77
465.785	5.78
466.138	5.77
466.49	5.76
466.843	5.76
467.195	5.74
467.547	5.73
467.899	5.71
468.252	5.69
468.604	5.67
468.956	5.66
469.308	5.66
469.66	5.67
470.012	5.68
470.364	5.7
470.716	5.72
471.068	5.75
471.42	5.79
471.772	5.84
472.123	5.86
472.475	5.89
472.827	5.91
473.178	5.94
473.53	5.96
473.882	5.99
474.233	6.03
474.585	6.09
474.936	6.18
475.288	6.32
475.639	6.48
475.99	6.67
476.342	6.89
476.693	7.11
477.044	7.34
477.395	7.58
477.746	7.82
478.097	8.06
478.448	8.3
478.8	8.54
479.15	8.75
479.501	8.95
479.852	9.12
480.203	9.29
480.554	9.46
480.905	9.6
481.255	9.75
481.606	9.89
481.957	10.02
482.307	10.14
482.658	10.25
483.009	10.36
483.359	10.47
483.709	10.57
484.06	10.67
484.41	10.76
484.761	10.86
485.111	10.95
485.461	11.03
485.811	11.11
486.162	11.18
486.512	11.24
486.862	11.29
487.212	11.32
487.562	11.34
487.912	11.35
488.262	11.36
488.612	11.35
488.961	11.32
489.311	11.26
489.661	11.17
490.011	11.04
490.36	10.9
490.71	10.74
491.06	10.56
491.409	10.37
491.759	10.18
492.108	9.98
492.458	9.77
492.807	9.56
493.157	9.35
493.506	9.15
493.855	8.97
494.204	8.81
494.554	8.65
494.903	8.5
495.252	8.37
495.601	8.25
495.95	8.13
496.299	8.03
496.648	7.94
496.997	7.86
497.346	7.78
497.695	7.71
498.043	7.65
498.392	7.6
498.741	7.55
499.09	7.51
499.438	7.48
499.787	7.45
500.135	7.44
500.484	7.44
500.832	7.47
501.181	7.5
501.529	7.57
501.878	7.65
502.226	7.75
502.574	7.85
502.923	7.96
503.271	8.08
503.619	8.21
503.967	8.33
504.315	8.46
504.663	8.59
505.011	8.72
505.359	8.86
505.707	9
506.055	9.14
506.403	9.29
506.751	9.45
507.098	9.61
507.446	9.78
507.794	9.96
508.141	10.14
508.489	10.34
508.837	10.55
509.184	10.75
509.531	10.97
509.879	11.19
510.226	11.43
510.574	11.69
510.921	11.95
511.268	12.22
511.616	12.5
511.963	12.79
512.31	13.07
512.657	13.36
513.004	13.64
513.351	13.92
513.698	14.19
514.045	14.44
514.392	14.67
514.739	14.89
515.086	15.09
515.432	15.31
515.779	15.52
516.126	15.73
516.473	15.97
516.819	16.22
517.166	16.5
517.512	16.8
517.859	17.12
518.205	17.45
518.552	17.83
518.898	18.23
519.245	18.69
519.591	19.24
519.937	19.88
520.283	20.61
520.629	21.42
520.976	22.25
521.322	23.12
521.668	24.01
522.014	24.92
522.36	25.81
522.706	26.69
523.052	27.55
523.398	28.35
523.743	29.09
524.089	29.77
524.435	30.39
524.781	31
525.126	31.59
525.472	32.17
525.817	32.74
526.163	33.3
526.509	33.84
526.854	34.39
527.199	34.92
527.545	35.45
527.89	36.01
528.235	36.55
528.581	37.07
528.926	37.55
529.271	38.02
529.616	38.46
529.961	38.88
530.306	39.28
530.651	39.65
530.996	39.99
531.341	40.29
531.686	40.56
532.031	40.81
532.376	41.09
532.721	41.39
533.065	41.72
533.41	42.07
533.755	42.36
534.099	42.61
534.444	42.8
534.788	42.96
535.133	43.08
535.477	43.18
535.822	43.24
536.166	43.25
536.51	43.2
536.855	43.08
537.199	42.92
537.543	42.76
537.887	42.65
538.231	42.58
538.576	42.52
538.92	42.44
539.264	42.35
539.608	42.23
539.951	42.08
540.295	41.93
540.639	41.77
540.983	41.58
541.327	41.37
541.671	41.14
542.014	40.95
542.358	40.78
542.701	40.7
543.045	40.71
543.389	40.75
543.732	40.82
544.075	40.91
544.419	41.01
544.762	41.12
545.105	41.26
545.449	41.4
545.792	41.57
546.135	41.72
546.478	41.83
546.821	41.88
547.165	41.85
547.508	41.75
547.851	41.6
548.194	41.39
548.536	41.14
548.879	40.84
549.222	40.52
549.565	40.2
549.908	39.87
550.25	39.57
550.593	39.35
550.936	39.21
551.278	39.13
551.621	39.1
551.963	39.09
552.306	39.11
552.648	39.17
552.991	39.26
553.333	39.37
553.675	39.52
554.017	39.72
554.36	39.93
554.702	40.18
555.044	40.48
555.386	40.82
555.728	41.2
556.07	41.52
556.412	41.85
556.754	42.11
557.096	42.3
557.438	42.5
557.78	42.7
558.121	42.89
558.463	43.08
558.805	43.27
559.147	43.46
559.488	43.66
559.83	43.85
560.171	44.03
560.513	44.2
560.854	44.38
561.196	44.55
561.537	44.72
561.878	44.88
562.22	45.04
562.561	45.19
562.902	45.35
563.243	45.51
563.584	45.67
563.925	45.83
564.266	45.98
564.607	46.13
564.948	46.29
565.289	46.44
565.63	46.59
565.971	46.74
566.312	46.88
566.653	47.02
566.993	47.17
567.334	47.3
567.675	47.43
568.015	47.55
568.356	47.66
568.696	47.78
569.037	47.89
569.377	47.99
569.718	48.11
570.058	48.21
570.398	48.31
570.739	48.4
571.079	48.5
571.419	48.58
571.759	48.67
572.099	48.75
572.439	48.84
572.779	48.91
573.119	48.99
573.459	49.05
573.799	49.12
574.139	49.18
574.479	49.25
574.819	49.32
575.158	49.39
575.498	49.47
575.838	49.53
576.177	49.59
576.517	49.66
576.856	49.72
577.196	49.79
577.535	49.85
577.875	49.91
578.214	49.97
578.553	50.03
578.893	50.08
579.232	50.14
579.571	50.19
579.91	50.24
580.25	50.29
580.589	50.35
580.928	50.4
581.267	50.46
581.606	50.51
581.945	50.57
582.283	50.63
582.622	50.68
582.961	50.73
583.3	50.8
583.639	50.86
583.977	50.91
584.316	50.97
584.654	51.04
584.993	51.09
585.332	51.16
585.67	51.22
586.008	51.28
586.347	51.33
586.685	51.39
587.024	51.46
587.362	51.53
587.7	51.6
588.038	51.69
588.376	51.77
588.715	51.84
589.053	51.91
589.391	51.97
589.729	52.05
590.067	52.13
590.404	52.21
590.742	52.27
591.08	52.33
591.418	52.4
591.756	52.45
592.093	52.49
592.431	52.54
592.769	52.6
593.106	52.64
593.444	52.69
593.781	52.73
594.119	52.77
594.456	52.81
594.793	52.84
595.131	52.89
595.468	52.93
595.805	52.99
596.143	53.03
596.48	53.08
596.817	53.13
597.154	53.19
597.491	53.25
597.828	53.31
598.165	53.36
598.502	53.41
598.839	53.46
599.176	53.51
599.512	53.54
599.849	53.58
600.186	53.62
600.523	53.67
600.859	53.7
601.196	53.73
601.532	53.76
601.869	53.79
602.205	53.81
602.542	53.84
602.878	53.88
603.215	53.91
603.551	53.94
603.887	53.96
604.223	53.98
604.56	54.02
604.896	54.05
605.232	54.06
605.568	54.09
605.904	54.12
606.24	54.14
606.576	54.16
606.912	54.18
607.248	54.2
607.583	54.22
607.919	54.24
608.255	54.26
608.591	54.29
608.926	54.3
609.262	54.32
609.597	54.33
609.933	54.35
610.268	54.37
610.604	54.37
610.939	54.37
611.275	54.38
611.61	54.39
611.945	54.39
612.281	54.4
612.616	54.39
612.951	54.4
613.286	54.41
613.621	54.42
613.956	54.43
614.291	54.44
614.626	54.45
614.961	54.47
615.296	54.47
615.631	54.48
615.966	54.5
616.3	54.51
616.635	54.53
616.97	54.54
617.304	54.53
617.639	54.55
617.973	54.55
618.308	54.56
618.642	54.57
618.977	54.6
619.311	54.63
619.646	54.66
619.98	54.67
620.314	54.68
620.648	54.72
620.983	54.74
621.317	54.78
621.651	54.81
621.985	54.82
622.319	54.82
622.653	54.86
622.987	54.88
623.321	54.89
623.655	54.91
623.988	54.92
624.322	54.94
624.656	54.96
624.99	54.97
625.323	54.98
625.657	54.98
625.99	54.99
626.324	55.02
626.657	55.03
626.991	55.03
627.324	55.04
627.658	55.07
627.991	55.08
628.324	55.08
628.657	55.09
628.991	55.1
629.324	55.12
629.657	55.13
629.99	55.13
630.323	55.14
630.656	55.14
630.989	55.16
631.322	55.16
631.655	55.18
631.987	55.18
632.32	55.19
632.653	55.19
632.986	55.2
633.318	55.21
633.651	55.23
633.984	55.23
634.316	55.22
634.649	55.23
634.981	55.22
635.313	55.23
635.646	55.25
635.978	55.27
636.31	55.26
636.643	55.27
636.975	55.29
637.307	55.28
637.639	55.31
637.971	55.32
638.303	55.34
638.635	55.35
638.967	55.36
639.299	55.38
639.631	55.41
639.963	55.41
640.295	55.42
640.626	55.44
640.958	55.46
641.29	55.48
641.621	55.48
641.953	55.51
642.285	55.54
642.616	55.56
642.948	55.57
643.279	55.58
643.61	55.6
643.942	55.61
644.273	55.62
644.604	55.63
644.936	55.66
645.267	55.67
645.598	55.7
645.929	55.73
646.26	55.75
646.591	55.76
646.922	55.76
647.253	55.78
647.584	55.8
647.915	55.82
648.245	55.83
648.576	55.86
648.907	55.87
649.238	55.89
649.568	55.9
649.899	55.93
650.229	55.94
650.56	55.96
650.89	55.99
651.221	56
651.551	56.01
651.882	56
652.212	56.02
652.542	56.04
652.872	56.05
653.203	56.04
653.533	56.07
653.863	56.08
654.193	56.11
654.523	56.13
654.853	56.13
655.183	56.16
655.513	56.15
655.843	56.15
656.172	56.15
656.502	56.18
656.832	56.2
657.162	56.22
657.491	56.24
657.821	56.26
658.15	56.28
658.48	56.29
658.809	56.3
659.139	56.3
659.468	56.3
659.798	56.31
660.127	56.31
660.456	56.34
660.785	56.35
661.115	56.36
661.444	56.38
661.773	56.41
662.102	56.41
662.431	56.41
662.76	56.41
663.089	56.42
663.418	56.43
663.747	56.45
664.076	56.46
664.404	56.48
664.733	56.48
665.062	56.5
665.39	56.53
665.719	56.53
666.048	56.56
666.376	56.59
666.705	56.6
667.033	56.6
667.362	56.61
667.69	56.63
668.018	56.61
668.347	56.64
668.675	56.65
669.003	56.67
669.331	56.71
669.659	56.72
669.987	56.72
670.315	56.72
670.643	56.72
670.971	56.73
671.299	56.75
671.627	56.76
671.955	56.79
672.283	56.81
672.61	56.81
672.938	56.81
673.266	56.81
673.593	56.81
673.921	56.79
674.249	56.81
674.576	56.82
674.904	56.82
675.231	56.81
675.558	56.82
675.886	56.85
676.213	56.87
676.54	56.87
676.867	56.86
677.195	56.86
677.522	56.86
677.849	56.84
678.176	56.85
678.503	56.86
678.83	56.86
679.157	56.88
679.484	56.86
679.81	56.86
680.137	56.87
680.464	56.89
680.791	56.9
681.117	56.89
681.444	56.91
681.771	56.92
682.097	56.93
682.424	56.95
682.75	56.96
683.077	56.97
683.403	56.99
683.729	57
684.056	57.02
684.382	57.01
684.708	57.01
685.034	57.03
685.36	57.03
685.686	57.03
686.012	57.06
686.339	57.06
686.664	57.06
686.99	57.09
687.316	57.1
687.642	57.11
687.968	57.14
688.294	57.15
688.619	57.16
688.945	57.16
689.271	57.18
689.596	57.16
689.922	57.2
690.247	57.2
690.573	57.21
690.898	57.23
691.224	57.26
691.549	57.25
691.874	57.26
692.2	57.27
692.525	57.27
692.85	57.29
693.175	57.31
693.5	57.33
693.825	57.34
694.15	57.34
694.475	57.34
694.8	57.35
695.125	57.34
695.45	57.33
695.775	57.32
696.099	57.32
696.424	57.3
696.749	57.31
697.073	57.31
697.398	57.3
697.723	57.31
698.047	57.32
698.372	57.31
698.696	57.32
699.02	57.33
699.345	57.32
699.669	57.34
699.993	57.37
700.318	57.37
700.642	57.39
700.966	57.39
701.29	57.38
701.614	57.39
701.938	57.42
702.262	57.44
702.586	57.44
702.91	57.48
703.234	57.48
703.557	57.52
703.881	57.51
704.205	57.51
704.529	57.52
704.852	57.56
705.176	57.56
705.499	57.58
705.823	57.59
706.146	57.59
706.47	57.59
706.793	57.62
707.117	57.62
707.44	57.66
707.763	57.69
708.086	57.67
708.409	57.7
708.733	57.71
709.056	57.73
709.379	57.75
709.702	57.78
710.025	57.77
710.348	57.79
710.671	57.81
710.993	57.83
711.316	57.86
711.639	57.89
711.962	57.9
712.284	57.91
712.607	57.95
712.93	57.95
713.252	57.96
713.575	57.98
713.897	57.98
714.22	57.98
714.542	58.01
714.864	58.03
715.187	58.04
715.509	58.03
715.831	58.03
716.153	58.05
716.475	58.03
716.798	58.02
717.12	58.05
717.442	58.09
717.764	58.08
718.085	58.08
718.407	58.09
718.729	58.11
719.051	58.12
719.373	58.15
719.695	58.17
720.016	58.17
720.338	58.16
720.659	58.14
720.981	58.17
721.302	58.21
721.624	58.2
721.945	58.27
722.267	58.28
722.588	58.3
722.909	58.3
723.231	58.32
723.552	58.31
723.873	58.34
724.194	58.34
724.515	58.33
724.836	58.34
725.157	58.35
725.478	58.36
725.799	58.37
726.12	58.38
726.441	58.39
726.762	58.4
727.083	58.42
727.403	58.44
727.724	58.41
728.045	58.41
728.365	58.41
728.686	58.43
729.006	58.43
729.327	58.45
729.647	58.48
729.967	58.48
730.288	58.5
730.608	58.48
730.928	58.49
731.249	58.49
731.569	58.46
731.889	58.45
732.209	58.48
732.529	58.47
732.849	58.48
733.169	58.47
733.489	58.51
733.809	58.51
734.129	58.48
734.448	58.5
734.768	58.53
735.088	58.5
735.408	58.53
735.727	58.53
736.047	58.54
736.366	58.55
736.686	58.58
737.005	58.57
737.325	58.57
737.644	58.59
737.963	58.57
738.283	58.58
738.602	58.57
738.921	58.55
739.24	58.57
739.56	58.58
739.879	58.56
740.198	58.57
740.517	58.54
740.836	58.52
741.155	58.51
741.473	58.51
741.792	58.5
742.111	58.49
742.43	58.43
742.748	58.43
743.067	58.43
743.386	58.46
743.704	58.46
744.023	58.47
744.341	58.46
744.66	58.5
744.978	58.48
745.297	58.48
745.615	58.48
745.933	58.5
746.252	58.53
746.57	58.52
746.888	58.55
747.206	58.57
747.524	58.54
747.842	58.54
748.16	58.53
748.478	58.5
748.796	58.5
749.114	58.5
749.432	58.51
749.749	58.51
750.067	58.53
750.385	58.58
750.703	58.57
751.02	58.54
751.338	58.53
751.655	58.54
751.973	58.57
752.29	58.55
752.608	58.51
752.925	58.53
753.242	58.52
753.56	58.58
753.877	58.61
754.194	58.66
754.511	58.68
754.828	58.74
755.145	58.76
755.462	58.81
755.779	58.82
756.096	58.85
756.413	58.84
756.73	58.87
757.047	58.87
757.364	58.89
757.68	58.89
757.997	58.98
758.314	58.96
758.63	58.99
758.947	58.97
759.264	58.98
759.58	58.99
759.896	59.02
760.213	59.04
760.529	59.07
760.846	59.09
761.162	59.09
761.478	59.11
761.794	59.11
762.11	59.12
762.426	59.13
762.743	59.13
763.059	59.1
763.375	59.05
763.69	59.06
764.006	59.1
764.322	59.1
764.638	59.09
764.954	59.07
765.27	59.1
765.585	59.14
765.901	59.14
766.216	59.16
766.532	59.13
766.848	59.15
767.163	59.1
767.478	59.07
767.794	59.06
768.109	59.08
768.424	59.07
768.74	59.05
769.055	59.05
769.37	59.01
769.685	59
770	59
770.315	59.01
770.63	59.02
770.945	58.99
771.26	58.99
771.575	58.97
771.89	59
772.205	58.99
772.52	58.96
772.834	58.92
773.149	58.93
773.464	58.91
773.778	58.88
774.093	58.88
774.407	58.85
774.722	58.85
775.036	58.8
775.351	58.81
775.665	58.8
775.979	58.84
776.293	58.85
776.608	58.85
776.922	58.86
777.236	58.89
777.55	58.87
777.864	58.91
778.178	58.89
778.492	58.85
778.806	58.84
779.12	58.85
779.434	58.87
779.747	58.87
780.061	58.91
780.375	58.95
780.689	58.93
781.002	58.93
781.316	58.93
781.629	58.94
781.943	58.92
782.256	58.99
782.57	58.97
782.883	58.99
783.196	59
783.51	58.98
783.823	58.99
784.136	58.98
784.449	59
784.762	58.99
785.075	59.01
785.388	59.02
785.701	58.97
786.014	58.94
786.327	58.93
786.64	58.94
786.953	58.99
787.266	58.98
787.578	59.01
787.891	59.05
788.204	59.04
788.516	59.06
788.829	59
789.141	59
789.454	58.96
789.766	58.9
790.079	58.9
790.391	58.92
790.703	58.91
791.016	58.91
791.328	58.94
791.64	58.97
791.952	58.96
792.264	58.99
792.576	58.96
792.888	58.99
793.2	59
793.512	59.04
793.824	59.07
794.136	59.07
794.448	59.07
794.76	59.09
795.071	59.03
795.383	59.08
795.695	59.04
796.006	59.04
796.318	59.03
796.629	59.02
796.941	59.04
797.252	59.02
797.564	58.99
797.875	58.97
798.186	58.99
798.497	59.07
798.809	59.07
799.12	59.15
799.431	59.19
799.742	59.15
800.053	59.16
800.364	59.16
800.675	59.2
800.986	59.22
801.297	59.22
801.608	59.26
801.918	59.28
802.229	59.31
802.54	59.37
802.851	59.4
803.161	59.44
803.472	59.47
803.782	59.49
804.093	59.52
804.403	59.52
804.714	59.54
805.024	59.51
805.334	59.51
805.645	59.46
805.955	59.46
806.265	59.47
806.575	59.41
806.885	59.41
807.195	59.43
807.505	59.43
807.815	59.44
808.125	59.34
808.435	59.38
808.745	59.33
809.055	59.34
809.365	59.35
809.674	59.41
809.984	59.49
810.294	59.49
810.603	59.47
810.913	59.43
811.222	59.41
811.532	59.39
811.841	59.34
812.151	59.32
812.46	59.31
812.769	59.34
813.079	59.39
813.388	59.34
813.697	59.35
814.006	59.36
814.315	59.37
814.624	59.39
814.933	59.47
815.242	59.45
815.551	59.43
815.86	59.42
816.169	59.39
816.478	59.45
816.786	59.46
817.095	59.45
817.404	59.48
817.712	59.51
818.021	59.55
818.33	59.6
818.638	59.58
818.947	59.54
819.255	59.58
819.563	59.58
819.872	59.61
820.18	59.62
820.488	59.64
820.796	59.68
821.105	59.7
821.413	59.75
821.721	59.78
822.029	59.78
822.337	59.78
822.645	59.77
822.953	59.79
823.26	59.8
823.568	59.85
823.876	59.85
824.184	59.88
824.491	59.89
824.799	59.88
825.107	59.88
825.414	59.89
825.722	59.86
826.029	59.87
826.337	59.87
826.644	59.88
826.951	59.88
827.259	59.89
827.566	59.86
827.873	59.83
828.18	59.84
828.488	59.84
828.795	59.85
829.102	59.83
829.409	59.85
829.716	59.87
830.023	59.84
830.329	59.86
830.636	59.85
830.943	59.86
831.25	59.9
831.557	59.94
831.863	59.96
832.17	60.01
832.476	60
832.783	60
833.089	60.01
833.396	60.01
833.702	60
834.009	59.94
834.315	59.93
834.621	59.92
834.928	59.89
835.234	59.91
835.54	59.89
835.846	59.9
836.152	59.81
836.458	59.82
836.764	59.79
837.07	59.77
837.376	59.82
837.682	59.85
837.988	59.84
838.293	59.9
838.599	59.9
838.905	59.85
839.211	59.84
839.516	59.86
839.822	59.84
840.127	59.89
840.433	59.93
840.738	59.97
841.044	59.96
841.349	59.95
841.654	59.93
841.959	59.92
842.265	59.94
842.57	59.98
842.875	59.98
843.18	59.96
843.485	59.97
843.79	59.95
844.095	59.96
844.4	59.91
844.705	59.9
845.01	59.92
845.315	59.9
845.619	59.93
845.924	59.91
846.229	59.9
846.533	59.92
846.838	59.9
847.142	60
847.447	59.96
847.751	60.04
848.056	59.95
848.36	60.04
848.664	60.13
848.969	60.11
849.273	60.14
849.577	60.15
849.881	59.95
850.185	59.99
850.489	59.9
850.794	59.85
851.097	59.89
851.401	59.94
851.705	59.95
852.009	60.04
852.313	59.98
852.617	59.97
852.92	60.09
853.224	59.94
853.528	59.95
853.831	60.17
854.135	60.12
854.438	60.01
854.742	60.1
855.045	60.06
855.349	60.15
855.652	60.3
855.955	60.2
856.259	60.26
856.562	60.3
856.865	60.4
857.168	60.36
857.471	60.3
857.774	60.26
858.077	60.23
858.38	60.33
858.683	60.43
858.986	60.52
859.289	60.57
859.592	60.57
859.894	60.79
860.197	60.57
860.5	60.68
860.802	60.57
861.105	60.65
861.407	60.45
861.71	60.35
862.012	60.2
862.315	60.37
862.617	60.4
862.919	60.56
863.222	60.59
863.524	60.51
863.826	60.55
864.128	60.56
864.43	60.39
864.732	60.62
865.034	60.66
865.336	60.6
865.638	60.58
865.94	60.49
866.242	60.39
866.544	60.55
866.846	60.89
867.147	60.69
867.449	60.7
867.751	60.49
868.052	60.49
868.354	60.41
868.655	60.32
868.957	60.17
869.258	60.23
869.56	60.26
869.861	60.32
870.162	60.53
870.463	60.61
870.765	60.57
871.066	60.63
871.367	60.6
871.668	60.65
871.969	60.78
872.27	60.67
872.571	60.85
872.872	60.87
873.173	60.92
873.473	60.86
873.774	61.05
874.075	61.11
874.376	61.27
874.676	61.34
874.977	61.28
875.277	61.29
875.578	61.28
875.878	61.36
876.179	61.39
876.479	61.41
876.78	61.54
877.08	61.41
877.38	61.4
877.68	61.55
877.981	61.73
878.281	61.97
878.581	62.02
