Data from UWBM122617_Reflection_00004.txt Node
Date: Sun May 02 12:16:51 EDT 2021
User: vgr7
Spectrometer: USB2G7710
Scans to average: 10
Trigger mode: 4
Integration Time (sec): 1.000000E-1
Electric dark correction enabled: true
Boxcar width: 10
XAxis mode: Wavelengths
Number of Pixels in Spectrum: 2048
>>>>>Begin Spectral Data<<<<<
177.721	240
178.105	245.45
178.488	134.93
178.871	212.66
179.254	-138.46
179.636	-103.64
180.019	101.79
180.402	125
180.785	55.65
181.168	43
181.55	26.87
181.933	18.99
182.316	0
182.698	54.93
183.081	-27.05
183.463	-53.57
183.846	-22.56
184.228	-15.52
184.611	-15.84
184.993	6.38
185.376	10.18
185.758	-7.63
186.14	-15.62
186.522	-18.8
186.904	-16.08
187.287	-15.61
187.669	-16.78
188.051	-17.15
188.433	-8.79
188.815	-9.98
189.197	-9.64
189.579	-9.18
189.961	-13.26
190.342	-11.42
190.724	-5.33
191.106	-3.59
191.488	1.43
191.869	-2.39
192.251	-5.57
192.633	-8.31
193.014	-14.24
193.396	-16.68
193.777	-12.66
194.159	-12.25
194.54	-17.6
194.922	-16.98
195.303	-10.94
195.684	-6.38
196.065	-6.97
196.447	-12.58
196.828	-15.23
197.209	-16.84
197.59	-18.28
197.971	-14.51
198.352	-11.35
198.733	-9.66
199.114	-7.63
199.495	-8.71
199.876	-10.28
200.257	-7.08
200.638	-9.22
201.018	-4.25
201.399	1.11
201.78	-1.66
202.16	-1.66
202.541	0
202.922	-1.27
203.302	-5.85
203.683	-10.85
204.063	-13.34
204.444	-10.04
204.824	-6.77
205.204	-4.67
205.585	-3.52
205.965	-7.88
206.345	-11.46
206.725	-19.29
207.106	-19.34
207.486	-18.37
207.866	-13.7
208.246	-15.73
208.626	-11.21
209.006	-11.95
209.386	-19.43
209.766	-20.87
210.145	-19.84
210.525	-23.04
210.905	-18.58
211.285	-19.16
211.664	-19.68
212.044	-17.19
212.424	-13.7
212.803	-15.14
213.183	-14.54
213.562	-12.66
213.942	-8.75
214.321	-9.61
214.701	-11.74
215.08	-11.69
215.459	-11.38
215.838	-13.97
216.218	-10.48
216.597	-11.7
216.976	-16.92
217.355	-12.01
217.734	-7.29
218.113	-6.5
218.492	-3.59
218.871	-5.47
219.25	-5.95
219.629	-4.96
220.008	-4.74
220.387	-10.86
220.766	-15.03
221.144	-13.2
221.523	-11.53
221.902	-12.68
222.28	-10.83
222.659	-7.61
223.037	-7.03
223.416	-7.66
223.794	-4.1
224.173	-3.27
224.551	-2.42
224.929	0.42
225.308	-0.48
225.686	-2.72
226.064	-1.81
226.442	-0.54
226.821	-0.44
227.199	0.55
227.577	1.4
227.955	1.84
228.333	3.47
228.711	4.33
229.089	3.98
229.467	3.02
229.845	4
230.222	4.5
230.6	5.27
230.978	5.55
231.356	4.83
231.733	3.46
232.111	3.34
232.488	3.31
232.866	2.54
233.243	2.33
233.621	3.11
233.998	3.12
234.376	3.17
234.753	4
235.13	4.14
235.508	4.99
235.885	4.88
236.262	4.75
236.639	5.24
237.016	5.1
237.393	5.25
237.77	5.11
238.147	5.09
238.524	4.95
238.901	4.75
239.278	5
239.655	5.47
240.032	5.52
240.409	5.76
240.785	5.91
241.162	5.88
241.539	5.84
241.915	5.8
242.292	5.85
242.668	5.78
243.045	5.78
243.421	5.58
243.798	5.55
244.174	5.52
244.551	5.32
244.927	5.29
245.303	5.29
245.679	5.26
246.056	5.18
246.432	5.17
246.808	5.27
247.184	5.23
247.56	5.21
247.936	5.17
248.312	5.11
248.688	5.13
249.064	5.1
249.44	5.09
249.815	5.01
250.191	4.85
250.567	4.71
250.943	4.68
251.318	4.71
251.694	4.65
252.069	4.57
252.445	4.64
252.82	4.54
253.196	4.48
253.571	4.43
253.947	4.54
254.322	4.5
254.697	4.47
255.073	4.48
255.448	4.47
255.823	4.42
256.198	4.27
256.573	4.25
256.948	4.3
257.323	4.38
257.698	4.4
258.073	4.47
258.448	4.53
258.823	4.53
259.198	4.52
259.573	4.49
259.948	4.53
260.322	4.48
260.697	4.47
261.072	4.48
261.446	4.44
261.821	4.4
262.195	4.35
262.57	4.27
262.944	4.25
263.319	4.22
263.693	4.23
264.067	4.31
264.442	4.28
264.816	4.27
265.19	4.16
265.564	4.18
265.938	4.18
266.313	4.12
266.687	4.05
267.061	4.06
267.435	4.12
267.809	4.14
268.183	4.23
268.556	4.28
268.93	4.27
269.304	4.28
269.678	4.29
270.051	4.28
270.425	4.29
270.799	4.29
271.172	4.27
271.546	4.27
271.919	4.27
272.293	4.25
272.666	4.22
273.04	4.22
273.413	4.11
273.787	4.06
274.16	4.12
274.533	4.13
274.906	4.09
275.279	4.09
275.653	4.08
276.026	4.03
276.399	4.01
276.772	4
277.145	4.07
277.518	4.04
277.891	4.09
278.263	4.13
278.636	4.18
279.009	4.21
279.382	4.18
279.755	4.17
280.127	4.22
280.5	4.25
280.872	4.26
281.245	4.39
281.617	4.4
281.99	4.35
282.362	4.36
282.735	4.33
283.107	4.31
283.479	4.33
283.852	4.33
284.224	4.41
284.596	4.37
284.968	4.36
285.34	4.38
285.713	4.41
286.085	4.37
286.457	4.35
286.829	4.32
287.201	4.32
287.572	4.32
287.944	4.33
288.316	4.35
288.688	4.36
289.06	4.33
289.431	4.33
289.803	4.35
290.175	4.37
290.546	4.36
290.918	4.38
291.289	4.33
291.661	4.33
292.032	4.28
292.403	4.3
292.775	4.27
293.146	4.22
293.517	4.2
293.889	4.21
294.26	4.17
294.631	4.17
295.002	4.16
295.373	4.17
295.744	4.14
296.115	4.14
296.486	4.13
296.857	4.13
297.228	4.13
297.599	4.13
297.97	4.11
298.34	4.16
298.711	4.13
299.082	4.13
299.452	4.09
299.823	4.1
300.194	4.13
300.564	4.09
300.935	4.1
301.305	4.11
301.676	4.11
302.046	4.1
302.416	4.12
302.787	4.15
303.157	4.13
303.527	4.15
303.897	4.09
304.267	4.11
304.637	4.09
305.008	4.13
305.378	4.1
305.748	4.11
306.117	4.06
306.487	4.06
306.857	4.1
307.227	4.09
307.597	4.06
307.967	4.02
308.336	4.02
308.706	4.06
309.076	4.03
309.445	3.98
309.815	3.96
310.184	3.95
310.554	3.95
310.923	3.91
311.293	3.91
311.662	3.93
312.031	3.89
312.401	3.9
312.77	3.85
313.139	3.84
313.508	3.85
313.877	3.87
314.246	3.84
314.616	3.83
314.985	3.82
315.353	3.82
315.722	3.83
316.091	3.8
316.46	3.79
316.829	3.81
317.198	3.83
317.567	3.86
317.935	3.82
318.304	3.79
318.672	3.82
319.041	3.82
319.41	3.81
319.778	3.87
320.147	3.86
320.515	3.85
320.883	3.88
321.252	3.84
321.62	3.79
321.988	3.8
322.357	3.78
322.725	3.79
323.093	3.8
323.461	3.79
323.829	3.82
324.197	3.79
324.565	3.77
324.933	3.74
325.301	3.76
325.669	3.8
326.037	3.78
326.405	3.75
326.772	3.72
327.14	3.7
327.508	3.62
327.875	3.62
328.243	3.64
328.61	3.59
328.978	3.62
329.346	3.62
329.713	3.61
330.08	3.63
330.448	3.63
330.815	3.61
331.182	3.59
331.55	3.58
331.917	3.59
332.284	3.59
332.651	3.61
333.018	3.58
333.385	3.58
333.752	3.59
334.119	3.59
334.486	3.62
334.853	3.64
335.22	3.66
335.587	3.64
335.954	3.64
336.32	3.66
336.687	3.63
337.054	3.65
337.42	3.66
337.787	3.63
338.153	3.64
338.52	3.66
338.886	3.68
339.253	3.65
339.619	3.65
339.986	3.66
340.352	3.65
340.718	3.67
341.084	3.65
341.451	3.65
341.817	3.66
342.183	3.66
342.549	3.65
342.915	3.65
343.281	3.68
343.647	3.7
344.013	3.72
344.379	3.71
344.745	3.68
345.11	3.7
345.476	3.74
345.842	3.74
346.208	3.73
346.573	3.74
346.939	3.76
347.304	3.72
347.67	3.7
348.035	3.72
348.401	3.69
348.766	3.71
349.132	3.71
349.497	3.73
349.862	3.72
350.228	3.73
350.593	3.76
350.958	3.75
351.323	3.73
351.688	3.72
352.053	3.74
352.418	3.75
352.783	3.72
353.148	3.69
353.513	3.68
353.878	3.7
354.243	3.69
354.608	3.67
354.972	3.7
355.337	3.71
355.702	3.7
356.066	3.71
356.431	3.68
356.795	3.67
357.16	3.64
357.524	3.64
357.889	3.62
358.253	3.62
358.618	3.61
358.982	3.63
359.346	3.63
359.71	3.61
360.075	3.6
360.439	3.62
360.803	3.61
361.167	3.6
361.531	3.59
361.895	3.59
362.259	3.59
362.623	3.61
362.987	3.62
363.351	3.62
363.714	3.63
364.078	3.65
364.442	3.65
364.806	3.66
365.169	3.67
365.533	3.67
365.896	3.66
366.26	3.66
366.623	3.65
366.987	3.65
367.35	3.65
367.714	3.67
368.077	3.66
368.44	3.67
368.803	3.67
369.167	3.66
369.53	3.67
369.893	3.71
370.256	3.68
370.619	3.67
370.982	3.66
371.345	3.64
371.708	3.64
372.071	3.65
372.434	3.65
372.797	3.65
373.159	3.67
373.522	3.66
373.885	3.65
374.247	3.65
374.61	3.65
374.973	3.66
375.335	3.65
375.698	3.66
376.06	3.66
376.423	3.67
376.785	3.67
377.147	3.68
377.51	3.67
377.872	3.67
378.234	3.66
378.596	3.67
378.958	3.68
379.321	3.68
379.683	3.69
380.045	3.68
380.407	3.67
380.769	3.68
381.13	3.69
381.492	3.69
381.854	3.69
382.216	3.7
382.578	3.69
382.939	3.7
383.301	3.7
383.663	3.7
384.024	3.71
384.386	3.71
384.747	3.71
385.109	3.71
385.47	3.72
385.832	3.73
386.193	3.73
386.554	3.73
386.916	3.73
387.277	3.72
387.638	3.72
387.999	3.73
388.36	3.73
388.721	3.74
389.082	3.74
389.443	3.75
389.804	3.74
390.165	3.75
390.526	3.75
390.887	3.75
391.248	3.75
391.609	3.76
391.969	3.77
392.33	3.77
392.691	3.77
393.051	3.77
393.412	3.76
393.772	3.76
394.133	3.77
394.493	3.76
394.854	3.78
395.214	3.78
395.574	3.78
395.935	3.77
396.295	3.76
396.655	3.77
397.015	3.77
397.376	3.77
397.736	3.78
398.096	3.77
398.456	3.77
398.816	3.78
399.176	3.76
399.535	3.76
399.895	3.76
400.255	3.76
400.615	3.76
400.975	3.76
401.334	3.76
401.694	3.75
402.054	3.76
402.413	3.77
402.773	3.77
403.132	3.78
403.492	3.77
403.851	3.78
404.211	3.78
404.57	3.78
404.929	3.78
405.288	3.78
405.648	3.79
406.007	3.8
406.366	3.8
406.725	3.81
407.084	3.8
407.443	3.81
407.802	3.81
408.161	3.81
408.52	3.83
408.879	3.83
409.238	3.84
409.596	3.84
409.955	3.84
410.314	3.84
410.673	3.83
411.031	3.83
411.39	3.84
411.748	3.84
412.107	3.84
412.465	3.85
412.824	3.85
413.182	3.84
413.54	3.85
413.899	3.85
414.257	3.85
414.615	3.85
414.974	3.85
415.332	3.86
415.69	3.87
416.048	3.86
416.406	3.87
416.764	3.88
417.122	3.88
417.48	3.89
417.838	3.9
418.195	3.91
418.553	3.92
418.911	3.92
419.269	3.93
419.626	3.93
419.984	3.94
420.342	3.95
420.699	3.96
421.057	3.96
421.414	3.97
421.772	3.98
422.129	3.99
422.486	4
422.844	4
423.201	4
423.558	4
423.915	4
424.273	4
424.63	4
424.987	4
425.344	3.99
425.701	4
426.058	4
426.415	3.99
426.772	3.99
427.128	3.98
427.485	3.97
427.842	3.97
428.199	3.96
428.555	3.96
428.912	3.95
429.269	3.95
429.625	3.94
429.982	3.94
430.338	3.93
430.695	3.94
431.051	3.94
431.407	3.94
431.764	3.93
432.12	3.93
432.476	3.94
432.832	3.94
433.189	3.94
433.545	3.94
433.901	3.95
434.257	3.95
434.613	3.95
434.969	3.95
435.325	3.96
435.681	3.97
436.036	3.97
436.392	3.98
436.748	3.99
437.104	3.99
437.459	4
437.815	3.99
438.171	4
438.526	4
438.882	4
439.237	4.01
439.593	4.02
439.948	4.02
440.304	4.02
440.659	4.03
441.014	4.02
441.369	4.02
441.725	4.03
442.08	4.04
442.435	4.04
442.79	4.05
443.145	4.05
443.5	4.05
443.855	4.05
444.21	4.06
444.565	4.06
444.92	4.06
445.275	4.07
445.629	4.07
445.984	4.07
446.339	4.07
446.693	4.07
447.048	4.06
447.403	4.07
447.757	4.07
448.112	4.07
448.466	4.07
448.82	4.07
449.175	4.07
449.529	4.06
449.883	4.06
450.238	4.05
450.592	4.05
450.946	4.05
451.3	4.04
451.654	4.03
452.008	4.04
452.362	4.03
452.716	4.03
453.07	4.02
453.424	4.02
453.778	4.02
454.132	4.02
454.486	4.02
454.839	4.02
455.193	4.02
455.547	4.02
455.9	4.02
456.254	4.03
456.607	4.03
456.961	4.04
457.314	4.05
457.668	4.05
458.021	4.06
458.375	4.06
458.728	4.07
459.081	4.07
459.434	4.07
459.787	4.07
460.141	4.07
460.494	4.07
460.847	4.06
461.2	4.06
461.553	4.06
461.906	4.06
462.259	4.06
462.611	4.06
462.964	4.05
463.317	4.05
463.67	4.05
464.022	4.05
464.375	4.04
464.728	4.04
465.08	4.03
465.433	4.03
465.785	4.02
466.138	4.01
466.49	4.01
466.843	4
467.195	4.01
467.547	4.01
467.899	4.01
468.252	4.01
468.604	4.02
468.956	4.02
469.308	4.02
469.66	4.01
470.012	4.01
470.364	4.02
470.716	4.02
471.068	4.01
471.42	4.01
471.772	4.01
472.123	4.02
472.475	4.02
472.827	4.02
473.178	4.02
473.53	4.02
473.882	4.02
474.233	4.03
474.585	4.04
474.936	4.04
475.288	4.04
475.639	4.04
475.99	4.04
476.342	4.05
476.693	4.06
477.044	4.05
477.395	4.06
477.746	4.05
478.097	4.06
478.448	4.09
478.8	4.16
479.15	4.28
479.501	4.42
479.852	4.57
480.203	4.74
480.554	4.91
480.905	5.09
481.255	5.26
481.606	5.43
481.957	5.6
482.307	5.76
482.658	5.91
483.009	6.04
483.359	6.15
483.709	6.24
484.06	6.34
484.41	6.43
484.761	6.51
485.111	6.6
485.461	6.68
485.811	6.75
486.162	6.79
486.512	6.78
486.862	6.74
487.212	6.69
487.562	6.61
487.912	6.53
488.262	6.42
488.612	6.31
488.961	6.19
489.311	6.06
489.661	5.92
490.011	5.79
490.36	5.65
490.71	5.5
491.06	5.35
491.409	5.2
491.759	5.08
492.108	4.97
492.458	4.88
492.807	4.8
493.157	4.72
493.506	4.64
493.855	4.56
494.204	4.49
494.554	4.42
494.903	4.36
495.252	4.3
495.601	4.24
495.95	4.19
496.299	4.14
496.648	4.1
496.997	4.06
497.346	4.04
497.695	4.04
498.043	4.05
498.392	4.09
498.741	4.14
499.09	4.16
499.438	4.16
499.787	4.16
500.135	4.16
500.484	4.17
500.832	4.17
501.181	4.17
501.529	4.18
501.878	4.18
502.226	4.17
502.574	4.18
502.923	4.18
503.271	4.17
503.619	4.18
503.967	4.19
504.315	4.19
504.663	4.19
505.011	4.2
505.359	4.21
505.707	4.21
506.055	4.21
506.403	4.23
506.751	4.24
507.098	4.25
507.446	4.24
507.794	4.24
508.141	4.24
508.489	4.25
508.837	4.25
509.184	4.25
509.531	4.25
509.879	4.25
510.226	4.26
510.574	4.27
510.921	4.26
511.268	4.27
511.616	4.26
511.963	4.27
512.31	4.27
512.657	4.27
513.004	4.28
513.351	4.28
513.698	4.28
514.045	4.28
514.392	4.28
514.739	4.29
515.086	4.3
515.432	4.31
515.779	4.32
516.126	4.32
516.473	4.33
516.819	4.33
517.166	4.33
517.512	4.34
517.859	4.34
518.205	4.34
518.552	4.34
518.898	4.35
519.245	4.34
519.591	4.34
519.937	4.35
520.283	4.35
520.629	4.35
520.976	4.35
521.322	4.35
521.668	4.36
522.014	4.36
522.36	4.35
522.706	4.35
523.052	4.37
523.398	4.41
523.743	4.48
524.089	4.57
524.435	4.67
524.781	4.77
525.126	4.88
525.472	4.98
525.817	5.09
526.163	5.19
526.509	5.27
526.854	5.35
527.199	5.41
527.545	5.45
527.89	5.48
528.235	5.5
528.581	5.52
528.926	5.54
529.271	5.56
529.616	5.58
529.961	5.6
530.306	5.6
530.651	5.59
530.996	5.54
531.341	5.49
531.686	5.41
532.031	5.32
532.376	5.22
532.721	5.1
533.065	4.98
533.41	4.87
533.755	4.77
534.099	4.69
534.444	4.63
534.788	4.58
535.133	4.55
535.477	4.51
535.822	4.48
536.166	4.46
536.51	4.43
536.855	4.41
537.199	4.4
537.543	4.39
537.887	4.39
538.231	4.4
538.576	4.41
538.92	4.44
539.264	4.47
539.608	4.5
539.951	4.52
540.295	4.55
540.639	4.56
540.983	4.57
541.327	4.57
541.671	4.56
542.014	4.56
542.358	4.56
542.701	4.56
543.045	4.56
543.389	4.57
543.732	4.57
544.075	4.57
544.419	4.57
544.762	4.56
545.105	4.55
545.449	4.52
545.792	4.5
546.135	4.47
546.478	4.45
546.821	4.43
547.165	4.42
547.508	4.42
547.851	4.42
548.194	4.42
548.536	4.43
548.879	4.45
549.222	4.45
549.565	4.44
549.908	4.43
550.25	4.42
550.593	4.42
550.936	4.41
551.278	4.4
551.621	4.4
551.963	4.39
552.306	4.39
552.648	4.39
552.991	4.38
553.333	4.38
553.675	4.37
554.017	4.36
554.36	4.37
554.702	4.37
555.044	4.36
555.386	4.36
555.728	4.36
556.07	4.35
556.412	4.35
556.754	4.35
557.096	4.35
557.438	4.35
557.78	4.35
558.121	4.35
558.463	4.35
558.805	4.36
559.147	4.37
559.488	4.37
559.83	4.37
560.171	4.38
560.513	4.38
560.854	4.38
561.196	4.38
561.537	4.39
561.878	4.39
562.22	4.39
562.561	4.39
562.902	4.4
563.243	4.42
563.584	4.42
563.925	4.43
564.266	4.43
564.607	4.44
564.948	4.43
565.289	4.43
565.63	4.43
565.971	4.42
566.312	4.42
566.653	4.42
566.993	4.41
567.334	4.41
567.675	4.42
568.015	4.42
568.356	4.42
568.696	4.42
569.037	4.42
569.377	4.42
569.718	4.43
570.058	4.43
570.398	4.43
570.739	4.43
571.079	4.43
571.419	4.43
571.759	4.43
572.099	4.44
572.439	4.45
572.779	4.46
573.119	4.47
573.459	4.47
573.799	4.48
574.139	4.48
574.479	4.49
574.819	4.49
575.158	4.49
575.498	4.49
575.838	4.49
576.177	4.49
576.517	4.49
576.856	4.48
577.196	4.48
577.535	4.48
577.875	4.48
578.214	4.47
578.553	4.47
578.893	4.45
579.232	4.45
579.571	4.44
579.91	4.43
580.25	4.42
580.589	4.42
580.928	4.41
581.267	4.42
581.606	4.4
581.945	4.39
582.283	4.38
582.622	4.39
582.961	4.4
583.3	4.41
583.639	4.42
583.977	4.43
584.316	4.42
584.654	4.42
584.993	4.42
585.332	4.43
585.67	4.44
586.008	4.45
586.347	4.45
586.685	4.45
587.024	4.44
587.362	4.44
587.7	4.45
588.038	4.45
588.376	4.44
588.715	4.45
589.053	4.46
589.391	4.47
589.729	4.46
590.067	4.45
590.404	4.45
590.742	4.45
591.08	4.45
591.418	4.45
591.756	4.45
592.093	4.44
592.431	4.45
592.769	4.45
593.106	4.45
593.444	4.46
593.781	4.46
594.119	4.47
594.456	4.48
594.793	4.48
595.131	4.48
595.468	4.5
595.805	4.49
596.143	4.49
596.48	4.5
596.817	4.51
597.154	4.5
597.491	4.5
597.828	4.49
598.165	4.49
598.502	4.48
598.839	4.49
599.176	4.49
599.512	4.48
599.849	4.47
600.186	4.47
600.523	4.46
600.859	4.45
601.196	4.46
601.532	4.46
601.869	4.45
602.205	4.46
602.542	4.45
602.878	4.46
603.215	4.46
603.551	4.45
603.887	4.45
604.223	4.46
604.56	4.45
604.896	4.46
605.232	4.46
605.568	4.47
605.904	4.47
606.24	4.47
606.576	4.48
606.912	4.49
607.248	4.49
607.583	4.51
607.919	4.5
608.255	4.51
608.591	4.51
608.926	4.52
609.262	4.52
609.597	4.5
609.933	4.5
610.268	4.5
610.604	4.52
610.939	4.52
611.275	4.5
611.61	4.52
611.945	4.52
612.281	4.54
612.616	4.53
612.951	4.52
613.286	4.53
613.621	4.53
613.956	4.51
614.291	4.52
614.626	4.51
614.961	4.54
615.296	4.53
615.631	4.52
615.966	4.52
616.3	4.51
616.635	4.51
616.97	4.52
617.304	4.51
617.639	4.51
617.973	4.51
618.308	4.51
618.642	4.49
618.977	4.49
619.311	4.47
619.646	4.47
619.98	4.49
620.314	4.48
620.648	4.48
620.983	4.48
621.317	4.46
621.651	4.47
621.985	4.45
622.319	4.46
622.653	4.45
622.987	4.45
623.321	4.46
623.655	4.47
623.988	4.46
624.322	4.46
624.656	4.48
624.99	4.49
625.323	4.5
625.657	4.51
625.99	4.52
626.324	4.54
626.657	4.56
626.991	4.56
627.324	4.56
627.658	4.55
627.991	4.55
628.324	4.56
628.657	4.55
628.991	4.55
629.324	4.56
629.657	4.58
629.99	4.58
630.323	4.58
630.656	4.58
630.989	4.59
631.322	4.59
631.655	4.57
631.987	4.56
632.32	4.56
632.653	4.57
632.986	4.58
633.318	4.55
633.651	4.54
633.984	4.54
634.316	4.55
634.649	4.56
634.981	4.58
635.313	4.59
635.646	4.6
635.978	4.61
636.31	4.61
636.643	4.6
636.975	4.6
637.307	4.6
637.639	4.6
637.971	4.6
638.303	4.62
638.635	4.62
638.967	4.62
639.299	4.61
639.631	4.6
639.963	4.61
640.295	4.62
640.626	4.64
640.958	4.63
641.29	4.61
641.621	4.6
641.953	4.6
642.285	4.61
642.616	4.6
642.948	4.6
643.279	4.6
643.61	4.6
643.942	4.61
644.273	4.6
644.604	4.61
644.936	4.61
645.267	4.61
645.598	4.61
645.929	4.62
646.26	4.62
646.591	4.61
646.922	4.6
647.253	4.59
647.584	4.57
647.915	4.6
648.245	4.6
648.576	4.6
648.907	4.6
649.238	4.6
649.568	4.59
649.899	4.6
650.229	4.58
650.56	4.59
650.89	4.58
651.221	4.6
651.551	4.59
651.882	4.61
652.212	4.59
652.542	4.57
652.872	4.58
653.203	4.59
653.533	4.6
653.863	4.61
654.193	4.59
654.523	4.59
654.853	4.57
655.183	4.55
655.513	4.56
655.843	4.56
656.172	4.56
656.502	4.59
656.832	4.58
657.162	4.59
657.491	4.6
657.821	4.6
658.15	4.59
658.48	4.6
658.809	4.6
659.139	4.61
659.468	4.64
659.798	4.65
660.127	4.65
660.456	4.66
660.785	4.67
661.115	4.7
661.444	4.72
661.773	4.74
662.102	4.75
662.431	4.74
662.76	4.73
663.089	4.73
663.418	4.71
663.747	4.7
664.076	4.72
664.404	4.71
664.733	4.72
665.062	4.73
665.39	4.71
665.719	4.71
666.048	4.72
666.376	4.69
666.705	4.67
667.033	4.66
667.362	4.66
667.69	4.65
668.018	4.64
668.347	4.64
668.675	4.62
669.003	4.62
669.331	4.63
669.659	4.62
669.987	4.64
670.315	4.64
670.643	4.66
670.971	4.66
671.299	4.66
671.627	4.65
671.955	4.65
672.283	4.66
672.61	4.67
672.938	4.65
673.266	4.67
673.593	4.66
673.921	4.68
674.249	4.67
674.576	4.68
674.904	4.68
675.231	4.68
675.558	4.72
675.886	4.73
676.213	4.75
676.54	4.76
676.867	4.77
677.195	4.77
677.522	4.79
677.849	4.8
678.176	4.83
678.503	4.83
678.83	4.84
679.157	4.83
679.484	4.8
679.81	4.79
680.137	4.79
680.464	4.82
680.791	4.8
681.117	4.8
681.444	4.78
681.771	4.78
682.097	4.79
682.424	4.77
682.75	4.73
683.077	4.72
683.403	4.72
683.729	4.7
684.056	4.73
684.382	4.72
684.708	4.72
685.034	4.7
685.36	4.69
685.686	4.69
686.012	4.72
686.339	4.76
686.664	4.76
686.99	4.78
687.316	4.78
687.642	4.8
687.968	4.81
688.294	4.81
688.619	4.82
688.945	4.83
689.271	4.82
689.596	4.85
689.922	4.88
690.247	4.87
690.573	4.86
690.898	4.85
691.224	4.86
691.549	4.82
691.874	4.83
692.2	4.87
692.525	4.86
692.85	4.84
693.175	4.84
693.5	4.87
693.825	4.86
694.15	4.85
694.475	4.85
694.8	4.84
695.125	4.85
695.45	4.87
695.775	4.83
696.099	4.83
696.424	4.82
696.749	4.83
697.073	4.87
697.398	4.86
697.723	4.87
698.047	4.85
698.372	4.88
698.696	4.86
699.02	4.84
699.345	4.85
699.669	4.85
699.993	4.84
700.318	4.84
700.642	4.81
700.966	4.83
701.29	4.84
701.614	4.84
701.938	4.85
702.262	4.84
702.586	4.87
702.91	4.88
703.234	4.9
703.557	4.87
703.881	4.83
704.205	4.85
704.529	4.85
704.852	4.85
705.176	4.9
705.499	4.89
705.823	4.9
706.146	4.91
706.47	4.93
706.793	4.92
707.117	4.94
707.44	4.97
707.763	4.96
708.086	4.95
708.409	4.92
708.733	4.94
709.056	4.95
709.379	4.95
709.702	4.97
710.025	4.97
710.348	4.96
710.671	4.97
710.993	4.96
711.316	4.93
711.639	4.94
711.962	4.94
712.284	4.95
712.607	4.95
712.93	4.92
713.252	4.93
713.575	4.95
713.897	4.94
714.22	4.94
714.542	4.95
714.864	4.95
715.187	4.98
715.509	4.97
715.831	4.93
716.153	4.95
716.475	4.99
716.798	4.97
717.12	4.99
717.442	4.99
717.764	5.03
718.085	5.09
718.407	5.09
718.729	5.02
719.051	5.04
719.373	5.04
719.695	5.06
720.016	5
720.338	5.01
720.659	4.99
720.981	5.03
721.302	5.01
721.624	5.03
721.945	5.04
722.267	5.04
722.588	5.07
722.909	5.07
723.231	5.04
723.552	5.08
723.873	5.07
724.194	5.1
724.515	5.1
724.836	5.08
725.157	5.06
725.478	5.1
725.799	5.06
726.12	5.07
726.441	5.05
726.762	5.14
727.083	5.12
727.403	5.13
727.724	5.09
728.045	5.13
728.365	5.12
728.686	5.14
729.006	5.15
729.327	5.13
729.647	5.11
729.967	5.08
730.288	5.08
730.608	5.08
730.928	5.06
731.249	5.02
731.569	5.02
731.889	5.04
732.209	5.06
732.529	5.09
732.849	5.11
733.169	5.16
733.489	5.11
733.809	5.12
734.129	5.14
734.448	5.18
734.768	5.13
735.088	5.15
735.408	5.13
735.727	5.14
736.047	5.17
736.366	5.18
736.686	5.2
737.005	5.18
737.325	5.19
737.644	5.23
737.963	5.25
738.283	5.24
738.602	5.22
738.921	5.21
739.24	5.19
739.56	5.19
739.879	5.17
740.198	5.25
740.517	5.27
740.836	5.29
741.155	5.28
741.473	5.33
741.792	5.32
742.111	5.29
742.43	5.3
742.748	5.27
743.067	5.25
743.386	5.21
743.704	5.19
744.023	5.2
744.341	5.2
744.66	5.24
744.978	5.23
745.297	5.27
745.615	5.27
745.933	5.28
746.252	5.28
746.57	5.27
746.888	5.22
747.206	5.21
747.524	5.17
747.842	5.15
748.16	5.17
748.478	5.14
748.796	5.12
749.114	5.12
749.432	5.15
749.749	5.23
750.067	5.29
750.385	5.3
750.703	5.29
751.02	5.26
751.338	5.2
751.655	5.2
751.973	5.17
752.29	5.15
752.608	5.18
752.925	5.19
753.242	5.21
753.56	5.2
753.877	5.15
754.194	5.18
754.511	5.15
754.828	5.15
755.145	5.2
755.462	5.26
755.779	5.23
756.096	5.23
756.413	5.17
756.73	5.24
757.047	5.26
757.364	5.28
757.68	5.29
757.997	5.3
758.314	5.36
758.63	5.38
758.947	5.45
759.264	5.42
759.58	5.42
759.896	5.37
760.213	5.36
760.529	5.41
760.846	5.41
761.162	5.41
761.478	5.39
761.794	5.39
762.11	5.4
762.426	5.43
762.743	5.41
763.059	5.45
763.375	5.41
763.69	5.48
764.006	5.52
764.322	5.54
764.638	5.52
764.954	5.54
765.27	5.53
765.585	5.55
765.901	5.58
766.216	5.52
766.532	5.52
766.848	5.55
767.163	5.57
767.478	5.59
767.794	5.59
768.109	5.6
768.424	5.6
768.74	5.57
769.055	5.57
769.37	5.62
769.685	5.6
770	5.6
770.315	5.51
770.63	5.44
770.945	5.34
771.26	5.38
771.575	5.32
771.89	5.3
772.205	5.29
772.52	5.24
772.834	5.31
773.149	5.38
773.464	5.4
773.778	5.4
774.093	5.4
774.407	5.44
774.722	5.44
775.036	5.4
775.351	5.37
775.665	5.41
775.979	5.32
776.293	5.28
776.608	5.23
776.922	5.28
777.236	5.25
777.55	5.38
777.864	5.35
778.178	5.4
778.492	5.47
778.806	5.37
779.12	5.39
779.434	5.4
779.747	5.37
780.061	5.38
780.375	5.4
780.689	5.33
781.002	5.32
781.316	5.36
781.629	5.45
781.943	5.52
782.256	5.46
782.57	5.54
782.883	5.52
783.196	5.57
783.51	5.57
783.823	5.63
784.136	5.52
784.449	5.59
784.762	5.59
785.075	5.54
785.388	5.52
785.701	5.67
786.014	5.66
786.327	5.63
786.64	5.61
786.953	5.55
787.266	5.66
787.578	5.63
787.891	5.66
788.204	5.73
788.516	5.76
788.829	5.79
789.141	5.77
789.454	5.87
789.766	5.83
790.079	5.82
790.391	5.81
790.703	5.9
791.016	5.86
791.328	5.86
791.64	5.89
791.952	5.95
792.264	5.82
792.576	5.81
792.888	5.8
793.2	5.81
793.512	5.86
793.824	5.68
794.136	5.74
794.448	5.7
794.76	5.58
795.071	5.61
795.383	5.62
795.695	5.73
796.006	5.69
796.318	5.8
796.629	5.8
796.941	5.79
797.252	5.73
797.564	5.72
797.875	5.67
798.186	5.62
798.497	5.6
798.809	5.57
799.12	5.6
799.431	5.7
799.742	5.65
800.053	5.57
800.364	5.8
800.675	5.8
800.986	5.77
801.297	5.84
801.608	5.83
801.918	5.91
802.229	5.92
802.54	5.89
802.851	5.85
803.161	5.87
803.472	5.82
803.782	5.89
804.093	5.88
804.403	5.92
804.714	5.96
805.024	5.97
805.334	6.05
805.645	6.07
805.955	6.12
806.265	6.13
806.575	6.24
806.885	6.13
807.195	6.13
807.505	6.25
807.815	6.14
808.125	6.23
808.435	6.24
808.745	6.3
809.055	6.28
809.365	6.33
809.674	6.39
809.984	6.49
810.294	6.51
810.603	6.58
810.913	6.64
811.222	6.65
811.532	6.86
811.841	6.84
812.151	6.78
812.46	6.67
812.769	6.8
813.079	6.72
813.388	6.82
813.697	6.83
814.006	6.62
814.315	6.78
814.624	6.71
814.933	6.63
815.242	6.53
815.551	6.57
815.86	6.45
816.169	6.49
816.478	6.54
816.786	6.4
817.095	6.35
817.404	6.39
817.712	6.37
818.021	6.28
818.33	6.29
818.638	6.41
818.947	6.41
819.255	6.41
819.563	6.42
819.872	6.33
820.18	6.36
820.488	6.38
820.796	6.34
821.105	6.32
821.413	6.32
821.721	6.36
822.029	6.4
822.337	6.48
822.645	6.46
822.953	6.42
823.26	6.5
823.568	6.52
823.876	6.5
824.184	6.49
824.491	6.51
824.799	6.51
825.107	6.52
825.414	6.52
825.722	6.53
826.029	6.55
826.337	6.59
826.644	6.6
826.951	6.64
827.259	6.65
827.566	6.67
827.873	6.67
828.18	6.63
828.488	6.64
828.795	6.62
829.102	6.63
829.409	6.66
829.716	6.66
830.023	6.65
830.329	6.67
830.636	6.74
830.943	6.79
831.25	6.82
831.557	6.76
831.863	6.79
832.17	6.72
832.476	6.77
832.783	6.77
833.089	6.83
833.396	6.76
833.702	6.81
834.009	6.85
834.315	6.89
834.621	6.96
834.928	6.93
835.234	6.93
835.54	7
835.846	7.07
836.152	7.12
836.458	7.15
836.764	7.13
837.07	7.15
837.376	6.96
837.682	6.95
837.988	7.16
838.293	7.17
838.599	7.2
838.905	7.04
839.211	7.06
839.516	7.11
839.822	7.29
840.127	7.24
840.433	7.31
840.738	7.4
841.044	7.4
841.349	7.5
841.654	7.5
841.959	7.49
842.265	7.42
842.57	7.1
842.875	7.14
843.18	7.27
843.485	7.27
843.79	7.31
844.095	7.41
844.4	7.01
844.705	7.25
845.01	7.48
845.315	7.83
845.619	7.83
845.924	7.55
846.229	7.06
846.533	7.09
846.838	7.08
847.142	6.81
847.447	6.79
847.751	6.69
848.056	6.72
848.36	6.56
848.664	6.46
848.969	6.69
849.273	6.69
849.577	6.61
849.881	6.43
850.185	6.54
850.489	6.52
850.794	6.94
851.097	6.78
851.401	6.54
851.705	6.56
852.009	6.72
852.313	6.62
852.617	6.91
852.92	6.6
853.224	6.77
853.528	7.31
853.831	7.42
854.135	7.21
854.438	6.85
854.742	7.1
855.045	7.07
855.349	7.19
855.652	7.26
855.955	7.1
856.259	7.4
856.562	7.82
856.865	7.71
857.168	7.34
857.471	7.36
857.774	7.43
858.077	7.01
858.38	6.8
858.683	7.02
858.986	6.75
859.289	7.38
859.592	7.18
859.894	6.92
860.197	7.01
860.5	6.91
860.802	7.4
861.105	7.23
861.407	7.29
861.71	7.13
862.012	7.09
862.315	7.44
862.617	7.28
862.919	7.03
863.222	7.48
863.524	7.69
863.826	7.77
864.128	7.66
864.43	8.05
864.732	7.86
865.034	8.26
865.336	8.45
865.638	8.16
865.94	8.13
866.242	7.99
866.544	7.9
866.846	8.53
867.147	8.24
867.449	8.2
867.751	8.19
868.052	8.13
868.354	8.12
868.655	8.02
868.957	8.09
869.258	8.07
869.56	7.84
869.861	8.07
870.162	7.96
870.463	8.03
870.765	7.66
871.066	7.79
871.367	7.43
871.668	7.47
871.969	7.48
872.27	7.15
872.571	7.41
872.872	7.39
873.173	7.15
873.473	7.18
873.774	7.55
874.075	7.93
874.376	8.1
874.676	8.07
874.977	8.3
875.277	7.81
875.578	7.43
875.878	7.31
876.179	6.96
876.479	6.88
876.78	6.84
877.08	7.06
877.38	7.13
877.68	7.1
877.981	7.36
878.281	7.48
878.581	8.05
