Data from UWBM86267_Reflection_00014.txt Node
Date: Sun May 02 14:08:59 EDT 2021
User: vgr7
Spectrometer: USB2G7710
Scans to average: 10
Trigger mode: 4
Integration Time (sec): 1.000000E-1
Electric dark correction enabled: true
Boxcar width: 20
XAxis mode: Wavelengths
Number of Pixels in Spectrum: 2048
>>>>>Begin Spectral Data<<<<<
177.721	116
178.105	155
178.488	206.73
178.871	195.52
179.254	92.3
179.636	119.5
180.019	109.02
180.402	78.93
180.785	57.23
181.168	59.18
181.55	38.21
181.933	43.73
182.316	44.51
182.698	41.28
183.081	35.82
183.463	32.61
183.846	33.86
184.228	34.46
184.611	33.18
184.993	31.89
185.376	34.52
185.758	36.91
186.14	37.42
186.522	36.39
186.904	38.1
187.287	37.43
187.669	40.67
188.051	37.95
188.433	35.78
188.815	30.81
189.197	26.43
189.579	27.11
189.961	23.92
190.342	24.38
190.724	24.35
191.106	23.79
191.488	25.91
191.869	24.47
192.251	23.48
192.633	23.48
193.014	23.38
193.396	18.78
193.777	17.56
194.159	17.9
194.54	17.56
194.922	16.82
195.303	15.03
195.684	13.91
196.065	15.24
196.447	15.59
196.828	13.46
197.209	15.21
197.59	11.61
197.971	9.5
198.352	10.74
198.733	12.43
199.114	13.21
199.495	13.61
199.876	11.75
200.257	13.49
200.638	13.43
201.018	13.37
201.399	13.07
201.78	11.18
202.16	10.6
202.541	8.83
202.922	8.82
203.302	9.07
203.683	9.95
204.063	11.01
204.444	11.82
204.824	12.88
205.204	11.69
205.585	12.6
205.965	13.54
206.345	12.27
206.725	12.2
207.106	10.98
207.486	12.45
207.866	12.08
208.246	12.16
208.626	9.64
209.006	12.24
209.386	12.42
209.766	9.83
210.145	10.45
210.525	11.95
210.905	11.78
211.285	9.99
211.664	9.54
212.044	9.47
212.424	10.23
212.803	9.09
213.183	10.45
213.562	13.15
213.942	12.8
214.321	11.88
214.701	10.12
215.08	8.87
215.459	9.04
215.838	8.26
216.218	8.21
216.597	7.36
216.976	7.57
217.355	8.55
217.734	9.36
218.113	10.16
218.492	10.1
218.871	8.62
219.25	8.15
219.629	7.19
220.008	7.86
220.387	7.85
220.766	8.92
221.144	8.27
221.523	7.56
221.902	8.15
222.28	8.02
222.659	8.19
223.037	7.49
223.416	8.05
223.794	7.45
224.173	8.21
224.551	7.55
224.929	8.14
225.308	8.64
225.686	8.82
226.064	8.84
226.442	8.79
226.821	9.38
227.199	9.62
227.577	9.62
227.955	9.5
228.333	9.47
228.711	8.65
229.089	7.64
229.467	7.2
229.845	7.14
230.222	7.17
230.6	7.14
230.978	7.08
231.356	7.19
231.733	6.89
232.111	6.65
232.488	6.51
232.866	6.34
233.243	5.95
233.621	5.64
233.998	5.68
234.376	5.84
234.753	5.66
235.13	5.56
235.508	5.48
235.885	5.31
236.262	5.12
236.639	5.08
237.016	5.09
237.393	5.01
237.77	4.95
238.147	4.89
238.524	4.83
238.901	4.68
239.278	4.74
239.655	4.74
240.032	4.7
240.409	4.71
240.785	4.7
241.162	4.62
241.539	4.57
241.915	4.61
242.292	4.66
242.668	4.64
243.045	4.63
243.421	4.57
243.798	4.58
244.174	4.64
244.551	4.7
244.927	4.69
245.303	4.66
245.679	4.67
246.056	4.63
246.432	4.65
246.808	4.58
247.184	4.6
247.56	4.6
247.936	4.58
248.312	4.59
248.688	4.58
249.064	4.6
249.44	4.59
249.815	4.53
250.191	4.5
250.567	4.55
250.943	4.53
251.318	4.5
251.694	4.53
252.069	4.5
252.445	4.48
252.82	4.46
253.196	4.44
253.571	4.43
253.947	4.41
254.322	4.41
254.697	4.4
255.073	4.36
255.448	4.36
255.823	4.3
256.198	4.28
256.573	4.27
256.948	4.26
257.323	4.22
257.698	4.15
258.073	4.13
258.448	4.09
258.823	4.1
259.198	4.08
259.573	4.04
259.948	4.02
260.322	4.01
260.697	3.98
261.072	3.96
261.446	3.95
261.821	3.94
262.195	3.94
262.57	3.92
262.944	3.92
263.319	3.93
263.693	3.91
264.067	3.9
264.442	3.86
264.816	3.84
265.19	3.85
265.564	3.87
265.938	3.84
266.313	3.87
266.687	3.87
267.061	3.85
267.435	3.85
267.809	3.85
268.183	3.83
268.556	3.84
268.93	3.83
269.304	3.84
269.678	3.83
270.051	3.81
270.425	3.82
270.799	3.81
271.172	3.83
271.546	3.82
271.919	3.82
272.293	3.82
272.666	3.82
273.04	3.84
273.413	3.87
273.787	3.89
274.16	3.88
274.533	3.9
274.906	3.91
275.279	3.91
275.653	3.94
276.026	3.95
276.399	3.96
276.772	3.99
277.145	3.99
277.518	4.01
277.891	4.03
278.263	4.01
278.636	4.02
279.009	4.03
279.382	4.04
279.755	4.08
280.127	4.1
280.5	4.09
280.872	4.1
281.245	4.12
281.617	4.1
281.99	4.12
282.362	4.13
282.735	4.14
283.107	4.15
283.479	4.16
283.852	4.18
284.224	4.2
284.596	4.19
284.968	4.19
285.34	4.22
285.713	4.24
286.085	4.26
286.457	4.27
286.829	4.29
287.201	4.3
287.572	4.31
287.944	4.33
288.316	4.35
288.688	4.36
289.06	4.37
289.431	4.4
289.803	4.42
290.175	4.45
290.546	4.49
290.918	4.51
291.289	4.55
291.661	4.58
292.032	4.6
292.403	4.64
292.775	4.65
293.146	4.68
293.517	4.73
293.889	4.77
294.26	4.82
294.631	4.87
295.002	4.91
295.373	4.95
295.744	5
296.115	5.04
296.486	5.1
296.857	5.14
297.228	5.18
297.599	5.22
297.97	5.27
298.34	5.32
298.711	5.37
299.082	5.41
299.452	5.46
299.823	5.52
300.194	5.58
300.564	5.63
300.935	5.68
301.305	5.74
301.676	5.78
302.046	5.85
302.416	5.92
302.787	5.99
303.157	6.04
303.527	6.11
303.897	6.18
304.267	6.27
304.637	6.33
305.008	6.41
305.378	6.47
305.748	6.55
306.117	6.61
306.487	6.69
306.857	6.77
307.227	6.85
307.597	6.92
307.967	6.99
308.336	7.05
308.706	7.11
309.076	7.17
309.445	7.23
309.815	7.29
310.184	7.35
310.554	7.41
310.923	7.47
311.293	7.53
311.662	7.57
312.031	7.63
312.401	7.7
312.77	7.77
313.139	7.83
313.508	7.9
313.877	7.95
314.246	8
314.616	8.05
314.985	8.12
315.353	8.18
315.722	8.22
316.091	8.28
316.46	8.32
316.829	8.39
317.198	8.45
317.567	8.52
317.935	8.59
318.304	8.65
318.672	8.72
319.041	8.79
319.41	8.85
319.778	8.92
320.147	8.96
320.515	9.02
320.883	9.05
321.252	9.1
321.62	9.15
321.988	9.2
322.357	9.24
322.725	9.28
323.093	9.32
323.461	9.35
323.829	9.4
324.197	9.43
324.565	9.44
324.933	9.49
325.301	9.51
325.669	9.56
326.037	9.58
326.405	9.61
326.772	9.62
327.14	9.65
327.508	9.67
327.875	9.68
328.243	9.7
328.61	9.71
328.978	9.72
329.346	9.74
329.713	9.77
330.08	9.78
330.448	9.78
330.815	9.8
331.182	9.81
331.55	9.83
331.917	9.83
332.284	9.83
332.651	9.85
333.018	9.85
333.385	9.88
333.752	9.89
334.119	9.91
334.486	9.91
334.853	9.92
335.22	9.94
335.587	9.94
335.954	9.95
336.32	9.97
336.687	9.98
337.054	10
337.42	10.01
337.787	10.02
338.153	10.04
338.52	10.06
338.886	10.04
339.253	10.06
339.619	10.08
339.986	10.08
340.352	10.08
340.718	10.07
341.084	10.07
341.451	10.07
341.817	10.08
342.183	10.08
342.549	10.09
342.915	10.09
343.281	10.1
343.647	10.09
344.013	10.09
344.379	10.08
344.745	10.07
345.11	10.07
345.476	10.08
345.842	10.07
346.208	10.07
346.573	10.06
346.939	10.05
347.304	10.06
347.67	10.04
348.035	10.05
348.401	10.03
348.766	10.01
349.132	9.99
349.497	9.98
349.862	9.96
350.228	9.94
350.593	9.94
350.958	9.94
351.323	9.91
351.688	9.88
352.053	9.85
352.418	9.82
352.783	9.8
353.148	9.77
353.513	9.73
353.878	9.71
354.243	9.68
354.608	9.64
354.972	9.6
355.337	9.57
355.702	9.54
356.066	9.51
356.431	9.49
356.795	9.44
357.16	9.4
357.524	9.38
357.889	9.34
358.253	9.3
358.618	9.27
358.982	9.23
359.346	9.21
359.71	9.18
360.075	9.14
360.439	9.09
360.803	9.06
361.167	9.02
361.531	8.98
361.895	8.94
362.259	8.9
362.623	8.85
362.987	8.81
363.351	8.75
363.714	8.71
364.078	8.66
364.442	8.61
364.806	8.56
365.169	8.52
365.533	8.46
365.896	8.4
366.26	8.35
366.623	8.3
366.987	8.25
367.35	8.19
367.714	8.13
368.077	8.07
368.44	8.01
368.803	7.95
369.167	7.87
369.53	7.81
369.893	7.75
370.256	7.68
370.619	7.61
370.982	7.55
371.345	7.48
371.708	7.42
372.071	7.35
372.434	7.29
372.797	7.22
373.159	7.17
373.522	7.11
373.885	7.06
374.247	7
374.61	6.93
374.973	6.87
375.335	6.8
375.698	6.75
376.06	6.69
376.423	6.63
376.785	6.57
377.147	6.51
377.51	6.45
377.872	6.39
378.234	6.34
378.596	6.28
378.958	6.23
379.321	6.17
379.683	6.13
380.045	6.08
380.407	6.02
380.769	5.97
381.13	5.93
381.492	5.88
381.854	5.83
382.216	5.79
382.578	5.75
382.939	5.71
383.301	5.67
383.663	5.63
384.024	5.58
384.386	5.54
384.747	5.5
385.109	5.46
385.47	5.42
385.832	5.37
386.193	5.33
386.554	5.29
386.916	5.25
387.277	5.21
387.638	5.17
387.999	5.14
388.36	5.11
388.721	5.07
389.082	5.03
389.443	5.01
389.804	4.98
390.165	4.95
390.526	4.92
390.887	4.89
391.248	4.86
391.609	4.84
391.969	4.81
392.33	4.79
392.691	4.76
393.051	4.74
393.412	4.71
393.772	4.68
394.133	4.65
394.493	4.62
394.854	4.59
395.214	4.57
395.574	4.55
395.935	4.52
396.295	4.49
396.655	4.47
397.015	4.44
397.376	4.41
397.736	4.39
398.096	4.36
398.456	4.34
398.816	4.32
399.176	4.29
399.535	4.27
399.895	4.25
400.255	4.22
400.615	4.2
400.975	4.18
401.334	4.16
401.694	4.14
402.054	4.12
402.413	4.1
402.773	4.08
403.132	4.06
403.492	4.04
403.851	4.03
404.211	4.01
404.57	4
404.929	3.98
405.288	3.97
405.648	3.96
406.007	3.95
406.366	3.94
406.725	3.92
407.084	3.91
407.443	3.9
407.802	3.88
408.161	3.88
408.52	3.87
408.879	3.86
409.238	3.85
409.596	3.84
409.955	3.84
410.314	3.83
410.673	3.82
411.031	3.81
411.39	3.81
411.748	3.8
412.107	3.79
412.465	3.79
412.824	3.8
413.182	3.81
413.54	3.83
413.899	3.85
414.257	3.86
414.615	3.89
414.974	3.92
415.332	3.94
415.69	3.96
416.048	3.98
416.406	4.01
416.764	4.04
417.122	4.05
417.48	4.08
417.838	4.1
418.195	4.11
418.553	4.12
418.911	4.13
419.269	4.13
419.626	4.12
419.984	4.11
420.342	4.09
420.699	4.07
421.057	4.05
421.414	4.03
421.772	4.01
422.129	4
422.486	3.99
422.844	3.98
423.201	3.98
423.558	3.97
423.915	3.96
424.273	3.96
424.63	3.95
424.987	3.95
425.344	3.94
425.701	3.93
426.058	3.93
426.415	3.92
426.772	3.92
427.128	3.91
427.485	3.89
427.842	3.88
428.199	3.86
428.555	3.84
428.912	3.81
429.269	3.78
429.625	3.76
429.982	3.73
430.338	3.7
430.695	3.67
431.051	3.64
431.407	3.62
431.764	3.6
432.12	3.58
432.476	3.57
432.832	3.56
433.189	3.55
433.545	3.56
433.901	3.57
434.257	3.58
434.613	3.6
434.969	3.62
435.325	3.64
435.681	3.68
436.036	3.69
436.392	3.71
436.748	3.72
437.104	3.73
437.459	3.75
437.815	3.76
438.171	3.78
438.526	3.8
438.882	3.82
439.237	3.86
439.593	3.88
439.948	3.91
440.304	3.94
440.659	3.96
441.014	3.98
441.369	4
441.725	4.02
442.08	4.03
442.435	4.04
442.79	4.04
443.145	4.05
443.5	4.05
443.855	4.04
444.21	4.04
444.565	4.04
444.92	4.03
445.275	4.02
445.629	4.01
445.984	4
446.339	3.99
446.693	3.98
447.048	3.96
447.403	3.94
447.757	3.92
448.112	3.9
448.466	3.88
448.82	3.85
449.175	3.83
449.529	3.81
449.883	3.79
450.238	3.77
450.592	3.76
450.946	3.75
451.3	3.74
451.654	3.75
452.008	3.75
452.362	3.75
452.716	3.75
453.07	3.74
453.424	3.74
453.778	3.73
454.132	3.72
454.486	3.71
454.839	3.69
455.193	3.67
455.547	3.66
455.9	3.63
456.254	3.62
456.607	3.59
456.961	3.57
457.314	3.55
457.668	3.54
458.021	3.54
458.375	3.53
458.728	3.53
459.081	3.53
459.434	3.54
459.787	3.55
460.141	3.56
460.494	3.56
460.847	3.57
461.2	3.58
461.553	3.58
461.906	3.58
462.259	3.59
462.611	3.59
462.964	3.6
463.317	3.6
463.67	3.61
464.022	3.62
464.375	3.63
464.728	3.63
465.08	3.63
465.433	3.64
465.785	3.64
466.138	3.63
466.49	3.62
466.843	3.61
467.195	3.59
467.547	3.57
467.899	3.56
468.252	3.53
468.604	3.52
468.956	3.5
469.308	3.49
469.66	3.49
470.012	3.49
470.364	3.49
470.716	3.5
471.068	3.52
471.42	3.54
471.772	3.55
472.123	3.56
472.475	3.58
472.827	3.58
473.178	3.59
473.53	3.6
473.882	3.62
474.233	3.64
474.585	3.67
474.936	3.72
475.288	3.8
475.639	3.9
475.99	4.01
476.342	4.14
476.693	4.28
477.044	4.42
477.395	4.56
477.746	4.71
478.097	4.86
478.448	5.01
478.8	5.16
479.15	5.29
479.501	5.42
479.852	5.54
480.203	5.65
480.554	5.75
480.905	5.85
481.255	5.94
481.606	6.04
481.957	6.12
482.307	6.2
482.658	6.28
483.009	6.35
483.359	6.43
483.709	6.5
484.06	6.56
484.41	6.63
484.761	6.69
485.111	6.75
485.461	6.81
485.811	6.86
486.162	6.91
486.512	6.95
486.862	6.99
487.212	7.01
487.562	7.03
487.912	7.04
488.262	7.04
488.612	7.04
488.961	7.02
489.311	6.98
489.661	6.93
490.011	6.85
490.36	6.76
490.71	6.66
491.06	6.55
491.409	6.43
491.759	6.31
492.108	6.18
492.458	6.05
492.807	5.91
493.157	5.77
493.506	5.64
493.855	5.51
494.204	5.4
494.554	5.29
494.903	5.18
495.252	5.09
495.601	4.99
495.95	4.9
496.299	4.82
496.648	4.74
496.997	4.67
497.346	4.6
497.695	4.54
498.043	4.48
498.392	4.42
498.741	4.37
499.09	4.31
499.438	4.27
499.787	4.22
500.135	4.18
500.484	4.15
500.832	4.13
501.181	4.11
501.529	4.12
501.878	4.12
502.226	4.14
502.574	4.16
502.923	4.19
503.271	4.22
503.619	4.24
503.967	4.27
504.315	4.3
504.663	4.33
505.011	4.36
505.359	4.39
505.707	4.42
506.055	4.46
506.403	4.49
506.751	4.53
507.098	4.57
507.446	4.62
507.794	4.67
508.141	4.72
508.489	4.77
508.837	4.83
509.184	4.89
509.531	4.95
509.879	5.02
510.226	5.09
510.574	5.17
510.921	5.24
511.268	5.32
511.616	5.4
511.963	5.49
512.31	5.58
512.657	5.67
513.004	5.75
513.351	5.83
513.698	5.91
514.045	5.98
514.392	6.05
514.739	6.11
515.086	6.17
515.432	6.23
515.779	6.29
516.126	6.35
516.473	6.42
516.819	6.49
517.166	6.57
517.512	6.66
517.859	6.76
518.205	6.86
518.552	6.98
518.898	7.11
519.245	7.26
519.591	7.45
519.937	7.66
520.283	7.92
520.629	8.2
520.976	8.5
521.322	8.81
521.668	9.12
522.014	9.45
522.36	9.77
522.706	10.08
523.052	10.39
523.398	10.68
523.743	10.94
524.089	11.18
524.435	11.4
524.781	11.62
525.126	11.83
525.472	12.04
525.817	12.24
526.163	12.44
526.509	12.63
526.854	12.83
527.199	13.02
527.545	13.21
527.89	13.41
528.235	13.61
528.581	13.79
528.926	13.97
529.271	14.14
529.616	14.3
529.961	14.45
530.306	14.6
530.651	14.74
530.996	14.87
531.341	14.99
531.686	15.09
532.031	15.2
532.376	15.31
532.721	15.43
533.065	15.57
533.41	15.72
533.755	15.85
534.099	15.96
534.444	16.06
534.788	16.15
535.133	16.23
535.477	16.3
535.822	16.35
536.166	16.39
536.51	16.41
536.855	16.4
537.199	16.38
537.543	16.35
537.887	16.35
538.231	16.36
538.576	16.38
538.92	16.39
539.264	16.4
539.608	16.4
539.951	16.39
540.295	16.38
540.639	16.37
540.983	16.35
541.327	16.32
541.671	16.28
542.014	16.26
542.358	16.25
542.701	16.28
543.045	16.34
543.389	16.42
543.732	16.51
544.075	16.62
544.419	16.73
544.762	16.84
545.105	16.97
545.449	17.11
545.792	17.25
546.135	17.4
546.478	17.53
546.821	17.64
547.165	17.73
547.508	17.79
547.851	17.83
548.194	17.86
548.536	17.86
548.879	17.86
549.222	17.84
549.565	17.83
549.908	17.82
550.25	17.82
550.593	17.87
550.936	17.94
551.278	18.05
551.621	18.18
551.963	18.33
552.306	18.49
552.648	18.67
552.991	18.88
553.333	19.1
553.675	19.35
554.017	19.61
554.36	19.9
554.702	20.2
555.044	20.54
555.386	20.91
555.728	21.3
556.07	21.65
556.412	22.02
556.754	22.35
557.096	22.65
557.438	22.95
557.78	23.26
558.121	23.58
558.463	23.9
558.805	24.23
559.147	24.56
559.488	24.9
559.83	25.24
560.171	25.57
560.513	25.91
560.854	26.24
561.196	26.58
561.537	26.92
561.878	27.25
562.22	27.58
562.561	27.9
562.902	28.23
563.243	28.56
563.584	28.9
563.925	29.23
564.266	29.57
564.607	29.9
564.948	30.24
565.289	30.58
565.63	30.91
565.971	31.24
566.312	31.57
566.653	31.9
566.993	32.22
567.334	32.54
567.675	32.85
568.015	33.17
568.356	33.48
568.696	33.78
569.037	34.08
569.377	34.37
569.718	34.66
570.058	34.95
570.398	35.23
570.739	35.5
571.079	35.77
571.419	36.03
571.759	36.29
572.099	36.55
572.439	36.81
572.779	37.07
573.119	37.33
573.459	37.6
573.799	37.86
574.139	38.11
574.479	38.37
574.819	38.64
575.158	38.9
575.498	39.16
575.838	39.41
576.177	39.65
576.517	39.9
576.856	40.15
577.196	40.39
577.535	40.64
577.875	40.89
578.214	41.14
578.553	41.38
578.893	41.64
579.232	41.89
579.571	42.14
579.91	42.4
580.25	42.66
580.589	42.92
580.928	43.17
581.267	43.42
581.606	43.69
581.945	43.95
582.283	44.22
582.622	44.47
582.961	44.74
583.3	45
583.639	45.25
583.977	45.52
584.316	45.77
584.654	46.02
584.993	46.27
585.332	46.52
585.67	46.76
586.008	47
586.347	47.23
586.685	47.46
587.024	47.68
587.362	47.9
587.7	48.12
588.038	48.35
588.376	48.58
588.715	48.81
589.053	49.04
589.391	49.26
589.729	49.47
590.067	49.7
590.404	49.92
590.742	50.12
591.08	50.33
591.418	50.53
591.756	50.71
592.093	50.9
592.431	51.06
592.769	51.22
593.106	51.38
593.444	51.54
593.781	51.7
594.119	51.85
594.456	52
594.793	52.15
595.131	52.31
595.468	52.46
595.805	52.63
596.143	52.78
596.48	52.95
596.817	53.11
597.154	53.27
597.491	53.43
597.828	53.59
598.165	53.74
598.502	53.89
598.839	54.04
599.176	54.17
599.512	54.29
599.849	54.44
600.186	54.56
600.523	54.68
600.859	54.8
601.196	54.91
601.532	55.03
601.869	55.15
602.205	55.26
602.542	55.38
602.878	55.48
603.215	55.6
603.551	55.72
603.887	55.82
604.223	55.92
604.56	56.02
604.896	56.11
605.232	56.21
605.568	56.3
605.904	56.39
606.24	56.49
606.576	56.57
606.912	56.65
607.248	56.73
607.583	56.81
607.919	56.87
608.255	56.95
608.591	57.03
608.926	57.1
609.262	57.17
609.597	57.23
609.933	57.31
610.268	57.37
610.604	57.44
610.939	57.5
611.275	57.57
611.61	57.62
611.945	57.69
612.281	57.75
612.616	57.81
612.951	57.9
613.286	57.98
613.621	58.05
613.956	58.11
614.291	58.17
614.626	58.24
614.961	58.3
615.296	58.37
615.631	58.43
615.966	58.5
616.3	58.55
616.635	58.61
616.97	58.65
617.304	58.7
617.639	58.77
617.973	58.83
618.308	58.88
618.642	58.95
618.977	59
619.311	59.07
619.646	59.13
619.98	59.19
620.314	59.24
620.648	59.31
620.983	59.37
621.317	59.41
621.651	59.47
621.985	59.51
622.319	59.59
622.653	59.63
622.987	59.67
623.321	59.71
623.655	59.76
623.988	59.79
624.322	59.84
624.656	59.88
624.99	59.93
625.323	59.97
625.657	60.02
625.99	60.06
626.324	60.08
626.657	60.11
626.991	60.13
627.324	60.15
627.658	60.2
627.991	60.24
628.324	60.27
628.657	60.31
628.991	60.33
629.324	60.38
629.657	60.4
629.99	60.43
630.323	60.46
630.656	60.49
630.989	60.53
631.322	60.56
631.655	60.59
631.987	60.62
632.32	60.65
632.653	60.68
632.986	60.71
633.318	60.75
633.651	60.78
633.984	60.82
634.316	60.84
634.649	60.86
634.981	60.9
635.313	60.94
635.646	60.97
635.978	60.98
636.31	61.03
636.643	61.06
636.975	61.1
637.307	61.12
637.639	61.16
637.971	61.18
638.303	61.2
638.635	61.23
638.967	61.25
639.299	61.26
639.631	61.3
639.963	61.33
640.295	61.37
640.626	61.4
640.958	61.45
641.29	61.45
641.621	61.47
641.953	61.5
642.285	61.52
642.616	61.56
642.948	61.58
643.279	61.61
643.61	61.62
643.942	61.65
644.273	61.68
644.604	61.7
644.936	61.72
645.267	61.74
645.598	61.77
645.929	61.81
646.26	61.83
646.591	61.85
646.922	61.87
647.253	61.88
647.584	61.88
647.915	61.91
648.245	61.95
648.576	61.97
648.907	61.97
649.238	61.98
649.568	62
649.899	61.99
650.229	62.01
650.56	62.02
650.89	62.04
651.221	62.05
651.551	62.07
651.882	62.09
652.212	62.1
652.542	62.11
652.872	62.14
653.203	62.17
653.533	62.19
653.863	62.2
654.193	62.21
654.523	62.22
654.853	62.24
655.183	62.26
655.513	62.29
655.843	62.3
656.172	62.32
656.502	62.31
656.832	62.32
657.162	62.35
657.491	62.36
657.821	62.35
658.15	62.39
658.48	62.4
658.809	62.42
659.139	62.43
659.468	62.42
659.798	62.46
660.127	62.48
660.456	62.5
660.785	62.53
661.115	62.55
661.444	62.57
661.773	62.58
662.102	62.6
662.431	62.62
662.76	62.64
663.089	62.66
663.418	62.68
663.747	62.7
664.076	62.71
664.404	62.71
664.733	62.72
665.062	62.75
665.39	62.76
665.719	62.78
666.048	62.8
666.376	62.81
666.705	62.82
667.033	62.83
667.362	62.85
667.69	62.86
668.018	62.86
668.347	62.88
668.675	62.9
669.003	62.93
669.331	62.94
669.659	62.96
669.987	62.98
670.315	63.01
670.643	63.03
670.971	63.03
671.299	63.06
671.627	63.06
671.955	63.08
672.283	63.07
672.61	63.07
672.938	63.09
673.266	63.06
673.593	63.06
673.921	63.06
674.249	63.05
674.576	63.06
674.904	63.05
675.231	63.05
675.558	63.06
675.886	63.06
676.213	63.07
676.54	63.07
676.867	63.08
677.195	63.07
677.522	63.09
677.849	63.11
678.176	63.14
678.503	63.13
678.83	63.15
679.157	63.14
679.484	63.15
679.81	63.15
680.137	63.14
680.464	63.15
680.791	63.18
681.117	63.18
681.444	63.19
681.771	63.19
682.097	63.19
682.424	63.18
682.75	63.17
683.077	63.15
683.403	63.14
683.729	63.13
684.056	63.13
684.382	63.14
684.708	63.15
685.034	63.15
685.36	63.14
685.686	63.15
686.012	63.17
686.339	63.15
686.664	63.17
686.99	63.18
687.316	63.21
687.642	63.24
687.968	63.24
688.294	63.25
688.619	63.27
688.945	63.27
689.271	63.3
689.596	63.3
689.922	63.31
690.247	63.32
690.573	63.34
690.898	63.34
691.224	63.34
691.549	63.34
691.874	63.33
692.2	63.32
692.525	63.36
692.85	63.36
693.175	63.36
693.5	63.34
693.825	63.33
694.15	63.3
694.475	63.3
694.8	63.3
695.125	63.3
695.45	63.33
695.775	63.34
696.099	63.36
696.424	63.37
696.749	63.36
697.073	63.38
697.398	63.4
697.723	63.4
698.047	63.41
698.372	63.43
698.696	63.45
699.02	63.47
699.345	63.46
699.669	63.51
699.993	63.53
700.318	63.52
700.642	63.52
700.966	63.52
701.29	63.52
701.614	63.54
701.938	63.52
702.262	63.53
702.586	63.53
702.91	63.54
703.234	63.54
703.557	63.55
703.881	63.55
704.205	63.57
704.529	63.58
704.852	63.63
705.176	63.65
705.499	63.66
705.823	63.66
706.146	63.69
706.47	63.72
706.793	63.76
707.117	63.8
707.44	63.82
707.763	63.84
708.086	63.86
708.409	63.89
708.733	63.89
709.056	63.91
709.379	63.9
709.702	63.91
710.025	63.95
710.348	63.97
710.671	63.94
710.993	63.95
711.316	63.94
711.639	63.93
711.962	63.93
712.284	63.91
712.607	63.91
712.93	63.9
713.252	63.9
713.575	63.92
713.897	63.92
714.22	63.91
714.542	63.93
714.864	63.94
715.187	63.96
715.509	63.96
715.831	63.96
716.153	63.95
716.475	63.97
716.798	63.98
717.12	63.99
717.442	64
717.764	63.99
718.085	63.93
718.407	63.94
718.729	63.97
719.051	63.95
719.373	63.96
719.695	63.96
720.016	63.97
720.338	64.02
720.659	64.06
720.981	64.06
721.302	64.07
721.624	64.07
721.945	64.07
722.267	64.06
722.588	64.09
722.909	64.09
723.231	64.11
723.552	64.1
723.873	64.12
724.194	64.13
724.515	64.17
724.836	64.19
725.157	64.2
725.478	64.22
725.799	64.25
726.12	64.28
726.441	64.3
726.762	64.3
727.083	64.31
727.403	64.31
727.724	64.33
728.045	64.34
728.365	64.35
728.686	64.36
729.006	64.38
729.327	64.39
729.647	64.41
729.967	64.39
730.288	64.39
730.608	64.38
730.928	64.39
731.249	64.42
731.569	64.42
731.889	64.42
732.209	64.45
732.529	64.44
732.849	64.44
733.169	64.46
733.489	64.45
733.809	64.46
734.129	64.46
734.448	64.46
734.768	64.46
735.088	64.49
735.408	64.49
735.727	64.48
736.047	64.5
736.366	64.5
736.686	64.53
737.005	64.51
737.325	64.54
737.644	64.52
737.963	64.52
738.283	64.52
738.602	64.54
738.921	64.56
739.24	64.54
739.56	64.56
739.879	64.57
740.198	64.59
740.517	64.61
740.836	64.59
741.155	64.6
741.473	64.58
741.792	64.54
742.111	64.54
742.43	64.56
742.748	64.56
743.067	64.58
743.386	64.6
743.704	64.63
744.023	64.65
744.341	64.66
744.66	64.64
744.978	64.67
745.297	64.65
745.615	64.69
745.933	64.69
746.252	64.65
746.57	64.66
746.888	64.67
747.206	64.68
747.524	64.72
747.842	64.74
748.16	64.72
748.478	64.69
748.796	64.71
749.114	64.7
749.432	64.73
749.749	64.7
750.067	64.72
750.385	64.71
750.703	64.7
751.02	64.72
751.338	64.72
751.655	64.71
751.973	64.71
752.29	64.71
752.608	64.66
752.925	64.67
753.242	64.64
753.56	64.63
753.877	64.68
754.194	64.64
754.511	64.67
754.828	64.71
755.145	64.7
755.462	64.69
755.779	64.69
756.096	64.68
756.413	64.63
756.73	64.59
757.047	64.57
757.364	64.53
757.68	64.54
757.997	64.48
758.314	64.52
758.63	64.5
758.947	64.5
759.264	64.52
759.58	64.51
759.896	64.49
760.213	64.5
760.529	64.5
760.846	64.51
761.162	64.5
761.478	64.53
761.794	64.53
762.11	64.53
762.426	64.51
762.743	64.53
763.059	64.52
763.375	64.5
763.69	64.52
764.006	64.5
764.322	64.49
764.638	64.52
764.954	64.49
765.27	64.48
765.585	64.5
765.901	64.49
766.216	64.52
766.532	64.51
766.848	64.48
767.163	64.49
767.478	64.48
767.794	64.47
768.109	64.46
768.424	64.46
768.74	64.46
769.055	64.49
769.37	64.51
769.685	64.51
770	64.53
770.315	64.56
770.63	64.56
770.945	64.6
771.26	64.56
771.575	64.58
771.89	64.57
772.205	64.57
772.52	64.56
772.834	64.58
773.149	64.56
773.464	64.55
773.778	64.52
774.093	64.53
774.407	64.52
774.722	64.54
775.036	64.53
775.351	64.53
775.665	64.54
775.979	64.52
776.293	64.52
776.608	64.56
776.922	64.59
777.236	64.59
777.55	64.61
777.864	64.65
778.178	64.69
778.492	64.69
778.806	64.68
779.12	64.65
779.434	64.7
779.747	64.73
780.061	64.74
780.375	64.76
780.689	64.78
781.002	64.81
781.316	64.8
781.629	64.83
781.943	64.82
782.256	64.83
782.57	64.87
782.883	64.87
783.196	64.86
783.51	64.87
783.823	64.89
784.136	64.9
784.449	64.88
784.762	64.89
785.075	64.87
785.388	64.91
785.701	64.91
786.014	64.9
786.327	64.89
786.64	64.9
786.953	64.95
787.266	64.96
787.578	64.93
787.891	64.96
788.204	65
788.516	65.04
788.829	65.12
789.141	65.15
789.454	65.16
789.766	65.2
790.079	65.19
790.391	65.15
790.703	65.16
791.016	65.17
791.328	65.18
791.64	65.19
791.952	65.22
792.264	65.18
792.576	65.14
792.888	65.07
793.2	65.08
793.512	65.11
793.824	65.13
794.136	65.13
794.448	65.09
794.76	65.08
795.071	65.1
795.383	65.06
795.695	65.08
796.006	65.08
796.318	65.06
796.629	65.03
796.941	64.98
797.252	64.99
797.564	64.98
797.875	65
798.186	64.94
798.497	64.93
798.809	64.91
799.12	64.89
799.431	64.89
799.742	64.79
800.053	64.78
800.364	64.8
800.675	64.75
800.986	64.67
801.297	64.66
801.608	64.59
801.918	64.61
802.229	64.58
802.54	64.55
802.851	64.58
803.161	64.57
803.472	64.55
803.782	64.51
804.093	64.47
804.403	64.45
804.714	64.47
805.024	64.5
805.334	64.53
805.645	64.6
805.955	64.62
806.265	64.58
806.575	64.54
806.885	64.54
807.195	64.58
807.505	64.59
807.815	64.63
808.125	64.65
808.435	64.66
808.745	64.7
809.055	64.72
809.365	64.73
809.674	64.81
809.984	64.82
810.294	64.82
810.603	64.82
810.913	64.81
811.222	64.81
811.532	64.85
811.841	64.84
812.151	64.77
812.46	64.88
812.769	64.93
813.079	64.97
813.388	64.97
813.697	65.03
814.006	64.95
814.315	65.01
814.624	65.01
814.933	64.91
815.242	64.92
815.551	64.86
815.86	64.83
816.169	64.74
816.478	64.7
816.786	64.66
817.095	64.72
817.404	64.59
817.712	64.55
818.021	64.55
818.33	64.48
818.638	64.44
818.947	64.41
819.255	64.37
819.563	64.38
819.872	64.4
820.18	64.39
820.488	64.4
820.796	64.41
821.105	64.42
821.413	64.44
821.721	64.44
822.029	64.48
822.337	64.45
822.645	64.46
822.953	64.45
823.26	64.43
823.568	64.45
823.876	64.44
824.184	64.46
824.491	64.48
824.799	64.49
825.107	64.49
825.414	64.46
825.722	64.46
826.029	64.5
826.337	64.49
826.644	64.5
826.951	64.49
827.259	64.48
827.566	64.48
827.873	64.45
828.18	64.45
828.488	64.46
828.795	64.49
829.102	64.5
829.409	64.51
829.716	64.48
830.023	64.53
830.329	64.53
830.636	64.53
830.943	64.57
831.25	64.59
831.557	64.62
831.863	64.65
832.17	64.63
832.476	64.61
832.783	64.62
833.089	64.59
833.396	64.59
833.702	64.56
834.009	64.5
834.315	64.47
834.621	64.42
834.928	64.47
835.234	64.45
835.54	64.44
835.846	64.45
836.152	64.45
836.458	64.47
836.764	64.42
837.07	64.4
837.376	64.41
837.682	64.36
837.988	64.44
838.293	64.4
838.599	64.33
838.905	64.32
839.211	64.37
839.516	64.31
839.822	64.32
840.127	64.33
840.433	64.36
840.738	64.4
841.044	64.4
841.349	64.41
841.654	64.43
841.959	64.34
842.265	64.37
842.57	64.35
842.875	64.35
843.18	64.22
843.485	64.19
843.79	64.16
844.095	64.14
844.4	64.24
844.705	64.38
845.01	64.33
845.315	64.32
845.619	64.35
845.924	64.34
846.229	64.4
846.533	64.53
846.838	64.68
847.142	64.59
847.447	64.6
847.751	64.63
848.056	64.71
848.36	64.8
848.664	64.83
848.969	64.91
849.273	64.89
849.577	64.88
849.881	64.83
850.185	64.92
850.489	64.83
850.794	64.72
851.097	64.86
851.401	64.89
851.705	64.83
852.009	64.98
852.313	65.06
852.617	65.12
852.92	65.18
853.224	65.1
853.528	65.14
853.831	65.01
854.135	65
854.438	65.25
854.742	65.29
855.045	65.33
855.349	65.48
855.652	65.84
855.955	65.83
856.259	66.02
856.562	66.07
856.865	66.03
857.168	65.85
857.471	65.78
857.774	65.84
858.077	65.87
858.38	65.73
858.683	65.66
858.986	65.61
859.289	65.52
859.592	65.52
859.894	65.48
860.197	65.39
860.5	65.38
860.802	65.41
861.105	65.31
861.407	65.16
861.71	65.24
862.012	65.22
862.315	65.27
862.617	65.34
862.919	65.36
863.222	65.47
863.524	65.3
863.826	65.35
864.128	65.37
864.43	65.21
864.732	65.08
865.034	65.09
865.336	64.96
865.638	64.77
865.94	64.69
866.242	64.68
866.544	64.77
866.846	64.71
867.147	64.61
867.449	64.66
867.751	64.46
868.052	64.36
868.354	64.28
868.655	64.02
868.957	63.96
869.258	63.95
869.56	64.03
869.861	64.17
870.162	64
870.463	64.11
870.765	64.12
871.066	64.19
871.367	64.06
871.668	63.95
871.969	64.14
872.27	64.21
872.571	64.13
872.872	64.12
873.173	64.06
873.473	64.08
873.774	64.11
874.075	64.01
874.376	64.07
874.676	63.97
874.977	63.81
875.277	63.76
875.578	63.7
875.878	63.79
876.179	63.71
876.479	63.6
876.78	63.73
877.08	63.64
877.38	63.73
877.68	63.86
877.981	64.1
878.281	64.16
878.581	64.24
