Data from UWBM79812_Reflection_00005.txt Node
Date: Sun May 02 13:57:21 EDT 2021
User: vgr7
Spectrometer: USB2G7710
Scans to average: 10
Trigger mode: 4
Integration Time (sec): 1.000000E-1
Electric dark correction enabled: true
Boxcar width: 20
XAxis mode: Wavelengths
Number of Pixels in Spectrum: 2048
>>>>>Begin Spectral Data<<<<<
177.721	40.68
178.105	63.3
178.488	100.71
178.871	129.6
179.254	147.1
179.636	115.49
180.019	93.45
180.402	74.51
180.785	66.58
181.168	54.81
181.55	44.55
181.933	43.94
182.316	35.9
182.698	31.84
183.081	30.57
183.463	28.35
183.846	26
184.228	26.11
184.611	26.74
184.993	29.8
185.376	30.92
185.758	32.56
186.14	35.84
186.522	33.82
186.904	32.95
187.287	31.02
187.669	32.77
188.051	30
188.433	28.68
188.815	26.77
189.197	25.07
189.579	23.69
189.961	23.18
190.342	22.29
190.724	21.47
191.106	20.81
191.488	20.73
191.869	20.07
192.251	17.15
192.633	17.5
193.014	18.46
193.396	16.09
193.777	14.95
194.159	13.18
194.54	11.39
194.922	8.1
195.303	7.09
195.684	4
196.065	3.73
196.447	4.78
196.828	4.75
197.209	4.27
197.59	1.47
197.971	1.66
198.352	3.06
198.733	4.35
199.114	4.13
199.495	5.92
199.876	4.23
200.257	4.12
200.638	1.89
201.018	2.4
201.399	2.7
201.78	1.7
202.16	4.05
202.541	4.4
202.922	4.07
203.302	2.32
203.683	3.29
204.063	4.5
204.444	4.22
204.824	5.71
205.204	4.62
205.585	5.93
205.965	5.95
206.345	6.11
206.725	6.59
207.106	6.66
207.486	6.81
207.866	8.27
208.246	7.67
208.626	6.04
209.006	6.81
209.386	6.21
209.766	6.65
210.145	6.12
210.525	6.46
210.905	8.4
211.285	8.17
211.664	8.96
212.044	7.1
212.424	7.22
212.803	7.54
213.183	8.51
213.562	9.37
213.942	9.08
214.321	8.03
214.701	8.48
215.08	7.65
215.459	8.09
215.838	6.19
216.218	6.21
216.597	4.83
216.976	5.08
217.355	4.34
217.734	4.09
218.113	3.02
218.492	2.23
218.871	3.04
219.25	4.27
219.629	3.32
220.008	3.76
220.387	2.69
220.766	3.99
221.144	2.87
221.523	2.59
221.902	2.12
222.28	1.04
222.659	0.83
223.037	0.65
223.416	1.27
223.794	1.64
224.173	2.34
224.551	2.15
224.929	3.26
225.308	3.61
225.686	3.73
226.064	3.72
226.442	3.7
226.821	5.04
227.199	5.32
227.577	5.77
227.955	5.79
228.333	5.94
228.711	5.68
229.089	5.1
229.467	4.99
229.845	5.15
230.222	5.29
230.6	5.4
230.978	5.37
231.356	5.78
231.733	5.75
232.111	5.56
232.488	5.46
232.866	5.36
233.243	5.15
233.621	5.26
233.998	5.29
234.376	5.14
234.753	4.69
235.13	4.94
235.508	4.98
235.885	4.92
236.262	4.75
236.639	4.84
237.016	4.9
237.393	4.93
237.77	4.97
238.147	4.95
238.524	4.91
238.901	4.81
239.278	4.83
239.655	4.81
240.032	4.74
240.409	4.72
240.785	4.69
241.162	4.69
241.539	4.67
241.915	4.67
242.292	4.62
242.668	4.58
243.045	4.54
243.421	4.5
243.798	4.5
244.174	4.53
244.551	4.53
244.927	4.53
245.303	4.49
245.679	4.43
246.056	4.37
246.432	4.38
246.808	4.35
247.184	4.37
247.56	4.4
247.936	4.36
248.312	4.36
248.688	4.34
249.064	4.34
249.44	4.34
249.815	4.31
250.191	4.29
250.567	4.28
250.943	4.24
251.318	4.21
251.694	4.22
252.069	4.19
252.445	4.18
252.82	4.17
253.196	4.15
253.571	4.14
253.947	4.14
254.322	4.12
254.697	4.11
255.073	4.09
255.448	4.09
255.823	4.03
256.198	4.01
256.573	4
256.948	4
257.323	3.97
257.698	3.93
258.073	3.9
258.448	3.89
258.823	3.87
259.198	3.86
259.573	3.82
259.948	3.82
260.322	3.82
260.697	3.83
261.072	3.81
261.446	3.81
261.821	3.8
262.195	3.8
262.57	3.78
262.944	3.75
263.319	3.77
263.693	3.79
264.067	3.79
264.442	3.78
264.816	3.76
265.19	3.76
265.564	3.76
265.938	3.72
266.313	3.74
266.687	3.73
267.061	3.73
267.435	3.73
267.809	3.72
268.183	3.72
268.556	3.71
268.93	3.71
269.304	3.7
269.678	3.71
270.051	3.68
270.425	3.65
270.799	3.64
271.172	3.67
271.546	3.67
271.919	3.67
272.293	3.64
272.666	3.63
273.04	3.64
273.413	3.68
273.787	3.68
274.16	3.71
274.533	3.7
274.906	3.72
275.279	3.72
275.653	3.72
276.026	3.72
276.399	3.74
276.772	3.75
277.145	3.73
277.518	3.73
277.891	3.74
278.263	3.75
278.636	3.75
279.009	3.72
279.382	3.71
279.755	3.71
280.127	3.73
280.5	3.74
280.872	3.76
281.245	3.76
281.617	3.75
281.99	3.76
282.362	3.74
282.735	3.73
283.107	3.72
283.479	3.69
283.852	3.7
284.224	3.71
284.596	3.7
284.968	3.69
285.34	3.7
285.713	3.71
286.085	3.72
286.457	3.72
286.829	3.71
287.201	3.71
287.572	3.72
287.944	3.71
288.316	3.69
288.688	3.67
289.06	3.67
289.431	3.64
289.803	3.65
290.175	3.65
290.546	3.64
290.918	3.64
291.289	3.64
291.661	3.63
292.032	3.61
292.403	3.62
292.775	3.63
293.146	3.62
293.517	3.61
293.889	3.59
294.26	3.6
294.631	3.61
295.002	3.61
295.373	3.6
295.744	3.59
296.115	3.59
296.486	3.61
296.857	3.61
297.228	3.61
297.599	3.63
297.97	3.64
298.34	3.63
298.711	3.65
299.082	3.64
299.452	3.65
299.823	3.65
300.194	3.66
300.564	3.65
300.935	3.66
301.305	3.65
301.676	3.64
302.046	3.65
302.416	3.63
302.787	3.62
303.157	3.64
303.527	3.63
303.897	3.63
304.267	3.64
304.637	3.64
305.008	3.65
305.378	3.63
305.748	3.63
306.117	3.64
306.487	3.62
306.857	3.63
307.227	3.64
307.597	3.63
307.967	3.62
308.336	3.62
308.706	3.62
309.076	3.62
309.445	3.62
309.815	3.6
310.184	3.59
310.554	3.59
310.923	3.6
311.293	3.58
311.662	3.56
312.031	3.57
312.401	3.58
312.77	3.55
313.139	3.56
313.508	3.56
313.877	3.55
314.246	3.55
314.616	3.53
314.985	3.52
315.353	3.53
315.722	3.53
316.091	3.52
316.46	3.49
316.829	3.5
317.198	3.5
317.567	3.49
317.935	3.5
318.304	3.49
318.672	3.48
319.041	3.48
319.41	3.47
319.778	3.46
320.147	3.44
320.515	3.44
320.883	3.43
321.252	3.41
321.62	3.41
321.988	3.41
322.357	3.4
322.725	3.41
323.093	3.42
323.461	3.41
323.829	3.41
324.197	3.41
324.565	3.41
324.933	3.41
325.301	3.41
325.669	3.41
326.037	3.39
326.405	3.39
326.772	3.38
327.14	3.37
327.508	3.36
327.875	3.36
328.243	3.33
328.61	3.32
328.978	3.31
329.346	3.29
329.713	3.31
330.08	3.3
330.448	3.28
330.815	3.27
331.182	3.27
331.55	3.27
331.917	3.26
332.284	3.26
332.651	3.25
333.018	3.24
333.385	3.25
333.752	3.26
334.119	3.26
334.486	3.26
334.853	3.26
335.22	3.26
335.587	3.27
335.954	3.26
336.32	3.26
336.687	3.26
337.054	3.26
337.42	3.26
337.787	3.26
338.153	3.25
338.52	3.24
338.886	3.23
339.253	3.23
339.619	3.21
339.986	3.22
340.352	3.23
340.718	3.23
341.084	3.22
341.451	3.21
341.817	3.22
342.183	3.23
342.549	3.23
342.915	3.23
343.281	3.25
343.647	3.25
344.013	3.25
344.379	3.26
344.745	3.26
345.11	3.27
345.476	3.28
345.842	3.28
346.208	3.29
346.573	3.28
346.939	3.28
347.304	3.29
347.67	3.3
348.035	3.3
348.401	3.3
348.766	3.3
349.132	3.3
349.497	3.29
349.862	3.29
350.228	3.29
350.593	3.29
350.958	3.3
351.323	3.3
351.688	3.29
352.053	3.29
352.418	3.29
352.783	3.28
353.148	3.29
353.513	3.3
353.878	3.3
354.243	3.29
354.608	3.3
354.972	3.31
355.337	3.3
355.702	3.3
356.066	3.31
356.431	3.31
356.795	3.3
357.16	3.28
357.524	3.29
357.889	3.29
358.253	3.27
358.618	3.27
358.982	3.28
359.346	3.28
359.71	3.28
360.075	3.28
360.439	3.28
360.803	3.28
361.167	3.27
361.531	3.28
361.895	3.28
362.259	3.27
362.623	3.27
362.987	3.27
363.351	3.27
363.714	3.27
364.078	3.27
364.442	3.27
364.806	3.28
365.169	3.28
365.533	3.28
365.896	3.29
366.26	3.29
366.623	3.29
366.987	3.29
367.35	3.29
367.714	3.29
368.077	3.29
368.44	3.28
368.803	3.29
369.167	3.3
369.53	3.29
369.893	3.28
370.256	3.29
370.619	3.29
370.982	3.29
371.345	3.3
371.708	3.31
372.071	3.32
372.434	3.32
372.797	3.32
373.159	3.32
373.522	3.33
373.885	3.33
374.247	3.33
374.61	3.33
374.973	3.32
375.335	3.32
375.698	3.32
376.06	3.32
376.423	3.32
376.785	3.32
377.147	3.32
377.51	3.33
377.872	3.33
378.234	3.33
378.596	3.33
378.958	3.33
379.321	3.33
379.683	3.34
380.045	3.33
380.407	3.33
380.769	3.33
381.13	3.33
381.492	3.33
381.854	3.33
382.216	3.33
382.578	3.33
382.939	3.33
383.301	3.34
383.663	3.34
384.024	3.33
384.386	3.33
384.747	3.34
385.109	3.34
385.47	3.33
385.832	3.33
386.193	3.33
386.554	3.34
386.916	3.34
387.277	3.33
387.638	3.33
387.999	3.33
388.36	3.33
388.721	3.34
389.082	3.33
389.443	3.34
389.804	3.34
390.165	3.34
390.526	3.35
390.887	3.35
391.248	3.34
391.609	3.35
391.969	3.35
392.33	3.35
392.691	3.35
393.051	3.35
393.412	3.36
393.772	3.36
394.133	3.36
394.493	3.35
394.854	3.35
395.214	3.35
395.574	3.35
395.935	3.36
396.295	3.36
396.655	3.36
397.015	3.36
397.376	3.36
397.736	3.36
398.096	3.36
398.456	3.36
398.816	3.37
399.176	3.37
399.535	3.37
399.895	3.37
400.255	3.38
400.615	3.38
400.975	3.38
401.334	3.38
401.694	3.38
402.054	3.39
402.413	3.39
402.773	3.39
403.132	3.39
403.492	3.39
403.851	3.39
404.211	3.39
404.57	3.4
404.929	3.4
405.288	3.4
405.648	3.4
406.007	3.41
406.366	3.41
406.725	3.41
407.084	3.42
407.443	3.42
407.802	3.42
408.161	3.42
408.52	3.42
408.879	3.42
409.238	3.43
409.596	3.43
409.955	3.44
410.314	3.44
410.673	3.45
411.031	3.46
411.39	3.46
411.748	3.47
412.107	3.48
412.465	3.49
412.824	3.51
413.182	3.53
413.54	3.56
413.899	3.58
414.257	3.61
414.615	3.65
414.974	3.68
415.332	3.72
415.69	3.75
416.048	3.78
416.406	3.83
416.764	3.85
417.122	3.89
417.48	3.92
417.838	3.95
418.195	3.97
418.553	3.99
418.911	4.01
419.269	4.02
419.626	4.02
419.984	4.02
420.342	4.01
420.699	4
421.057	3.98
421.414	3.97
421.772	3.96
422.129	3.95
422.486	3.95
422.844	3.96
423.201	3.96
423.558	3.96
423.915	3.96
424.273	3.96
424.63	3.96
424.987	3.96
425.344	3.96
425.701	3.97
426.058	3.97
426.415	3.97
426.772	3.98
427.128	3.97
427.485	3.97
427.842	3.96
428.199	3.95
428.555	3.94
428.912	3.92
429.269	3.9
429.625	3.88
429.982	3.86
430.338	3.83
430.695	3.81
431.051	3.78
431.407	3.76
431.764	3.75
432.12	3.73
432.476	3.72
432.832	3.72
433.189	3.72
433.545	3.72
433.901	3.73
434.257	3.75
434.613	3.77
434.969	3.8
435.325	3.82
435.681	3.86
436.036	3.88
436.392	3.9
436.748	3.92
437.104	3.92
437.459	3.94
437.815	3.96
438.171	3.98
438.526	4
438.882	4.03
439.237	4.07
439.593	4.1
439.948	4.13
440.304	4.16
440.659	4.18
441.014	4.2
441.369	4.23
441.725	4.25
442.08	4.27
442.435	4.28
442.79	4.28
443.145	4.29
443.5	4.29
443.855	4.29
444.21	4.29
444.565	4.29
444.92	4.28
445.275	4.27
445.629	4.27
445.984	4.26
446.339	4.25
446.693	4.24
447.048	4.23
447.403	4.21
447.757	4.19
448.112	4.18
448.466	4.16
448.82	4.14
449.175	4.12
449.529	4.1
449.883	4.08
450.238	4.06
450.592	4.06
450.946	4.05
451.3	4.05
451.654	4.06
452.008	4.06
452.362	4.07
452.716	4.07
453.07	4.07
453.424	4.07
453.778	4.06
454.132	4.05
454.486	4.05
454.839	4.03
455.193	4.01
455.547	4
455.9	3.98
456.254	3.96
456.607	3.93
456.961	3.91
457.314	3.89
457.668	3.88
458.021	3.88
458.375	3.87
458.728	3.87
459.081	3.87
459.434	3.88
459.787	3.89
460.141	3.9
460.494	3.91
460.847	3.91
461.2	3.92
461.553	3.93
461.906	3.93
462.259	3.93
462.611	3.93
462.964	3.94
463.317	3.94
463.67	3.95
464.022	3.96
464.375	3.96
464.728	3.96
465.08	3.96
465.433	3.96
465.785	3.96
466.138	3.95
466.49	3.93
466.843	3.91
467.195	3.89
467.547	3.87
467.899	3.84
468.252	3.82
468.604	3.79
468.956	3.77
469.308	3.75
469.66	3.75
470.012	3.74
470.364	3.74
470.716	3.74
471.068	3.75
471.42	3.77
471.772	3.78
472.123	3.79
472.475	3.8
472.827	3.81
473.178	3.81
473.53	3.82
473.882	3.84
474.233	3.86
474.585	3.89
474.936	3.94
475.288	4.02
475.639	4.13
475.99	4.25
476.342	4.39
476.693	4.53
477.044	4.69
477.395	4.85
477.746	5.01
478.097	5.17
478.448	5.33
478.8	5.49
479.15	5.64
479.501	5.78
479.852	5.91
480.203	6.04
480.554	6.16
480.905	6.27
481.255	6.37
481.606	6.48
481.957	6.58
482.307	6.67
482.658	6.75
483.009	6.84
483.359	6.92
483.709	7
484.06	7.07
484.41	7.15
484.761	7.22
485.111	7.29
485.461	7.35
485.811	7.41
486.162	7.47
486.512	7.52
486.862	7.56
487.212	7.58
487.562	7.6
487.912	7.61
488.262	7.62
488.612	7.61
488.961	7.59
489.311	7.55
489.661	7.49
490.011	7.41
490.36	7.31
490.71	7.19
491.06	7.07
491.409	6.94
491.759	6.8
492.108	6.66
492.458	6.5
492.807	6.35
493.157	6.19
493.506	6.04
493.855	5.9
494.204	5.77
494.554	5.63
494.903	5.51
495.252	5.39
495.601	5.28
495.95	5.17
496.299	5.06
496.648	4.97
496.997	4.88
497.346	4.79
497.695	4.7
498.043	4.62
498.392	4.54
498.741	4.46
499.09	4.39
499.438	4.31
499.787	4.24
500.135	4.18
500.484	4.12
500.832	4.07
501.181	4.03
501.529	4
501.878	3.99
502.226	3.97
502.574	3.97
502.923	3.96
503.271	3.95
503.619	3.95
503.967	3.95
504.315	3.94
504.663	3.93
505.011	3.93
505.359	3.92
505.707	3.91
506.055	3.91
506.403	3.91
506.751	3.91
507.098	3.9
507.446	3.91
507.794	3.91
508.141	3.91
508.489	3.92
508.837	3.94
509.184	3.95
509.531	3.96
509.879	3.96
510.226	3.97
510.574	3.98
510.921	4
511.268	4.01
511.616	4.03
511.963	4.05
512.31	4.07
512.657	4.08
513.004	4.1
513.351	4.11
513.698	4.12
514.045	4.13
514.392	4.13
514.739	4.13
515.086	4.13
515.432	4.13
515.779	4.12
516.126	4.12
516.473	4.11
516.819	4.11
517.166	4.12
517.512	4.13
517.859	4.14
518.205	4.15
518.552	4.17
518.898	4.2
519.245	4.23
519.591	4.28
519.937	4.34
520.283	4.42
520.629	4.51
520.976	4.61
521.322	4.71
521.668	4.82
522.014	4.93
522.36	5.04
522.706	5.15
523.052	5.25
523.398	5.34
523.743	5.42
524.089	5.5
524.435	5.56
524.781	5.62
525.126	5.67
525.472	5.72
525.817	5.77
526.163	5.81
526.509	5.85
526.854	5.9
527.199	5.93
527.545	5.97
527.89	6.01
528.235	6.06
528.581	6.1
528.926	6.13
529.271	6.17
529.616	6.2
529.961	6.23
530.306	6.26
530.651	6.28
530.996	6.3
531.341	6.31
531.686	6.31
532.031	6.31
532.376	6.31
532.721	6.31
533.065	6.32
533.41	6.32
533.755	6.32
534.099	6.3
534.444	6.28
534.788	6.25
535.133	6.21
535.477	6.17
535.822	6.12
536.166	6.07
536.51	6.01
536.855	5.94
537.199	5.87
537.543	5.8
537.887	5.74
538.231	5.68
538.576	5.63
538.92	5.58
539.264	5.53
539.608	5.47
539.951	5.42
540.295	5.36
540.639	5.31
540.983	5.25
541.327	5.19
541.671	5.13
542.014	5.07
542.358	5.01
542.701	4.97
543.045	4.94
543.389	4.92
543.732	4.9
544.075	4.88
544.419	4.86
544.762	4.85
545.105	4.84
545.449	4.83
545.792	4.81
546.135	4.81
546.478	4.79
546.821	4.78
547.165	4.74
547.508	4.71
547.851	4.67
548.194	4.62
548.536	4.56
548.879	4.5
549.222	4.44
549.565	4.37
549.908	4.31
550.25	4.25
550.593	4.2
550.936	4.15
551.278	4.12
551.621	4.09
551.963	4.06
552.306	4.04
552.648	4.02
552.991	4
553.333	3.99
553.675	3.98
554.017	3.97
554.36	3.97
554.702	3.97
555.044	3.98
555.386	3.99
555.728	4
556.07	4.02
556.412	4.03
556.754	4.03
557.096	4.03
557.438	4.03
557.78	4.03
558.121	4.03
558.463	4.03
558.805	4.03
559.147	4.03
559.488	4.02
559.83	4.03
560.171	4.03
560.513	4.03
560.854	4.03
561.196	4.04
561.537	4.03
561.878	4.03
562.22	4.03
562.561	4.03
562.902	4.03
563.243	4.03
563.584	4.03
563.925	4.03
564.266	4.03
564.607	4.03
564.948	4.03
565.289	4.03
565.63	4.03
565.971	4.04
566.312	4.04
566.653	4.04
566.993	4.04
567.334	4.05
567.675	4.05
568.015	4.05
568.356	4.05
568.696	4.05
569.037	4.05
569.377	4.06
569.718	4.06
570.058	4.06
570.398	4.06
570.739	4.07
571.079	4.06
571.419	4.07
571.759	4.07
572.099	4.07
572.439	4.07
572.779	4.07
573.119	4.07
573.459	4.07
573.799	4.07
574.139	4.06
574.479	4.06
574.819	4.06
575.158	4.06
575.498	4.06
575.838	4.06
576.177	4.06
576.517	4.06
576.856	4.06
577.196	4.05
577.535	4.05
577.875	4.05
578.214	4.05
578.553	4.05
578.893	4.04
579.232	4.04
579.571	4.05
579.91	4.04
580.25	4.04
580.589	4.03
580.928	4.03
581.267	4.02
581.606	4.02
581.945	4.02
582.283	4.02
582.622	4.02
582.961	4.02
583.3	4.02
583.639	4.02
583.977	4.01
584.316	4.02
584.654	4.01
584.993	4.01
585.332	4.01
585.67	4.01
586.008	4
586.347	4
586.685	4
587.024	4
587.362	4
587.7	4.01
588.038	4.01
588.376	4.01
588.715	4.01
589.053	4.01
589.391	4.01
589.729	4.01
590.067	4.01
590.404	4.01
590.742	4.01
591.08	4.02
591.418	4.02
591.756	4.02
592.093	4.03
592.431	4.03
592.769	4.04
593.106	4.04
593.444	4.04
593.781	4.04
594.119	4.04
594.456	4.04
594.793	4.04
595.131	4.04
595.468	4.05
595.805	4.05
596.143	4.05
596.48	4.05
596.817	4.05
597.154	4.05
597.491	4.05
597.828	4.05
598.165	4.05
598.502	4.06
598.839	4.06
599.176	4.07
599.512	4.07
599.849	4.07
600.186	4.07
600.523	4.08
600.859	4.08
601.196	4.08
601.532	4.08
601.869	4.08
602.205	4.08
602.542	4.08
602.878	4.09
603.215	4.09
603.551	4.09
603.887	4.09
604.223	4.09
604.56	4.09
604.896	4.09
605.232	4.09
605.568	4.09
605.904	4.1
606.24	4.09
606.576	4.09
606.912	4.09
607.248	4.09
607.583	4.09
607.919	4.09
608.255	4.09
608.591	4.09
608.926	4.1
609.262	4.09
609.597	4.09
609.933	4.09
610.268	4.09
610.604	4.09
610.939	4.09
611.275	4.09
611.61	4.09
611.945	4.09
612.281	4.09
612.616	4.09
612.951	4.08
613.286	4.08
613.621	4.08
613.956	4.08
614.291	4.08
614.626	4.08
614.961	4.08
615.296	4.08
615.631	4.08
615.966	4.08
616.3	4.07
616.635	4.07
616.97	4.08
617.304	4.08
617.639	4.08
617.973	4.08
618.308	4.08
618.642	4.07
618.977	4.07
619.311	4.07
619.646	4.07
619.98	4.07
620.314	4.07
620.648	4.07
620.983	4.08
621.317	4.08
621.651	4.09
621.985	4.09
622.319	4.1
622.653	4.1
622.987	4.1
623.321	4.11
623.655	4.11
623.988	4.11
624.322	4.12
624.656	4.12
624.99	4.12
625.323	4.12
625.657	4.12
625.99	4.11
626.324	4.11
626.657	4.12
626.991	4.12
627.324	4.12
627.658	4.11
627.991	4.11
628.324	4.11
628.657	4.11
628.991	4.11
629.324	4.12
629.657	4.12
629.99	4.12
630.323	4.13
630.656	4.13
630.989	4.13
631.322	4.13
631.655	4.13
631.987	4.13
632.32	4.14
632.653	4.14
632.986	4.15
633.318	4.14
633.651	4.15
633.984	4.15
634.316	4.15
634.649	4.15
634.981	4.15
635.313	4.15
635.646	4.14
635.978	4.14
636.31	4.15
636.643	4.15
636.975	4.15
637.307	4.15
637.639	4.15
637.971	4.15
638.303	4.15
638.635	4.15
638.967	4.15
639.299	4.15
639.631	4.16
639.963	4.17
640.295	4.18
640.626	4.19
640.958	4.19
641.29	4.2
641.621	4.2
641.953	4.2
642.285	4.21
642.616	4.21
642.948	4.2
643.279	4.21
643.61	4.22
643.942	4.21
644.273	4.22
644.604	4.23
644.936	4.22
645.267	4.23
645.598	4.23
645.929	4.23
646.26	4.23
646.591	4.23
646.922	4.23
647.253	4.23
647.584	4.23
647.915	4.23
648.245	4.23
648.576	4.24
648.907	4.24
649.238	4.24
649.568	4.24
649.899	4.24
650.229	4.23
650.56	4.23
650.89	4.23
651.221	4.23
651.551	4.23
651.882	4.23
652.212	4.24
652.542	4.24
652.872	4.25
653.203	4.25
653.533	4.24
653.863	4.24
654.193	4.25
654.523	4.25
654.853	4.25
655.183	4.25
655.513	4.25
655.843	4.25
656.172	4.25
656.502	4.26
656.832	4.26
657.162	4.25
657.491	4.25
657.821	4.25
658.15	4.25
658.48	4.26
658.809	4.26
659.139	4.26
659.468	4.27
659.798	4.27
660.127	4.28
660.456	4.28
660.785	4.29
661.115	4.29
661.444	4.3
661.773	4.3
662.102	4.3
662.431	4.29
662.76	4.3
663.089	4.3
663.418	4.3
663.747	4.31
664.076	4.32
664.404	4.33
664.733	4.33
665.062	4.34
665.39	4.35
665.719	4.35
666.048	4.36
666.376	4.37
666.705	4.37
667.033	4.38
667.362	4.38
667.69	4.37
668.018	4.38
668.347	4.38
668.675	4.39
669.003	4.39
669.331	4.4
669.659	4.4
669.987	4.4
670.315	4.41
670.643	4.41
670.971	4.42
671.299	4.42
671.627	4.42
671.955	4.42
672.283	4.42
672.61	4.43
672.938	4.42
673.266	4.43
673.593	4.43
673.921	4.43
674.249	4.45
674.576	4.44
674.904	4.44
675.231	4.44
675.558	4.44
675.886	4.45
676.213	4.45
676.54	4.45
676.867	4.46
677.195	4.45
677.522	4.45
677.849	4.44
678.176	4.45
678.503	4.44
678.83	4.44
679.157	4.45
679.484	4.44
679.81	4.44
680.137	4.44
680.464	4.44
680.791	4.44
681.117	4.45
681.444	4.46
681.771	4.46
682.097	4.46
682.424	4.46
682.75	4.46
683.077	4.47
683.403	4.47
683.729	4.47
684.056	4.47
684.382	4.46
684.708	4.48
685.034	4.49
685.36	4.5
685.686	4.5
686.012	4.5
686.339	4.5
686.664	4.5
686.99	4.5
687.316	4.5
687.642	4.5
687.968	4.51
688.294	4.52
688.619	4.53
688.945	4.53
689.271	4.53
689.596	4.53
689.922	4.54
690.247	4.55
690.573	4.55
690.898	4.55
691.224	4.56
691.549	4.57
691.874	4.57
692.2	4.57
692.525	4.57
692.85	4.58
693.175	4.6
693.5	4.61
693.825	4.61
694.15	4.61
694.475	4.61
694.8	4.61
695.125	4.61
695.45	4.62
695.775	4.62
696.099	4.63
696.424	4.63
696.749	4.63
697.073	4.64
697.398	4.66
697.723	4.67
698.047	4.67
698.372	4.67
698.696	4.67
699.02	4.67
699.345	4.67
699.669	4.67
699.993	4.69
700.318	4.68
700.642	4.68
700.966	4.69
701.29	4.7
701.614	4.71
701.938	4.71
702.262	4.72
702.586	4.72
702.91	4.73
703.234	4.72
703.557	4.73
703.881	4.74
704.205	4.74
704.529	4.75
704.852	4.75
705.176	4.76
705.499	4.76
705.823	4.78
706.146	4.77
706.47	4.77
706.793	4.77
707.117	4.77
707.44	4.78
707.763	4.79
708.086	4.8
708.409	4.81
708.733	4.82
709.056	4.81
709.379	4.81
709.702	4.83
710.025	4.85
710.348	4.84
710.671	4.83
710.993	4.82
711.316	4.83
711.639	4.83
711.962	4.82
712.284	4.83
712.607	4.84
712.93	4.84
713.252	4.84
713.575	4.85
713.897	4.86
714.22	4.86
714.542	4.86
714.864	4.86
715.187	4.87
715.509	4.87
715.831	4.88
716.153	4.88
716.475	4.89
716.798	4.89
717.12	4.89
717.442	4.9
717.764	4.9
718.085	4.91
718.407	4.93
718.729	4.93
719.051	4.93
719.373	4.94
719.695	4.95
720.016	4.96
720.338	4.97
720.659	4.98
720.981	4.97
721.302	4.97
721.624	4.97
721.945	4.97
722.267	4.97
722.588	5
722.909	5
723.231	4.99
723.552	5
723.873	5.01
724.194	5.03
724.515	5.03
724.836	5.02
725.157	5.04
725.478	5.03
725.799	5.04
726.12	5.06
726.441	5.06
726.762	5.05
727.083	5.04
727.403	5.03
727.724	5.06
728.045	5.07
728.365	5.07
728.686	5.07
729.006	5.08
729.327	5.1
729.647	5.09
729.967	5.11
730.288	5.12
730.608	5.12
730.928	5.12
731.249	5.13
731.569	5.12
731.889	5.13
732.209	5.14
732.529	5.13
732.849	5.13
733.169	5.13
733.489	5.15
733.809	5.15
734.129	5.16
734.448	5.18
734.768	5.18
735.088	5.19
735.408	5.21
735.727	5.19
736.047	5.19
736.366	5.2
736.686	5.2
737.005	5.21
737.325	5.21
737.644	5.2
737.963	5.2
738.283	5.18
738.602	5.21
738.921	5.2
739.24	5.22
739.56	5.22
739.879	5.22
740.198	5.24
740.517	5.26
740.836	5.23
741.155	5.22
741.473	5.22
741.792	5.22
742.111	5.2
742.43	5.2
742.748	5.22
743.067	5.22
743.386	5.24
743.704	5.25
744.023	5.26
744.341	5.25
744.66	5.26
744.978	5.25
745.297	5.27
745.615	5.3
745.933	5.28
746.252	5.28
746.57	5.28
746.888	5.3
747.206	5.29
747.524	5.27
747.842	5.27
748.16	5.26
748.478	5.26
748.796	5.26
749.114	5.26
749.432	5.25
749.749	5.27
750.067	5.27
750.385	5.26
750.703	5.28
751.02	5.3
751.338	5.33
751.655	5.34
751.973	5.33
752.29	5.32
752.608	5.34
752.925	5.35
753.242	5.35
753.56	5.36
753.877	5.38
754.194	5.4
754.511	5.42
754.828	5.45
755.145	5.48
755.462	5.48
755.779	5.5
756.096	5.51
756.413	5.49
756.73	5.51
757.047	5.49
757.364	5.5
757.68	5.51
757.997	5.52
758.314	5.48
758.63	5.5
758.947	5.52
759.264	5.54
759.58	5.53
759.896	5.53
760.213	5.54
760.529	5.56
760.846	5.61
761.162	5.62
761.478	5.63
761.794	5.65
762.11	5.67
762.426	5.69
762.743	5.69
763.059	5.71
763.375	5.72
763.69	5.75
764.006	5.78
764.322	5.78
764.638	5.79
764.954	5.8
765.27	5.83
765.585	5.82
765.901	5.84
766.216	5.84
766.532	5.84
766.848	5.84
767.163	5.84
767.478	5.8
767.794	5.81
768.109	5.82
768.424	5.83
768.74	5.81
769.055	5.81
769.37	5.82
769.685	5.82
770	5.85
770.315	5.87
770.63	5.88
770.945	5.87
771.26	5.9
771.575	5.89
771.89	5.91
772.205	5.93
772.52	5.95
772.834	5.96
773.149	5.98
773.464	5.97
773.778	5.95
774.093	5.96
774.407	5.97
774.722	5.97
775.036	5.97
775.351	5.99
775.665	6.04
775.979	6.03
776.293	6.02
776.608	6.01
776.922	6.01
777.236	6.01
777.55	6.01
777.864	6.03
778.178	6.03
778.492	6.07
778.806	6.05
779.12	6.06
779.434	6.08
779.747	6.1
780.061	6.13
780.375	6.18
780.689	6.21
781.002	6.2
781.316	6.2
781.629	6.22
781.943	6.24
782.256	6.29
782.57	6.28
782.883	6.26
783.196	6.26
783.51	6.28
783.823	6.31
784.136	6.33
784.449	6.36
784.762	6.36
785.075	6.35
785.388	6.32
785.701	6.33
786.014	6.38
786.327	6.42
786.64	6.43
786.953	6.49
787.266	6.51
787.578	6.54
787.891	6.57
788.204	6.54
788.516	6.53
788.829	6.57
789.141	6.58
789.454	6.56
789.766	6.59
790.079	6.62
790.391	6.61
790.703	6.64
791.016	6.65
791.328	6.63
791.64	6.64
791.952	6.67
792.264	6.63
792.576	6.64
792.888	6.63
793.2	6.68
793.512	6.67
793.824	6.69
794.136	6.68
794.448	6.67
794.76	6.74
795.071	6.71
795.383	6.74
795.695	6.78
796.006	6.78
796.318	6.76
796.629	6.76
796.941	6.76
797.252	6.74
797.564	6.74
797.875	6.76
798.186	6.83
798.497	6.81
798.809	6.78
799.12	6.77
799.431	6.8
799.742	6.74
800.053	6.76
800.364	6.75
800.675	6.75
800.986	6.77
801.297	6.76
801.608	6.78
801.918	6.79
802.229	6.81
802.54	6.76
802.851	6.73
803.161	6.76
803.472	6.79
803.782	6.79
804.093	6.78
804.403	6.81
804.714	6.87
805.024	6.95
805.334	6.94
805.645	6.94
805.955	6.92
806.265	6.95
806.575	6.95
806.885	6.96
807.195	6.98
807.505	6.95
807.815	7.05
808.125	7.07
808.435	7.04
808.745	7.03
809.055	7.09
809.365	7.11
809.674	7.15
809.984	7.18
810.294	7.22
810.603	7.21
810.913	7.24
811.222	7.28
811.532	7.28
811.841	7.26
812.151	7.26
812.46	7.29
812.769	7.21
813.079	7.21
813.388	7.24
813.697	7.25
814.006	7.3
814.315	7.22
814.624	7.23
814.933	7.25
815.242	7.28
815.551	7.25
815.86	7.25
816.169	7.21
816.478	7.18
816.786	7.23
817.095	7.2
817.404	7.12
817.712	7.07
818.021	7.06
818.33	7.06
818.638	7.08
818.947	7.06
819.255	7.04
819.563	7.04
819.872	7.05
820.18	7.05
820.488	7.03
820.796	7.01
821.105	7.03
821.413	7.05
821.721	7.07
822.029	7.08
822.337	7.07
822.645	7.07
822.953	7.08
823.26	7.08
823.568	7.07
823.876	7.07
824.184	7.08
824.491	7.08
824.799	7.08
825.107	7.08
825.414	7.12
825.722	7.13
826.029	7.12
826.337	7.13
826.644	7.13
826.951	7.15
827.259	7.16
827.566	7.17
827.873	7.15
828.18	7.17
828.488	7.16
828.795	7.18
829.102	7.18
829.409	7.15
829.716	7.18
830.023	7.2
830.329	7.24
830.636	7.25
830.943	7.28
831.25	7.27
831.557	7.31
831.863	7.34
832.17	7.36
832.476	7.37
832.783	7.38
833.089	7.37
833.396	7.38
833.702	7.38
834.009	7.41
834.315	7.4
834.621	7.45
834.928	7.48
835.234	7.49
835.54	7.46
835.846	7.47
836.152	7.46
836.458	7.48
836.764	7.48
837.07	7.5
837.376	7.53
837.682	7.51
837.988	7.46
838.293	7.46
838.599	7.48
838.905	7.42
839.211	7.4
839.516	7.36
839.822	7.4
840.127	7.37
840.433	7.44
840.738	7.48
841.044	7.49
841.349	7.47
841.654	7.49
841.959	7.5
842.265	7.53
842.57	7.54
842.875	7.49
843.18	7.38
843.485	7.31
843.79	7.3
844.095	7.28
844.4	7.28
844.705	7.39
845.01	7.39
845.315	7.3
845.619	7.32
845.924	7.4
846.229	7.36
846.533	7.26
846.838	7.27
847.142	7.19
847.447	7.17
847.751	7.24
848.056	7.35
848.36	7.42
848.664	7.47
848.969	7.56
849.273	7.65
849.577	7.62
849.881	7.55
850.185	7.64
850.489	7.69
850.794	7.78
851.097	7.87
851.401	8
851.705	8.03
852.009	8.24
852.313	8.24
852.617	8.42
852.92	8.37
853.224	8.43
853.528	8.46
853.831	8.38
854.135	8.48
854.438	8.6
854.742	8.43
855.045	8.39
855.349	8.67
855.652	8.86
855.955	8.97
856.259	9.17
856.562	9.18
856.865	9.26
857.168	9.06
857.471	9.03
857.774	9.32
858.077	9.34
858.38	9.42
858.683	9.63
858.986	9.7
859.289	9.63
859.592	9.62
859.894	9.67
860.197	9.57
860.5	9.62
860.802	9.56
861.105	9.57
861.407	9.44
861.71	9.37
862.012	9.46
862.315	9.55
862.617	9.51
862.919	9.67
863.222	9.54
863.524	9.33
863.826	9.38
864.128	9.34
864.43	9.36
864.732	9.24
865.034	9.2
865.336	9.2
865.638	9.08
865.94	9.1
866.242	9.12
866.544	9.32
866.846	9.36
867.147	9.42
867.449	9.5
867.751	9.33
868.052	9.3
868.354	9.31
868.655	9.09
868.957	9.1
869.258	9.16
869.56	9.35
869.861	9.47
870.162	9.5
870.463	9.73
870.765	9.59
871.066	9.66
871.367	9.62
871.668	9.63
871.969	9.59
872.27	9.6
872.571	9.64
872.872	9.61
873.173	9.7
873.473	9.75
873.774	9.79
874.075	9.85
874.376	9.8
874.676	9.78
874.977	9.9
875.277	9.74
875.578	9.85
875.878	10.05
876.179	9.95
876.479	10.12
876.78	10.05
877.08	10.17
877.38	10.04
877.68	10.12
877.981	10.22
878.281	10.24
878.581	10.4
