Data from UWBM42201_Reflection_00011.txt Node
Date: Sun May 02 12:50:32 EDT 2021
User: vgr7
Spectrometer: USB2G7710
Scans to average: 10
Trigger mode: 4
Integration Time (sec): 1.000000E-1
Electric dark correction enabled: true
Boxcar width: 20
XAxis mode: Wavelengths
Number of Pixels in Spectrum: 2048
>>>>>Begin Spectral Data<<<<<
177.721	99.9
178.105	99.3
178.488	98.94
178.871	97.96
179.254	98.3
179.636	97.43
180.019	96.72
180.402	96.05
180.785	94.5
181.168	91.6
181.55	88.92
181.933	111.13
182.316	111.8
182.698	112.76
183.081	112.95
183.463	114.49
183.846	116.96
184.228	118.34
184.611	119.18
184.993	121.1
185.376	123.18
185.758	-67.87
186.14	-21.58
186.522	5.41
186.904	16.98
187.287	25.5
187.669	29.45
188.051	28.32
188.433	31.04
188.815	26.69
189.197	25.02
189.579	27.24
189.961	27.77
190.342	25
190.724	27.04
191.106	24.97
191.488	25.5
191.869	19.9
192.251	19.79
192.633	19.54
193.014	18.57
193.396	18.56
193.777	24.85
194.159	23.93
194.54	22.76
194.922	21.63
195.303	24.03
195.684	24.11
196.065	23.72
196.447	21.89
196.828	20.84
197.209	21.36
197.59	12.31
197.971	11.56
198.352	11.71
198.733	12.83
199.114	12.17
199.495	14.17
199.876	13.93
200.257	13.4
200.638	14
201.018	9.73
201.399	8.77
201.78	8.65
202.16	6.94
202.541	8.15
202.922	6.55
203.302	3.06
203.683	2.73
204.063	1.81
204.444	4.81
204.824	8.07
205.204	9.61
205.585	17.78
205.965	17.48
206.345	18.21
206.725	14.61
207.106	13.82
207.486	14.75
207.866	15.03
208.246	13.8
208.626	15.92
209.006	19.85
209.386	15.11
209.766	16.12
210.145	14.81
210.525	14.04
210.905	13.71
211.285	15.57
211.664	15.26
212.044	16.79
212.424	17.29
212.803	13.06
213.183	15.28
213.562	15.1
213.942	13.95
214.321	11.81
214.701	11.83
215.08	11.57
215.459	12.06
215.838	11.18
216.218	10.51
216.597	9.32
216.976	6.87
217.355	7.44
217.734	8.81
218.113	9.33
218.492	10.56
218.871	11.58
219.25	12.82
219.629	12.77
220.008	12.2
220.387	12.43
220.766	11.56
221.144	9.69
221.523	10.61
221.902	10.41
222.28	10.79
222.659	11.47
223.037	11.38
223.416	11.75
223.794	12.1
224.173	11.08
224.551	10.76
224.929	11.52
225.308	12.11
225.686	12.5
226.064	12.42
226.442	11.83
226.821	10.86
227.199	10.06
227.577	9.38
227.955	9.02
228.333	8.92
228.711	8.75
229.089	8.94
229.467	8.51
229.845	8.82
230.222	8.6
230.6	8.95
230.978	9.12
231.356	8.39
231.733	8.25
232.111	7.85
232.488	7.52
232.866	7.3
233.243	6.77
233.621	6.73
233.998	6.57
234.376	6.62
234.753	6.55
235.13	6.49
235.508	6.9
235.885	6.85
236.262	6.88
236.639	7
237.016	6.91
237.393	6.85
237.77	6.75
238.147	6.66
238.524	6.61
238.901	6.56
239.278	6.51
239.655	6.48
240.032	6.31
240.409	6.26
240.785	6.13
241.162	6.14
241.539	6.08
241.915	6.07
242.292	6.02
242.668	5.96
243.045	5.94
243.421	5.83
243.798	5.79
244.174	5.78
244.551	5.73
244.927	5.58
245.303	5.55
245.679	5.58
246.056	5.52
246.432	5.45
246.808	5.27
247.184	5.25
247.56	5.25
247.936	5.27
248.312	5.24
248.688	5.3
249.064	5.27
249.44	5.24
249.815	5.23
250.191	5.18
250.567	5.16
250.943	5.19
251.318	5.19
251.694	5.12
252.069	5.04
252.445	5.05
252.82	5.13
253.196	5.14
253.571	5.08
253.947	5.15
254.322	5.11
254.697	5.24
255.073	5.2
255.448	5.19
255.823	5.15
256.198	5.09
256.573	4.93
256.948	4.92
257.323	4.94
257.698	4.89
258.073	4.87
258.448	4.75
258.823	4.74
259.198	4.73
259.573	4.76
259.948	4.8
260.322	4.77
260.697	4.75
261.072	4.73
261.446	4.72
261.821	4.71
262.195	4.69
262.57	4.65
262.944	4.64
263.319	4.64
263.693	4.69
264.067	4.7
264.442	4.78
264.816	4.76
265.19	4.73
265.564	4.79
265.938	4.76
266.313	4.81
266.687	4.76
267.061	4.76
267.435	4.76
267.809	4.75
268.183	4.72
268.556	4.72
268.93	4.72
269.304	4.7
269.678	4.66
270.051	4.63
270.425	4.63
270.799	4.63
271.172	4.64
271.546	4.66
271.919	4.66
272.293	4.64
272.666	4.62
273.04	4.63
273.413	4.6
273.787	4.6
274.16	4.6
274.533	4.62
274.906	4.59
275.279	4.6
275.653	4.58
276.026	4.57
276.399	4.52
276.772	4.51
277.145	4.53
277.518	4.54
277.891	4.57
278.263	4.58
278.636	4.57
279.009	4.58
279.382	4.56
279.755	4.5
280.127	4.53
280.5	4.55
280.872	4.52
281.245	4.62
281.617	4.63
281.99	4.65
282.362	4.68
282.735	4.66
283.107	4.64
283.479	4.67
283.852	4.7
284.224	4.73
284.596	4.73
284.968	4.63
285.34	4.63
285.713	4.64
286.085	4.59
286.457	4.59
286.829	4.58
287.201	4.59
287.572	4.65
287.944	4.68
288.316	4.71
288.688	4.75
289.06	4.76
289.431	4.78
289.803	4.8
290.175	4.81
290.546	4.85
290.918	4.88
291.289	4.88
291.661	4.93
292.032	4.91
292.403	4.95
292.775	5.05
293.146	5.07
293.517	5.12
293.889	5.21
294.26	5.22
294.631	5.26
295.002	5.34
295.373	5.37
295.744	5.39
296.115	5.42
296.486	5.4
296.857	5.43
297.228	5.46
297.599	5.49
297.97	5.52
298.34	5.58
298.711	5.56
299.082	5.59
299.452	5.64
299.823	5.7
300.194	5.74
300.564	5.76
300.935	5.81
301.305	5.83
301.676	5.85
302.046	5.89
302.416	5.93
302.787	5.97
303.157	5.95
303.527	6.01
303.897	6.05
304.267	6.1
304.637	6.16
305.008	6.22
305.378	6.29
305.748	6.32
306.117	6.43
306.487	6.54
306.857	6.64
307.227	6.69
307.597	6.73
307.967	6.78
308.336	6.83
308.706	6.9
309.076	6.95
309.445	6.99
309.815	6.93
310.184	6.97
310.554	6.99
310.923	7.06
311.293	7.14
311.662	7.18
312.031	7.2
312.401	7.26
312.77	7.27
313.139	7.3
313.508	7.36
313.877	7.36
314.246	7.39
314.616	7.41
314.985	7.41
315.353	7.47
315.722	7.51
316.091	7.55
316.46	7.62
316.829	7.71
317.198	7.76
317.567	7.93
317.935	7.99
318.304	8.09
318.672	8.16
319.041	8.22
319.41	8.29
319.778	8.36
320.147	8.44
320.515	8.48
320.883	8.53
321.252	8.51
321.62	8.58
321.988	8.63
322.357	8.69
322.725	8.8
323.093	8.85
323.461	8.89
323.829	8.92
324.197	8.95
324.565	8.99
324.933	9.03
325.301	9.05
325.669	9.08
326.037	9.11
326.405	9.09
326.772	9.13
327.14	9.17
327.508	9.17
327.875	9.21
328.243	9.25
328.61	9.25
328.978	9.28
329.346	9.29
329.713	9.31
330.08	9.34
330.448	9.36
330.815	9.37
331.182	9.41
331.55	9.43
331.917	9.46
332.284	9.49
332.651	9.54
333.018	9.57
333.385	9.61
333.752	9.66
334.119	9.7
334.486	9.74
334.853	9.76
335.22	9.8
335.587	9.82
335.954	9.85
336.32	9.9
336.687	9.94
337.054	9.97
337.42	10.01
337.787	10.02
338.153	10.05
338.52	10.12
338.886	10.18
339.253	10.19
339.619	10.2
339.986	10.2
340.352	10.21
340.718	10.24
341.084	10.27
341.451	10.28
341.817	10.29
342.183	10.29
342.549	10.34
342.915	10.36
343.281	10.41
343.647	10.44
344.013	10.48
344.379	10.52
344.745	10.54
345.11	10.56
345.476	10.59
345.842	10.61
346.208	10.61
346.573	10.61
346.939	10.64
347.304	10.66
347.67	10.67
348.035	10.69
348.401	10.69
348.766	10.71
349.132	10.72
349.497	10.74
349.862	10.76
350.228	10.78
350.593	10.79
350.958	10.79
351.323	10.78
351.688	10.79
352.053	10.77
352.418	10.77
352.783	10.77
353.148	10.76
353.513	10.75
353.878	10.75
354.243	10.76
354.608	10.74
354.972	10.75
355.337	10.74
355.702	10.72
356.066	10.72
356.431	10.71
356.795	10.71
357.16	10.68
357.524	10.66
357.889	10.65
358.253	10.64
358.618	10.63
358.982	10.62
359.346	10.62
359.71	10.6
360.075	10.59
360.439	10.59
360.803	10.56
361.167	10.54
361.531	10.54
361.895	10.53
362.259	10.51
362.623	10.5
362.987	10.47
363.351	10.46
363.714	10.45
364.078	10.43
364.442	10.41
364.806	10.39
365.169	10.35
365.533	10.32
365.896	10.29
366.26	10.27
366.623	10.23
366.987	10.21
367.35	10.19
367.714	10.17
368.077	10.14
368.44	10.11
368.803	10.07
369.167	10.03
369.53	10
369.893	9.97
370.256	9.93
370.619	9.91
370.982	9.86
371.345	9.81
371.708	9.78
372.071	9.74
372.434	9.7
372.797	9.67
373.159	9.64
373.522	9.6
373.885	9.54
374.247	9.48
374.61	9.44
374.973	9.38
375.335	9.33
375.698	9.29
376.06	9.24
376.423	9.19
376.785	9.15
377.147	9.09
377.51	9.05
377.872	9.01
378.234	8.96
378.596	8.92
378.958	8.88
379.321	8.83
379.683	8.79
380.045	8.73
380.407	8.69
380.769	8.64
381.13	8.61
381.492	8.57
381.854	8.53
382.216	8.48
382.578	8.43
382.939	8.4
383.301	8.35
383.663	8.32
384.024	8.27
384.386	8.23
384.747	8.19
385.109	8.13
385.47	8.09
385.832	8.05
386.193	8.01
386.554	7.97
386.916	7.93
387.277	7.89
387.638	7.86
387.999	7.82
388.36	7.79
388.721	7.76
389.082	7.73
389.443	7.7
389.804	7.67
390.165	7.64
390.526	7.6
390.887	7.58
391.248	7.53
391.609	7.51
391.969	7.47
392.33	7.45
392.691	7.41
393.051	7.38
393.412	7.34
393.772	7.31
394.133	7.28
394.493	7.24
394.854	7.21
395.214	7.17
395.574	7.13
395.935	7.09
396.295	7.05
396.655	7.01
397.015	6.98
397.376	6.93
397.736	6.89
398.096	6.85
398.456	6.82
398.816	6.8
399.176	6.76
399.535	6.73
399.895	6.7
400.255	6.66
400.615	6.63
400.975	6.61
401.334	6.56
401.694	6.53
402.054	6.5
402.413	6.45
402.773	6.42
403.132	6.39
403.492	6.36
403.851	6.33
404.211	6.3
404.57	6.28
404.929	6.27
405.288	6.24
405.648	6.22
406.007	6.2
406.366	6.18
406.725	6.16
407.084	6.13
407.443	6.12
407.802	6.09
408.161	6.07
408.52	6.04
408.879	6.03
409.238	6.01
409.596	5.99
409.955	5.98
410.314	5.97
410.673	5.95
411.031	5.94
411.39	5.93
411.748	5.92
412.107	5.92
412.465	5.91
412.824	5.92
413.182	5.93
413.54	5.94
413.899	5.95
414.257	5.97
414.615	6.01
414.974	6.03
415.332	6.07
415.69	6.1
416.048	6.12
416.406	6.16
416.764	6.19
417.122	6.21
417.48	6.24
417.838	6.26
418.195	6.28
418.553	6.29
418.911	6.3
419.269	6.28
419.626	6.26
419.984	6.24
420.342	6.2
420.699	6.17
421.057	6.13
421.414	6.1
421.772	6.07
422.129	6.05
422.486	6.04
422.844	6.02
423.201	6.01
423.558	6
423.915	5.98
424.273	5.97
424.63	5.96
424.987	5.94
425.344	5.93
425.701	5.91
426.058	5.9
426.415	5.88
426.772	5.86
427.128	5.85
427.485	5.82
427.842	5.8
428.199	5.76
428.555	5.73
428.912	5.69
429.269	5.65
429.625	5.61
429.982	5.57
430.338	5.52
430.695	5.48
431.051	5.42
431.407	5.39
431.764	5.35
432.12	5.31
432.476	5.29
432.832	5.27
433.189	5.27
433.545	5.27
433.901	5.28
434.257	5.3
434.613	5.32
434.969	5.35
435.325	5.37
435.681	5.42
436.036	5.43
436.392	5.46
436.748	5.46
437.104	5.46
437.459	5.48
437.815	5.49
438.171	5.51
438.526	5.54
438.882	5.57
439.237	5.61
439.593	5.66
439.948	5.69
440.304	5.73
440.659	5.76
441.014	5.78
441.369	5.81
441.725	5.83
442.08	5.85
442.435	5.86
442.79	5.86
443.145	5.86
443.5	5.86
443.855	5.86
444.21	5.85
444.565	5.84
444.92	5.83
445.275	5.81
445.629	5.8
445.984	5.78
446.339	5.77
446.693	5.76
447.048	5.74
447.403	5.72
447.757	5.68
448.112	5.65
448.466	5.62
448.82	5.6
449.175	5.57
449.529	5.55
449.883	5.53
450.238	5.49
450.592	5.49
450.946	5.47
451.3	5.47
451.654	5.47
452.008	5.46
452.362	5.47
452.716	5.46
453.07	5.46
453.424	5.44
453.778	5.43
454.132	5.4
454.486	5.39
454.839	5.36
455.193	5.32
455.547	5.3
455.9	5.26
456.254	5.23
456.607	5.19
456.961	5.15
457.314	5.13
457.668	5.11
458.021	5.1
458.375	5.09
458.728	5.09
459.081	5.09
459.434	5.11
459.787	5.12
460.141	5.13
460.494	5.13
460.847	5.14
461.2	5.14
461.553	5.16
461.906	5.16
462.259	5.17
462.611	5.18
462.964	5.19
463.317	5.2
463.67	5.2
464.022	5.2
464.375	5.21
464.728	5.22
465.08	5.22
465.433	5.23
465.785	5.24
466.138	5.22
466.49	5.22
466.843	5.2
467.195	5.18
467.547	5.17
467.899	5.15
468.252	5.12
468.604	5.11
468.956	5.09
469.308	5.09
469.66	5.09
470.012	5.09
470.364	5.11
470.716	5.13
471.068	5.16
471.42	5.21
471.772	5.24
472.123	5.26
472.475	5.29
472.827	5.31
473.178	5.33
473.53	5.35
473.882	5.38
474.233	5.42
474.585	5.47
474.936	5.56
475.288	5.69
475.639	5.84
475.99	6.03
476.342	6.23
476.693	6.45
477.044	6.67
477.395	6.9
477.746	7.12
478.097	7.35
478.448	7.59
478.8	7.81
479.15	8.02
479.501	8.2
479.852	8.38
480.203	8.53
480.554	8.69
480.905	8.83
481.255	8.97
481.606	9.11
481.957	9.23
482.307	9.35
482.658	9.46
483.009	9.57
483.359	9.67
483.709	9.77
484.06	9.86
484.41	9.95
484.761	10.04
485.111	10.12
485.461	10.2
485.811	10.27
486.162	10.33
486.512	10.39
486.862	10.43
487.212	10.46
487.562	10.49
487.912	10.5
488.262	10.5
488.612	10.49
488.961	10.46
489.311	10.41
489.661	10.32
490.011	10.2
490.36	10.06
490.71	9.89
491.06	9.71
491.409	9.53
491.759	9.34
492.108	9.15
492.458	8.95
492.807	8.73
493.157	8.53
493.506	8.33
493.855	8.14
494.204	7.97
494.554	7.81
494.903	7.67
495.252	7.53
495.601	7.39
495.95	7.26
496.299	7.15
496.648	7.04
496.997	6.94
497.346	6.85
497.695	6.76
498.043	6.68
498.392	6.61
498.741	6.53
499.09	6.46
499.438	6.41
499.787	6.36
500.135	6.31
500.484	6.28
500.832	6.27
501.181	6.26
501.529	6.28
501.878	6.31
502.226	6.35
502.574	6.41
502.923	6.46
503.271	6.53
503.619	6.6
503.967	6.67
504.315	6.75
504.663	6.82
505.011	6.9
505.359	6.98
505.707	7.06
506.055	7.15
506.403	7.26
506.751	7.36
507.098	7.47
507.446	7.59
507.794	7.71
508.141	7.85
508.489	8
508.837	8.15
509.184	8.3
509.531	8.46
509.879	8.63
510.226	8.82
510.574	9.02
510.921	9.22
511.268	9.44
511.616	9.66
511.963	9.9
512.31	10.13
512.657	10.37
513.004	10.61
513.351	10.85
513.698	11.07
514.045	11.29
514.392	11.51
514.739	11.71
515.086	11.92
515.432	12.13
515.779	12.36
516.126	12.59
516.473	12.84
516.819	13.11
517.166	13.4
517.512	13.71
517.859	14.04
518.205	14.4
518.552	14.78
518.898	15.2
519.245	15.67
519.591	16.23
519.937	16.88
520.283	17.63
520.629	18.43
520.976	19.27
521.322	20.13
521.668	21.01
522.014	21.89
522.36	22.77
522.706	23.63
523.052	24.48
523.398	25.28
523.743	26.04
524.089	26.73
524.435	27.38
524.781	28.03
525.126	28.66
525.472	29.28
525.817	29.9
526.163	30.49
526.509	31.08
526.854	31.66
527.199	32.23
527.545	32.8
527.89	33.39
528.235	33.96
528.581	34.5
528.926	35.01
529.271	35.49
529.616	35.93
529.961	36.33
530.306	36.69
530.651	37.04
530.996	37.37
531.341	37.67
531.686	37.95
532.031	38.2
532.376	38.5
532.721	38.8
533.065	39.13
533.41	39.47
533.755	39.76
534.099	39.98
534.444	40.16
534.788	40.3
535.133	40.43
535.477	40.51
535.822	40.56
536.166	40.56
536.51	40.49
536.855	40.36
537.199	40.2
537.543	40.03
537.887	39.91
538.231	39.81
538.576	39.73
538.92	39.62
539.264	39.51
539.608	39.37
539.951	39.2
540.295	39.03
540.639	38.84
540.983	38.62
541.327	38.41
541.671	38.21
542.014	38.02
542.358	37.85
542.701	37.78
543.045	37.76
543.389	37.78
543.732	37.82
544.075	37.88
544.419	37.95
544.762	38.02
545.105	38.12
545.449	38.23
545.792	38.35
546.135	38.47
546.478	38.54
546.821	38.54
547.165	38.48
547.508	38.35
547.851	38.17
548.194	37.95
548.536	37.68
548.879	37.37
549.222	37.03
549.565	36.69
549.908	36.35
550.25	36.04
550.593	35.8
550.936	35.64
551.278	35.53
551.621	35.46
551.963	35.42
552.306	35.41
552.648	35.43
552.991	35.47
553.333	35.53
553.675	35.63
554.017	35.77
554.36	35.93
554.702	36.12
555.044	36.35
555.386	36.63
555.728	36.89
556.07	37.13
556.412	37.35
556.754	37.48
557.096	37.61
557.438	37.74
557.78	37.87
558.121	37.99
558.463	38.11
558.805	38.24
559.147	38.37
559.488	38.5
559.83	38.62
560.171	38.74
560.513	38.86
560.854	38.97
561.196	39.08
561.537	39.2
561.878	39.31
562.22	39.41
562.561	39.52
562.902	39.63
563.243	39.74
563.584	39.84
563.925	39.96
564.266	40.08
564.607	40.18
564.948	40.3
565.289	40.4
565.63	40.5
565.971	40.6
566.312	40.69
566.653	40.79
566.993	40.88
567.334	40.98
567.675	41.07
568.015	41.16
568.356	41.25
568.696	41.34
569.037	41.41
569.377	41.48
569.718	41.55
570.058	41.61
570.398	41.68
570.739	41.74
571.079	41.79
571.419	41.84
571.759	41.89
572.099	41.94
572.439	41.99
572.779	42.05
573.119	42.1
573.459	42.14
573.799	42.18
574.139	42.23
574.479	42.28
574.819	42.32
575.158	42.36
575.498	42.41
575.838	42.44
576.177	42.48
576.517	42.52
576.856	42.56
577.196	42.59
577.535	42.63
577.875	42.65
578.214	42.67
578.553	42.7
578.893	42.72
579.232	42.74
579.571	42.77
579.91	42.8
580.25	42.82
580.589	42.83
580.928	42.86
581.267	42.88
581.606	42.92
581.945	42.95
582.283	42.97
582.622	43
582.961	43.04
583.3	43.08
583.639	43.12
583.977	43.16
584.316	43.2
584.654	43.25
584.993	43.29
585.332	43.33
585.67	43.37
586.008	43.41
586.347	43.45
586.685	43.49
587.024	43.52
587.362	43.56
587.7	43.61
588.038	43.66
588.376	43.71
588.715	43.76
589.053	43.82
589.391	43.87
589.729	43.92
590.067	43.98
590.404	44.03
590.742	44.08
591.08	44.14
591.418	44.2
591.756	44.24
592.093	44.29
592.431	44.34
592.769	44.4
593.106	44.43
593.444	44.46
593.781	44.5
594.119	44.54
594.456	44.58
594.793	44.62
595.131	44.65
595.468	44.69
595.805	44.72
596.143	44.77
596.48	44.82
596.817	44.86
597.154	44.91
597.491	44.95
597.828	44.99
598.165	45.04
598.502	45.08
598.839	45.13
599.176	45.16
599.512	45.2
599.849	45.23
600.186	45.27
600.523	45.31
600.859	45.33
601.196	45.36
601.532	45.4
601.869	45.43
602.205	45.45
602.542	45.49
602.878	45.5
603.215	45.52
603.551	45.54
603.887	45.56
604.223	45.57
604.56	45.59
604.896	45.6
605.232	45.62
605.568	45.64
605.904	45.65
606.24	45.67
606.576	45.67
606.912	45.69
607.248	45.7
607.583	45.73
607.919	45.74
608.255	45.75
608.591	45.77
608.926	45.79
609.262	45.8
609.597	45.82
609.933	45.81
610.268	45.83
610.604	45.83
610.939	45.83
611.275	45.84
611.61	45.84
611.945	45.84
612.281	45.84
612.616	45.84
612.951	45.84
613.286	45.84
613.621	45.84
613.956	45.85
614.291	45.86
614.626	45.88
614.961	45.9
615.296	45.9
615.631	45.91
615.966	45.92
616.3	45.93
616.635	45.96
616.97	45.96
617.304	45.96
617.639	45.97
617.973	45.99
618.308	46
618.642	46.01
618.977	46.02
619.311	46.03
619.646	46.06
619.98	46.1
620.314	46.13
620.648	46.16
620.983	46.19
621.317	46.21
621.651	46.24
621.985	46.24
622.319	46.26
622.653	46.28
622.987	46.29
623.321	46.31
623.655	46.33
623.988	46.35
624.322	46.37
624.656	46.39
624.99	46.41
625.323	46.42
625.657	46.43
625.99	46.46
626.324	46.49
626.657	46.5
626.991	46.52
627.324	46.55
627.658	46.56
627.991	46.58
628.324	46.59
628.657	46.61
628.991	46.63
629.324	46.65
629.657	46.66
629.99	46.67
630.323	46.68
630.656	46.69
630.989	46.72
631.322	46.74
631.655	46.75
631.987	46.77
632.32	46.78
632.653	46.79
632.986	46.8
633.318	46.8
633.651	46.79
633.984	46.8
634.316	46.82
634.649	46.82
634.981	46.84
635.313	46.86
635.646	46.88
635.978	46.88
636.31	46.89
636.643	46.9
636.975	46.91
637.307	46.91
637.639	46.93
637.971	46.96
638.303	46.97
638.635	46.97
638.967	46.98
639.299	46.99
639.631	46.99
639.963	47.01
640.295	47.03
640.626	47.05
640.958	47.06
641.29	47.07
641.621	47.09
641.953	47.12
642.285	47.14
642.616	47.17
642.948	47.16
643.279	47.19
643.61	47.2
643.942	47.22
644.273	47.24
644.604	47.26
644.936	47.28
645.267	47.3
645.598	47.31
645.929	47.33
646.26	47.35
646.591	47.37
646.922	47.4
647.253	47.42
647.584	47.43
647.915	47.44
648.245	47.45
648.576	47.45
648.907	47.47
649.238	47.49
649.568	47.5
649.899	47.5
650.229	47.53
650.56	47.56
650.89	47.59
651.221	47.63
651.551	47.64
651.882	47.66
652.212	47.68
652.542	47.69
652.872	47.72
653.203	47.77
653.533	47.78
653.863	47.78
654.193	47.79
654.523	47.8
654.853	47.81
655.183	47.81
655.513	47.82
655.843	47.84
656.172	47.83
656.502	47.85
656.832	47.86
657.162	47.88
657.491	47.88
657.821	47.89
658.15	47.88
658.48	47.88
658.809	47.88
659.139	47.89
659.468	47.92
659.798	47.92
660.127	47.94
660.456	47.97
660.785	47.99
661.115	48
661.444	48.02
661.773	48.04
662.102	48.05
662.431	48.05
662.76	48.07
663.089	48.08
663.418	48.1
663.747	48.12
664.076	48.14
664.404	48.14
664.733	48.14
665.062	48.16
665.39	48.19
665.719	48.19
666.048	48.21
666.376	48.2
666.705	48.21
667.033	48.22
667.362	48.24
667.69	48.26
668.018	48.25
668.347	48.26
668.675	48.28
669.003	48.28
669.331	48.28
669.659	48.3
669.987	48.33
670.315	48.32
670.643	48.35
670.971	48.35
671.299	48.35
671.627	48.36
671.955	48.38
672.283	48.41
672.61	48.43
672.938	48.46
673.266	48.48
673.593	48.5
673.921	48.5
674.249	48.49
674.576	48.52
674.904	48.54
675.231	48.54
675.558	48.55
675.886	48.57
676.213	48.59
676.54	48.62
676.867	48.61
677.195	48.62
677.522	48.62
677.849	48.64
678.176	48.67
678.503	48.67
678.83	48.69
679.157	48.71
679.484	48.71
679.81	48.73
680.137	48.72
680.464	48.72
680.791	48.74
681.117	48.76
681.444	48.77
681.771	48.79
682.097	48.79
682.424	48.82
682.75	48.82
683.077	48.84
683.403	48.85
683.729	48.87
684.056	48.87
684.382	48.9
684.708	48.93
685.034	48.95
685.36	48.96
685.686	48.98
686.012	49.01
686.339	49.01
686.664	49.04
686.99	49.05
687.316	49.07
687.642	49.11
687.968	49.14
688.294	49.15
688.619	49.17
688.945	49.21
689.271	49.23
689.596	49.24
689.922	49.27
690.247	49.3
690.573	49.32
690.898	49.37
691.224	49.39
691.549	49.37
691.874	49.39
692.2	49.37
692.525	49.38
692.85	49.38
693.175	49.39
693.5	49.43
693.825	49.44
694.15	49.45
694.475	49.46
694.8	49.47
695.125	49.5
695.45	49.53
695.775	49.52
696.099	49.55
696.424	49.55
696.749	49.56
697.073	49.59
697.398	49.6
697.723	49.6
698.047	49.6
698.372	49.62
698.696	49.64
699.02	49.62
699.345	49.61
699.669	49.62
699.993	49.64
700.318	49.64
700.642	49.65
700.966	49.65
701.29	49.65
701.614	49.66
701.938	49.67
702.262	49.69
702.586	49.7
702.91	49.7
703.234	49.7
703.557	49.73
703.881	49.74
704.205	49.73
704.529	49.75
704.852	49.75
705.176	49.78
705.499	49.8
705.823	49.82
706.146	49.85
706.47	49.87
706.793	49.88
707.117	49.97
707.44	49.98
707.763	49.98
708.086	50
708.409	50
708.733	50.02
709.056	50.03
709.379	50.03
709.702	50.05
710.025	50.07
710.348	49.99
710.671	50
710.993	50.02
711.316	50.03
711.639	50.04
711.962	50.03
712.284	50.05
712.607	50.09
712.93	50.11
713.252	50.11
713.575	50.11
713.897	50.11
714.22	50.14
714.542	50.16
714.864	50.22
715.187	50.21
715.509	50.21
715.831	50.19
716.153	50.2
716.475	50.2
716.798	50.2
717.12	50.32
717.442	50.32
717.764	50.33
718.085	50.3
718.407	50.28
718.729	50.33
719.051	50.36
719.373	50.41
719.695	50.42
720.016	50.4
720.338	50.37
720.659	50.38
720.981	50.4
721.302	50.37
721.624	50.38
721.945	50.37
722.267	50.4
722.588	50.41
722.909	50.43
723.231	50.43
723.552	50.43
723.873	50.46
724.194	50.45
724.515	50.49
724.836	50.58
725.157	50.58
725.478	50.6
725.799	50.58
726.12	50.58
726.441	50.58
726.762	50.62
727.083	50.64
727.403	50.63
727.724	50.61
728.045	50.55
728.365	50.58
728.686	50.61
729.006	50.63
729.327	50.66
729.647	50.65
729.967	50.62
730.288	50.6
730.608	50.65
730.928	50.67
731.249	50.67
731.569	50.69
731.889	50.66
732.209	50.67
732.529	50.64
732.849	50.64
733.169	50.67
733.489	50.66
733.809	50.66
734.129	50.66
734.448	50.69
734.768	50.67
735.088	50.67
735.408	50.65
735.727	50.67
736.047	50.69
736.366	50.72
736.686	50.75
737.005	50.73
737.325	50.73
737.644	50.71
737.963	50.7
738.283	50.7
738.602	50.69
738.921	50.71
739.24	50.69
739.56	50.69
739.879	50.66
740.198	50.64
740.517	50.67
740.836	50.7
741.155	50.71
741.473	50.73
741.792	50.74
742.111	50.75
742.43	50.78
742.748	50.8
743.067	50.82
743.386	50.84
743.704	50.83
744.023	50.82
744.341	50.85
744.66	50.87
744.978	50.84
745.297	50.83
745.615	50.81
745.933	50.8
746.252	50.79
746.57	50.78
746.888	50.82
747.206	50.83
747.524	50.85
747.842	50.89
748.16	50.92
748.478	50.91
748.796	50.85
749.114	50.82
749.432	50.83
749.749	50.82
750.067	50.79
750.385	50.78
750.703	50.78
751.02	50.74
751.338	50.75
751.655	50.81
751.973	50.81
752.29	50.8
752.608	50.85
752.925	50.86
753.242	50.91
753.56	50.93
753.877	50.91
754.194	50.95
754.511	50.96
754.828	50.96
755.145	50.99
755.462	50.97
755.779	50.99
756.096	51.01
756.413	51.03
756.73	51.01
757.047	51.06
757.364	51.09
757.68	51.12
757.997	51.16
758.314	51.2
758.63	51.25
758.947	51.34
759.264	51.37
759.58	51.4
759.896	51.41
760.213	51.42
760.529	51.43
760.846	51.43
761.162	51.42
761.478	51.47
761.794	51.48
762.11	51.49
762.426	51.49
762.743	51.49
763.059	51.57
763.375	51.61
763.69	51.6
764.006	51.62
764.322	51.62
764.638	51.62
764.954	51.63
765.27	51.66
765.585	51.64
765.901	51.66
766.216	51.59
766.532	51.56
766.848	51.56
767.163	51.57
767.478	51.6
767.794	51.63
768.109	51.61
768.424	51.62
768.74	51.61
769.055	51.61
769.37	51.62
769.685	51.63
770	51.61
770.315	51.59
770.63	51.52
770.945	51.49
771.26	51.44
771.575	51.41
771.89	51.34
772.205	51.31
772.52	51.27
772.834	51.34
773.149	51.34
773.464	51.29
773.778	51.27
774.093	51.29
774.407	51.23
774.722	51.23
775.036	51.22
775.351	51.21
775.665	51.16
775.979	51.09
776.293	51.08
776.608	51.08
776.922	51.05
777.236	51.12
777.55	51.18
777.864	51.23
778.178	51.2
778.492	51.19
778.806	51.2
779.12	51.19
779.434	51.21
779.747	51.19
780.061	51.27
780.375	51.21
780.689	51.15
781.002	51.21
781.316	51.17
781.629	51.22
781.943	51.23
782.256	51.26
782.57	51.31
782.883	51.31
783.196	51.3
783.51	51.37
783.823	51.36
784.136	51.36
784.449	51.43
784.762	51.49
785.075	51.5
785.388	51.52
785.701	51.54
786.014	51.51
786.327	51.49
786.64	51.48
786.953	51.46
787.266	51.48
787.578	51.51
787.891	51.53
788.204	51.52
788.516	51.58
788.829	51.66
789.141	51.65
789.454	51.71
789.766	51.72
790.079	51.71
790.391	51.71
790.703	51.73
791.016	51.72
791.328	51.72
791.64	51.7
791.952	51.78
792.264	51.78
792.576	51.8
792.888	51.8
793.2	51.84
793.512	51.91
793.824	51.83
794.136	51.86
794.448	51.88
794.76	51.92
795.071	51.91
795.383	51.9
795.695	51.96
796.006	52
796.318	52.01
796.629	52
796.941	52.05
797.252	52.02
797.564	52.02
797.875	52.01
798.186	51.94
798.497	51.92
798.809	51.88
799.12	51.91
799.431	51.92
799.742	51.95
800.053	51.96
800.364	52.04
800.675	52.08
800.986	52.08
801.297	52.13
801.608	52.05
801.918	52.06
802.229	52.04
802.54	51.99
802.851	51.93
803.161	51.92
803.472	51.96
803.782	51.94
804.093	51.98
804.403	51.98
804.714	51.97
805.024	51.95
805.334	52.01
805.645	52
805.955	52.03
806.265	51.96
806.575	52.05
806.885	52
807.195	52.03
807.505	52.05
807.815	52.02
808.125	52.09
808.435	52.08
808.745	52.13
809.055	52.12
809.365	52.21
809.674	52.2
809.984	52.27
810.294	52.26
810.603	52.29
810.913	52.48
811.222	52.43
811.532	52.51
811.841	52.52
812.151	52.54
812.46	52.54
812.769	52.55
813.079	52.54
813.388	52.55
813.697	52.56
814.006	52.56
814.315	52.66
814.624	52.65
814.933	52.71
815.242	52.76
815.551	52.89
815.86	52.89
816.169	52.98
816.478	52.9
816.786	52.94
817.095	52.98
817.404	53.06
817.712	53.14
818.021	53.13
818.33	53.15
818.638	53.2
818.947	53.2
819.255	53.19
819.563	53.24
819.872	53.27
820.18	53.27
820.488	53.31
820.796	53.28
821.105	53.29
821.413	53.28
821.721	53.28
822.029	53.27
822.337	53.3
822.645	53.3
822.953	53.31
823.26	53.32
823.568	53.31
823.876	53.33
824.184	53.33
824.491	53.34
824.799	53.34
825.107	53.35
825.414	53.38
825.722	53.37
826.029	53.36
826.337	53.38
826.644	53.36
826.951	53.36
827.259	53.37
827.566	53.37
827.873	53.4
828.18	53.37
828.488	53.38
828.795	53.34
829.102	53.39
829.409	53.41
829.716	53.4
830.023	53.38
830.329	53.38
830.636	53.4
830.943	53.41
831.25	53.39
831.557	53.4
831.863	53.39
832.17	53.35
832.476	53.31
832.783	53.31
833.089	53.3
833.396	53.31
833.702	53.31
834.009	53.28
834.315	53.31
834.621	53.39
834.928	53.34
835.234	53.3
835.54	53.27
835.846	53.32
836.152	53.32
836.458	53.29
836.764	53.29
837.07	53.29
837.376	53.24
837.682	53.23
837.988	53.23
838.293	53.18
838.599	53.25
838.905	53.22
839.211	53.31
839.516	53.31
839.822	53.33
840.127	53.34
840.433	53.3
840.738	53.33
841.044	53.32
841.349	53.39
841.654	53.43
841.959	53.38
842.265	53.41
842.57	53.41
842.875	53.43
843.18	53.54
843.485	53.65
843.79	53.83
844.095	53.93
844.4	53.84
844.705	53.97
845.01	53.98
845.315	53.99
845.619	53.91
845.924	53.9
846.229	53.82
846.533	53.84
846.838	53.76
847.142	53.59
847.447	53.63
847.751	53.54
848.056	53.53
848.36	53.52
848.664	53.55
848.969	53.52
849.273	53.41
849.577	53.39
849.881	53.31
850.185	53.34
850.489	53.61
850.794	53.83
851.097	53.79
851.401	53.72
851.705	53.74
852.009	53.83
852.313	53.95
852.617	54.01
852.92	54.05
853.224	54.09
853.528	53.94
853.831	54.01
854.135	53.93
854.438	54
854.742	53.93
855.045	54.09
855.349	54.15
855.652	54.18
855.955	54.11
856.259	54.04
856.562	54.11
856.865	54.19
857.168	54.2
857.471	54.16
857.774	54.02
858.077	54.06
858.38	54.03
858.683	53.96
858.986	53.99
859.289	54.2
859.592	54.5
859.894	54.68
860.197	54.76
860.5	54.87
860.802	54.88
861.105	54.8
861.407	54.91
861.71	54.88
862.012	54.72
862.315	54.88
862.617	54.62
862.919	54.26
863.222	54.3
863.524	54.21
863.826	54.39
864.128	54.46
864.43	54.41
864.732	54.39
865.034	54.44
865.336	54.47
865.638	54.38
865.94	54.46
866.242	54.48
866.544	54.15
866.846	54.36
867.147	54.22
867.449	54.07
867.751	54.03
868.052	54.03
868.354	53.95
868.655	53.89
868.957	53.98
869.258	54.09
869.56	54.2
869.861	54.3
870.162	54.39
870.463	54.24
870.765	54.23
871.066	54.32
871.367	54.03
871.668	54.06
871.969	54
872.27	54.02
872.571	54.02
872.872	54.22
873.173	54.07
873.473	54.24
873.774	54.25
874.075	54.28
874.376	54.47
874.676	54.42
874.977	54.49
875.277	54.48
875.578	54.36
875.878	54.27
876.179	54.35
876.479	54.19
876.78	54.23
877.08	54.18
877.38	54.12
877.68	54.22
877.981	54.25
878.281	54.19
878.581	54
