Data from UWBM48344_Reflection_00008.txt Node
Date: Sun May 02 14:01:05 EDT 2021
User: vgr7
Spectrometer: USB2G7710
Scans to average: 10
Trigger mode: 4
Integration Time (sec): 1.000000E-1
Electric dark correction enabled: true
Boxcar width: 20
XAxis mode: Wavelengths
Number of Pixels in Spectrum: 2048
>>>>>Begin Spectral Data<<<<<
177.721	538.89
178.105	1388.89
178.488	409.26
178.871	272.22
179.254	178.83
179.636	120.2
180.019	91.15
180.402	97.78
180.785	88.68
181.168	82.32
181.55	72.86
181.933	67.41
182.316	57.76
182.698	52.53
183.081	49.41
183.463	50
183.846	46.79
184.228	47.51
184.611	46.87
184.993	48.42
185.376	45.58
185.758	47.02
186.14	49.2
186.522	52.13
186.904	50.76
187.287	46.56
187.669	42.77
188.051	44.14
188.433	42.74
188.815	38.53
189.197	36.71
189.579	35.63
189.961	32.71
190.342	30.85
190.724	33.5
191.106	33.75
191.488	35.31
191.869	36.23
192.251	33.9
192.633	30.76
193.014	30.21
193.396	26.94
193.777	26.66
194.159	27.49
194.54	26.61
194.922	23.95
195.303	22.98
195.684	22.28
196.065	21.07
196.447	21.24
196.828	20.74
197.209	19.61
197.59	16.93
197.971	17.95
198.352	19.52
198.733	19.53
199.114	18.65
199.495	19.23
199.876	17.96
200.257	18.72
200.638	15.36
201.018	15.33
201.399	15.62
201.78	13.67
202.16	13.64
202.541	15.66
202.922	15.5
203.302	15.71
203.683	15.1
204.063	15.63
204.444	14.89
204.824	14.06
205.204	13.99
205.585	14.78
205.965	16.12
206.345	14.79
206.725	15.15
207.106	14.03
207.486	13.09
207.866	13.48
208.246	13.24
208.626	11.85
209.006	13.91
209.386	14.06
209.766	14.07
210.145	13.57
210.525	14.06
210.905	14.64
211.285	14.65
211.664	13.66
212.044	13.32
212.424	10.63
212.803	12.84
213.183	13.66
213.562	14.53
213.942	14.64
214.321	14.51
214.701	13.01
215.08	12.61
215.459	12.59
215.838	10.71
216.218	12.45
216.597	11.64
216.976	11.18
217.355	11.94
217.734	11.97
218.113	11.03
218.492	11.23
218.871	10.88
219.25	10.36
219.629	9.49
220.008	10.24
220.387	9.64
220.766	9.97
221.144	10.04
221.523	8.45
221.902	7.73
222.28	6.34
222.659	6.11
223.037	5.85
223.416	6.34
223.794	7.19
224.173	7.68
224.551	6.5
224.929	7.34
225.308	6.81
225.686	6.56
226.064	6.61
226.442	6.31
226.821	6.59
227.199	7.14
227.577	7.06
227.955	7.74
228.333	6.98
228.711	6.87
229.089	6.13
229.467	5.59
229.845	5.4
230.222	5.49
230.6	5.72
230.978	5.95
231.356	6.12
231.733	6.04
232.111	6.14
232.488	5.97
232.866	5.83
233.243	5.57
233.621	5.46
233.998	5.63
234.376	5.71
234.753	5.45
235.13	5.45
235.508	5.51
235.885	5.5
236.262	5.47
236.639	5.3
237.016	5.38
237.393	5.53
237.77	5.49
238.147	5.45
238.524	5.44
238.901	5.31
239.278	5.25
239.655	5.21
240.032	5.18
240.409	5.04
240.785	5.11
241.162	5.08
241.539	5.01
241.915	5.03
242.292	5
242.668	4.97
243.045	4.96
243.421	4.99
243.798	4.99
244.174	5.04
244.551	5.05
244.927	5.06
245.303	5.07
245.679	5.12
246.056	5.05
246.432	5.01
246.808	4.97
247.184	4.99
247.56	4.98
247.936	4.99
248.312	4.97
248.688	4.97
249.064	4.96
249.44	4.93
249.815	4.91
250.191	4.91
250.567	4.93
250.943	4.91
251.318	4.89
251.694	4.88
252.069	4.88
252.445	4.87
252.82	4.83
253.196	4.81
253.571	4.81
253.947	4.81
254.322	4.81
254.697	4.79
255.073	4.76
255.448	4.78
255.823	4.78
256.198	4.75
256.573	4.74
256.948	4.75
257.323	4.73
257.698	4.7
258.073	4.68
258.448	4.65
258.823	4.62
259.198	4.6
259.573	4.55
259.948	4.54
260.322	4.52
260.697	4.5
261.072	4.47
261.446	4.48
261.821	4.49
262.195	4.48
262.57	4.46
262.944	4.45
263.319	4.43
263.693	4.44
264.067	4.44
264.442	4.43
264.816	4.42
265.19	4.42
265.564	4.44
265.938	4.4
266.313	4.4
266.687	4.37
267.061	4.36
267.435	4.37
267.809	4.36
268.183	4.36
268.556	4.38
268.93	4.36
269.304	4.35
269.678	4.34
270.051	4.33
270.425	4.32
270.799	4.3
271.172	4.3
271.546	4.3
271.919	4.29
272.293	4.28
272.666	4.28
273.04	4.3
273.413	4.31
273.787	4.34
274.16	4.35
274.533	4.37
274.906	4.4
275.279	4.4
275.653	4.42
276.026	4.43
276.399	4.44
276.772	4.45
277.145	4.43
277.518	4.45
277.891	4.47
278.263	4.46
278.636	4.47
279.009	4.47
279.382	4.46
279.755	4.45
280.127	4.46
280.5	4.47
280.872	4.48
281.245	4.49
281.617	4.48
281.99	4.5
282.362	4.49
282.735	4.49
283.107	4.49
283.479	4.48
283.852	4.48
284.224	4.48
284.596	4.48
284.968	4.47
285.34	4.48
285.713	4.5
286.085	4.52
286.457	4.53
286.829	4.53
287.201	4.55
287.572	4.57
287.944	4.58
288.316	4.57
288.688	4.57
289.06	4.56
289.431	4.57
289.803	4.59
290.175	4.59
290.546	4.6
290.918	4.61
291.289	4.62
291.661	4.62
292.032	4.62
292.403	4.64
292.775	4.65
293.146	4.65
293.517	4.67
293.889	4.69
294.26	4.71
294.631	4.72
295.002	4.76
295.373	4.78
295.744	4.8
296.115	4.81
296.486	4.85
296.857	4.9
297.228	4.92
297.599	4.95
297.97	4.97
298.34	4.99
298.711	5.01
299.082	5.03
299.452	5.06
299.823	5.08
300.194	5.1
300.564	5.13
300.935	5.16
301.305	5.19
301.676	5.22
302.046	5.26
302.416	5.29
302.787	5.31
303.157	5.33
303.527	5.36
303.897	5.4
304.267	5.44
304.637	5.46
305.008	5.49
305.378	5.53
305.748	5.55
306.117	5.58
306.487	5.62
306.857	5.67
307.227	5.71
307.597	5.75
307.967	5.78
308.336	5.83
308.706	5.85
309.076	5.88
309.445	5.92
309.815	5.95
310.184	5.95
310.554	5.99
310.923	6.02
311.293	6.04
311.662	6.06
312.031	6.07
312.401	6.1
312.77	6.14
313.139	6.17
313.508	6.2
313.877	6.24
314.246	6.27
314.616	6.31
314.985	6.34
315.353	6.38
315.722	6.4
316.091	6.42
316.46	6.44
316.829	6.47
317.198	6.49
317.567	6.52
317.935	6.56
318.304	6.59
318.672	6.63
319.041	6.68
319.41	6.71
319.778	6.75
320.147	6.76
320.515	6.78
320.883	6.82
321.252	6.85
321.62	6.9
321.988	6.93
322.357	6.96
322.725	6.99
323.093	7.01
323.461	7.02
323.829	7.06
324.197	7.09
324.565	7.11
324.933	7.13
325.301	7.16
325.669	7.18
326.037	7.19
326.405	7.22
326.772	7.23
327.14	7.25
327.508	7.26
327.875	7.26
328.243	7.27
328.61	7.29
328.978	7.3
329.346	7.3
329.713	7.33
330.08	7.35
330.448	7.36
330.815	7.37
331.182	7.38
331.55	7.4
331.917	7.42
332.284	7.42
332.651	7.44
333.018	7.46
333.385	7.48
333.752	7.51
334.119	7.53
334.486	7.55
334.853	7.58
335.22	7.6
335.587	7.63
335.954	7.64
336.32	7.65
336.687	7.66
337.054	7.68
337.42	7.69
337.787	7.71
338.153	7.72
338.52	7.73
338.886	7.74
339.253	7.74
339.619	7.76
339.986	7.77
340.352	7.79
340.718	7.8
341.084	7.81
341.451	7.81
341.817	7.83
342.183	7.85
342.549	7.86
342.915	7.89
343.281	7.9
343.647	7.92
344.013	7.93
344.379	7.94
344.745	7.94
345.11	7.95
345.476	7.97
345.842	7.98
346.208	7.99
346.573	7.98
346.939	7.99
347.304	8.01
347.67	8.01
348.035	8.02
348.401	8.03
348.766	8.02
349.132	8.03
349.497	8.03
349.862	8.03
350.228	8.03
350.593	8.03
350.958	8.04
351.323	8.05
351.688	8.05
352.053	8.05
352.418	8.04
352.783	8.03
353.148	8.04
353.513	8.04
353.878	8.04
354.243	8.03
354.608	8.03
354.972	8.03
355.337	8.02
355.702	8.01
356.066	8
356.431	8
356.795	7.98
357.16	7.96
357.524	7.96
357.889	7.94
358.253	7.92
358.618	7.9
358.982	7.9
359.346	7.89
359.71	7.89
360.075	7.87
360.439	7.86
360.803	7.84
361.167	7.83
361.531	7.82
361.895	7.8
362.259	7.78
362.623	7.75
362.987	7.74
363.351	7.72
363.714	7.71
364.078	7.69
364.442	7.67
364.806	7.65
365.169	7.62
365.533	7.61
365.896	7.58
366.26	7.56
366.623	7.53
366.987	7.5
367.35	7.48
367.714	7.45
368.077	7.42
368.44	7.39
368.803	7.36
369.167	7.34
369.53	7.3
369.893	7.26
370.256	7.23
370.619	7.18
370.982	7.16
371.345	7.12
371.708	7.09
372.071	7.06
372.434	7.02
372.797	6.99
373.159	6.96
373.522	6.94
373.885	6.91
374.247	6.87
374.61	6.83
374.973	6.8
375.335	6.77
375.698	6.72
376.06	6.69
376.423	6.66
376.785	6.63
377.147	6.59
377.51	6.56
377.872	6.52
378.234	6.48
378.596	6.44
378.958	6.4
379.321	6.37
379.683	6.34
380.045	6.3
380.407	6.28
380.769	6.25
381.13	6.22
381.492	6.19
381.854	6.16
382.216	6.13
382.578	6.1
382.939	6.08
383.301	6.05
383.663	6.02
384.024	5.99
384.386	5.96
384.747	5.94
385.109	5.91
385.47	5.89
385.832	5.85
386.193	5.83
386.554	5.81
386.916	5.78
387.277	5.76
387.638	5.73
387.999	5.71
388.36	5.69
388.721	5.66
389.082	5.64
389.443	5.62
389.804	5.6
390.165	5.58
390.526	5.57
390.887	5.55
391.248	5.53
391.609	5.51
391.969	5.49
392.33	5.48
392.691	5.46
393.051	5.44
393.412	5.42
393.772	5.4
394.133	5.38
394.493	5.36
394.854	5.34
395.214	5.32
395.574	5.29
395.935	5.27
396.295	5.25
396.655	5.23
397.015	5.21
397.376	5.19
397.736	5.17
398.096	5.15
398.456	5.13
398.816	5.11
399.176	5.09
399.535	5.07
399.895	5.06
400.255	5.04
400.615	5.03
400.975	5.01
401.334	4.99
401.694	4.97
402.054	4.96
402.413	4.95
402.773	4.94
403.132	4.92
403.492	4.91
403.851	4.89
404.211	4.88
404.57	4.87
404.929	4.85
405.288	4.84
405.648	4.83
406.007	4.83
406.366	4.81
406.725	4.81
407.084	4.8
407.443	4.79
407.802	4.78
408.161	4.77
408.52	4.77
408.879	4.77
409.238	4.76
409.596	4.76
409.955	4.76
410.314	4.75
410.673	4.74
411.031	4.74
411.39	4.74
411.748	4.74
412.107	4.74
412.465	4.74
412.824	4.76
413.182	4.78
413.54	4.8
413.899	4.83
414.257	4.86
414.615	4.9
414.974	4.92
415.332	4.96
415.69	5
416.048	5.02
416.406	5.07
416.764	5.09
417.122	5.11
417.48	5.15
417.838	5.17
418.195	5.19
418.553	5.21
418.911	5.22
419.269	5.22
419.626	5.22
419.984	5.2
420.342	5.19
420.699	5.16
421.057	5.14
421.414	5.11
421.772	5.09
422.129	5.08
422.486	5.07
422.844	5.06
423.201	5.05
423.558	5.04
423.915	5.04
424.273	5.03
424.63	5.03
424.987	5.02
425.344	5.02
425.701	5.01
426.058	5.01
426.415	5.01
426.772	5
427.128	4.99
427.485	4.98
427.842	4.96
428.199	4.94
428.555	4.92
428.912	4.89
429.269	4.86
429.625	4.83
429.982	4.79
430.338	4.75
430.695	4.73
431.051	4.69
431.407	4.67
431.764	4.64
432.12	4.62
432.476	4.61
432.832	4.6
433.189	4.6
433.545	4.6
433.901	4.62
434.257	4.64
434.613	4.67
434.969	4.69
435.325	4.73
435.681	4.77
436.036	4.8
436.392	4.82
436.748	4.84
437.104	4.85
437.459	4.88
437.815	4.9
438.171	4.92
438.526	4.95
438.882	4.99
439.237	5.03
439.593	5.07
439.948	5.11
440.304	5.15
440.659	5.17
441.014	5.2
441.369	5.23
441.725	5.25
442.08	5.27
442.435	5.28
442.79	5.29
443.145	5.29
443.5	5.29
443.855	5.29
444.21	5.29
444.565	5.28
444.92	5.27
445.275	5.26
445.629	5.25
445.984	5.24
446.339	5.22
446.693	5.21
447.048	5.19
447.403	5.17
447.757	5.14
448.112	5.11
448.466	5.09
448.82	5.06
449.175	5.03
449.529	5.01
449.883	4.98
450.238	4.95
450.592	4.94
450.946	4.92
451.3	4.92
451.654	4.93
452.008	4.92
452.362	4.93
452.716	4.93
453.07	4.92
453.424	4.91
453.778	4.9
454.132	4.89
454.486	4.88
454.839	4.85
455.193	4.83
455.547	4.81
455.9	4.78
456.254	4.76
456.607	4.72
456.961	4.69
457.314	4.67
457.668	4.66
458.021	4.65
458.375	4.65
458.728	4.65
459.081	4.65
459.434	4.66
459.787	4.67
460.141	4.68
460.494	4.69
460.847	4.7
461.2	4.71
461.553	4.72
461.906	4.72
462.259	4.73
462.611	4.74
462.964	4.74
463.317	4.75
463.67	4.76
464.022	4.77
464.375	4.78
464.728	4.79
465.08	4.79
465.433	4.8
465.785	4.8
466.138	4.79
466.49	4.78
466.843	4.76
467.195	4.74
467.547	4.72
467.899	4.7
468.252	4.67
468.604	4.65
468.956	4.63
469.308	4.62
469.66	4.62
470.012	4.62
470.364	4.63
470.716	4.63
471.068	4.65
471.42	4.68
471.772	4.71
472.123	4.73
472.475	4.74
472.827	4.76
473.178	4.77
473.53	4.79
473.882	4.81
474.233	4.83
474.585	4.88
474.936	4.95
475.288	5.05
475.639	5.18
475.99	5.33
476.342	5.5
476.693	5.68
477.044	5.87
477.395	6.06
477.746	6.26
478.097	6.46
478.448	6.65
478.8	6.85
479.15	7.03
479.501	7.2
479.852	7.35
480.203	7.5
480.554	7.63
480.905	7.77
481.255	7.89
481.606	8.01
481.957	8.12
482.307	8.23
482.658	8.33
483.009	8.43
483.359	8.52
483.709	8.61
484.06	8.7
484.41	8.78
484.761	8.86
485.111	8.94
485.461	9.02
485.811	9.09
486.162	9.15
486.512	9.21
486.862	9.25
487.212	9.29
487.562	9.31
487.912	9.32
488.262	9.32
488.612	9.32
488.961	9.29
489.311	9.25
489.661	9.17
490.011	9.08
490.36	8.96
490.71	8.82
491.06	8.67
491.409	8.52
491.759	8.35
492.108	8.18
492.458	8.01
492.807	7.82
493.157	7.64
493.506	7.47
493.855	7.31
494.204	7.16
494.554	7.01
494.903	6.88
495.252	6.75
495.601	6.64
495.95	6.52
496.299	6.41
496.648	6.32
496.997	6.23
497.346	6.15
497.695	6.07
498.043	5.99
498.392	5.92
498.741	5.86
499.09	5.8
499.438	5.74
499.787	5.69
500.135	5.65
500.484	5.61
500.832	5.59
501.181	5.59
501.529	5.6
501.878	5.63
502.226	5.66
502.574	5.71
502.923	5.76
503.271	5.81
503.619	5.86
503.967	5.91
504.315	5.97
504.663	6.02
505.011	6.08
505.359	6.14
505.707	6.2
506.055	6.27
506.403	6.34
506.751	6.42
507.098	6.5
507.446	6.58
507.794	6.67
508.141	6.76
508.489	6.85
508.837	6.96
509.184	7.06
509.531	7.17
509.879	7.28
510.226	7.41
510.574	7.54
510.921	7.67
511.268	7.81
511.616	7.95
511.963	8.1
512.31	8.26
512.657	8.41
513.004	8.56
513.351	8.71
513.698	8.84
514.045	8.97
514.392	9.09
514.739	9.21
515.086	9.32
515.432	9.42
515.779	9.53
516.126	9.65
516.473	9.77
516.819	9.9
517.166	10.05
517.512	10.21
517.859	10.39
518.205	10.58
518.552	10.79
518.898	11.02
519.245	11.27
519.591	11.59
519.937	11.96
520.283	12.38
520.629	12.85
520.976	13.35
521.322	13.86
521.668	14.39
522.014	14.93
522.36	15.47
522.706	16
523.052	16.52
523.398	17.01
523.743	17.46
524.089	17.88
524.435	18.26
524.781	18.64
525.126	19.02
525.472	19.39
525.817	19.74
526.163	20.09
526.509	20.43
526.854	20.77
527.199	21.11
527.545	21.45
527.89	21.81
528.235	22.16
528.581	22.49
528.926	22.81
529.271	23.11
529.616	23.4
529.961	23.68
530.306	23.95
530.651	24.2
530.996	24.43
531.341	24.65
531.686	24.85
532.031	25.04
532.376	25.24
532.721	25.47
533.065	25.72
533.41	25.98
533.755	26.21
534.099	26.42
534.444	26.61
534.788	26.77
535.133	26.92
535.477	27.04
535.822	27.15
536.166	27.23
536.51	27.26
536.855	27.25
537.199	27.22
537.543	27.18
537.887	27.16
538.231	27.18
538.576	27.21
538.92	27.22
539.264	27.22
539.608	27.2
539.951	27.17
540.295	27.14
540.639	27.1
540.983	27.04
541.327	26.96
541.671	26.87
542.014	26.81
542.358	26.75
542.701	26.77
543.045	26.83
543.389	26.91
543.732	27.01
544.075	27.12
544.419	27.25
544.762	27.38
545.105	27.53
545.449	27.68
545.792	27.83
546.135	28
546.478	28.13
546.821	28.22
547.165	28.27
547.508	28.27
547.851	28.24
548.194	28.17
548.536	28.06
548.879	27.94
549.222	27.79
549.565	27.64
549.908	27.5
550.25	27.36
550.593	27.28
550.936	27.26
551.278	27.27
551.621	27.33
551.963	27.4
552.306	27.48
552.648	27.58
552.991	27.72
553.333	27.86
553.675	28.03
554.017	28.24
554.36	28.45
554.702	28.69
555.044	28.97
555.386	29.28
555.728	29.63
556.07	29.93
556.412	30.24
556.754	30.49
557.096	30.69
557.438	30.89
557.78	31.09
558.121	31.3
558.463	31.51
558.805	31.73
559.147	31.94
559.488	32.15
559.83	32.37
560.171	32.57
560.513	32.76
560.854	32.96
561.196	33.16
561.537	33.36
561.878	33.55
562.22	33.74
562.561	33.92
562.902	34.1
563.243	34.29
563.584	34.47
563.925	34.65
564.266	34.83
564.607	35.01
564.948	35.19
565.289	35.36
565.63	35.54
565.971	35.7
566.312	35.87
566.653	36.03
566.993	36.19
567.334	36.35
567.675	36.5
568.015	36.65
568.356	36.8
568.696	36.94
569.037	37.08
569.377	37.22
569.718	37.36
570.058	37.48
570.398	37.61
570.739	37.73
571.079	37.86
571.419	37.97
571.759	38.09
572.099	38.2
572.439	38.31
572.779	38.41
573.119	38.51
573.459	38.61
573.799	38.72
574.139	38.82
574.479	38.93
574.819	39.03
575.158	39.13
575.498	39.23
575.838	39.33
576.177	39.42
576.517	39.51
576.856	39.61
577.196	39.69
577.535	39.78
577.875	39.86
578.214	39.96
578.553	40.06
578.893	40.13
579.232	40.22
579.571	40.31
579.91	40.4
580.25	40.49
580.589	40.59
580.928	40.69
581.267	40.77
581.606	40.87
581.945	40.97
582.283	41.06
582.622	41.15
582.961	41.25
583.3	41.35
583.639	41.44
583.977	41.53
584.316	41.62
584.654	41.7
584.993	41.79
585.332	41.88
585.67	41.95
586.008	42.05
586.347	42.14
586.685	42.23
587.024	42.31
587.362	42.4
587.7	42.48
588.038	42.57
588.376	42.66
588.715	42.75
589.053	42.84
589.391	42.94
589.729	43.03
590.067	43.13
590.404	43.21
590.742	43.3
591.08	43.39
591.418	43.47
591.756	43.55
592.093	43.62
592.431	43.69
592.769	43.76
593.106	43.84
593.444	43.9
593.781	43.96
594.119	44.02
594.456	44.08
594.793	44.14
595.131	44.2
595.468	44.26
595.805	44.32
596.143	44.38
596.48	44.46
596.817	44.55
597.154	44.62
597.491	44.69
597.828	44.77
598.165	44.83
598.502	44.91
598.839	44.97
599.176	45.03
599.512	45.09
599.849	45.15
600.186	45.21
600.523	45.26
600.859	45.33
601.196	45.39
601.532	45.45
601.869	45.5
602.205	45.55
602.542	45.59
602.878	45.63
603.215	45.68
603.551	45.73
603.887	45.77
604.223	45.81
604.56	45.86
604.896	45.89
605.232	45.94
605.568	45.98
605.904	46.02
606.24	46.05
606.576	46.08
606.912	46.12
607.248	46.16
607.583	46.19
607.919	46.22
608.255	46.25
608.591	46.28
608.926	46.32
609.262	46.35
609.597	46.38
609.933	46.41
610.268	46.44
610.604	46.46
610.939	46.48
611.275	46.49
611.61	46.51
611.945	46.54
612.281	46.56
612.616	46.58
612.951	46.6
613.286	46.64
613.621	46.66
613.956	46.68
614.291	46.7
614.626	46.72
614.961	46.74
615.296	46.76
615.631	46.78
615.966	46.8
616.3	46.83
616.635	46.86
616.97	46.88
617.304	46.9
617.639	46.92
617.973	46.95
618.308	46.98
618.642	47.01
618.977	47.03
619.311	47.07
619.646	47.12
619.98	47.16
620.314	47.19
620.648	47.22
620.983	47.26
621.317	47.29
621.651	47.33
621.985	47.35
622.319	47.38
622.653	47.42
622.987	47.45
623.321	47.48
623.655	47.51
623.988	47.54
624.322	47.56
624.656	47.59
624.99	47.64
625.323	47.66
625.657	47.67
625.99	47.71
626.324	47.73
626.657	47.75
626.991	47.78
627.324	47.8
627.658	47.83
627.991	47.86
628.324	47.88
628.657	47.91
628.991	47.93
629.324	47.96
629.657	47.99
629.99	48.01
630.323	48.05
630.656	48.07
630.989	48.09
631.322	48.12
631.655	48.14
631.987	48.16
632.32	48.18
632.653	48.21
632.986	48.22
633.318	48.23
633.651	48.25
633.984	48.26
634.316	48.27
634.649	48.29
634.981	48.32
635.313	48.34
635.646	48.36
635.978	48.38
636.31	48.4
636.643	48.41
636.975	48.43
637.307	48.43
637.639	48.45
637.971	48.49
638.303	48.5
638.635	48.52
638.967	48.55
639.299	48.58
639.631	48.6
639.963	48.63
640.295	48.67
640.626	48.68
640.958	48.71
641.29	48.74
641.621	48.77
641.953	48.81
642.285	48.82
642.616	48.85
642.948	48.86
643.279	48.87
643.61	48.91
643.942	48.92
644.273	48.95
644.604	48.98
644.936	49
645.267	49.02
645.598	49.04
645.929	49.05
646.26	49.09
646.591	49.12
646.922	49.13
647.253	49.14
647.584	49.17
647.915	49.2
648.245	49.21
648.576	49.24
648.907	49.26
649.238	49.29
649.568	49.3
649.899	49.3
650.229	49.33
650.56	49.34
650.89	49.37
651.221	49.38
651.551	49.4
651.882	49.42
652.212	49.44
652.542	49.45
652.872	49.48
653.203	49.5
653.533	49.51
653.863	49.52
654.193	49.55
654.523	49.57
654.853	49.57
655.183	49.58
655.513	49.59
655.843	49.6
656.172	49.6
656.502	49.63
656.832	49.64
657.162	49.65
657.491	49.67
657.821	49.69
658.15	49.7
658.48	49.71
658.809	49.73
659.139	49.74
659.468	49.76
659.798	49.77
660.127	49.78
660.456	49.8
660.785	49.82
661.115	49.84
661.444	49.85
661.773	49.87
662.102	49.88
662.431	49.89
662.76	49.9
663.089	49.93
663.418	49.97
663.747	49.99
664.076	50.01
664.404	50.04
664.733	50.06
665.062	50.06
665.39	50.09
665.719	50.11
666.048	50.13
666.376	50.14
666.705	50.17
667.033	50.18
667.362	50.2
667.69	50.22
668.018	50.25
668.347	50.28
668.675	50.3
669.003	50.33
669.331	50.35
669.659	50.37
669.987	50.38
670.315	50.4
670.643	50.43
670.971	50.44
671.299	50.46
671.627	50.48
671.955	50.49
672.283	50.51
672.61	50.52
672.938	50.54
673.266	50.56
673.593	50.58
673.921	50.6
674.249	50.61
674.576	50.62
674.904	50.64
675.231	50.65
675.558	50.65
675.886	50.67
676.213	50.68
676.54	50.68
676.867	50.7
677.195	50.7
677.522	50.72
677.849	50.75
678.176	50.75
678.503	50.77
678.83	50.77
679.157	50.78
679.484	50.79
679.81	50.79
680.137	50.8
680.464	50.81
680.791	50.82
681.117	50.82
681.444	50.83
681.771	50.84
682.097	50.86
682.424	50.84
682.75	50.86
683.077	50.89
683.403	50.91
683.729	50.92
684.056	50.92
684.382	50.93
684.708	50.95
685.034	50.96
685.36	50.98
685.686	50.99
686.012	51.02
686.339	51.04
686.664	51.03
686.99	51.05
687.316	51.07
687.642	51.1
687.968	51.12
688.294	51.13
688.619	51.16
688.945	51.2
689.271	51.22
689.596	51.24
689.922	51.26
690.247	51.27
690.573	51.29
690.898	51.29
691.224	51.3
691.549	51.32
691.874	51.33
692.2	51.36
692.525	51.37
692.85	51.4
693.175	51.43
693.5	51.44
693.825	51.46
694.15	51.47
694.475	51.48
694.8	51.47
695.125	51.49
695.45	51.5
695.775	51.53
696.099	51.54
696.424	51.54
696.749	51.56
697.073	51.59
697.398	51.6
697.723	51.62
698.047	51.63
698.372	51.64
698.696	51.65
699.02	51.66
699.345	51.67
699.669	51.69
699.993	51.72
700.318	51.73
700.642	51.73
700.966	51.74
701.29	51.75
701.614	51.76
701.938	51.76
702.262	51.76
702.586	51.78
702.91	51.79
703.234	51.8
703.557	51.82
703.881	51.84
704.205	51.86
704.529	51.88
704.852	51.91
705.176	51.94
705.499	51.94
705.823	51.95
706.146	51.94
706.47	51.95
706.793	51.96
707.117	51.97
707.44	51.98
707.763	52.02
708.086	52.05
708.409	52.05
708.733	52.06
709.056	52.08
709.379	52.11
709.702	52.13
710.025	52.14
710.348	52.16
710.671	52.16
710.993	52.17
711.316	52.18
711.639	52.2
711.962	52.21
712.284	52.25
712.607	52.25
712.93	52.25
713.252	52.28
713.575	52.31
713.897	52.33
714.22	52.35
714.542	52.36
714.864	52.35
715.187	52.4
715.509	52.39
715.831	52.41
716.153	52.42
716.475	52.44
716.798	52.45
717.12	52.45
717.442	52.45
717.764	52.47
718.085	52.48
718.407	52.46
718.729	52.49
719.051	52.5
719.373	52.53
719.695	52.55
720.016	52.57
720.338	52.61
720.659	52.6
720.981	52.62
721.302	52.65
721.624	52.67
721.945	52.7
722.267	52.7
722.588	52.69
722.909	52.68
723.231	52.68
723.552	52.68
723.873	52.7
724.194	52.73
724.515	52.76
724.836	52.79
725.157	52.8
725.478	52.8
725.799	52.83
726.12	52.86
726.441	52.87
726.762	52.89
727.083	52.89
727.403	52.89
727.724	52.91
728.045	52.94
728.365	52.95
728.686	52.96
729.006	52.94
729.327	52.96
729.647	52.96
729.967	52.97
730.288	53.01
730.608	53.02
730.928	53.02
731.249	53
731.569	53.03
731.889	53.06
732.209	53.09
732.529	53.09
732.849	53.09
733.169	53.09
733.489	53.1
733.809	53.13
734.129	53.15
734.448	53.14
734.768	53.17
735.088	53.16
735.408	53.18
735.727	53.2
736.047	53.21
736.366	53.23
736.686	53.22
737.005	53.25
737.325	53.24
737.644	53.23
737.963	53.2
738.283	53.18
738.602	53.17
738.921	53.14
739.24	53.14
739.56	53.1
739.879	53.07
740.198	53.08
740.517	53.11
740.836	53.1
741.155	53.1
741.473	53.07
741.792	53.08
742.111	53.12
742.43	53.09
742.748	53.08
743.067	53.08
743.386	53.05
743.704	53.1
744.023	53.1
744.341	53.15
744.66	53.13
744.978	53.09
745.297	53.09
745.615	53.1
745.933	53.11
746.252	53.14
746.57	53.11
746.888	53.12
747.206	53.1
747.524	53.13
747.842	53.13
748.16	53.13
748.478	53.12
748.796	53.11
749.114	53.14
749.432	53.17
749.749	53.19
750.067	53.16
750.385	53.17
750.703	53.16
751.02	53.16
751.338	53.18
751.655	53.2
751.973	53.21
752.29	53.2
752.608	53.25
752.925	53.26
753.242	53.27
753.56	53.26
753.877	53.28
754.194	53.3
754.511	53.33
754.828	53.34
755.145	53.36
755.462	53.35
755.779	53.4
756.096	53.43
756.413	53.47
756.73	53.47
757.047	53.53
757.364	53.52
757.68	53.52
757.997	53.54
758.314	53.57
758.63	53.58
758.947	53.58
759.264	53.56
759.58	53.58
759.896	53.63
760.213	53.65
760.529	53.66
760.846	53.68
761.162	53.72
761.478	53.72
761.794	53.72
762.11	53.74
762.426	53.7
762.743	53.72
763.059	53.73
763.375	53.71
763.69	53.72
764.006	53.75
764.322	53.76
764.638	53.77
764.954	53.79
765.27	53.79
765.585	53.76
765.901	53.76
766.216	53.76
766.532	53.76
766.848	53.76
767.163	53.78
767.478	53.76
767.794	53.76
768.109	53.73
768.424	53.78
768.74	53.78
769.055	53.75
769.37	53.75
769.685	53.72
770	53.69
770.315	53.69
770.63	53.73
770.945	53.73
771.26	53.7
771.575	53.71
771.89	53.7
772.205	53.71
772.52	53.75
772.834	53.72
773.149	53.71
773.464	53.68
773.778	53.62
774.093	53.61
774.407	53.61
774.722	53.63
775.036	53.6
775.351	53.65
775.665	53.65
775.979	53.67
776.293	53.7
776.608	53.72
776.922	53.71
777.236	53.76
777.55	53.72
777.864	53.72
778.178	53.76
778.492	53.76
778.806	53.8
779.12	53.79
779.434	53.78
779.747	53.77
780.061	53.77
780.375	53.79
780.689	53.79
781.002	53.81
781.316	53.76
781.629	53.77
781.943	53.81
782.256	53.76
782.57	53.75
782.883	53.73
783.196	53.73
783.51	53.71
783.823	53.7
784.136	53.71
784.449	53.73
784.762	53.77
785.075	53.81
785.388	53.81
785.701	53.77
786.014	53.79
786.327	53.79
786.64	53.81
786.953	53.8
787.266	53.78
787.578	53.8
787.891	53.79
788.204	53.76
788.516	53.78
788.829	53.79
789.141	53.81
789.454	53.77
789.766	53.81
790.079	53.75
790.391	53.74
790.703	53.76
791.016	53.76
791.328	53.76
791.64	53.78
791.952	53.8
792.264	53.8
792.576	53.83
792.888	53.8
793.2	53.84
793.512	53.85
793.824	53.88
794.136	53.91
794.448	53.87
794.76	53.9
795.071	53.9
795.383	53.92
795.695	53.93
796.006	53.94
796.318	53.9
796.629	53.91
796.941	53.88
797.252	53.87
797.564	53.87
797.875	53.87
798.186	53.92
798.497	53.9
798.809	53.88
799.12	53.88
799.431	53.9
799.742	53.91
800.053	53.96
800.364	54.04
800.675	54.03
800.986	54.04
801.297	53.98
801.608	53.98
801.918	54
802.229	54.06
802.54	54
802.851	54
803.161	54.03
803.472	54.06
803.782	54.07
804.093	54.09
804.403	54.08
804.714	54.05
805.024	54.12
805.334	54.01
805.645	54.08
805.955	54.08
806.265	54.06
806.575	54.07
806.885	54.01
807.195	54.04
807.505	53.99
807.815	54.02
808.125	54.03
808.435	54.05
808.745	53.98
809.055	54.01
809.365	54.05
809.674	54.11
809.984	54.1
810.294	54.17
810.603	54.13
810.913	54.06
811.222	54.17
811.532	54.16
811.841	54.18
812.151	54.2
812.46	54.19
812.769	54.1
813.079	54.02
813.388	54.05
813.697	54.07
814.006	54.13
814.315	54.11
814.624	54.08
814.933	54.11
815.242	54.11
815.551	54.14
815.86	54.15
816.169	54.21
816.478	54.17
816.786	54.19
817.095	54.24
817.404	54.29
817.712	54.26
818.021	54.28
818.33	54.22
818.638	54.25
818.947	54.29
819.255	54.27
819.563	54.28
819.872	54.29
820.18	54.34
820.488	54.37
820.796	54.39
821.105	54.41
821.413	54.45
821.721	54.46
822.029	54.46
822.337	54.46
822.645	54.46
822.953	54.47
823.26	54.46
823.568	54.47
823.876	54.46
824.184	54.47
824.491	54.47
824.799	54.47
825.107	54.49
825.414	54.53
825.722	54.54
826.029	54.54
826.337	54.55
826.644	54.55
826.951	54.54
827.259	54.55
827.566	54.53
827.873	54.52
828.18	54.51
828.488	54.51
828.795	54.49
829.102	54.51
829.409	54.51
829.716	54.52
830.023	54.51
830.329	54.48
830.636	54.5
830.943	54.52
831.25	54.51
831.557	54.49
831.863	54.53
832.17	54.57
832.476	54.55
832.783	54.5
833.089	54.43
833.396	54.4
833.702	54.38
834.009	54.36
834.315	54.37
834.621	54.35
834.928	54.36
835.234	54.38
835.54	54.34
835.846	54.34
836.152	54.27
836.458	54.23
836.764	54.26
837.07	54.26
837.376	54.23
837.682	54.22
837.988	54.17
838.293	54.14
838.599	54.11
838.905	54.09
839.211	54.05
839.516	54.03
839.822	54
840.127	54.02
840.433	54.09
840.738	54.15
841.044	54.16
841.349	54.16
841.654	54.09
841.959	54.1
842.265	54.01
842.57	54.04
842.875	54.14
843.18	54.18
843.485	54.22
843.79	54.19
844.095	54.27
844.4	54.21
844.705	54.21
845.01	54.26
845.315	54.29
845.619	54.4
845.924	54.48
846.229	54.55
846.533	54.64
846.838	54.62
847.142	54.62
847.447	54.42
847.751	54.43
848.056	54.45
848.36	54.48
848.664	54.61
848.969	54.68
849.273	54.62
849.577	54.61
849.881	54.76
850.185	54.67
850.489	54.64
850.794	54.68
851.097	54.75
851.401	54.75
851.705	54.9
852.009	55.14
852.313	55.24
852.617	55.28
852.92	55.21
853.224	55.1
853.528	55.17
853.831	55.23
854.135	55.41
854.438	55.47
854.742	55.54
855.045	55.59
855.349	55.62
855.652	55.57
855.955	55.57
856.259	55.64
856.562	55.42
856.865	55.44
857.168	55.39
857.471	55.54
857.774	55.53
858.077	55.44
858.38	55.58
858.683	55.58
858.986	55.53
859.289	55.42
859.592	55.51
859.894	55.76
860.197	55.72
860.5	55.67
860.802	55.53
861.105	55.62
861.407	55.48
861.71	55.52
862.012	55.47
862.315	55.45
862.617	55.36
862.919	55.39
863.222	55.45
863.524	55.43
863.826	55.42
864.128	55.11
864.43	55.05
864.732	55.05
865.034	54.91
865.336	54.91
865.638	55.08
865.94	54.94
866.242	54.87
866.544	54.7
866.846	54.65
867.147	54.76
867.449	54.59
867.751	54.45
868.052	54.49
868.354	54.65
868.655	54.45
868.957	54.62
869.258	54.75
869.56	54.75
869.861	54.53
870.162	54.59
870.463	54.6
870.765	54.27
871.066	54.35
871.367	54.07
871.668	54.26
871.969	54.09
872.27	54.02
872.571	54.1
872.872	54.07
873.173	54.2
873.473	54.1
873.774	54.21
874.075	54.18
874.376	54.26
874.676	54.1
874.977	54.19
875.277	54.2
875.578	54.1
875.878	54.1
876.179	54.11
876.479	54.35
876.78	54.3
877.08	54.27
877.38	54.27
877.68	54.33
877.981	54.01
878.281	54.13
878.581	54.08
