Data from UWBM48344_Reflection_00005.txt Node
Date: Sun May 02 14:00:35 EDT 2021
User: vgr7
Spectrometer: USB2G7710
Scans to average: 10
Trigger mode: 4
Integration Time (sec): 1.000000E-1
Electric dark correction enabled: true
Boxcar width: 20
XAxis mode: Wavelengths
Number of Pixels in Spectrum: 2048
>>>>>Begin Spectral Data<<<<<
177.721	438.89
178.105	1166.67
178.488	561.11
178.871	372.22
179.254	206.76
179.636	125.76
180.019	96.35
180.402	80
180.785	55.6
181.168	44.51
181.55	39.01
181.933	43.05
182.316	39.39
182.698	30.68
183.081	28.29
183.463	30.69
183.846	27.61
184.228	31.03
184.611	30.03
184.993	29
185.376	27.08
185.758	27.63
186.14	31.25
186.522	27.97
186.904	29.26
187.287	30.53
187.669	30.58
188.051	29.81
188.433	25.37
188.815	21.15
189.197	19.7
189.579	19.94
189.961	22.18
190.342	23.06
190.724	23.54
191.106	23.35
191.488	24.25
191.869	21.16
192.251	20.28
192.633	18.4
193.014	16.84
193.396	12.93
193.777	13.34
194.159	12.18
194.54	10.56
194.922	9.36
195.303	9.47
195.684	7.72
196.065	8.56
196.447	11.27
196.828	11.96
197.209	12.1
197.59	8.19
197.971	7.83
198.352	9.38
198.733	10.15
199.114	8.96
199.495	9
199.876	8.11
200.257	7.23
200.638	4.5
201.018	6.09
201.399	6.03
201.78	3.93
202.16	3.93
202.541	3.85
202.922	3.05
203.302	3.01
203.683	3.6
204.063	5.5
204.444	5.55
204.824	5.32
205.204	4.61
205.585	5.04
205.965	4.52
206.345	4
206.725	4.21
207.106	3.05
207.486	2.81
207.866	3.49
208.246	4.84
208.626	4.24
209.006	5.02
209.386	3.41
209.766	3.52
210.145	2.86
210.525	3.5
210.905	4.2
211.285	3.21
211.664	2.88
212.044	0.99
212.424	-0.1
212.803	-0.58
213.183	0.31
213.562	1.25
213.942	1.72
214.321	0.37
214.701	-0.31
215.08	0.78
215.459	0.3
215.838	0.03
216.218	1.5
216.597	-0.37
216.976	0.3
217.355	1.35
217.734	2.07
218.113	1.47
218.492	0.89
218.871	1.08
219.25	0.29
219.629	-1.22
220.008	-0.51
220.387	-1.1
220.766	0.54
221.144	0.3
221.523	0.86
221.902	0.57
222.28	0.36
222.659	1.09
223.037	1.38
223.416	1.02
223.794	0.85
224.173	1.51
224.551	1.06
224.929	2.98
225.308	3.25
225.686	3.83
226.064	3.72
226.442	3.38
226.821	4.46
227.199	5.04
227.577	5.38
227.955	5.77
228.333	5.57
228.711	5.39
229.089	4.99
229.467	4.47
229.845	4.52
230.222	5.1
230.6	4.88
230.978	4.76
231.356	5
231.733	5.14
232.111	5.11
232.488	4.99
232.866	4.64
233.243	4.48
233.621	4.63
233.998	4.84
234.376	4.8
234.753	4.74
235.13	4.79
235.508	4.86
235.885	4.88
236.262	4.74
236.639	4.72
237.016	4.58
237.393	4.7
237.77	4.67
238.147	4.67
238.524	4.64
238.901	4.63
239.278	4.64
239.655	4.63
240.032	4.59
240.409	4.5
240.785	4.47
241.162	4.45
241.539	4.44
241.915	4.52
242.292	4.51
242.668	4.49
243.045	4.43
243.421	4.37
243.798	4.36
244.174	4.44
244.551	4.46
244.927	4.45
245.303	4.45
245.679	4.42
246.056	4.41
246.432	4.43
246.808	4.4
247.184	4.39
247.56	4.41
247.936	4.4
248.312	4.42
248.688	4.42
249.064	4.42
249.44	4.42
249.815	4.38
250.191	4.35
250.567	4.38
250.943	4.35
251.318	4.35
251.694	4.35
252.069	4.32
252.445	4.32
252.82	4.31
253.196	4.3
253.571	4.3
253.947	4.29
254.322	4.27
254.697	4.27
255.073	4.24
255.448	4.27
255.823	4.24
256.198	4.24
256.573	4.23
256.948	4.23
257.323	4.19
257.698	4.16
258.073	4.11
258.448	4.11
258.823	4.12
259.198	4.11
259.573	4.08
259.948	4.08
260.322	4.1
260.697	4.09
261.072	4.06
261.446	4.04
261.821	4.03
262.195	4.04
262.57	4.04
262.944	4.03
263.319	4.05
263.693	4.04
264.067	4.04
264.442	4.04
264.816	4
265.19	4.01
265.564	4.02
265.938	4.02
266.313	4.03
266.687	3.99
267.061	3.99
267.435	4
267.809	4.01
268.183	3.98
268.556	3.98
268.93	3.97
269.304	3.98
269.678	4
270.051	3.98
270.425	3.98
270.799	3.95
271.172	3.97
271.546	3.96
271.919	3.97
272.293	3.96
272.666	3.97
273.04	3.99
273.413	4.03
273.787	4.05
274.16	4.06
274.533	4.08
274.906	4.09
275.279	4.08
275.653	4.06
276.026	4.06
276.399	4.09
276.772	4.11
277.145	4.11
277.518	4.11
277.891	4.13
278.263	4.11
278.636	4.12
279.009	4.12
279.382	4.11
279.755	4.11
280.127	4.13
280.5	4.14
280.872	4.15
281.245	4.15
281.617	4.15
281.99	4.18
282.362	4.17
282.735	4.17
283.107	4.17
283.479	4.17
283.852	4.17
284.224	4.16
284.596	4.14
284.968	4.14
285.34	4.15
285.713	4.17
286.085	4.19
286.457	4.19
286.829	4.18
287.201	4.19
287.572	4.18
287.944	4.17
288.316	4.15
288.688	4.14
289.06	4.13
289.431	4.11
289.803	4.13
290.175	4.13
290.546	4.13
290.918	4.16
291.289	4.16
291.661	4.15
292.032	4.15
292.403	4.15
292.775	4.15
293.146	4.15
293.517	4.16
293.889	4.14
294.26	4.16
294.631	4.16
295.002	4.18
295.373	4.17
295.744	4.17
296.115	4.17
296.486	4.18
296.857	4.19
297.228	4.2
297.599	4.21
297.97	4.21
298.34	4.2
298.711	4.2
299.082	4.19
299.452	4.2
299.823	4.2
300.194	4.2
300.564	4.19
300.935	4.18
301.305	4.18
301.676	4.17
302.046	4.18
302.416	4.17
302.787	4.17
303.157	4.18
303.527	4.19
303.897	4.17
304.267	4.18
304.637	4.18
305.008	4.17
305.378	4.17
305.748	4.16
306.117	4.15
306.487	4.16
306.857	4.16
307.227	4.16
307.597	4.16
307.967	4.15
308.336	4.16
308.706	4.14
309.076	4.16
309.445	4.15
309.815	4.15
310.184	4.13
310.554	4.12
310.923	4.12
311.293	4.11
311.662	4.09
312.031	4.07
312.401	4.06
312.77	4.06
313.139	4.06
313.508	4.07
313.877	4.07
314.246	4.09
314.616	4.09
314.985	4.1
315.353	4.11
315.722	4.1
316.091	4.09
316.46	4.09
316.829	4.1
317.198	4.09
317.567	4.09
317.935	4.11
318.304	4.11
318.672	4.11
319.041	4.13
319.41	4.12
319.778	4.13
320.147	4.12
320.515	4.11
320.883	4.1
321.252	4.09
321.62	4.09
321.988	4.1
322.357	4.09
322.725	4.09
323.093	4.09
323.461	4.08
323.829	4.08
324.197	4.07
324.565	4.06
324.933	4.06
325.301	4.05
325.669	4.06
326.037	4.03
326.405	4.04
326.772	4.04
327.14	4.04
327.508	4.03
327.875	4.03
328.243	4.02
328.61	4.01
328.978	4.01
329.346	4.02
329.713	4.02
330.08	4
330.448	3.98
330.815	3.98
331.182	3.97
331.55	3.97
331.917	3.96
332.284	3.94
332.651	3.93
333.018	3.93
333.385	3.91
333.752	3.91
334.119	3.9
334.486	3.9
334.853	3.89
335.22	3.9
335.587	3.9
335.954	3.9
336.32	3.89
336.687	3.88
337.054	3.87
337.42	3.88
337.787	3.88
338.153	3.89
338.52	3.89
338.886	3.88
339.253	3.89
339.619	3.89
339.986	3.9
340.352	3.9
340.718	3.91
341.084	3.91
341.451	3.91
341.817	3.91
342.183	3.92
342.549	3.93
342.915	3.92
343.281	3.93
343.647	3.94
344.013	3.93
344.379	3.93
344.745	3.93
345.11	3.93
345.476	3.95
345.842	3.96
346.208	3.96
346.573	3.96
346.939	3.96
347.304	3.98
347.67	3.98
348.035	3.98
348.401	3.99
348.766	3.99
349.132	3.98
349.497	3.99
349.862	3.98
350.228	3.98
350.593	3.98
350.958	3.98
351.323	3.99
351.688	3.99
352.053	3.99
352.418	3.99
352.783	3.98
353.148	3.97
353.513	3.98
353.878	3.97
354.243	3.97
354.608	3.97
354.972	3.98
355.337	3.98
355.702	3.98
356.066	3.98
356.431	3.98
356.795	3.99
357.16	3.98
357.524	3.99
357.889	3.99
358.253	3.98
358.618	3.97
358.982	3.98
359.346	3.98
359.71	3.97
360.075	3.98
360.439	3.97
360.803	3.97
361.167	3.97
361.531	3.98
361.895	3.98
362.259	3.97
362.623	3.96
362.987	3.96
363.351	3.96
363.714	3.95
364.078	3.95
364.442	3.95
364.806	3.95
365.169	3.95
365.533	3.96
365.896	3.96
366.26	3.96
366.623	3.96
366.987	3.95
367.35	3.95
367.714	3.95
368.077	3.96
368.44	3.95
368.803	3.95
369.167	3.94
369.53	3.94
369.893	3.93
370.256	3.93
370.619	3.93
370.982	3.93
371.345	3.93
371.708	3.93
372.071	3.93
372.434	3.93
372.797	3.92
373.159	3.93
373.522	3.93
373.885	3.92
374.247	3.93
374.61	3.92
374.973	3.91
375.335	3.91
375.698	3.9
376.06	3.9
376.423	3.89
376.785	3.88
377.147	3.89
377.51	3.89
377.872	3.89
378.234	3.88
378.596	3.88
378.958	3.88
379.321	3.88
379.683	3.88
380.045	3.87
380.407	3.87
380.769	3.87
381.13	3.86
381.492	3.87
381.854	3.86
382.216	3.86
382.578	3.87
382.939	3.87
383.301	3.87
383.663	3.87
384.024	3.87
384.386	3.86
384.747	3.86
385.109	3.86
385.47	3.86
385.832	3.85
386.193	3.85
386.554	3.85
386.916	3.84
387.277	3.84
387.638	3.84
387.999	3.84
388.36	3.84
388.721	3.84
389.082	3.83
389.443	3.83
389.804	3.84
390.165	3.84
390.526	3.84
390.887	3.84
391.248	3.84
391.609	3.84
391.969	3.84
392.33	3.84
392.691	3.85
393.051	3.85
393.412	3.85
393.772	3.85
394.133	3.85
394.493	3.85
394.854	3.85
395.214	3.85
395.574	3.85
395.935	3.85
396.295	3.85
396.655	3.85
397.015	3.85
397.376	3.84
397.736	3.84
398.096	3.84
398.456	3.84
398.816	3.85
399.176	3.85
399.535	3.85
399.895	3.85
400.255	3.85
400.615	3.85
400.975	3.85
401.334	3.85
401.694	3.85
402.054	3.86
402.413	3.86
402.773	3.86
403.132	3.86
403.492	3.86
403.851	3.86
404.211	3.86
404.57	3.87
404.929	3.87
405.288	3.87
405.648	3.87
406.007	3.87
406.366	3.87
406.725	3.87
407.084	3.87
407.443	3.87
407.802	3.87
408.161	3.88
408.52	3.88
408.879	3.88
409.238	3.89
409.596	3.89
409.955	3.89
410.314	3.89
410.673	3.9
411.031	3.91
411.39	3.91
411.748	3.92
412.107	3.93
412.465	3.94
412.824	3.96
413.182	3.99
413.54	4.01
413.899	4.05
414.257	4.08
414.615	4.12
414.974	4.15
415.332	4.19
415.69	4.23
416.048	4.26
416.406	4.31
416.764	4.34
417.122	4.37
417.48	4.4
417.838	4.44
418.195	4.46
418.553	4.49
418.911	4.51
419.269	4.51
419.626	4.51
419.984	4.51
420.342	4.5
420.699	4.49
421.057	4.47
421.414	4.45
421.772	4.44
422.129	4.43
422.486	4.43
422.844	4.43
423.201	4.43
423.558	4.42
423.915	4.43
424.273	4.43
424.63	4.43
424.987	4.43
425.344	4.43
425.701	4.43
426.058	4.43
426.415	4.43
426.772	4.43
427.128	4.43
427.485	4.42
427.842	4.41
428.199	4.39
428.555	4.38
428.912	4.36
429.269	4.33
429.625	4.31
429.982	4.28
430.338	4.25
430.695	4.23
431.051	4.2
431.407	4.18
431.764	4.16
432.12	4.14
432.476	4.13
432.832	4.12
433.189	4.12
433.545	4.12
433.901	4.14
434.257	4.16
434.613	4.18
434.969	4.21
435.325	4.24
435.681	4.28
436.036	4.3
436.392	4.32
436.748	4.34
437.104	4.35
437.459	4.37
437.815	4.39
438.171	4.42
438.526	4.44
438.882	4.47
439.237	4.51
439.593	4.55
439.948	4.58
440.304	4.62
440.659	4.65
441.014	4.67
441.369	4.7
441.725	4.72
442.08	4.73
442.435	4.75
442.79	4.76
443.145	4.77
443.5	4.77
443.855	4.77
444.21	4.77
444.565	4.77
444.92	4.76
445.275	4.75
445.629	4.75
445.984	4.74
446.339	4.73
446.693	4.72
447.048	4.7
447.403	4.69
447.757	4.66
448.112	4.64
448.466	4.62
448.82	4.6
449.175	4.57
449.529	4.55
449.883	4.53
450.238	4.51
450.592	4.51
450.946	4.5
451.3	4.49
451.654	4.51
452.008	4.51
452.362	4.51
452.716	4.51
453.07	4.51
453.424	4.51
453.778	4.5
454.132	4.49
454.486	4.49
454.839	4.47
455.193	4.45
455.547	4.44
455.9	4.41
456.254	4.39
456.607	4.36
456.961	4.33
457.314	4.31
457.668	4.3
458.021	4.3
458.375	4.29
458.728	4.29
459.081	4.29
459.434	4.3
459.787	4.31
460.141	4.32
460.494	4.33
460.847	4.33
461.2	4.33
461.553	4.34
461.906	4.34
462.259	4.35
462.611	4.35
462.964	4.36
463.317	4.36
463.67	4.37
464.022	4.38
464.375	4.38
464.728	4.39
465.08	4.39
465.433	4.39
465.785	4.39
466.138	4.37
466.49	4.35
466.843	4.33
467.195	4.31
467.547	4.28
467.899	4.26
468.252	4.23
468.604	4.2
468.956	4.18
469.308	4.16
469.66	4.16
470.012	4.15
470.364	4.15
470.716	4.15
471.068	4.16
471.42	4.18
471.772	4.2
472.123	4.21
472.475	4.23
472.827	4.24
473.178	4.24
473.53	4.25
473.882	4.27
474.233	4.29
474.585	4.33
474.936	4.39
475.288	4.49
475.639	4.61
475.99	4.74
476.342	4.9
476.693	5.06
477.044	5.23
477.395	5.41
477.746	5.59
478.097	5.77
478.448	5.95
478.8	6.13
479.15	6.29
479.501	6.45
479.852	6.59
480.203	6.73
480.554	6.86
480.905	6.98
481.255	7.1
481.606	7.21
481.957	7.32
482.307	7.42
482.658	7.52
483.009	7.61
483.359	7.7
483.709	7.79
484.06	7.87
484.41	7.95
484.761	8.03
485.111	8.11
485.461	8.18
485.811	8.24
486.162	8.31
486.512	8.36
486.862	8.4
487.212	8.43
487.562	8.45
487.912	8.46
488.262	8.47
488.612	8.46
488.961	8.44
489.311	8.39
489.661	8.32
490.011	8.23
490.36	8.12
490.71	7.99
491.06	7.85
491.409	7.71
491.759	7.55
492.108	7.39
492.458	7.23
492.807	7.06
493.157	6.89
493.506	6.72
493.855	6.56
494.204	6.41
494.554	6.26
494.903	6.13
495.252	6
495.601	5.88
495.95	5.76
496.299	5.65
496.648	5.55
496.997	5.45
497.346	5.35
497.695	5.26
498.043	5.17
498.392	5.08
498.741	5
499.09	4.92
499.438	4.84
499.787	4.77
500.135	4.7
500.484	4.64
500.832	4.58
501.181	4.54
501.529	4.52
501.878	4.5
502.226	4.49
502.574	4.49
502.923	4.49
503.271	4.49
503.619	4.49
503.967	4.49
504.315	4.49
504.663	4.49
505.011	4.48
505.359	4.48
505.707	4.48
506.055	4.47
506.403	4.47
506.751	4.48
507.098	4.49
507.446	4.49
507.794	4.5
508.141	4.51
508.489	4.53
508.837	4.55
509.184	4.56
509.531	4.58
509.879	4.59
510.226	4.61
510.574	4.63
510.921	4.66
511.268	4.68
511.616	4.7
511.963	4.72
512.31	4.75
512.657	4.78
513.004	4.8
513.351	4.82
513.698	4.84
514.045	4.85
514.392	4.86
514.739	4.86
515.086	4.86
515.432	4.86
515.779	4.86
516.126	4.86
516.473	4.86
516.819	4.87
517.166	4.88
517.512	4.89
517.859	4.91
518.205	4.93
518.552	4.96
518.898	4.99
519.245	5.04
519.591	5.11
519.937	5.19
520.283	5.29
520.629	5.4
520.976	5.53
521.322	5.66
521.668	5.8
522.014	5.94
522.36	6.07
522.706	6.21
523.052	6.33
523.398	6.45
523.743	6.56
524.089	6.65
524.435	6.73
524.781	6.8
525.126	6.87
525.472	6.93
525.817	6.99
526.163	7.05
526.509	7.1
526.854	7.15
527.199	7.21
527.545	7.26
527.89	7.31
528.235	7.37
528.581	7.42
528.926	7.47
529.271	7.52
529.616	7.56
529.961	7.6
530.306	7.63
530.651	7.66
530.996	7.68
531.341	7.7
531.686	7.71
532.031	7.71
532.376	7.72
532.721	7.73
533.065	7.74
533.41	7.75
533.755	7.74
534.099	7.73
534.444	7.71
534.788	7.68
535.133	7.64
535.477	7.59
535.822	7.53
536.166	7.47
536.51	7.4
536.855	7.32
537.199	7.24
537.543	7.15
537.887	7.08
538.231	7.01
538.576	6.96
538.92	6.9
539.264	6.84
539.608	6.77
539.951	6.71
540.295	6.64
540.639	6.57
540.983	6.5
541.327	6.43
541.671	6.36
542.014	6.3
542.358	6.23
542.701	6.19
543.045	6.15
543.389	6.13
543.732	6.11
544.075	6.09
544.419	6.07
544.762	6.05
545.105	6.04
545.449	6.03
545.792	6.02
546.135	6.02
546.478	6
546.821	5.98
547.165	5.94
547.508	5.9
547.851	5.85
548.194	5.79
548.536	5.72
548.879	5.65
549.222	5.57
549.565	5.49
549.908	5.42
550.25	5.34
550.593	5.28
550.936	5.23
551.278	5.19
551.621	5.16
551.963	5.12
552.306	5.09
552.648	5.08
552.991	5.06
553.333	5.05
553.675	5.04
554.017	5.04
554.36	5.04
554.702	5.05
555.044	5.06
555.386	5.08
555.728	5.1
556.07	5.11
556.412	5.13
556.754	5.14
557.096	5.14
557.438	5.14
557.78	5.15
558.121	5.15
558.463	5.15
558.805	5.15
559.147	5.16
559.488	5.16
559.83	5.17
560.171	5.17
560.513	5.17
560.854	5.18
561.196	5.18
561.537	5.18
561.878	5.18
562.22	5.18
562.561	5.19
562.902	5.19
563.243	5.19
563.584	5.2
563.925	5.2
564.266	5.2
564.607	5.2
564.948	5.2
565.289	5.21
565.63	5.21
565.971	5.22
566.312	5.23
566.653	5.23
566.993	5.23
567.334	5.24
567.675	5.24
568.015	5.24
568.356	5.25
568.696	5.25
569.037	5.25
569.377	5.25
569.718	5.26
570.058	5.26
570.398	5.26
570.739	5.26
571.079	5.26
571.419	5.26
571.759	5.26
572.099	5.26
572.439	5.26
572.779	5.26
573.119	5.26
573.459	5.26
573.799	5.25
574.139	5.25
574.479	5.25
574.819	5.25
575.158	5.26
575.498	5.26
575.838	5.25
576.177	5.25
576.517	5.25
576.856	5.25
577.196	5.25
577.535	5.25
577.875	5.25
578.214	5.25
578.553	5.25
578.893	5.25
579.232	5.25
579.571	5.25
579.91	5.25
580.25	5.25
580.589	5.24
580.928	5.23
581.267	5.23
581.606	5.23
581.945	5.23
582.283	5.23
582.622	5.23
582.961	5.23
583.3	5.24
583.639	5.24
583.977	5.24
584.316	5.24
584.654	5.24
584.993	5.24
585.332	5.25
585.67	5.25
586.008	5.25
586.347	5.25
586.685	5.26
587.024	5.26
587.362	5.27
587.7	5.28
588.038	5.29
588.376	5.29
588.715	5.29
589.053	5.29
589.391	5.3
589.729	5.3
590.067	5.31
590.404	5.32
590.742	5.32
591.08	5.32
591.418	5.33
591.756	5.33
592.093	5.33
592.431	5.33
592.769	5.33
593.106	5.34
593.444	5.34
593.781	5.34
594.119	5.35
594.456	5.35
594.793	5.36
595.131	5.36
595.468	5.36
595.805	5.36
596.143	5.36
596.48	5.36
596.817	5.36
597.154	5.37
597.491	5.37
597.828	5.38
598.165	5.38
598.502	5.38
598.839	5.39
599.176	5.39
599.512	5.39
599.849	5.39
600.186	5.4
600.523	5.4
600.859	5.4
601.196	5.4
601.532	5.4
601.869	5.39
602.205	5.4
602.542	5.4
602.878	5.4
603.215	5.4
603.551	5.4
603.887	5.4
604.223	5.4
604.56	5.4
604.896	5.41
605.232	5.41
605.568	5.4
605.904	5.41
606.24	5.41
606.576	5.42
606.912	5.41
607.248	5.41
607.583	5.41
607.919	5.41
608.255	5.4
608.591	5.41
608.926	5.41
609.262	5.41
609.597	5.41
609.933	5.41
610.268	5.41
610.604	5.41
610.939	5.41
611.275	5.4
611.61	5.41
611.945	5.41
612.281	5.4
612.616	5.4
612.951	5.39
613.286	5.39
613.621	5.4
613.956	5.4
614.291	5.4
614.626	5.4
614.961	5.4
615.296	5.4
615.631	5.4
615.966	5.4
616.3	5.4
616.635	5.4
616.97	5.4
617.304	5.4
617.639	5.39
617.973	5.39
618.308	5.39
618.642	5.38
618.977	5.38
619.311	5.38
619.646	5.38
619.98	5.38
620.314	5.38
620.648	5.4
620.983	5.4
621.317	5.41
621.651	5.41
621.985	5.42
622.319	5.42
622.653	5.43
622.987	5.44
623.321	5.44
623.655	5.44
623.988	5.45
624.322	5.45
624.656	5.46
624.99	5.46
625.323	5.46
625.657	5.46
625.99	5.47
626.324	5.47
626.657	5.47
626.991	5.48
627.324	5.47
627.658	5.47
627.991	5.47
628.324	5.47
628.657	5.48
628.991	5.47
629.324	5.48
629.657	5.48
629.99	5.48
630.323	5.49
630.656	5.49
630.989	5.5
631.322	5.51
631.655	5.51
631.987	5.52
632.32	5.52
632.653	5.53
632.986	5.54
633.318	5.54
633.651	5.54
633.984	5.54
634.316	5.53
634.649	5.53
634.981	5.53
635.313	5.54
635.646	5.53
635.978	5.54
636.31	5.54
636.643	5.54
636.975	5.54
637.307	5.54
637.639	5.54
637.971	5.55
638.303	5.54
638.635	5.55
638.967	5.55
639.299	5.55
639.631	5.55
639.963	5.55
640.295	5.56
640.626	5.56
640.958	5.56
641.29	5.57
641.621	5.58
641.953	5.58
642.285	5.58
642.616	5.58
642.948	5.58
643.279	5.58
643.61	5.59
643.942	5.59
644.273	5.59
644.604	5.6
644.936	5.59
645.267	5.59
645.598	5.59
645.929	5.6
646.26	5.59
646.591	5.59
646.922	5.59
647.253	5.6
647.584	5.62
647.915	5.63
648.245	5.63
648.576	5.63
648.907	5.64
649.238	5.64
649.568	5.63
649.899	5.62
650.229	5.63
650.56	5.64
650.89	5.65
651.221	5.65
651.551	5.65
651.882	5.65
652.212	5.65
652.542	5.66
652.872	5.66
653.203	5.66
653.533	5.66
653.863	5.66
654.193	5.67
654.523	5.67
654.853	5.68
655.183	5.68
655.513	5.69
655.843	5.69
656.172	5.69
656.502	5.7
656.832	5.71
657.162	5.71
657.491	5.71
657.821	5.72
658.15	5.72
658.48	5.73
658.809	5.73
659.139	5.73
659.468	5.73
659.798	5.73
660.127	5.74
660.456	5.74
660.785	5.74
661.115	5.74
661.444	5.74
661.773	5.75
662.102	5.74
662.431	5.74
662.76	5.74
663.089	5.75
663.418	5.77
663.747	5.77
664.076	5.77
664.404	5.77
664.733	5.78
665.062	5.79
665.39	5.8
665.719	5.79
666.048	5.81
666.376	5.81
666.705	5.82
667.033	5.83
667.362	5.83
667.69	5.83
668.018	5.83
668.347	5.84
668.675	5.85
669.003	5.85
669.331	5.85
669.659	5.85
669.987	5.85
670.315	5.86
670.643	5.86
670.971	5.85
671.299	5.85
671.627	5.85
671.955	5.85
672.283	5.86
672.61	5.86
672.938	5.87
673.266	5.88
673.593	5.88
673.921	5.88
674.249	5.89
674.576	5.89
674.904	5.89
675.231	5.9
675.558	5.9
675.886	5.91
676.213	5.92
676.54	5.92
676.867	5.92
677.195	5.91
677.522	5.91
677.849	5.91
678.176	5.92
678.503	5.91
678.83	5.91
679.157	5.91
679.484	5.91
679.81	5.92
680.137	5.91
680.464	5.91
680.791	5.92
681.117	5.93
681.444	5.94
681.771	5.94
682.097	5.94
682.424	5.94
682.75	5.94
683.077	5.95
683.403	5.96
683.729	5.96
684.056	5.96
684.382	5.97
684.708	5.97
685.034	5.98
685.36	5.98
685.686	5.98
686.012	5.98
686.339	5.99
686.664	5.99
686.99	6
687.316	6
687.642	6.01
687.968	6.02
688.294	6.02
688.619	6.02
688.945	6.03
689.271	6.03
689.596	6.03
689.922	6.04
690.247	6.05
690.573	6.05
690.898	6.06
691.224	6.08
691.549	6.09
691.874	6.09
692.2	6.1
692.525	6.11
692.85	6.13
693.175	6.14
693.5	6.15
693.825	6.15
694.15	6.15
694.475	6.15
694.8	6.14
695.125	6.16
695.45	6.15
695.775	6.17
696.099	6.17
696.424	6.17
696.749	6.17
697.073	6.18
697.398	6.18
697.723	6.2
698.047	6.2
698.372	6.21
698.696	6.21
699.02	6.21
699.345	6.21
699.669	6.22
699.993	6.23
700.318	6.23
700.642	6.24
700.966	6.24
701.29	6.24
701.614	6.25
701.938	6.26
702.262	6.27
702.586	6.27
702.91	6.28
703.234	6.27
703.557	6.28
703.881	6.29
704.205	6.28
704.529	6.28
704.852	6.29
705.176	6.31
705.499	6.3
705.823	6.29
706.146	6.28
706.47	6.29
706.793	6.29
707.117	6.3
707.44	6.32
707.763	6.32
708.086	6.34
708.409	6.34
708.733	6.34
709.056	6.35
709.379	6.36
709.702	6.37
710.025	6.37
710.348	6.36
710.671	6.38
710.993	6.37
711.316	6.38
711.639	6.38
711.962	6.39
712.284	6.41
712.607	6.41
712.93	6.41
713.252	6.41
713.575	6.41
713.897	6.42
714.22	6.41
714.542	6.41
714.864	6.39
715.187	6.4
715.509	6.4
715.831	6.4
716.153	6.4
716.475	6.41
716.798	6.41
717.12	6.41
717.442	6.43
717.764	6.43
718.085	6.42
718.407	6.42
718.729	6.43
719.051	6.44
719.373	6.45
719.695	6.45
720.016	6.46
720.338	6.45
720.659	6.45
720.981	6.46
721.302	6.47
721.624	6.48
721.945	6.49
722.267	6.48
722.588	6.49
722.909	6.5
723.231	6.51
723.552	6.53
723.873	6.54
724.194	6.56
724.515	6.57
724.836	6.57
725.157	6.57
725.478	6.58
725.799	6.6
726.12	6.61
726.441	6.62
726.762	6.65
727.083	6.65
727.403	6.66
727.724	6.69
728.045	6.72
728.365	6.74
728.686	6.74
729.006	6.76
729.327	6.77
729.647	6.78
729.967	6.81
730.288	6.83
730.608	6.81
730.928	6.82
731.249	6.85
731.569	6.86
731.889	6.87
732.209	6.88
732.529	6.88
732.849	6.89
733.169	6.9
733.489	6.92
733.809	6.93
734.129	6.94
734.448	6.94
734.768	6.96
735.088	6.97
735.408	6.99
735.727	6.97
736.047	6.99
736.366	6.99
736.686	6.99
737.005	6.99
737.325	6.99
737.644	6.99
737.963	6.98
738.283	6.98
738.602	7
738.921	7.01
739.24	7.03
739.56	7.05
739.879	7.02
740.198	7.03
740.517	7.04
740.836	7.01
741.155	7.02
741.473	7
741.792	7.01
742.111	7
742.43	6.99
742.748	6.99
743.067	6.98
743.386	6.99
743.704	7.02
744.023	7.03
744.341	7
744.66	7.01
744.978	7.02
745.297	7.04
745.615	7.06
745.933	7.07
746.252	7.1
746.57	7.11
746.888	7.14
747.206	7.14
747.524	7.15
747.842	7.15
748.16	7.15
748.478	7.16
748.796	7.18
749.114	7.18
749.432	7.19
749.749	7.19
750.067	7.21
750.385	7.21
750.703	7.23
751.02	7.25
751.338	7.28
751.655	7.29
751.973	7.28
752.29	7.29
752.608	7.28
752.925	7.31
753.242	7.34
753.56	7.34
753.877	7.37
754.194	7.36
754.511	7.39
754.828	7.38
755.145	7.4
755.462	7.43
755.779	7.45
756.096	7.47
756.413	7.45
756.73	7.47
757.047	7.46
757.364	7.47
757.68	7.47
757.997	7.47
758.314	7.46
758.63	7.47
758.947	7.47
759.264	7.46
759.58	7.45
759.896	7.45
760.213	7.46
760.529	7.45
760.846	7.46
761.162	7.47
761.478	7.47
761.794	7.48
762.11	7.49
762.426	7.49
762.743	7.51
763.059	7.5
763.375	7.52
763.69	7.51
764.006	7.53
764.322	7.52
764.638	7.54
764.954	7.56
765.27	7.55
765.585	7.55
765.901	7.57
766.216	7.55
766.532	7.56
766.848	7.56
767.163	7.57
767.478	7.56
767.794	7.59
768.109	7.57
768.424	7.57
768.74	7.55
769.055	7.55
769.37	7.56
769.685	7.55
770	7.57
770.315	7.61
770.63	7.63
770.945	7.66
771.26	7.69
771.575	7.71
771.89	7.72
772.205	7.73
772.52	7.73
772.834	7.74
773.149	7.76
773.464	7.78
773.778	7.77
774.093	7.8
774.407	7.82
774.722	7.83
775.036	7.82
775.351	7.84
775.665	7.85
775.979	7.87
776.293	7.85
776.608	7.87
776.922	7.84
777.236	7.86
777.55	7.84
777.864	7.83
778.178	7.86
778.492	7.87
778.806	7.84
779.12	7.87
779.434	7.88
779.747	7.92
780.061	7.92
780.375	7.95
780.689	7.92
781.002	7.95
781.316	7.96
781.629	8
781.943	7.99
782.256	8.02
782.57	8.06
782.883	8.05
783.196	8.03
783.51	8.03
783.823	8.04
784.136	8.03
784.449	8.05
784.762	8.09
785.075	8.1
785.388	8.1
785.701	8.1
786.014	8.13
786.327	8.14
786.64	8.12
786.953	8.15
787.266	8.14
787.578	8.2
787.891	8.24
788.204	8.25
788.516	8.26
788.829	8.32
789.141	8.35
789.454	8.36
789.766	8.4
790.079	8.37
790.391	8.37
790.703	8.39
791.016	8.38
791.328	8.39
791.64	8.42
791.952	8.41
792.264	8.35
792.576	8.31
792.888	8.3
793.2	8.34
793.512	8.35
793.824	8.35
794.136	8.33
794.448	8.35
794.76	8.42
795.071	8.4
795.383	8.4
795.695	8.43
796.006	8.44
796.318	8.41
796.629	8.4
796.941	8.37
797.252	8.36
797.564	8.35
797.875	8.34
798.186	8.38
798.497	8.42
798.809	8.36
799.12	8.34
799.431	8.4
799.742	8.38
800.053	8.39
800.364	8.39
800.675	8.36
800.986	8.4
801.297	8.42
801.608	8.38
801.918	8.36
802.229	8.37
802.54	8.37
802.851	8.43
803.161	8.42
803.472	8.43
803.782	8.42
804.093	8.46
804.403	8.52
804.714	8.58
805.024	8.65
805.334	8.67
805.645	8.68
805.955	8.7
806.265	8.7
806.575	8.74
806.885	8.77
807.195	8.78
807.505	8.77
807.815	8.84
808.125	8.85
808.435	8.85
808.745	8.83
809.055	8.87
809.365	8.91
809.674	8.97
809.984	8.99
810.294	9.02
810.603	9.06
810.913	9.07
811.222	9.05
811.532	9.1
811.841	9.12
812.151	9.11
812.46	9.1
812.769	9.06
813.079	9.05
813.388	9.08
813.697	9.09
814.006	9.11
814.315	9.09
814.624	9.16
814.933	9.16
815.242	9.17
815.551	9.15
815.86	9.23
816.169	9.25
816.478	9.31
816.786	9.28
817.095	9.24
817.404	9.18
817.712	9.18
818.021	9.2
818.33	9.2
818.638	9.22
818.947	9.21
819.255	9.2
819.563	9.21
819.872	9.23
820.18	9.22
820.488	9.21
820.796	9.2
821.105	9.21
821.413	9.23
821.721	9.25
822.029	9.25
822.337	9.25
822.645	9.25
822.953	9.23
823.26	9.23
823.568	9.23
823.876	9.25
824.184	9.24
824.491	9.24
824.799	9.26
825.107	9.27
825.414	9.29
825.722	9.3
826.029	9.32
826.337	9.31
826.644	9.33
826.951	9.34
827.259	9.34
827.566	9.34
827.873	9.32
828.18	9.32
828.488	9.32
828.795	9.32
829.102	9.31
829.409	9.32
829.716	9.34
830.023	9.38
830.329	9.38
830.636	9.39
830.943	9.4
831.25	9.39
831.557	9.43
831.863	9.46
832.17	9.48
832.476	9.48
832.783	9.48
833.089	9.5
833.396	9.5
833.702	9.53
834.009	9.53
834.315	9.52
834.621	9.53
834.928	9.53
835.234	9.56
835.54	9.56
835.846	9.57
836.152	9.56
836.458	9.56
836.764	9.57
837.07	9.61
837.376	9.58
837.682	9.57
837.988	9.56
838.293	9.53
838.599	9.53
838.905	9.52
839.211	9.5
839.516	9.49
839.822	9.5
840.127	9.52
840.433	9.61
840.738	9.66
841.044	9.62
841.349	9.59
841.654	9.63
841.959	9.61
842.265	9.64
842.57	9.63
842.875	9.66
843.18	9.64
843.485	9.74
843.79	9.8
844.095	9.85
844.4	9.84
844.705	9.91
845.01	9.94
845.315	9.91
845.619	9.88
845.924	9.9
846.229	9.86
846.533	9.94
846.838	9.98
847.142	9.97
847.447	10.01
847.751	10
848.056	10.12
848.36	10.14
848.664	10.18
848.969	10.23
849.273	10.22
849.577	10.28
849.881	10.45
850.185	10.5
850.489	10.46
850.794	10.65
851.097	10.67
851.401	10.75
851.705	10.77
852.009	10.99
852.313	11.04
852.617	11.03
852.92	10.93
853.224	10.93
853.528	11.01
853.831	11.13
854.135	11.2
854.438	11.27
854.742	11.18
855.045	10.99
855.349	11.19
855.652	11.25
855.955	11.16
856.259	11.2
856.562	11.12
856.865	11.16
857.168	11.14
857.471	11.14
857.774	11.3
858.077	11.34
858.38	11.49
858.683	11.62
858.986	11.62
859.289	11.6
859.592	11.66
859.894	11.67
860.197	11.69
860.5	11.86
860.802	11.79
861.105	11.89
861.407	11.8
861.71	11.8
862.012	11.7
862.315	11.68
862.617	11.64
862.919	11.9
863.222	11.77
863.524	11.85
863.826	11.84
864.128	11.73
864.43	11.63
864.732	11.43
865.034	11.45
865.336	11.5
865.638	11.47
865.94	11.54
866.242	11.45
866.544	11.47
866.846	11.57
867.147	11.64
867.449	11.83
867.751	11.65
868.052	11.7
868.354	11.72
868.655	11.5
868.957	11.46
869.258	11.6
869.56	11.65
869.861	11.6
870.162	11.61
870.463	11.82
870.765	11.8
871.066	11.95
871.367	11.83
871.668	11.84
871.969	11.78
872.27	11.81
872.571	11.89
872.872	11.74
873.173	11.92
873.473	11.83
873.774	11.93
874.075	12.02
874.376	12.14
874.676	12.07
874.977	12.21
875.277	12.1
875.578	12.14
875.878	12.03
876.179	12.06
876.479	12.19
876.78	12.18
877.08	12.43
877.38	12.45
877.68	12.53
877.981	12.49
878.281	12.52
878.581	12.72
