Data from UWBM55942_Reflection_00012.txt Node
Date: Sun May 02 14:11:52 EDT 2021
User: vgr7
Spectrometer: USB2G7710
Scans to average: 10
Trigger mode: 4
Integration Time (sec): 1.000000E-1
Electric dark correction enabled: true
Boxcar width: 20
XAxis mode: Wavelengths
Number of Pixels in Spectrum: 2048
>>>>>Begin Spectral Data<<<<<
177.721	-705
178.105	-75.29
178.488	-280.12
178.871	-547.06
179.254	187.5
179.636	68.65
180.019	51.33
180.402	44.79
180.785	41.29
181.168	30.25
181.55	21.21
181.933	28.03
182.316	25.48
182.698	23.52
183.081	18.13
183.463	17.39
183.846	15.62
184.228	19.75
184.611	22.02
184.993	21.67
185.376	19.24
185.758	20.37
186.14	21.42
186.522	19.91
186.904	21.06
187.287	20.71
187.669	20.94
188.051	23.51
188.433	22.14
188.815	21.63
189.197	20.36
189.579	22.61
189.961	21.39
190.342	20.2
190.724	20.7
191.106	19.94
191.488	22.21
191.869	20.67
192.251	18.85
192.633	20.52
193.014	19.2
193.396	16.25
193.777	16.7
194.159	17.34
194.54	15.97
194.922	14.19
195.303	15.04
195.684	14.19
196.065	13.15
196.447	14.23
196.828	14.86
197.209	15.7
197.59	11.12
197.971	9.45
198.352	9.42
198.733	11.13
199.114	11.52
199.495	11.73
199.876	10.92
200.257	10.4
200.638	9.85
201.018	11.24
201.399	12.3
201.78	10.76
202.16	9.98
202.541	8.87
202.922	8.4
203.302	8.02
203.683	6.66
204.063	7.84
204.444	7.33
204.824	5.88
205.204	3.73
205.585	4.3
205.965	6.56
206.345	5.11
206.725	3.84
207.106	-0.01
207.486	1.24
207.866	3.04
208.246	2
208.626	1.22
209.006	2.25
209.386	0.78
209.766	-1.17
210.145	-1.17
210.525	0.49
210.905	2.44
211.285	0.97
211.664	1.93
212.044	1.24
212.424	-0.5
212.803	-1.34
213.183	1.68
213.562	3.63
213.942	3.7
214.321	2.69
214.701	1.74
215.08	1.87
215.459	0.78
215.838	0.12
216.218	-0.33
216.597	-1.64
216.976	-1.83
217.355	-1.15
217.734	-1.06
218.113	-0.07
218.492	-0.19
218.871	-0.19
219.25	1.48
219.629	1.95
220.008	2.01
220.387	2.19
220.766	4.52
221.144	4.1
221.523	3.76
221.902	4.17
222.28	4.49
222.659	5.7
223.037	4.46
223.416	4.72
223.794	5.51
224.173	5.83
224.551	5.46
224.929	6.56
225.308	6.96
225.686	7.47
226.064	6.89
226.442	6.21
226.821	7.07
227.199	6.97
227.577	6.8
227.955	7.81
228.333	8.49
228.711	7.93
229.089	7.16
229.467	7.03
229.845	6.63
230.222	6.53
230.6	6.56
230.978	6.71
231.356	6.89
231.733	6.87
232.111	6.76
232.488	6.66
232.866	6.41
233.243	6.4
233.621	6.14
233.998	6.32
234.376	6.17
234.753	5.87
235.13	5.76
235.508	5.87
235.885	5.82
236.262	5.53
236.639	5.59
237.016	5.51
237.393	5.49
237.77	5.53
238.147	5.53
238.524	5.53
238.901	5.4
239.278	5.31
239.655	5.31
240.032	5.28
240.409	5.22
240.785	5.26
241.162	5.25
241.539	5.29
241.915	5.32
242.292	5.28
242.668	5.25
243.045	5.22
243.421	5.16
243.798	5.08
244.174	5.11
244.551	5.11
244.927	5.09
245.303	5.16
245.679	5.18
246.056	5.12
246.432	5.13
246.808	5.11
247.184	5.13
247.56	5.13
247.936	5.16
248.312	5.17
248.688	5.16
249.064	5.15
249.44	5.12
249.815	5.09
250.191	5.04
250.567	5.05
250.943	4.99
251.318	4.96
251.694	5
252.069	4.95
252.445	4.94
252.82	4.91
253.196	4.87
253.571	4.85
253.947	4.83
254.322	4.81
254.697	4.8
255.073	4.77
255.448	4.78
255.823	4.73
256.198	4.71
256.573	4.67
256.948	4.65
257.323	4.62
257.698	4.59
258.073	4.58
258.448	4.56
258.823	4.54
259.198	4.54
259.573	4.52
259.948	4.54
260.322	4.55
260.697	4.53
261.072	4.5
261.446	4.5
261.821	4.48
262.195	4.47
262.57	4.44
262.944	4.44
263.319	4.41
263.693	4.39
264.067	4.38
264.442	4.38
264.816	4.35
265.19	4.37
265.564	4.37
265.938	4.35
266.313	4.36
266.687	4.36
267.061	4.34
267.435	4.34
267.809	4.33
268.183	4.33
268.556	4.34
268.93	4.34
269.304	4.35
269.678	4.34
270.051	4.33
270.425	4.32
270.799	4.29
271.172	4.31
271.546	4.32
271.919	4.32
272.293	4.29
272.666	4.28
273.04	4.29
273.413	4.32
273.787	4.34
274.16	4.34
274.533	4.33
274.906	4.33
275.279	4.33
275.653	4.31
276.026	4.31
276.399	4.31
276.772	4.33
277.145	4.33
277.518	4.34
277.891	4.35
278.263	4.34
278.636	4.35
279.009	4.35
279.382	4.37
279.755	4.37
280.127	4.38
280.5	4.38
280.872	4.4
281.245	4.41
281.617	4.41
281.99	4.43
282.362	4.42
282.735	4.43
283.107	4.43
283.479	4.43
283.852	4.45
284.224	4.44
284.596	4.44
284.968	4.45
285.34	4.47
285.713	4.47
286.085	4.5
286.457	4.52
286.829	4.51
287.201	4.53
287.572	4.55
287.944	4.57
288.316	4.58
288.688	4.59
289.06	4.6
289.431	4.63
289.803	4.66
290.175	4.69
290.546	4.72
290.918	4.76
291.289	4.8
291.661	4.83
292.032	4.85
292.403	4.87
292.775	4.91
293.146	4.92
293.517	4.95
293.889	4.98
294.26	5.02
294.631	5.05
295.002	5.11
295.373	5.14
295.744	5.17
296.115	5.21
296.486	5.25
296.857	5.3
297.228	5.33
297.599	5.39
297.97	5.43
298.34	5.45
298.711	5.49
299.082	5.52
299.452	5.58
299.823	5.62
300.194	5.68
300.564	5.73
300.935	5.78
301.305	5.83
301.676	5.88
302.046	5.92
302.416	5.97
302.787	6.02
303.157	6.07
303.527	6.13
303.897	6.18
304.267	6.25
304.637	6.31
305.008	6.37
305.378	6.43
305.748	6.5
306.117	6.56
306.487	6.63
306.857	6.72
307.227	6.8
307.597	6.86
307.967	6.93
308.336	7
308.706	7.07
309.076	7.13
309.445	7.18
309.815	7.24
310.184	7.27
310.554	7.33
310.923	7.4
311.293	7.44
311.662	7.49
312.031	7.54
312.401	7.61
312.77	7.66
313.139	7.72
313.508	7.79
313.877	7.85
314.246	7.91
314.616	7.95
314.985	8.01
315.353	8.06
315.722	8.11
316.091	8.18
316.46	8.23
316.829	8.29
317.198	8.37
317.567	8.42
317.935	8.52
318.304	8.6
318.672	8.68
319.041	8.76
319.41	8.83
319.778	8.91
320.147	8.97
320.515	9.03
320.883	9.08
321.252	9.12
321.62	9.17
321.988	9.21
322.357	9.27
322.725	9.33
323.093	9.39
323.461	9.43
323.829	9.5
324.197	9.55
324.565	9.6
324.933	9.64
325.301	9.67
325.669	9.74
326.037	9.8
326.405	9.85
326.772	9.9
327.14	9.95
327.508	9.98
327.875	10.03
328.243	10.07
328.61	10.12
328.978	10.15
329.346	10.19
329.713	10.25
330.08	10.3
330.448	10.33
330.815	10.36
331.182	10.4
331.55	10.44
331.917	10.48
332.284	10.51
332.651	10.57
333.018	10.62
333.385	10.64
333.752	10.66
334.119	10.7
334.486	10.74
334.853	10.79
335.22	10.84
335.587	10.88
335.954	10.94
336.32	10.99
336.687	11.02
337.054	11.06
337.42	11.1
337.787	11.15
338.153	11.18
338.52	11.21
338.886	11.24
339.253	11.29
339.619	11.32
339.986	11.36
340.352	11.42
340.718	11.45
341.084	11.48
341.451	11.52
341.817	11.55
342.183	11.59
342.549	11.62
342.915	11.65
343.281	11.68
343.647	11.71
344.013	11.73
344.379	11.76
344.745	11.79
345.11	11.82
345.476	11.86
345.842	11.89
346.208	11.92
346.573	11.94
346.939	11.96
347.304	11.99
347.67	11.99
348.035	12
348.401	12.03
348.766	12.06
349.132	12.08
349.497	12.11
349.862	12.11
350.228	12.12
350.593	12.13
350.958	12.13
351.323	12.13
351.688	12.15
352.053	12.15
352.418	12.15
352.783	12.14
353.148	12.15
353.513	12.16
353.878	12.15
354.243	12.14
354.608	12.14
354.972	12.14
355.337	12.12
355.702	12.11
356.066	12.1
356.431	12.08
356.795	12.06
357.16	12.04
357.524	12.03
357.889	12.01
358.253	12
358.618	11.98
358.982	11.96
359.346	11.94
359.71	11.91
360.075	11.89
360.439	11.85
360.803	11.83
361.167	11.8
361.531	11.77
361.895	11.75
362.259	11.71
362.623	11.68
362.987	11.65
363.351	11.62
363.714	11.57
364.078	11.54
364.442	11.5
364.806	11.46
365.169	11.42
365.533	11.38
365.896	11.33
366.26	11.28
366.623	11.24
366.987	11.18
367.35	11.13
367.714	11.07
368.077	11.01
368.44	10.95
368.803	10.89
369.167	10.82
369.53	10.74
369.893	10.67
370.256	10.6
370.619	10.53
370.982	10.45
371.345	10.37
371.708	10.3
372.071	10.23
372.434	10.15
372.797	10.08
373.159	10.01
373.522	9.94
373.885	9.87
374.247	9.79
374.61	9.71
374.973	9.63
375.335	9.55
375.698	9.47
376.06	9.4
376.423	9.33
376.785	9.25
377.147	9.17
377.51	9.11
377.872	9.04
378.234	8.96
378.596	8.89
378.958	8.8
379.321	8.72
379.683	8.66
380.045	8.58
380.407	8.51
380.769	8.46
381.13	8.38
381.492	8.32
381.854	8.26
382.216	8.19
382.578	8.13
382.939	8.07
383.301	8.01
383.663	7.95
384.024	7.89
384.386	7.84
384.747	7.78
385.109	7.72
385.47	7.66
385.832	7.6
386.193	7.54
386.554	7.48
386.916	7.43
387.277	7.37
387.638	7.32
387.999	7.27
388.36	7.22
388.721	7.17
389.082	7.13
389.443	7.08
389.804	7.03
390.165	6.99
390.526	6.95
390.887	6.9
391.248	6.85
391.609	6.81
391.969	6.77
392.33	6.72
392.691	6.68
393.051	6.63
393.412	6.59
393.772	6.55
394.133	6.5
394.493	6.45
394.854	6.41
395.214	6.36
395.574	6.31
395.935	6.27
396.295	6.22
396.655	6.18
397.015	6.14
397.376	6.09
397.736	6.05
398.096	6.01
398.456	5.96
398.816	5.92
399.176	5.87
399.535	5.83
399.895	5.79
400.255	5.75
400.615	5.72
400.975	5.68
401.334	5.64
401.694	5.61
402.054	5.57
402.413	5.54
402.773	5.5
403.132	5.47
403.492	5.44
403.851	5.41
404.211	5.38
404.57	5.36
404.929	5.33
405.288	5.3
405.648	5.28
406.007	5.26
406.366	5.24
406.725	5.22
407.084	5.2
407.443	5.17
407.802	5.15
408.161	5.13
408.52	5.11
408.879	5.1
409.238	5.08
409.596	5.07
409.955	5.06
410.314	5.04
410.673	5.02
411.031	5.01
411.39	4.99
411.748	4.98
412.107	4.97
412.465	4.96
412.824	4.97
413.182	4.97
413.54	4.98
413.899	5
414.257	5.01
414.615	5.04
414.974	5.06
415.332	5.08
415.69	5.11
416.048	5.12
416.406	5.15
416.764	5.17
417.122	5.18
417.48	5.21
417.838	5.22
418.195	5.24
418.553	5.25
418.911	5.25
419.269	5.24
419.626	5.23
419.984	5.2
420.342	5.17
420.699	5.15
421.057	5.11
421.414	5.08
421.772	5.06
422.129	5.03
422.486	5.02
422.844	5
423.201	4.99
423.558	4.97
423.915	4.96
424.273	4.95
424.63	4.94
424.987	4.93
425.344	4.91
425.701	4.9
426.058	4.89
426.415	4.88
426.772	4.87
427.128	4.85
427.485	4.82
427.842	4.8
428.199	4.77
428.555	4.75
428.912	4.71
429.269	4.67
429.625	4.64
429.982	4.6
430.338	4.56
430.695	4.53
431.051	4.49
431.407	4.46
431.764	4.43
432.12	4.4
432.476	4.38
432.832	4.37
433.189	4.36
433.545	4.36
433.901	4.37
434.257	4.39
434.613	4.42
434.969	4.44
435.325	4.47
435.681	4.51
436.036	4.53
436.392	4.55
436.748	4.57
437.104	4.57
437.459	4.59
437.815	4.61
438.171	4.63
438.526	4.66
438.882	4.68
439.237	4.72
439.593	4.76
439.948	4.79
440.304	4.83
440.659	4.85
441.014	4.87
441.369	4.89
441.725	4.91
442.08	4.92
442.435	4.93
442.79	4.94
443.145	4.94
443.5	4.93
443.855	4.93
444.21	4.92
444.565	4.92
444.92	4.9
445.275	4.89
445.629	4.88
445.984	4.86
446.339	4.84
446.693	4.83
447.048	4.81
447.403	4.78
447.757	4.75
448.112	4.73
448.466	4.7
448.82	4.67
449.175	4.64
449.529	4.61
449.883	4.58
450.238	4.55
450.592	4.54
450.946	4.52
451.3	4.51
451.654	4.52
452.008	4.51
452.362	4.52
452.716	4.51
453.07	4.51
453.424	4.49
453.778	4.48
454.132	4.46
454.486	4.45
454.839	4.43
455.193	4.4
455.547	4.39
455.9	4.36
456.254	4.34
456.607	4.31
456.961	4.28
457.314	4.26
457.668	4.25
458.021	4.24
458.375	4.24
458.728	4.24
459.081	4.24
459.434	4.25
459.787	4.27
460.141	4.28
460.494	4.29
460.847	4.3
461.2	4.31
461.553	4.32
461.906	4.33
462.259	4.34
462.611	4.34
462.964	4.35
463.317	4.36
463.67	4.37
464.022	4.39
464.375	4.4
464.728	4.41
465.08	4.42
465.433	4.43
465.785	4.43
466.138	4.43
466.49	4.42
466.843	4.4
467.195	4.39
467.547	4.38
467.899	4.36
468.252	4.34
468.604	4.32
468.956	4.31
469.308	4.3
469.66	4.31
470.012	4.31
470.364	4.32
470.716	4.33
471.068	4.35
471.42	4.38
471.772	4.4
472.123	4.42
472.475	4.44
472.827	4.45
473.178	4.46
473.53	4.48
473.882	4.5
474.233	4.52
474.585	4.56
474.936	4.63
475.288	4.73
475.639	4.85
475.99	4.99
476.342	5.15
476.693	5.32
477.044	5.49
477.395	5.66
477.746	5.85
478.097	6.03
478.448	6.21
478.8	6.39
479.15	6.55
479.501	6.71
479.852	6.84
480.203	6.98
480.554	7.1
480.905	7.22
481.255	7.34
481.606	7.45
481.957	7.55
482.307	7.65
482.658	7.74
483.009	7.83
483.359	7.91
483.709	8
484.06	8.08
484.41	8.16
484.761	8.24
485.111	8.32
485.461	8.39
485.811	8.45
486.162	8.52
486.512	8.57
486.862	8.61
487.212	8.64
487.562	8.66
487.912	8.68
488.262	8.69
488.612	8.68
488.961	8.66
489.311	8.62
489.661	8.55
490.011	8.47
490.36	8.36
490.71	8.24
491.06	8.11
491.409	7.97
491.759	7.82
492.108	7.67
492.458	7.52
492.807	7.35
493.157	7.2
493.506	7.05
493.855	6.9
494.204	6.78
494.554	6.65
494.903	6.54
495.252	6.43
495.601	6.33
495.95	6.23
496.299	6.15
496.648	6.07
496.997	6
497.346	5.94
497.695	5.88
498.043	5.82
498.392	5.77
498.741	5.72
499.09	5.68
499.438	5.65
499.787	5.63
500.135	5.61
500.484	5.6
500.832	5.6
501.181	5.62
501.529	5.66
501.878	5.71
502.226	5.76
502.574	5.83
502.923	5.9
503.271	5.98
503.619	6.06
503.967	6.14
504.315	6.22
504.663	6.3
505.011	6.39
505.359	6.48
505.707	6.56
506.055	6.66
506.403	6.76
506.751	6.86
507.098	6.97
507.446	7.07
507.794	7.19
508.141	7.3
508.489	7.43
508.837	7.56
509.184	7.69
509.531	7.83
509.879	7.97
510.226	8.13
510.574	8.29
510.921	8.46
511.268	8.64
511.616	8.82
511.963	9
512.31	9.18
512.657	9.37
513.004	9.55
513.351	9.73
513.698	9.89
514.045	10.05
514.392	10.19
514.739	10.33
515.086	10.46
515.432	10.6
515.779	10.73
516.126	10.87
516.473	11.01
516.819	11.17
517.166	11.35
517.512	11.53
517.859	11.74
518.205	11.96
518.552	12.21
518.898	12.47
519.245	12.77
519.591	13.13
519.937	13.56
520.283	14.05
520.629	14.59
520.976	15.16
521.322	15.75
521.668	16.37
522.014	16.98
522.36	17.6
522.706	18.21
523.052	18.8
523.398	19.36
523.743	19.87
524.089	20.34
524.435	20.78
524.781	21.21
525.126	21.63
525.472	22.05
525.817	22.46
526.163	22.86
526.509	23.25
526.854	23.64
527.199	24.03
527.545	24.42
527.89	24.84
528.235	25.24
528.581	25.62
528.926	25.99
529.271	26.33
529.616	26.67
529.961	26.99
530.306	27.3
530.651	27.6
530.996	27.87
531.341	28.11
531.686	28.34
532.031	28.56
532.376	28.81
532.721	29.07
533.065	29.36
533.41	29.67
533.755	29.95
534.099	30.2
534.444	30.42
534.788	30.62
535.133	30.81
535.477	30.98
535.822	31.11
536.166	31.22
536.51	31.28
536.855	31.28
537.199	31.25
537.543	31.23
537.887	31.24
538.231	31.29
538.576	31.33
538.92	31.37
539.264	31.39
539.608	31.39
539.951	31.38
540.295	31.36
540.639	31.32
540.983	31.27
541.327	31.21
541.671	31.12
542.014	31.05
542.358	31.01
542.701	31.03
543.045	31.12
543.389	31.23
543.732	31.37
544.075	31.52
544.419	31.69
544.762	31.86
545.105	32.06
545.449	32.27
545.792	32.48
546.135	32.7
546.478	32.87
546.821	33.01
547.165	33.09
547.508	33.12
547.851	33.11
548.194	33.05
548.536	32.97
548.879	32.84
549.222	32.7
549.565	32.55
549.908	32.41
550.25	32.3
550.593	32.24
550.936	32.24
551.278	32.3
551.621	32.4
551.963	32.51
552.306	32.64
552.648	32.8
552.991	32.99
553.333	33.21
553.675	33.45
554.017	33.73
554.36	34.04
554.702	34.37
555.044	34.73
555.386	35.15
555.728	35.61
556.07	36.02
556.412	36.44
556.754	36.78
557.096	37.07
557.438	37.34
557.78	37.63
558.121	37.93
558.463	38.22
558.805	38.52
559.147	38.81
559.488	39.1
559.83	39.39
560.171	39.67
560.513	39.96
560.854	40.24
561.196	40.51
561.537	40.78
561.878	41.04
562.22	41.3
562.561	41.56
562.902	41.82
563.243	42.08
563.584	42.33
563.925	42.59
564.266	42.84
564.607	43.07
564.948	43.31
565.289	43.55
565.63	43.78
565.971	44.01
566.312	44.24
566.653	44.46
566.993	44.68
567.334	44.9
567.675	45.11
568.015	45.32
568.356	45.52
568.696	45.71
569.037	45.92
569.377	46.1
569.718	46.27
570.058	46.45
570.398	46.62
570.739	46.78
571.079	46.94
571.419	47.1
571.759	47.25
572.099	47.38
572.439	47.54
572.779	47.66
573.119	47.8
573.459	47.93
573.799	48.06
574.139	48.19
574.479	48.33
574.819	48.47
575.158	48.6
575.498	48.72
575.838	48.85
576.177	48.97
576.517	49.09
576.856	49.21
577.196	49.33
577.535	49.44
577.875	49.55
578.214	49.66
578.553	49.78
578.893	49.89
579.232	50
579.571	50.11
579.91	50.22
580.25	50.32
580.589	50.43
580.928	50.53
581.267	50.64
581.606	50.75
581.945	50.85
582.283	50.95
582.622	51.05
582.961	51.15
583.3	51.26
583.639	51.37
583.977	51.47
584.316	51.56
584.654	51.67
584.993	51.77
585.332	51.88
585.67	51.98
586.008	52.09
586.347	52.18
586.685	52.29
587.024	52.39
587.362	52.48
587.7	52.58
588.038	52.69
588.376	52.78
588.715	52.88
589.053	52.98
589.391	53.09
589.729	53.19
590.067	53.29
590.404	53.38
590.742	53.47
591.08	53.55
591.418	53.64
591.756	53.72
592.093	53.8
592.431	53.88
592.769	53.95
593.106	54.01
593.444	54.07
593.781	54.13
594.119	54.19
594.456	54.26
594.793	54.33
595.131	54.39
595.468	54.45
595.805	54.51
596.143	54.58
596.48	54.66
596.817	54.74
597.154	54.81
597.491	54.89
597.828	54.97
598.165	55.03
598.502	55.09
598.839	55.17
599.176	55.23
599.512	55.29
599.849	55.34
600.186	55.39
600.523	55.44
600.859	55.49
601.196	55.54
601.532	55.59
601.869	55.65
602.205	55.69
602.542	55.73
602.878	55.78
603.215	55.82
603.551	55.87
603.887	55.9
604.223	55.94
604.56	55.98
604.896	56.02
605.232	56.04
605.568	56.08
605.904	56.11
606.24	56.13
606.576	56.16
606.912	56.2
607.248	56.23
607.583	56.27
607.919	56.31
608.255	56.34
608.591	56.37
608.926	56.4
609.262	56.43
609.597	56.46
609.933	56.48
610.268	56.5
610.604	56.5
610.939	56.52
611.275	56.54
611.61	56.56
611.945	56.58
612.281	56.6
612.616	56.61
612.951	56.62
613.286	56.63
613.621	56.66
613.956	56.68
614.291	56.71
614.626	56.73
614.961	56.75
615.296	56.76
615.631	56.77
615.966	56.79
616.3	56.81
616.635	56.82
616.97	56.83
617.304	56.85
617.639	56.86
617.973	56.87
618.308	56.88
618.642	56.89
618.977	56.92
619.311	56.95
619.646	56.98
619.98	57.02
620.314	57.06
620.648	57.09
620.983	57.12
621.317	57.15
621.651	57.15
621.985	57.2
622.319	57.22
622.653	57.24
622.987	57.26
623.321	57.28
623.655	57.31
623.988	57.33
624.322	57.35
624.656	57.38
624.99	57.39
625.323	57.42
625.657	57.45
625.99	57.47
626.324	57.49
626.657	57.5
626.991	57.53
627.324	57.55
627.658	57.57
627.991	57.58
628.324	57.61
628.657	57.63
628.991	57.65
629.324	57.68
629.657	57.69
629.99	57.72
630.323	57.74
630.656	57.76
630.989	57.78
631.322	57.79
631.655	57.82
631.987	57.84
632.32	57.87
632.653	57.88
632.986	57.89
633.318	57.91
633.651	57.93
633.984	57.94
634.316	57.95
634.649	57.97
634.981	57.98
635.313	57.99
635.646	57.99
635.978	58
636.31	58.02
636.643	58.04
636.975	58.06
637.307	58.07
637.639	58.08
637.971	58.1
638.303	58.11
638.635	58.13
638.967	58.14
639.299	58.15
639.631	58.16
639.963	58.18
640.295	58.2
640.626	58.22
640.958	58.25
641.29	58.26
641.621	58.28
641.953	58.29
642.285	58.3
642.616	58.32
642.948	58.34
643.279	58.36
643.61	58.36
643.942	58.38
644.273	58.38
644.604	58.38
644.936	58.4
645.267	58.41
645.598	58.44
645.929	58.46
646.26	58.49
646.591	58.49
646.922	58.49
647.253	58.5
647.584	58.52
647.915	58.52
648.245	58.54
648.576	58.55
648.907	58.57
649.238	58.59
649.568	58.6
649.899	58.63
650.229	58.64
650.56	58.65
650.89	58.66
651.221	58.68
651.551	58.68
651.882	58.7
652.212	58.73
652.542	58.74
652.872	58.77
653.203	58.79
653.533	58.82
653.863	58.84
654.193	58.84
654.523	58.85
654.853	58.86
655.183	58.88
655.513	58.89
655.843	58.9
656.172	58.9
656.502	58.91
656.832	58.92
657.162	58.93
657.491	58.95
657.821	58.97
658.15	59
658.48	59.02
658.809	59.05
659.139	59.06
659.468	59.07
659.798	59.07
660.127	59.09
660.456	59.13
660.785	59.14
661.115	59.15
661.444	59.18
661.773	59.18
662.102	59.21
662.431	59.23
662.76	59.24
663.089	59.25
663.418	59.25
663.747	59.26
664.076	59.29
664.404	59.31
664.733	59.32
665.062	59.34
665.39	59.35
665.719	59.35
666.048	59.37
666.376	59.39
666.705	59.4
667.033	59.41
667.362	59.4
667.69	59.4
668.018	59.4
668.347	59.42
668.675	59.42
669.003	59.43
669.331	59.46
669.659	59.46
669.987	59.47
670.315	59.49
670.643	59.49
670.971	59.51
671.299	59.51
671.627	59.51
671.955	59.51
672.283	59.48
672.61	59.48
672.938	59.5
673.266	59.51
673.593	59.54
673.921	59.52
674.249	59.52
674.576	59.52
674.904	59.53
675.231	59.55
675.558	59.54
675.886	59.56
676.213	59.56
676.54	59.56
676.867	59.57
677.195	59.56
677.522	59.56
677.849	59.57
678.176	59.58
678.503	59.57
678.83	59.58
679.157	59.58
679.484	59.57
679.81	59.58
680.137	59.58
680.464	59.58
680.791	59.6
681.117	59.61
681.444	59.63
681.771	59.63
682.097	59.64
682.424	59.64
682.75	59.64
683.077	59.65
683.403	59.67
683.729	59.67
684.056	59.67
684.382	59.67
684.708	59.68
685.034	59.69
685.36	59.71
685.686	59.73
686.012	59.73
686.339	59.73
686.664	59.74
686.99	59.75
687.316	59.76
687.642	59.78
687.968	59.8
688.294	59.8
688.619	59.8
688.945	59.81
689.271	59.8
689.596	59.82
689.922	59.84
690.247	59.85
690.573	59.86
690.898	59.85
691.224	59.86
691.549	59.88
691.874	59.9
692.2	59.91
692.525	59.93
692.85	59.94
693.175	59.94
693.5	59.96
693.825	59.97
694.15	60
694.475	60.02
694.8	60.03
695.125	60.04
695.45	60.04
695.775	60.05
696.099	60.09
696.424	60.09
696.749	60.08
697.073	60.09
697.398	60.1
697.723	60.11
698.047	60.12
698.372	60.11
698.696	60.09
699.02	60.12
699.345	60.13
699.669	60.14
699.993	60.14
700.318	60.13
700.642	60.14
700.966	60.14
701.29	60.14
701.614	60.15
701.938	60.16
702.262	60.17
702.586	60.19
702.91	60.18
703.234	60.19
703.557	60.2
703.881	60.22
704.205	60.26
704.529	60.26
704.852	60.25
705.176	60.25
705.499	60.25
705.823	60.27
706.146	60.3
706.47	60.3
706.793	60.31
707.117	60.29
707.44	60.28
707.763	60.29
708.086	60.29
708.409	60.31
708.733	60.33
709.056	60.34
709.379	60.31
709.702	60.34
710.025	60.35
710.348	60.38
710.671	60.4
710.993	60.4
711.316	60.43
711.639	60.45
711.962	60.48
712.284	60.5
712.607	60.5
712.93	60.51
713.252	60.53
713.575	60.56
713.897	60.57
714.22	60.59
714.542	60.59
714.864	60.62
715.187	60.61
715.509	60.63
715.831	60.61
716.153	60.61
716.475	60.62
716.798	60.62
717.12	60.62
717.442	60.63
717.764	60.64
718.085	60.69
718.407	60.7
718.729	60.72
719.051	60.72
719.373	60.7
719.695	60.71
720.016	60.73
720.338	60.75
720.659	60.76
720.981	60.78
721.302	60.79
721.624	60.8
721.945	60.78
722.267	60.8
722.588	60.82
722.909	60.82
723.231	60.81
723.552	60.79
723.873	60.81
724.194	60.82
724.515	60.82
724.836	60.82
725.157	60.82
725.478	60.85
725.799	60.87
726.12	60.87
726.441	60.87
726.762	60.87
727.083	60.87
727.403	60.89
727.724	60.89
728.045	60.89
728.365	60.9
728.686	60.9
729.006	60.96
729.327	61
729.647	61.03
729.967	61.03
730.288	61.04
730.608	61.04
730.928	61.02
731.249	60.99
731.569	61
731.889	61.01
732.209	61.02
732.529	61.05
732.849	61.07
733.169	61.09
733.489	61.09
733.809	61.1
734.129	61.09
734.448	61.11
734.768	61.12
735.088	61.14
735.408	61.13
735.727	61.14
736.047	61.12
736.366	61.18
736.686	61.2
737.005	61.18
737.325	61.2
737.644	61.19
737.963	61.2
738.283	61.2
738.602	61.14
738.921	61.12
739.24	61.14
739.56	61.14
739.879	61.13
740.198	61.14
740.517	61.13
740.836	61.14
741.155	61.12
741.473	61.12
741.792	61.12
742.111	61.05
742.43	61.01
742.748	60.98
743.067	60.99
743.386	61
743.704	60.99
744.023	61.03
744.341	61.02
744.66	61.02
744.978	61.02
745.297	61
745.615	60.95
745.933	60.92
746.252	60.91
746.57	60.91
746.888	60.9
747.206	60.91
747.524	60.86
747.842	60.82
748.16	60.82
748.478	60.83
748.796	60.83
749.114	60.85
749.432	60.8
749.749	60.79
750.067	60.81
750.385	60.81
750.703	60.8
751.02	60.78
751.338	60.78
751.655	60.79
751.973	60.86
752.29	60.81
752.608	60.81
752.925	60.77
753.242	60.8
753.56	60.78
753.877	60.78
754.194	60.77
754.511	60.77
754.828	60.77
755.145	60.81
755.462	60.84
755.779	60.87
756.096	60.88
756.413	60.87
756.73	60.89
757.047	60.88
757.364	60.89
757.68	60.91
757.997	60.92
758.314	60.94
758.63	60.97
758.947	61.02
759.264	61.03
759.58	61.06
759.896	61.1
760.213	61.11
760.529	61.16
760.846	61.21
761.162	61.22
761.478	61.22
761.794	61.2
762.11	61.2
762.426	61.22
762.743	61.2
763.059	61.2
763.375	61.16
763.69	61.22
764.006	61.25
764.322	61.26
764.638	61.27
764.954	61.24
765.27	61.25
765.585	61.27
765.901	61.3
766.216	61.3
766.532	61.26
766.848	61.29
767.163	61.29
767.478	61.3
767.794	61.32
768.109	61.34
768.424	61.34
768.74	61.34
769.055	61.34
769.37	61.32
769.685	61.32
770	61.32
770.315	61.35
770.63	61.34
770.945	61.34
771.26	61.31
771.575	61.31
771.89	61.28
772.205	61.28
772.52	61.28
772.834	61.19
773.149	61.18
773.464	61.12
773.778	61.1
774.093	61.07
774.407	61.06
774.722	61.08
775.036	61.08
775.351	61.13
775.665	61.17
775.979	61.17
776.293	61.18
776.608	61.13
776.922	61.15
777.236	61.14
777.55	61.13
777.864	61.14
778.178	61.15
778.492	61.17
778.806	61.19
779.12	61.15
779.434	61.15
779.747	61.13
780.061	61.14
780.375	61.16
780.689	61.16
781.002	61.14
781.316	61.13
781.629	61.09
781.943	61.1
782.256	61.13
782.57	61.17
782.883	61.2
783.196	61.15
783.51	61.12
783.823	61.11
784.136	61.19
784.449	61.24
784.762	61.21
785.075	61.19
785.388	61.16
785.701	61.18
786.014	61.21
786.327	61.24
786.64	61.22
786.953	61.24
787.266	61.27
787.578	61.27
787.891	61.26
788.204	61.24
788.516	61.21
788.829	61.2
789.141	61.2
789.454	61.23
789.766	61.22
790.079	61.26
790.391	61.28
790.703	61.29
791.016	61.32
791.328	61.35
791.64	61.38
791.952	61.38
792.264	61.44
792.576	61.48
792.888	61.54
793.2	61.5
793.512	61.51
793.824	61.48
794.136	61.46
794.448	61.46
794.76	61.44
795.071	61.45
795.383	61.37
795.695	61.37
796.006	61.38
796.318	61.41
796.629	61.36
796.941	61.3
797.252	61.25
797.564	61.24
797.875	61.16
798.186	61.17
798.497	61.21
798.809	61.22
799.12	61.2
799.431	61.18
799.742	61.15
800.053	61.15
800.364	61.19
800.675	61.19
800.986	61.19
801.297	61.22
801.608	61.22
801.918	61.24
802.229	61.19
802.54	61.16
802.851	61.11
803.161	61.12
803.472	61.09
803.782	61.07
804.093	61.02
804.403	60.96
804.714	61.02
805.024	61
805.334	60.97
805.645	60.89
805.955	60.9
806.265	60.93
806.575	60.93
806.885	60.9
807.195	60.93
807.505	60.95
807.815	60.94
808.125	60.98
808.435	60.95
808.745	60.95
809.055	60.96
809.365	61.02
809.674	61.01
809.984	61.01
810.294	61.06
810.603	61.17
810.913	61.2
811.222	61.18
811.532	61.12
811.841	61.16
812.151	61.22
812.46	61.25
812.769	61.22
813.079	61.15
813.388	61.14
813.697	61.1
814.006	61.1
814.315	61.13
814.624	61.13
814.933	61.2
815.242	61.22
815.551	61.19
815.86	61.23
816.169	61.33
816.478	61.37
816.786	61.46
817.095	61.51
817.404	61.42
817.712	61.51
818.021	61.51
818.33	61.56
818.638	61.57
818.947	61.56
819.255	61.56
819.563	61.57
819.872	61.6
820.18	61.62
820.488	61.66
820.796	61.66
821.105	61.68
821.413	61.7
821.721	61.73
822.029	61.73
822.337	61.74
822.645	61.75
822.953	61.74
823.26	61.75
823.568	61.77
823.876	61.78
824.184	61.8
824.491	61.82
824.799	61.83
825.107	61.82
825.414	61.83
825.722	61.86
826.029	61.89
826.337	61.88
826.644	61.89
826.951	61.88
827.259	61.88
827.566	61.86
827.873	61.87
828.18	61.9
828.488	61.91
828.795	61.89
829.102	61.89
829.409	61.88
829.716	61.89
830.023	61.95
830.329	61.93
830.636	61.95
830.943	61.95
831.25	61.98
831.557	61.99
831.863	62.02
832.17	62.09
832.476	62.09
832.783	62.09
833.089	62.07
833.396	62.11
833.702	62.1
834.009	62.03
834.315	61.99
834.621	62.03
834.928	62.03
835.234	62.08
835.54	62.1
835.846	62.1
836.152	62.08
836.458	62.03
836.764	62.04
837.07	61.99
837.376	61.96
837.682	61.96
837.988	61.93
838.293	61.87
838.599	61.84
838.905	61.85
839.211	61.85
839.516	61.89
839.822	61.89
840.127	61.91
840.433	61.9
840.738	61.9
841.044	61.86
841.349	61.84
841.654	61.8
841.959	61.78
842.265	61.75
842.57	61.68
842.875	61.65
843.18	61.6
843.485	61.57
843.79	61.51
844.095	61.53
844.4	61.55
844.705	61.42
845.01	61.3
845.315	61.25
845.619	61.23
845.924	61.12
846.229	61.09
846.533	61.27
846.838	61.32
847.142	61.24
847.447	61.27
847.751	61.2
848.056	61.15
848.36	61.15
848.664	61.06
848.969	61.27
849.273	61.2
849.577	61.18
849.881	61.18
850.185	61.14
850.489	61.32
850.794	61.3
851.097	61.33
851.401	61.34
851.705	61.28
852.009	61.23
852.313	61.3
852.617	61.34
852.92	61.38
853.224	61.34
853.528	61.34
853.831	61.36
854.135	61.48
854.438	61.38
854.742	61.41
855.045	61.6
855.349	61.68
855.652	61.67
855.955	61.78
856.259	61.79
856.562	61.71
856.865	61.67
857.168	61.62
857.471	61.63
857.774	61.79
858.077	61.57
858.38	61.7
858.683	61.75
858.986	61.66
859.289	61.58
859.592	61.53
859.894	61.6
860.197	61.49
860.5	61.53
860.802	61.58
861.105	61.74
861.407	61.51
861.71	61.46
862.012	61.56
862.315	61.58
862.617	61.61
862.919	61.52
863.222	61.34
863.524	61.32
863.826	61.29
864.128	61.19
864.43	61.32
864.732	61.31
865.034	61.06
865.336	61.13
865.638	61.14
865.94	61.06
866.242	61.03
866.544	61.16
866.846	61.28
867.147	61.06
867.449	60.99
867.751	60.84
868.052	60.92
868.354	60.83
868.655	60.95
868.957	61
869.258	60.88
869.56	61.09
869.861	61.34
870.162	61.16
870.463	61.38
870.765	61.38
871.066	61.29
871.367	61.41
871.668	61.41
871.969	61.53
872.27	61.52
872.571	61.64
872.872	61.6
873.173	61.55
873.473	61.45
873.774	61.53
874.075	61.61
874.376	61.55
874.676	61.55
874.977	61.65
875.277	61.56
875.578	61.83
875.878	61.85
876.179	61.95
876.479	62.11
876.78	61.95
877.08	61.94
877.38	62.23
877.68	61.98
877.981	62
878.281	62.26
878.581	62.36
