Data from UWBM55942_Reflection_00003.txt Node
Date: Sun May 02 14:10:19 EDT 2021
User: vgr7
Spectrometer: USB2G7710
Scans to average: 10
Trigger mode: 4
Integration Time (sec): 1.000000E-1
Electric dark correction enabled: true
Boxcar width: 20
XAxis mode: Wavelengths
Number of Pixels in Spectrum: 2048
>>>>>Begin Spectral Data<<<<<
177.721	-1360
178.105	-116.22
178.488	-298.8
178.871	-770.59
179.254	200
179.636	106.9
180.019	61.33
180.402	61.1
180.785	48.92
181.168	50
181.55	34.5
181.933	34.08
182.316	32.07
182.698	26.67
183.081	21
183.463	18.73
183.846	11.94
184.228	12.59
184.611	13.17
184.993	12.57
185.376	15.28
185.758	18.93
186.14	22.09
186.522	17.84
186.904	21.18
187.287	18.77
187.669	19.6
188.051	19.13
188.433	19.47
188.815	16.84
189.197	16.59
189.579	16.66
189.961	17.17
190.342	16.2
190.724	15.14
191.106	14.73
191.488	16.46
191.869	14.61
192.251	12.02
192.633	10.12
193.014	9.86
193.396	6.25
193.777	7.19
194.159	8.73
194.54	7.01
194.922	7.62
195.303	8.04
195.684	7.19
196.065	5.52
196.447	5.39
196.828	2.94
197.209	4.25
197.59	1.98
197.971	0.48
198.352	2.57
198.733	5.53
199.114	7.02
199.495	9.16
199.876	7.85
200.257	8.64
200.638	6.59
201.018	7.8
201.399	9.86
201.78	7.92
202.16	8.25
202.541	6.99
202.922	6.01
203.302	6.78
203.683	9.37
204.063	9.07
204.444	8.72
204.824	9.23
205.204	7.14
205.585	8.2
205.965	7.28
206.345	8.44
206.725	9.31
207.106	8.68
207.486	9.81
207.866	11.15
208.246	9.88
208.626	9.32
209.006	9.52
209.386	10.41
209.766	10.5
210.145	11.21
210.525	11.31
210.905	11.86
211.285	11.07
211.664	11.94
212.044	11.81
212.424	11.42
212.803	11.42
213.183	11.35
213.562	13.53
213.942	13.8
214.321	11.87
214.701	10.01
215.08	10.4
215.459	10.73
215.838	10.21
216.218	11.44
216.597	8.71
216.976	7.05
217.355	7.37
217.734	7.84
218.113	7.7
218.492	8.08
218.871	7.17
219.25	6.24
219.629	6.85
220.008	6.68
220.387	5.58
220.766	6.97
221.144	5.25
221.523	5.61
221.902	5.41
222.28	4.16
222.659	4.13
223.037	3.3
223.416	3.47
223.794	4.33
224.173	4.25
224.551	3.97
224.929	4.42
225.308	4.16
225.686	3.92
226.064	3.72
226.442	3.67
226.821	4.29
227.199	4.87
227.577	4.67
227.955	5.11
228.333	5
228.711	4.82
229.089	4.15
229.467	3.66
229.845	3.78
230.222	3.86
230.6	3.65
230.978	3.55
231.356	3.56
231.733	3.74
232.111	3.95
232.488	3.78
232.866	3.77
233.243	3.42
233.621	3.63
233.998	3.8
234.376	3.91
234.753	3.64
235.13	3.6
235.508	3.84
235.885	3.92
236.262	3.92
236.639	4.07
237.016	4.16
237.393	4.16
237.77	4.2
238.147	4.14
238.524	4.2
238.901	4.23
239.278	4.25
239.655	4.31
240.032	4.39
240.409	4.38
240.785	4.38
241.162	4.39
241.539	4.31
241.915	4.34
242.292	4.35
242.668	4.29
243.045	4.28
243.421	4.28
243.798	4.29
244.174	4.31
244.551	4.31
244.927	4.29
245.303	4.27
245.679	4.29
246.056	4.28
246.432	4.31
246.808	4.31
247.184	4.34
247.56	4.34
247.936	4.31
248.312	4.3
248.688	4.31
249.064	4.29
249.44	4.25
249.815	4.2
250.191	4.17
250.567	4.21
250.943	4.18
251.318	4.14
251.694	4.13
252.069	4.1
252.445	4.07
252.82	4.05
253.196	4.04
253.571	4.03
253.947	4.02
254.322	3.99
254.697	3.98
255.073	3.94
255.448	3.94
255.823	3.9
256.198	3.88
256.573	3.85
256.948	3.88
257.323	3.85
257.698	3.79
258.073	3.76
258.448	3.75
258.823	3.73
259.198	3.71
259.573	3.7
259.948	3.69
260.322	3.69
260.697	3.68
261.072	3.66
261.446	3.66
261.821	3.64
262.195	3.61
262.57	3.58
262.944	3.58
263.319	3.6
263.693	3.59
264.067	3.59
264.442	3.58
264.816	3.58
265.19	3.59
265.564	3.6
265.938	3.56
266.313	3.57
266.687	3.57
267.061	3.58
267.435	3.58
267.809	3.58
268.183	3.58
268.556	3.58
268.93	3.57
269.304	3.57
269.678	3.58
270.051	3.56
270.425	3.57
270.799	3.54
271.172	3.55
271.546	3.55
271.919	3.55
272.293	3.54
272.666	3.54
273.04	3.56
273.413	3.6
273.787	3.63
274.16	3.64
274.533	3.64
274.906	3.65
275.279	3.65
275.653	3.66
276.026	3.67
276.399	3.7
276.772	3.71
277.145	3.7
277.518	3.72
277.891	3.73
278.263	3.7
278.636	3.71
279.009	3.7
279.382	3.72
279.755	3.71
280.127	3.72
280.5	3.74
280.872	3.75
281.245	3.75
281.617	3.75
281.99	3.76
282.362	3.74
282.735	3.74
283.107	3.74
283.479	3.72
283.852	3.73
284.224	3.73
284.596	3.72
284.968	3.72
285.34	3.73
285.713	3.73
286.085	3.74
286.457	3.73
286.829	3.73
287.201	3.75
287.572	3.76
287.944	3.77
288.316	3.76
288.688	3.74
289.06	3.72
289.431	3.73
289.803	3.74
290.175	3.73
290.546	3.73
290.918	3.74
291.289	3.75
291.661	3.74
292.032	3.72
292.403	3.74
292.775	3.73
293.146	3.74
293.517	3.75
293.889	3.76
294.26	3.77
294.631	3.76
295.002	3.79
295.373	3.79
295.744	3.78
296.115	3.78
296.486	3.8
296.857	3.81
297.228	3.82
297.599	3.84
297.97	3.84
298.34	3.83
298.711	3.84
299.082	3.84
299.452	3.85
299.823	3.85
300.194	3.85
300.564	3.85
300.935	3.85
301.305	3.86
301.676	3.86
302.046	3.88
302.416	3.87
302.787	3.84
303.157	3.84
303.527	3.84
303.897	3.85
304.267	3.86
304.637	3.85
305.008	3.84
305.378	3.85
305.748	3.85
306.117	3.84
306.487	3.84
306.857	3.84
307.227	3.85
307.597	3.84
307.967	3.83
308.336	3.84
308.706	3.84
309.076	3.82
309.445	3.83
309.815	3.82
310.184	3.81
310.554	3.81
310.923	3.82
311.293	3.82
311.662	3.79
312.031	3.78
312.401	3.79
312.77	3.78
313.139	3.78
313.508	3.8
313.877	3.79
314.246	3.8
314.616	3.81
314.985	3.82
315.353	3.83
315.722	3.81
316.091	3.82
316.46	3.8
316.829	3.81
317.198	3.8
317.567	3.8
317.935	3.81
318.304	3.81
318.672	3.8
319.041	3.8
319.41	3.78
319.778	3.78
320.147	3.77
320.515	3.74
320.883	3.74
321.252	3.72
321.62	3.71
321.988	3.7
322.357	3.7
322.725	3.7
323.093	3.7
323.461	3.69
323.829	3.7
324.197	3.71
324.565	3.69
324.933	3.7
325.301	3.69
325.669	3.68
326.037	3.66
326.405	3.66
326.772	3.67
327.14	3.66
327.508	3.64
327.875	3.63
328.243	3.61
328.61	3.6
328.978	3.59
329.346	3.57
329.713	3.56
330.08	3.55
330.448	3.53
330.815	3.52
331.182	3.51
331.55	3.52
331.917	3.51
332.284	3.49
332.651	3.48
333.018	3.49
333.385	3.48
333.752	3.48
334.119	3.48
334.486	3.48
334.853	3.47
335.22	3.48
335.587	3.5
335.954	3.51
336.32	3.52
336.687	3.5
337.054	3.5
337.42	3.51
337.787	3.5
338.153	3.5
338.52	3.49
338.886	3.48
339.253	3.48
339.619	3.48
339.986	3.48
340.352	3.48
340.718	3.48
341.084	3.49
341.451	3.48
341.817	3.48
342.183	3.5
342.549	3.51
342.915	3.51
343.281	3.51
343.647	3.51
344.013	3.52
344.379	3.52
344.745	3.52
345.11	3.51
345.476	3.53
345.842	3.54
346.208	3.54
346.573	3.54
346.939	3.54
347.304	3.55
347.67	3.54
348.035	3.54
348.401	3.55
348.766	3.55
349.132	3.54
349.497	3.54
349.862	3.54
350.228	3.54
350.593	3.52
350.958	3.52
351.323	3.52
351.688	3.53
352.053	3.53
352.418	3.53
352.783	3.53
353.148	3.53
353.513	3.54
353.878	3.54
354.243	3.54
354.608	3.53
354.972	3.54
355.337	3.54
355.702	3.55
356.066	3.54
356.431	3.54
356.795	3.54
357.16	3.53
357.524	3.52
357.889	3.53
358.253	3.54
358.618	3.53
358.982	3.54
359.346	3.54
359.71	3.54
360.075	3.55
360.439	3.53
360.803	3.53
361.167	3.54
361.531	3.54
361.895	3.54
362.259	3.53
362.623	3.52
362.987	3.52
363.351	3.52
363.714	3.52
364.078	3.52
364.442	3.52
364.806	3.53
365.169	3.53
365.533	3.53
365.896	3.53
366.26	3.53
366.623	3.53
366.987	3.53
367.35	3.53
367.714	3.53
368.077	3.53
368.44	3.52
368.803	3.52
369.167	3.52
369.53	3.52
369.893	3.52
370.256	3.52
370.619	3.51
370.982	3.52
371.345	3.52
371.708	3.52
372.071	3.52
372.434	3.52
372.797	3.52
373.159	3.51
373.522	3.52
373.885	3.52
374.247	3.51
374.61	3.51
374.973	3.5
375.335	3.51
375.698	3.51
376.06	3.5
376.423	3.49
376.785	3.5
377.147	3.5
377.51	3.51
377.872	3.51
378.234	3.5
378.596	3.5
378.958	3.49
379.321	3.49
379.683	3.48
380.045	3.48
380.407	3.49
380.769	3.48
381.13	3.48
381.492	3.49
381.854	3.48
382.216	3.48
382.578	3.47
382.939	3.47
383.301	3.47
383.663	3.47
384.024	3.47
384.386	3.47
384.747	3.47
385.109	3.47
385.47	3.47
385.832	3.46
386.193	3.46
386.554	3.46
386.916	3.46
387.277	3.45
387.638	3.46
387.999	3.46
388.36	3.45
388.721	3.45
389.082	3.45
389.443	3.44
389.804	3.44
390.165	3.44
390.526	3.44
390.887	3.44
391.248	3.44
391.609	3.44
391.969	3.44
392.33	3.44
392.691	3.44
393.051	3.44
393.412	3.44
393.772	3.45
394.133	3.45
394.493	3.45
394.854	3.44
395.214	3.44
395.574	3.44
395.935	3.44
396.295	3.44
396.655	3.44
397.015	3.44
397.376	3.44
397.736	3.44
398.096	3.44
398.456	3.44
398.816	3.44
399.176	3.44
399.535	3.44
399.895	3.44
400.255	3.45
400.615	3.44
400.975	3.44
401.334	3.45
401.694	3.45
402.054	3.45
402.413	3.44
402.773	3.44
403.132	3.44
403.492	3.44
403.851	3.45
404.211	3.45
404.57	3.45
404.929	3.45
405.288	3.45
405.648	3.45
406.007	3.45
406.366	3.45
406.725	3.45
407.084	3.45
407.443	3.45
407.802	3.45
408.161	3.45
408.52	3.45
408.879	3.45
409.238	3.45
409.596	3.45
409.955	3.46
410.314	3.45
410.673	3.46
411.031	3.46
411.39	3.47
411.748	3.47
412.107	3.47
412.465	3.48
412.824	3.5
413.182	3.52
413.54	3.54
413.899	3.57
414.257	3.59
414.615	3.63
414.974	3.66
415.332	3.69
415.69	3.73
416.048	3.75
416.406	3.79
416.764	3.82
417.122	3.85
417.48	3.88
417.838	3.91
418.195	3.93
418.553	3.95
418.911	3.96
419.269	3.97
419.626	3.97
419.984	3.97
420.342	3.96
420.699	3.95
421.057	3.94
421.414	3.93
421.772	3.92
422.129	3.91
422.486	3.9
422.844	3.9
423.201	3.9
423.558	3.9
423.915	3.9
424.273	3.9
424.63	3.91
424.987	3.91
425.344	3.91
425.701	3.91
426.058	3.91
426.415	3.91
426.772	3.92
427.128	3.91
427.485	3.9
427.842	3.9
428.199	3.88
428.555	3.87
428.912	3.85
429.269	3.83
429.625	3.81
429.982	3.79
430.338	3.76
430.695	3.74
431.051	3.71
431.407	3.69
431.764	3.68
432.12	3.66
432.476	3.65
432.832	3.64
433.189	3.64
433.545	3.64
433.901	3.65
434.257	3.67
434.613	3.69
434.969	3.71
435.325	3.73
435.681	3.77
436.036	3.79
436.392	3.81
436.748	3.82
437.104	3.83
437.459	3.85
437.815	3.86
438.171	3.88
438.526	3.9
438.882	3.93
439.237	3.96
439.593	3.99
439.948	4.02
440.304	4.06
440.659	4.08
441.014	4.1
441.369	4.12
441.725	4.13
442.08	4.15
442.435	4.17
442.79	4.17
443.145	4.18
443.5	4.18
443.855	4.18
444.21	4.18
444.565	4.18
444.92	4.17
445.275	4.16
445.629	4.16
445.984	4.15
446.339	4.14
446.693	4.13
447.048	4.11
447.403	4.1
447.757	4.08
448.112	4.07
448.466	4.05
448.82	4.03
449.175	4
449.529	3.99
449.883	3.97
450.238	3.95
450.592	3.95
450.946	3.94
451.3	3.94
451.654	3.94
452.008	3.95
452.362	3.95
452.716	3.95
453.07	3.96
453.424	3.95
453.778	3.95
454.132	3.94
454.486	3.93
454.839	3.92
455.193	3.9
455.547	3.89
455.9	3.86
456.254	3.85
456.607	3.82
456.961	3.79
457.314	3.78
457.668	3.77
458.021	3.76
458.375	3.76
458.728	3.76
459.081	3.76
459.434	3.76
459.787	3.77
460.141	3.78
460.494	3.79
460.847	3.79
461.2	3.8
461.553	3.8
461.906	3.81
462.259	3.81
462.611	3.81
462.964	3.82
463.317	3.82
463.67	3.83
464.022	3.83
464.375	3.84
464.728	3.84
465.08	3.84
465.433	3.84
465.785	3.84
466.138	3.82
466.49	3.81
466.843	3.79
467.195	3.77
467.547	3.75
467.899	3.73
468.252	3.7
468.604	3.67
468.956	3.65
469.308	3.64
469.66	3.63
470.012	3.62
470.364	3.63
470.716	3.63
471.068	3.64
471.42	3.66
471.772	3.67
472.123	3.68
472.475	3.69
472.827	3.7
473.178	3.71
473.53	3.72
473.882	3.73
474.233	3.75
474.585	3.78
474.936	3.84
475.288	3.91
475.639	4.02
475.99	4.14
476.342	4.27
476.693	4.41
477.044	4.56
477.395	4.71
477.746	4.87
478.097	5.03
478.448	5.19
478.8	5.34
479.15	5.49
479.501	5.63
479.852	5.75
480.203	5.87
480.554	5.99
480.905	6.09
481.255	6.19
481.606	6.3
481.957	6.39
482.307	6.48
482.658	6.56
483.009	6.64
483.359	6.72
483.709	6.8
484.06	6.87
484.41	6.94
484.761	7.01
485.111	7.08
485.461	7.14
485.811	7.2
486.162	7.26
486.512	7.31
486.862	7.35
487.212	7.37
487.562	7.39
487.912	7.4
488.262	7.4
488.612	7.4
488.961	7.38
489.311	7.34
489.661	7.28
490.011	7.2
490.36	7.1
490.71	6.99
491.06	6.87
491.409	6.75
491.759	6.61
492.108	6.47
492.458	6.32
492.807	6.17
493.157	6.02
493.506	5.88
493.855	5.74
494.204	5.62
494.554	5.49
494.903	5.37
495.252	5.26
495.601	5.15
495.95	5.05
496.299	4.95
496.648	4.85
496.997	4.77
497.346	4.68
497.695	4.6
498.043	4.52
498.392	4.44
498.741	4.37
499.09	4.29
499.438	4.23
499.787	4.16
500.135	4.1
500.484	4.04
500.832	4
501.181	3.96
501.529	3.94
501.878	3.92
502.226	3.91
502.574	3.9
502.923	3.9
503.271	3.9
503.619	3.9
503.967	3.89
504.315	3.89
504.663	3.89
505.011	3.88
505.359	3.88
505.707	3.87
506.055	3.87
506.403	3.87
506.751	3.87
507.098	3.87
507.446	3.87
507.794	3.88
508.141	3.89
508.489	3.9
508.837	3.91
509.184	3.92
509.531	3.93
509.879	3.94
510.226	3.95
510.574	3.96
510.921	3.98
511.268	3.99
511.616	4.01
511.963	4.03
512.31	4.05
512.657	4.07
513.004	4.09
513.351	4.1
513.698	4.11
514.045	4.12
514.392	4.12
514.739	4.12
515.086	4.12
515.432	4.12
515.779	4.12
516.126	4.11
516.473	4.11
516.819	4.11
517.166	4.12
517.512	4.12
517.859	4.14
518.205	4.16
518.552	4.18
518.898	4.2
519.245	4.24
519.591	4.29
519.937	4.36
520.283	4.43
520.629	4.52
520.976	4.62
521.322	4.73
521.668	4.84
522.014	4.95
522.36	5.06
522.706	5.17
523.052	5.27
523.398	5.37
523.743	5.45
524.089	5.53
524.435	5.59
524.781	5.65
525.126	5.71
525.472	5.76
525.817	5.8
526.163	5.85
526.509	5.89
526.854	5.93
527.199	5.97
527.545	6.02
527.89	6.06
528.235	6.11
528.581	6.15
528.926	6.19
529.271	6.22
529.616	6.25
529.961	6.28
530.306	6.32
530.651	6.34
530.996	6.36
531.341	6.37
531.686	6.38
532.031	6.38
532.376	6.38
532.721	6.38
533.065	6.39
533.41	6.4
533.755	6.39
534.099	6.38
534.444	6.36
534.788	6.33
535.133	6.3
535.477	6.26
535.822	6.21
536.166	6.16
536.51	6.1
536.855	6.03
537.199	5.96
537.543	5.89
537.887	5.83
538.231	5.78
538.576	5.73
538.92	5.68
539.264	5.63
539.608	5.57
539.951	5.52
540.295	5.46
540.639	5.4
540.983	5.34
541.327	5.28
541.671	5.22
542.014	5.16
542.358	5.11
542.701	5.07
543.045	5.04
543.389	5.01
543.732	4.99
544.075	4.98
544.419	4.96
544.762	4.95
545.105	4.93
545.449	4.92
545.792	4.91
546.135	4.9
546.478	4.89
546.821	4.87
547.165	4.84
547.508	4.8
547.851	4.76
548.194	4.72
548.536	4.66
548.879	4.6
549.222	4.53
549.565	4.46
549.908	4.4
550.25	4.34
550.593	4.28
550.936	4.24
551.278	4.2
551.621	4.18
551.963	4.15
552.306	4.12
552.648	4.1
552.991	4.09
553.333	4.08
553.675	4.07
554.017	4.06
554.36	4.06
554.702	4.07
555.044	4.07
555.386	4.09
555.728	4.1
556.07	4.11
556.412	4.13
556.754	4.14
557.096	4.14
557.438	4.14
557.78	4.15
558.121	4.15
558.463	4.15
558.805	4.15
559.147	4.16
559.488	4.16
559.83	4.16
560.171	4.17
560.513	4.17
560.854	4.18
561.196	4.18
561.537	4.18
561.878	4.18
562.22	4.18
562.561	4.18
562.902	4.19
563.243	4.19
563.584	4.19
563.925	4.19
564.266	4.19
564.607	4.2
564.948	4.2
565.289	4.2
565.63	4.2
565.971	4.21
566.312	4.21
566.653	4.22
566.993	4.23
567.334	4.23
567.675	4.23
568.015	4.24
568.356	4.24
568.696	4.24
569.037	4.25
569.377	4.25
569.718	4.25
570.058	4.26
570.398	4.26
570.739	4.26
571.079	4.26
571.419	4.26
571.759	4.26
572.099	4.26
572.439	4.26
572.779	4.26
573.119	4.26
573.459	4.26
573.799	4.26
574.139	4.26
574.479	4.26
574.819	4.26
575.158	4.26
575.498	4.26
575.838	4.26
576.177	4.26
576.517	4.26
576.856	4.26
577.196	4.26
577.535	4.26
577.875	4.26
578.214	4.26
578.553	4.26
578.893	4.26
579.232	4.26
579.571	4.26
579.91	4.26
580.25	4.25
580.589	4.25
580.928	4.24
581.267	4.24
581.606	4.24
581.945	4.24
582.283	4.24
582.622	4.24
582.961	4.24
583.3	4.25
583.639	4.25
583.977	4.25
584.316	4.25
584.654	4.25
584.993	4.26
585.332	4.26
585.67	4.26
586.008	4.26
586.347	4.26
586.685	4.27
587.024	4.27
587.362	4.27
587.7	4.28
588.038	4.28
588.376	4.28
588.715	4.28
589.053	4.28
589.391	4.28
589.729	4.28
590.067	4.29
590.404	4.29
590.742	4.3
591.08	4.3
591.418	4.31
591.756	4.31
592.093	4.31
592.431	4.32
592.769	4.32
593.106	4.33
593.444	4.33
593.781	4.33
594.119	4.33
594.456	4.34
594.793	4.34
595.131	4.34
595.468	4.34
595.805	4.34
596.143	4.34
596.48	4.34
596.817	4.35
597.154	4.35
597.491	4.35
597.828	4.35
598.165	4.35
598.502	4.36
598.839	4.36
599.176	4.36
599.512	4.36
599.849	4.37
600.186	4.37
600.523	4.37
600.859	4.37
601.196	4.37
601.532	4.37
601.869	4.37
602.205	4.38
602.542	4.38
602.878	4.38
603.215	4.39
603.551	4.39
603.887	4.39
604.223	4.39
604.56	4.39
604.896	4.39
605.232	4.39
605.568	4.4
605.904	4.4
606.24	4.4
606.576	4.4
606.912	4.4
607.248	4.4
607.583	4.4
607.919	4.4
608.255	4.4
608.591	4.4
608.926	4.41
609.262	4.41
609.597	4.41
609.933	4.41
610.268	4.41
610.604	4.41
610.939	4.41
611.275	4.41
611.61	4.41
611.945	4.41
612.281	4.41
612.616	4.41
612.951	4.41
613.286	4.41
613.621	4.41
613.956	4.41
614.291	4.42
614.626	4.42
614.961	4.42
615.296	4.42
615.631	4.42
615.966	4.42
616.3	4.42
616.635	4.42
616.97	4.43
617.304	4.43
617.639	4.44
617.973	4.44
618.308	4.44
618.642	4.43
618.977	4.43
619.311	4.43
619.646	4.44
619.98	4.44
620.314	4.45
620.648	4.45
620.983	4.45
621.317	4.46
621.651	4.47
621.985	4.47
622.319	4.47
622.653	4.48
622.987	4.48
623.321	4.48
623.655	4.49
623.988	4.49
624.322	4.5
624.656	4.5
624.99	4.51
625.323	4.51
625.657	4.51
625.99	4.51
626.324	4.52
626.657	4.52
626.991	4.52
627.324	4.52
627.658	4.52
627.991	4.51
628.324	4.51
628.657	4.52
628.991	4.53
629.324	4.54
629.657	4.54
629.99	4.54
630.323	4.54
630.656	4.54
630.989	4.54
631.322	4.55
631.655	4.56
631.987	4.56
632.32	4.56
632.653	4.56
632.986	4.57
633.318	4.57
633.651	4.57
633.984	4.57
634.316	4.58
634.649	4.58
634.981	4.58
635.313	4.57
635.646	4.57
635.978	4.57
636.31	4.58
636.643	4.58
636.975	4.59
637.307	4.59
637.639	4.59
637.971	4.58
638.303	4.58
638.635	4.58
638.967	4.58
639.299	4.58
639.631	4.59
639.963	4.6
640.295	4.61
640.626	4.62
640.958	4.63
641.29	4.63
641.621	4.63
641.953	4.63
642.285	4.63
642.616	4.63
642.948	4.63
643.279	4.64
643.61	4.65
643.942	4.65
644.273	4.65
644.604	4.65
644.936	4.65
645.267	4.65
645.598	4.65
645.929	4.65
646.26	4.66
646.591	4.66
646.922	4.66
647.253	4.66
647.584	4.67
647.915	4.67
648.245	4.67
648.576	4.68
648.907	4.69
649.238	4.69
649.568	4.7
649.899	4.69
650.229	4.69
650.56	4.69
650.89	4.69
651.221	4.69
651.551	4.7
651.882	4.7
652.212	4.7
652.542	4.71
652.872	4.71
653.203	4.71
653.533	4.71
653.863	4.71
654.193	4.71
654.523	4.72
654.853	4.72
655.183	4.73
655.513	4.74
655.843	4.74
656.172	4.74
656.502	4.74
656.832	4.75
657.162	4.75
657.491	4.75
657.821	4.76
658.15	4.77
658.48	4.77
658.809	4.78
659.139	4.78
659.468	4.78
659.798	4.79
660.127	4.8
660.456	4.8
660.785	4.8
661.115	4.8
661.444	4.81
661.773	4.83
662.102	4.83
662.431	4.82
662.76	4.82
663.089	4.82
663.418	4.83
663.747	4.84
664.076	4.85
664.404	4.86
664.733	4.86
665.062	4.87
665.39	4.87
665.719	4.89
666.048	4.9
666.376	4.9
666.705	4.91
667.033	4.91
667.362	4.91
667.69	4.91
668.018	4.92
668.347	4.93
668.675	4.92
669.003	4.93
669.331	4.94
669.659	4.95
669.987	4.95
670.315	4.96
670.643	4.96
670.971	4.96
671.299	4.97
671.627	4.96
671.955	4.95
672.283	4.95
672.61	4.96
672.938	4.96
673.266	4.97
673.593	4.97
673.921	4.97
674.249	4.97
674.576	4.97
674.904	4.97
675.231	4.98
675.558	4.98
675.886	5
676.213	5.01
676.54	5.01
676.867	5.01
677.195	5
677.522	5
677.849	5.01
678.176	5.01
678.503	5.01
678.83	5.02
679.157	5.01
679.484	5.01
679.81	5.01
680.137	5.02
680.464	5.02
680.791	5.03
681.117	5.03
681.444	5.04
681.771	5.04
682.097	5.05
682.424	5.04
682.75	5.04
683.077	5.04
683.403	5.05
683.729	5.04
684.056	5.05
684.382	5.05
684.708	5.06
685.034	5.07
685.36	5.08
685.686	5.09
686.012	5.08
686.339	5.08
686.664	5.09
686.99	5.1
687.316	5.1
687.642	5.11
687.968	5.12
688.294	5.12
688.619	5.11
688.945	5.12
689.271	5.12
689.596	5.12
689.922	5.12
690.247	5.14
690.573	5.14
690.898	5.14
691.224	5.16
691.549	5.16
691.874	5.17
692.2	5.17
692.525	5.18
692.85	5.19
693.175	5.21
693.5	5.22
693.825	5.22
694.15	5.22
694.475	5.23
694.8	5.22
695.125	5.24
695.45	5.24
695.775	5.25
696.099	5.25
696.424	5.26
696.749	5.26
697.073	5.27
697.398	5.27
697.723	5.28
698.047	5.28
698.372	5.28
698.696	5.29
699.02	5.29
699.345	5.31
699.669	5.32
699.993	5.33
700.318	5.33
700.642	5.33
700.966	5.33
701.29	5.34
701.614	5.34
701.938	5.35
702.262	5.36
702.586	5.37
702.91	5.37
703.234	5.37
703.557	5.37
703.881	5.39
704.205	5.39
704.529	5.4
704.852	5.41
705.176	5.41
705.499	5.42
705.823	5.43
706.146	5.44
706.47	5.44
706.793	5.44
707.117	5.44
707.44	5.45
707.763	5.46
708.086	5.47
708.409	5.48
708.733	5.49
709.056	5.5
709.379	5.5
709.702	5.52
710.025	5.52
710.348	5.51
710.671	5.51
710.993	5.52
711.316	5.53
711.639	5.54
711.962	5.55
712.284	5.56
712.607	5.56
712.93	5.55
713.252	5.53
713.575	5.55
713.897	5.56
714.22	5.56
714.542	5.55
714.864	5.55
715.187	5.55
715.509	5.54
715.831	5.53
716.153	5.55
716.475	5.56
716.798	5.56
717.12	5.55
717.442	5.56
717.764	5.56
718.085	5.55
718.407	5.55
718.729	5.55
719.051	5.55
719.373	5.55
719.695	5.55
720.016	5.55
720.338	5.57
720.659	5.58
720.981	5.59
721.302	5.59
721.624	5.59
721.945	5.58
722.267	5.58
722.588	5.58
722.909	5.59
723.231	5.61
723.552	5.63
723.873	5.65
724.194	5.65
724.515	5.64
724.836	5.64
725.157	5.65
725.478	5.65
725.799	5.66
726.12	5.68
726.441	5.7
726.762	5.7
727.083	5.7
727.403	5.71
727.724	5.74
728.045	5.77
728.365	5.79
728.686	5.81
729.006	5.84
729.327	5.85
729.647	5.86
729.967	5.87
730.288	5.9
730.608	5.9
730.928	5.92
731.249	5.93
731.569	5.94
731.889	5.96
732.209	5.96
732.529	5.96
732.849	5.97
733.169	5.99
733.489	6.01
733.809	6.01
734.129	6.02
734.448	6.04
734.768	6.07
735.088	6.09
735.408	6.11
735.727	6.13
736.047	6.12
736.366	6.12
736.686	6.11
737.005	6.13
737.325	6.13
737.644	6.13
737.963	6.12
738.283	6.13
738.602	6.14
738.921	6.15
739.24	6.16
739.56	6.15
739.879	6.15
740.198	6.16
740.517	6.18
740.836	6.17
741.155	6.16
741.473	6.15
741.792	6.14
742.111	6.12
742.43	6.11
742.748	6.13
743.067	6.15
743.386	6.16
743.704	6.18
744.023	6.18
744.341	6.16
744.66	6.18
744.978	6.18
745.297	6.2
745.615	6.23
745.933	6.23
746.252	6.22
746.57	6.22
746.888	6.24
747.206	6.24
747.524	6.22
747.842	6.22
748.16	6.21
748.478	6.21
748.796	6.21
749.114	6.22
749.432	6.24
749.749	6.26
750.067	6.27
750.385	6.3
750.703	6.31
751.02	6.34
751.338	6.34
751.655	6.37
751.973	6.39
752.29	6.37
752.608	6.39
752.925	6.38
753.242	6.41
753.56	6.42
753.877	6.43
754.194	6.42
754.511	6.43
754.828	6.45
755.145	6.48
755.462	6.5
755.779	6.51
756.096	6.52
756.413	6.52
756.73	6.53
757.047	6.52
757.364	6.52
757.68	6.53
757.997	6.53
758.314	6.52
758.63	6.53
758.947	6.54
759.264	6.55
759.58	6.54
759.896	6.55
760.213	6.55
760.529	6.55
760.846	6.55
761.162	6.56
761.478	6.58
761.794	6.59
762.11	6.61
762.426	6.61
762.743	6.62
763.059	6.61
763.375	6.61
763.69	6.63
764.006	6.63
764.322	6.64
764.638	6.63
764.954	6.64
765.27	6.67
765.585	6.66
765.901	6.7
766.216	6.69
766.532	6.69
766.848	6.71
767.163	6.74
767.478	6.73
767.794	6.74
768.109	6.73
768.424	6.73
768.74	6.71
769.055	6.72
769.37	6.72
769.685	6.72
770	6.76
770.315	6.79
770.63	6.8
770.945	6.82
771.26	6.84
771.575	6.85
771.89	6.86
772.205	6.87
772.52	6.9
772.834	6.94
773.149	6.98
773.464	7.01
773.778	7
774.093	6.99
774.407	7
774.722	7.01
775.036	6.99
775.351	7.03
775.665	7.03
775.979	7.08
776.293	7.09
776.608	7.12
776.922	7.16
777.236	7.15
777.55	7.18
777.864	7.19
778.178	7.18
778.492	7.2
778.806	7.17
779.12	7.2
779.434	7.25
779.747	7.27
780.061	7.29
780.375	7.32
780.689	7.33
781.002	7.37
781.316	7.39
781.629	7.4
781.943	7.42
782.256	7.43
782.57	7.44
782.883	7.41
783.196	7.41
783.51	7.43
783.823	7.44
784.136	7.43
784.449	7.43
784.762	7.45
785.075	7.44
785.388	7.4
785.701	7.39
786.014	7.42
786.327	7.41
786.64	7.42
786.953	7.5
787.266	7.5
787.578	7.53
787.891	7.57
788.204	7.55
788.516	7.59
788.829	7.58
789.141	7.56
789.454	7.53
789.766	7.57
790.079	7.59
790.391	7.6
790.703	7.6
791.016	7.65
791.328	7.66
791.64	7.71
791.952	7.71
792.264	7.65
792.576	7.63
792.888	7.6
793.2	7.63
793.512	7.69
793.824	7.68
794.136	7.68
794.448	7.69
794.76	7.73
795.071	7.76
795.383	7.78
795.695	7.86
796.006	7.84
796.318	7.81
796.629	7.83
796.941	7.86
797.252	7.91
797.564	7.92
797.875	7.93
798.186	7.99
798.497	7.98
798.809	7.96
799.12	7.95
799.431	8
799.742	7.97
800.053	8.01
800.364	7.99
800.675	7.94
800.986	7.96
801.297	7.96
801.608	7.97
801.918	8.03
802.229	8.01
802.54	8
802.851	8.02
803.161	7.98
803.472	8
803.782	7.99
804.093	8.02
804.403	8.07
804.714	8.09
805.024	8.18
805.334	8.18
805.645	8.22
805.955	8.22
806.265	8.2
806.575	8.21
806.885	8.25
807.195	8.29
807.505	8.28
807.815	8.36
808.125	8.36
808.435	8.32
808.745	8.33
809.055	8.4
809.365	8.36
809.674	8.39
809.984	8.4
810.294	8.42
810.603	8.44
810.913	8.42
811.222	8.45
811.532	8.44
811.841	8.47
812.151	8.48
812.46	8.54
812.769	8.47
813.079	8.53
813.388	8.6
813.697	8.56
814.006	8.62
814.315	8.57
814.624	8.58
814.933	8.63
815.242	8.65
815.551	8.63
815.86	8.67
816.169	8.63
816.478	8.64
816.786	8.64
817.095	8.59
817.404	8.54
817.712	8.49
818.021	8.52
818.33	8.5
818.638	8.52
818.947	8.51
819.255	8.52
819.563	8.5
819.872	8.51
820.18	8.51
820.488	8.47
820.796	8.48
821.105	8.49
821.413	8.51
821.721	8.53
822.029	8.54
822.337	8.54
822.645	8.52
822.953	8.52
823.26	8.52
823.568	8.55
823.876	8.54
824.184	8.54
824.491	8.55
824.799	8.56
825.107	8.55
825.414	8.57
825.722	8.55
826.029	8.57
826.337	8.59
826.644	8.59
826.951	8.61
827.259	8.62
827.566	8.62
827.873	8.61
828.18	8.63
828.488	8.63
828.795	8.64
829.102	8.63
829.409	8.63
829.716	8.64
830.023	8.67
830.329	8.69
830.636	8.69
830.943	8.72
831.25	8.73
831.557	8.76
831.863	8.79
832.17	8.83
832.476	8.83
832.783	8.83
833.089	8.85
833.396	8.84
833.702	8.82
834.009	8.83
834.315	8.84
834.621	8.88
834.928	8.89
835.234	8.93
835.54	8.94
835.846	8.96
836.152	8.94
836.458	8.98
836.764	9.04
837.07	9.04
837.376	9.01
837.682	8.98
837.988	8.97
838.293	9.03
838.599	8.99
838.905	9.01
839.211	9.02
839.516	9
839.822	8.99
840.127	9.01
840.433	9.08
840.738	9.06
841.044	9.08
841.349	9.07
841.654	9.07
841.959	9.1
842.265	9.16
842.57	9.19
842.875	9.22
843.18	9.22
843.485	9.2
843.79	9.24
844.095	9.25
844.4	9.26
844.705	9.31
845.01	9.34
845.315	9.3
845.619	9.28
845.924	9.39
846.229	9.51
846.533	9.54
846.838	9.63
847.142	9.61
847.447	9.71
847.751	9.72
848.056	9.68
848.36	9.7
848.664	9.84
848.969	9.92
849.273	9.87
849.577	9.89
849.881	10.04
850.185	10.17
850.489	10.17
850.794	10.21
851.097	10.3
851.401	10.35
851.705	10.28
852.009	10.34
852.313	10.44
852.617	10.4
852.92	10.42
853.224	10.61
853.528	10.65
853.831	10.67
854.135	10.83
854.438	10.82
854.742	10.87
855.045	10.85
855.349	10.94
855.652	11.08
855.955	11.23
856.259	11.32
856.562	11.35
856.865	11.43
857.168	11.49
857.471	11.54
857.774	11.83
858.077	11.79
858.38	11.82
858.683	11.83
858.986	11.85
859.289	11.69
859.592	11.8
859.894	11.94
860.197	11.99
860.5	12.13
860.802	12.18
861.105	12.03
861.407	12
861.71	11.97
862.012	11.93
862.315	11.92
862.617	11.97
862.919	12.24
863.222	12.16
863.524	12.11
863.826	12.11
864.128	12.03
864.43	12.12
864.732	12.06
865.034	12.05
865.336	11.96
865.638	11.89
865.94	11.89
866.242	12.02
866.544	12.16
866.846	12.19
867.147	12.03
867.449	12.04
867.751	11.95
868.052	11.93
868.354	11.9
868.655	11.76
868.957	11.73
869.258	11.65
869.56	11.66
869.861	11.7
870.162	11.66
870.463	11.93
870.765	11.95
871.066	12.06
871.367	11.9
871.668	12.01
871.969	12.03
872.27	11.83
872.571	11.77
872.872	11.77
873.173	11.84
873.473	11.9
873.774	11.88
874.075	11.99
874.376	12.14
874.676	12.07
874.977	12.15
875.277	12.05
875.578	12.07
875.878	12.18
876.179	12.14
876.479	12.31
876.78	12.25
877.08	12.28
877.38	12.32
877.68	12.45
877.981	12.34
878.281	12.46
878.581	12.45
