Data from UWBM12228_Reflection_00011.txt Node
Date: Sun May 02 12:54:23 EDT 2021
User: vgr7
Spectrometer: USB2G7710
Scans to average: 10
Trigger mode: 4
Integration Time (sec): 1.000000E-1
Electric dark correction enabled: true
Boxcar width: 20
XAxis mode: Wavelengths
Number of Pixels in Spectrum: 2048
>>>>>Begin Spectral Data<<<<<
177.721	99.95
178.105	99.66
178.488	98.81
178.871	99.13
179.254	98.68
179.636	96.56
180.019	95.5
180.402	94.18
180.785	92.41
181.168	90.88
181.55	88.37
181.933	111.73
182.316	112.22
182.698	113.42
183.081	114.23
183.463	115.79
183.846	118.41
184.228	120.61
184.611	120.22
184.993	122.95
185.376	125.24
185.758	-77.98
186.14	-30.09
186.522	-3.69
186.904	8.14
187.287	18.41
187.669	21.43
188.051	24.94
188.433	32.58
188.815	25.81
189.197	26.83
189.579	27.47
189.961	27.23
190.342	24.35
190.724	25.54
191.106	24.77
191.488	24.04
191.869	18.89
192.251	18.54
192.633	17.32
193.014	13.78
193.396	14.35
193.777	21.24
194.159	22.18
194.54	19.68
194.922	20.32
195.303	23.08
195.684	23.34
196.065	23.72
196.447	22.43
196.828	21.38
197.209	21.81
197.59	14.95
197.971	13.85
198.352	14.53
198.733	15.34
199.114	14.71
199.495	14.97
199.876	15.58
200.257	12.55
200.638	12.37
201.018	6.58
201.399	6.24
201.78	4.75
202.16	4.59
202.541	5.65
202.922	5.07
203.302	2.81
203.683	2.48
204.063	1.3
204.444	5.3
204.824	7.42
205.204	9.06
205.585	16.92
205.965	16.78
206.345	17.29
206.725	14.23
207.106	15.23
207.486	16.51
207.866	16.9
208.246	15.65
208.626	17.3
209.006	21.99
209.386	16.81
209.766	16.39
210.145	15.88
210.525	14.31
210.905	14.51
211.285	15.37
211.664	13.36
212.044	14.87
212.424	13.48
212.803	8.82
213.183	10.51
213.562	10.87
213.942	10.23
214.321	8.7
214.701	7.73
215.08	9.23
215.459	10.17
215.838	10.73
216.218	10.89
216.597	10.48
216.976	6.87
217.355	7.31
217.734	7.74
218.113	7.8
218.492	8.17
218.871	9.1
219.25	8.44
219.629	7.77
220.008	6.82
220.387	6.7
220.766	6.64
221.144	5.76
221.523	7.71
221.902	8.06
222.28	7.53
222.659	8.7
223.037	8.39
223.416	8.49
223.794	9.46
224.173	8.72
224.551	8.59
224.929	8.99
225.308	9.62
225.686	9.36
226.064	9.39
226.442	9.32
226.821	8.87
227.199	8.59
227.577	7.57
227.955	7.35
228.333	7.28
228.711	6.92
229.089	7.3
229.467	6.4
229.845	7.07
230.222	7.23
230.6	7.5
230.978	7.37
231.356	6.71
231.733	6.81
232.111	7.01
232.488	6.91
232.866	6.8
233.243	6.37
233.621	6.26
233.998	5.95
234.376	5.93
234.753	6.01
235.13	5.97
235.508	6.47
235.885	6.44
236.262	6.42
236.639	6.47
237.016	6.26
237.393	6.16
237.77	6.06
238.147	5.94
238.524	5.91
238.901	5.84
239.278	5.77
239.655	5.79
240.032	5.61
240.409	5.53
240.785	5.41
241.162	5.43
241.539	5.35
241.915	5.32
242.292	5.26
242.668	5.21
243.045	5.19
243.421	5.11
243.798	5.06
244.174	5.05
244.551	4.99
244.927	4.85
245.303	4.79
245.679	4.82
246.056	4.78
246.432	4.76
246.808	4.56
247.184	4.53
247.56	4.47
247.936	4.47
248.312	4.46
248.688	4.55
249.064	4.5
249.44	4.5
249.815	4.49
250.191	4.44
250.567	4.4
250.943	4.44
251.318	4.44
251.694	4.39
252.069	4.3
252.445	4.29
252.82	4.37
253.196	4.37
253.571	4.31
253.947	4.37
254.322	4.33
254.697	4.45
255.073	4.43
255.448	4.4
255.823	4.4
256.198	4.37
256.573	4.19
256.948	4.19
257.323	4.19
257.698	4.14
258.073	4.15
258.448	4.02
258.823	4.01
259.198	4.01
259.573	4.02
259.948	4.04
260.322	4.01
260.697	4.01
261.072	3.97
261.446	3.93
261.821	3.88
262.195	3.84
262.57	3.81
262.944	3.8
263.319	3.79
263.693	3.82
264.067	3.81
264.442	3.93
264.816	3.91
265.19	3.88
265.564	3.92
265.938	3.91
266.313	3.95
266.687	3.9
267.061	3.89
267.435	3.89
267.809	3.87
268.183	3.86
268.556	3.88
268.93	3.88
269.304	3.85
269.678	3.81
270.051	3.79
270.425	3.76
270.799	3.77
271.172	3.77
271.546	3.76
271.919	3.78
272.293	3.76
272.666	3.76
273.04	3.77
273.413	3.71
273.787	3.71
274.16	3.71
274.533	3.73
274.906	3.71
275.279	3.73
275.653	3.71
276.026	3.69
276.399	3.66
276.772	3.67
277.145	3.7
277.518	3.72
277.891	3.74
278.263	3.75
278.636	3.76
279.009	3.77
279.382	3.75
279.755	3.68
280.127	3.68
280.5	3.69
280.872	3.67
281.245	3.77
281.617	3.79
281.99	3.81
282.362	3.83
282.735	3.81
283.107	3.81
283.479	3.8
283.852	3.81
284.224	3.83
284.596	3.81
284.968	3.7
285.34	3.7
285.713	3.68
286.085	3.63
286.457	3.63
286.829	3.61
287.201	3.6
287.572	3.65
287.944	3.66
288.316	3.7
288.688	3.73
289.06	3.72
289.431	3.73
289.803	3.73
290.175	3.74
290.546	3.75
290.918	3.77
291.289	3.73
291.661	3.77
292.032	3.73
292.403	3.76
292.775	3.85
293.146	3.85
293.517	3.89
293.889	3.95
294.26	3.95
294.631	3.97
295.002	4.02
295.373	4.06
295.744	4.06
296.115	4.06
296.486	4.02
296.857	4.01
297.228	4.03
297.599	4.04
297.97	4.06
298.34	4.09
298.711	4.06
299.082	4.08
299.452	4.12
299.823	4.17
300.194	4.2
300.564	4.22
300.935	4.25
301.305	4.26
301.676	4.26
302.046	4.28
302.416	4.31
302.787	4.34
303.157	4.3
303.527	4.32
303.897	4.35
304.267	4.4
304.637	4.43
305.008	4.48
305.378	4.52
305.748	4.55
306.117	4.63
306.487	4.73
306.857	4.8
307.227	4.83
307.597	4.85
307.967	4.88
308.336	4.92
308.706	4.96
309.076	5
309.445	5.03
309.815	4.95
310.184	4.98
310.554	4.95
310.923	5.03
311.293	5.09
311.662	5.13
312.031	5.15
312.401	5.18
312.77	5.18
313.139	5.2
313.508	5.26
313.877	5.24
314.246	5.26
314.616	5.27
314.985	5.26
315.353	5.3
315.722	5.34
316.091	5.38
316.46	5.41
316.829	5.48
317.198	5.52
317.567	5.69
317.935	5.74
318.304	5.82
318.672	5.88
319.041	5.94
319.41	5.99
319.778	6.07
320.147	6.13
320.515	6.16
320.883	6.18
321.252	6.18
321.62	6.26
321.988	6.3
322.357	6.35
322.725	6.46
323.093	6.5
323.461	6.53
323.829	6.56
324.197	6.57
324.565	6.59
324.933	6.64
325.301	6.66
325.669	6.71
326.037	6.75
326.405	6.74
326.772	6.75
327.14	6.79
327.508	6.8
327.875	6.84
328.243	6.88
328.61	6.87
328.978	6.9
329.346	6.93
329.713	6.93
330.08	6.96
330.448	6.98
330.815	6.98
331.182	7
331.55	7.03
331.917	7.07
332.284	7.1
332.651	7.13
333.018	7.15
333.385	7.18
333.752	7.23
334.119	7.26
334.486	7.3
334.853	7.29
335.22	7.31
335.587	7.33
335.954	7.37
336.32	7.42
336.687	7.43
337.054	7.44
337.42	7.46
337.787	7.47
338.153	7.51
338.52	7.57
338.886	7.62
339.253	7.63
339.619	7.64
339.986	7.63
340.352	7.64
340.718	7.67
341.084	7.68
341.451	7.69
341.817	7.69
342.183	7.68
342.549	7.72
342.915	7.72
343.281	7.74
343.647	7.76
344.013	7.79
344.379	7.83
344.745	7.84
345.11	7.84
345.476	7.87
345.842	7.9
346.208	7.87
346.573	7.89
346.939	7.91
347.304	7.91
347.67	7.91
348.035	7.93
348.401	7.91
348.766	7.93
349.132	7.93
349.497	7.94
349.862	7.95
350.228	7.97
350.593	7.98
350.958	7.96
351.323	7.94
351.688	7.96
352.053	7.95
352.418	7.96
352.783	7.95
353.148	7.93
353.513	7.91
353.878	7.9
354.243	7.89
354.608	7.88
354.972	7.88
355.337	7.87
355.702	7.84
356.066	7.83
356.431	7.8
356.795	7.79
357.16	7.76
357.524	7.75
357.889	7.73
358.253	7.72
358.618	7.71
358.982	7.72
359.346	7.7
359.71	7.69
360.075	7.68
360.439	7.67
360.803	7.63
361.167	7.62
361.531	7.61
361.895	7.59
362.259	7.58
362.623	7.57
362.987	7.54
363.351	7.53
363.714	7.51
364.078	7.49
364.442	7.48
364.806	7.46
365.169	7.42
365.533	7.39
365.896	7.36
366.26	7.34
366.623	7.3
366.987	7.27
367.35	7.25
367.714	7.23
368.077	7.2
368.44	7.17
368.803	7.15
369.167	7.12
369.53	7.09
369.893	7.06
370.256	7.03
370.619	7
370.982	6.96
371.345	6.93
371.708	6.9
372.071	6.86
372.434	6.83
372.797	6.81
373.159	6.79
373.522	6.76
373.885	6.71
374.247	6.65
374.61	6.61
374.973	6.56
375.335	6.52
375.698	6.48
376.06	6.44
376.423	6.39
376.785	6.36
377.147	6.31
377.51	6.28
377.872	6.24
378.234	6.2
378.596	6.18
378.958	6.15
379.321	6.11
379.683	6.08
380.045	6.04
380.407	6.01
380.769	5.97
381.13	5.94
381.492	5.91
381.854	5.88
382.216	5.85
382.578	5.81
382.939	5.79
383.301	5.75
383.663	5.72
384.024	5.69
384.386	5.66
384.747	5.63
385.109	5.59
385.47	5.56
385.832	5.54
386.193	5.5
386.554	5.47
386.916	5.45
387.277	5.42
387.638	5.4
387.999	5.37
388.36	5.35
388.721	5.32
389.082	5.3
389.443	5.28
389.804	5.26
390.165	5.24
390.526	5.22
390.887	5.2
391.248	5.17
391.609	5.16
391.969	5.14
392.33	5.13
392.691	5.11
393.051	5.09
393.412	5.06
393.772	5.04
394.133	5.02
394.493	4.99
394.854	4.97
395.214	4.95
395.574	4.92
395.935	4.89
396.295	4.87
396.655	4.85
397.015	4.83
397.376	4.79
397.736	4.78
398.096	4.75
398.456	4.73
398.816	4.73
399.176	4.69
399.535	4.68
399.895	4.66
400.255	4.65
400.615	4.63
400.975	4.61
401.334	4.59
401.694	4.57
402.054	4.56
402.413	4.52
402.773	4.51
403.132	4.5
403.492	4.48
403.851	4.46
404.211	4.46
404.57	4.45
404.929	4.45
405.288	4.43
405.648	4.43
406.007	4.42
406.366	4.41
406.725	4.4
407.084	4.39
407.443	4.38
407.802	4.36
408.161	4.35
408.52	4.33
408.879	4.32
409.238	4.32
409.596	4.3
409.955	4.31
410.314	4.3
410.673	4.29
411.031	4.29
411.39	4.28
411.748	4.28
412.107	4.28
412.465	4.28
412.824	4.29
413.182	4.3
413.54	4.31
413.899	4.32
414.257	4.34
414.615	4.37
414.974	4.39
415.332	4.42
415.69	4.45
416.048	4.47
416.406	4.51
416.764	4.53
417.122	4.55
417.48	4.58
417.838	4.6
418.195	4.61
418.553	4.63
418.911	4.63
419.269	4.63
419.626	4.62
419.984	4.61
420.342	4.58
420.699	4.56
421.057	4.54
421.414	4.52
421.772	4.51
422.129	4.49
422.486	4.49
422.844	4.48
423.201	4.48
423.558	4.47
423.915	4.46
424.273	4.46
424.63	4.45
424.987	4.44
425.344	4.44
425.701	4.44
426.058	4.43
426.415	4.43
426.772	4.42
427.128	4.41
427.485	4.4
427.842	4.39
428.199	4.37
428.555	4.35
428.912	4.33
429.269	4.3
429.625	4.28
429.982	4.25
430.338	4.22
430.695	4.2
431.051	4.16
431.407	4.14
431.764	4.12
432.12	4.09
432.476	4.08
432.832	4.07
433.189	4.07
433.545	4.07
433.901	4.08
434.257	4.1
434.613	4.12
434.969	4.15
435.325	4.17
435.681	4.21
436.036	4.22
436.392	4.23
436.748	4.24
437.104	4.24
437.459	4.26
437.815	4.27
438.171	4.29
438.526	4.31
438.882	4.34
439.237	4.37
439.593	4.4
439.948	4.43
440.304	4.46
440.659	4.48
441.014	4.49
441.369	4.52
441.725	4.53
442.08	4.55
442.435	4.55
442.79	4.56
443.145	4.56
443.5	4.56
443.855	4.55
444.21	4.55
444.565	4.55
444.92	4.54
445.275	4.53
445.629	4.52
445.984	4.51
446.339	4.5
446.693	4.5
447.048	4.48
447.403	4.47
447.757	4.44
448.112	4.42
448.466	4.4
448.82	4.38
449.175	4.36
449.529	4.35
449.883	4.33
450.238	4.3
450.592	4.3
450.946	4.29
451.3	4.29
451.654	4.3
452.008	4.29
452.362	4.3
452.716	4.3
453.07	4.29
453.424	4.28
453.778	4.28
454.132	4.26
454.486	4.25
454.839	4.23
455.193	4.21
455.547	4.2
455.9	4.17
456.254	4.15
456.607	4.12
456.961	4.09
457.314	4.08
457.668	4.07
458.021	4.07
458.375	4.06
458.728	4.07
459.081	4.07
459.434	4.08
459.787	4.09
460.141	4.09
460.494	4.1
460.847	4.1
461.2	4.11
461.553	4.12
461.906	4.13
462.259	4.13
462.611	4.14
462.964	4.14
463.317	4.15
463.67	4.15
464.022	4.15
464.375	4.16
464.728	4.16
465.08	4.16
465.433	4.16
465.785	4.16
466.138	4.15
466.49	4.14
466.843	4.13
467.195	4.12
467.547	4.1
467.899	4.09
468.252	4.06
468.604	4.04
468.956	4.03
469.308	4.02
469.66	4.02
470.012	4.01
470.364	4.02
470.716	4.03
471.068	4.05
471.42	4.08
471.772	4.1
472.123	4.11
472.475	4.12
472.827	4.13
473.178	4.14
473.53	4.15
473.882	4.16
474.233	4.19
474.585	4.23
474.936	4.29
475.288	4.37
475.639	4.49
475.99	4.62
476.342	4.77
476.693	4.93
477.044	5.09
477.395	5.26
477.746	5.43
478.097	5.6
478.448	5.77
478.8	5.94
479.15	6.09
479.501	6.24
479.852	6.37
480.203	6.48
480.554	6.6
480.905	6.72
481.255	6.83
481.606	6.93
481.957	7.02
482.307	7.11
482.658	7.2
483.009	7.28
483.359	7.36
483.709	7.43
484.06	7.5
484.41	7.58
484.761	7.64
485.111	7.71
485.461	7.77
485.811	7.83
486.162	7.89
486.512	7.93
486.862	7.97
487.212	8
487.562	8.02
487.912	8.03
488.262	8.03
488.612	8.03
488.961	8.01
489.311	7.97
489.661	7.9
490.011	7.82
490.36	7.71
490.71	7.59
491.06	7.46
491.409	7.32
491.759	7.18
492.108	7.03
492.458	6.88
492.807	6.72
493.157	6.56
493.506	6.41
493.855	6.26
494.204	6.13
494.554	6.01
494.903	5.89
495.252	5.78
495.601	5.67
495.95	5.57
496.299	5.48
496.648	5.39
496.997	5.31
497.346	5.24
497.695	5.16
498.043	5.1
498.392	5.03
498.741	4.97
499.09	4.91
499.438	4.85
499.787	4.8
500.135	4.76
500.484	4.72
500.832	4.7
501.181	4.68
501.529	4.67
501.878	4.68
502.226	4.7
502.574	4.72
502.923	4.75
503.271	4.78
503.619	4.81
503.967	4.85
504.315	4.89
504.663	4.92
505.011	4.96
505.359	4.99
505.707	5.03
506.055	5.07
506.403	5.12
506.751	5.17
507.098	5.22
507.446	5.28
507.794	5.34
508.141	5.41
508.489	5.49
508.837	5.56
509.184	5.63
509.531	5.71
509.879	5.79
510.226	5.88
510.574	5.96
510.921	6.06
511.268	6.15
511.616	6.25
511.963	6.36
512.31	6.47
512.657	6.58
513.004	6.68
513.351	6.79
513.698	6.88
514.045	6.98
514.392	7.08
514.739	7.16
515.086	7.25
515.432	7.34
515.779	7.43
516.126	7.53
516.473	7.64
516.819	7.75
517.166	7.88
517.512	8.02
517.859	8.16
518.205	8.32
518.552	8.49
518.898	8.69
519.245	8.91
519.591	9.17
519.937	9.48
520.283	9.85
520.629	10.25
520.976	10.68
521.322	11.12
521.668	11.57
522.014	12.01
522.36	12.47
522.706	12.91
523.052	13.35
523.398	13.77
523.743	14.16
524.089	14.53
524.435	14.87
524.781	15.22
525.126	15.55
525.472	15.89
525.817	16.23
526.163	16.56
526.509	16.88
526.854	17.2
527.199	17.52
527.545	17.85
527.89	18.19
528.235	18.51
528.581	18.83
528.926	19.13
529.271	19.43
529.616	19.71
529.961	19.96
530.306	20.19
530.651	20.43
530.996	20.65
531.341	20.86
531.686	21.07
532.031	21.26
532.376	21.48
532.721	21.71
533.065	21.97
533.41	22.25
533.755	22.51
534.099	22.73
534.444	22.95
534.788	23.15
535.133	23.35
535.477	23.53
535.822	23.69
536.166	23.82
536.51	23.91
536.855	23.97
537.199	24.01
537.543	24.05
537.887	24.1
538.231	24.17
538.576	24.24
538.92	24.3
539.264	24.36
539.608	24.4
539.951	24.43
540.295	24.45
540.639	24.47
540.983	24.47
541.327	24.48
541.671	24.49
542.014	24.5
542.358	24.53
542.701	24.61
543.045	24.72
543.389	24.85
543.732	24.99
544.075	25.16
544.419	25.35
544.762	25.52
545.105	25.72
545.449	25.93
545.792	26.15
546.135	26.37
546.478	26.56
546.821	26.71
547.165	26.82
547.508	26.89
547.851	26.93
548.194	26.93
548.536	26.91
548.879	26.86
549.222	26.8
549.565	26.73
549.908	26.67
550.25	26.63
550.593	26.63
550.936	26.68
551.278	26.78
551.621	26.9
551.963	27.04
552.306	27.21
552.648	27.41
552.991	27.62
553.333	27.84
553.675	28.1
554.017	28.39
554.36	28.69
554.702	29.03
555.044	29.38
555.386	29.78
555.728	30.15
556.07	30.5
556.412	30.85
556.754	31.11
557.096	31.39
557.438	31.65
557.78	31.92
558.121	32.18
558.463	32.44
558.805	32.7
559.147	32.96
559.488	33.23
559.83	33.49
560.171	33.76
560.513	34.02
560.854	34.27
561.196	34.52
561.537	34.77
561.878	35.01
562.22	35.24
562.561	35.47
562.902	35.71
563.243	35.94
563.584	36.16
563.925	36.4
564.266	36.63
564.607	36.85
564.948	37.07
565.289	37.29
565.63	37.5
565.971	37.72
566.312	37.91
566.653	38.11
566.993	38.3
567.334	38.51
567.675	38.7
568.015	38.89
568.356	39.08
568.696	39.26
569.037	39.43
569.377	39.6
569.718	39.77
570.058	39.92
570.398	40.08
570.739	40.22
571.079	40.36
571.419	40.49
571.759	40.64
572.099	40.77
572.439	40.9
572.779	41.05
573.119	41.18
573.459	41.29
573.799	41.42
574.139	41.54
574.479	41.67
574.819	41.78
575.158	41.9
575.498	42.01
575.838	42.14
576.177	42.25
576.517	42.36
576.856	42.48
577.196	42.59
577.535	42.7
577.875	42.8
578.214	42.9
578.553	43.01
578.893	43.1
579.232	43.2
579.571	43.31
579.91	43.41
580.25	43.51
580.589	43.61
580.928	43.71
581.267	43.8
581.606	43.9
581.945	44
582.283	44.09
582.622	44.18
582.961	44.29
583.3	44.39
583.639	44.5
583.977	44.61
584.316	44.7
584.654	44.81
584.993	44.91
585.332	45.01
585.67	45.11
586.008	45.2
586.347	45.31
586.685	45.4
587.024	45.49
587.362	45.59
587.7	45.7
588.038	45.8
588.376	45.9
588.715	46.01
589.053	46.11
589.391	46.21
589.729	46.3
590.067	46.4
590.404	46.5
590.742	46.59
591.08	46.68
591.418	46.78
591.756	46.87
592.093	46.96
592.431	47.04
592.769	47.13
593.106	47.21
593.444	47.28
593.781	47.35
594.119	47.41
594.456	47.48
594.793	47.55
595.131	47.61
595.468	47.68
595.805	47.74
596.143	47.83
596.48	47.91
596.817	47.99
597.154	48.06
597.491	48.14
597.828	48.23
598.165	48.32
598.502	48.39
598.839	48.46
599.176	48.53
599.512	48.6
599.849	48.65
600.186	48.72
600.523	48.78
600.859	48.84
601.196	48.88
601.532	48.94
601.869	48.99
602.205	49.04
602.542	49.1
602.878	49.15
603.215	49.2
603.551	49.25
603.887	49.29
604.223	49.33
604.56	49.37
604.896	49.42
605.232	49.45
605.568	49.5
605.904	49.54
606.24	49.57
606.576	49.6
606.912	49.62
607.248	49.66
607.583	49.7
607.919	49.75
608.255	49.79
608.591	49.83
608.926	49.87
609.262	49.91
609.597	49.94
609.933	49.98
610.268	50.02
610.604	50.05
610.939	50.08
611.275	50.09
611.61	50.11
611.945	50.13
612.281	50.15
612.616	50.18
612.951	50.2
613.286	50.21
613.621	50.24
613.956	50.26
614.291	50.29
614.626	50.32
614.961	50.36
615.296	50.38
615.631	50.42
615.966	50.45
616.3	50.45
616.635	50.48
616.97	50.48
617.304	50.51
617.639	50.54
617.973	50.57
618.308	50.6
618.642	50.62
618.977	50.65
619.311	50.68
619.646	50.71
619.98	50.77
620.314	50.8
620.648	50.86
620.983	50.9
621.317	50.93
621.651	50.96
621.985	50.99
622.319	51.02
622.653	51.06
622.987	51.09
623.321	51.12
623.655	51.15
623.988	51.18
624.322	51.2
624.656	51.23
624.99	51.25
625.323	51.28
625.657	51.3
625.99	51.32
626.324	51.34
626.657	51.37
626.991	51.4
627.324	51.42
627.658	51.45
627.991	51.47
628.324	51.49
628.657	51.52
628.991	51.55
629.324	51.58
629.657	51.61
629.99	51.64
630.323	51.67
630.656	51.72
630.989	51.74
631.322	51.76
631.655	51.78
631.987	51.8
632.32	51.83
632.653	51.85
632.986	51.87
633.318	51.89
633.651	51.9
633.984	51.91
634.316	51.94
634.649	51.96
634.981	51.99
635.313	52.01
635.646	52.02
635.978	52.03
636.31	52.05
636.643	52.06
636.975	52.07
637.307	52.08
637.639	52.1
637.971	52.13
638.303	52.16
638.635	52.19
638.967	52.22
639.299	52.25
639.631	52.27
639.963	52.3
640.295	52.31
640.626	52.34
640.958	52.38
641.29	52.41
641.621	52.42
641.953	52.45
642.285	52.48
642.616	52.5
642.948	52.5
643.279	52.53
643.61	52.55
643.942	52.56
644.273	52.57
644.604	52.6
644.936	52.64
645.267	52.66
645.598	52.68
645.929	52.71
646.26	52.72
646.591	52.74
646.922	52.76
647.253	52.79
647.584	52.82
647.915	52.83
648.245	52.84
648.576	52.86
648.907	52.87
649.238	52.9
649.568	52.92
649.899	52.93
650.229	52.96
650.56	52.99
650.89	53.02
651.221	53.04
651.551	53.05
651.882	53.07
652.212	53.09
652.542	53.1
652.872	53.14
653.203	53.16
653.533	53.19
653.863	53.2
654.193	53.21
654.523	53.22
654.853	53.23
655.183	53.26
655.513	53.29
655.843	53.3
656.172	53.31
656.502	53.34
656.832	53.35
657.162	53.36
657.491	53.37
657.821	53.4
658.15	53.43
658.48	53.44
658.809	53.46
659.139	53.48
659.468	53.49
659.798	53.51
660.127	53.54
660.456	53.58
660.785	53.6
661.115	53.61
661.444	53.64
661.773	53.67
662.102	53.67
662.431	53.7
662.76	53.72
663.089	53.72
663.418	53.75
663.747	53.77
664.076	53.79
664.404	53.8
664.733	53.82
665.062	53.85
665.39	53.88
665.719	53.89
666.048	53.91
666.376	53.91
666.705	53.94
667.033	53.95
667.362	53.96
667.69	53.99
668.018	54.01
668.347	54.02
668.675	54.02
669.003	54.02
669.331	54.03
669.659	54.03
669.987	54.06
670.315	54.06
670.643	54.1
670.971	54.12
671.299	54.11
671.627	54.09
671.955	54.08
672.283	54.1
672.61	54.12
672.938	54.16
673.266	54.17
673.593	54.17
673.921	54.18
674.249	54.19
674.576	54.23
674.904	54.25
675.231	54.26
675.558	54.28
675.886	54.31
676.213	54.32
676.54	54.36
676.867	54.37
677.195	54.4
677.522	54.41
677.849	54.44
678.176	54.47
678.503	54.49
678.83	54.51
679.157	54.52
679.484	54.53
679.81	54.55
680.137	54.54
680.464	54.56
680.791	54.58
681.117	54.6
681.444	54.62
681.771	54.65
682.097	54.68
682.424	54.7
682.75	54.71
683.077	54.74
683.403	54.75
683.729	54.79
684.056	54.79
684.382	54.8
684.708	54.83
685.034	54.88
685.36	54.92
685.686	54.95
686.012	54.96
686.339	54.98
686.664	55.01
686.99	55.04
687.316	55.05
687.642	55.07
687.968	55.08
688.294	55.09
688.619	55.11
688.945	55.13
689.271	55.12
689.596	55.13
689.922	55.15
690.247	55.16
690.573	55.14
690.898	55.16
691.224	55.16
691.549	55.16
691.874	55.16
692.2	55.17
692.525	55.19
692.85	55.19
693.175	55.19
693.5	55.22
693.825	55.25
694.15	55.27
694.475	55.3
694.8	55.31
695.125	55.33
695.45	55.35
695.775	55.35
696.099	55.37
696.424	55.39
696.749	55.4
697.073	55.39
697.398	55.39
697.723	55.41
698.047	55.4
698.372	55.4
698.696	55.4
699.02	55.4
699.345	55.41
699.669	55.41
699.993	55.42
700.318	55.41
700.642	55.43
700.966	55.43
701.29	55.46
701.614	55.47
701.938	55.49
702.262	55.5
702.586	55.54
702.91	55.54
703.234	55.56
703.557	55.58
703.881	55.62
704.205	55.66
704.529	55.7
704.852	55.72
705.176	55.75
705.499	55.76
705.823	55.77
706.146	55.8
706.47	55.84
706.793	55.86
707.117	55.93
707.44	55.93
707.763	55.91
708.086	55.92
708.409	55.88
708.733	55.89
709.056	55.9
709.379	55.92
709.702	55.94
710.025	55.95
710.348	55.9
710.671	55.93
710.993	55.94
711.316	55.97
711.639	56
711.962	55.98
712.284	56.01
712.607	56.03
712.93	56.06
713.252	56.08
713.575	56.1
713.897	56.12
714.22	56.13
714.542	56.13
714.864	56.19
715.187	56.2
715.509	56.23
715.831	56.24
716.153	56.25
716.475	56.26
716.798	56.27
717.12	56.36
717.442	56.36
717.764	56.37
718.085	56.35
718.407	56.34
718.729	56.34
719.051	56.36
719.373	56.39
719.695	56.41
720.016	56.4
720.338	56.33
720.659	56.36
720.981	56.38
721.302	56.36
721.624	56.4
721.945	56.4
722.267	56.4
722.588	56.42
722.909	56.44
723.231	56.47
723.552	56.49
723.873	56.52
724.194	56.56
724.515	56.57
724.836	56.66
725.157	56.66
725.478	56.68
725.799	56.69
726.12	56.71
726.441	56.7
726.762	56.72
727.083	56.71
727.403	56.72
727.724	56.74
728.045	56.69
728.365	56.71
728.686	56.73
729.006	56.75
729.327	56.76
729.647	56.75
729.967	56.75
730.288	56.74
730.608	56.76
730.928	56.77
731.249	56.76
731.569	56.78
731.889	56.79
732.209	56.8
732.529	56.79
732.849	56.78
733.169	56.79
733.489	56.81
733.809	56.8
734.129	56.8
734.448	56.83
734.768	56.81
735.088	56.83
735.408	56.83
735.727	56.84
736.047	56.87
736.366	56.88
736.686	56.87
737.005	56.89
737.325	56.86
737.644	56.86
737.963	56.83
738.283	56.85
738.602	56.82
738.921	56.83
739.24	56.8
739.56	56.82
739.879	56.81
740.198	56.82
740.517	56.83
740.836	56.85
741.155	56.83
741.473	56.85
741.792	56.83
742.111	56.83
742.43	56.84
742.748	56.84
743.067	56.8
743.386	56.8
743.704	56.8
744.023	56.78
744.341	56.76
744.66	56.79
744.978	56.76
745.297	56.79
745.615	56.78
745.933	56.79
746.252	56.77
746.57	56.73
746.888	56.78
747.206	56.81
747.524	56.8
747.842	56.85
748.16	56.86
748.478	56.86
748.796	56.81
749.114	56.77
749.432	56.76
749.749	56.78
750.067	56.73
750.385	56.76
750.703	56.76
751.02	56.77
751.338	56.77
751.655	56.81
751.973	56.81
752.29	56.82
752.608	56.82
752.925	56.8
753.242	56.82
753.56	56.85
753.877	56.81
754.194	56.87
754.511	56.9
754.828	56.9
755.145	56.91
755.462	56.93
755.779	56.94
756.096	57.03
756.413	57.06
756.73	57.05
757.047	57.07
757.364	57.14
757.68	57.15
757.997	57.15
758.314	57.16
758.63	57.2
758.947	57.25
759.264	57.3
759.58	57.36
759.896	57.39
760.213	57.41
760.529	57.43
760.846	57.41
761.162	57.41
761.478	57.45
761.794	57.47
762.11	57.51
762.426	57.54
762.743	57.53
763.059	57.58
763.375	57.58
763.69	57.59
764.006	57.61
764.322	57.63
764.638	57.65
764.954	57.66
765.27	57.66
765.585	57.65
765.901	57.71
766.216	57.65
766.532	57.64
766.848	57.63
767.163	57.61
767.478	57.62
767.794	57.62
768.109	57.62
768.424	57.62
768.74	57.62
769.055	57.59
769.37	57.6
769.685	57.59
770	57.58
770.315	57.58
770.63	57.55
770.945	57.52
771.26	57.5
771.575	57.46
771.89	57.42
772.205	57.4
772.52	57.35
772.834	57.37
773.149	57.36
773.464	57.36
773.778	57.34
774.093	57.34
774.407	57.27
774.722	57.23
775.036	57.18
775.351	57.15
775.665	57.15
775.979	57.06
776.293	56.99
776.608	57.02
776.922	56.95
777.236	56.97
777.55	57.01
777.864	57.05
778.178	57.07
778.492	57.06
778.806	57.02
779.12	57.06
779.434	57.06
779.747	57.07
780.061	57.14
780.375	57.1
780.689	57.06
781.002	57.07
781.316	57.03
781.629	57.04
781.943	57.1
782.256	57.12
782.57	57.13
782.883	57.19
783.196	57.14
783.51	57.16
783.823	57.18
784.136	57.19
784.449	57.23
784.762	57.27
785.075	57.28
785.388	57.25
785.701	57.24
786.014	57.24
786.327	57.23
786.64	57.23
786.953	57.23
787.266	57.3
787.578	57.35
787.891	57.38
788.204	57.34
788.516	57.35
788.829	57.41
789.141	57.44
789.454	57.45
789.766	57.47
790.079	57.48
790.391	57.45
790.703	57.46
791.016	57.38
791.328	57.39
791.64	57.38
791.952	57.42
792.264	57.4
792.576	57.38
792.888	57.39
793.2	57.39
793.512	57.43
793.824	57.44
794.136	57.49
794.448	57.57
794.76	57.57
795.071	57.6
795.383	57.64
795.695	57.67
796.006	57.68
796.318	57.7
796.629	57.74
796.941	57.74
797.252	57.72
797.564	57.74
797.875	57.74
798.186	57.72
798.497	57.72
798.809	57.59
799.12	57.58
799.431	57.58
799.742	57.59
800.053	57.59
800.364	57.63
800.675	57.64
800.986	57.77
801.297	57.8
801.608	57.73
801.918	57.76
802.229	57.73
802.54	57.7
802.851	57.68
803.161	57.71
803.472	57.74
803.782	57.74
804.093	57.75
804.403	57.74
804.714	57.73
805.024	57.7
805.334	57.85
805.645	57.82
805.955	57.86
806.265	57.88
806.575	57.86
806.885	57.77
807.195	57.71
807.505	57.74
807.815	57.71
808.125	57.7
808.435	57.66
808.745	57.65
809.055	57.59
809.365	57.6
809.674	57.61
809.984	57.61
810.294	57.61
810.603	57.6
810.913	57.7
811.222	57.59
811.532	57.69
811.841	57.71
812.151	57.66
812.46	57.69
812.769	57.7
813.079	57.69
813.388	57.68
813.697	57.53
814.006	57.5
814.315	57.55
814.624	57.53
814.933	57.53
815.242	57.52
815.551	57.5
815.86	57.36
816.169	57.36
816.478	57.33
816.786	57.33
817.095	57.32
817.404	57.32
817.712	57.35
818.021	57.29
818.33	57.28
818.638	57.31
818.947	57.29
819.255	57.33
819.563	57.39
819.872	57.48
820.18	57.54
820.488	57.6
820.796	57.63
821.105	57.67
821.413	57.69
821.721	57.73
822.029	57.76
822.337	57.8
822.645	57.8
822.953	57.79
823.26	57.78
823.568	57.8
823.876	57.83
824.184	57.82
824.491	57.82
824.799	57.86
825.107	57.88
825.414	57.91
825.722	57.92
826.029	57.93
826.337	57.97
826.644	57.97
826.951	57.97
827.259	57.99
827.566	58
827.873	58
828.18	58
828.488	58.04
828.795	58.03
829.102	58.05
829.409	58.07
829.716	58.06
830.023	58.08
830.329	58.12
830.636	58.15
830.943	58.22
831.25	58.25
831.557	58.28
831.863	58.28
832.17	58.27
832.476	58.25
832.783	58.18
833.089	58.12
833.396	58.07
833.702	58
834.009	58
834.315	57.99
834.621	57.99
834.928	57.94
835.234	57.94
835.54	57.97
835.846	57.99
836.152	57.95
836.458	57.94
836.764	57.95
837.07	57.91
837.376	57.78
837.682	57.62
837.988	57.57
838.293	57.48
838.599	57.46
838.905	57.41
839.211	57.45
839.516	57.47
839.822	57.48
840.127	57.48
840.433	57.54
840.738	57.56
841.044	57.53
841.349	57.61
841.654	57.7
841.959	57.73
842.265	57.8
842.57	57.81
842.875	57.9
843.18	57.98
843.485	57.93
843.79	58
844.095	58.01
844.4	57.94
844.705	57.93
845.01	57.87
845.315	57.82
845.619	57.8
845.924	57.71
846.229	57.67
846.533	57.65
846.838	57.62
847.142	57.49
847.447	57.52
847.751	57.36
848.056	57.3
848.36	57.4
848.664	57.35
848.969	57.28
849.273	57.25
849.577	57.18
849.881	57.19
850.185	57.37
850.489	57.43
850.794	57.58
851.097	57.42
851.401	57.36
851.705	57.48
852.009	57.52
852.313	57.54
852.617	57.56
852.92	57.4
853.224	57.41
853.528	57.32
853.831	57.33
854.135	57.11
854.438	56.97
854.742	57.01
855.045	57.18
855.349	56.98
855.652	56.94
855.955	57.14
856.259	57.12
856.562	57.3
856.865	57.27
857.168	57.3
857.471	57.17
857.774	57.03
858.077	57.03
858.38	57.21
858.683	57.17
858.986	57.13
859.289	57.35
859.592	57.44
859.894	57.59
860.197	57.76
860.5	57.79
860.802	57.88
861.105	57.88
861.407	58.06
861.71	58.02
862.012	58.08
862.315	58.17
862.617	58.1
862.919	57.92
863.222	57.97
863.524	58.16
863.826	58.28
864.128	58.39
864.43	58.44
864.732	58.42
865.034	58.35
865.336	58.41
865.638	58.2
865.94	58.13
866.242	58.09
866.544	57.86
866.846	58.28
867.147	58.09
867.449	57.95
867.751	57.94
868.052	58.05
868.354	57.82
868.655	57.8
868.957	57.83
869.258	58
869.56	58.03
869.861	58.09
870.162	58.27
870.463	58.08
870.765	57.96
871.066	58.04
871.367	57.97
871.668	57.92
871.969	57.93
872.27	57.83
872.571	57.81
872.872	58.02
873.173	57.86
873.473	58
873.774	58.01
874.075	57.99
874.376	58.04
874.676	58.04
874.977	57.88
875.277	57.86
875.578	57.75
875.878	57.46
876.179	57.49
876.479	57.24
876.78	57.24
877.08	57.19
877.38	57.3
877.68	57.4
877.981	57.56
878.281	57.74
878.581	57.59
