Data from UWBM59333_Reflection_00007.txt Node
Date: Sun May 02 13:48:15 EDT 2021
User: vgr7
Spectrometer: USB2G7710
Scans to average: 10
Trigger mode: 4
Integration Time (sec): 1.000000E-1
Electric dark correction enabled: true
Boxcar width: 20
XAxis mode: Wavelengths
Number of Pixels in Spectrum: 2048
>>>>>Begin Spectral Data<<<<<
177.721	148.91
178.105	162.18
178.488	136.34
178.871	145.31
179.254	130.64
179.636	116.46
180.019	82.89
180.402	71.17
180.785	60.55
181.168	53.88
181.55	47.51
181.933	53.66
182.316	51.11
182.698	47.46
183.081	41.2
183.463	38.66
183.846	40.33
184.228	41.86
184.611	37.16
184.993	35.38
185.376	38.3
185.758	36.07
186.14	41.3
186.522	41.25
186.904	39.55
187.287	39.82
187.669	42.37
188.051	42.31
188.433	41.56
188.815	38.51
189.197	39.98
189.579	39
189.961	38.14
190.342	36.96
190.724	37.57
191.106	38.34
191.488	37.4
191.869	36.17
192.251	34.26
192.633	34.13
193.014	31.7
193.396	28.46
193.777	28.41
194.159	26.65
194.54	24.64
194.922	21.4
195.303	19.65
195.684	19.93
196.065	20.65
196.447	23.35
196.828	23.32
197.209	23.24
197.59	19.51
197.971	19.92
198.352	21.77
198.733	23.5
199.114	24.58
199.495	23.73
199.876	22.97
200.257	26.12
200.638	25.2
201.018	23.99
201.399	26.14
201.78	23.04
202.16	21.72
202.541	22.42
202.922	21.86
203.302	22.25
203.683	22.98
204.063	22.92
204.444	21.96
204.824	21.44
205.204	21.64
205.585	22.75
205.965	24.44
206.345	22.82
206.725	22.12
207.106	21.59
207.486	20.11
207.866	22.13
208.246	20.61
208.626	20.51
209.006	21.86
209.386	22.02
209.766	23.49
210.145	24.51
210.525	25.93
210.905	27.73
211.285	28.16
211.664	28.23
212.044	25.84
212.424	25.37
212.803	26.07
213.183	25.84
213.562	26.37
213.942	24.46
214.321	22.9
214.701	22.47
215.08	22.65
215.459	22.29
215.838	20.3
216.218	20.48
216.597	20.1
216.976	19.2
217.355	20.51
217.734	21.45
218.113	21.38
218.492	20.23
218.871	20.1
219.25	19.28
219.629	18.54
220.008	18.34
220.387	17.09
220.766	17.38
221.144	15.71
221.523	14.61
221.902	14.21
222.28	13.78
222.659	14.91
223.037	14.96
223.416	14.17
223.794	14.23
224.173	13.86
224.551	12.7
224.929	13.15
225.308	12.47
225.686	11.88
226.064	11.63
226.442	10.95
226.821	10.86
227.199	10.5
227.577	10.57
227.955	10.54
228.333	10.25
228.711	10.06
229.089	9.09
229.467	9.46
229.845	9.87
230.222	9.56
230.6	9.35
230.978	9.34
231.356	9.34
231.733	9.3
232.111	8.9
232.488	8.56
232.866	8.21
233.243	8.03
233.621	7.64
233.998	7.53
234.376	7.4
234.753	6.78
235.13	6.7
235.508	6.76
235.885	6.55
236.262	6.36
236.639	6.35
237.016	6.24
237.393	6.31
237.77	6.24
238.147	5.99
238.524	5.86
238.901	5.64
239.278	5.57
239.655	5.51
240.032	5.45
240.409	5.36
240.785	5.33
241.162	5.31
241.539	5.24
241.915	5.28
242.292	5.24
242.668	5.25
243.045	5.22
243.421	5.22
243.798	5.2
244.174	5.22
244.551	5.22
244.927	5.16
245.303	5.14
245.679	5.13
246.056	5.06
246.432	5.03
246.808	4.99
247.184	4.98
247.56	5
247.936	4.99
248.312	4.97
248.688	4.96
249.064	4.97
249.44	4.97
249.815	4.95
250.191	4.94
250.567	4.94
250.943	4.89
251.318	4.89
251.694	4.88
252.069	4.84
252.445	4.83
252.82	4.79
253.196	4.76
253.571	4.74
253.947	4.71
254.322	4.71
254.697	4.69
255.073	4.67
255.448	4.69
255.823	4.64
256.198	4.61
256.573	4.59
256.948	4.59
257.323	4.54
257.698	4.5
258.073	4.47
258.448	4.44
258.823	4.42
259.198	4.42
259.573	4.4
259.948	4.4
260.322	4.4
260.697	4.38
261.072	4.36
261.446	4.37
261.821	4.34
262.195	4.33
262.57	4.32
262.944	4.31
263.319	4.33
263.693	4.32
264.067	4.3
264.442	4.28
264.816	4.26
265.19	4.25
265.564	4.27
265.938	4.24
266.313	4.25
266.687	4.24
267.061	4.23
267.435	4.25
267.809	4.24
268.183	4.23
268.556	4.22
268.93	4.22
269.304	4.23
269.678	4.24
270.051	4.24
270.425	4.22
270.799	4.21
271.172	4.23
271.546	4.23
271.919	4.23
272.293	4.23
272.666	4.24
273.04	4.25
273.413	4.29
273.787	4.3
274.16	4.31
274.533	4.31
274.906	4.33
275.279	4.31
275.653	4.31
276.026	4.3
276.399	4.3
276.772	4.33
277.145	4.34
277.518	4.37
277.891	4.37
278.263	4.36
278.636	4.36
279.009	4.35
279.382	4.37
279.755	4.38
280.127	4.41
280.5	4.42
280.872	4.43
281.245	4.45
281.617	4.46
281.99	4.46
282.362	4.46
282.735	4.46
283.107	4.46
283.479	4.47
283.852	4.5
284.224	4.5
284.596	4.5
284.968	4.5
285.34	4.53
285.713	4.55
286.085	4.55
286.457	4.58
286.829	4.58
287.201	4.61
287.572	4.63
287.944	4.64
288.316	4.66
288.688	4.66
289.06	4.68
289.431	4.68
289.803	4.71
290.175	4.73
290.546	4.77
290.918	4.8
291.289	4.85
291.661	4.89
292.032	4.9
292.403	4.94
292.775	4.95
293.146	4.97
293.517	5.02
293.889	5.07
294.26	5.11
294.631	5.15
295.002	5.21
295.373	5.24
295.744	5.27
296.115	5.31
296.486	5.37
296.857	5.42
297.228	5.48
297.599	5.54
297.97	5.57
298.34	5.62
298.711	5.68
299.082	5.72
299.452	5.77
299.823	5.84
300.194	5.89
300.564	5.94
300.935	6.01
301.305	6.08
301.676	6.14
302.046	6.21
302.416	6.27
302.787	6.32
303.157	6.38
303.527	6.45
303.897	6.52
304.267	6.6
304.637	6.69
305.008	6.76
305.378	6.84
305.748	6.92
306.117	7.01
306.487	7.09
306.857	7.16
307.227	7.25
307.597	7.34
307.967	7.43
308.336	7.51
308.706	7.59
309.076	7.63
309.445	7.7
309.815	7.76
310.184	7.81
310.554	7.88
310.923	7.97
311.293	8.03
311.662	8.09
312.031	8.15
312.401	8.23
312.77	8.3
313.139	8.39
313.508	8.46
313.877	8.53
314.246	8.61
314.616	8.68
314.985	8.75
315.353	8.81
315.722	8.89
316.091	8.96
316.46	9.01
316.829	9.09
317.198	9.17
317.567	9.26
317.935	9.35
318.304	9.43
318.672	9.52
319.041	9.62
319.41	9.69
319.778	9.79
320.147	9.88
320.515	9.96
320.883	10.03
321.252	10.09
321.62	10.16
321.988	10.24
322.357	10.31
322.725	10.37
323.093	10.43
323.461	10.5
323.829	10.56
324.197	10.65
324.565	10.7
324.933	10.77
325.301	10.83
325.669	10.89
326.037	10.92
326.405	10.97
326.772	11.03
327.14	11.08
327.508	11.11
327.875	11.16
328.243	11.17
328.61	11.22
328.978	11.26
329.346	11.3
329.713	11.36
330.08	11.4
330.448	11.44
330.815	11.47
331.182	11.5
331.55	11.56
331.917	11.6
332.284	11.62
332.651	11.65
333.018	11.7
333.385	11.76
333.752	11.81
334.119	11.85
334.486	11.89
334.853	11.94
335.22	11.97
335.587	12.01
335.954	12.05
336.32	12.09
336.687	12.11
337.054	12.14
337.42	12.17
337.787	12.2
338.153	12.23
338.52	12.26
338.886	12.28
339.253	12.32
339.619	12.35
339.986	12.37
340.352	12.41
340.718	12.45
341.084	12.48
341.451	12.51
341.817	12.54
342.183	12.58
342.549	12.6
342.915	12.65
343.281	12.69
343.647	12.71
344.013	12.73
344.379	12.74
344.745	12.76
345.11	12.79
345.476	12.81
345.842	12.83
346.208	12.84
346.573	12.85
346.939	12.87
347.304	12.89
347.67	12.92
348.035	12.94
348.401	12.95
348.766	12.96
349.132	12.97
349.497	12.98
349.862	12.98
350.228	12.99
350.593	13
350.958	13.02
351.323	13.02
351.688	13.03
352.053	13.02
352.418	13.03
352.783	13.02
353.148	13.01
353.513	12.99
353.878	12.99
354.243	12.98
354.608	12.97
354.972	12.96
355.337	12.94
355.702	12.93
356.066	12.91
356.431	12.89
356.795	12.87
357.16	12.84
357.524	12.82
357.889	12.79
358.253	12.76
358.618	12.73
358.982	12.71
359.346	12.69
359.71	12.66
360.075	12.63
360.439	12.6
360.803	12.57
361.167	12.54
361.531	12.51
361.895	12.47
362.259	12.43
362.623	12.39
362.987	12.35
363.351	12.31
363.714	12.26
364.078	12.21
364.442	12.17
364.806	12.13
365.169	12.07
365.533	12.02
365.896	11.96
366.26	11.91
366.623	11.86
366.987	11.8
367.35	11.73
367.714	11.68
368.077	11.62
368.44	11.54
368.803	11.47
369.167	11.4
369.53	11.32
369.893	11.23
370.256	11.15
370.619	11.07
370.982	10.98
371.345	10.9
371.708	10.82
372.071	10.74
372.434	10.66
372.797	10.58
373.159	10.5
373.522	10.42
373.885	10.35
374.247	10.26
374.61	10.18
374.973	10.08
375.335	9.99
375.698	9.9
376.06	9.83
376.423	9.75
376.785	9.66
377.147	9.58
377.51	9.51
377.872	9.41
378.234	9.33
378.596	9.25
378.958	9.17
379.321	9.08
379.683	9.02
380.045	8.94
380.407	8.86
380.769	8.78
381.13	8.71
381.492	8.63
381.854	8.57
382.216	8.5
382.578	8.44
382.939	8.37
383.301	8.31
383.663	8.25
384.024	8.17
384.386	8.11
384.747	8.05
385.109	7.99
385.47	7.92
385.832	7.86
386.193	7.79
386.554	7.73
386.916	7.66
387.277	7.6
387.638	7.54
387.999	7.48
388.36	7.43
388.721	7.38
389.082	7.33
389.443	7.28
389.804	7.23
390.165	7.19
390.526	7.14
390.887	7.09
391.248	7.04
391.609	6.99
391.969	6.95
392.33	6.89
392.691	6.85
393.051	6.81
393.412	6.76
393.772	6.71
394.133	6.66
394.493	6.61
394.854	6.56
395.214	6.51
395.574	6.47
395.935	6.42
396.295	6.37
396.655	6.32
397.015	6.27
397.376	6.22
397.736	6.17
398.096	6.13
398.456	6.08
398.816	6.05
399.176	6
399.535	5.95
399.895	5.91
400.255	5.87
400.615	5.83
400.975	5.79
401.334	5.75
401.694	5.71
402.054	5.67
402.413	5.64
402.773	5.6
403.132	5.57
403.492	5.54
403.851	5.5
404.211	5.48
404.57	5.45
404.929	5.42
405.288	5.39
405.648	5.37
406.007	5.35
406.366	5.33
406.725	5.3
407.084	5.28
407.443	5.26
407.802	5.24
408.161	5.22
408.52	5.21
408.879	5.19
409.238	5.17
409.596	5.15
409.955	5.13
410.314	5.12
410.673	5.1
411.031	5.09
411.39	5.07
411.748	5.05
412.107	5.05
412.465	5.04
412.824	5.05
413.182	5.05
413.54	5.06
413.899	5.08
414.257	5.1
414.615	5.13
414.974	5.15
415.332	5.18
415.69	5.21
416.048	5.22
416.406	5.25
416.764	5.27
417.122	5.29
417.48	5.31
417.838	5.32
418.195	5.33
418.553	5.34
418.911	5.35
419.269	5.34
419.626	5.32
419.984	5.3
420.342	5.27
420.699	5.24
421.057	5.2
421.414	5.17
421.772	5.14
422.129	5.12
422.486	5.1
422.844	5.09
423.201	5.07
423.558	5.06
423.915	5.05
424.273	5.03
424.63	5.02
424.987	5.01
425.344	5
425.701	4.98
426.058	4.97
426.415	4.96
426.772	4.95
427.128	4.93
427.485	4.9
427.842	4.88
428.199	4.85
428.555	4.82
428.912	4.79
429.269	4.74
429.625	4.71
429.982	4.67
430.338	4.62
430.695	4.59
431.051	4.55
431.407	4.52
431.764	4.49
432.12	4.47
432.476	4.45
432.832	4.43
433.189	4.43
433.545	4.43
433.901	4.44
434.257	4.46
434.613	4.49
434.969	4.52
435.325	4.54
435.681	4.59
436.036	4.61
436.392	4.64
436.748	4.65
437.104	4.66
437.459	4.68
437.815	4.7
438.171	4.73
438.526	4.75
438.882	4.78
439.237	4.82
439.593	4.86
439.948	4.9
440.304	4.93
440.659	4.96
441.014	4.98
441.369	5.01
441.725	5.02
442.08	5.04
442.435	5.05
442.79	5.05
443.145	5.05
443.5	5.05
443.855	5.05
444.21	5.04
444.565	5.04
444.92	5.02
445.275	5.01
445.629	5
445.984	4.98
446.339	4.96
446.693	4.94
447.048	4.92
447.403	4.89
447.757	4.86
448.112	4.83
448.466	4.8
448.82	4.77
449.175	4.74
449.529	4.71
449.883	4.68
450.238	4.65
450.592	4.64
450.946	4.62
451.3	4.61
451.654	4.61
452.008	4.6
452.362	4.6
452.716	4.59
453.07	4.59
453.424	4.57
453.778	4.56
454.132	4.54
454.486	4.53
454.839	4.5
455.193	4.48
455.547	4.46
455.9	4.43
456.254	4.41
456.607	4.38
456.961	4.35
457.314	4.33
457.668	4.32
458.021	4.32
458.375	4.31
458.728	4.31
459.081	4.32
459.434	4.33
459.787	4.34
460.141	4.35
460.494	4.36
460.847	4.37
461.2	4.39
461.553	4.4
461.906	4.41
462.259	4.42
462.611	4.43
462.964	4.44
463.317	4.45
463.67	4.47
464.022	4.48
464.375	4.5
464.728	4.51
465.08	4.52
465.433	4.54
465.785	4.54
466.138	4.54
466.49	4.53
466.843	4.53
467.195	4.51
467.547	4.5
467.899	4.49
468.252	4.47
468.604	4.46
468.956	4.45
469.308	4.45
469.66	4.45
470.012	4.45
470.364	4.47
470.716	4.48
471.068	4.51
471.42	4.54
471.772	4.56
472.123	4.59
472.475	4.6
472.827	4.62
473.178	4.64
473.53	4.65
473.882	4.68
474.233	4.71
474.585	4.75
474.936	4.82
475.288	4.92
475.639	5.05
475.99	5.19
476.342	5.36
476.693	5.53
477.044	5.71
477.395	5.89
477.746	6.08
478.097	6.26
478.448	6.45
478.8	6.63
479.15	6.79
479.501	6.95
479.852	7.09
480.203	7.22
480.554	7.35
480.905	7.46
481.255	7.58
481.606	7.68
481.957	7.79
482.307	7.88
482.658	7.97
483.009	8.06
483.359	8.14
483.709	8.22
484.06	8.3
484.41	8.38
484.761	8.46
485.111	8.53
485.461	8.6
485.811	8.66
486.162	8.72
486.512	8.77
486.862	8.82
487.212	8.84
487.562	8.86
487.912	8.87
488.262	8.88
488.612	8.87
488.961	8.85
489.311	8.81
489.661	8.74
490.011	8.64
490.36	8.53
490.71	8.41
491.06	8.27
491.409	8.12
491.759	7.98
492.108	7.82
492.458	7.66
492.807	7.5
493.157	7.34
493.506	7.19
493.855	7.05
494.204	6.92
494.554	6.8
494.903	6.68
495.252	6.58
495.601	6.49
495.95	6.4
496.299	6.32
496.648	6.24
496.997	6.18
497.346	6.13
497.695	6.08
498.043	6.03
498.392	5.99
498.741	5.96
499.09	5.93
499.438	5.91
499.787	5.9
500.135	5.9
500.484	5.91
500.832	5.93
501.181	5.97
501.529	6.03
501.878	6.11
502.226	6.19
502.574	6.29
502.923	6.39
503.271	6.5
503.619	6.62
503.967	6.74
504.315	6.86
504.663	6.98
505.011	7.11
505.359	7.24
505.707	7.37
506.055	7.51
506.403	7.66
506.751	7.81
507.098	7.97
507.446	8.13
507.794	8.3
508.141	8.48
508.489	8.66
508.837	8.86
509.184	9.06
509.531	9.27
509.879	9.49
510.226	9.73
510.574	9.98
510.921	10.23
511.268	10.5
511.616	10.78
511.963	11.06
512.31	11.35
512.657	11.64
513.004	11.92
513.351	12.2
513.698	12.46
514.045	12.71
514.392	12.95
514.739	13.18
515.086	13.4
515.432	13.62
515.779	13.84
516.126	14.07
516.473	14.32
516.819	14.59
517.166	14.88
517.512	15.18
517.859	15.51
518.205	15.86
518.552	16.24
518.898	16.65
519.245	17.1
519.591	17.65
519.937	18.29
520.283	19.02
520.629	19.81
520.976	20.64
521.322	21.5
521.668	22.38
522.014	23.27
522.36	24.17
522.706	25.04
523.052	25.89
523.398	26.7
523.743	27.44
524.089	28.12
524.435	28.76
524.781	29.38
525.126	29.98
525.472	30.57
525.817	31.16
526.163	31.73
526.509	32.28
526.854	32.83
527.199	33.38
527.545	33.93
527.89	34.5
528.235	35.06
528.581	35.59
528.926	36.09
529.271	36.56
529.616	37.02
529.961	37.46
530.306	37.87
530.651	38.26
530.996	38.61
531.341	38.93
531.686	39.23
532.031	39.5
532.376	39.8
532.721	40.12
533.065	40.48
533.41	40.85
533.755	41.17
534.099	41.46
534.444	41.68
534.788	41.88
535.133	42.05
535.477	42.18
535.822	42.29
536.166	42.34
536.51	42.32
536.855	42.24
537.199	42.13
537.543	42
537.887	41.93
538.231	41.89
538.576	41.86
538.92	41.81
539.264	41.75
539.608	41.67
539.951	41.56
540.295	41.44
540.639	41.3
540.983	41.14
541.327	40.97
541.671	40.76
542.014	40.6
542.358	40.45
542.701	40.39
543.045	40.42
543.389	40.48
543.732	40.57
544.075	40.66
544.419	40.78
544.762	40.92
545.105	41.07
545.449	41.24
545.792	41.41
546.135	41.58
546.478	41.71
546.821	41.78
547.165	41.77
547.508	41.7
547.851	41.57
548.194	41.38
548.536	41.15
548.879	40.88
549.222	40.57
549.565	40.26
549.908	39.95
550.25	39.68
550.593	39.47
550.936	39.35
551.278	39.29
551.621	39.28
551.963	39.29
552.306	39.32
552.648	39.39
552.991	39.49
553.333	39.62
553.675	39.79
554.017	40
554.36	40.23
554.702	40.5
555.044	40.81
555.386	41.16
555.728	41.58
556.07	41.91
556.412	42.27
556.754	42.54
557.096	42.74
557.438	42.95
557.78	43.16
558.121	43.38
558.463	43.59
558.805	43.8
559.147	44
559.488	44.2
559.83	44.42
560.171	44.62
560.513	44.81
560.854	45
561.196	45.19
561.537	45.38
561.878	45.56
562.22	45.73
562.561	45.9
562.902	46.07
563.243	46.25
563.584	46.43
563.925	46.62
564.266	46.79
564.607	46.96
564.948	47.13
565.289	47.29
565.63	47.45
565.971	47.62
566.312	47.77
566.653	47.93
566.993	48.09
567.334	48.22
567.675	48.36
568.015	48.5
568.356	48.63
568.696	48.76
569.037	48.89
569.377	49.01
569.718	49.13
570.058	49.24
570.398	49.36
570.739	49.48
571.079	49.58
571.419	49.69
571.759	49.78
572.099	49.87
572.439	49.97
572.779	50.06
573.119	50.14
573.459	50.22
573.799	50.31
574.139	50.39
574.479	50.47
574.819	50.55
575.158	50.63
575.498	50.71
575.838	50.78
576.177	50.87
576.517	50.95
576.856	51.02
577.196	51.09
577.535	51.16
577.875	51.21
578.214	51.27
578.553	51.34
578.893	51.4
579.232	51.47
579.571	51.53
579.91	51.58
580.25	51.65
580.589	51.72
580.928	51.78
581.267	51.85
581.606	51.92
581.945	51.98
582.283	52.05
582.622	52.1
582.961	52.16
583.3	52.23
583.639	52.3
583.977	52.37
584.316	52.43
584.654	52.49
584.993	52.56
585.332	52.62
585.67	52.7
586.008	52.75
586.347	52.82
586.685	52.88
587.024	52.95
587.362	53.02
587.7	53.08
588.038	53.15
588.376	53.23
588.715	53.29
589.053	53.37
589.391	53.46
589.729	53.54
590.067	53.61
590.404	53.69
590.742	53.76
591.08	53.83
591.418	53.91
591.756	53.97
592.093	54.04
592.431	54.1
592.769	54.16
593.106	54.21
593.444	54.27
593.781	54.33
594.119	54.38
594.456	54.42
594.793	54.47
595.131	54.51
595.468	54.55
595.805	54.6
596.143	54.66
596.48	54.72
596.817	54.78
597.154	54.86
597.491	54.91
597.828	54.98
598.165	55.04
598.502	55.09
598.839	55.14
599.176	55.19
599.512	55.24
599.849	55.28
600.186	55.32
600.523	55.35
600.859	55.4
601.196	55.44
601.532	55.48
601.869	55.52
602.205	55.55
602.542	55.61
602.878	55.64
603.215	55.66
603.551	55.7
603.887	55.73
604.223	55.77
604.56	55.81
604.896	55.83
605.232	55.84
605.568	55.88
605.904	55.91
606.24	55.92
606.576	55.95
606.912	55.97
607.248	55.98
607.583	56
607.919	56.02
608.255	56.04
608.591	56.07
608.926	56.09
609.262	56.12
609.597	56.13
609.933	56.15
610.268	56.15
610.604	56.16
610.939	56.15
611.275	56.17
611.61	56.18
611.945	56.18
612.281	56.2
612.616	56.2
612.951	56.2
613.286	56.21
613.621	56.23
613.956	56.25
614.291	56.27
614.626	56.29
614.961	56.32
615.296	56.33
615.631	56.35
615.966	56.35
616.3	56.35
616.635	56.38
616.97	56.39
617.304	56.39
617.639	56.4
617.973	56.4
618.308	56.41
618.642	56.43
618.977	56.46
619.311	56.46
619.646	56.47
619.98	56.49
620.314	56.51
620.648	56.54
620.983	56.58
621.317	56.61
621.651	56.64
621.985	56.67
622.319	56.69
622.653	56.72
622.987	56.74
623.321	56.76
623.655	56.78
623.988	56.79
624.322	56.81
624.656	56.84
624.99	56.85
625.323	56.86
625.657	56.87
625.99	56.89
626.324	56.91
626.657	56.93
626.991	56.94
627.324	56.95
627.658	56.96
627.991	56.96
628.324	56.97
628.657	56.96
628.991	56.98
629.324	56.99
629.657	57.01
629.99	57.03
630.323	57.05
630.656	57.06
630.989	57.07
631.322	57.07
631.655	57.1
631.987	57.11
632.32	57.12
632.653	57.13
632.986	57.15
633.318	57.16
633.651	57.17
633.984	57.19
634.316	57.18
634.649	57.18
634.981	57.18
635.313	57.19
635.646	57.18
635.978	57.19
636.31	57.18
636.643	57.18
636.975	57.19
637.307	57.2
637.639	57.22
637.971	57.23
638.303	57.25
638.635	57.26
638.967	57.28
639.299	57.28
639.631	57.3
639.963	57.31
640.295	57.33
640.626	57.36
640.958	57.39
641.29	57.41
641.621	57.44
641.953	57.45
642.285	57.48
642.616	57.5
642.948	57.52
643.279	57.52
643.61	57.53
643.942	57.53
644.273	57.54
644.604	57.56
644.936	57.57
645.267	57.57
645.598	57.59
645.929	57.62
646.26	57.64
646.591	57.67
646.922	57.68
647.253	57.69
647.584	57.7
647.915	57.72
648.245	57.74
648.576	57.75
648.907	57.78
649.238	57.8
649.568	57.83
649.899	57.86
650.229	57.89
650.56	57.92
650.89	57.93
651.221	57.92
651.551	57.94
651.882	57.93
652.212	57.95
652.542	57.95
652.872	57.97
653.203	57.96
653.533	57.98
653.863	57.99
654.193	58
654.523	58.02
654.853	58.02
655.183	58.04
655.513	58.05
655.843	58.06
656.172	58.08
656.502	58.09
656.832	58.11
657.162	58.11
657.491	58.12
657.821	58.14
658.15	58.16
658.48	58.18
658.809	58.21
659.139	58.22
659.468	58.21
659.798	58.21
660.127	58.22
660.456	58.24
660.785	58.25
661.115	58.26
661.444	58.28
661.773	58.28
662.102	58.3
662.431	58.3
662.76	58.32
663.089	58.32
663.418	58.33
663.747	58.34
664.076	58.34
664.404	58.36
664.733	58.39
665.062	58.41
665.39	58.44
665.719	58.45
666.048	58.46
666.376	58.49
666.705	58.5
667.033	58.5
667.362	58.51
667.69	58.55
668.018	58.54
668.347	58.56
668.675	58.56
669.003	58.57
669.331	58.6
669.659	58.6
669.987	58.63
670.315	58.63
670.643	58.64
670.971	58.64
671.299	58.66
671.627	58.67
671.955	58.67
672.283	58.67
672.61	58.68
672.938	58.69
673.266	58.69
673.593	58.69
673.921	58.7
674.249	58.73
674.576	58.73
674.904	58.73
675.231	58.74
675.558	58.76
675.886	58.78
676.213	58.8
676.54	58.81
676.867	58.81
677.195	58.83
677.522	58.82
677.849	58.82
678.176	58.82
678.503	58.82
678.83	58.82
679.157	58.83
679.484	58.84
679.81	58.88
680.137	58.89
680.464	58.91
680.791	58.92
681.117	58.91
681.444	58.94
681.771	58.95
682.097	58.98
682.424	59
682.75	58.99
683.077	58.98
683.403	58.99
683.729	59
684.056	59.02
684.382	59.03
684.708	59.04
685.034	59.06
685.36	59.07
685.686	59.07
686.012	59.1
686.339	59.12
686.664	59.14
686.99	59.15
687.316	59.16
687.642	59.18
687.968	59.19
688.294	59.21
688.619	59.22
688.945	59.21
689.271	59.22
689.596	59.21
689.922	59.24
690.247	59.25
690.573	59.25
690.898	59.28
691.224	59.27
691.549	59.29
691.874	59.3
692.2	59.31
692.525	59.32
692.85	59.34
693.175	59.33
693.5	59.33
693.825	59.34
694.15	59.34
694.475	59.33
694.8	59.34
695.125	59.33
695.45	59.33
695.775	59.33
696.099	59.35
696.424	59.38
696.749	59.37
697.073	59.38
697.398	59.38
697.723	59.4
698.047	59.39
698.372	59.4
698.696	59.41
699.02	59.42
699.345	59.42
699.669	59.43
699.993	59.44
700.318	59.45
700.642	59.47
700.966	59.46
701.29	59.48
701.614	59.5
701.938	59.5
702.262	59.51
702.586	59.5
702.91	59.53
703.234	59.53
703.557	59.55
703.881	59.55
704.205	59.55
704.529	59.58
704.852	59.58
705.176	59.59
705.499	59.59
705.823	59.61
706.146	59.63
706.47	59.62
706.793	59.65
707.117	59.63
707.44	59.67
707.763	59.7
708.086	59.68
708.409	59.7
708.733	59.71
709.056	59.73
709.379	59.71
709.702	59.73
710.025	59.75
710.348	59.78
710.671	59.78
710.993	59.79
711.316	59.81
711.639	59.83
711.962	59.83
712.284	59.85
712.607	59.88
712.93	59.88
713.252	59.91
713.575	59.94
713.897	59.93
714.22	59.94
714.542	59.95
714.864	59.96
715.187	59.99
715.509	59.99
715.831	60.01
716.153	60.04
716.475	60.04
716.798	60.05
717.12	60.07
717.442	60.11
717.764	60.13
718.085	60.15
718.407	60.16
718.729	60.18
719.051	60.17
719.373	60.21
719.695	60.25
720.016	60.25
720.338	60.27
720.659	60.27
720.981	60.31
721.302	60.34
721.624	60.37
721.945	60.4
722.267	60.39
722.588	60.4
722.909	60.43
723.231	60.42
723.552	60.4
723.873	60.46
724.194	60.47
724.515	60.47
724.836	60.5
725.157	60.52
725.478	60.53
725.799	60.52
726.12	60.54
726.441	60.53
726.762	60.54
727.083	60.55
727.403	60.57
727.724	60.58
728.045	60.58
728.365	60.58
728.686	60.61
729.006	60.61
729.327	60.59
729.647	60.61
729.967	60.6
730.288	60.6
730.608	60.62
730.928	60.64
731.249	60.63
731.569	60.65
731.889	60.64
732.209	60.67
732.529	60.63
732.849	60.64
733.169	60.65
733.489	60.67
733.809	60.67
734.129	60.65
734.448	60.65
734.768	60.64
735.088	60.65
735.408	60.67
735.727	60.69
736.047	60.66
736.366	60.66
736.686	60.66
737.005	60.64
737.325	60.63
737.644	60.65
737.963	60.61
738.283	60.6
738.602	60.59
738.921	60.6
739.24	60.6
739.56	60.63
739.879	60.62
740.198	60.6
740.517	60.6
740.836	60.56
741.155	60.56
741.473	60.56
741.792	60.55
742.111	60.55
742.43	60.53
742.748	60.53
743.067	60.53
743.386	60.52
743.704	60.52
744.023	60.51
744.341	60.53
744.66	60.56
744.978	60.55
745.297	60.54
745.615	60.54
745.933	60.55
746.252	60.55
746.57	60.55
746.888	60.58
747.206	60.59
747.524	60.61
747.842	60.63
748.16	60.63
748.478	60.6
748.796	60.6
749.114	60.63
749.432	60.63
749.749	60.67
750.067	60.67
750.385	60.7
750.703	60.69
751.02	60.71
751.338	60.74
751.655	60.75
751.973	60.71
752.29	60.71
752.608	60.72
752.925	60.7
753.242	60.72
753.56	60.75
753.877	60.79
754.194	60.82
754.511	60.82
754.828	60.83
755.145	60.86
755.462	60.92
755.779	60.93
756.096	60.95
756.413	60.98
756.73	60.98
757.047	60.99
757.364	60.98
757.68	60.96
757.997	61.01
758.314	61.06
758.63	61.11
758.947	61.13
759.264	61.15
759.58	61.16
759.896	61.19
760.213	61.19
760.529	61.19
760.846	61.19
761.162	61.18
761.478	61.21
761.794	61.24
762.11	61.22
762.426	61.23
762.743	61.22
763.059	61.19
763.375	61.18
763.69	61.21
764.006	61.22
764.322	61.21
764.638	61.25
764.954	61.28
765.27	61.29
765.585	61.28
765.901	61.27
766.216	61.27
766.532	61.26
766.848	61.26
767.163	61.23
767.478	61.22
767.794	61.22
768.109	61.22
768.424	61.19
768.74	61.15
769.055	61.15
769.37	61.12
769.685	61.12
770	61.13
770.315	61.15
770.63	61.19
770.945	61.2
771.26	61.18
771.575	61.14
771.89	61.11
772.205	61.11
772.52	61.1
772.834	61.06
773.149	61.11
773.464	61.11
773.778	61.13
774.093	61.11
774.407	61.1
774.722	61.1
775.036	61.14
775.351	61.18
775.665	61.16
775.979	61.19
776.293	61.18
776.608	61.14
776.922	61.13
777.236	61.13
777.55	61.05
777.864	61.08
778.178	61.09
778.492	61.05
778.806	61.08
779.12	61.11
779.434	61.15
779.747	61.16
780.061	61.19
780.375	61.19
780.689	61.18
781.002	61.17
781.316	61.19
781.629	61.21
781.943	61.22
782.256	61.26
782.57	61.23
782.883	61.15
783.196	61.12
783.51	61.07
783.823	61.04
784.136	61.02
784.449	61.01
784.762	61.02
785.075	61.04
785.388	61.04
785.701	61
786.014	60.95
786.327	60.94
786.64	60.9
786.953	60.94
787.266	60.88
787.578	60.85
787.891	60.83
788.204	60.8
788.516	60.79
788.829	60.77
789.141	60.75
789.454	60.75
789.766	60.75
790.079	60.74
790.391	60.77
790.703	60.76
791.016	60.75
791.328	60.8
791.64	60.76
791.952	60.74
792.264	60.68
792.576	60.66
792.888	60.68
793.2	60.7
793.512	60.72
793.824	60.74
794.136	60.76
794.448	60.77
794.76	60.78
795.071	60.76
795.383	60.79
795.695	60.82
796.006	60.83
796.318	60.83
796.629	60.81
796.941	60.75
797.252	60.8
797.564	60.75
797.875	60.74
798.186	60.76
798.497	60.77
798.809	60.75
799.12	60.75
799.431	60.81
799.742	60.81
800.053	60.85
800.364	60.89
800.675	60.93
800.986	60.93
801.297	60.97
801.608	61.07
801.918	61.15
802.229	61.17
802.54	61.17
802.851	61.15
803.161	61.2
803.472	61.2
803.782	61.19
804.093	61.18
804.403	61.24
804.714	61.22
805.024	61.28
805.334	61.25
805.645	61.22
805.955	61.25
806.265	61.25
806.575	61.21
806.885	61.2
807.195	61.29
807.505	61.28
807.815	61.28
808.125	61.25
808.435	61.28
808.745	61.26
809.055	61.28
809.365	61.32
809.674	61.37
809.984	61.37
810.294	61.39
810.603	61.39
810.913	61.38
811.222	61.39
811.532	61.4
811.841	61.41
812.151	61.37
812.46	61.38
812.769	61.41
813.079	61.41
813.388	61.42
813.697	61.47
814.006	61.35
814.315	61.33
814.624	61.32
814.933	61.36
815.242	61.42
815.551	61.48
815.86	61.48
816.169	61.51
816.478	61.59
816.786	61.65
817.095	61.65
817.404	61.74
817.712	61.79
818.021	61.84
818.33	61.85
818.638	61.85
818.947	61.79
819.255	61.79
819.563	61.8
819.872	61.8
820.18	61.81
820.488	61.84
820.796	61.87
821.105	61.89
821.413	61.92
821.721	61.91
822.029	61.92
822.337	61.94
822.645	61.95
822.953	61.97
823.26	61.98
823.568	62
823.876	62.02
824.184	62.02
824.491	62.02
824.799	62.02
825.107	62.02
825.414	62.01
825.722	62.01
826.029	62.02
826.337	62.02
826.644	62.05
826.951	62.05
827.259	62.04
827.566	62.02
827.873	62
828.18	62
828.488	61.99
828.795	61.97
829.102	61.95
829.409	61.93
829.716	61.96
830.023	61.93
830.329	61.9
830.636	61.89
830.943	61.91
831.25	61.91
831.557	61.97
831.863	62
832.17	62.01
832.476	61.97
832.783	61.96
833.089	61.93
833.396	61.93
833.702	61.92
834.009	61.93
834.315	61.9
834.621	61.86
834.928	61.8
835.234	61.76
835.54	61.73
835.846	61.69
836.152	61.65
836.458	61.66
836.764	61.63
837.07	61.62
837.376	61.61
837.682	61.63
837.988	61.61
838.293	61.64
838.599	61.59
838.905	61.54
839.211	61.53
839.516	61.55
839.822	61.53
840.127	61.57
840.433	61.62
840.738	61.61
841.044	61.64
841.349	61.69
841.654	61.65
841.959	61.63
842.265	61.55
842.57	61.58
842.875	61.57
843.18	61.57
843.485	61.54
843.79	61.51
844.095	61.59
844.4	61.57
844.705	61.64
845.01	61.71
845.315	61.7
845.619	61.75
845.924	61.78
846.229	61.72
846.533	61.62
846.838	61.83
847.142	61.96
847.447	62.09
847.751	62.27
848.056	62.29
848.36	62.42
848.664	62.32
848.969	62.19
849.273	62.33
849.577	62.37
849.881	62.33
850.185	62.3
850.489	62.29
850.794	62.18
851.097	62.32
851.401	62.45
851.705	62.4
852.009	62.4
852.313	62.48
852.617	62.63
852.92	62.56
853.224	62.63
853.528	62.64
853.831	62.67
854.135	62.82
854.438	63.04
854.742	63
855.045	63.03
855.349	63.22
855.652	63.29
855.955	63.18
856.259	63.32
856.562	63.22
856.865	63.32
857.168	63.16
857.471	63.16
857.774	63.3
858.077	63.22
858.38	63.28
858.683	63.44
858.986	63.44
859.289	63.27
859.592	63.26
859.894	63.36
860.197	63.01
860.5	62.98
860.802	62.87
861.105	63.09
861.407	62.98
861.71	62.98
862.012	62.95
862.315	63.08
862.617	62.97
862.919	63.03
863.222	62.97
863.524	63.09
863.826	63.05
864.128	63.22
864.43	63.2
864.732	63.2
865.034	63
865.336	63.21
865.638	63.05
865.94	62.99
866.242	62.88
866.544	62.87
866.846	62.73
867.147	62.74
867.449	62.73
867.751	62.52
868.052	62.5
868.354	62.6
868.655	62.43
868.957	62.46
869.258	62.42
869.56	62.53
869.861	62.74
870.162	62.72
870.463	62.86
870.765	62.77
871.066	62.74
871.367	62.69
871.668	62.78
871.969	62.79
872.27	62.68
872.571	62.9
872.872	62.96
873.173	63.05
873.473	62.95
873.774	63.17
874.075	63.15
874.376	63.26
874.676	63.33
874.977	63.37
875.277	63.53
875.578	63.65
875.878	63.47
876.179	63.46
876.479	63.37
876.78	63.4
877.08	63.38
877.38	63.51
877.68	63.39
877.981	63.55
878.281	63.71
878.581	63.92
