Data from UWBM12228_Reflection_00015.txt Node
Date: Sun May 02 12:55:22 EDT 2021
User: vgr7
Spectrometer: USB2G7710
Scans to average: 10
Trigger mode: 4
Integration Time (sec): 1.000000E-1
Electric dark correction enabled: true
Boxcar width: 20
XAxis mode: Wavelengths
Number of Pixels in Spectrum: 2048
>>>>>Begin Spectral Data<<<<<
177.721	99.79
178.105	99.76
178.488	98.58
178.871	97.28
179.254	97.9
179.636	95.95
180.019	94.85
180.402	93.56
180.785	91.22
181.168	90.07
181.55	86.51
181.933	113.28
182.316	113.55
182.698	116.12
183.081	117.2
183.463	117.33
183.846	119.24
184.228	120.22
184.611	121.52
184.993	123.57
185.376	124.74
185.758	-74.32
186.14	-25.74
186.522	0.28
186.904	10.72
187.287	23.66
187.669	24.98
188.051	27.24
188.433	28.38
188.815	25.48
189.197	24.22
189.579	23.38
189.961	23.65
190.342	20.03
190.724	22.25
191.106	21.7
191.488	22.21
191.869	17.11
192.251	18.38
192.633	15.14
193.014	13.72
193.396	14.1
193.777	21.02
194.159	21.88
194.54	20.54
194.922	19.13
195.303	21.13
195.684	20.49
196.065	19.89
196.447	18.82
196.828	17.72
197.209	19.75
197.59	10.94
197.971	9.54
198.352	10.93
198.733	13.64
199.114	10.84
199.495	12.04
199.876	12.08
200.257	11.56
200.638	11.01
201.018	5.64
201.399	3.41
201.78	1.63
202.16	1.19
202.541	2.02
202.922	0.3
203.302	-2.55
203.683	-2.92
204.063	-4.19
204.444	-2.72
204.824	0.12
205.204	1.88
205.585	9.52
205.965	8.36
206.345	8.66
206.725	3.29
207.106	4.26
207.486	4.23
207.866	3.72
208.246	2.78
208.626	4.9
209.006	8.79
209.386	3.34
209.766	3.57
210.145	3.85
210.525	2.86
210.905	4.92
211.285	6.63
211.664	5.72
212.044	7.35
212.424	7.4
212.803	1.57
213.183	3.79
213.562	3.53
213.942	4.3
214.321	0.84
214.701	0.74
215.08	0.95
215.459	1.71
215.838	0.64
216.218	1.21
216.597	-1.5
216.976	-4.12
217.355	-2.35
217.734	-2.81
218.113	-1.49
218.492	0.69
218.871	1.86
219.25	1.83
219.629	3.12
220.008	2.73
220.387	3.48
220.766	4.65
221.144	4.06
221.523	6.12
221.902	6.32
222.28	7.34
222.659	8.22
223.037	8.5
223.416	9.45
223.794	10.84
224.173	10.12
224.551	10.11
224.929	10.42
225.308	11.19
225.686	10.5
226.064	10.3
226.442	9.45
226.821	8.97
227.199	8.61
227.577	7.81
227.955	7.44
228.333	7.62
228.711	7.78
229.089	8.48
229.467	7.74
229.845	8.2
230.222	8.08
230.6	8.39
230.978	8.1
231.356	7.75
231.733	7.47
232.111	7.47
232.488	7.29
232.866	7.08
233.243	6.73
233.621	6.57
233.998	6.17
234.376	6.31
234.753	6.35
235.13	6.13
235.508	6.44
235.885	6.41
236.262	6.25
236.639	6.36
237.016	6.21
237.393	6.18
237.77	5.92
238.147	5.78
238.524	5.83
238.901	5.84
239.278	5.85
239.655	5.82
240.032	5.69
240.409	5.65
240.785	5.54
241.162	5.62
241.539	5.58
241.915	5.61
242.292	5.58
242.668	5.55
243.045	5.54
243.421	5.4
243.798	5.35
244.174	5.33
244.551	5.24
244.927	5.1
245.303	5.07
245.679	5.08
246.056	5.01
246.432	4.97
246.808	4.78
247.184	4.77
247.56	4.73
247.936	4.75
248.312	4.73
248.688	4.79
249.064	4.78
249.44	4.77
249.815	4.75
250.191	4.72
250.567	4.7
250.943	4.79
251.318	4.75
251.694	4.71
252.069	4.63
252.445	4.64
252.82	4.73
253.196	4.75
253.571	4.72
253.947	4.78
254.322	4.72
254.697	4.84
255.073	4.82
255.448	4.81
255.823	4.79
256.198	4.75
256.573	4.59
256.948	4.59
257.323	4.59
257.698	4.53
258.073	4.51
258.448	4.39
258.823	4.4
259.198	4.39
259.573	4.42
259.948	4.44
260.322	4.4
260.697	4.39
261.072	4.38
261.446	4.36
261.821	4.35
262.195	4.3
262.57	4.28
262.944	4.29
263.319	4.25
263.693	4.28
264.067	4.3
264.442	4.39
264.816	4.37
265.19	4.34
265.564	4.37
265.938	4.35
266.313	4.39
266.687	4.36
267.061	4.37
267.435	4.37
267.809	4.35
268.183	4.31
268.556	4.32
268.93	4.32
269.304	4.29
269.678	4.25
270.051	4.22
270.425	4.21
270.799	4.22
271.172	4.22
271.546	4.22
271.919	4.22
272.293	4.2
272.666	4.19
273.04	4.19
273.413	4.15
273.787	4.15
274.16	4.15
274.533	4.18
274.906	4.15
275.279	4.16
275.653	4.16
276.026	4.14
276.399	4.11
276.772	4.1
277.145	4.12
277.518	4.15
277.891	4.16
278.263	4.15
278.636	4.17
279.009	4.17
279.382	4.14
279.755	4.1
280.127	4.11
280.5	4.1
280.872	4.1
281.245	4.2
281.617	4.22
281.99	4.24
282.362	4.27
282.735	4.25
283.107	4.26
283.479	4.3
283.852	4.31
284.224	4.34
284.596	4.33
284.968	4.24
285.34	4.24
285.713	4.24
286.085	4.17
286.457	4.18
286.829	4.16
287.201	4.18
287.572	4.25
287.944	4.28
288.316	4.33
288.688	4.37
289.06	4.37
289.431	4.38
289.803	4.4
290.175	4.43
290.546	4.47
290.918	4.5
291.289	4.5
291.661	4.54
292.032	4.54
292.403	4.58
292.775	4.7
293.146	4.73
293.517	4.78
293.889	4.88
294.26	4.91
294.631	4.96
295.002	5.03
295.373	5.1
295.744	5.13
296.115	5.17
296.486	5.15
296.857	5.16
297.228	5.19
297.599	5.22
297.97	5.25
298.34	5.29
298.711	5.28
299.082	5.3
299.452	5.36
299.823	5.44
300.194	5.48
300.564	5.53
300.935	5.58
301.305	5.62
301.676	5.65
302.046	5.7
302.416	5.74
302.787	5.79
303.157	5.77
303.527	5.84
303.897	5.9
304.267	5.98
304.637	6.05
305.008	6.12
305.378	6.19
305.748	6.25
306.117	6.38
306.487	6.49
306.857	6.6
307.227	6.67
307.597	6.73
307.967	6.78
308.336	6.85
308.706	6.94
309.076	7
309.445	7.04
309.815	7
310.184	7.05
310.554	7.05
310.923	7.15
311.293	7.23
311.662	7.29
312.031	7.36
312.401	7.43
312.77	7.47
313.139	7.54
313.508	7.63
313.877	7.64
314.246	7.72
314.616	7.76
314.985	7.77
315.353	7.85
315.722	7.91
316.091	7.98
316.46	8.07
316.829	8.16
317.198	8.25
317.567	8.47
317.935	8.54
318.304	8.67
318.672	8.77
319.041	8.88
319.41	8.96
319.778	9.08
320.147	9.18
320.515	9.27
320.883	9.35
321.252	9.37
321.62	9.49
321.988	9.57
322.357	9.64
322.725	9.77
323.093	9.85
323.461	9.92
323.829	9.98
324.197	10.05
324.565	10.1
324.933	10.18
325.301	10.24
325.669	10.3
326.037	10.36
326.405	10.37
326.772	10.41
327.14	10.46
327.508	10.5
327.875	10.56
328.243	10.63
328.61	10.63
328.978	10.69
329.346	10.74
329.713	10.77
330.08	10.82
330.448	10.87
330.815	10.9
331.182	10.95
331.55	10.98
331.917	11.04
332.284	11.1
332.651	11.15
333.018	11.21
333.385	11.28
333.752	11.33
334.119	11.38
334.486	11.44
334.853	11.46
335.22	11.52
335.587	11.56
335.954	11.6
336.32	11.67
336.687	11.7
337.054	11.74
337.42	11.81
337.787	11.84
338.153	11.89
338.52	11.95
338.886	12.01
339.253	12.04
339.619	12.07
339.986	12.06
340.352	12.08
340.718	12.13
341.084	12.16
341.451	12.18
341.817	12.21
342.183	12.22
342.549	12.26
342.915	12.29
343.281	12.32
343.647	12.36
344.013	12.4
344.379	12.44
344.745	12.47
345.11	12.49
345.476	12.52
345.842	12.54
346.208	12.55
346.573	12.57
346.939	12.6
347.304	12.61
347.67	12.62
348.035	12.64
348.401	12.64
348.766	12.68
349.132	12.69
349.497	12.71
349.862	12.72
350.228	12.73
350.593	12.75
350.958	12.75
351.323	12.73
351.688	12.74
352.053	12.73
352.418	12.72
352.783	12.71
353.148	12.69
353.513	12.68
353.878	12.67
354.243	12.65
354.608	12.64
354.972	12.63
355.337	12.62
355.702	12.58
356.066	12.56
356.431	12.54
356.795	12.52
357.16	12.49
357.524	12.47
357.889	12.45
358.253	12.42
358.618	12.39
358.982	12.38
359.346	12.36
359.71	12.33
360.075	12.31
360.439	12.28
360.803	12.24
361.167	12.2
361.531	12.18
361.895	12.14
362.259	12.11
362.623	12.07
362.987	12.02
363.351	12
363.714	11.96
364.078	11.91
364.442	11.86
364.806	11.84
365.169	11.77
365.533	11.72
365.896	11.66
366.26	11.61
366.623	11.56
366.987	11.49
367.35	11.45
367.714	11.4
368.077	11.34
368.44	11.28
368.803	11.22
369.167	11.16
369.53	11.09
369.893	11.02
370.256	10.95
370.619	10.89
370.982	10.81
371.345	10.73
371.708	10.66
372.071	10.59
372.434	10.51
372.797	10.46
373.159	10.4
373.522	10.33
373.885	10.24
374.247	10.16
374.61	10.08
374.973	10
375.335	9.93
375.698	9.85
376.06	9.78
376.423	9.7
376.785	9.63
377.147	9.55
377.51	9.49
377.872	9.42
378.234	9.35
378.596	9.29
378.958	9.23
379.321	9.16
379.683	9.09
380.045	9.02
380.407	8.95
380.769	8.88
381.13	8.83
381.492	8.77
381.854	8.71
382.216	8.64
382.578	8.58
382.939	8.53
383.301	8.47
383.663	8.4
384.024	8.34
384.386	8.29
384.747	8.23
385.109	8.16
385.47	8.1
385.832	8.05
386.193	8
386.554	7.93
386.916	7.88
387.277	7.83
387.638	7.78
387.999	7.74
388.36	7.69
388.721	7.65
389.082	7.6
389.443	7.56
389.804	7.52
390.165	7.48
390.526	7.43
390.887	7.39
391.248	7.34
391.609	7.31
391.969	7.27
392.33	7.23
392.691	7.18
393.051	7.14
393.412	7.08
393.772	7.04
394.133	7
394.493	6.95
394.854	6.91
395.214	6.86
395.574	6.81
395.935	6.76
396.295	6.71
396.655	6.66
397.015	6.62
397.376	6.57
397.736	6.52
398.096	6.47
398.456	6.44
398.816	6.41
399.176	6.35
399.535	6.32
399.895	6.28
400.255	6.24
400.615	6.2
400.975	6.16
401.334	6.12
401.694	6.09
402.054	6.05
402.413	6
402.773	5.96
403.132	5.94
403.492	5.9
403.851	5.87
404.211	5.85
404.57	5.82
404.929	5.8
405.288	5.77
405.648	5.75
406.007	5.72
406.366	5.71
406.725	5.69
407.084	5.66
407.443	5.64
407.802	5.61
408.161	5.59
408.52	5.57
408.879	5.55
409.238	5.53
409.596	5.51
409.955	5.5
410.314	5.48
410.673	5.46
411.031	5.45
411.39	5.44
411.748	5.43
412.107	5.41
412.465	5.41
412.824	5.41
413.182	5.41
413.54	5.42
413.899	5.43
414.257	5.44
414.615	5.47
414.974	5.49
415.332	5.52
415.69	5.54
416.048	5.56
416.406	5.59
416.764	5.6
417.122	5.62
417.48	5.64
417.838	5.66
418.195	5.67
418.553	5.68
418.911	5.68
419.269	5.67
419.626	5.65
419.984	5.62
420.342	5.58
420.699	5.55
421.057	5.52
421.414	5.49
421.772	5.46
422.129	5.44
422.486	5.43
422.844	5.41
423.201	5.4
423.558	5.38
423.915	5.37
424.273	5.35
424.63	5.34
424.987	5.33
425.344	5.32
425.701	5.31
426.058	5.3
426.415	5.28
426.772	5.26
427.128	5.24
427.485	5.22
427.842	5.2
428.199	5.17
428.555	5.14
428.912	5.11
429.269	5.07
429.625	5.04
429.982	5
430.338	4.96
430.695	4.93
431.051	4.89
431.407	4.85
431.764	4.82
432.12	4.79
432.476	4.78
432.832	4.76
433.189	4.76
433.545	4.75
433.901	4.77
434.257	4.79
434.613	4.81
434.969	4.84
435.325	4.87
435.681	4.91
436.036	4.92
436.392	4.94
436.748	4.95
437.104	4.95
437.459	4.97
437.815	4.98
438.171	5
438.526	5.02
438.882	5.05
439.237	5.09
439.593	5.12
439.948	5.15
440.304	5.19
440.659	5.21
441.014	5.23
441.369	5.26
441.725	5.27
442.08	5.29
442.435	5.3
442.79	5.3
443.145	5.3
443.5	5.29
443.855	5.29
444.21	5.28
444.565	5.27
444.92	5.26
445.275	5.24
445.629	5.22
445.984	5.22
446.339	5.2
446.693	5.19
447.048	5.17
447.403	5.15
447.757	5.11
448.112	5.09
448.466	5.05
448.82	5.03
449.175	5.01
449.529	4.99
449.883	4.96
450.238	4.93
450.592	4.92
450.946	4.91
451.3	4.9
451.654	4.91
452.008	4.9
452.362	4.9
452.716	4.9
453.07	4.89
453.424	4.88
453.778	4.87
454.132	4.84
454.486	4.83
454.839	4.8
455.193	4.77
455.547	4.75
455.9	4.72
456.254	4.69
456.607	4.65
456.961	4.62
457.314	4.61
457.668	4.6
458.021	4.59
458.375	4.59
458.728	4.59
459.081	4.6
459.434	4.61
459.787	4.61
460.141	4.63
460.494	4.64
460.847	4.64
461.2	4.65
461.553	4.67
461.906	4.68
462.259	4.69
462.611	4.69
462.964	4.71
463.317	4.72
463.67	4.72
464.022	4.73
464.375	4.73
464.728	4.74
465.08	4.74
465.433	4.75
465.785	4.75
466.138	4.74
466.49	4.73
466.843	4.72
467.195	4.71
467.547	4.7
467.899	4.69
468.252	4.66
468.604	4.65
468.956	4.64
469.308	4.63
469.66	4.64
470.012	4.64
470.364	4.66
470.716	4.67
471.068	4.7
471.42	4.74
471.772	4.76
472.123	4.78
472.475	4.8
472.827	4.82
473.178	4.83
473.53	4.84
473.882	4.86
474.233	4.89
474.585	4.93
474.936	5.01
475.288	5.11
475.639	5.24
475.99	5.39
476.342	5.57
476.693	5.76
477.044	5.94
477.395	6.14
477.746	6.33
478.097	6.52
478.448	6.72
478.8	6.91
479.15	7.09
479.501	7.25
479.852	7.4
480.203	7.54
480.554	7.67
480.905	7.8
481.255	7.91
481.606	8.03
481.957	8.13
482.307	8.23
482.658	8.33
483.009	8.42
483.359	8.5
483.709	8.59
484.06	8.67
484.41	8.75
484.761	8.82
485.111	8.89
485.461	8.96
485.811	9.03
486.162	9.09
486.512	9.14
486.862	9.18
487.212	9.21
487.562	9.23
487.912	9.24
488.262	9.24
488.612	9.24
488.961	9.21
489.311	9.18
489.661	9.1
490.011	9
490.36	8.88
490.71	8.74
491.06	8.59
491.409	8.43
491.759	8.27
492.108	8.1
492.458	7.93
492.807	7.75
493.157	7.57
493.506	7.4
493.855	7.25
494.204	7.1
494.554	6.97
494.903	6.85
495.252	6.73
495.601	6.62
495.95	6.51
496.299	6.42
496.648	6.33
496.997	6.25
497.346	6.17
497.695	6.1
498.043	6.04
498.392	5.98
498.741	5.92
499.09	5.87
499.438	5.82
499.787	5.78
500.135	5.75
500.484	5.73
500.832	5.72
501.181	5.72
501.529	5.74
501.878	5.77
502.226	5.82
502.574	5.87
502.923	5.92
503.271	5.99
503.619	6.05
503.967	6.12
504.315	6.19
504.663	6.25
505.011	6.32
505.359	6.39
505.707	6.46
506.055	6.54
506.403	6.63
506.751	6.71
507.098	6.8
507.446	6.9
507.794	7
508.141	7.11
508.489	7.23
508.837	7.34
509.184	7.46
509.531	7.58
509.879	7.7
510.226	7.83
510.574	7.97
510.921	8.11
511.268	8.25
511.616	8.41
511.963	8.57
512.31	8.74
512.657	8.9
513.004	9.06
513.351	9.21
513.698	9.35
514.045	9.49
514.392	9.63
514.739	9.75
515.086	9.86
515.432	9.98
515.779	10.11
516.126	10.25
516.473	10.39
516.819	10.54
517.166	10.71
517.512	10.89
517.859	11.08
518.205	11.29
518.552	11.51
518.898	11.77
519.245	12.06
519.591	12.4
519.937	12.8
520.283	13.28
520.629	13.79
520.976	14.33
521.322	14.89
521.668	15.46
522.014	16.02
522.36	16.59
522.706	17.15
523.052	17.71
523.398	18.23
523.743	18.72
524.089	19.17
524.435	19.59
524.781	20.01
525.126	20.42
525.472	20.83
525.817	21.23
526.163	21.62
526.509	22.01
526.854	22.39
527.199	22.77
527.545	23.15
527.89	23.55
528.235	23.95
528.581	24.33
528.926	24.69
529.271	25.04
529.616	25.37
529.961	25.66
530.306	25.93
530.651	26.21
530.996	26.45
531.341	26.7
531.686	26.92
532.031	27.15
532.376	27.4
532.721	27.67
533.065	27.96
533.41	28.28
533.755	28.56
534.099	28.81
534.444	29.04
534.788	29.25
535.133	29.46
535.477	29.64
535.822	29.8
536.166	29.93
536.51	30.01
536.855	30.04
537.199	30.05
537.543	30.06
537.887	30.08
538.231	30.14
538.576	30.21
538.92	30.26
539.264	30.31
539.608	30.33
539.951	30.35
540.295	30.35
540.639	30.33
540.983	30.31
541.327	30.28
541.671	30.27
542.014	30.25
542.358	30.25
542.701	30.34
543.045	30.45
543.389	30.6
543.732	30.76
544.075	30.93
544.419	31.14
544.762	31.33
545.105	31.56
545.449	31.8
545.792	32.05
546.135	32.29
546.478	32.49
546.821	32.65
547.165	32.76
547.508	32.81
547.851	32.84
548.194	32.82
548.536	32.77
548.879	32.68
549.222	32.58
549.565	32.47
549.908	32.37
550.25	32.29
550.593	32.26
550.936	32.3
551.278	32.38
551.621	32.5
551.963	32.65
552.306	32.81
552.648	33.01
552.991	33.22
553.333	33.46
553.675	33.74
554.017	34.04
554.36	34.37
554.702	34.75
555.044	35.15
555.386	35.6
555.728	36.01
556.07	36.4
556.412	36.78
556.754	37.06
557.096	37.34
557.438	37.63
557.78	37.91
558.121	38.19
558.463	38.47
558.805	38.74
559.147	39.02
559.488	39.29
559.83	39.56
560.171	39.84
560.513	40.1
560.854	40.36
561.196	40.62
561.537	40.87
561.878	41.11
562.22	41.35
562.561	41.59
562.902	41.82
563.243	42.06
563.584	42.29
563.925	42.52
564.266	42.75
564.607	42.96
564.948	43.19
565.289	43.4
565.63	43.61
565.971	43.81
566.312	44.02
566.653	44.21
566.993	44.4
567.334	44.58
567.675	44.76
568.015	44.94
568.356	45.12
568.696	45.29
569.037	45.44
569.377	45.6
569.718	45.76
570.058	45.9
570.398	46.05
570.739	46.18
571.079	46.31
571.419	46.43
571.759	46.55
572.099	46.67
572.439	46.78
572.779	46.91
573.119	47.02
573.459	47.12
573.799	47.24
574.139	47.35
574.479	47.45
574.819	47.54
575.158	47.63
575.498	47.73
575.838	47.82
576.177	47.91
576.517	48
576.856	48.08
577.196	48.16
577.535	48.24
577.875	48.31
578.214	48.39
578.553	48.47
578.893	48.55
579.232	48.62
579.571	48.7
579.91	48.78
580.25	48.86
580.589	48.93
580.928	49.01
581.267	49.09
581.606	49.17
581.945	49.26
582.283	49.33
582.622	49.4
582.961	49.48
583.3	49.56
583.639	49.64
583.977	49.74
584.316	49.8
584.654	49.88
584.993	49.95
585.332	50.03
585.67	50.11
586.008	50.18
586.347	50.25
586.685	50.33
587.024	50.4
587.362	50.47
587.7	50.55
588.038	50.62
588.376	50.71
588.715	50.79
589.053	50.89
589.391	50.98
589.729	51.07
590.067	51.15
590.404	51.24
590.742	51.32
591.08	51.4
591.418	51.49
591.756	51.57
592.093	51.64
592.431	51.71
592.769	51.78
593.106	51.84
593.444	51.89
593.781	51.93
594.119	51.98
594.456	52.02
594.793	52.08
595.131	52.12
595.468	52.17
595.805	52.22
596.143	52.28
596.48	52.34
596.817	52.4
597.154	52.46
597.491	52.53
597.828	52.6
598.165	52.68
598.502	52.74
598.839	52.8
599.176	52.86
599.512	52.9
599.849	52.95
600.186	53.01
600.523	53.05
600.859	53.1
601.196	53.13
601.532	53.19
601.869	53.22
602.205	53.26
602.542	53.31
602.878	53.35
603.215	53.38
603.551	53.41
603.887	53.44
604.223	53.47
604.56	53.5
604.896	53.53
605.232	53.55
605.568	53.57
605.904	53.6
606.24	53.61
606.576	53.63
606.912	53.66
607.248	53.68
607.583	53.72
607.919	53.74
608.255	53.76
608.591	53.78
608.926	53.81
609.262	53.83
609.597	53.85
609.933	53.87
610.268	53.89
610.604	53.89
610.939	53.91
611.275	53.91
611.61	53.91
611.945	53.9
612.281	53.91
612.616	53.93
612.951	53.93
613.286	53.95
613.621	53.96
613.956	53.96
614.291	53.96
614.626	53.99
614.961	54.03
615.296	54.04
615.631	54.06
615.966	54.07
616.3	54.08
616.635	54.08
616.97	54.07
617.304	54.08
617.639	54.09
617.973	54.1
618.308	54.11
618.642	54.12
618.977	54.14
619.311	54.16
619.646	54.18
619.98	54.22
620.314	54.26
620.648	54.3
620.983	54.33
621.317	54.35
621.651	54.39
621.985	54.43
622.319	54.44
622.653	54.48
622.987	54.5
623.321	54.53
623.655	54.55
623.988	54.58
624.322	54.6
624.656	54.63
624.99	54.66
625.323	54.67
625.657	54.69
625.99	54.71
626.324	54.73
626.657	54.75
626.991	54.76
627.324	54.78
627.658	54.8
627.991	54.83
628.324	54.83
628.657	54.85
628.991	54.87
629.324	54.89
629.657	54.92
629.99	54.93
630.323	54.95
630.656	54.97
630.989	55
631.322	55.02
631.655	55.05
631.987	55.07
632.32	55.1
632.653	55.11
632.986	55.13
633.318	55.14
633.651	55.15
633.984	55.15
634.316	55.17
634.649	55.18
634.981	55.19
635.313	55.2
635.646	55.19
635.978	55.21
636.31	55.22
636.643	55.24
636.975	55.24
637.307	55.23
637.639	55.26
637.971	55.28
638.303	55.29
638.635	55.3
638.967	55.32
639.299	55.33
639.631	55.36
639.963	55.37
640.295	55.39
640.626	55.41
640.958	55.43
641.29	55.45
641.621	55.46
641.953	55.48
642.285	55.5
642.616	55.5
642.948	55.49
643.279	55.52
643.61	55.54
643.942	55.55
644.273	55.57
644.604	55.57
644.936	55.58
645.267	55.58
645.598	55.59
645.929	55.59
646.26	55.6
646.591	55.61
646.922	55.63
647.253	55.66
647.584	55.67
647.915	55.67
648.245	55.68
648.576	55.7
648.907	55.72
649.238	55.75
649.568	55.75
649.899	55.75
650.229	55.77
650.56	55.8
650.89	55.85
651.221	55.87
651.551	55.87
651.882	55.91
652.212	55.93
652.542	55.93
652.872	55.96
653.203	55.98
653.533	55.99
653.863	56
654.193	56.01
654.523	56.03
654.853	56.05
655.183	56.07
655.513	56.1
655.843	56.11
656.172	56.13
656.502	56.16
656.832	56.16
657.162	56.18
657.491	56.19
657.821	56.22
658.15	56.24
658.48	56.25
658.809	56.27
659.139	56.29
659.468	56.32
659.798	56.34
660.127	56.36
660.456	56.38
660.785	56.4
661.115	56.42
661.444	56.44
661.773	56.45
662.102	56.46
662.431	56.45
662.76	56.48
663.089	56.49
663.418	56.51
663.747	56.51
664.076	56.52
664.404	56.52
664.733	56.53
665.062	56.56
665.39	56.57
665.719	56.56
666.048	56.58
666.376	56.59
666.705	56.61
667.033	56.61
667.362	56.61
667.69	56.63
668.018	56.62
668.347	56.62
668.675	56.6
669.003	56.59
669.331	56.6
669.659	56.6
669.987	56.61
670.315	56.61
670.643	56.63
670.971	56.65
671.299	56.64
671.627	56.63
671.955	56.64
672.283	56.64
672.61	56.66
672.938	56.68
673.266	56.69
673.593	56.69
673.921	56.67
674.249	56.67
674.576	56.71
674.904	56.72
675.231	56.74
675.558	56.76
675.886	56.82
676.213	56.83
676.54	56.86
676.867	56.88
677.195	56.9
677.522	56.9
677.849	56.95
678.176	56.96
678.503	56.96
678.83	56.97
679.157	57
679.484	57
679.81	57.02
680.137	57.01
680.464	57.02
680.791	57.05
681.117	57.07
681.444	57.1
681.771	57.13
682.097	57.15
682.424	57.18
682.75	57.19
683.077	57.21
683.403	57.23
683.729	57.26
684.056	57.27
684.382	57.28
684.708	57.29
685.034	57.34
685.36	57.34
685.686	57.38
686.012	57.39
686.339	57.42
686.664	57.45
686.99	57.47
687.316	57.52
687.642	57.55
687.968	57.55
688.294	57.57
688.619	57.58
688.945	57.61
689.271	57.59
689.596	57.6
689.922	57.58
690.247	57.59
690.573	57.58
690.898	57.6
691.224	57.57
691.549	57.58
691.874	57.59
692.2	57.61
692.525	57.62
692.85	57.63
693.175	57.63
693.5	57.66
693.825	57.68
694.15	57.67
694.475	57.69
694.8	57.69
695.125	57.69
695.45	57.72
695.775	57.72
696.099	57.74
696.424	57.76
696.749	57.77
697.073	57.77
697.398	57.77
697.723	57.79
698.047	57.79
698.372	57.8
698.696	57.81
699.02	57.81
699.345	57.8
699.669	57.78
699.993	57.8
700.318	57.82
700.642	57.82
700.966	57.82
701.29	57.84
701.614	57.85
701.938	57.85
702.262	57.85
702.586	57.89
702.91	57.9
703.234	57.93
703.557	57.94
703.881	57.99
704.205	58.02
704.529	58.08
704.852	58.1
705.176	58.14
705.499	58.16
705.823	58.16
706.146	58.18
706.47	58.2
706.793	58.22
707.117	58.3
707.44	58.34
707.763	58.33
708.086	58.36
708.409	58.37
708.733	58.38
709.056	58.4
709.379	58.41
709.702	58.41
710.025	58.42
710.348	58.36
710.671	58.4
710.993	58.41
711.316	58.42
711.639	58.45
711.962	58.46
712.284	58.49
712.607	58.51
712.93	58.53
713.252	58.53
713.575	58.54
713.897	58.57
714.22	58.6
714.542	58.63
714.864	58.68
715.187	58.72
715.509	58.74
715.831	58.74
716.153	58.76
716.475	58.75
716.798	58.79
717.12	58.88
717.442	58.89
717.764	58.88
718.085	58.85
718.407	58.84
718.729	58.85
719.051	58.9
719.373	58.92
719.695	58.95
720.016	58.93
720.338	58.87
720.659	58.89
720.981	58.89
721.302	58.89
721.624	58.92
721.945	58.92
722.267	58.92
722.588	58.94
722.909	59
723.231	59.02
723.552	59.06
723.873	59.08
724.194	59.06
724.515	59.07
724.836	59.13
725.157	59.11
725.478	59.13
725.799	59.14
726.12	59.17
726.441	59.18
726.762	59.2
727.083	59.21
727.403	59.19
727.724	59.18
728.045	59.15
728.365	59.16
728.686	59.18
729.006	59.18
729.327	59.19
729.647	59.21
729.967	59.18
730.288	59.16
730.608	59.17
730.928	59.18
731.249	59.21
731.569	59.21
731.889	59.21
732.209	59.24
732.529	59.24
732.849	59.22
733.169	59.25
733.489	59.23
733.809	59.21
734.129	59.23
734.448	59.22
734.768	59.2
735.088	59.23
735.408	59.21
735.727	59.22
736.047	59.21
736.366	59.23
736.686	59.23
737.005	59.21
737.325	59.21
737.644	59.2
737.963	59.19
738.283	59.21
738.602	59.18
738.921	59.21
739.24	59.2
739.56	59.21
739.879	59.19
740.198	59.16
740.517	59.18
740.836	59.16
741.155	59.15
741.473	59.13
741.792	59.15
742.111	59.15
742.43	59.16
742.748	59.16
743.067	59.13
743.386	59.15
743.704	59.17
744.023	59.17
744.341	59.14
744.66	59.16
744.978	59.13
745.297	59.12
745.615	59.14
745.933	59.15
746.252	59.13
746.57	59.12
746.888	59.18
747.206	59.2
747.524	59.2
747.842	59.22
748.16	59.24
748.478	59.28
748.796	59.22
749.114	59.22
749.432	59.22
749.749	59.23
750.067	59.19
750.385	59.19
750.703	59.2
751.02	59.21
751.338	59.21
751.655	59.24
751.973	59.23
752.29	59.25
752.608	59.28
752.925	59.26
753.242	59.32
753.56	59.34
753.877	59.35
754.194	59.39
754.511	59.42
754.828	59.4
755.145	59.44
755.462	59.48
755.779	59.47
756.096	59.53
756.413	59.55
756.73	59.53
757.047	59.55
757.364	59.6
757.68	59.63
757.997	59.65
758.314	59.67
758.63	59.67
758.947	59.76
759.264	59.85
759.58	59.88
759.896	59.9
760.213	59.92
760.529	59.95
760.846	59.96
761.162	59.93
761.478	59.94
761.794	59.99
762.11	59.99
762.426	60.02
762.743	60.02
763.059	60.1
763.375	60.16
763.69	60.18
764.006	60.21
764.322	60.23
764.638	60.25
764.954	60.25
765.27	60.27
765.585	60.25
765.901	60.31
766.216	60.23
766.532	60.23
766.848	60.21
767.163	60.21
767.478	60.22
767.794	60.25
768.109	60.23
768.424	60.24
768.74	60.27
769.055	60.27
769.37	60.28
769.685	60.29
770	60.28
770.315	60.27
770.63	60.25
770.945	60.22
771.26	60.21
771.575	60.17
771.89	60.1
772.205	60.04
772.52	60.02
772.834	60.04
773.149	60.01
773.464	59.97
773.778	59.96
774.093	59.97
774.407	59.95
774.722	59.89
775.036	59.87
775.351	59.81
775.665	59.81
775.979	59.8
776.293	59.76
776.608	59.75
776.922	59.7
777.236	59.75
777.55	59.81
777.864	59.86
778.178	59.82
778.492	59.84
778.806	59.81
779.12	59.85
779.434	59.83
779.747	59.82
780.061	59.93
780.375	59.93
780.689	59.86
781.002	59.88
781.316	59.83
781.629	59.88
781.943	59.87
782.256	59.86
782.57	59.91
782.883	59.87
783.196	59.81
783.51	59.8
783.823	59.78
784.136	59.76
784.449	59.79
784.762	59.8
785.075	59.8
785.388	59.82
785.701	59.84
786.014	59.84
786.327	59.85
786.64	59.83
786.953	59.84
787.266	59.85
787.578	59.93
787.891	59.99
788.204	60
788.516	60.01
788.829	59.96
789.141	59.87
789.454	59.91
789.766	59.94
790.079	59.91
790.391	59.86
790.703	59.86
791.016	59.84
791.328	59.83
791.64	59.85
791.952	59.91
792.264	59.93
792.576	59.95
792.888	59.92
793.2	59.94
793.512	59.98
793.824	59.93
794.136	59.96
794.448	59.93
794.76	59.95
795.071	59.96
795.383	59.95
795.695	60.06
796.006	60.1
796.318	60.13
796.629	60.18
796.941	60.21
797.252	60.22
797.564	60.27
797.875	60.28
798.186	60.21
798.497	60.25
798.809	60.17
799.12	60.2
799.431	60.22
799.742	60.24
800.053	60.24
800.364	60.25
800.675	60.22
800.986	60.24
801.297	60.3
801.608	60.31
801.918	60.42
802.229	60.35
802.54	60.29
802.851	60.28
803.161	60.27
803.472	60.25
803.782	60.27
804.093	60.3
804.403	60.25
804.714	60.23
805.024	60.24
805.334	60.29
805.645	60.25
805.955	60.25
806.265	60.27
806.575	60.29
806.885	60.21
807.195	60.22
807.505	60.23
807.815	60.29
808.125	60.28
808.435	60.24
808.745	60.28
809.055	60.26
809.365	60.32
809.674	60.34
809.984	60.41
810.294	60.44
810.603	60.45
810.913	60.55
811.222	60.49
811.532	60.57
811.841	60.59
812.151	60.58
812.46	60.6
812.769	60.6
813.079	60.61
813.388	60.68
813.697	60.65
814.006	60.56
814.315	60.57
814.624	60.56
814.933	60.65
815.242	60.64
815.551	60.72
815.86	60.69
816.169	60.74
816.478	60.54
816.786	60.53
817.095	60.51
817.404	60.45
817.712	60.46
818.021	60.5
818.33	60.56
818.638	60.53
818.947	60.55
819.255	60.54
819.563	60.59
819.872	60.66
820.18	60.75
820.488	60.78
820.796	60.8
821.105	60.83
821.413	60.85
821.721	60.87
822.029	60.86
822.337	60.88
822.645	60.85
822.953	60.83
823.26	60.82
823.568	60.84
823.876	60.83
824.184	60.82
824.491	60.82
824.799	60.84
825.107	60.85
825.414	60.89
825.722	60.9
826.029	60.89
826.337	60.89
826.644	60.88
826.951	60.89
827.259	60.9
827.566	60.88
827.873	60.91
828.18	60.89
828.488	60.9
828.795	60.88
829.102	60.95
829.409	60.97
829.716	60.98
830.023	61
830.329	61.03
830.636	61.01
830.943	61.01
831.25	61.08
831.557	61.08
831.863	61.11
832.17	61.14
832.476	61.11
832.783	61.01
833.089	60.96
833.396	60.92
833.702	60.88
834.009	60.84
834.315	60.84
834.621	60.9
834.928	60.85
835.234	60.86
835.54	60.87
835.846	60.93
836.152	60.9
836.458	60.9
836.764	60.92
837.07	60.87
837.376	60.85
837.682	60.78
837.988	60.72
838.293	60.6
838.599	60.57
838.905	60.58
839.211	60.65
839.516	60.62
839.822	60.66
840.127	60.73
840.433	60.71
840.738	60.71
841.044	60.73
841.349	60.84
841.654	60.89
841.959	60.92
842.265	60.94
842.57	60.98
842.875	61.07
843.18	61.18
843.485	61.21
843.79	61.14
844.095	61.23
844.4	61.09
844.705	60.98
845.01	60.98
845.315	60.99
845.619	60.97
845.924	61.02
846.229	60.93
846.533	60.85
846.838	60.84
847.142	60.57
847.447	60.65
847.751	60.59
848.056	60.68
848.36	60.54
848.664	60.49
848.969	60.49
849.273	60.3
849.577	60.35
849.881	60.17
850.185	60.3
850.489	60.49
850.794	60.61
851.097	60.57
851.401	60.57
851.705	60.61
852.009	60.73
852.313	60.62
852.617	60.55
852.92	60.48
853.224	60.44
853.528	60.39
853.831	60.27
854.135	60.16
854.438	60.01
854.742	60.04
855.045	60.2
855.349	60.12
855.652	60.25
855.955	60.28
856.259	60.38
856.562	60.36
856.865	60.4
857.168	60.41
857.471	60.38
857.774	60.38
858.077	60.31
858.38	60.31
858.683	60.19
858.986	60.27
859.289	60.49
859.592	60.67
859.894	60.72
860.197	60.7
860.5	60.5
860.802	60.74
861.105	60.8
861.407	60.79
861.71	60.89
862.012	60.9
862.315	61
862.617	60.88
862.919	60.58
863.222	60.68
863.524	60.9
863.826	61.01
864.128	61.13
864.43	61.12
864.732	61.03
865.034	60.98
865.336	61.04
865.638	60.84
865.94	60.8
866.242	60.83
866.544	60.51
866.846	60.8
867.147	60.65
867.449	60.63
867.751	60.59
868.052	60.55
868.354	60.45
868.655	60.55
868.957	60.6
869.258	60.74
869.56	60.87
869.861	60.9
870.162	60.88
870.463	60.89
870.765	60.8
871.066	60.89
871.367	60.73
871.668	60.84
871.969	60.89
872.27	60.91
872.571	60.92
872.872	61.16
873.173	61.03
873.473	61.12
873.774	61.27
874.075	61.29
874.376	61.32
874.676	61.32
874.977	61.16
875.277	61.16
875.578	61.13
875.878	60.78
876.179	60.82
876.479	60.6
876.78	60.68
877.08	60.77
877.38	60.98
877.68	61.1
877.981	61.3
878.281	61.39
878.581	61.36
