Data from UWBM12228_Reflection_00008.txt Node
Date: Sun May 02 12:53:45 EDT 2021
User: vgr7
Spectrometer: USB2G7710
Scans to average: 10
Trigger mode: 4
Integration Time (sec): 1.000000E-1
Electric dark correction enabled: true
Boxcar width: 20
XAxis mode: Wavelengths
Number of Pixels in Spectrum: 2048
>>>>>Begin Spectral Data<<<<<
177.721	99.31
178.105	100.28
178.488	100.52
178.871	100.39
179.254	99.71
179.636	98.15
180.019	97.81
180.402	95.87
180.785	95.65
181.168	93.46
181.55	90.02
181.933	109
182.316	109.36
182.698	110.67
183.081	111.19
183.463	112.33
183.846	114.3
184.228	115.4
184.611	115.05
184.993	117.82
185.376	120.86
185.758	-49.86
186.14	-0
186.522	18.39
186.904	26.54
187.287	33.06
187.669	38.2
188.051	34.95
188.433	37.21
188.815	32.69
189.197	33.94
189.579	33.19
189.961	33.24
190.342	30.98
190.724	28.75
191.106	26.26
191.488	27.64
191.869	24.44
192.251	23.84
192.633	23
193.014	20.58
193.396	18.18
193.777	22.58
194.159	21.35
194.54	19.34
194.922	20.24
195.303	22.68
195.684	23.41
196.065	23.48
196.447	21.11
196.828	20.68
197.209	21.51
197.59	12.22
197.971	10.41
198.352	11.79
198.733	12.98
199.114	11.77
199.495	10.74
199.876	12.04
200.257	9.59
200.638	9.74
201.018	6.02
201.399	5.17
201.78	2.18
202.16	1.82
202.541	3.15
202.922	2.67
203.302	-0.48
203.683	0.06
204.063	0.04
204.444	2.34
204.824	3.63
205.204	6.42
205.585	14.78
205.965	14.86
206.345	17.22
206.725	13.63
207.106	14.11
207.486	13.79
207.866	13.81
208.246	14.01
208.626	16.61
209.006	22.24
209.386	18.03
209.766	19.06
210.145	18.4
210.525	17.53
210.905	17.24
211.285	16.22
211.664	15
212.044	16.21
212.424	15.76
212.803	10.16
213.183	12.33
213.562	13.53
213.942	11.66
214.321	9.85
214.701	9.74
215.08	11.89
215.459	11.73
215.838	11.7
216.218	11.97
216.597	10.22
216.976	7.65
217.355	7.56
217.734	8.05
218.113	8.4
218.492	10.5
218.871	11.1
219.25	11.95
219.629	11.06
220.008	10.03
220.387	11.1
220.766	11.1
221.144	9.69
221.523	10.19
221.902	10.98
222.28	10.91
222.659	11.69
223.037	11.13
223.416	11.04
223.794	11.02
224.173	10.17
224.551	9.6
224.929	9.66
225.308	9.67
225.686	9.75
226.064	9.56
226.442	9.44
226.821	8.78
227.199	8.45
227.577	7.68
227.955	7.29
228.333	7.59
228.711	7.24
229.089	7.55
229.467	7.24
229.845	7.48
230.222	7.43
230.6	7.63
230.978	7.44
231.356	6.81
231.733	6.88
232.111	7.01
232.488	6.79
232.866	6.61
233.243	6.22
233.621	6.04
233.998	5.53
234.376	5.47
234.753	5.46
235.13	5.36
235.508	5.79
235.885	5.57
236.262	5.51
236.639	5.64
237.016	5.57
237.393	5.39
237.77	5.25
238.147	5.13
238.524	5.09
238.901	5.13
239.278	5.16
239.655	5.11
240.032	5.03
240.409	4.99
240.785	4.9
241.162	4.89
241.539	4.8
241.915	4.75
242.292	4.73
242.668	4.69
243.045	4.64
243.421	4.54
243.798	4.5
244.174	4.5
244.551	4.43
244.927	4.26
245.303	4.21
245.679	4.19
246.056	4.12
246.432	4.07
246.808	3.86
247.184	3.84
247.56	3.8
247.936	3.81
248.312	3.8
248.688	3.86
249.064	3.86
249.44	3.85
249.815	3.88
250.191	3.83
250.567	3.83
250.943	3.89
251.318	3.89
251.694	3.81
252.069	3.74
252.445	3.75
252.82	3.84
253.196	3.86
253.571	3.8
253.947	3.86
254.322	3.81
254.697	3.91
255.073	3.89
255.448	3.88
255.823	3.86
256.198	3.81
256.573	3.64
256.948	3.64
257.323	3.66
257.698	3.62
258.073	3.61
258.448	3.51
258.823	3.5
259.198	3.48
259.573	3.48
259.948	3.51
260.322	3.48
260.697	3.48
261.072	3.48
261.446	3.47
261.821	3.45
262.195	3.44
262.57	3.4
262.944	3.4
263.319	3.38
263.693	3.41
264.067	3.42
264.442	3.51
264.816	3.5
265.19	3.46
265.564	3.5
265.938	3.46
266.313	3.49
266.687	3.45
267.061	3.47
267.435	3.45
267.809	3.43
268.183	3.41
268.556	3.42
268.93	3.43
269.304	3.42
269.678	3.39
270.051	3.38
270.425	3.39
270.799	3.38
271.172	3.38
271.546	3.38
271.919	3.4
272.293	3.39
272.666	3.38
273.04	3.39
273.413	3.34
273.787	3.33
274.16	3.33
274.533	3.37
274.906	3.34
275.279	3.34
275.653	3.34
276.026	3.33
276.399	3.3
276.772	3.3
277.145	3.32
277.518	3.33
277.891	3.35
278.263	3.35
278.636	3.36
279.009	3.38
279.382	3.34
279.755	3.3
280.127	3.32
280.5	3.31
280.872	3.31
281.245	3.41
281.617	3.43
281.99	3.46
282.362	3.49
282.735	3.49
283.107	3.47
283.479	3.48
283.852	3.49
284.224	3.5
284.596	3.48
284.968	3.37
285.34	3.35
285.713	3.34
286.085	3.28
286.457	3.29
286.829	3.29
287.201	3.29
287.572	3.34
287.944	3.37
288.316	3.41
288.688	3.46
289.06	3.46
289.431	3.47
289.803	3.47
290.175	3.49
290.546	3.53
290.918	3.54
291.289	3.51
291.661	3.52
292.032	3.5
292.403	3.53
292.775	3.62
293.146	3.64
293.517	3.68
293.889	3.76
294.26	3.76
294.631	3.8
295.002	3.84
295.373	3.89
295.744	3.91
296.115	3.92
296.486	3.88
296.857	3.91
297.228	3.92
297.599	3.93
297.97	3.93
298.34	3.98
298.711	3.94
299.082	3.96
299.452	4.02
299.823	4.09
300.194	4.13
300.564	4.15
300.935	4.18
301.305	4.19
301.676	4.19
302.046	4.22
302.416	4.25
302.787	4.29
303.157	4.25
303.527	4.28
303.897	4.31
304.267	4.37
304.637	4.43
305.008	4.48
305.378	4.54
305.748	4.57
306.117	4.67
306.487	4.78
306.857	4.89
307.227	4.92
307.597	4.98
307.967	5.01
308.336	5.05
308.706	5.11
309.076	5.16
309.445	5.2
309.815	5.15
310.184	5.19
310.554	5.16
310.923	5.23
311.293	5.29
311.662	5.34
312.031	5.37
312.401	5.41
312.77	5.44
313.139	5.49
313.508	5.56
313.877	5.55
314.246	5.58
314.616	5.58
314.985	5.58
315.353	5.64
315.722	5.69
316.091	5.75
316.46	5.81
316.829	5.88
317.198	5.94
317.567	6.12
317.935	6.18
318.304	6.28
318.672	6.35
319.041	6.42
319.41	6.49
319.778	6.56
320.147	6.63
320.515	6.68
320.883	6.73
321.252	6.73
321.62	6.82
321.988	6.86
322.357	6.91
322.725	6.99
323.093	7.04
323.461	7.09
323.829	7.13
324.197	7.16
324.565	7.18
324.933	7.21
325.301	7.23
325.669	7.27
326.037	7.31
326.405	7.3
326.772	7.33
327.14	7.37
327.508	7.38
327.875	7.4
328.243	7.44
328.61	7.43
328.978	7.48
329.346	7.5
329.713	7.5
330.08	7.52
330.448	7.53
330.815	7.54
331.182	7.56
331.55	7.57
331.917	7.62
332.284	7.65
332.651	7.69
333.018	7.7
333.385	7.74
333.752	7.77
334.119	7.8
334.486	7.82
334.853	7.83
335.22	7.85
335.587	7.87
335.954	7.89
336.32	7.92
336.687	7.93
337.054	7.97
337.42	8.01
337.787	8.03
338.153	8.07
338.52	8.12
338.886	8.16
339.253	8.17
339.619	8.17
339.986	8.17
340.352	8.19
340.718	8.22
341.084	8.23
341.451	8.24
341.817	8.25
342.183	8.24
342.549	8.28
342.915	8.29
343.281	8.32
343.647	8.35
344.013	8.38
344.379	8.4
344.745	8.43
345.11	8.44
345.476	8.47
345.842	8.49
346.208	8.47
346.573	8.48
346.939	8.49
347.304	8.51
347.67	8.51
348.035	8.51
348.401	8.49
348.766	8.51
349.132	8.52
349.497	8.54
349.862	8.53
350.228	8.54
350.593	8.55
350.958	8.54
351.323	8.52
351.688	8.53
352.053	8.5
352.418	8.49
352.783	8.47
353.148	8.45
353.513	8.42
353.878	8.42
354.243	8.4
354.608	8.37
354.972	8.36
355.337	8.34
355.702	8.3
356.066	8.29
356.431	8.26
356.795	8.24
357.16	8.2
357.524	8.18
357.889	8.16
358.253	8.14
358.618	8.12
358.982	8.11
359.346	8.08
359.71	8.05
360.075	8.04
360.439	8.01
360.803	7.98
361.167	7.95
361.531	7.94
361.895	7.92
362.259	7.88
362.623	7.86
362.987	7.83
363.351	7.82
363.714	7.8
364.078	7.77
364.442	7.73
364.806	7.71
365.169	7.66
365.533	7.62
365.896	7.57
366.26	7.54
366.623	7.48
366.987	7.44
367.35	7.41
367.714	7.38
368.077	7.34
368.44	7.3
368.803	7.26
369.167	7.22
369.53	7.17
369.893	7.13
370.256	7.08
370.619	7.04
370.982	6.98
371.345	6.93
371.708	6.88
372.071	6.84
372.434	6.79
372.797	6.75
373.159	6.72
373.522	6.67
373.885	6.61
374.247	6.54
374.61	6.49
374.973	6.43
375.335	6.38
375.698	6.33
376.06	6.28
376.423	6.22
376.785	6.17
377.147	6.12
377.51	6.08
377.872	6.02
378.234	5.98
378.596	5.94
378.958	5.9
379.321	5.86
379.683	5.81
380.045	5.77
380.407	5.73
380.769	5.69
381.13	5.66
381.492	5.63
381.854	5.59
382.216	5.55
382.578	5.52
382.939	5.49
383.301	5.44
383.663	5.41
384.024	5.37
384.386	5.34
384.747	5.3
385.109	5.26
385.47	5.22
385.832	5.2
386.193	5.16
386.554	5.12
386.916	5.09
387.277	5.06
387.638	5.04
387.999	5.01
388.36	4.99
388.721	4.96
389.082	4.94
389.443	4.92
389.804	4.9
390.165	4.88
390.526	4.85
390.887	4.82
391.248	4.79
391.609	4.77
391.969	4.75
392.33	4.73
392.691	4.71
393.051	4.69
393.412	4.66
393.772	4.64
394.133	4.61
394.493	4.58
394.854	4.56
395.214	4.53
395.574	4.51
395.935	4.48
396.295	4.45
396.655	4.43
397.015	4.4
397.376	4.37
397.736	4.35
398.096	4.32
398.456	4.3
398.816	4.29
399.176	4.25
399.535	4.24
399.895	4.22
400.255	4.2
400.615	4.18
400.975	4.16
401.334	4.14
401.694	4.12
402.054	4.1
402.413	4.06
402.773	4.05
403.132	4.04
403.492	4.02
403.851	4
404.211	3.99
404.57	3.99
404.929	3.98
405.288	3.97
405.648	3.96
406.007	3.95
406.366	3.95
406.725	3.94
407.084	3.93
407.443	3.92
407.802	3.9
408.161	3.88
408.52	3.87
408.879	3.86
409.238	3.85
409.596	3.84
409.955	3.85
410.314	3.84
410.673	3.83
411.031	3.82
411.39	3.82
411.748	3.81
412.107	3.81
412.465	3.81
412.824	3.82
413.182	3.82
413.54	3.83
413.899	3.84
414.257	3.85
414.615	3.87
414.974	3.89
415.332	3.92
415.69	3.95
416.048	3.96
416.406	3.99
416.764	4
417.122	4.02
417.48	4.04
417.838	4.05
418.195	4.07
418.553	4.08
418.911	4.08
419.269	4.08
419.626	4.07
419.984	4.06
420.342	4.04
420.699	4.02
421.057	3.99
421.414	3.98
421.772	3.96
422.129	3.95
422.486	3.94
422.844	3.94
423.201	3.93
423.558	3.93
423.915	3.92
424.273	3.91
424.63	3.91
424.987	3.9
425.344	3.89
425.701	3.89
426.058	3.88
426.415	3.88
426.772	3.87
427.128	3.86
427.485	3.85
427.842	3.84
428.199	3.83
428.555	3.81
428.912	3.79
429.269	3.77
429.625	3.75
429.982	3.72
430.338	3.7
430.695	3.68
431.051	3.65
431.407	3.63
431.764	3.61
432.12	3.59
432.476	3.58
432.832	3.56
433.189	3.57
433.545	3.57
433.901	3.58
434.257	3.6
434.613	3.62
434.969	3.64
435.325	3.66
435.681	3.69
436.036	3.7
436.392	3.72
436.748	3.72
437.104	3.72
437.459	3.73
437.815	3.75
438.171	3.76
438.526	3.78
438.882	3.8
439.237	3.83
439.593	3.86
439.948	3.89
440.304	3.91
440.659	3.93
441.014	3.95
441.369	3.97
441.725	3.98
442.08	4
442.435	4
442.79	4
443.145	4
443.5	4
443.855	4
444.21	3.99
444.565	3.99
444.92	3.98
445.275	3.97
445.629	3.96
445.984	3.96
446.339	3.95
446.693	3.94
447.048	3.93
447.403	3.92
447.757	3.89
448.112	3.87
448.466	3.85
448.82	3.83
449.175	3.82
449.529	3.8
449.883	3.79
450.238	3.77
450.592	3.76
450.946	3.76
451.3	3.75
451.654	3.76
452.008	3.76
452.362	3.76
452.716	3.76
453.07	3.76
453.424	3.75
453.778	3.74
454.132	3.73
454.486	3.72
454.839	3.7
455.193	3.68
455.547	3.67
455.9	3.64
456.254	3.62
456.607	3.6
456.961	3.58
457.314	3.56
457.668	3.56
458.021	3.55
458.375	3.55
458.728	3.56
459.081	3.56
459.434	3.56
459.787	3.57
460.141	3.58
460.494	3.59
460.847	3.59
461.2	3.6
461.553	3.61
461.906	3.62
462.259	3.62
462.611	3.63
462.964	3.64
463.317	3.64
463.67	3.65
464.022	3.65
464.375	3.65
464.728	3.65
465.08	3.66
465.433	3.66
465.785	3.66
466.138	3.65
466.49	3.64
466.843	3.63
467.195	3.62
467.547	3.61
467.899	3.6
468.252	3.58
468.604	3.56
468.956	3.55
469.308	3.54
469.66	3.54
470.012	3.54
470.364	3.55
470.716	3.55
471.068	3.57
471.42	3.6
471.772	3.62
472.123	3.63
472.475	3.64
472.827	3.65
473.178	3.66
473.53	3.67
473.882	3.69
474.233	3.7
474.585	3.74
474.936	3.79
475.288	3.86
475.639	3.96
475.99	4.07
476.342	4.21
476.693	4.35
477.044	4.48
477.395	4.63
477.746	4.77
478.097	4.92
478.448	5.07
478.8	5.21
479.15	5.35
479.501	5.47
479.852	5.58
480.203	5.69
480.554	5.79
480.905	5.89
481.255	5.98
481.606	6.07
481.957	6.14
482.307	6.22
482.658	6.3
483.009	6.37
483.359	6.44
483.709	6.51
484.06	6.57
484.41	6.63
484.761	6.69
485.111	6.75
485.461	6.8
485.811	6.85
486.162	6.9
486.512	6.94
486.862	6.97
487.212	6.99
487.562	7.01
487.912	7.02
488.262	7.03
488.612	7.03
488.961	7.01
489.311	6.98
489.661	6.92
490.011	6.85
490.36	6.76
490.71	6.65
491.06	6.54
491.409	6.42
491.759	6.29
492.108	6.17
492.458	6.04
492.807	5.91
493.157	5.77
493.506	5.64
493.855	5.52
494.204	5.41
494.554	5.3
494.903	5.2
495.252	5.11
495.601	5.02
495.95	4.94
496.299	4.87
496.648	4.8
496.997	4.73
497.346	4.67
497.695	4.61
498.043	4.56
498.392	4.51
498.741	4.47
499.09	4.42
499.438	4.38
499.787	4.34
500.135	4.31
500.484	4.29
500.832	4.28
501.181	4.28
501.529	4.28
501.878	4.31
502.226	4.33
502.574	4.37
502.923	4.4
503.271	4.44
503.619	4.49
503.967	4.54
504.315	4.58
504.663	4.63
505.011	4.68
505.359	4.72
505.707	4.77
506.055	4.83
506.403	4.89
506.751	4.95
507.098	5
507.446	5.07
507.794	5.15
508.141	5.22
508.489	5.31
508.837	5.39
509.184	5.47
509.531	5.56
509.879	5.64
510.226	5.74
510.574	5.83
510.921	5.93
511.268	6.04
511.616	6.14
511.963	6.26
512.31	6.37
512.657	6.49
513.004	6.6
513.351	6.7
513.698	6.8
514.045	6.9
514.392	7
514.739	7.09
515.086	7.17
515.432	7.26
515.779	7.36
516.126	7.45
516.473	7.56
516.819	7.66
517.166	7.79
517.512	7.92
517.859	8.05
518.205	8.2
518.552	8.37
518.898	8.55
519.245	8.76
519.591	9
519.937	9.3
520.283	9.64
520.629	10.01
520.976	10.41
521.322	10.82
521.668	11.23
522.014	11.65
522.36	12.07
522.706	12.48
523.052	12.88
523.398	13.27
523.743	13.62
524.089	13.96
524.435	14.27
524.781	14.58
525.126	14.89
525.472	15.19
525.817	15.49
526.163	15.79
526.509	16.08
526.854	16.37
527.199	16.66
527.545	16.96
527.89	17.26
528.235	17.56
528.581	17.85
528.926	18.13
529.271	18.4
529.616	18.65
529.961	18.88
530.306	19.09
530.651	19.31
530.996	19.51
531.341	19.7
531.686	19.89
532.031	20.07
532.376	20.27
532.721	20.48
533.065	20.73
533.41	20.98
533.755	21.22
534.099	21.43
534.444	21.64
534.788	21.83
535.133	22.01
535.477	22.19
535.822	22.35
536.166	22.48
536.51	22.58
536.855	22.64
537.199	22.68
537.543	22.72
537.887	22.78
538.231	22.85
538.576	22.94
538.92	23.01
539.264	23.08
539.608	23.14
539.951	23.18
540.295	23.21
540.639	23.24
540.983	23.25
541.327	23.27
541.671	23.29
542.014	23.31
542.358	23.34
542.701	23.44
543.045	23.56
543.389	23.7
543.732	23.85
544.075	24.02
544.419	24.21
544.762	24.39
545.105	24.6
545.449	24.81
545.792	25.04
546.135	25.26
546.478	25.46
546.821	25.63
547.165	25.74
547.508	25.83
547.851	25.88
548.194	25.91
548.536	25.91
548.879	25.88
549.222	25.85
549.565	25.8
549.908	25.76
550.25	25.74
550.593	25.77
550.936	25.83
551.278	25.96
551.621	26.1
551.963	26.27
552.306	26.45
552.648	26.65
552.991	26.87
553.333	27.11
553.675	27.37
554.017	27.66
554.36	27.98
554.702	28.32
555.044	28.69
555.386	29.11
555.728	29.48
556.07	29.85
556.412	30.2
556.754	30.48
557.096	30.75
557.438	31.03
557.78	31.3
558.121	31.58
558.463	31.85
558.805	32.12
559.147	32.39
559.488	32.66
559.83	32.94
560.171	33.21
560.513	33.48
560.854	33.73
561.196	33.99
561.537	34.25
561.878	34.49
562.22	34.73
562.561	34.97
562.902	35.21
563.243	35.45
563.584	35.68
563.925	35.91
564.266	36.14
564.607	36.37
564.948	36.59
565.289	36.8
565.63	37.01
565.971	37.21
566.312	37.42
566.653	37.62
566.993	37.82
567.334	38.02
567.675	38.21
568.015	38.41
568.356	38.59
568.696	38.77
569.037	38.93
569.377	39.1
569.718	39.26
570.058	39.41
570.398	39.56
570.739	39.7
571.079	39.84
571.419	39.97
571.759	40.11
572.099	40.23
572.439	40.36
572.779	40.5
573.119	40.63
573.459	40.75
573.799	40.88
574.139	41
574.479	41.12
574.819	41.23
575.158	41.34
575.498	41.45
575.838	41.56
576.177	41.67
576.517	41.78
576.856	41.87
577.196	41.97
577.535	42.06
577.875	42.16
578.214	42.26
578.553	42.35
578.893	42.44
579.232	42.54
579.571	42.64
579.91	42.74
580.25	42.82
580.589	42.92
580.928	43.01
581.267	43.1
581.606	43.18
581.945	43.28
582.283	43.36
582.622	43.46
582.961	43.56
583.3	43.67
583.639	43.76
583.977	43.87
584.316	43.97
584.654	44.08
584.993	44.17
585.332	44.26
585.67	44.34
586.008	44.44
586.347	44.52
586.685	44.61
587.024	44.69
587.362	44.78
587.7	44.87
588.038	44.96
588.376	45.05
588.715	45.15
589.053	45.26
589.391	45.35
589.729	45.45
590.067	45.54
590.404	45.62
590.742	45.71
591.08	45.81
591.418	45.9
591.756	45.98
592.093	46.05
592.431	46.14
592.769	46.21
593.106	46.28
593.444	46.35
593.781	46.4
594.119	46.46
594.456	46.52
594.793	46.59
595.131	46.65
595.468	46.72
595.805	46.78
596.143	46.85
596.48	46.91
596.817	46.98
597.154	47.06
597.491	47.12
597.828	47.19
598.165	47.27
598.502	47.33
598.839	47.4
599.176	47.45
599.512	47.51
599.849	47.57
600.186	47.63
600.523	47.68
600.859	47.72
601.196	47.77
601.532	47.82
601.869	47.86
602.205	47.91
602.542	47.97
602.878	48
603.215	48.06
603.551	48.09
603.887	48.13
604.223	48.17
604.56	48.22
604.896	48.25
605.232	48.28
605.568	48.32
605.904	48.36
606.24	48.38
606.576	48.41
606.912	48.43
607.248	48.46
607.583	48.5
607.919	48.54
608.255	48.56
608.591	48.59
608.926	48.62
609.262	48.65
609.597	48.68
609.933	48.71
610.268	48.74
610.604	48.75
610.939	48.77
611.275	48.79
611.61	48.81
611.945	48.83
612.281	48.84
612.616	48.85
612.951	48.88
613.286	48.91
613.621	48.92
613.956	48.94
614.291	48.97
614.626	49.01
614.961	49.04
615.296	49.07
615.631	49.09
615.966	49.11
616.3	49.12
616.635	49.14
616.97	49.15
617.304	49.17
617.639	49.19
617.973	49.2
618.308	49.23
618.642	49.25
618.977	49.27
619.311	49.29
619.646	49.32
619.98	49.36
620.314	49.39
620.648	49.44
620.983	49.47
621.317	49.5
621.651	49.52
621.985	49.56
622.319	49.57
622.653	49.59
622.987	49.61
623.321	49.64
623.655	49.67
623.988	49.7
624.322	49.72
624.656	49.76
624.99	49.79
625.323	49.81
625.657	49.82
625.99	49.85
626.324	49.89
626.657	49.9
626.991	49.93
627.324	49.95
627.658	49.96
627.991	49.98
628.324	50
628.657	50.02
628.991	50.03
629.324	50.07
629.657	50.09
629.99	50.11
630.323	50.14
630.656	50.16
630.989	50.17
631.322	50.2
631.655	50.22
631.987	50.24
632.32	50.27
632.653	50.29
632.986	50.31
633.318	50.32
633.651	50.33
633.984	50.34
634.316	50.36
634.649	50.38
634.981	50.4
635.313	50.42
635.646	50.42
635.978	50.45
636.31	50.46
636.643	50.48
636.975	50.5
637.307	50.52
637.639	50.55
637.971	50.57
638.303	50.59
638.635	50.61
638.967	50.62
639.299	50.64
639.631	50.67
639.963	50.68
640.295	50.71
640.626	50.72
640.958	50.75
641.29	50.78
641.621	50.81
641.953	50.82
642.285	50.86
642.616	50.9
642.948	50.9
643.279	50.91
643.61	50.94
643.942	50.94
644.273	50.96
644.604	50.98
644.936	51.01
645.267	51.03
645.598	51.05
645.929	51.06
646.26	51.08
646.591	51.1
646.922	51.13
647.253	51.15
647.584	51.18
647.915	51.21
648.245	51.23
648.576	51.25
648.907	51.26
649.238	51.28
649.568	51.29
649.899	51.29
650.229	51.32
650.56	51.32
650.89	51.34
651.221	51.35
651.551	51.37
651.882	51.39
652.212	51.41
652.542	51.42
652.872	51.45
653.203	51.47
653.533	51.47
653.863	51.48
654.193	51.48
654.523	51.48
654.853	51.48
655.183	51.49
655.513	51.52
655.843	51.53
656.172	51.54
656.502	51.57
656.832	51.59
657.162	51.6
657.491	51.64
657.821	51.66
658.15	51.67
658.48	51.67
658.809	51.68
659.139	51.7
659.468	51.73
659.798	51.76
660.127	51.76
660.456	51.8
660.785	51.83
661.115	51.85
661.444	51.85
661.773	51.88
662.102	51.88
662.431	51.89
662.76	51.92
663.089	51.92
663.418	51.94
663.747	51.94
664.076	51.97
664.404	51.99
664.733	52
665.062	52.04
665.39	52.05
665.719	52.05
666.048	52.08
666.376	52.08
666.705	52.09
667.033	52.11
667.362	52.12
667.69	52.14
668.018	52.16
668.347	52.17
668.675	52.17
669.003	52.16
669.331	52.16
669.659	52.16
669.987	52.18
670.315	52.16
670.643	52.2
670.971	52.19
671.299	52.21
671.627	52.22
671.955	52.23
672.283	52.25
672.61	52.27
672.938	52.29
673.266	52.29
673.593	52.31
673.921	52.29
674.249	52.29
674.576	52.31
674.904	52.33
675.231	52.32
675.558	52.34
675.886	52.36
676.213	52.38
676.54	52.41
676.867	52.44
677.195	52.44
677.522	52.46
677.849	52.48
678.176	52.5
678.503	52.51
678.83	52.51
679.157	52.54
679.484	52.54
679.81	52.56
680.137	52.55
680.464	52.56
680.791	52.58
681.117	52.59
681.444	52.59
681.771	52.62
682.097	52.63
682.424	52.64
682.75	52.65
683.077	52.66
683.403	52.68
683.729	52.7
684.056	52.69
684.382	52.7
684.708	52.71
685.034	52.73
685.36	52.75
685.686	52.76
686.012	52.78
686.339	52.8
686.664	52.81
686.99	52.82
687.316	52.87
687.642	52.88
687.968	52.91
688.294	52.93
688.619	52.96
688.945	52.99
689.271	53
689.596	53
689.922	53.01
690.247	53.02
690.573	53.04
690.898	53.05
691.224	53.07
691.549	53.06
691.874	53.05
692.2	53.07
692.525	53.09
692.85	53.08
693.175	53.1
693.5	53.14
693.825	53.15
694.15	53.14
694.475	53.16
694.8	53.18
695.125	53.2
695.45	53.23
695.775	53.24
696.099	53.26
696.424	53.28
696.749	53.28
697.073	53.27
697.398	53.29
697.723	53.29
698.047	53.29
698.372	53.31
698.696	53.29
699.02	53.3
699.345	53.3
699.669	53.29
699.993	53.31
700.318	53.32
700.642	53.31
700.966	53.34
701.29	53.34
701.614	53.34
701.938	53.34
702.262	53.34
702.586	53.36
702.91	53.36
703.234	53.39
703.557	53.4
703.881	53.42
704.205	53.45
704.529	53.46
704.852	53.47
705.176	53.51
705.499	53.54
705.823	53.56
706.146	53.58
706.47	53.59
706.793	53.61
707.117	53.7
707.44	53.73
707.763	53.71
708.086	53.73
708.409	53.7
708.733	53.71
709.056	53.73
709.379	53.73
709.702	53.75
710.025	53.76
710.348	53.69
710.671	53.71
710.993	53.72
711.316	53.74
711.639	53.74
711.962	53.75
712.284	53.76
712.607	53.77
712.93	53.8
713.252	53.81
713.575	53.82
713.897	53.83
714.22	53.84
714.542	53.85
714.864	53.88
715.187	53.91
715.509	53.92
715.831	53.9
716.153	53.91
716.475	53.9
716.798	53.92
717.12	54.01
717.442	54.01
717.764	54.01
718.085	53.99
718.407	53.95
718.729	53.97
719.051	53.97
719.373	53.99
719.695	53.99
720.016	53.99
720.338	53.94
720.659	53.95
720.981	54
721.302	54.01
721.624	54.06
721.945	54.05
722.267	54.06
722.588	54.09
722.909	54.12
723.231	54.14
723.552	54.18
723.873	54.19
724.194	54.2
724.515	54.21
724.836	54.29
725.157	54.31
725.478	54.33
725.799	54.34
726.12	54.33
726.441	54.34
726.762	54.32
727.083	54.31
727.403	54.31
727.724	54.3
728.045	54.26
728.365	54.31
728.686	54.34
729.006	54.37
729.327	54.4
729.647	54.44
729.967	54.43
730.288	54.44
730.608	54.47
730.928	54.51
731.249	54.55
731.569	54.6
731.889	54.6
732.209	54.62
732.529	54.62
732.849	54.61
733.169	54.6
733.489	54.62
733.809	54.62
734.129	54.61
734.448	54.63
734.768	54.59
735.088	54.62
735.408	54.61
735.727	54.59
736.047	54.63
736.366	54.63
736.686	54.62
737.005	54.64
737.325	54.64
737.644	54.63
737.963	54.61
738.283	54.63
738.602	54.63
738.921	54.65
739.24	54.66
739.56	54.67
739.879	54.68
740.198	54.68
740.517	54.68
740.836	54.7
741.155	54.71
741.473	54.71
741.792	54.72
742.111	54.71
742.43	54.69
742.748	54.65
743.067	54.62
743.386	54.64
743.704	54.63
744.023	54.6
744.341	54.57
744.66	54.58
744.978	54.55
745.297	54.57
745.615	54.59
745.933	54.62
746.252	54.66
746.57	54.63
746.888	54.68
747.206	54.69
747.524	54.7
747.842	54.78
748.16	54.78
748.478	54.8
748.796	54.77
749.114	54.71
749.432	54.74
749.749	54.76
750.067	54.73
750.385	54.73
750.703	54.73
751.02	54.73
751.338	54.71
751.655	54.72
751.973	54.73
752.29	54.71
752.608	54.73
752.925	54.76
753.242	54.8
753.56	54.85
753.877	54.81
754.194	54.83
754.511	54.82
754.828	54.79
755.145	54.83
755.462	54.87
755.779	54.85
756.096	54.87
756.413	54.87
756.73	54.85
757.047	54.85
757.364	54.86
757.68	54.87
757.997	54.84
758.314	54.86
758.63	54.84
758.947	54.87
759.264	54.86
759.58	54.85
759.896	54.84
760.213	54.87
760.529	54.88
760.846	54.83
761.162	54.81
761.478	54.84
761.794	54.85
762.11	54.87
762.426	54.86
762.743	54.87
763.059	54.93
763.375	54.96
763.69	54.97
764.006	54.97
764.322	55.01
764.638	55.01
764.954	55.01
765.27	55.05
765.585	55.03
765.901	55.07
766.216	55.02
766.532	55.01
766.848	55.02
767.163	55.02
767.478	55.05
767.794	55.1
768.109	55.08
768.424	55.1
768.74	55.12
769.055	55.13
769.37	55.17
769.685	55.2
770	55.21
770.315	55.22
770.63	55.21
770.945	55.21
771.26	55.17
771.575	55.16
771.89	55.14
772.205	55.17
772.52	55.18
772.834	55.27
773.149	55.27
773.464	55.23
773.778	55.24
774.093	55.27
774.407	55.22
774.722	55.19
775.036	55.17
775.351	55.19
775.665	55.12
775.979	55.06
776.293	55.06
776.608	55.1
776.922	55.07
777.236	55.06
777.55	55.16
777.864	55.2
778.178	55.18
778.492	55.2
778.806	55.16
779.12	55.16
779.434	55.18
779.747	55.17
780.061	55.27
780.375	55.25
780.689	55.2
781.002	55.23
781.316	55.19
781.629	55.24
781.943	55.29
782.256	55.3
782.57	55.31
782.883	55.34
783.196	55.33
783.51	55.31
783.823	55.33
784.136	55.33
784.449	55.38
784.762	55.42
785.075	55.44
785.388	55.39
785.701	55.37
786.014	55.35
786.327	55.4
786.64	55.38
786.953	55.4
787.266	55.43
787.578	55.5
787.891	55.52
788.204	55.49
788.516	55.55
788.829	55.56
789.141	55.51
789.454	55.52
789.766	55.51
790.079	55.53
790.391	55.47
790.703	55.49
791.016	55.46
791.328	55.4
791.64	55.41
791.952	55.46
792.264	55.45
792.576	55.45
792.888	55.42
793.2	55.35
793.512	55.41
793.824	55.35
794.136	55.36
794.448	55.41
794.76	55.39
795.071	55.39
795.383	55.42
795.695	55.42
796.006	55.41
796.318	55.44
796.629	55.45
796.941	55.46
797.252	55.42
797.564	55.43
797.875	55.38
798.186	55.37
798.497	55.38
798.809	55.3
799.12	55.26
799.431	55.26
799.742	55.26
800.053	55.27
800.364	55.27
800.675	55.29
800.986	55.35
801.297	55.37
801.608	55.31
801.918	55.36
802.229	55.29
802.54	55.3
802.851	55.29
803.161	55.33
803.472	55.33
803.782	55.29
804.093	55.38
804.403	55.36
804.714	55.4
805.024	55.4
805.334	55.45
805.645	55.44
805.955	55.52
806.265	55.45
806.575	55.46
806.885	55.43
807.195	55.39
807.505	55.41
807.815	55.37
808.125	55.35
808.435	55.39
808.745	55.44
809.055	55.42
809.365	55.42
809.674	55.45
809.984	55.54
810.294	55.56
810.603	55.55
810.913	55.7
811.222	55.72
811.532	55.75
811.841	55.82
812.151	55.85
812.46	55.85
812.769	55.9
813.079	55.93
813.388	55.92
813.697	55.85
814.006	55.8
814.315	55.93
814.624	55.93
814.933	55.93
815.242	55.89
815.551	55.85
815.86	55.76
816.169	55.78
816.478	55.67
816.786	55.67
817.095	55.66
817.404	55.59
817.712	55.59
818.021	55.55
818.33	55.53
818.638	55.52
818.947	55.51
819.255	55.52
819.563	55.56
819.872	55.59
820.18	55.63
820.488	55.66
820.796	55.66
821.105	55.64
821.413	55.66
821.721	55.69
822.029	55.71
822.337	55.73
822.645	55.7
822.953	55.7
823.26	55.71
823.568	55.73
823.876	55.7
824.184	55.7
824.491	55.71
824.799	55.7
825.107	55.71
825.414	55.72
825.722	55.72
826.029	55.71
826.337	55.73
826.644	55.73
826.951	55.73
827.259	55.74
827.566	55.75
827.873	55.79
828.18	55.77
828.488	55.79
828.795	55.76
829.102	55.79
829.409	55.79
829.716	55.77
830.023	55.77
830.329	55.76
830.636	55.79
830.943	55.82
831.25	55.85
831.557	55.85
831.863	55.88
832.17	55.85
832.476	55.84
832.783	55.81
833.089	55.79
833.396	55.75
833.702	55.75
834.009	55.71
834.315	55.69
834.621	55.72
834.928	55.71
835.234	55.75
835.54	55.72
835.846	55.78
836.152	55.71
836.458	55.77
836.764	55.74
837.07	55.66
837.376	55.59
837.682	55.55
837.988	55.54
838.293	55.45
838.599	55.48
838.905	55.5
839.211	55.57
839.516	55.54
839.822	55.58
840.127	55.64
840.433	55.59
840.738	55.66
841.044	55.63
841.349	55.77
841.654	55.86
841.959	55.87
842.265	55.92
842.57	56.04
842.875	56.18
843.18	56.2
843.485	56.29
843.79	56.41
844.095	56.52
844.4	56.46
844.705	56.46
845.01	56.51
845.315	56.53
845.619	56.43
845.924	56.4
846.229	56.4
846.533	56.44
846.838	56.37
847.142	56.25
847.447	56.28
847.751	56.15
848.056	56.26
848.36	56.32
848.664	56.42
848.969	56.27
849.273	56.24
849.577	56.27
849.881	56.33
850.185	56.33
850.489	56.52
850.794	56.7
851.097	56.64
851.401	56.52
851.705	56.52
852.009	56.77
852.313	56.66
852.617	56.77
852.92	56.77
853.224	56.77
853.528	56.65
853.831	56.46
854.135	56.4
854.438	56.41
854.742	56.43
855.045	56.51
855.349	56.54
855.652	56.79
855.955	56.81
856.259	56.71
856.562	56.92
856.865	56.86
857.168	56.89
857.471	56.89
857.774	56.76
858.077	56.67
858.38	56.78
858.683	56.77
858.986	56.69
859.289	57.06
859.592	57.12
859.894	57.14
860.197	57.22
860.5	57.03
860.802	56.96
861.105	57.05
861.407	57.23
861.71	57.2
862.012	57.24
862.315	57.13
862.617	57.03
862.919	56.81
863.222	56.91
863.524	57.1
863.826	57.25
864.128	57.39
864.43	57.26
864.732	57.34
865.034	57.26
865.336	57.26
865.638	57.1
865.94	57.09
866.242	57.31
866.544	57.08
866.846	57.32
867.147	57.2
867.449	57.06
867.751	57.1
868.052	57.09
868.354	57.14
868.655	57.25
868.957	57.26
869.258	57.45
869.56	57.58
869.861	57.59
870.162	57.58
870.463	57.7
870.765	57.59
871.066	57.54
871.367	57.42
871.668	57.39
871.969	57.54
872.27	57.57
872.571	57.48
872.872	57.81
873.173	57.71
873.473	57.7
873.774	57.78
874.075	57.86
874.376	57.92
874.676	58.1
874.977	58.12
875.277	58.03
875.578	58
875.878	57.71
876.179	57.67
876.479	57.49
876.78	57.51
877.08	57.57
877.38	57.61
877.68	57.77
877.981	57.91
878.281	58.1
878.581	57.87
