Data from UWBM86267_Reflection_00004.txt Node
Date: Sun May 02 14:07:27 EDT 2021
User: vgr7
Spectrometer: USB2G7710
Scans to average: 10
Trigger mode: 4
Integration Time (sec): 1.000000E-1
Electric dark correction enabled: true
Boxcar width: 20
XAxis mode: Wavelengths
Number of Pixels in Spectrum: 2048
>>>>>Begin Spectral Data<<<<<
177.721	102.86
178.105	78
178.488	151.12
178.871	223.88
179.254	161.76
179.636	154.13
180.019	123.31
180.402	118.64
180.785	87.38
181.168	79.59
181.55	65.16
181.933	61.86
182.316	58.92
182.698	48.26
183.081	43.68
183.463	39.86
183.846	36.08
184.228	36.04
184.611	34.33
184.993	32.63
185.376	34.19
185.758	37.93
186.14	35.43
186.522	34.11
186.904	32.44
187.287	29.38
187.669	31.7
188.051	33.11
188.433	31.67
188.815	30.75
189.197	33.37
189.579	32.29
189.961	31.71
190.342	29.78
190.724	30.82
191.106	30.01
191.488	26.32
191.869	24.2
192.251	24.34
192.633	25.28
193.014	24.28
193.396	19.88
193.777	21.49
194.159	20.75
194.54	18.45
194.922	15.49
195.303	15.9
195.684	14.06
196.065	13.18
196.447	13.73
196.828	11.82
197.209	12.04
197.59	7.74
197.971	8.24
198.352	10.11
198.733	10.88
199.114	11.84
199.495	14.24
199.876	13.76
200.257	13.79
200.638	13.48
201.018	14.09
201.399	13.94
201.78	13.71
202.16	11.97
202.541	12.21
202.922	11.26
203.302	9.68
203.683	11.51
204.063	12
204.444	11.17
204.824	9.59
205.204	9.43
205.585	9.86
205.965	12.89
206.345	13.56
206.725	14.13
207.106	15.22
207.486	15.89
207.866	17.82
208.246	15.64
208.626	15.17
209.006	19.1
209.386	17.52
209.766	16.21
210.145	16.1
210.525	17.32
210.905	17.27
211.285	18.02
211.664	18.97
212.044	18.24
212.424	18.9
212.803	17.99
213.183	19.99
213.562	20.5
213.942	21.04
214.321	20.61
214.701	19.61
215.08	18.38
215.459	17.47
215.838	16.35
216.218	15.96
216.597	14.2
216.976	13.56
217.355	13.49
217.734	15.73
218.113	14.91
218.492	15.72
218.871	16.54
219.25	16.67
219.629	16.3
220.008	16.76
220.387	15.23
220.766	15.86
221.144	14.3
221.523	13.1
221.902	12.11
222.28	11.48
222.659	11.05
223.037	9.73
223.416	9.07
223.794	8.97
224.173	9.01
224.551	7.34
224.929	8.37
225.308	8.57
225.686	8.07
226.064	8.01
226.442	7.57
226.821	7.74
227.199	7.75
227.577	7.74
227.955	7.91
228.333	7.84
228.711	7.28
229.089	6.6
229.467	6.1
229.845	5.93
230.222	5.87
230.6	5.57
230.978	5.93
231.356	6.05
231.733	6.07
232.111	5.96
232.488	5.57
232.866	5.27
233.243	4.71
233.621	4.67
233.998	4.66
234.376	4.39
234.753	3.9
235.13	3.71
235.508	3.68
235.885	3.68
236.262	3.45
236.639	3.37
237.016	3.22
237.393	3.12
237.77	3.07
238.147	2.98
238.524	2.93
238.901	2.81
239.278	2.85
239.655	2.83
240.032	2.82
240.409	2.72
240.785	2.71
241.162	2.73
241.539	2.68
241.915	2.69
242.292	2.69
242.668	2.64
243.045	2.61
243.421	2.57
243.798	2.54
244.174	2.6
244.551	2.61
244.927	2.61
245.303	2.63
245.679	2.63
246.056	2.58
246.432	2.55
246.808	2.54
247.184	2.52
247.56	2.52
247.936	2.53
248.312	2.54
248.688	2.55
249.064	2.52
249.44	2.51
249.815	2.49
250.191	2.46
250.567	2.47
250.943	2.44
251.318	2.43
251.694	2.45
252.069	2.45
252.445	2.46
252.82	2.46
253.196	2.45
253.571	2.43
253.947	2.42
254.322	2.41
254.697	2.41
255.073	2.4
255.448	2.4
255.823	2.37
256.198	2.37
256.573	2.37
256.948	2.37
257.323	2.35
257.698	2.32
258.073	2.3
258.448	2.27
258.823	2.27
259.198	2.27
259.573	2.25
259.948	2.24
260.322	2.22
260.697	2.2
261.072	2.19
261.446	2.18
261.821	2.17
262.195	2.15
262.57	2.14
262.944	2.13
263.319	2.14
263.693	2.12
264.067	2.11
264.442	2.13
264.816	2.11
265.19	2.12
265.564	2.14
265.938	2.13
266.313	2.13
266.687	2.13
267.061	2.13
267.435	2.13
267.809	2.12
268.183	2.12
268.556	2.11
268.93	2.12
269.304	2.14
269.678	2.14
270.051	2.12
270.425	2.1
270.799	2.09
271.172	2.11
271.546	2.11
271.919	2.1
272.293	2.1
272.666	2.1
273.04	2.11
273.413	2.15
273.787	2.16
274.16	2.15
274.533	2.16
274.906	2.17
275.279	2.18
275.653	2.2
276.026	2.2
276.399	2.21
276.772	2.23
277.145	2.23
277.518	2.24
277.891	2.24
278.263	2.24
278.636	2.25
279.009	2.26
279.382	2.27
279.755	2.27
280.127	2.29
280.5	2.3
280.872	2.3
281.245	2.3
281.617	2.3
281.99	2.31
282.362	2.3
282.735	2.3
283.107	2.3
283.479	2.29
283.852	2.3
284.224	2.3
284.596	2.28
284.968	2.28
285.34	2.3
285.713	2.31
286.085	2.32
286.457	2.31
286.829	2.31
287.201	2.3
287.572	2.3
287.944	2.29
288.316	2.28
288.688	2.28
289.06	2.28
289.431	2.28
289.803	2.29
290.175	2.28
290.546	2.28
290.918	2.29
291.289	2.29
291.661	2.29
292.032	2.29
292.403	2.29
292.775	2.3
293.146	2.31
293.517	2.31
293.889	2.3
294.26	2.31
294.631	2.31
295.002	2.32
295.373	2.32
295.744	2.31
296.115	2.31
296.486	2.33
296.857	2.35
297.228	2.34
297.599	2.35
297.97	2.35
298.34	2.35
298.711	2.35
299.082	2.36
299.452	2.37
299.823	2.38
300.194	2.38
300.564	2.37
300.935	2.36
301.305	2.37
301.676	2.38
302.046	2.38
302.416	2.37
302.787	2.37
303.157	2.38
303.527	2.38
303.897	2.38
304.267	2.39
304.637	2.39
305.008	2.39
305.378	2.38
305.748	2.37
306.117	2.36
306.487	2.37
306.857	2.38
307.227	2.38
307.597	2.38
307.967	2.38
308.336	2.39
308.706	2.39
309.076	2.38
309.445	2.38
309.815	2.38
310.184	2.37
310.554	2.36
310.923	2.36
311.293	2.36
311.662	2.36
312.031	2.34
312.401	2.36
312.77	2.35
313.139	2.36
313.508	2.37
313.877	2.38
314.246	2.38
314.616	2.37
314.985	2.38
315.353	2.4
315.722	2.4
316.091	2.41
316.46	2.39
316.829	2.4
317.198	2.42
317.567	2.42
317.935	2.43
318.304	2.44
318.672	2.43
319.041	2.44
319.41	2.43
319.778	2.44
320.147	2.43
320.515	2.43
320.883	2.42
321.252	2.43
321.62	2.42
321.988	2.41
322.357	2.42
322.725	2.41
323.093	2.4
323.461	2.37
323.829	2.38
324.197	2.39
324.565	2.38
324.933	2.38
325.301	2.38
325.669	2.39
326.037	2.39
326.405	2.38
326.772	2.38
327.14	2.37
327.508	2.35
327.875	2.35
328.243	2.34
328.61	2.33
328.978	2.32
329.346	2.31
329.713	2.32
330.08	2.32
330.448	2.3
330.815	2.3
331.182	2.28
331.55	2.28
331.917	2.27
332.284	2.24
332.651	2.24
333.018	2.25
333.385	2.24
333.752	2.24
334.119	2.25
334.486	2.25
334.853	2.25
335.22	2.26
335.587	2.26
335.954	2.27
336.32	2.27
336.687	2.26
337.054	2.26
337.42	2.27
337.787	2.27
338.153	2.28
338.52	2.28
338.886	2.27
339.253	2.27
339.619	2.28
339.986	2.28
340.352	2.29
340.718	2.29
341.084	2.29
341.451	2.28
341.817	2.28
342.183	2.29
342.549	2.29
342.915	2.3
343.281	2.3
343.647	2.3
344.013	2.3
344.379	2.3
344.745	2.29
345.11	2.29
345.476	2.29
345.842	2.3
346.208	2.31
346.573	2.3
346.939	2.3
347.304	2.31
347.67	2.31
348.035	2.32
348.401	2.32
348.766	2.32
349.132	2.32
349.497	2.32
349.862	2.31
350.228	2.31
350.593	2.31
350.958	2.31
351.323	2.31
351.688	2.32
352.053	2.33
352.418	2.32
352.783	2.31
353.148	2.31
353.513	2.33
353.878	2.33
354.243	2.33
354.608	2.33
354.972	2.33
355.337	2.32
355.702	2.32
356.066	2.32
356.431	2.32
356.795	2.32
357.16	2.31
357.524	2.31
357.889	2.31
358.253	2.31
358.618	2.31
358.982	2.3
359.346	2.31
359.71	2.32
360.075	2.33
360.439	2.32
360.803	2.32
361.167	2.32
361.531	2.33
361.895	2.33
362.259	2.33
362.623	2.32
362.987	2.32
363.351	2.31
363.714	2.31
364.078	2.31
364.442	2.31
364.806	2.31
365.169	2.32
365.533	2.32
365.896	2.33
366.26	2.33
366.623	2.33
366.987	2.33
367.35	2.33
367.714	2.33
368.077	2.34
368.44	2.34
368.803	2.34
369.167	2.34
369.53	2.34
369.893	2.34
370.256	2.34
370.619	2.34
370.982	2.35
371.345	2.36
371.708	2.36
372.071	2.37
372.434	2.37
372.797	2.36
373.159	2.36
373.522	2.37
373.885	2.38
374.247	2.37
374.61	2.36
374.973	2.35
375.335	2.35
375.698	2.35
376.06	2.35
376.423	2.34
376.785	2.34
377.147	2.34
377.51	2.35
377.872	2.34
378.234	2.34
378.596	2.34
378.958	2.35
379.321	2.35
379.683	2.35
380.045	2.35
380.407	2.35
380.769	2.34
381.13	2.34
381.492	2.34
381.854	2.34
382.216	2.34
382.578	2.34
382.939	2.33
383.301	2.33
383.663	2.33
384.024	2.33
384.386	2.34
384.747	2.33
385.109	2.34
385.47	2.34
385.832	2.33
386.193	2.33
386.554	2.32
386.916	2.32
387.277	2.32
387.638	2.32
387.999	2.32
388.36	2.32
388.721	2.32
389.082	2.32
389.443	2.33
389.804	2.32
390.165	2.33
390.526	2.33
390.887	2.33
391.248	2.33
391.609	2.33
391.969	2.34
392.33	2.34
392.691	2.34
393.051	2.34
393.412	2.34
393.772	2.34
394.133	2.34
394.493	2.34
394.854	2.33
395.214	2.33
395.574	2.33
395.935	2.33
396.295	2.33
396.655	2.33
397.015	2.33
397.376	2.33
397.736	2.33
398.096	2.34
398.456	2.34
398.816	2.34
399.176	2.33
399.535	2.33
399.895	2.33
400.255	2.34
400.615	2.34
400.975	2.34
401.334	2.34
401.694	2.34
402.054	2.35
402.413	2.35
402.773	2.35
403.132	2.35
403.492	2.35
403.851	2.35
404.211	2.35
404.57	2.36
404.929	2.36
405.288	2.36
405.648	2.36
406.007	2.37
406.366	2.37
406.725	2.37
407.084	2.37
407.443	2.37
407.802	2.37
408.161	2.37
408.52	2.37
408.879	2.38
409.238	2.38
409.596	2.38
409.955	2.38
410.314	2.39
410.673	2.39
411.031	2.4
411.39	2.4
411.748	2.4
412.107	2.41
412.465	2.41
412.824	2.43
413.182	2.44
413.54	2.46
413.899	2.48
414.257	2.5
414.615	2.53
414.974	2.55
415.332	2.57
415.69	2.6
416.048	2.61
416.406	2.64
416.764	2.66
417.122	2.68
417.48	2.7
417.838	2.72
418.195	2.74
418.553	2.75
418.911	2.76
419.269	2.77
419.626	2.77
419.984	2.77
420.342	2.76
420.699	2.75
421.057	2.74
421.414	2.74
421.772	2.73
422.129	2.72
422.486	2.72
422.844	2.72
423.201	2.72
423.558	2.72
423.915	2.72
424.273	2.72
424.63	2.72
424.987	2.72
425.344	2.72
425.701	2.72
426.058	2.72
426.415	2.72
426.772	2.72
427.128	2.72
427.485	2.71
427.842	2.71
428.199	2.7
428.555	2.69
428.912	2.67
429.269	2.66
429.625	2.64
429.982	2.63
430.338	2.61
430.695	2.6
431.051	2.58
431.407	2.56
431.764	2.55
432.12	2.54
432.476	2.53
432.832	2.53
433.189	2.53
433.545	2.53
433.901	2.54
434.257	2.55
434.613	2.57
434.969	2.58
435.325	2.6
435.681	2.62
436.036	2.64
436.392	2.65
436.748	2.66
437.104	2.67
437.459	2.68
437.815	2.69
438.171	2.71
438.526	2.72
438.882	2.74
439.237	2.77
439.593	2.79
439.948	2.81
440.304	2.84
440.659	2.85
441.014	2.87
441.369	2.88
441.725	2.9
442.08	2.91
442.435	2.92
442.79	2.92
443.145	2.93
443.5	2.93
443.855	2.93
444.21	2.93
444.565	2.93
444.92	2.92
445.275	2.92
445.629	2.91
445.984	2.91
446.339	2.9
446.693	2.89
447.048	2.89
447.403	2.88
447.757	2.86
448.112	2.85
448.466	2.84
448.82	2.82
449.175	2.81
449.529	2.79
449.883	2.78
450.238	2.77
450.592	2.77
450.946	2.76
451.3	2.76
451.654	2.76
452.008	2.76
452.362	2.77
452.716	2.77
453.07	2.77
453.424	2.77
453.778	2.76
454.132	2.76
454.486	2.75
454.839	2.74
455.193	2.73
455.547	2.72
455.9	2.71
456.254	2.69
456.607	2.68
456.961	2.66
457.314	2.64
457.668	2.64
458.021	2.63
458.375	2.63
458.728	2.63
459.081	2.63
459.434	2.64
459.787	2.64
460.141	2.65
460.494	2.65
460.847	2.66
461.2	2.66
461.553	2.67
461.906	2.67
462.259	2.67
462.611	2.67
462.964	2.67
463.317	2.68
463.67	2.68
464.022	2.68
464.375	2.69
464.728	2.69
465.08	2.69
465.433	2.69
465.785	2.69
466.138	2.68
466.49	2.67
466.843	2.66
467.195	2.64
467.547	2.63
467.899	2.62
468.252	2.6
468.604	2.58
468.956	2.57
469.308	2.56
469.66	2.55
470.012	2.55
470.364	2.55
470.716	2.54
471.068	2.56
471.42	2.57
471.772	2.58
472.123	2.59
472.475	2.59
472.827	2.6
473.178	2.6
473.53	2.61
473.882	2.62
474.233	2.64
474.585	2.66
474.936	2.7
475.288	2.75
475.639	2.82
475.99	2.91
476.342	3
476.693	3.1
477.044	3.2
477.395	3.31
477.746	3.43
478.097	3.54
478.448	3.65
478.8	3.76
479.15	3.86
479.501	3.96
479.852	4.05
480.203	4.14
480.554	4.22
480.905	4.29
481.255	4.37
481.606	4.44
481.957	4.5
482.307	4.56
482.658	4.62
483.009	4.68
483.359	4.74
483.709	4.79
484.06	4.84
484.41	4.9
484.761	4.95
485.111	4.99
485.461	5.04
485.811	5.08
486.162	5.12
486.512	5.15
486.862	5.18
487.212	5.19
487.562	5.21
487.912	5.22
488.262	5.22
488.612	5.22
488.961	5.21
489.311	5.18
489.661	5.14
490.011	5.08
490.36	5.01
490.71	4.94
491.06	4.85
491.409	4.76
491.759	4.67
492.108	4.57
492.458	4.47
492.807	4.36
493.157	4.26
493.506	4.15
493.855	4.05
494.204	3.96
494.554	3.87
494.903	3.79
495.252	3.71
495.601	3.63
495.95	3.56
496.299	3.49
496.648	3.42
496.997	3.36
497.346	3.3
497.695	3.24
498.043	3.19
498.392	3.13
498.741	3.08
499.09	3.03
499.438	2.98
499.787	2.93
500.135	2.89
500.484	2.85
500.832	2.82
501.181	2.8
501.529	2.78
501.878	2.77
502.226	2.76
502.574	2.75
502.923	2.75
503.271	2.75
503.619	2.75
503.967	2.75
504.315	2.74
504.663	2.74
505.011	2.74
505.359	2.74
505.707	2.73
506.055	2.73
506.403	2.73
506.751	2.73
507.098	2.73
507.446	2.74
507.794	2.74
508.141	2.75
508.489	2.76
508.837	2.77
509.184	2.77
509.531	2.78
509.879	2.79
510.226	2.8
510.574	2.81
510.921	2.82
511.268	2.83
511.616	2.85
511.963	2.86
512.31	2.87
512.657	2.89
513.004	2.9
513.351	2.91
513.698	2.92
514.045	2.92
514.392	2.93
514.739	2.93
515.086	2.93
515.432	2.92
515.779	2.92
516.126	2.92
516.473	2.92
516.819	2.93
517.166	2.93
517.512	2.93
517.859	2.94
518.205	2.95
518.552	2.97
518.898	2.99
519.245	3.01
519.591	3.05
519.937	3.09
520.283	3.15
520.629	3.21
520.976	3.29
521.322	3.36
521.668	3.44
522.014	3.52
522.36	3.6
522.706	3.68
523.052	3.75
523.398	3.82
523.743	3.88
524.089	3.93
524.435	3.98
524.781	4.02
525.126	4.06
525.472	4.1
525.817	4.14
526.163	4.17
526.509	4.2
526.854	4.23
527.199	4.26
527.545	4.29
527.89	4.32
528.235	4.35
528.581	4.38
528.926	4.41
529.271	4.43
529.616	4.46
529.961	4.48
530.306	4.5
530.651	4.51
530.996	4.52
531.341	4.53
531.686	4.54
532.031	4.54
532.376	4.54
532.721	4.54
533.065	4.55
533.41	4.55
533.755	4.55
534.099	4.54
534.444	4.53
534.788	4.5
535.133	4.48
535.477	4.45
535.822	4.42
536.166	4.38
536.51	4.34
536.855	4.29
537.199	4.24
537.543	4.19
537.887	4.14
538.231	4.1
538.576	4.07
538.92	4.03
539.264	3.99
539.608	3.96
539.951	3.92
540.295	3.88
540.639	3.84
540.983	3.8
541.327	3.75
541.671	3.71
542.014	3.67
542.358	3.63
542.701	3.61
543.045	3.58
543.389	3.57
543.732	3.55
544.075	3.54
544.419	3.53
544.762	3.52
545.105	3.51
545.449	3.5
545.792	3.5
546.135	3.49
546.478	3.48
546.821	3.47
547.165	3.45
547.508	3.43
547.851	3.4
548.194	3.36
548.536	3.32
548.879	3.28
549.222	3.24
549.565	3.19
549.908	3.15
550.25	3.11
550.593	3.07
550.936	3.04
551.278	3.01
551.621	2.99
551.963	2.97
552.306	2.95
552.648	2.93
552.991	2.92
553.333	2.91
553.675	2.91
554.017	2.9
554.36	2.9
554.702	2.9
555.044	2.91
555.386	2.92
555.728	2.93
556.07	2.94
556.412	2.95
556.754	2.95
557.096	2.96
557.438	2.95
557.78	2.96
558.121	2.96
558.463	2.96
558.805	2.96
559.147	2.96
559.488	2.97
559.83	2.97
560.171	2.97
560.513	2.97
560.854	2.97
561.196	2.97
561.537	2.97
561.878	2.97
562.22	2.97
562.561	2.97
562.902	2.98
563.243	2.98
563.584	2.98
563.925	2.98
564.266	2.98
564.607	2.98
564.948	2.98
565.289	2.98
565.63	2.98
565.971	2.98
566.312	2.98
566.653	2.99
566.993	2.99
567.334	2.99
567.675	2.99
568.015	2.99
568.356	3
568.696	3
569.037	3
569.377	3
569.718	3
570.058	3.01
570.398	3
570.739	3
571.079	3
571.419	3
571.759	3.01
572.099	3.01
572.439	3.01
572.779	3.01
573.119	3.01
573.459	3.01
573.799	3.01
574.139	3.01
574.479	3.01
574.819	3.01
575.158	3.01
575.498	3.02
575.838	3.02
576.177	3.02
576.517	3.02
576.856	3.02
577.196	3.02
577.535	3.02
577.875	3.02
578.214	3.02
578.553	3.02
578.893	3.02
579.232	3.03
579.571	3.03
579.91	3.03
580.25	3.03
580.589	3.03
580.928	3.03
581.267	3.03
581.606	3.03
581.945	3.03
582.283	3.03
582.622	3.03
582.961	3.03
583.3	3.03
583.639	3.03
583.977	3.03
584.316	3.03
584.654	3.04
584.993	3.04
585.332	3.04
585.67	3.04
586.008	3.05
586.347	3.04
586.685	3.04
587.024	3.04
587.362	3.04
587.7	3.05
588.038	3.05
588.376	3.05
588.715	3.05
589.053	3.05
589.391	3.05
589.729	3.05
590.067	3.05
590.404	3.05
590.742	3.05
591.08	3.06
591.418	3.06
591.756	3.06
592.093	3.06
592.431	3.06
592.769	3.06
593.106	3.06
593.444	3.06
593.781	3.06
594.119	3.06
594.456	3.06
594.793	3.06
595.131	3.06
595.468	3.06
595.805	3.06
596.143	3.06
596.48	3.06
596.817	3.06
597.154	3.06
597.491	3.07
597.828	3.07
598.165	3.06
598.502	3.07
598.839	3.07
599.176	3.07
599.512	3.07
599.849	3.07
600.186	3.07
600.523	3.07
600.859	3.08
601.196	3.08
601.532	3.08
601.869	3.08
602.205	3.08
602.542	3.08
602.878	3.08
603.215	3.08
603.551	3.08
603.887	3.07
604.223	3.08
604.56	3.08
604.896	3.08
605.232	3.08
605.568	3.08
605.904	3.08
606.24	3.09
606.576	3.09
606.912	3.09
607.248	3.09
607.583	3.09
607.919	3.09
608.255	3.1
608.591	3.1
608.926	3.1
609.262	3.1
609.597	3.09
609.933	3.09
610.268	3.1
610.604	3.1
610.939	3.1
611.275	3.1
611.61	3.1
611.945	3.1
612.281	3.1
612.616	3.1
612.951	3.1
613.286	3.1
613.621	3.1
613.956	3.1
614.291	3.1
614.626	3.1
614.961	3.1
615.296	3.11
615.631	3.11
615.966	3.12
616.3	3.12
616.635	3.11
616.97	3.12
617.304	3.13
617.639	3.13
617.973	3.13
618.308	3.12
618.642	3.12
618.977	3.12
619.311	3.13
619.646	3.13
619.98	3.13
620.314	3.13
620.648	3.14
620.983	3.15
621.317	3.14
621.651	3.14
621.985	3.15
622.319	3.15
622.653	3.16
622.987	3.16
623.321	3.16
623.655	3.17
623.988	3.17
624.322	3.17
624.656	3.17
624.99	3.17
625.323	3.17
625.657	3.16
625.99	3.16
626.324	3.17
626.657	3.17
626.991	3.17
627.324	3.16
627.658	3.16
627.991	3.16
628.324	3.16
628.657	3.16
628.991	3.16
629.324	3.17
629.657	3.17
629.99	3.17
630.323	3.18
630.656	3.18
630.989	3.18
631.322	3.18
631.655	3.19
631.987	3.19
632.32	3.19
632.653	3.2
632.986	3.2
633.318	3.2
633.651	3.21
633.984	3.2
634.316	3.2
634.649	3.2
634.981	3.19
635.313	3.19
635.646	3.19
635.978	3.2
636.31	3.21
636.643	3.21
636.975	3.21
637.307	3.21
637.639	3.22
637.971	3.22
638.303	3.22
638.635	3.22
638.967	3.22
639.299	3.22
639.631	3.23
639.963	3.24
640.295	3.24
640.626	3.25
640.958	3.26
641.29	3.27
641.621	3.27
641.953	3.27
642.285	3.27
642.616	3.27
642.948	3.26
643.279	3.27
643.61	3.27
643.942	3.27
644.273	3.27
644.604	3.27
644.936	3.27
645.267	3.27
645.598	3.27
645.929	3.27
646.26	3.27
646.591	3.27
646.922	3.27
647.253	3.27
647.584	3.27
647.915	3.28
648.245	3.28
648.576	3.28
648.907	3.28
649.238	3.28
649.568	3.28
649.899	3.27
650.229	3.27
650.56	3.27
650.89	3.27
651.221	3.27
651.551	3.27
651.882	3.27
652.212	3.28
652.542	3.28
652.872	3.28
653.203	3.28
653.533	3.27
653.863	3.27
654.193	3.27
654.523	3.27
654.853	3.27
655.183	3.27
655.513	3.27
655.843	3.28
656.172	3.28
656.502	3.29
656.832	3.29
657.162	3.28
657.491	3.28
657.821	3.28
658.15	3.29
658.48	3.29
658.809	3.3
659.139	3.29
659.468	3.29
659.798	3.3
660.127	3.3
660.456	3.3
660.785	3.3
661.115	3.3
661.444	3.31
661.773	3.31
662.102	3.31
662.431	3.31
662.76	3.32
663.089	3.32
663.418	3.33
663.747	3.34
664.076	3.35
664.404	3.36
664.733	3.36
665.062	3.37
665.39	3.38
665.719	3.37
666.048	3.38
666.376	3.39
666.705	3.39
667.033	3.4
667.362	3.41
667.69	3.41
668.018	3.41
668.347	3.41
668.675	3.42
669.003	3.42
669.331	3.43
669.659	3.43
669.987	3.42
670.315	3.42
670.643	3.43
670.971	3.43
671.299	3.43
671.627	3.43
671.955	3.43
672.283	3.43
672.61	3.43
672.938	3.44
673.266	3.44
673.593	3.44
673.921	3.44
674.249	3.44
674.576	3.44
674.904	3.44
675.231	3.44
675.558	3.43
675.886	3.44
676.213	3.44
676.54	3.44
676.867	3.43
677.195	3.42
677.522	3.41
677.849	3.41
678.176	3.42
678.503	3.42
678.83	3.41
679.157	3.42
679.484	3.42
679.81	3.42
680.137	3.42
680.464	3.42
680.791	3.43
681.117	3.43
681.444	3.43
681.771	3.44
682.097	3.44
682.424	3.44
682.75	3.45
683.077	3.45
683.403	3.46
683.729	3.46
684.056	3.46
684.382	3.46
684.708	3.46
685.034	3.47
685.36	3.47
685.686	3.46
686.012	3.47
686.339	3.46
686.664	3.46
686.99	3.45
687.316	3.46
687.642	3.47
687.968	3.49
688.294	3.49
688.619	3.49
688.945	3.5
689.271	3.51
689.596	3.51
689.922	3.51
690.247	3.53
690.573	3.53
690.898	3.53
691.224	3.54
691.549	3.55
691.874	3.54
692.2	3.55
692.525	3.56
692.85	3.57
693.175	3.58
693.5	3.59
693.825	3.59
694.15	3.58
694.475	3.58
694.8	3.58
695.125	3.58
695.45	3.57
695.775	3.57
696.099	3.58
696.424	3.58
696.749	3.58
697.073	3.59
697.398	3.59
697.723	3.6
698.047	3.6
698.372	3.61
698.696	3.61
699.02	3.61
699.345	3.61
699.669	3.62
699.993	3.64
700.318	3.65
700.642	3.65
700.966	3.65
701.29	3.65
701.614	3.66
701.938	3.67
702.262	3.68
702.586	3.67
702.91	3.68
703.234	3.68
703.557	3.68
703.881	3.68
704.205	3.68
704.529	3.68
704.852	3.68
705.176	3.68
705.499	3.69
705.823	3.68
706.146	3.68
706.47	3.68
706.793	3.68
707.117	3.69
707.44	3.7
707.763	3.72
708.086	3.74
708.409	3.75
708.733	3.76
709.056	3.77
709.379	3.77
709.702	3.77
710.025	3.76
710.348	3.77
710.671	3.77
710.993	3.77
711.316	3.77
711.639	3.77
711.962	3.78
712.284	3.8
712.607	3.81
712.93	3.8
713.252	3.81
713.575	3.82
713.897	3.82
714.22	3.82
714.542	3.83
714.864	3.8
715.187	3.81
715.509	3.81
715.831	3.81
716.153	3.81
716.475	3.82
716.798	3.81
717.12	3.82
717.442	3.83
717.764	3.83
718.085	3.84
718.407	3.85
718.729	3.86
719.051	3.87
719.373	3.85
719.695	3.85
720.016	3.86
720.338	3.86
720.659	3.85
720.981	3.85
721.302	3.83
721.624	3.83
721.945	3.83
722.267	3.83
722.588	3.85
722.909	3.84
723.231	3.85
723.552	3.84
723.873	3.86
724.194	3.87
724.515	3.88
724.836	3.89
725.157	3.89
725.478	3.87
725.799	3.88
726.12	3.9
726.441	3.9
726.762	3.9
727.083	3.9
727.403	3.89
727.724	3.88
728.045	3.92
728.365	3.94
728.686	3.94
729.006	3.95
729.327	3.97
729.647	3.97
729.967	4
730.288	4
730.608	3.99
730.928	4.01
731.249	4.02
731.569	4.01
731.889	4.01
732.209	4.01
732.529	4.01
732.849	4.02
733.169	4.04
733.489	4.05
733.809	4.06
734.129	4.07
734.448	4.09
734.768	4.1
735.088	4.12
735.408	4.13
735.727	4.12
736.047	4.12
736.366	4.14
736.686	4.16
737.005	4.15
737.325	4.14
737.644	4.12
737.963	4.1
738.283	4.1
738.602	4.11
738.921	4.12
739.24	4.1
739.56	4.1
739.879	4.11
740.198	4.1
740.517	4.12
740.836	4.12
741.155	4.11
741.473	4.09
741.792	4.09
742.111	4.09
742.43	4.07
742.748	4.08
743.067	4.07
743.386	4.11
743.704	4.11
744.023	4.1
744.341	4.08
744.66	4.1
744.978	4.11
745.297	4.12
745.615	4.14
745.933	4.13
746.252	4.11
746.57	4.11
746.888	4.13
747.206	4.12
747.524	4.12
747.842	4.12
748.16	4.1
748.478	4.07
748.796	4.07
749.114	4.09
749.432	4.09
749.749	4.1
750.067	4.11
750.385	4.13
750.703	4.14
751.02	4.16
751.338	4.18
751.655	4.2
751.973	4.2
752.29	4.23
752.608	4.24
752.925	4.24
753.242	4.26
753.56	4.28
753.877	4.31
754.194	4.34
754.511	4.34
754.828	4.35
755.145	4.38
755.462	4.4
755.779	4.43
756.096	4.43
756.413	4.39
756.73	4.41
757.047	4.41
757.364	4.42
757.68	4.42
757.997	4.42
758.314	4.42
758.63	4.42
758.947	4.43
759.264	4.44
759.58	4.45
759.896	4.45
760.213	4.42
760.529	4.43
760.846	4.43
761.162	4.44
761.478	4.46
761.794	4.46
762.11	4.47
762.426	4.48
762.743	4.48
763.059	4.47
763.375	4.49
763.69	4.5
764.006	4.53
764.322	4.52
764.638	4.54
764.954	4.54
765.27	4.54
765.585	4.53
765.901	4.55
766.216	4.56
766.532	4.53
766.848	4.53
767.163	4.51
767.478	4.49
767.794	4.49
768.109	4.49
768.424	4.48
768.74	4.47
769.055	4.47
769.37	4.47
769.685	4.47
770	4.49
770.315	4.51
770.63	4.53
770.945	4.55
771.26	4.57
771.575	4.58
771.89	4.6
772.205	4.6
772.52	4.6
772.834	4.64
773.149	4.7
773.464	4.71
773.778	4.71
774.093	4.7
774.407	4.71
774.722	4.75
775.036	4.75
775.351	4.77
775.665	4.8
775.979	4.83
776.293	4.8
776.608	4.81
776.922	4.78
777.236	4.78
777.55	4.77
777.864	4.78
778.178	4.79
778.492	4.79
778.806	4.77
779.12	4.73
779.434	4.81
779.747	4.77
780.061	4.8
780.375	4.86
780.689	4.87
781.002	4.86
781.316	4.86
781.629	4.85
781.943	4.88
782.256	4.9
782.57	4.9
782.883	4.89
783.196	4.86
783.51	4.85
783.823	4.85
784.136	4.8
784.449	4.79
784.762	4.8
785.075	4.79
785.388	4.78
785.701	4.74
786.014	4.76
786.327	4.76
786.64	4.77
786.953	4.83
787.266	4.87
787.578	4.87
787.891	4.88
788.204	4.88
788.516	4.89
788.829	4.89
789.141	4.9
789.454	4.92
789.766	4.96
790.079	4.98
790.391	4.99
790.703	5
791.016	5
791.328	5
791.64	5.01
791.952	5.07
792.264	4.97
792.576	5
792.888	5
793.2	5.01
793.512	5.04
793.824	5.06
794.136	5.05
794.448	5.07
794.76	5.07
795.071	5.08
795.383	5.07
795.695	5.06
796.006	5.07
796.318	5.04
796.629	5.05
796.941	5.08
797.252	5.12
797.564	5.15
797.875	5.16
798.186	5.18
798.497	5.21
798.809	5.19
799.12	5.17
799.431	5.2
799.742	5.18
800.053	5.17
800.364	5.15
800.675	5.14
800.986	5.14
801.297	5.13
801.608	5.14
801.918	5.15
802.229	5.11
802.54	5.12
802.851	5.11
803.161	5.12
803.472	5.13
803.782	5.14
804.093	5.21
804.403	5.21
804.714	5.23
805.024	5.3
805.334	5.3
805.645	5.32
805.955	5.32
806.265	5.3
806.575	5.28
806.885	5.3
807.195	5.3
807.505	5.34
807.815	5.42
808.125	5.47
808.435	5.51
808.745	5.49
809.055	5.55
809.365	5.56
809.674	5.61
809.984	5.59
810.294	5.61
810.603	5.55
810.913	5.56
811.222	5.59
811.532	5.58
811.841	5.59
812.151	5.63
812.46	5.62
812.769	5.58
813.079	5.62
813.388	5.65
813.697	5.64
814.006	5.66
814.315	5.65
814.624	5.71
814.933	5.74
815.242	5.75
815.551	5.7
815.86	5.67
816.169	5.65
816.478	5.65
816.786	5.64
817.095	5.6
817.404	5.56
817.712	5.52
818.021	5.53
818.33	5.51
818.638	5.52
818.947	5.52
819.255	5.52
819.563	5.52
819.872	5.53
820.18	5.51
820.488	5.49
820.796	5.47
821.105	5.47
821.413	5.51
821.721	5.53
822.029	5.54
822.337	5.53
822.645	5.53
822.953	5.53
823.26	5.55
823.568	5.55
823.876	5.54
824.184	5.56
824.491	5.56
824.799	5.55
825.107	5.56
825.414	5.59
825.722	5.6
826.029	5.61
826.337	5.62
826.644	5.63
826.951	5.62
827.259	5.62
827.566	5.61
827.873	5.59
828.18	5.62
828.488	5.64
828.795	5.64
829.102	5.63
829.409	5.63
829.716	5.67
830.023	5.69
830.329	5.71
830.636	5.73
830.943	5.77
831.25	5.78
831.557	5.8
831.863	5.84
832.17	5.86
832.476	5.84
832.783	5.86
833.089	5.86
833.396	5.87
833.702	5.89
834.009	5.91
834.315	5.92
834.621	5.93
834.928	5.97
835.234	5.97
835.54	5.98
835.846	6
836.152	5.96
836.458	5.99
836.764	5.99
837.07	6.01
837.376	6.04
837.682	6.03
837.988	5.96
838.293	5.95
838.599	5.94
838.905	5.89
839.211	5.9
839.516	5.93
839.822	5.94
840.127	5.99
840.433	6.06
840.738	6.11
841.044	6.08
841.349	6.09
841.654	6.17
841.959	6.16
842.265	6.15
842.57	6.21
842.875	6.26
843.18	6.19
843.485	6.19
843.79	6.2
844.095	6.17
844.4	6.18
844.705	6.31
845.01	6.35
845.315	6.3
845.619	6.28
845.924	6.34
846.229	6.37
846.533	6.31
846.838	6.27
847.142	6.25
847.447	6.24
847.751	6.36
848.056	6.45
848.36	6.51
848.664	6.62
848.969	6.67
849.273	6.79
849.577	6.72
849.881	6.68
850.185	6.79
850.489	6.82
850.794	6.92
851.097	6.86
851.401	7.01
851.705	6.98
852.009	7.17
852.313	7.08
852.617	6.98
852.92	6.92
853.224	6.89
853.528	6.89
853.831	6.94
854.135	6.91
854.438	7
854.742	7.01
855.045	6.88
855.349	6.97
855.652	7.22
855.955	7.11
856.259	7.31
856.562	7.42
856.865	7.55
857.168	7.41
857.471	7.4
857.774	7.59
858.077	7.72
858.38	7.77
858.683	7.82
858.986	7.88
859.289	7.88
859.592	7.93
859.894	7.84
860.197	7.73
860.5	7.72
860.802	7.71
861.105	7.74
861.407	7.63
861.71	7.56
862.012	7.63
862.315	7.69
862.617	7.61
862.919	7.81
863.222	7.68
863.524	7.78
863.826	7.85
864.128	7.64
864.43	7.48
864.732	7.49
865.034	7.61
865.336	7.59
865.638	7.45
865.94	7.57
866.242	7.48
866.544	7.48
866.846	7.47
867.147	7.52
867.449	7.6
867.751	7.52
868.052	7.35
868.354	7.44
868.655	7.22
868.957	7.13
869.258	7.09
869.56	7.33
869.861	7.54
870.162	7.51
870.463	7.69
870.765	7.56
871.066	7.59
871.367	7.58
871.668	7.61
871.969	7.68
872.27	7.8
872.571	7.91
872.872	7.87
873.173	7.87
873.473	7.87
873.774	7.96
874.075	7.99
874.376	8
874.676	8.01
874.977	8.1
875.277	7.99
875.578	8.06
875.878	8.07
876.179	7.92
876.479	8.22
876.78	8.27
877.08	8.35
877.38	8.29
877.68	8.41
877.981	8.54
878.281	8.54
878.581	8.81
