Data from UWBM86267_Reflection_00013.txt Node
Date: Sun May 02 14:08:50 EDT 2021
User: vgr7
Spectrometer: USB2G7710
Scans to average: 10
Trigger mode: 4
Integration Time (sec): 1.000000E-1
Electric dark correction enabled: true
Boxcar width: 20
XAxis mode: Wavelengths
Number of Pixels in Spectrum: 2048
>>>>>Begin Spectral Data<<<<<
177.721	90.86
178.105	81
178.488	177.31
178.871	197.01
179.254	129.99
179.636	82.57
180.019	75.94
180.402	52.51
180.785	33.62
181.168	38.27
181.55	25.8
181.933	32.72
182.316	26.89
182.698	28.28
183.081	24.23
183.463	23.91
183.846	22.93
184.228	24.48
184.611	23.4
184.993	28.7
185.376	29.6
185.758	31.74
186.14	25.23
186.522	25.26
186.904	25.77
187.287	22.7
187.669	21.47
188.051	22.24
188.433	21.12
188.815	18.04
189.197	17.78
189.579	16.71
189.961	18.62
190.342	22.24
190.724	23.92
191.106	23.01
191.488	22.78
191.869	20.81
192.251	19.38
192.633	19.64
193.014	19.04
193.396	17.07
193.777	19.49
194.159	18.91
194.54	16.86
194.922	15.29
195.303	15.62
195.684	14.86
196.065	14.4
196.447	15.02
196.828	14.35
197.209	15.33
197.59	11.92
197.971	11.28
198.352	11.9
198.733	13.72
199.114	14.42
199.495	15.56
199.876	15.36
200.257	15.62
200.638	12.54
201.018	13.66
201.399	14.33
201.78	14.36
202.16	15.1
202.541	15.44
202.922	16.2
203.302	16.09
203.683	16.19
204.063	17.72
204.444	17.92
204.824	18.19
205.204	18.16
205.585	17.65
205.965	18.03
206.345	17.69
206.725	17.5
207.106	17.97
207.486	19.03
207.866	19.57
208.246	19.44
208.626	19.39
209.006	20.33
209.386	17.97
209.766	17.26
210.145	17.85
210.525	19.44
210.905	20.02
211.285	18.3
211.664	18.81
212.044	19.27
212.424	19.27
212.803	19.25
213.183	20.12
213.562	22.02
213.942	21.39
214.321	20
214.701	19.38
215.08	19.47
215.459	19.05
215.838	16.99
216.218	16.23
216.597	14.4
216.976	12.84
217.355	13.62
217.734	13.45
218.113	12.88
218.492	12.55
218.871	12.35
219.25	12.46
219.629	11.11
220.008	10.67
220.387	9.23
220.766	11.3
221.144	9.8
221.523	8
221.902	7.83
222.28	8.13
222.659	7.34
223.037	6.86
223.416	7.11
223.794	6.61
224.173	6.49
224.551	6.52
224.929	7.06
225.308	7.06
225.686	7.21
226.064	6.99
226.442	6.88
226.821	7.61
227.199	7.89
227.577	7.6
227.955	7.42
228.333	7.21
228.711	6.77
229.089	6.08
229.467	5.64
229.845	5.49
230.222	5.44
230.6	5.2
230.978	5.14
231.356	5.85
231.733	6.1
232.111	5.99
232.488	5.97
232.866	5.43
233.243	5.24
233.621	5.22
233.998	5.1
234.376	5.1
234.753	4.86
235.13	4.93
235.508	4.99
235.885	4.92
236.262	4.63
236.639	4.62
237.016	4.67
237.393	4.68
237.77	4.68
238.147	4.7
238.524	4.65
238.901	4.55
239.278	4.55
239.655	4.6
240.032	4.53
240.409	4.52
240.785	4.52
241.162	4.56
241.539	4.51
241.915	4.56
242.292	4.54
242.668	4.53
243.045	4.53
243.421	4.55
243.798	4.57
244.174	4.59
244.551	4.61
244.927	4.63
245.303	4.63
245.679	4.65
246.056	4.61
246.432	4.61
246.808	4.54
247.184	4.55
247.56	4.59
247.936	4.6
248.312	4.65
248.688	4.67
249.064	4.68
249.44	4.69
249.815	4.64
250.191	4.64
250.567	4.64
250.943	4.61
251.318	4.59
251.694	4.61
252.069	4.58
252.445	4.58
252.82	4.54
253.196	4.51
253.571	4.49
253.947	4.49
254.322	4.49
254.697	4.46
255.073	4.45
255.448	4.45
255.823	4.42
256.198	4.4
256.573	4.36
256.948	4.36
257.323	4.3
257.698	4.27
258.073	4.24
258.448	4.21
258.823	4.18
259.198	4.17
259.573	4.14
259.948	4.14
260.322	4.14
260.697	4.12
261.072	4.11
261.446	4.11
261.821	4.09
262.195	4.09
262.57	4.08
262.944	4.08
263.319	4.08
263.693	4.06
264.067	4.04
264.442	4.03
264.816	4.01
265.19	4.01
265.564	4.03
265.938	4
266.313	4
266.687	4
267.061	4
267.435	4
267.809	3.99
268.183	3.99
268.556	3.98
268.93	3.99
269.304	3.98
269.678	3.97
270.051	3.96
270.425	3.92
270.799	3.92
271.172	3.94
271.546	3.94
271.919	3.95
272.293	3.96
272.666	3.96
273.04	3.96
273.413	4
273.787	4.02
274.16	4.01
274.533	4
274.906	4.01
275.279	4.01
275.653	4.01
276.026	4.03
276.399	4.02
276.772	4.03
277.145	4.04
277.518	4.05
277.891	4.05
278.263	4.02
278.636	4.02
279.009	4.02
279.382	4.03
279.755	4.04
280.127	4.06
280.5	4.08
280.872	4.09
281.245	4.12
281.617	4.13
281.99	4.14
282.362	4.13
282.735	4.14
283.107	4.15
283.479	4.16
283.852	4.19
284.224	4.19
284.596	4.2
284.968	4.23
285.34	4.26
285.713	4.28
286.085	4.29
286.457	4.3
286.829	4.31
287.201	4.33
287.572	4.35
287.944	4.37
288.316	4.39
288.688	4.41
289.06	4.42
289.431	4.45
289.803	4.49
290.175	4.53
290.546	4.56
290.918	4.6
291.289	4.64
291.661	4.67
292.032	4.68
292.403	4.71
292.775	4.74
293.146	4.79
293.517	4.83
293.889	4.87
294.26	4.92
294.631	4.96
295.002	5
295.373	5.03
295.744	5.07
296.115	5.11
296.486	5.16
296.857	5.21
297.228	5.25
297.599	5.32
297.97	5.37
298.34	5.41
298.711	5.47
299.082	5.53
299.452	5.59
299.823	5.64
300.194	5.7
300.564	5.76
300.935	5.81
301.305	5.88
301.676	5.93
302.046	5.98
302.416	6.04
302.787	6.08
303.157	6.15
303.527	6.22
303.897	6.28
304.267	6.38
304.637	6.46
305.008	6.54
305.378	6.62
305.748	6.69
306.117	6.75
306.487	6.83
306.857	6.91
307.227	7
307.597	7.1
307.967	7.17
308.336	7.24
308.706	7.31
309.076	7.38
309.445	7.45
309.815	7.52
310.184	7.58
310.554	7.64
310.923	7.71
311.293	7.77
311.662	7.83
312.031	7.9
312.401	7.97
312.77	8.03
313.139	8.1
313.508	8.17
313.877	8.24
314.246	8.28
314.616	8.33
314.985	8.41
315.353	8.46
315.722	8.5
316.091	8.58
316.46	8.63
316.829	8.71
317.198	8.78
317.567	8.86
317.935	8.94
318.304	9.01
318.672	9.09
319.041	9.19
319.41	9.24
319.778	9.31
320.147	9.36
320.515	9.44
320.883	9.49
321.252	9.54
321.62	9.6
321.988	9.65
322.357	9.71
322.725	9.76
323.093	9.81
323.461	9.85
323.829	9.9
324.197	9.94
324.565	9.95
324.933	10
325.301	10.03
325.669	10.08
326.037	10.1
326.405	10.14
326.772	10.17
327.14	10.19
327.508	10.21
327.875	10.24
328.243	10.27
328.61	10.29
328.978	10.3
329.346	10.32
329.713	10.35
330.08	10.35
330.448	10.37
330.815	10.38
331.182	10.39
331.55	10.41
331.917	10.41
332.284	10.41
332.651	10.42
333.018	10.43
333.385	10.45
333.752	10.47
334.119	10.47
334.486	10.5
334.853	10.52
335.22	10.54
335.587	10.55
335.954	10.56
336.32	10.58
336.687	10.58
337.054	10.59
337.42	10.6
337.787	10.61
338.153	10.62
338.52	10.63
338.886	10.61
339.253	10.61
339.619	10.63
339.986	10.63
340.352	10.65
340.718	10.65
341.084	10.65
341.451	10.66
341.817	10.66
342.183	10.67
342.549	10.67
342.915	10.66
343.281	10.66
343.647	10.65
344.013	10.65
344.379	10.66
344.745	10.66
345.11	10.65
345.476	10.65
345.842	10.66
346.208	10.66
346.573	10.65
346.939	10.63
347.304	10.65
347.67	10.64
348.035	10.64
348.401	10.63
348.766	10.61
349.132	10.6
349.497	10.58
349.862	10.56
350.228	10.53
350.593	10.52
350.958	10.51
351.323	10.49
351.688	10.48
352.053	10.46
352.418	10.44
352.783	10.41
353.148	10.37
353.513	10.35
353.878	10.32
354.243	10.29
354.608	10.25
354.972	10.22
355.337	10.17
355.702	10.13
356.066	10.1
356.431	10.05
356.795	10.01
357.16	9.96
357.524	9.93
357.889	9.9
358.253	9.87
358.618	9.82
358.982	9.77
359.346	9.74
359.71	9.7
360.075	9.67
360.439	9.62
360.803	9.59
361.167	9.55
361.531	9.51
361.895	9.47
362.259	9.42
362.623	9.37
362.987	9.33
363.351	9.29
363.714	9.24
364.078	9.18
364.442	9.13
364.806	9.08
365.169	9.03
365.533	8.98
365.896	8.92
366.26	8.87
366.623	8.81
366.987	8.75
367.35	8.69
367.714	8.63
368.077	8.57
368.44	8.51
368.803	8.45
369.167	8.38
369.53	8.31
369.893	8.23
370.256	8.16
370.619	8.09
370.982	8.02
371.345	7.95
371.708	7.88
372.071	7.82
372.434	7.75
372.797	7.68
373.159	7.62
373.522	7.56
373.885	7.51
374.247	7.44
374.61	7.37
374.973	7.29
375.335	7.22
375.698	7.16
376.06	7.1
376.423	7.03
376.785	6.97
377.147	6.91
377.51	6.85
377.872	6.79
378.234	6.72
378.596	6.66
378.958	6.6
379.321	6.54
379.683	6.49
380.045	6.43
380.407	6.38
380.769	6.32
381.13	6.26
381.492	6.2
381.854	6.15
382.216	6.09
382.578	6.04
382.939	5.99
383.301	5.95
383.663	5.9
384.024	5.85
384.386	5.81
384.747	5.76
385.109	5.73
385.47	5.68
385.832	5.63
386.193	5.58
386.554	5.54
386.916	5.49
387.277	5.46
387.638	5.42
387.999	5.38
388.36	5.35
388.721	5.31
389.082	5.28
389.443	5.25
389.804	5.22
390.165	5.19
390.526	5.15
390.887	5.12
391.248	5.08
391.609	5.05
391.969	5.02
392.33	4.99
392.691	4.97
393.051	4.93
393.412	4.9
393.772	4.87
394.133	4.84
394.493	4.81
394.854	4.78
395.214	4.75
395.574	4.72
395.935	4.69
396.295	4.66
396.655	4.64
397.015	4.61
397.376	4.59
397.736	4.56
398.096	4.53
398.456	4.5
398.816	4.48
399.176	4.45
399.535	4.42
399.895	4.4
400.255	4.37
400.615	4.35
400.975	4.33
401.334	4.3
401.694	4.28
402.054	4.26
402.413	4.24
402.773	4.22
403.132	4.19
403.492	4.18
403.851	4.16
404.211	4.14
404.57	4.12
404.929	4.11
405.288	4.09
405.648	4.08
406.007	4.07
406.366	4.06
406.725	4.05
407.084	4.04
407.443	4.02
407.802	4.02
408.161	4
408.52	3.99
408.879	3.98
409.238	3.98
409.596	3.97
409.955	3.96
410.314	3.94
410.673	3.94
411.031	3.93
411.39	3.92
411.748	3.92
412.107	3.92
412.465	3.92
412.824	3.93
413.182	3.94
413.54	3.95
413.899	3.96
414.257	3.99
414.615	4.01
414.974	4.03
415.332	4.06
415.69	4.09
416.048	4.11
416.406	4.14
416.764	4.15
417.122	4.17
417.48	4.19
417.838	4.21
418.195	4.22
418.553	4.24
418.911	4.24
419.269	4.24
419.626	4.23
419.984	4.22
420.342	4.2
420.699	4.18
421.057	4.15
421.414	4.13
421.772	4.11
422.129	4.1
422.486	4.09
422.844	4.08
423.201	4.07
423.558	4.07
423.915	4.06
424.273	4.05
424.63	4.05
424.987	4.04
425.344	4.04
425.701	4.03
426.058	4.02
426.415	4.02
426.772	4.01
427.128	4
427.485	3.98
427.842	3.96
428.199	3.94
428.555	3.92
428.912	3.89
429.269	3.86
429.625	3.84
429.982	3.81
430.338	3.77
430.695	3.75
431.051	3.71
431.407	3.69
431.764	3.67
432.12	3.65
432.476	3.64
432.832	3.62
433.189	3.62
433.545	3.62
433.901	3.63
434.257	3.65
434.613	3.66
434.969	3.68
435.325	3.71
435.681	3.74
436.036	3.76
436.392	3.77
436.748	3.79
437.104	3.8
437.459	3.81
437.815	3.82
438.171	3.84
438.526	3.86
438.882	3.89
439.237	3.92
439.593	3.95
439.948	3.98
440.304	4.01
440.659	4.03
441.014	4.04
441.369	4.07
441.725	4.08
442.08	4.1
442.435	4.11
442.79	4.11
443.145	4.12
443.5	4.12
443.855	4.12
444.21	4.11
444.565	4.11
444.92	4.1
445.275	4.09
445.629	4.08
445.984	4.07
446.339	4.06
446.693	4.04
447.048	4.03
447.403	4.01
447.757	3.99
448.112	3.97
448.466	3.94
448.82	3.92
449.175	3.9
449.529	3.87
449.883	3.85
450.238	3.83
450.592	3.82
450.946	3.81
451.3	3.8
451.654	3.8
452.008	3.8
452.362	3.81
452.716	3.8
453.07	3.8
453.424	3.79
453.778	3.78
454.132	3.77
454.486	3.76
454.839	3.74
455.193	3.72
455.547	3.71
455.9	3.68
456.254	3.67
456.607	3.64
456.961	3.62
457.314	3.6
457.668	3.59
458.021	3.58
458.375	3.57
458.728	3.58
459.081	3.58
459.434	3.58
459.787	3.59
460.141	3.6
460.494	3.61
460.847	3.62
461.2	3.62
461.553	3.63
461.906	3.63
462.259	3.64
462.611	3.64
462.964	3.65
463.317	3.65
463.67	3.66
464.022	3.67
464.375	3.67
464.728	3.68
465.08	3.69
465.433	3.69
465.785	3.69
466.138	3.68
466.49	3.67
466.843	3.66
467.195	3.64
467.547	3.63
467.899	3.61
468.252	3.59
468.604	3.57
468.956	3.55
469.308	3.54
469.66	3.54
470.012	3.54
470.364	3.55
470.716	3.55
471.068	3.57
471.42	3.59
471.772	3.61
472.123	3.62
472.475	3.63
472.827	3.64
473.178	3.65
473.53	3.66
473.882	3.67
474.233	3.69
474.585	3.73
474.936	3.78
475.288	3.86
475.639	3.96
475.99	4.08
476.342	4.21
476.693	4.35
477.044	4.49
477.395	4.64
477.746	4.8
478.097	4.95
478.448	5.1
478.8	5.25
479.15	5.39
479.501	5.52
479.852	5.64
480.203	5.75
480.554	5.86
480.905	5.96
481.255	6.06
481.606	6.15
481.957	6.24
482.307	6.32
482.658	6.4
483.009	6.47
483.359	6.55
483.709	6.62
484.06	6.69
484.41	6.75
484.761	6.82
485.111	6.88
485.461	6.94
485.811	6.99
486.162	7.04
486.512	7.09
486.862	7.12
487.212	7.15
487.562	7.16
487.912	7.17
488.262	7.18
488.612	7.17
488.961	7.15
489.311	7.12
489.661	7.06
490.011	6.98
490.36	6.89
490.71	6.78
491.06	6.67
491.409	6.55
491.759	6.42
492.108	6.29
492.458	6.15
492.807	6.01
493.157	5.87
493.506	5.74
493.855	5.62
494.204	5.5
494.554	5.38
494.903	5.28
495.252	5.19
495.601	5.09
495.95	5
496.299	4.92
496.648	4.84
496.997	4.77
497.346	4.7
497.695	4.64
498.043	4.57
498.392	4.51
498.741	4.46
499.09	4.41
499.438	4.36
499.787	4.32
500.135	4.28
500.484	4.25
500.832	4.23
501.181	4.22
501.529	4.22
501.878	4.23
502.226	4.25
502.574	4.28
502.923	4.31
503.271	4.34
503.619	4.37
503.967	4.41
504.315	4.44
504.663	4.48
505.011	4.51
505.359	4.55
505.707	4.58
506.055	4.62
506.403	4.67
506.751	4.72
507.098	4.76
507.446	4.81
507.794	4.87
508.141	4.92
508.489	4.98
508.837	5.05
509.184	5.12
509.531	5.18
509.879	5.25
510.226	5.33
510.574	5.41
510.921	5.5
511.268	5.58
511.616	5.68
511.963	5.77
512.31	5.87
512.657	5.97
513.004	6.07
513.351	6.16
513.698	6.25
514.045	6.32
514.392	6.4
514.739	6.47
515.086	6.54
515.432	6.61
515.779	6.67
516.126	6.74
516.473	6.82
516.819	6.9
517.166	6.99
517.512	7.09
517.859	7.2
518.205	7.32
518.552	7.45
518.898	7.59
519.245	7.75
519.591	7.95
519.937	8.19
520.283	8.46
520.629	8.76
520.976	9.08
521.322	9.42
521.668	9.76
522.014	10.11
522.36	10.46
522.706	10.8
523.052	11.14
523.398	11.44
523.743	11.73
524.089	11.99
524.435	12.23
524.781	12.47
525.126	12.7
525.472	12.92
525.817	13.14
526.163	13.35
526.509	13.56
526.854	13.77
527.199	13.98
527.545	14.19
527.89	14.41
528.235	14.62
528.581	14.82
528.926	15.02
529.271	15.2
529.616	15.37
529.961	15.54
530.306	15.7
530.651	15.85
530.996	15.98
531.341	16.11
531.686	16.22
532.031	16.33
532.376	16.45
532.721	16.58
533.065	16.73
533.41	16.88
533.755	17.03
534.099	17.15
534.444	17.25
534.788	17.34
535.133	17.43
535.477	17.5
535.822	17.55
536.166	17.59
536.51	17.6
536.855	17.59
537.199	17.56
537.543	17.54
537.887	17.53
538.231	17.55
538.576	17.56
538.92	17.58
539.264	17.58
539.608	17.58
539.951	17.58
540.295	17.56
540.639	17.55
540.983	17.52
541.327	17.49
541.671	17.45
542.014	17.43
542.358	17.41
542.701	17.44
543.045	17.5
543.389	17.58
543.732	17.67
544.075	17.77
544.419	17.89
544.762	18.02
545.105	18.15
545.449	18.29
545.792	18.45
546.135	18.6
546.478	18.74
546.821	18.86
547.165	18.94
547.508	19.01
547.851	19.04
548.194	19.07
548.536	19.07
548.879	19.06
549.222	19.04
549.565	19.02
549.908	19.01
550.25	19.01
550.593	19.05
550.936	19.13
551.278	19.24
551.621	19.37
551.963	19.52
552.306	19.69
552.648	19.88
552.991	20.09
553.333	20.31
553.675	20.56
554.017	20.83
554.36	21.12
554.702	21.43
555.044	21.77
555.386	22.14
555.728	22.55
556.07	22.92
556.412	23.3
556.754	23.63
557.096	23.94
557.438	24.25
557.78	24.57
558.121	24.9
558.463	25.23
558.805	25.56
559.147	25.89
559.488	26.24
559.83	26.57
560.171	26.91
560.513	27.26
560.854	27.6
561.196	27.94
561.537	28.27
561.878	28.61
562.22	28.94
562.561	29.27
562.902	29.6
563.243	29.93
563.584	30.26
563.925	30.6
564.266	30.94
564.607	31.29
564.948	31.63
565.289	31.96
565.63	32.3
565.971	32.63
566.312	32.95
566.653	33.28
566.993	33.61
567.334	33.94
567.675	34.25
568.015	34.57
568.356	34.88
568.696	35.18
569.037	35.48
569.377	35.79
569.718	36.08
570.058	36.36
570.398	36.64
570.739	36.91
571.079	37.17
571.419	37.44
571.759	37.71
572.099	37.97
572.439	38.23
572.779	38.49
573.119	38.75
573.459	39.01
573.799	39.27
574.139	39.53
574.479	39.78
574.819	40.05
575.158	40.3
575.498	40.56
575.838	40.81
576.177	41.05
576.517	41.29
576.856	41.54
577.196	41.79
577.535	42.03
577.875	42.28
578.214	42.52
578.553	42.75
578.893	42.99
579.232	43.23
579.571	43.48
579.91	43.73
580.25	43.98
580.589	44.25
580.928	44.51
581.267	44.75
581.606	45.01
581.945	45.27
582.283	45.53
582.622	45.79
582.961	46.05
583.3	46.3
583.639	46.56
583.977	46.81
584.316	47.06
584.654	47.31
584.993	47.55
585.332	47.79
585.67	48
586.008	48.22
586.347	48.45
586.685	48.67
587.024	48.89
587.362	49.1
587.7	49.33
588.038	49.54
588.376	49.77
588.715	49.99
589.053	50.22
589.391	50.43
589.729	50.65
590.067	50.86
590.404	51.08
590.742	51.29
591.08	51.5
591.418	51.68
591.756	51.87
592.093	52.05
592.431	52.22
592.769	52.37
593.106	52.53
593.444	52.68
593.781	52.83
594.119	52.98
594.456	53.11
594.793	53.25
595.131	53.4
595.468	53.55
595.805	53.7
596.143	53.85
596.48	54.01
596.817	54.16
597.154	54.32
597.491	54.47
597.828	54.62
598.165	54.78
598.502	54.94
598.839	55.08
599.176	55.22
599.512	55.35
599.849	55.49
600.186	55.62
600.523	55.74
600.859	55.86
601.196	55.97
601.532	56.08
601.869	56.2
602.205	56.32
602.542	56.42
602.878	56.53
603.215	56.65
603.551	56.74
603.887	56.84
604.223	56.93
604.56	57.02
604.896	57.1
605.232	57.2
605.568	57.29
605.904	57.38
606.24	57.47
606.576	57.56
606.912	57.64
607.248	57.72
607.583	57.8
607.919	57.87
608.255	57.94
608.591	58.02
608.926	58.09
609.262	58.16
609.597	58.22
609.933	58.29
610.268	58.35
610.604	58.42
610.939	58.47
611.275	58.54
611.61	58.6
611.945	58.66
612.281	58.71
612.616	58.77
612.951	58.83
613.286	58.89
613.621	58.94
613.956	59
614.291	59.06
614.626	59.12
614.961	59.19
615.296	59.25
615.631	59.3
615.966	59.35
616.3	59.41
616.635	59.45
616.97	59.5
617.304	59.57
617.639	59.63
617.973	59.7
618.308	59.75
618.642	59.82
618.977	59.87
619.311	59.93
619.646	60
619.98	60.06
620.314	60.11
620.648	60.15
620.983	60.21
621.317	60.25
621.651	60.31
621.985	60.37
622.319	60.43
622.653	60.47
622.987	60.52
623.321	60.59
623.655	60.62
623.988	60.65
624.322	60.69
624.656	60.74
624.99	60.78
625.323	60.83
625.657	60.87
625.99	60.91
626.324	60.94
626.657	60.98
626.991	61.01
627.324	61.03
627.658	61.05
627.991	61.09
628.324	61.13
628.657	61.15
628.991	61.19
629.324	61.22
629.657	61.26
629.99	61.29
630.323	61.33
630.656	61.36
630.989	61.38
631.322	61.42
631.655	61.45
631.987	61.49
632.32	61.52
632.653	61.54
632.986	61.56
633.318	61.58
633.651	61.62
633.984	61.64
634.316	61.68
634.649	61.71
634.981	61.76
635.313	61.79
635.646	61.8
635.978	61.81
636.31	61.84
636.643	61.85
636.975	61.86
637.307	61.9
637.639	61.93
637.971	61.96
638.303	61.98
638.635	62
638.967	62.01
639.299	62.03
639.631	62.05
639.963	62.08
640.295	62.1
640.626	62.15
640.958	62.2
641.29	62.23
641.621	62.24
641.953	62.27
642.285	62.3
642.616	62.33
642.948	62.35
643.279	62.38
643.61	62.39
643.942	62.4
644.273	62.43
644.604	62.44
644.936	62.45
645.267	62.47
645.598	62.48
645.929	62.5
646.26	62.53
646.591	62.56
646.922	62.57
647.253	62.58
647.584	62.61
647.915	62.62
648.245	62.65
648.576	62.67
648.907	62.68
649.238	62.72
649.568	62.75
649.899	62.76
650.229	62.8
650.56	62.83
650.89	62.85
651.221	62.86
651.551	62.89
651.882	62.91
652.212	62.94
652.542	62.97
652.872	62.98
653.203	63.01
653.533	63.04
653.863	63.03
654.193	63.03
654.523	63.03
654.853	63.05
655.183	63.07
655.513	63.08
655.843	63.09
656.172	63.12
656.502	63.13
656.832	63.14
657.162	63.17
657.491	63.19
657.821	63.19
658.15	63.22
658.48	63.24
658.809	63.27
659.139	63.28
659.468	63.29
659.798	63.31
660.127	63.31
660.456	63.34
660.785	63.36
661.115	63.38
661.444	63.4
661.773	63.41
662.102	63.43
662.431	63.42
662.76	63.43
663.089	63.45
663.418	63.46
663.747	63.48
664.076	63.49
664.404	63.48
664.733	63.49
665.062	63.49
665.39	63.5
665.719	63.51
666.048	63.52
666.376	63.55
666.705	63.57
667.033	63.58
667.362	63.61
667.69	63.63
668.018	63.65
668.347	63.67
668.675	63.68
669.003	63.71
669.331	63.73
669.659	63.72
669.987	63.75
670.315	63.78
670.643	63.8
670.971	63.81
671.299	63.82
671.627	63.82
671.955	63.84
672.283	63.84
672.61	63.86
672.938	63.87
673.266	63.88
673.593	63.91
673.921	63.92
674.249	63.94
674.576	63.92
674.904	63.93
675.231	63.93
675.558	63.94
675.886	63.96
676.213	63.98
676.54	63.99
676.867	64
677.195	64.01
677.522	64.02
677.849	64.05
678.176	64.06
678.503	64.07
678.83	64.08
679.157	64.08
679.484	64.09
679.81	64.09
680.137	64.08
680.464	64.1
680.791	64.11
681.117	64.13
681.444	64.13
681.771	64.14
682.097	64.16
682.424	64.15
682.75	64.15
683.077	64.16
683.403	64.14
683.729	64.14
684.056	64.14
684.382	64.16
684.708	64.18
685.034	64.19
685.36	64.18
685.686	64.18
686.012	64.19
686.339	64.2
686.664	64.21
686.99	64.2
687.316	64.21
687.642	64.21
687.968	64.23
688.294	64.25
688.619	64.27
688.945	64.27
689.271	64.29
689.596	64.3
689.922	64.29
690.247	64.32
690.573	64.32
690.898	64.33
691.224	64.34
691.549	64.36
691.874	64.37
692.2	64.37
692.525	64.4
692.85	64.42
693.175	64.42
693.5	64.42
693.825	64.39
694.15	64.37
694.475	64.37
694.8	64.36
695.125	64.34
695.45	64.34
695.775	64.34
696.099	64.36
696.424	64.37
696.749	64.38
697.073	64.39
697.398	64.38
697.723	64.37
698.047	64.37
698.372	64.39
698.696	64.41
699.02	64.42
699.345	64.43
699.669	64.44
699.993	64.45
700.318	64.46
700.642	64.47
700.966	64.48
701.29	64.48
701.614	64.48
701.938	64.46
702.262	64.48
702.586	64.49
702.91	64.5
703.234	64.51
703.557	64.51
703.881	64.53
704.205	64.54
704.529	64.53
704.852	64.55
705.176	64.57
705.499	64.59
705.823	64.58
706.146	64.57
706.47	64.59
706.793	64.61
707.117	64.65
707.44	64.7
707.763	64.71
708.086	64.77
708.409	64.79
708.733	64.79
709.056	64.83
709.379	64.81
709.702	64.83
710.025	64.85
710.348	64.86
710.671	64.87
710.993	64.87
711.316	64.88
711.639	64.89
711.962	64.91
712.284	64.92
712.607	64.92
712.93	64.93
713.252	64.93
713.575	64.94
713.897	64.96
714.22	64.98
714.542	64.99
714.864	64.98
715.187	65.01
715.509	65.02
715.831	65.02
716.153	65.03
716.475	65.03
716.798	65.05
717.12	65.05
717.442	65.07
717.764	65.1
718.085	65.09
718.407	65.07
718.729	65.08
719.051	65.1
719.373	65.14
719.695	65.16
720.016	65.19
720.338	65.19
720.659	65.21
720.981	65.21
721.302	65.21
721.624	65.23
721.945	65.27
722.267	65.26
722.588	65.32
722.909	65.32
723.231	65.34
723.552	65.34
723.873	65.37
724.194	65.38
724.515	65.41
724.836	65.42
725.157	65.43
725.478	65.42
725.799	65.42
726.12	65.42
726.441	65.45
726.762	65.42
727.083	65.4
727.403	65.37
727.724	65.37
728.045	65.42
728.365	65.43
728.686	65.46
729.006	65.48
729.327	65.46
729.647	65.47
729.967	65.47
730.288	65.49
730.608	65.48
730.928	65.49
731.249	65.5
731.569	65.51
731.889	65.53
732.209	65.53
732.529	65.51
732.849	65.51
733.169	65.51
733.489	65.53
733.809	65.51
734.129	65.52
734.448	65.52
734.768	65.52
735.088	65.53
735.408	65.52
735.727	65.47
736.047	65.51
736.366	65.51
736.686	65.53
737.005	65.53
737.325	65.51
737.644	65.5
737.963	65.46
738.283	65.46
738.602	65.48
738.921	65.52
739.24	65.52
739.56	65.5
739.879	65.55
740.198	65.58
740.517	65.59
740.836	65.59
741.155	65.59
741.473	65.59
741.792	65.55
742.111	65.52
742.43	65.54
742.748	65.56
743.067	65.57
743.386	65.53
743.704	65.52
744.023	65.48
744.341	65.48
744.66	65.51
744.978	65.49
745.297	65.49
745.615	65.5
745.933	65.48
746.252	65.46
746.57	65.45
746.888	65.49
747.206	65.48
747.524	65.5
747.842	65.5
748.16	65.47
748.478	65.45
748.796	65.46
749.114	65.44
749.432	65.45
749.749	65.44
750.067	65.44
750.385	65.48
750.703	65.49
751.02	65.55
751.338	65.54
751.655	65.56
751.973	65.54
752.29	65.53
752.608	65.54
752.925	65.54
753.242	65.52
753.56	65.55
753.877	65.6
754.194	65.61
754.511	65.61
754.828	65.61
755.145	65.63
755.462	65.65
755.779	65.67
756.096	65.67
756.413	65.68
756.73	65.64
757.047	65.66
757.364	65.68
757.68	65.7
757.997	65.68
758.314	65.75
758.63	65.74
758.947	65.76
759.264	65.77
759.58	65.77
759.896	65.76
760.213	65.79
760.529	65.8
760.846	65.82
761.162	65.84
761.478	65.84
761.794	65.88
762.11	65.91
762.426	65.93
762.743	65.95
763.059	65.92
763.375	65.92
763.69	65.92
764.006	65.9
764.322	65.92
764.638	65.92
764.954	65.9
765.27	65.93
765.585	65.95
765.901	65.95
766.216	65.96
766.532	65.91
766.848	65.88
767.163	65.86
767.478	65.85
767.794	65.86
768.109	65.86
768.424	65.85
768.74	65.8
769.055	65.77
769.37	65.8
769.685	65.83
770	65.87
770.315	65.88
770.63	65.86
770.945	65.88
771.26	65.8
771.575	65.79
771.89	65.78
772.205	65.78
772.52	65.77
772.834	65.76
773.149	65.71
773.464	65.68
773.778	65.64
774.093	65.63
774.407	65.63
774.722	65.6
775.036	65.58
775.351	65.56
775.665	65.59
775.979	65.61
776.293	65.59
776.608	65.62
776.922	65.61
777.236	65.61
777.55	65.6
777.864	65.63
778.178	65.59
778.492	65.6
778.806	65.61
779.12	65.62
779.434	65.71
779.747	65.75
780.061	65.81
780.375	65.84
780.689	65.81
781.002	65.83
781.316	65.83
781.629	65.91
781.943	65.96
782.256	65.94
782.57	65.92
782.883	65.88
783.196	65.87
783.51	65.85
783.823	65.86
784.136	65.89
784.449	65.91
784.762	65.9
785.075	65.9
785.388	65.91
785.701	65.92
786.014	65.97
786.327	66.03
786.64	66.06
786.953	66.1
787.266	66.08
787.578	66.06
787.891	66.02
788.204	66.02
788.516	66.04
788.829	66.1
789.141	66.11
789.454	66.09
789.766	66.13
790.079	66.11
790.391	66.1
790.703	66.13
791.016	66.18
791.328	66.18
791.64	66.18
791.952	66.13
792.264	66.06
792.576	66.05
792.888	65.97
793.2	65.98
793.512	66.03
793.824	66.01
794.136	66.02
794.448	65.96
794.76	65.99
795.071	66.01
795.383	66.03
795.695	66.01
796.006	65.96
796.318	65.94
796.629	65.94
796.941	65.9
797.252	65.88
797.564	65.9
797.875	65.91
798.186	65.9
798.497	65.89
798.809	65.9
799.12	65.82
799.431	65.81
799.742	65.78
800.053	65.84
800.364	65.87
800.675	65.89
800.986	65.84
801.297	65.78
801.608	65.74
801.918	65.76
802.229	65.7
802.54	65.69
802.851	65.7
803.161	65.69
803.472	65.67
803.782	65.63
804.093	65.58
804.403	65.53
804.714	65.63
805.024	65.65
805.334	65.56
805.645	65.57
805.955	65.54
806.265	65.49
806.575	65.47
806.885	65.46
807.195	65.47
807.505	65.45
807.815	65.5
808.125	65.48
808.435	65.49
808.745	65.5
809.055	65.56
809.365	65.52
809.674	65.57
809.984	65.57
810.294	65.53
810.603	65.55
810.913	65.56
811.222	65.63
811.532	65.64
811.841	65.68
812.151	65.65
812.46	65.66
812.769	65.65
813.079	65.65
813.388	65.69
813.697	65.73
814.006	65.74
814.315	65.76
814.624	65.76
814.933	65.8
815.242	65.85
815.551	65.84
815.86	65.87
816.169	65.9
816.478	65.87
816.786	65.85
817.095	65.86
817.404	65.82
817.712	65.79
818.021	65.84
818.33	65.73
818.638	65.72
818.947	65.7
819.255	65.72
819.563	65.69
819.872	65.76
820.18	65.75
820.488	65.74
820.796	65.75
821.105	65.79
821.413	65.82
821.721	65.85
822.029	65.9
822.337	65.93
822.645	65.94
822.953	65.94
823.26	65.94
823.568	65.95
823.876	65.92
824.184	65.91
824.491	65.92
824.799	65.93
825.107	65.96
825.414	65.95
825.722	65.97
826.029	65.97
826.337	65.97
826.644	65.96
826.951	65.97
827.259	65.95
827.566	65.95
827.873	65.92
828.18	65.92
828.488	65.92
828.795	65.9
829.102	65.91
829.409	65.95
829.716	65.92
830.023	65.92
830.329	65.92
830.636	65.93
830.943	66.02
831.25	66.05
831.557	66.1
831.863	66.1
832.17	66.12
832.476	66.07
832.783	66.06
833.089	66.07
833.396	66.09
833.702	66.04
834.009	66.05
834.315	65.97
834.621	65.98
834.928	65.93
835.234	65.93
835.54	65.91
835.846	65.86
836.152	65.81
836.458	65.84
836.764	65.87
837.07	65.83
837.376	65.8
837.682	65.7
837.988	65.75
838.293	65.75
838.599	65.74
838.905	65.71
839.211	65.72
839.516	65.63
839.822	65.67
840.127	65.74
840.433	65.75
840.738	65.79
841.044	65.81
841.349	65.82
841.654	65.79
841.959	65.74
842.265	65.83
842.57	65.86
842.875	65.89
843.18	65.82
843.485	65.8
843.79	65.73
844.095	65.71
844.4	65.74
844.705	65.87
845.01	65.94
845.315	65.99
845.619	65.94
845.924	65.86
846.229	65.84
846.533	65.78
846.838	65.95
847.142	65.81
847.447	65.91
847.751	65.96
848.056	65.99
848.36	66.07
848.664	66.18
848.969	66.23
849.273	66.16
849.577	66.15
849.881	66.17
850.185	66.23
850.489	66.1
850.794	66.02
851.097	66.07
851.401	66.04
851.705	65.93
852.009	66.16
852.313	66.24
852.617	66.23
852.92	66.25
853.224	66.2
853.528	66.12
853.831	66.27
854.135	66.4
854.438	66.38
854.742	66.33
855.045	66.31
855.349	66.37
855.652	66.54
855.955	66.5
856.259	66.75
856.562	66.81
856.865	66.85
857.168	66.75
857.471	66.59
857.774	66.51
858.077	66.6
858.38	66.56
858.683	66.58
858.986	66.54
859.289	66.26
859.592	66.23
859.894	66.16
860.197	66.08
860.5	66.2
860.802	66.12
861.105	66.1
861.407	66
861.71	65.93
862.012	65.83
862.315	65.9
862.617	65.87
862.919	65.9
863.222	65.77
863.524	65.77
863.826	65.77
864.128	65.89
864.43	65.78
864.732	65.79
865.034	65.75
865.336	65.71
865.638	65.71
865.94	65.64
866.242	65.52
866.544	65.51
866.846	65.59
867.147	65.58
867.449	65.77
867.751	65.76
868.052	65.63
868.354	65.4
868.655	65.25
868.957	65.12
869.258	64.98
869.56	65.03
869.861	65.25
870.162	65.12
870.463	65.07
870.765	65.07
871.066	65.2
871.367	65.22
871.668	65.21
871.969	65.31
872.27	65.25
872.571	65.2
872.872	65.16
873.173	65.26
873.473	65.24
873.774	65.17
874.075	65.25
874.376	65.43
874.676	65.38
874.977	65.42
875.277	65.5
875.578	65.61
875.878	65.49
876.179	65.62
876.479	65.58
876.78	65.62
877.08	65.45
877.38	65.36
877.68	65.43
877.981	65.33
878.281	65.32
878.581	65.27
