Data from UWBM79812_Reflection_00004.txt Node
Date: Sun May 02 13:57:11 EDT 2021
User: vgr7
Spectrometer: USB2G7710
Scans to average: 10
Trigger mode: 4
Integration Time (sec): 1.000000E-1
Electric dark correction enabled: true
Boxcar width: 20
XAxis mode: Wavelengths
Number of Pixels in Spectrum: 2048
>>>>>Begin Spectral Data<<<<<
177.721	13.56
178.105	25.69
178.488	52.63
178.871	90.4
179.254	95.85
179.636	76.99
180.019	63.76
180.402	58.55
180.785	52.29
181.168	49.1
181.55	44.9
181.933	46.6
182.316	40.32
182.698	41.91
183.081	39.47
183.463	34.02
183.846	30.83
184.228	29.39
184.611	30.49
184.993	31.09
185.376	32.37
185.758	31.27
186.14	31.32
186.522	31.78
186.904	27.9
187.287	25.89
187.669	24.78
188.051	23.79
188.433	26.63
188.815	24.37
189.197	23.14
189.579	21.97
189.961	20.4
190.342	18.79
190.724	20.11
191.106	20.26
191.488	20.29
191.869	18.37
192.251	16.26
192.633	15.8
193.014	16.63
193.396	15.03
193.777	14.54
194.159	14.77
194.54	13.66
194.922	12.31
195.303	12.11
195.684	10.54
196.065	10.14
196.447	9.54
196.828	8.38
197.209	7.28
197.59	5.19
197.971	5.18
198.352	5.31
198.733	5.71
199.114	7.09
199.495	8.32
199.876	7.92
200.257	7.11
200.638	4.75
201.018	4.86
201.399	5.83
201.78	4.78
202.16	2.82
202.541	3.61
202.922	3.87
203.302	6.15
203.683	6.14
204.063	5.5
204.444	4.79
204.824	4.9
205.204	3.87
205.585	5.4
205.965	6.63
206.345	5.66
206.725	5.47
207.106	5.18
207.486	5.56
207.866	7.09
208.246	7.75
208.626	7.48
209.006	8.42
209.386	7.43
209.766	6.42
210.145	4.88
210.525	4.58
210.905	5.01
211.285	4.81
211.664	5
212.044	4.65
212.424	4.21
212.803	3.68
213.183	2.78
213.562	3.22
213.942	1.87
214.321	0.7
214.701	0.37
215.08	-0.14
215.459	0.09
215.838	-1.04
216.218	-1.04
216.597	-2.17
216.976	-2.67
217.355	-1.63
217.734	-1.4
218.113	-1.44
218.492	-1.97
218.871	-4.18
219.25	-4.12
219.629	-4.27
220.008	-3.46
220.387	-5.06
220.766	-3.99
221.144	-3.85
221.523	-4.49
221.902	-3.63
222.28	-3.14
222.659	-2.32
223.037	-2.45
223.416	-1.24
223.794	-1.11
224.173	-1.1
224.551	-1.54
224.929	-0.25
225.308	0.33
225.686	0.83
226.064	0.85
226.442	1.22
226.821	1.93
227.199	2.21
227.577	2.46
227.955	2.95
228.333	3.39
228.711	3.47
229.089	3.23
229.467	3.31
229.845	3.67
230.222	3.51
230.6	3.57
230.978	3.43
231.356	3.93
231.733	4.07
232.111	4.09
232.488	4.06
232.866	3.84
233.243	3.73
233.621	3.95
233.998	4.17
234.376	4.46
234.753	4.35
235.13	4.42
235.508	4.56
235.885	4.76
236.262	4.83
236.639	4.69
237.016	4.64
237.393	4.63
237.77	4.58
238.147	4.53
238.524	4.55
238.901	4.38
239.278	4.37
239.655	4.38
240.032	4.36
240.409	4.31
240.785	4.33
241.162	4.35
241.539	4.36
241.915	4.4
242.292	4.35
242.668	4.32
243.045	4.3
243.421	4.27
243.798	4.28
244.174	4.31
244.551	4.33
244.927	4.34
245.303	4.31
245.679	4.35
246.056	4.32
246.432	4.35
246.808	4.29
247.184	4.31
247.56	4.35
247.936	4.36
248.312	4.35
248.688	4.38
249.064	4.37
249.44	4.37
249.815	4.33
250.191	4.32
250.567	4.31
250.943	4.27
251.318	4.27
251.694	4.26
252.069	4.27
252.445	4.29
252.82	4.28
253.196	4.25
253.571	4.24
253.947	4.23
254.322	4.21
254.697	4.21
255.073	4.19
255.448	4.22
255.823	4.19
256.198	4.16
256.573	4.16
256.948	4.15
257.323	4.11
257.698	4.09
258.073	4.06
258.448	4.05
258.823	4.04
259.198	4.01
259.573	3.98
259.948	3.98
260.322	3.98
260.697	3.97
261.072	3.95
261.446	3.94
261.821	3.92
262.195	3.91
262.57	3.89
262.944	3.88
263.319	3.88
263.693	3.88
264.067	3.87
264.442	3.85
264.816	3.83
265.19	3.83
265.564	3.82
265.938	3.82
266.313	3.82
266.687	3.8
267.061	3.79
267.435	3.78
267.809	3.77
268.183	3.76
268.556	3.77
268.93	3.76
269.304	3.75
269.678	3.77
270.051	3.75
270.425	3.74
270.799	3.72
271.172	3.72
271.546	3.72
271.919	3.7
272.293	3.7
272.666	3.7
273.04	3.72
273.413	3.76
273.787	3.77
274.16	3.77
274.533	3.78
274.906	3.79
275.279	3.79
275.653	3.79
276.026	3.8
276.399	3.8
276.772	3.81
277.145	3.81
277.518	3.82
277.891	3.84
278.263	3.81
278.636	3.8
279.009	3.8
279.382	3.79
279.755	3.79
280.127	3.8
280.5	3.81
280.872	3.83
281.245	3.82
281.617	3.82
281.99	3.83
282.362	3.81
282.735	3.79
283.107	3.8
283.479	3.77
283.852	3.78
284.224	3.78
284.596	3.77
284.968	3.76
285.34	3.77
285.713	3.79
286.085	3.8
286.457	3.79
286.829	3.78
287.201	3.79
287.572	3.78
287.944	3.76
288.316	3.75
288.688	3.73
289.06	3.73
289.431	3.73
289.803	3.74
290.175	3.74
290.546	3.74
290.918	3.74
291.289	3.74
291.661	3.73
292.032	3.72
292.403	3.72
292.775	3.72
293.146	3.71
293.517	3.72
293.889	3.73
294.26	3.74
294.631	3.75
295.002	3.76
295.373	3.75
295.744	3.74
296.115	3.73
296.486	3.74
296.857	3.75
297.228	3.75
297.599	3.76
297.97	3.77
298.34	3.75
298.711	3.77
299.082	3.77
299.452	3.77
299.823	3.77
300.194	3.78
300.564	3.78
300.935	3.76
301.305	3.76
301.676	3.76
302.046	3.76
302.416	3.76
302.787	3.76
303.157	3.77
303.527	3.78
303.897	3.76
304.267	3.77
304.637	3.77
305.008	3.75
305.378	3.75
305.748	3.75
306.117	3.76
306.487	3.76
306.857	3.76
307.227	3.76
307.597	3.77
307.967	3.77
308.336	3.77
308.706	3.76
309.076	3.74
309.445	3.73
309.815	3.72
310.184	3.71
310.554	3.71
310.923	3.71
311.293	3.7
311.662	3.69
312.031	3.69
312.401	3.7
312.77	3.69
313.139	3.69
313.508	3.7
313.877	3.7
314.246	3.71
314.616	3.69
314.985	3.68
315.353	3.7
315.722	3.68
316.091	3.7
316.46	3.69
316.829	3.69
317.198	3.7
317.567	3.69
317.935	3.69
318.304	3.69
318.672	3.69
319.041	3.7
319.41	3.68
319.778	3.68
320.147	3.67
320.515	3.66
320.883	3.64
321.252	3.62
321.62	3.6
321.988	3.61
322.357	3.6
322.725	3.59
323.093	3.58
323.461	3.57
323.829	3.59
324.197	3.6
324.565	3.6
324.933	3.6
325.301	3.6
325.669	3.6
326.037	3.61
326.405	3.62
326.772	3.62
327.14	3.6
327.508	3.59
327.875	3.6
328.243	3.59
328.61	3.57
328.978	3.55
329.346	3.54
329.713	3.56
330.08	3.57
330.448	3.55
330.815	3.55
331.182	3.53
331.55	3.53
331.917	3.52
332.284	3.5
332.651	3.49
333.018	3.49
333.385	3.48
333.752	3.48
334.119	3.47
334.486	3.48
334.853	3.47
335.22	3.47
335.587	3.47
335.954	3.47
336.32	3.47
336.687	3.47
337.054	3.45
337.42	3.46
337.787	3.47
338.153	3.47
338.52	3.46
338.886	3.44
339.253	3.43
339.619	3.43
339.986	3.43
340.352	3.43
340.718	3.42
341.084	3.4
341.451	3.4
341.817	3.39
342.183	3.39
342.549	3.4
342.915	3.39
343.281	3.39
343.647	3.4
344.013	3.39
344.379	3.39
344.745	3.38
345.11	3.37
345.476	3.38
345.842	3.37
346.208	3.37
346.573	3.37
346.939	3.37
347.304	3.38
347.67	3.37
348.035	3.38
348.401	3.38
348.766	3.39
349.132	3.39
349.497	3.39
349.862	3.4
350.228	3.41
350.593	3.4
350.958	3.4
351.323	3.41
351.688	3.42
352.053	3.42
352.418	3.42
352.783	3.42
353.148	3.41
353.513	3.43
353.878	3.43
354.243	3.44
354.608	3.44
354.972	3.44
355.337	3.45
355.702	3.46
356.066	3.46
356.431	3.46
356.795	3.46
357.16	3.45
357.524	3.46
357.889	3.47
358.253	3.46
358.618	3.46
358.982	3.46
359.346	3.47
359.71	3.47
360.075	3.48
360.439	3.47
360.803	3.48
361.167	3.48
361.531	3.48
361.895	3.48
362.259	3.48
362.623	3.48
362.987	3.48
363.351	3.48
363.714	3.48
364.078	3.47
364.442	3.47
364.806	3.47
365.169	3.47
365.533	3.48
365.896	3.48
366.26	3.47
366.623	3.47
366.987	3.46
367.35	3.46
367.714	3.46
368.077	3.46
368.44	3.46
368.803	3.45
369.167	3.46
369.53	3.45
369.893	3.45
370.256	3.45
370.619	3.44
370.982	3.45
371.345	3.46
371.708	3.46
372.071	3.46
372.434	3.46
372.797	3.46
373.159	3.46
373.522	3.47
373.885	3.47
374.247	3.47
374.61	3.46
374.973	3.46
375.335	3.46
375.698	3.46
376.06	3.46
376.423	3.46
376.785	3.47
377.147	3.47
377.51	3.48
377.872	3.47
378.234	3.47
378.596	3.47
378.958	3.47
379.321	3.47
379.683	3.47
380.045	3.47
380.407	3.47
380.769	3.47
381.13	3.47
381.492	3.48
381.854	3.49
382.216	3.49
382.578	3.49
382.939	3.49
383.301	3.49
383.663	3.5
384.024	3.5
384.386	3.5
384.747	3.5
385.109	3.5
385.47	3.5
385.832	3.49
386.193	3.49
386.554	3.49
386.916	3.49
387.277	3.48
387.638	3.49
387.999	3.49
388.36	3.49
388.721	3.49
389.082	3.49
389.443	3.49
389.804	3.49
390.165	3.49
390.526	3.5
390.887	3.49
391.248	3.49
391.609	3.49
391.969	3.49
392.33	3.49
392.691	3.5
393.051	3.5
393.412	3.5
393.772	3.51
394.133	3.51
394.493	3.51
394.854	3.51
395.214	3.5
395.574	3.51
395.935	3.51
396.295	3.51
396.655	3.51
397.015	3.51
397.376	3.51
397.736	3.51
398.096	3.51
398.456	3.52
398.816	3.52
399.176	3.52
399.535	3.52
399.895	3.53
400.255	3.53
400.615	3.54
400.975	3.54
401.334	3.54
401.694	3.54
402.054	3.55
402.413	3.55
402.773	3.55
403.132	3.55
403.492	3.56
403.851	3.56
404.211	3.56
404.57	3.56
404.929	3.56
405.288	3.56
405.648	3.57
406.007	3.58
406.366	3.58
406.725	3.58
407.084	3.58
407.443	3.58
407.802	3.57
408.161	3.58
408.52	3.58
408.879	3.59
409.238	3.59
409.596	3.59
409.955	3.6
410.314	3.6
410.673	3.6
411.031	3.61
411.39	3.62
411.748	3.62
412.107	3.63
412.465	3.64
412.824	3.67
413.182	3.69
413.54	3.71
413.899	3.74
414.257	3.77
414.615	3.81
414.974	3.84
415.332	3.88
415.69	3.92
416.048	3.95
416.406	3.99
416.764	4.02
417.122	4.05
417.48	4.08
417.838	4.11
418.195	4.14
418.553	4.16
418.911	4.18
419.269	4.19
419.626	4.19
419.984	4.19
420.342	4.18
420.699	4.16
421.057	4.15
421.414	4.13
421.772	4.13
422.129	4.12
422.486	4.12
422.844	4.12
423.201	4.12
423.558	4.12
423.915	4.12
424.273	4.12
424.63	4.13
424.987	4.13
425.344	4.13
425.701	4.13
426.058	4.13
426.415	4.14
426.772	4.14
427.128	4.14
427.485	4.13
427.842	4.12
428.199	4.11
428.555	4.09
428.912	4.08
429.269	4.05
429.625	4.03
429.982	4.01
430.338	3.98
430.695	3.96
431.051	3.93
431.407	3.91
431.764	3.9
432.12	3.88
432.476	3.87
432.832	3.86
433.189	3.87
433.545	3.87
433.901	3.88
434.257	3.9
434.613	3.92
434.969	3.95
435.325	3.97
435.681	4.01
436.036	4.03
436.392	4.05
436.748	4.07
437.104	4.08
437.459	4.1
437.815	4.12
438.171	4.14
438.526	4.16
438.882	4.19
439.237	4.23
439.593	4.26
439.948	4.29
440.304	4.33
440.659	4.35
441.014	4.37
441.369	4.4
441.725	4.42
442.08	4.44
442.435	4.45
442.79	4.45
443.145	4.46
443.5	4.46
443.855	4.46
444.21	4.46
444.565	4.46
444.92	4.45
445.275	4.45
445.629	4.44
445.984	4.43
446.339	4.42
446.693	4.41
447.048	4.39
447.403	4.38
447.757	4.36
448.112	4.34
448.466	4.32
448.82	4.3
449.175	4.28
449.529	4.26
449.883	4.25
450.238	4.23
450.592	4.22
450.946	4.21
451.3	4.21
451.654	4.22
452.008	4.22
452.362	4.23
452.716	4.24
453.07	4.24
453.424	4.23
453.778	4.23
454.132	4.22
454.486	4.21
454.839	4.19
455.193	4.17
455.547	4.16
455.9	4.13
456.254	4.12
456.607	4.09
456.961	4.06
457.314	4.04
457.668	4.03
458.021	4.03
458.375	4.02
458.728	4.02
459.081	4.02
459.434	4.03
459.787	4.04
460.141	4.05
460.494	4.05
460.847	4.06
461.2	4.07
461.553	4.07
461.906	4.07
462.259	4.08
462.611	4.08
462.964	4.08
463.317	4.09
463.67	4.09
464.022	4.09
464.375	4.1
464.728	4.1
465.08	4.1
465.433	4.1
465.785	4.1
466.138	4.08
466.49	4.06
466.843	4.05
467.195	4.02
467.547	4
467.899	3.97
468.252	3.94
468.604	3.92
468.956	3.89
469.308	3.88
469.66	3.87
470.012	3.87
470.364	3.87
470.716	3.87
471.068	3.89
471.42	3.9
471.772	3.92
472.123	3.93
472.475	3.94
472.827	3.95
473.178	3.96
473.53	3.97
473.882	3.98
474.233	4
474.585	4.03
474.936	4.09
475.288	4.18
475.639	4.29
475.99	4.42
476.342	4.57
476.693	4.73
477.044	4.89
477.395	5.05
477.746	5.22
478.097	5.39
478.448	5.57
478.8	5.74
479.15	5.89
479.501	6.03
479.852	6.17
480.203	6.3
480.554	6.42
480.905	6.53
481.255	6.64
481.606	6.75
481.957	6.85
482.307	6.95
482.658	7.04
483.009	7.13
483.359	7.22
483.709	7.3
484.06	7.37
484.41	7.45
484.761	7.53
485.111	7.6
485.461	7.67
485.811	7.73
486.162	7.79
486.512	7.85
486.862	7.89
487.212	7.91
487.562	7.93
487.912	7.94
488.262	7.95
488.612	7.94
488.961	7.92
489.311	7.88
489.661	7.81
490.011	7.73
490.36	7.62
490.71	7.5
491.06	7.37
491.409	7.23
491.759	7.08
492.108	6.93
492.458	6.78
492.807	6.61
493.157	6.45
493.506	6.29
493.855	6.15
494.204	6.01
494.554	5.87
494.903	5.74
495.252	5.62
495.601	5.51
495.95	5.39
496.299	5.29
496.648	5.18
496.997	5.09
497.346	4.99
497.695	4.9
498.043	4.82
498.392	4.73
498.741	4.65
499.09	4.57
499.438	4.49
499.787	4.42
500.135	4.35
500.484	4.29
500.832	4.24
501.181	4.2
501.529	4.17
501.878	4.15
502.226	4.14
502.574	4.13
502.923	4.13
503.271	4.12
503.619	4.12
503.967	4.11
504.315	4.1
504.663	4.1
505.011	4.09
505.359	4.08
505.707	4.08
506.055	4.07
506.403	4.07
506.751	4.06
507.098	4.07
507.446	4.07
507.794	4.07
508.141	4.08
508.489	4.09
508.837	4.1
509.184	4.11
509.531	4.12
509.879	4.13
510.226	4.14
510.574	4.15
510.921	4.16
511.268	4.18
511.616	4.2
511.963	4.21
512.31	4.23
512.657	4.25
513.004	4.27
513.351	4.28
513.698	4.29
514.045	4.3
514.392	4.3
514.739	4.3
515.086	4.3
515.432	4.29
515.779	4.28
516.126	4.28
516.473	4.28
516.819	4.28
517.166	4.28
517.512	4.29
517.859	4.3
518.205	4.32
518.552	4.34
518.898	4.37
519.245	4.41
519.591	4.46
519.937	4.53
520.283	4.61
520.629	4.71
520.976	4.81
521.322	4.92
521.668	5.04
522.014	5.15
522.36	5.27
522.706	5.38
523.052	5.49
523.398	5.59
523.743	5.67
524.089	5.75
524.435	5.82
524.781	5.88
525.126	5.94
525.472	5.99
525.817	6.04
526.163	6.08
526.509	6.13
526.854	6.17
527.199	6.21
527.545	6.25
527.89	6.3
528.235	6.34
528.581	6.39
528.926	6.43
529.271	6.47
529.616	6.5
529.961	6.53
530.306	6.56
530.651	6.58
530.996	6.6
531.341	6.61
531.686	6.61
532.031	6.61
532.376	6.62
532.721	6.62
533.065	6.62
533.41	6.63
533.755	6.62
534.099	6.61
534.444	6.58
534.788	6.55
535.133	6.51
535.477	6.46
535.822	6.42
536.166	6.36
536.51	6.3
536.855	6.23
537.199	6.15
537.543	6.08
537.887	6.01
538.231	5.95
538.576	5.89
538.92	5.84
539.264	5.78
539.608	5.73
539.951	5.67
540.295	5.61
540.639	5.55
540.983	5.48
541.327	5.42
541.671	5.35
542.014	5.29
542.358	5.24
542.701	5.19
543.045	5.16
543.389	5.14
543.732	5.12
544.075	5.1
544.419	5.08
544.762	5.06
545.105	5.05
545.449	5.04
545.792	5.03
546.135	5.02
546.478	5.01
546.821	4.99
547.165	4.95
547.508	4.91
547.851	4.87
548.194	4.82
548.536	4.76
548.879	4.69
549.222	4.63
549.565	4.56
549.908	4.49
550.25	4.43
550.593	4.37
550.936	4.32
551.278	4.29
551.621	4.26
551.963	4.23
552.306	4.2
552.648	4.18
552.991	4.17
553.333	4.15
553.675	4.15
554.017	4.14
554.36	4.14
554.702	4.14
555.044	4.15
555.386	4.16
555.728	4.18
556.07	4.19
556.412	4.21
556.754	4.21
557.096	4.21
557.438	4.21
557.78	4.21
558.121	4.21
558.463	4.21
558.805	4.21
559.147	4.21
559.488	4.21
559.83	4.22
560.171	4.22
560.513	4.22
560.854	4.22
561.196	4.23
561.537	4.23
561.878	4.23
562.22	4.22
562.561	4.22
562.902	4.23
563.243	4.23
563.584	4.23
563.925	4.22
564.266	4.22
564.607	4.23
564.948	4.23
565.289	4.23
565.63	4.23
565.971	4.23
566.312	4.24
566.653	4.24
566.993	4.24
567.334	4.24
567.675	4.24
568.015	4.24
568.356	4.24
568.696	4.24
569.037	4.24
569.377	4.25
569.718	4.25
570.058	4.25
570.398	4.24
570.739	4.24
571.079	4.24
571.419	4.24
571.759	4.24
572.099	4.24
572.439	4.24
572.779	4.24
573.119	4.24
573.459	4.24
573.799	4.24
574.139	4.23
574.479	4.23
574.819	4.23
575.158	4.23
575.498	4.23
575.838	4.23
576.177	4.24
576.517	4.24
576.856	4.23
577.196	4.23
577.535	4.23
577.875	4.23
578.214	4.23
578.553	4.23
578.893	4.22
579.232	4.22
579.571	4.22
579.91	4.22
580.25	4.22
580.589	4.21
580.928	4.21
581.267	4.2
581.606	4.21
581.945	4.21
582.283	4.21
582.622	4.21
582.961	4.2
583.3	4.2
583.639	4.2
583.977	4.2
584.316	4.2
584.654	4.2
584.993	4.21
585.332	4.2
585.67	4.2
586.008	4.2
586.347	4.2
586.685	4.2
587.024	4.2
587.362	4.21
587.7	4.21
588.038	4.21
588.376	4.21
588.715	4.21
589.053	4.21
589.391	4.21
589.729	4.21
590.067	4.21
590.404	4.21
590.742	4.22
591.08	4.22
591.418	4.22
591.756	4.22
592.093	4.22
592.431	4.23
592.769	4.23
593.106	4.23
593.444	4.24
593.781	4.23
594.119	4.23
594.456	4.23
594.793	4.23
595.131	4.24
595.468	4.24
595.805	4.23
596.143	4.24
596.48	4.23
596.817	4.23
597.154	4.24
597.491	4.24
597.828	4.25
598.165	4.25
598.502	4.26
598.839	4.26
599.176	4.26
599.512	4.26
599.849	4.26
600.186	4.26
600.523	4.27
600.859	4.27
601.196	4.27
601.532	4.27
601.869	4.28
602.205	4.28
602.542	4.28
602.878	4.28
603.215	4.28
603.551	4.28
603.887	4.28
604.223	4.28
604.56	4.28
604.896	4.28
605.232	4.29
605.568	4.28
605.904	4.29
606.24	4.29
606.576	4.29
606.912	4.29
607.248	4.29
607.583	4.29
607.919	4.29
608.255	4.3
608.591	4.3
608.926	4.3
609.262	4.3
609.597	4.3
609.933	4.3
610.268	4.3
610.604	4.3
610.939	4.3
611.275	4.29
611.61	4.29
611.945	4.29
612.281	4.28
612.616	4.28
612.951	4.28
613.286	4.27
613.621	4.27
613.956	4.27
614.291	4.27
614.626	4.27
614.961	4.27
615.296	4.27
615.631	4.26
615.966	4.27
616.3	4.27
616.635	4.26
616.97	4.26
617.304	4.27
617.639	4.27
617.973	4.27
618.308	4.27
618.642	4.26
618.977	4.26
619.311	4.26
619.646	4.26
619.98	4.26
620.314	4.27
620.648	4.28
620.983	4.28
621.317	4.29
621.651	4.29
621.985	4.3
622.319	4.3
622.653	4.31
622.987	4.31
623.321	4.31
623.655	4.31
623.988	4.31
624.322	4.31
624.656	4.32
624.99	4.32
625.323	4.32
625.657	4.32
625.99	4.32
626.324	4.33
626.657	4.33
626.991	4.34
627.324	4.34
627.658	4.34
627.991	4.33
628.324	4.33
628.657	4.34
628.991	4.34
629.324	4.35
629.657	4.35
629.99	4.35
630.323	4.36
630.656	4.35
630.989	4.35
631.322	4.35
631.655	4.35
631.987	4.35
632.32	4.36
632.653	4.36
632.986	4.36
633.318	4.36
633.651	4.36
633.984	4.36
634.316	4.36
634.649	4.35
634.981	4.35
635.313	4.35
635.646	4.35
635.978	4.35
636.31	4.35
636.643	4.35
636.975	4.36
637.307	4.36
637.639	4.36
637.971	4.37
638.303	4.37
638.635	4.37
638.967	4.37
639.299	4.37
639.631	4.37
639.963	4.38
640.295	4.38
640.626	4.38
640.958	4.39
641.29	4.4
641.621	4.4
641.953	4.4
642.285	4.4
642.616	4.4
642.948	4.4
643.279	4.4
643.61	4.4
643.942	4.4
644.273	4.4
644.604	4.41
644.936	4.42
645.267	4.41
645.598	4.42
645.929	4.41
646.26	4.41
646.591	4.42
646.922	4.42
647.253	4.42
647.584	4.43
647.915	4.43
648.245	4.43
648.576	4.44
648.907	4.44
649.238	4.44
649.568	4.44
649.899	4.44
650.229	4.44
650.56	4.44
650.89	4.44
651.221	4.44
651.551	4.45
651.882	4.45
652.212	4.45
652.542	4.45
652.872	4.45
653.203	4.46
653.533	4.46
653.863	4.45
654.193	4.46
654.523	4.46
654.853	4.46
655.183	4.47
655.513	4.47
655.843	4.48
656.172	4.48
656.502	4.48
656.832	4.49
657.162	4.48
657.491	4.49
657.821	4.48
658.15	4.48
658.48	4.49
658.809	4.5
659.139	4.5
659.468	4.51
659.798	4.52
660.127	4.52
660.456	4.53
660.785	4.52
661.115	4.52
661.444	4.53
661.773	4.54
662.102	4.53
662.431	4.53
662.76	4.54
663.089	4.54
663.418	4.56
663.747	4.57
664.076	4.57
664.404	4.56
664.733	4.57
665.062	4.57
665.39	4.58
665.719	4.59
666.048	4.6
666.376	4.6
666.705	4.6
667.033	4.61
667.362	4.62
667.69	4.62
668.018	4.62
668.347	4.62
668.675	4.62
669.003	4.63
669.331	4.63
669.659	4.63
669.987	4.62
670.315	4.62
670.643	4.63
670.971	4.63
671.299	4.64
671.627	4.64
671.955	4.63
672.283	4.64
672.61	4.64
672.938	4.64
673.266	4.64
673.593	4.64
673.921	4.62
674.249	4.64
674.576	4.65
674.904	4.65
675.231	4.65
675.558	4.65
675.886	4.66
676.213	4.66
676.54	4.66
676.867	4.65
677.195	4.64
677.522	4.64
677.849	4.64
678.176	4.64
678.503	4.64
678.83	4.64
679.157	4.64
679.484	4.64
679.81	4.64
680.137	4.64
680.464	4.64
680.791	4.65
681.117	4.65
681.444	4.65
681.771	4.66
682.097	4.66
682.424	4.66
682.75	4.67
683.077	4.68
683.403	4.69
683.729	4.69
684.056	4.69
684.382	4.7
684.708	4.69
685.034	4.7
685.36	4.7
685.686	4.7
686.012	4.7
686.339	4.71
686.664	4.7
686.99	4.7
687.316	4.7
687.642	4.71
687.968	4.71
688.294	4.71
688.619	4.71
688.945	4.71
689.271	4.72
689.596	4.73
689.922	4.74
690.247	4.75
690.573	4.75
690.898	4.76
691.224	4.78
691.549	4.78
691.874	4.78
692.2	4.79
692.525	4.8
692.85	4.81
693.175	4.83
693.5	4.84
693.825	4.83
694.15	4.84
694.475	4.84
694.8	4.85
695.125	4.85
695.45	4.85
695.775	4.85
696.099	4.85
696.424	4.85
696.749	4.86
697.073	4.86
697.398	4.87
697.723	4.88
698.047	4.89
698.372	4.9
698.696	4.91
699.02	4.92
699.345	4.91
699.669	4.92
699.993	4.95
700.318	4.94
700.642	4.95
700.966	4.95
701.29	4.95
701.614	4.95
701.938	4.96
702.262	4.98
702.586	4.97
702.91	4.97
703.234	4.97
703.557	4.97
703.881	4.98
704.205	4.97
704.529	4.97
704.852	4.97
705.176	4.98
705.499	4.97
705.823	4.97
706.146	4.96
706.47	4.97
706.793	4.97
707.117	4.99
707.44	4.99
707.763	4.98
708.086	4.99
708.409	5
708.733	5
709.056	5.02
709.379	5.02
709.702	5.03
710.025	5.04
710.348	5.03
710.671	5.04
710.993	5.03
711.316	5.03
711.639	5.04
711.962	5.05
712.284	5.07
712.607	5.08
712.93	5.07
713.252	5.07
713.575	5.08
713.897	5.09
714.22	5.08
714.542	5.1
714.864	5.1
715.187	5.1
715.509	5.09
715.831	5.1
716.153	5.09
716.475	5.1
716.798	5.1
717.12	5.11
717.442	5.13
717.764	5.12
718.085	5.14
718.407	5.14
718.729	5.15
719.051	5.15
719.373	5.15
719.695	5.15
720.016	5.16
720.338	5.15
720.659	5.15
720.981	5.15
721.302	5.15
721.624	5.15
721.945	5.14
722.267	5.14
722.588	5.16
722.909	5.16
723.231	5.15
723.552	5.17
723.873	5.17
724.194	5.19
724.515	5.19
724.836	5.19
725.157	5.19
725.478	5.18
725.799	5.19
726.12	5.21
726.441	5.2
726.762	5.21
727.083	5.2
727.403	5.21
727.724	5.21
728.045	5.22
728.365	5.24
728.686	5.25
729.006	5.26
729.327	5.28
729.647	5.28
729.967	5.29
730.288	5.3
730.608	5.31
730.928	5.32
731.249	5.35
731.569	5.34
731.889	5.35
732.209	5.35
732.529	5.35
732.849	5.38
733.169	5.38
733.489	5.4
733.809	5.41
734.129	5.43
734.448	5.44
734.768	5.46
735.088	5.47
735.408	5.48
735.727	5.47
736.047	5.48
736.366	5.49
736.686	5.49
737.005	5.49
737.325	5.49
737.644	5.48
737.963	5.47
738.283	5.46
738.602	5.46
738.921	5.47
739.24	5.47
739.56	5.48
739.879	5.48
740.198	5.48
740.517	5.49
740.836	5.48
741.155	5.48
741.473	5.47
741.792	5.47
742.111	5.46
742.43	5.44
742.748	5.46
743.067	5.46
743.386	5.47
743.704	5.48
744.023	5.48
744.341	5.46
744.66	5.47
744.978	5.48
745.297	5.5
745.615	5.53
745.933	5.54
746.252	5.52
746.57	5.54
746.888	5.57
747.206	5.56
747.524	5.57
747.842	5.57
748.16	5.57
748.478	5.57
748.796	5.57
749.114	5.57
749.432	5.59
749.749	5.6
750.067	5.6
750.385	5.63
750.703	5.65
751.02	5.66
751.338	5.69
751.655	5.71
751.973	5.7
752.29	5.71
752.608	5.72
752.925	5.72
753.242	5.75
753.56	5.74
753.877	5.77
754.194	5.76
754.511	5.77
754.828	5.76
755.145	5.78
755.462	5.82
755.779	5.84
756.096	5.87
756.413	5.86
756.73	5.88
757.047	5.85
757.364	5.87
757.68	5.87
757.997	5.87
758.314	5.88
758.63	5.9
758.947	5.87
759.264	5.89
759.58	5.87
759.896	5.88
760.213	5.88
760.529	5.88
760.846	5.88
761.162	5.91
761.478	5.91
761.794	5.92
762.11	5.94
762.426	5.96
762.743	5.96
763.059	5.95
763.375	5.95
763.69	5.96
764.006	5.98
764.322	5.99
764.638	6
764.954	6.01
765.27	6.02
765.585	6.04
765.901	6.07
766.216	6.06
766.532	6.08
766.848	6.09
767.163	6.1
767.478	6.12
767.794	6.14
768.109	6.15
768.424	6.14
768.74	6.12
769.055	6.11
769.37	6.1
769.685	6.11
770	6.15
770.315	6.15
770.63	6.17
770.945	6.19
771.26	6.19
771.575	6.19
771.89	6.25
772.205	6.27
772.52	6.29
772.834	6.27
773.149	6.32
773.464	6.32
773.778	6.31
774.093	6.29
774.407	6.31
774.722	6.32
775.036	6.31
775.351	6.33
775.665	6.35
775.979	6.38
776.293	6.37
776.608	6.4
776.922	6.38
777.236	6.37
777.55	6.38
777.864	6.42
778.178	6.41
778.492	6.41
778.806	6.38
779.12	6.38
779.434	6.39
779.747	6.4
780.061	6.42
780.375	6.41
780.689	6.4
781.002	6.4
781.316	6.39
781.629	6.39
781.943	6.41
782.256	6.45
782.57	6.4
782.883	6.4
783.196	6.39
783.51	6.37
783.823	6.38
784.136	6.38
784.449	6.37
784.762	6.32
785.075	6.31
785.388	6.28
785.701	6.28
786.014	6.3
786.327	6.35
786.64	6.38
786.953	6.44
787.266	6.44
787.578	6.46
787.891	6.48
788.204	6.45
788.516	6.45
788.829	6.49
789.141	6.52
789.454	6.48
789.766	6.53
790.079	6.56
790.391	6.56
790.703	6.56
791.016	6.55
791.328	6.53
791.64	6.55
791.952	6.58
792.264	6.56
792.576	6.55
792.888	6.55
793.2	6.6
793.512	6.62
793.824	6.62
794.136	6.65
794.448	6.68
794.76	6.69
795.071	6.66
795.383	6.73
795.695	6.75
796.006	6.77
796.318	6.77
796.629	6.77
796.941	6.78
797.252	6.79
797.564	6.83
797.875	6.8
798.186	6.83
798.497	6.86
798.809	6.81
799.12	6.8
799.431	6.82
799.742	6.83
800.053	6.86
800.364	6.86
800.675	6.87
800.986	6.89
801.297	6.92
801.608	6.92
801.918	6.9
802.229	6.89
802.54	6.86
802.851	6.85
803.161	6.87
803.472	6.87
803.782	6.88
804.093	6.93
804.403	6.95
804.714	6.97
805.024	7
805.334	7
805.645	7.04
805.955	7
806.265	7.01
806.575	7.01
806.885	7.01
807.195	7.04
807.505	7.04
807.815	7.12
808.125	7.11
808.435	7.1
808.745	7.05
809.055	7.09
809.365	7.1
809.674	7.12
809.984	7.15
810.294	7.17
810.603	7.22
810.913	7.25
811.222	7.26
811.532	7.23
811.841	7.21
812.151	7.24
812.46	7.26
812.769	7.2
813.079	7.22
813.388	7.24
813.697	7.24
814.006	7.23
814.315	7.16
814.624	7.2
814.933	7.24
815.242	7.25
815.551	7.27
815.86	7.26
816.169	7.29
816.478	7.3
816.786	7.33
817.095	7.32
817.404	7.28
817.712	7.23
818.021	7.25
818.33	7.23
818.638	7.26
818.947	7.27
819.255	7.28
819.563	7.3
819.872	7.3
820.18	7.32
820.488	7.32
820.796	7.33
821.105	7.36
821.413	7.39
821.721	7.43
822.029	7.43
822.337	7.42
822.645	7.42
822.953	7.42
823.26	7.43
823.568	7.43
823.876	7.44
824.184	7.45
824.491	7.46
824.799	7.46
825.107	7.44
825.414	7.46
825.722	7.45
826.029	7.45
826.337	7.47
826.644	7.48
826.951	7.48
827.259	7.48
827.566	7.48
827.873	7.47
828.18	7.48
828.488	7.48
828.795	7.48
829.102	7.47
829.409	7.47
829.716	7.5
830.023	7.54
830.329	7.58
830.636	7.6
830.943	7.62
831.25	7.63
831.557	7.67
831.863	7.7
832.17	7.71
832.476	7.69
832.783	7.67
833.089	7.65
833.396	7.64
833.702	7.64
834.009	7.66
834.315	7.61
834.621	7.62
834.928	7.63
835.234	7.63
835.54	7.63
835.846	7.61
836.152	7.58
836.458	7.58
836.764	7.59
837.07	7.61
837.376	7.6
837.682	7.59
837.988	7.56
838.293	7.58
838.599	7.58
838.905	7.52
839.211	7.53
839.516	7.53
839.822	7.51
840.127	7.57
840.433	7.65
840.738	7.68
841.044	7.68
841.349	7.66
841.654	7.69
841.959	7.7
842.265	7.68
842.57	7.66
842.875	7.71
843.18	7.63
843.485	7.59
843.79	7.57
844.095	7.56
844.4	7.51
844.705	7.58
845.01	7.67
845.315	7.63
845.619	7.67
845.924	7.71
846.229	7.75
846.533	7.69
846.838	7.73
847.142	7.75
847.447	7.81
847.751	7.93
848.056	7.95
848.36	7.95
848.664	8.08
848.969	8.14
849.273	8.21
849.577	8.23
849.881	8.29
850.185	8.38
850.489	8.4
850.794	8.47
851.097	8.49
851.401	8.55
851.705	8.62
852.009	8.86
852.313	9.05
852.617	8.96
852.92	8.91
853.224	8.89
853.528	8.91
853.831	8.88
854.135	8.89
854.438	8.96
854.742	8.88
855.045	8.8
855.349	8.91
855.652	9.1
855.955	9.23
856.259	9.33
856.562	9.3
856.865	9.56
857.168	9.64
857.471	9.81
857.774	9.98
858.077	9.9
858.38	10.06
858.683	10.04
858.986	10.12
859.289	10.09
859.592	10.03
859.894	10.07
860.197	9.95
860.5	10.03
860.802	10.2
861.105	10.2
861.407	10.14
861.71	10.03
862.012	9.99
862.315	9.99
862.617	10.03
862.919	10.26
863.222	10.15
863.524	10.12
863.826	10.23
864.128	10.13
864.43	9.94
864.732	9.72
865.034	9.8
865.336	9.75
865.638	9.75
865.94	9.75
866.242	9.71
866.544	9.86
866.846	9.76
867.147	9.87
867.449	9.94
867.751	9.83
868.052	9.85
868.354	9.87
868.655	9.71
868.957	9.8
869.258	9.69
869.56	9.55
869.861	9.48
870.162	9.47
870.463	9.67
870.765	9.54
871.066	9.65
871.367	9.61
871.668	9.74
871.969	9.77
872.27	9.68
872.571	9.67
872.872	9.63
873.173	9.6
873.473	9.59
873.774	9.61
874.075	9.69
874.376	9.73
874.676	9.75
874.977	9.73
875.277	9.65
875.578	9.72
875.878	9.75
876.179	9.63
876.479	9.7
876.78	9.84
877.08	9.92
877.38	9.82
877.68	9.9
877.981	9.8
878.281	9.99
878.581	10.29
