Data from UWBM59056_Reflection_00008.txt Node
Date: Sun May 02 13:45:01 EDT 2021
User: vgr7
Spectrometer: USB2G7710
Scans to average: 10
Trigger mode: 4
Integration Time (sec): 1.000000E-1
Electric dark correction enabled: true
Boxcar width: 20
XAxis mode: Wavelengths
Number of Pixels in Spectrum: 2048
>>>>>Begin Spectral Data<<<<<
177.721	14.34
178.105	6.68
178.488	38.49
178.871	82.31
179.254	108.4
179.636	56.1
180.019	50
180.402	51.71
180.785	47.86
181.168	44.66
181.55	37.28
181.933	36.51
182.316	31.72
182.698	27.81
183.081	26.31
183.463	23.56
183.846	22.64
184.228	22.51
184.611	18.66
184.993	16.98
185.376	17.66
185.758	17.97
186.14	19.44
186.522	16.11
186.904	16.56
187.287	17.38
187.669	20.06
188.051	21.47
188.433	23.3
188.815	20.6
189.197	19.26
189.579	18.54
189.961	15.91
190.342	14.09
190.724	15.22
191.106	17.16
191.488	18.76
191.869	17.66
192.251	15.29
192.633	16.62
193.014	16.21
193.396	14.09
193.777	14.66
194.159	14.56
194.54	12.92
194.922	10.9
195.303	11.86
195.684	11.03
196.065	9.43
196.447	10.43
196.828	11.23
197.209	10.95
197.59	9.64
197.971	10.56
198.352	13.37
198.733	13.83
199.114	15.51
199.495	15.42
199.876	14.17
200.257	15.98
200.638	16.94
201.018	17.43
201.399	19.17
201.78	17.69
202.16	17.86
202.541	17.86
202.922	17.07
203.302	16.93
203.683	17.01
204.063	18.78
204.444	20.08
204.824	19.72
205.204	18.19
205.585	19.02
205.965	21.22
206.345	20.84
206.725	20.4
207.106	19.42
207.486	18.87
207.866	20.1
208.246	19.77
208.626	20.61
209.006	21.18
209.386	20.51
209.766	19.04
210.145	19.91
210.525	20.4
210.905	21.06
211.285	20.1
211.664	21.64
212.044	20.2
212.424	18.3
212.803	17.94
213.183	17.39
213.562	18.85
213.942	17.65
214.321	17.23
214.701	14.46
215.08	14.38
215.459	15.66
215.838	15.52
216.218	13.99
216.597	12.36
216.976	12
217.355	11.33
217.734	12.14
218.113	12.8
218.492	11.6
218.871	11.36
219.25	11.35
219.629	10.65
220.008	10.16
220.387	9.72
220.766	10.79
221.144	10.76
221.523	10.38
221.902	11.48
222.28	10.11
222.659	10.27
223.037	10.28
223.416	10.35
223.794	10.16
224.173	9.66
224.551	9.46
224.929	9.65
225.308	9.6
225.686	9.16
226.064	9.03
226.442	8.65
226.821	8.9
227.199	8.67
227.577	8.81
227.955	9.1
228.333	9.5
228.711	9
229.089	7.89
229.467	7.51
229.845	7.27
230.222	7.79
230.6	7.78
230.978	7.65
231.356	7.59
231.733	7.66
232.111	7.66
232.488	7.36
232.866	7.36
233.243	7.24
233.621	6.71
233.998	6.74
234.376	6.59
234.753	6.22
235.13	6.04
235.508	6.04
235.885	5.93
236.262	5.84
236.639	5.78
237.016	5.59
237.393	5.34
237.77	5.41
238.147	5.29
238.524	5.25
238.901	5.13
239.278	5.06
239.655	5.06
240.032	4.98
240.409	4.93
240.785	4.99
241.162	4.94
241.539	4.87
241.915	4.87
242.292	4.87
242.668	4.81
243.045	4.77
243.421	4.72
243.798	4.7
244.174	4.78
244.551	4.79
244.927	4.8
245.303	4.81
245.679	4.77
246.056	4.7
246.432	4.7
246.808	4.65
247.184	4.68
247.56	4.69
247.936	4.69
248.312	4.66
248.688	4.62
249.064	4.61
249.44	4.6
249.815	4.56
250.191	4.53
250.567	4.55
250.943	4.52
251.318	4.48
251.694	4.47
252.069	4.44
252.445	4.43
252.82	4.42
253.196	4.39
253.571	4.35
253.947	4.33
254.322	4.29
254.697	4.28
255.073	4.23
255.448	4.23
255.823	4.18
256.198	4.16
256.573	4.13
256.948	4.11
257.323	4.08
257.698	4.03
258.073	4.01
258.448	3.99
258.823	3.97
259.198	3.94
259.573	3.93
259.948	3.94
260.322	3.95
260.697	3.92
261.072	3.92
261.446	3.93
261.821	3.89
262.195	3.89
262.57	3.86
262.944	3.85
263.319	3.86
263.693	3.88
264.067	3.88
264.442	3.86
264.816	3.83
265.19	3.83
265.564	3.85
265.938	3.81
266.313	3.81
266.687	3.8
267.061	3.8
267.435	3.79
267.809	3.77
268.183	3.77
268.556	3.76
268.93	3.77
269.304	3.77
269.678	3.78
270.051	3.75
270.425	3.74
270.799	3.73
271.172	3.78
271.546	3.76
271.919	3.76
272.293	3.77
272.666	3.75
273.04	3.76
273.413	3.78
273.787	3.79
274.16	3.79
274.533	3.79
274.906	3.76
275.279	3.74
275.653	3.72
276.026	3.74
276.399	3.73
276.772	3.73
277.145	3.73
277.518	3.74
277.891	3.75
278.263	3.75
278.636	3.73
279.009	3.7
279.382	3.7
279.755	3.71
280.127	3.73
280.5	3.73
280.872	3.74
281.245	3.73
281.617	3.74
281.99	3.75
282.362	3.74
282.735	3.75
283.107	3.77
283.479	3.75
283.852	3.78
284.224	3.78
284.596	3.77
284.968	3.78
285.34	3.79
285.713	3.8
286.085	3.82
286.457	3.81
286.829	3.82
287.201	3.83
287.572	3.84
287.944	3.86
288.316	3.87
288.688	3.87
289.06	3.87
289.431	3.88
289.803	3.9
290.175	3.91
290.546	3.93
290.918	3.95
291.289	3.96
291.661	3.97
292.032	3.97
292.403	3.99
292.775	4.01
293.146	4.02
293.517	4.04
293.889	4.06
294.26	4.08
294.631	4.11
295.002	4.15
295.373	4.16
295.744	4.18
296.115	4.19
296.486	4.23
296.857	4.26
297.228	4.28
297.599	4.3
297.97	4.31
298.34	4.32
298.711	4.35
299.082	4.36
299.452	4.37
299.823	4.41
300.194	4.42
300.564	4.46
300.935	4.48
301.305	4.52
301.676	4.54
302.046	4.56
302.416	4.58
302.787	4.59
303.157	4.62
303.527	4.66
303.897	4.7
304.267	4.75
304.637	4.78
305.008	4.83
305.378	4.88
305.748	4.91
306.117	4.95
306.487	5
306.857	5.06
307.227	5.11
307.597	5.16
307.967	5.19
308.336	5.23
308.706	5.26
309.076	5.29
309.445	5.34
309.815	5.38
310.184	5.4
310.554	5.43
310.923	5.48
311.293	5.52
311.662	5.55
312.031	5.58
312.401	5.63
312.77	5.68
313.139	5.72
313.508	5.77
313.877	5.82
314.246	5.87
314.616	5.92
314.985	5.96
315.353	6.03
315.722	6.06
316.091	6.12
316.46	6.16
316.829	6.22
317.198	6.28
317.567	6.35
317.935	6.42
318.304	6.49
318.672	6.54
319.041	6.61
319.41	6.66
319.778	6.73
320.147	6.78
320.515	6.83
320.883	6.89
321.252	6.94
321.62	7
321.988	7.04
322.357	7.09
322.725	7.13
323.093	7.2
323.461	7.24
323.829	7.32
324.197	7.37
324.565	7.39
324.933	7.43
325.301	7.48
325.669	7.55
326.037	7.6
326.405	7.65
326.772	7.7
327.14	7.74
327.508	7.77
327.875	7.81
328.243	7.86
328.61	7.91
328.978	7.94
329.346	7.99
329.713	8.03
330.08	8.07
330.448	8.09
330.815	8.13
331.182	8.16
331.55	8.2
331.917	8.23
332.284	8.25
332.651	8.28
333.018	8.33
333.385	8.37
333.752	8.42
334.119	8.47
334.486	8.51
334.853	8.55
335.22	8.61
335.587	8.65
335.954	8.69
336.32	8.72
336.687	8.75
337.054	8.79
337.42	8.83
337.787	8.88
338.153	8.92
338.52	8.95
338.886	8.98
339.253	9.02
339.619	9.08
339.986	9.11
340.352	9.14
340.718	9.17
341.084	9.19
341.451	9.22
341.817	9.26
342.183	9.29
342.549	9.33
342.915	9.36
343.281	9.39
343.647	9.42
344.013	9.45
344.379	9.47
344.745	9.49
345.11	9.53
345.476	9.57
345.842	9.61
346.208	9.64
346.573	9.66
346.939	9.68
347.304	9.73
347.67	9.76
348.035	9.78
348.401	9.81
348.766	9.83
349.132	9.85
349.497	9.87
349.862	9.89
350.228	9.91
350.593	9.93
350.958	9.96
351.323	9.98
351.688	10.01
352.053	10.03
352.418	10.04
352.783	10.03
353.148	10.04
353.513	10.05
353.878	10.06
354.243	10.07
354.608	10.06
354.972	10.08
355.337	10.08
355.702	10.1
356.066	10.11
356.431	10.11
356.795	10.1
357.16	10.1
357.524	10.09
357.889	10.1
358.253	10.09
358.618	10.09
358.982	10.09
359.346	10.1
359.71	10.1
360.075	10.09
360.439	10.07
360.803	10.06
361.167	10.04
361.531	10.03
361.895	10.01
362.259	9.98
362.623	9.96
362.987	9.95
363.351	9.93
363.714	9.91
364.078	9.89
364.442	9.87
364.806	9.85
365.169	9.83
365.533	9.81
365.896	9.77
366.26	9.75
366.623	9.72
366.987	9.68
367.35	9.65
367.714	9.62
368.077	9.58
368.44	9.54
368.803	9.5
369.167	9.46
369.53	9.42
369.893	9.36
370.256	9.31
370.619	9.25
370.982	9.19
371.345	9.14
371.708	9.09
372.071	9.04
372.434	9
372.797	8.94
373.159	8.89
373.522	8.84
373.885	8.79
374.247	8.72
374.61	8.67
374.973	8.61
375.335	8.55
375.698	8.49
376.06	8.44
376.423	8.38
376.785	8.33
377.147	8.28
377.51	8.22
377.872	8.17
378.234	8.11
378.596	8.05
378.958	7.99
379.321	7.93
379.683	7.88
380.045	7.83
380.407	7.78
380.769	7.73
381.13	7.67
381.492	7.62
381.854	7.57
382.216	7.53
382.578	7.48
382.939	7.44
383.301	7.39
383.663	7.34
384.024	7.29
384.386	7.24
384.747	7.2
385.109	7.16
385.47	7.12
385.832	7.08
386.193	7.03
386.554	6.99
386.916	6.94
387.277	6.9
387.638	6.85
387.999	6.82
388.36	6.78
388.721	6.74
389.082	6.71
389.443	6.67
389.804	6.63
390.165	6.6
390.526	6.56
390.887	6.53
391.248	6.49
391.609	6.46
391.969	6.43
392.33	6.39
392.691	6.35
393.051	6.32
393.412	6.29
393.772	6.25
394.133	6.21
394.493	6.18
394.854	6.14
395.214	6.1
395.574	6.06
395.935	6.03
396.295	5.99
396.655	5.95
397.015	5.91
397.376	5.88
397.736	5.84
398.096	5.81
398.456	5.77
398.816	5.74
399.176	5.7
399.535	5.67
399.895	5.64
400.255	5.61
400.615	5.58
400.975	5.54
401.334	5.51
401.694	5.48
402.054	5.45
402.413	5.43
402.773	5.4
403.132	5.37
403.492	5.35
403.851	5.32
404.211	5.3
404.57	5.28
404.929	5.26
405.288	5.24
405.648	5.22
406.007	5.21
406.366	5.19
406.725	5.17
407.084	5.16
407.443	5.14
407.802	5.12
408.161	5.11
408.52	5.1
408.879	5.09
409.238	5.08
409.596	5.07
409.955	5.05
410.314	5.04
410.673	5.03
411.031	5.02
411.39	5.01
411.748	5
412.107	4.99
412.465	4.99
412.824	5
413.182	5
413.54	5.01
413.899	5.03
414.257	5.05
414.615	5.07
414.974	5.09
415.332	5.12
415.69	5.15
416.048	5.17
416.406	5.2
416.764	5.22
417.122	5.23
417.48	5.25
417.838	5.27
418.195	5.28
418.553	5.29
418.911	5.29
419.269	5.28
419.626	5.27
419.984	5.24
420.342	5.22
420.699	5.18
421.057	5.15
421.414	5.12
421.772	5.1
422.129	5.08
422.486	5.07
422.844	5.05
423.201	5.04
423.558	5.03
423.915	5.01
424.273	5
424.63	4.99
424.987	4.98
425.344	4.97
425.701	4.96
426.058	4.95
426.415	4.94
426.772	4.93
427.128	4.91
427.485	4.89
427.842	4.87
428.199	4.85
428.555	4.82
428.912	4.79
429.269	4.75
429.625	4.72
429.982	4.69
430.338	4.65
430.695	4.62
431.051	4.58
431.407	4.55
431.764	4.53
432.12	4.5
432.476	4.49
432.832	4.48
433.189	4.48
433.545	4.48
433.901	4.49
434.257	4.51
434.613	4.54
434.969	4.57
435.325	4.6
435.681	4.64
436.036	4.66
436.392	4.68
436.748	4.69
437.104	4.7
437.459	4.72
437.815	4.74
438.171	4.76
438.526	4.79
438.882	4.82
439.237	4.86
439.593	4.89
439.948	4.93
440.304	4.96
440.659	4.99
441.014	5
441.369	5.03
441.725	5.05
442.08	5.06
442.435	5.07
442.79	5.07
443.145	5.07
443.5	5.07
443.855	5.07
444.21	5.06
444.565	5.05
444.92	5.04
445.275	5.02
445.629	5.01
445.984	4.99
446.339	4.98
446.693	4.96
447.048	4.94
447.403	4.92
447.757	4.88
448.112	4.86
448.466	4.83
448.82	4.8
449.175	4.77
449.529	4.74
449.883	4.72
450.238	4.69
450.592	4.68
450.946	4.66
451.3	4.66
451.654	4.66
452.008	4.65
452.362	4.65
452.716	4.65
453.07	4.65
453.424	4.63
453.778	4.62
454.132	4.6
454.486	4.59
454.839	4.57
455.193	4.54
455.547	4.53
455.9	4.5
456.254	4.48
456.607	4.45
456.961	4.42
457.314	4.4
457.668	4.39
458.021	4.39
458.375	4.38
458.728	4.38
459.081	4.39
459.434	4.4
459.787	4.41
460.141	4.43
460.494	4.44
460.847	4.45
461.2	4.47
461.553	4.48
461.906	4.49
462.259	4.5
462.611	4.51
462.964	4.52
463.317	4.54
463.67	4.55
464.022	4.57
464.375	4.58
464.728	4.59
465.08	4.6
465.433	4.61
465.785	4.62
466.138	4.62
466.49	4.61
466.843	4.6
467.195	4.59
467.547	4.58
467.899	4.57
468.252	4.56
468.604	4.54
468.956	4.54
469.308	4.53
469.66	4.54
470.012	4.55
470.364	4.56
470.716	4.58
471.068	4.61
471.42	4.64
471.772	4.67
472.123	4.69
472.475	4.71
472.827	4.73
473.178	4.74
473.53	4.76
473.882	4.78
474.233	4.81
474.585	4.85
474.936	4.92
475.288	5.02
475.639	5.14
475.99	5.28
476.342	5.44
476.693	5.61
477.044	5.79
477.395	5.97
477.746	6.16
478.097	6.34
478.448	6.52
478.8	6.71
479.15	6.87
479.501	7.03
479.852	7.16
480.203	7.3
480.554	7.42
480.905	7.54
481.255	7.65
481.606	7.76
481.957	7.86
482.307	7.95
482.658	8.03
483.009	8.12
483.359	8.2
483.709	8.28
484.06	8.36
484.41	8.43
484.761	8.51
485.111	8.58
485.461	8.64
485.811	8.7
486.162	8.76
486.512	8.81
486.862	8.84
487.212	8.87
487.562	8.88
487.912	8.9
488.262	8.9
488.612	8.89
488.961	8.87
489.311	8.82
489.661	8.75
490.011	8.66
490.36	8.55
490.71	8.43
491.06	8.3
491.409	8.16
491.759	8.01
492.108	7.86
492.458	7.7
492.807	7.53
493.157	7.37
493.506	7.22
493.855	7.07
494.204	6.95
494.554	6.82
494.903	6.72
495.252	6.61
495.601	6.52
495.95	6.43
496.299	6.36
496.648	6.3
496.997	6.24
497.346	6.18
497.695	6.14
498.043	6.09
498.392	6.06
498.741	6.03
499.09	6.01
499.438	6
499.787	6
500.135	6
500.484	6.02
500.832	6.05
501.181	6.1
501.529	6.18
501.878	6.27
502.226	6.37
502.574	6.48
502.923	6.6
503.271	6.73
503.619	6.87
503.967	7.01
504.315	7.16
504.663	7.31
505.011	7.46
505.359	7.63
505.707	7.8
506.055	7.97
506.403	8.15
506.751	8.35
507.098	8.56
507.446	8.77
507.794	9
508.141	9.24
508.489	9.49
508.837	9.75
509.184	10
509.531	10.28
509.879	10.56
510.226	10.88
510.574	11.2
510.921	11.53
511.268	11.88
511.616	12.24
511.963	12.62
512.31	13
512.657	13.38
513.004	13.75
513.351	14.12
513.698	14.47
514.045	14.81
514.392	15.14
514.739	15.45
515.086	15.76
515.432	16.07
515.779	16.38
516.126	16.71
516.473	17.05
516.819	17.42
517.166	17.82
517.512	18.23
517.859	18.68
518.205	19.15
518.552	19.65
518.898	20.18
519.245	20.78
519.591	21.49
519.937	22.3
520.283	23.22
520.629	24.21
520.976	25.23
521.322	26.29
521.668	27.36
522.014	28.43
522.36	29.5
522.706	30.55
523.052	31.57
523.398	32.54
523.743	33.45
524.089	34.27
524.435	35.03
524.781	35.79
525.126	36.54
525.472	37.26
525.817	37.96
526.163	38.63
526.509	39.29
526.854	39.96
527.199	40.61
527.545	41.26
527.89	41.92
528.235	42.57
528.581	43.18
528.926	43.76
529.271	44.3
529.616	44.82
529.961	45.32
530.306	45.75
530.651	46.16
530.996	46.53
531.341	46.86
531.686	47.17
532.031	47.45
532.376	47.76
532.721	48.09
533.065	48.45
533.41	48.82
533.755	49.13
534.099	49.37
534.444	49.55
534.788	49.68
535.133	49.78
535.477	49.85
535.822	49.86
536.166	49.83
536.51	49.71
536.855	49.52
537.199	49.28
537.543	49.05
537.887	48.86
538.231	48.73
538.576	48.6
538.92	48.45
539.264	48.28
539.608	48.08
539.951	47.86
540.295	47.63
540.639	47.38
540.983	47.1
541.327	46.8
541.671	46.5
542.014	46.24
542.358	46
542.701	45.89
543.045	45.85
543.389	45.85
543.732	45.86
544.075	45.9
544.419	45.96
544.762	46.03
545.105	46.11
545.449	46.22
545.792	46.34
546.135	46.45
546.478	46.51
546.821	46.5
547.165	46.41
547.508	46.23
547.851	45.99
548.194	45.7
548.536	45.35
548.879	44.95
549.222	44.53
549.565	44.09
549.908	43.66
550.25	43.26
550.593	42.94
550.936	42.72
551.278	42.55
551.621	42.44
551.963	42.35
552.306	42.29
552.648	42.27
552.991	42.29
553.333	42.32
553.675	42.4
554.017	42.52
554.36	42.68
554.702	42.87
555.044	43.11
555.386	43.39
555.728	43.7
556.07	43.95
556.412	44.21
556.754	44.33
557.096	44.44
557.438	44.56
557.78	44.69
558.121	44.81
558.463	44.92
558.805	45.03
559.147	45.14
559.488	45.26
559.83	45.36
560.171	45.48
560.513	45.58
560.854	45.68
561.196	45.79
561.537	45.89
561.878	46
562.22	46.1
562.561	46.19
562.902	46.29
563.243	46.39
563.584	46.48
563.925	46.57
564.266	46.67
564.607	46.76
564.948	46.85
565.289	46.95
565.63	47.03
565.971	47.11
566.312	47.21
566.653	47.31
566.993	47.39
567.334	47.48
567.675	47.55
568.015	47.63
568.356	47.7
568.696	47.76
569.037	47.82
569.377	47.89
569.718	47.95
570.058	48
570.398	48.06
570.739	48.11
571.079	48.16
571.419	48.2
571.759	48.25
572.099	48.3
572.439	48.35
572.779	48.39
573.119	48.43
573.459	48.47
573.799	48.51
574.139	48.54
574.479	48.58
574.819	48.61
575.158	48.65
575.498	48.68
575.838	48.71
576.177	48.73
576.517	48.77
576.856	48.81
577.196	48.84
577.535	48.88
577.875	48.91
578.214	48.94
578.553	48.97
578.893	49
579.232	49.02
579.571	49.06
579.91	49.08
580.25	49.1
580.589	49.11
580.928	49.14
581.267	49.16
581.606	49.18
581.945	49.21
582.283	49.24
582.622	49.29
582.961	49.32
583.3	49.35
583.639	49.39
583.977	49.43
584.316	49.48
584.654	49.53
584.993	49.57
585.332	49.62
585.67	49.66
586.008	49.69
586.347	49.73
586.685	49.78
587.024	49.83
587.362	49.88
587.7	49.92
588.038	49.97
588.376	50.01
588.715	50.06
589.053	50.12
589.391	50.18
589.729	50.23
590.067	50.29
590.404	50.35
590.742	50.4
591.08	50.45
591.418	50.5
591.756	50.54
592.093	50.58
592.431	50.62
592.769	50.64
593.106	50.68
593.444	50.7
593.781	50.73
594.119	50.77
594.456	50.8
594.793	50.83
595.131	50.87
595.468	50.9
595.805	50.93
596.143	50.98
596.48	51.01
596.817	51.05
597.154	51.09
597.491	51.13
597.828	51.16
598.165	51.19
598.502	51.23
598.839	51.26
599.176	51.29
599.512	51.32
599.849	51.36
600.186	51.38
600.523	51.42
600.859	51.44
601.196	51.46
601.532	51.49
601.869	51.51
602.205	51.54
602.542	51.57
602.878	51.59
603.215	51.61
603.551	51.63
603.887	51.64
604.223	51.66
604.56	51.67
604.896	51.69
605.232	51.7
605.568	51.72
605.904	51.73
606.24	51.75
606.576	51.77
606.912	51.78
607.248	51.8
607.583	51.82
607.919	51.84
608.255	51.85
608.591	51.86
608.926	51.88
609.262	51.9
609.597	51.9
609.933	51.91
610.268	51.91
610.604	51.91
610.939	51.91
611.275	51.91
611.61	51.91
611.945	51.92
612.281	51.93
612.616	51.94
612.951	51.94
613.286	51.94
613.621	51.94
613.956	51.97
614.291	51.97
614.626	51.98
614.961	52
615.296	52
615.631	52.02
615.966	52.02
616.3	52.02
616.635	52.02
616.97	52.04
617.304	52.05
617.639	52.07
617.973	52.07
618.308	52.08
618.642	52.09
618.977	52.11
619.311	52.13
619.646	52.15
619.98	52.16
620.314	52.18
620.648	52.22
620.983	52.24
621.317	52.26
621.651	52.28
621.985	52.31
622.319	52.33
622.653	52.36
622.987	52.38
623.321	52.4
623.655	52.42
623.988	52.44
624.322	52.46
624.656	52.5
624.99	52.52
625.323	52.53
625.657	52.54
625.99	52.54
626.324	52.55
626.657	52.56
626.991	52.58
627.324	52.58
627.658	52.6
627.991	52.62
628.324	52.62
628.657	52.63
628.991	52.64
629.324	52.65
629.657	52.67
629.99	52.7
630.323	52.71
630.656	52.72
630.989	52.72
631.322	52.73
631.655	52.75
631.987	52.76
632.32	52.77
632.653	52.78
632.986	52.79
633.318	52.8
633.651	52.83
633.984	52.83
634.316	52.83
634.649	52.84
634.981	52.86
635.313	52.86
635.646	52.87
635.978	52.88
636.31	52.9
636.643	52.9
636.975	52.91
637.307	52.93
637.639	52.94
637.971	52.96
638.303	52.96
638.635	52.98
638.967	52.99
639.299	53.01
639.631	53.04
639.963	53.06
640.295	53.08
640.626	53.1
640.958	53.12
641.29	53.13
641.621	53.13
641.953	53.15
642.285	53.17
642.616	53.2
642.948	53.2
643.279	53.22
643.61	53.22
643.942	53.24
644.273	53.27
644.604	53.28
644.936	53.31
645.267	53.32
645.598	53.34
645.929	53.36
646.26	53.37
646.591	53.38
646.922	53.39
647.253	53.41
647.584	53.42
647.915	53.44
648.245	53.46
648.576	53.48
648.907	53.5
649.238	53.5
649.568	53.5
649.899	53.5
650.229	53.51
650.56	53.51
650.89	53.52
651.221	53.56
651.551	53.55
651.882	53.56
652.212	53.57
652.542	53.59
652.872	53.6
653.203	53.62
653.533	53.64
653.863	53.65
654.193	53.66
654.523	53.67
654.853	53.68
655.183	53.69
655.513	53.7
655.843	53.71
656.172	53.72
656.502	53.73
656.832	53.74
657.162	53.75
657.491	53.76
657.821	53.74
658.15	53.76
658.48	53.77
658.809	53.76
659.139	53.76
659.468	53.76
659.798	53.79
660.127	53.8
660.456	53.8
660.785	53.79
661.115	53.79
661.444	53.8
661.773	53.8
662.102	53.79
662.431	53.81
662.76	53.84
663.089	53.86
663.418	53.87
663.747	53.87
664.076	53.91
664.404	53.91
664.733	53.91
665.062	53.95
665.39	53.97
665.719	53.99
666.048	53.98
666.376	53.98
666.705	54
667.033	54
667.362	54.01
667.69	54.03
668.018	54.02
668.347	54.03
668.675	54.04
669.003	54.06
669.331	54.05
669.659	54.07
669.987	54.08
670.315	54.07
670.643	54.1
670.971	54.11
671.299	54.13
671.627	54.13
671.955	54.12
672.283	54.16
672.61	54.17
672.938	54.17
673.266	54.16
673.593	54.18
673.921	54.19
674.249	54.23
674.576	54.24
674.904	54.26
675.231	54.28
675.558	54.3
675.886	54.3
676.213	54.3
676.54	54.31
676.867	54.32
677.195	54.33
677.522	54.33
677.849	54.33
678.176	54.33
678.503	54.33
678.83	54.34
679.157	54.34
679.484	54.37
679.81	54.41
680.137	54.4
680.464	54.42
680.791	54.43
681.117	54.42
681.444	54.45
681.771	54.46
682.097	54.46
682.424	54.46
682.75	54.49
683.077	54.5
683.403	54.51
683.729	54.53
684.056	54.53
684.382	54.55
684.708	54.58
685.034	54.61
685.36	54.64
685.686	54.65
686.012	54.69
686.339	54.71
686.664	54.72
686.99	54.75
687.316	54.76
687.642	54.78
687.968	54.79
688.294	54.79
688.619	54.82
688.945	54.82
689.271	54.83
689.596	54.84
689.922	54.86
690.247	54.88
690.573	54.89
690.898	54.89
691.224	54.91
691.549	54.94
691.874	54.97
692.2	54.96
692.525	54.95
692.85	54.95
693.175	54.95
693.5	54.96
693.825	54.96
694.15	54.97
694.475	54.98
694.8	54.99
695.125	55
695.45	55.03
695.775	55.06
696.099	55.06
696.424	55.07
696.749	55.08
697.073	55.08
697.398	55.09
697.723	55.09
698.047	55.11
698.372	55.09
698.696	55.09
699.02	55.09
699.345	55.08
699.669	55.1
699.993	55.11
700.318	55.11
700.642	55.14
700.966	55.13
701.29	55.15
701.614	55.16
701.938	55.16
702.262	55.17
702.586	55.19
702.91	55.2
703.234	55.2
703.557	55.22
703.881	55.23
704.205	55.25
704.529	55.28
704.852	55.27
705.176	55.28
705.499	55.31
705.823	55.35
706.146	55.38
706.47	55.4
706.793	55.41
707.117	55.42
707.44	55.44
707.763	55.46
708.086	55.49
708.409	55.49
708.733	55.48
709.056	55.48
709.379	55.49
709.702	55.48
710.025	55.51
710.348	55.54
710.671	55.57
710.993	55.57
711.316	55.57
711.639	55.59
711.962	55.59
712.284	55.61
712.607	55.59
712.93	55.6
713.252	55.6
713.575	55.61
713.897	55.62
714.22	55.62
714.542	55.64
714.864	55.66
715.187	55.65
715.509	55.66
715.831	55.67
716.153	55.67
716.475	55.69
716.798	55.68
717.12	55.71
717.442	55.74
717.764	55.71
718.085	55.72
718.407	55.72
718.729	55.74
719.051	55.73
719.373	55.73
719.695	55.72
720.016	55.74
720.338	55.77
720.659	55.73
720.981	55.73
721.302	55.75
721.624	55.75
721.945	55.77
722.267	55.77
722.588	55.8
722.909	55.81
723.231	55.8
723.552	55.77
723.873	55.74
724.194	55.8
724.515	55.8
724.836	55.8
725.157	55.8
725.478	55.82
725.799	55.87
726.12	55.88
726.441	55.91
726.762	55.9
727.083	55.88
727.403	55.86
727.724	55.89
728.045	55.92
728.365	55.95
728.686	55.98
729.006	55.99
729.327	55.99
729.647	56.02
729.967	56.02
730.288	56.03
730.608	56.02
730.928	56.03
731.249	56.06
731.569	56.07
731.889	56.08
732.209	56.07
732.529	56.07
732.849	56.09
733.169	56.12
733.489	56.14
733.809	56.2
734.129	56.21
734.448	56.19
734.768	56.2
735.088	56.2
735.408	56.22
735.727	56.23
736.047	56.25
736.366	56.25
736.686	56.27
737.005	56.28
737.325	56.26
737.644	56.26
737.963	56.27
738.283	56.27
738.602	56.28
738.921	56.3
739.24	56.28
739.56	56.26
739.879	56.23
740.198	56.26
740.517	56.28
740.836	56.23
741.155	56.2
741.473	56.19
741.792	56.16
742.111	56.17
742.43	56.14
742.748	56.09
743.067	56.08
743.386	56.08
743.704	56.05
744.023	56.04
744.341	56.04
744.66	56.03
744.978	55.98
745.297	56.01
745.615	56.02
745.933	56.01
746.252	55.96
746.57	55.94
746.888	55.94
747.206	55.95
747.524	55.95
747.842	55.98
748.16	55.97
748.478	55.96
748.796	55.92
749.114	55.91
749.432	55.92
749.749	55.9
750.067	55.88
750.385	55.87
750.703	55.86
751.02	55.86
751.338	55.89
751.655	55.86
751.973	55.83
752.29	55.85
752.608	55.87
752.925	55.9
753.242	55.91
753.56	55.9
753.877	55.93
754.194	55.92
754.511	55.97
754.828	56.02
755.145	56.02
755.462	56.09
755.779	56.08
756.096	56.11
756.413	56.1
756.73	56.15
757.047	56.2
757.364	56.23
757.68	56.27
757.997	56.32
758.314	56.33
758.63	56.35
758.947	56.36
759.264	56.41
759.58	56.43
759.896	56.45
760.213	56.44
760.529	56.48
760.846	56.49
761.162	56.51
761.478	56.51
761.794	56.53
762.11	56.54
762.426	56.56
762.743	56.59
763.059	56.62
763.375	56.64
763.69	56.67
764.006	56.67
764.322	56.64
764.638	56.65
764.954	56.65
765.27	56.67
765.585	56.64
765.901	56.64
766.216	56.65
766.532	56.69
766.848	56.71
767.163	56.73
767.478	56.72
767.794	56.7
768.109	56.71
768.424	56.7
768.74	56.72
769.055	56.74
769.37	56.75
769.685	56.75
770	56.71
770.315	56.68
770.63	56.65
770.945	56.65
771.26	56.65
771.575	56.63
771.89	56.63
772.205	56.58
772.52	56.58
772.834	56.55
773.149	56.6
773.464	56.61
773.778	56.6
774.093	56.59
774.407	56.6
774.722	56.6
775.036	56.6
775.351	56.61
775.665	56.6
775.979	56.66
776.293	56.66
776.608	56.66
776.922	56.71
777.236	56.74
777.55	56.8
777.864	56.78
778.178	56.74
778.492	56.78
778.806	56.72
779.12	56.74
779.434	56.71
779.747	56.65
780.061	56.67
780.375	56.68
780.689	56.7
781.002	56.68
781.316	56.73
781.629	56.74
781.943	56.7
782.256	56.71
782.57	56.71
782.883	56.78
783.196	56.76
783.51	56.79
783.823	56.78
784.136	56.75
784.449	56.8
784.762	56.74
785.075	56.78
785.388	56.75
785.701	56.71
786.014	56.64
786.327	56.59
786.64	56.56
786.953	56.57
787.266	56.57
787.578	56.56
787.891	56.56
788.204	56.51
788.516	56.49
788.829	56.39
789.141	56.35
789.454	56.34
789.766	56.32
790.079	56.33
790.391	56.28
790.703	56.32
791.016	56.34
791.328	56.34
791.64	56.39
791.952	56.39
792.264	56.38
792.576	56.39
792.888	56.35
793.2	56.33
793.512	56.27
793.824	56.3
794.136	56.29
794.448	56.27
794.76	56.28
795.071	56.25
795.383	56.25
795.695	56.25
796.006	56.31
796.318	56.29
796.629	56.3
796.941	56.33
797.252	56.36
797.564	56.4
797.875	56.34
798.186	56.32
798.497	56.36
798.809	56.38
799.12	56.43
799.431	56.48
799.742	56.49
800.053	56.52
800.364	56.53
800.675	56.55
800.986	56.63
801.297	56.7
801.608	56.76
801.918	56.79
802.229	56.82
802.54	56.79
802.851	56.78
803.161	56.79
803.472	56.83
803.782	56.86
804.093	56.9
804.403	56.87
804.714	56.9
805.024	56.94
805.334	57.01
805.645	57.02
805.955	57.1
806.265	57.11
806.575	57.11
806.885	57.1
807.195	57.18
807.505	57.21
807.815	57.26
808.125	57.25
808.435	57.18
808.745	57.17
809.055	57.18
809.365	57.23
809.674	57.26
809.984	57.2
810.294	57.22
810.603	57.25
810.913	57.28
811.222	57.31
811.532	57.36
811.841	57.34
812.151	57.3
812.46	57.32
812.769	57.32
813.079	57.37
813.388	57.42
813.697	57.34
814.006	57.27
814.315	57.27
814.624	57.31
814.933	57.28
815.242	57.3
815.551	57.34
815.86	57.34
816.169	57.3
816.478	57.36
816.786	57.39
817.095	57.37
817.404	57.35
817.712	57.32
818.021	57.3
818.33	57.37
818.638	57.36
818.947	57.37
819.255	57.38
819.563	57.37
819.872	57.37
820.18	57.42
820.488	57.43
820.796	57.48
821.105	57.47
821.413	57.51
821.721	57.52
822.029	57.5
822.337	57.49
822.645	57.5
822.953	57.52
823.26	57.51
823.568	57.51
823.876	57.48
824.184	57.46
824.491	57.46
824.799	57.49
825.107	57.49
825.414	57.49
825.722	57.48
826.029	57.48
826.337	57.49
826.644	57.52
826.951	57.51
827.259	57.49
827.566	57.48
827.873	57.48
828.18	57.47
828.488	57.49
828.795	57.49
829.102	57.47
829.409	57.45
829.716	57.47
830.023	57.47
830.329	57.49
830.636	57.48
830.943	57.47
831.25	57.47
831.557	57.49
831.863	57.51
832.17	57.54
832.476	57.53
832.783	57.47
833.089	57.44
833.396	57.4
833.702	57.36
834.009	57.31
834.315	57.27
834.621	57.29
834.928	57.32
835.234	57.3
835.54	57.27
835.846	57.33
836.152	57.35
836.458	57.39
836.764	57.38
837.07	57.39
837.376	57.34
837.682	57.28
837.988	57.32
838.293	57.33
838.599	57.3
838.905	57.3
839.211	57.26
839.516	57.26
839.822	57.32
840.127	57.37
840.433	57.38
840.738	57.42
841.044	57.39
841.349	57.29
841.654	57.28
841.959	57.29
842.265	57.35
842.57	57.42
842.875	57.43
843.18	57.47
843.485	57.42
843.79	57.45
844.095	57.4
844.4	57.34
844.705	57.31
845.01	57.23
845.315	57.24
845.619	57.24
845.924	57.21
846.229	57.36
846.533	57.31
846.838	57.39
847.142	57.4
847.447	57.37
847.751	57.36
848.056	57.35
848.36	57.2
848.664	57.07
848.969	57.08
849.273	57.13
849.577	57.06
849.881	56.97
850.185	57.06
850.489	56.94
850.794	56.81
851.097	56.65
851.401	56.64
851.705	56.81
852.009	56.83
852.313	56.79
852.617	56.57
852.92	56.64
853.224	56.5
853.528	56.41
853.831	56.53
854.135	56.5
854.438	56.46
854.742	56.38
855.045	56.18
855.349	56.25
855.652	56.31
855.955	56.25
856.259	56.22
856.562	56.2
856.865	56.19
857.168	56.13
857.471	56.19
857.774	56.19
858.077	56.08
858.38	56.08
858.683	56.09
858.986	56.12
859.289	55.92
859.592	56.03
859.894	56.03
860.197	56.03
860.5	55.98
860.802	56.03
861.105	56.13
861.407	56.24
861.71	56.08
862.012	56.31
862.315	56.41
862.617	56.47
862.919	56.42
863.222	56.49
863.524	56.54
863.826	56.57
864.128	56.45
864.43	56.37
864.732	56.29
865.034	56.48
865.336	56.34
865.638	56.54
865.94	56.65
866.242	56.8
866.544	56.87
866.846	56.93
867.147	56.7
867.449	56.68
867.751	56.61
868.052	56.44
868.354	56.45
868.655	56.25
868.957	56.37
869.258	56.24
869.56	56.37
869.861	56.37
870.162	56.42
870.463	56.59
870.765	56.61
871.066	56.65
871.367	56.6
871.668	56.8
871.969	56.76
872.27	56.65
872.571	56.68
872.872	56.68
873.173	56.82
873.473	56.87
873.774	56.73
874.075	56.87
874.376	56.7
874.676	56.75
874.977	56.65
875.277	56.79
875.578	56.72
875.878	56.88
876.179	56.84
876.479	56.85
876.78	56.95
877.08	56.95
877.38	56.99
877.68	56.99
877.981	56.79
878.281	56.72
878.581	56.67
