Data from UWBM59056_Reflection_00011.txt Node
Date: Sun May 02 13:45:32 EDT 2021
User: vgr7
Spectrometer: USB2G7710
Scans to average: 10
Trigger mode: 4
Integration Time (sec): 1.000000E-1
Electric dark correction enabled: true
Boxcar width: 20
XAxis mode: Wavelengths
Number of Pixels in Spectrum: 2048
>>>>>Begin Spectral Data<<<<<
177.721	90.56
178.105	66.31
178.488	32.1
178.871	49.23
179.254	39.68
179.636	12.33
180.019	14.66
180.402	13.63
180.785	19.96
181.168	20.33
181.55	19.82
181.933	20.83
182.316	18.23
182.698	18.48
183.081	16.93
183.463	12.33
183.846	11.81
184.228	16.28
184.611	14.77
184.993	15.29
185.376	15.39
185.758	16.05
186.14	18.64
186.522	18.35
186.904	17.8
187.287	15.7
187.669	15.17
188.051	12.57
188.433	14.89
188.815	12.06
189.197	12.56
189.579	12.99
189.961	14.49
190.342	14.77
190.724	15.35
191.106	14.92
191.488	16
191.869	15.5
192.251	15.59
192.633	13.62
193.014	12.68
193.396	10.19
193.777	12.75
194.159	15.01
194.54	14.84
194.922	15.32
195.303	16.09
195.684	15.07
196.065	14.93
196.447	16.04
196.828	16.55
197.209	16.13
197.59	14.41
197.971	13.6
198.352	12.98
198.733	14.09
199.114	14.89
199.495	13.54
199.876	11.47
200.257	12.37
200.638	11.04
201.018	11.84
201.399	11.94
201.78	9.24
202.16	9.17
202.541	8.09
202.922	8.92
203.302	8.77
203.683	8.93
204.063	8.12
204.444	6.77
204.824	6.32
205.204	3.4
205.585	3.7
205.965	4.42
206.345	4.83
206.725	5.48
207.106	5.87
207.486	6.44
207.866	6.42
208.246	5.93
208.626	5.82
209.006	7.41
209.386	5.6
209.766	3.68
210.145	3.4
210.525	2.96
210.905	4.09
211.285	4.1
211.664	3.65
212.044	1.45
212.424	-0.33
212.803	-0.13
213.183	0.63
213.562	2.06
213.942	1.77
214.321	-0.07
214.701	-0.38
215.08	1.25
215.459	2.35
215.838	1.81
216.218	1.97
216.597	0.37
216.976	0.67
217.355	2.41
217.734	1.73
218.113	0.82
218.492	-0.71
218.871	-1.22
219.25	-0.46
219.629	0.33
220.008	0.88
220.387	0.74
220.766	2.2
221.144	1
221.523	0.97
221.902	0.42
222.28	0.18
222.659	0.34
223.037	0.08
223.416	0.61
223.794	1.47
224.173	1.63
224.551	1.2
224.929	2.43
225.308	2.47
225.686	2.34
226.064	2.51
226.442	2.66
226.821	3.21
227.199	3.75
227.577	3.8
227.955	4.64
228.333	4.58
228.711	4.34
229.089	3.69
229.467	3.81
229.845	4.03
230.222	4.35
230.6	4.32
230.978	4.21
231.356	4.35
231.733	4.26
232.111	4.37
232.488	4.47
232.866	4.23
233.243	4.32
233.621	4.95
233.998	5.19
234.376	5.35
234.753	5.02
235.13	5.04
235.508	5.15
235.885	5.21
236.262	5.2
236.639	5.3
237.016	5.36
237.393	5.44
237.77	5.41
238.147	5.35
238.524	5.32
238.901	5.15
239.278	5.18
239.655	5.26
240.032	5.18
240.409	5.11
240.785	5.13
241.162	5.12
241.539	5.06
241.915	5.01
242.292	4.99
242.668	5.01
243.045	5.01
243.421	4.95
243.798	4.93
244.174	4.97
244.551	4.99
244.927	4.98
245.303	4.99
245.679	4.95
246.056	4.89
246.432	4.88
246.808	4.86
247.184	4.87
247.56	4.9
247.936	4.9
248.312	4.91
248.688	4.89
249.064	4.81
249.44	4.79
249.815	4.73
250.191	4.7
250.567	4.72
250.943	4.67
251.318	4.63
251.694	4.63
252.069	4.59
252.445	4.53
252.82	4.5
253.196	4.49
253.571	4.46
253.947	4.44
254.322	4.43
254.697	4.41
255.073	4.35
255.448	4.37
255.823	4.32
256.198	4.32
256.573	4.28
256.948	4.28
257.323	4.26
257.698	4.21
258.073	4.15
258.448	4.12
258.823	4.11
259.198	4.12
259.573	4.09
259.948	4.09
260.322	4.08
260.697	4.05
261.072	4.02
261.446	4.02
261.821	4.01
262.195	3.99
262.57	3.97
262.944	3.94
263.319	3.94
263.693	3.94
264.067	3.95
264.442	3.95
264.816	3.94
265.19	3.94
265.564	3.95
265.938	3.94
266.313	3.95
266.687	3.94
267.061	3.94
267.435	3.93
267.809	3.91
268.183	3.9
268.556	3.88
268.93	3.88
269.304	3.89
269.678	3.88
270.051	3.85
270.425	3.84
270.799	3.82
271.172	3.84
271.546	3.83
271.919	3.83
272.293	3.82
272.666	3.82
273.04	3.85
273.413	3.9
273.787	3.93
274.16	3.94
274.533	3.91
274.906	3.93
275.279	3.92
275.653	3.93
276.026	3.94
276.399	3.97
276.772	3.98
277.145	3.98
277.518	3.99
277.891	4
278.263	3.99
278.636	4
279.009	3.99
279.382	3.98
279.755	4
280.127	4.01
280.5	4.03
280.872	4.04
281.245	4.03
281.617	4.03
281.99	4.03
282.362	4.02
282.735	4.02
283.107	4.05
283.479	4.04
283.852	4.06
284.224	4.07
284.596	4.07
284.968	4.08
285.34	4.07
285.713	4.09
286.085	4.1
286.457	4.1
286.829	4.11
287.201	4.13
287.572	4.14
287.944	4.14
288.316	4.12
288.688	4.11
289.06	4.09
289.431	4.09
289.803	4.11
290.175	4.11
290.546	4.12
290.918	4.14
291.289	4.16
291.661	4.17
292.032	4.17
292.403	4.19
292.775	4.19
293.146	4.2
293.517	4.22
293.889	4.24
294.26	4.26
294.631	4.29
295.002	4.31
295.373	4.32
295.744	4.34
296.115	4.35
296.486	4.38
296.857	4.41
297.228	4.44
297.599	4.47
297.97	4.49
298.34	4.5
298.711	4.53
299.082	4.54
299.452	4.56
299.823	4.59
300.194	4.61
300.564	4.64
300.935	4.66
301.305	4.67
301.676	4.69
302.046	4.71
302.416	4.73
302.787	4.75
303.157	4.79
303.527	4.83
303.897	4.87
304.267	4.92
304.637	4.94
305.008	4.98
305.378	5.01
305.748	5.04
306.117	5.06
306.487	5.1
306.857	5.14
307.227	5.18
307.597	5.23
307.967	5.26
308.336	5.3
308.706	5.33
309.076	5.34
309.445	5.38
309.815	5.4
310.184	5.42
310.554	5.46
310.923	5.49
311.293	5.53
311.662	5.56
312.031	5.59
312.401	5.62
312.77	5.67
313.139	5.7
313.508	5.74
313.877	5.79
314.246	5.82
314.616	5.87
314.985	5.91
315.353	5.93
315.722	5.97
316.091	6.02
316.46	6.06
316.829	6.1
317.198	6.15
317.567	6.21
317.935	6.28
318.304	6.31
318.672	6.35
319.041	6.39
319.41	6.43
319.778	6.49
320.147	6.52
320.515	6.57
320.883	6.6
321.252	6.64
321.62	6.68
321.988	6.71
322.357	6.75
322.725	6.78
323.093	6.81
323.461	6.84
323.829	6.87
324.197	6.91
324.565	6.95
324.933	6.98
325.301	7.01
325.669	7.04
326.037	7.06
326.405	7.08
326.772	7.11
327.14	7.12
327.508	7.13
327.875	7.15
328.243	7.17
328.61	7.19
328.978	7.21
329.346	7.24
329.713	7.27
330.08	7.29
330.448	7.31
330.815	7.32
331.182	7.33
331.55	7.37
331.917	7.39
332.284	7.39
332.651	7.4
333.018	7.42
333.385	7.45
333.752	7.48
334.119	7.5
334.486	7.53
334.853	7.56
335.22	7.6
335.587	7.62
335.954	7.63
336.32	7.65
336.687	7.68
337.054	7.69
337.42	7.72
337.787	7.73
338.153	7.76
338.52	7.77
338.886	7.79
339.253	7.81
339.619	7.83
339.986	7.86
340.352	7.88
340.718	7.9
341.084	7.92
341.451	7.93
341.817	7.95
342.183	7.99
342.549	8.01
342.915	8.02
343.281	8.05
343.647	8.05
344.013	8.07
344.379	8.07
344.745	8.08
345.11	8.1
345.476	8.13
345.842	8.14
346.208	8.15
346.573	8.16
346.939	8.16
347.304	8.17
347.67	8.18
348.035	8.18
348.401	8.19
348.766	8.2
349.132	8.21
349.497	8.22
349.862	8.23
350.228	8.22
350.593	8.23
350.958	8.25
351.323	8.25
351.688	8.26
352.053	8.28
352.418	8.28
352.783	8.26
353.148	8.27
353.513	8.28
353.878	8.27
354.243	8.26
354.608	8.25
354.972	8.24
355.337	8.23
355.702	8.23
356.066	8.22
356.431	8.22
356.795	8.2
357.16	8.18
357.524	8.17
357.889	8.15
358.253	8.14
358.618	8.12
358.982	8.11
359.346	8.1
359.71	8.08
360.075	8.08
360.439	8.05
360.803	8.03
361.167	8.02
361.531	8
361.895	7.99
362.259	7.97
362.623	7.96
362.987	7.94
363.351	7.92
363.714	7.89
364.078	7.86
364.442	7.84
364.806	7.8
365.169	7.79
365.533	7.76
365.896	7.73
366.26	7.69
366.623	7.66
366.987	7.62
367.35	7.59
367.714	7.57
368.077	7.53
368.44	7.48
368.803	7.44
369.167	7.41
369.53	7.36
369.893	7.32
370.256	7.28
370.619	7.23
370.982	7.18
371.345	7.13
371.708	7.09
372.071	7.05
372.434	7.01
372.797	6.97
373.159	6.92
373.522	6.88
373.885	6.84
374.247	6.79
374.61	6.75
374.973	6.7
375.335	6.66
375.698	6.61
376.06	6.57
376.423	6.52
376.785	6.48
377.147	6.44
377.51	6.39
377.872	6.36
378.234	6.31
378.596	6.27
378.958	6.23
379.321	6.19
379.683	6.16
380.045	6.11
380.407	6.08
380.769	6.04
381.13	6.01
381.492	5.97
381.854	5.94
382.216	5.9
382.578	5.87
382.939	5.84
383.301	5.81
383.663	5.79
384.024	5.75
384.386	5.72
384.747	5.68
385.109	5.65
385.47	5.62
385.832	5.59
386.193	5.57
386.554	5.54
386.916	5.5
387.277	5.47
387.638	5.44
387.999	5.42
388.36	5.4
388.721	5.38
389.082	5.35
389.443	5.33
389.804	5.3
390.165	5.28
390.526	5.26
390.887	5.23
391.248	5.21
391.609	5.19
391.969	5.17
392.33	5.15
392.691	5.13
393.051	5.1
393.412	5.08
393.772	5.05
394.133	5.03
394.493	5
394.854	4.98
395.214	4.95
395.574	4.93
395.935	4.91
396.295	4.88
396.655	4.86
397.015	4.84
397.376	4.81
397.736	4.79
398.096	4.77
398.456	4.74
398.816	4.73
399.176	4.7
399.535	4.68
399.895	4.66
400.255	4.64
400.615	4.63
400.975	4.61
401.334	4.59
401.694	4.58
402.054	4.56
402.413	4.55
402.773	4.53
403.132	4.51
403.492	4.5
403.851	4.49
404.211	4.48
404.57	4.47
404.929	4.45
405.288	4.44
405.648	4.44
406.007	4.43
406.366	4.42
406.725	4.4
407.084	4.39
407.443	4.39
407.802	4.38
408.161	4.37
408.52	4.36
408.879	4.36
409.238	4.35
409.596	4.35
409.955	4.34
410.314	4.33
410.673	4.33
411.031	4.32
411.39	4.31
411.748	4.31
412.107	4.31
412.465	4.31
412.824	4.32
413.182	4.33
413.54	4.34
413.899	4.36
414.257	4.38
414.615	4.42
414.974	4.43
415.332	4.46
415.69	4.49
416.048	4.51
416.406	4.54
416.764	4.56
417.122	4.58
417.48	4.6
417.838	4.63
418.195	4.64
418.553	4.65
418.911	4.66
419.269	4.66
419.626	4.65
419.984	4.64
420.342	4.61
420.699	4.59
421.057	4.56
421.414	4.54
421.772	4.52
422.129	4.51
422.486	4.5
422.844	4.5
423.201	4.49
423.558	4.48
423.915	4.47
424.273	4.47
424.63	4.46
424.987	4.46
425.344	4.45
425.701	4.44
426.058	4.44
426.415	4.44
426.772	4.43
427.128	4.42
427.485	4.4
427.842	4.39
428.199	4.37
428.555	4.35
428.912	4.33
429.269	4.29
429.625	4.27
429.982	4.24
430.338	4.21
430.695	4.18
431.051	4.15
431.407	4.12
431.764	4.1
432.12	4.08
432.476	4.07
432.832	4.06
433.189	4.06
433.545	4.06
433.901	4.07
434.257	4.09
434.613	4.11
434.969	4.14
435.325	4.17
435.681	4.2
436.036	4.22
436.392	4.24
436.748	4.25
437.104	4.26
437.459	4.28
437.815	4.29
438.171	4.31
438.526	4.33
438.882	4.36
439.237	4.4
439.593	4.43
439.948	4.46
440.304	4.49
440.659	4.51
441.014	4.53
441.369	4.56
441.725	4.57
442.08	4.59
442.435	4.6
442.79	4.6
443.145	4.61
443.5	4.6
443.855	4.6
444.21	4.59
444.565	4.59
444.92	4.57
445.275	4.56
445.629	4.55
445.984	4.54
446.339	4.53
446.693	4.52
447.048	4.5
447.403	4.48
447.757	4.45
448.112	4.43
448.466	4.4
448.82	4.37
449.175	4.35
449.529	4.33
449.883	4.31
450.238	4.29
450.592	4.29
450.946	4.27
451.3	4.27
451.654	4.27
452.008	4.27
452.362	4.27
452.716	4.27
453.07	4.27
453.424	4.26
453.778	4.25
454.132	4.24
454.486	4.22
454.839	4.2
455.193	4.18
455.547	4.17
455.9	4.14
456.254	4.12
456.607	4.09
456.961	4.06
457.314	4.04
457.668	4.03
458.021	4.03
458.375	4.02
458.728	4.03
459.081	4.04
459.434	4.05
459.787	4.06
460.141	4.07
460.494	4.08
460.847	4.09
461.2	4.1
461.553	4.11
461.906	4.11
462.259	4.12
462.611	4.13
462.964	4.14
463.317	4.14
463.67	4.15
464.022	4.16
464.375	4.17
464.728	4.18
465.08	4.18
465.433	4.19
465.785	4.2
466.138	4.19
466.49	4.18
466.843	4.16
467.195	4.15
467.547	4.14
467.899	4.12
468.252	4.1
468.604	4.09
468.956	4.08
469.308	4.07
469.66	4.07
470.012	4.07
470.364	4.08
470.716	4.09
471.068	4.12
471.42	4.14
471.772	4.17
472.123	4.18
472.475	4.2
472.827	4.21
473.178	4.22
473.53	4.23
473.882	4.25
474.233	4.27
474.585	4.31
474.936	4.37
475.288	4.46
475.639	4.57
475.99	4.7
476.342	4.84
476.693	5
477.044	5.16
477.395	5.32
477.746	5.49
478.097	5.65
478.448	5.82
478.8	5.99
479.15	6.14
479.501	6.28
479.852	6.41
480.203	6.53
480.554	6.64
480.905	6.75
481.255	6.86
481.606	6.96
481.957	7.05
482.307	7.14
482.658	7.22
483.009	7.3
483.359	7.38
483.709	7.45
484.06	7.52
484.41	7.59
484.761	7.66
485.111	7.73
485.461	7.79
485.811	7.85
486.162	7.9
486.512	7.95
486.862	7.98
487.212	8
487.562	8.02
487.912	8.03
488.262	8.03
488.612	8.03
488.961	8.01
489.311	7.97
489.661	7.9
490.011	7.82
490.36	7.72
490.71	7.6
491.06	7.48
491.409	7.34
491.759	7.21
492.108	7.06
492.458	6.92
492.807	6.76
493.157	6.61
493.506	6.46
493.855	6.33
494.204	6.2
494.554	6.08
494.903	5.98
495.252	5.88
495.601	5.78
495.95	5.69
496.299	5.61
496.648	5.54
496.997	5.47
497.346	5.4
497.695	5.34
498.043	5.29
498.392	5.24
498.741	5.2
499.09	5.16
499.438	5.13
499.787	5.1
500.135	5.08
500.484	5.07
500.832	5.07
501.181	5.09
501.529	5.13
501.878	5.18
502.226	5.23
502.574	5.3
502.923	5.37
503.271	5.45
503.619	5.53
503.967	5.62
504.315	5.71
504.663	5.81
505.011	5.91
505.359	6
505.707	6.11
506.055	6.22
506.403	6.34
506.751	6.46
507.098	6.59
507.446	6.73
507.794	6.88
508.141	7.04
508.489	7.21
508.837	7.38
509.184	7.56
509.531	7.74
509.879	7.94
510.226	8.16
510.574	8.38
510.921	8.61
511.268	8.85
511.616	9.11
511.963	9.37
512.31	9.64
512.657	9.91
513.004	10.18
513.351	10.45
513.698	10.7
514.045	10.94
514.392	11.18
514.739	11.41
515.086	11.64
515.432	11.87
515.779	12.1
516.126	12.35
516.473	12.61
516.819	12.89
517.166	13.19
517.512	13.51
517.859	13.86
518.205	14.22
518.552	14.62
518.898	15.03
519.245	15.51
519.591	16.07
519.937	16.71
520.283	17.45
520.629	18.24
520.976	19.07
521.322	19.93
521.668	20.79
522.014	21.66
522.36	22.53
522.706	23.39
523.052	24.23
523.398	25.02
523.743	25.77
524.089	26.45
524.435	27.09
524.781	27.72
525.126	28.35
525.472	28.96
525.817	29.56
526.163	30.16
526.509	30.73
526.854	31.3
527.199	31.86
527.545	32.42
527.89	33.01
528.235	33.58
528.581	34.11
528.926	34.62
529.271	35.1
529.616	35.56
529.961	36
530.306	36.39
530.651	36.76
530.996	37.1
531.341	37.43
531.686	37.72
532.031	38
532.376	38.31
532.721	38.64
533.065	39
533.41	39.36
533.755	39.69
534.099	39.97
534.444	40.19
534.788	40.38
535.133	40.56
535.477	40.7
535.822	40.81
536.166	40.87
536.51	40.86
536.855	40.78
537.199	40.66
537.543	40.55
537.887	40.47
538.231	40.43
538.576	40.4
538.92	40.34
539.264	40.27
539.608	40.18
539.951	40.05
540.295	39.92
540.639	39.78
540.983	39.61
541.327	39.42
541.671	39.23
542.014	39.06
542.358	38.92
542.701	38.9
543.045	38.91
543.389	38.96
543.732	39.03
544.075	39.13
544.419	39.23
544.762	39.35
545.105	39.48
545.449	39.63
545.792	39.78
546.135	39.94
546.478	40.04
546.821	40.09
547.165	40.06
547.508	39.97
547.851	39.82
548.194	39.62
548.536	39.37
548.879	39.09
549.222	38.77
549.565	38.44
549.908	38.12
550.25	37.83
550.593	37.6
550.936	37.45
551.278	37.37
551.621	37.33
551.963	37.3
552.306	37.3
552.648	37.34
552.991	37.42
553.333	37.51
553.675	37.64
554.017	37.81
554.36	37.99
554.702	38.22
555.044	38.48
555.386	38.8
555.728	39.12
556.07	39.39
556.412	39.68
556.754	39.83
557.096	39.99
557.438	40.14
557.78	40.3
558.121	40.45
558.463	40.6
558.805	40.75
559.147	40.9
559.488	41.06
559.83	41.2
560.171	41.34
560.513	41.48
560.854	41.62
561.196	41.76
561.537	41.89
561.878	42.02
562.22	42.15
562.561	42.29
562.902	42.42
563.243	42.55
563.584	42.69
563.925	42.82
564.266	42.93
564.607	43.07
564.948	43.19
565.289	43.32
565.63	43.45
565.971	43.57
566.312	43.69
566.653	43.81
566.993	43.92
567.334	44.03
567.675	44.14
568.015	44.24
568.356	44.33
568.696	44.43
569.037	44.52
569.377	44.61
569.718	44.7
570.058	44.79
570.398	44.86
570.739	44.94
571.079	45.01
571.419	45.09
571.759	45.15
572.099	45.23
572.439	45.3
572.779	45.35
573.119	45.42
573.459	45.48
573.799	45.54
574.139	45.6
574.479	45.67
574.819	45.73
575.158	45.8
575.498	45.86
575.838	45.92
576.177	45.98
576.517	46.04
576.856	46.1
577.196	46.16
577.535	46.22
577.875	46.26
578.214	46.33
578.553	46.38
578.893	46.44
579.232	46.48
579.571	46.53
579.91	46.59
580.25	46.64
580.589	46.7
580.928	46.75
581.267	46.8
581.606	46.85
581.945	46.92
582.283	46.98
582.622	47.05
582.961	47.11
583.3	47.18
583.639	47.24
583.977	47.31
584.316	47.4
584.654	47.47
584.993	47.55
585.332	47.61
585.67	47.69
586.008	47.75
586.347	47.82
586.685	47.9
587.024	47.98
587.362	48.05
587.7	48.12
588.038	48.19
588.376	48.27
588.715	48.36
589.053	48.43
589.391	48.52
589.729	48.59
590.067	48.67
590.404	48.75
590.742	48.82
591.08	48.88
591.418	48.97
591.756	49.04
592.093	49.11
592.431	49.17
592.769	49.22
593.106	49.28
593.444	49.33
593.781	49.38
594.119	49.42
594.456	49.47
594.793	49.52
595.131	49.58
595.468	49.64
595.805	49.69
596.143	49.75
596.48	49.8
596.817	49.86
597.154	49.92
597.491	49.99
597.828	50.06
598.165	50.1
598.502	50.16
598.839	50.21
599.176	50.27
599.512	50.31
599.849	50.36
600.186	50.41
600.523	50.45
600.859	50.49
601.196	50.52
601.532	50.57
601.869	50.6
602.205	50.65
602.542	50.69
602.878	50.72
603.215	50.76
603.551	50.8
603.887	50.84
604.223	50.87
604.56	50.92
604.896	50.95
605.232	50.98
605.568	51.01
605.904	51.03
606.24	51.06
606.576	51.08
606.912	51.11
607.248	51.13
607.583	51.17
607.919	51.2
608.255	51.23
608.591	51.26
608.926	51.28
609.262	51.3
609.597	51.33
609.933	51.35
610.268	51.36
610.604	51.39
610.939	51.4
611.275	51.41
611.61	51.42
611.945	51.44
612.281	51.45
612.616	51.48
612.951	51.5
613.286	51.52
613.621	51.53
613.956	51.56
614.291	51.58
614.626	51.61
614.961	51.64
615.296	51.66
615.631	51.69
615.966	51.7
616.3	51.72
616.635	51.74
616.97	51.75
617.304	51.78
617.639	51.81
617.973	51.82
618.308	51.82
618.642	51.85
618.977	51.89
619.311	51.91
619.646	51.94
619.98	51.97
620.314	52
620.648	52.02
620.983	52.06
621.317	52.1
621.651	52.12
621.985	52.16
622.319	52.19
622.653	52.22
622.987	52.24
623.321	52.27
623.655	52.3
623.988	52.33
624.322	52.35
624.656	52.39
624.99	52.42
625.323	52.44
625.657	52.47
625.99	52.5
626.324	52.51
626.657	52.53
626.991	52.56
627.324	52.58
627.658	52.6
627.991	52.62
628.324	52.64
628.657	52.66
628.991	52.67
629.324	52.7
629.657	52.71
629.99	52.73
630.323	52.75
630.656	52.77
630.989	52.79
631.322	52.8
631.655	52.82
631.987	52.84
632.32	52.86
632.653	52.88
632.986	52.9
633.318	52.93
633.651	52.94
633.984	52.96
634.316	52.99
634.649	53
634.981	53.02
635.313	53.03
635.646	53.04
635.978	53.05
636.31	53.08
636.643	53.12
636.975	53.14
637.307	53.16
637.639	53.18
637.971	53.2
638.303	53.21
638.635	53.23
638.967	53.26
639.299	53.28
639.631	53.3
639.963	53.32
640.295	53.35
640.626	53.36
640.958	53.4
641.29	53.43
641.621	53.44
641.953	53.46
642.285	53.47
642.616	53.51
642.948	53.54
643.279	53.56
643.61	53.57
643.942	53.61
644.273	53.63
644.604	53.66
644.936	53.69
645.267	53.72
645.598	53.74
645.929	53.77
646.26	53.78
646.591	53.8
646.922	53.81
647.253	53.83
647.584	53.86
647.915	53.89
648.245	53.92
648.576	53.95
648.907	53.98
649.238	54
649.568	54
649.899	54.01
650.229	54.02
650.56	54.02
650.89	54.04
651.221	54.07
651.551	54.09
651.882	54.11
652.212	54.13
652.542	54.14
652.872	54.17
653.203	54.19
653.533	54.23
653.863	54.24
654.193	54.26
654.523	54.26
654.853	54.28
655.183	54.3
655.513	54.32
655.843	54.35
656.172	54.36
656.502	54.37
656.832	54.39
657.162	54.42
657.491	54.44
657.821	54.46
658.15	54.47
658.48	54.47
658.809	54.47
659.139	54.48
659.468	54.49
659.798	54.49
660.127	54.5
660.456	54.52
660.785	54.54
661.115	54.55
661.444	54.56
661.773	54.57
662.102	54.56
662.431	54.58
662.76	54.61
663.089	54.64
663.418	54.65
663.747	54.66
664.076	54.69
664.404	54.7
664.733	54.73
665.062	54.74
665.39	54.77
665.719	54.78
666.048	54.79
666.376	54.8
666.705	54.81
667.033	54.81
667.362	54.81
667.69	54.83
668.018	54.84
668.347	54.86
668.675	54.87
669.003	54.88
669.331	54.89
669.659	54.9
669.987	54.91
670.315	54.93
670.643	54.94
670.971	54.95
671.299	54.96
671.627	54.97
671.955	54.98
672.283	55.03
672.61	55.05
672.938	55.05
673.266	55.08
673.593	55.1
673.921	55.11
674.249	55.13
674.576	55.15
674.904	55.18
675.231	55.19
675.558	55.22
675.886	55.25
676.213	55.24
676.54	55.26
676.867	55.27
677.195	55.3
677.522	55.31
677.849	55.32
678.176	55.31
678.503	55.33
678.83	55.34
679.157	55.36
679.484	55.38
679.81	55.42
680.137	55.43
680.464	55.44
680.791	55.47
681.117	55.5
681.444	55.53
681.771	55.53
682.097	55.56
682.424	55.58
682.75	55.58
683.077	55.61
683.403	55.63
683.729	55.65
684.056	55.66
684.382	55.67
684.708	55.7
685.034	55.72
685.36	55.76
685.686	55.75
686.012	55.79
686.339	55.82
686.664	55.83
686.99	55.85
687.316	55.87
687.642	55.9
687.968	55.92
688.294	55.94
688.619	55.95
688.945	55.98
689.271	56
689.596	56.01
689.922	56.05
690.247	56.06
690.573	56.08
690.898	56.09
691.224	56.12
691.549	56.16
691.874	56.16
692.2	56.18
692.525	56.19
692.85	56.2
693.175	56.2
693.5	56.23
693.825	56.25
694.15	56.28
694.475	56.29
694.8	56.31
695.125	56.32
695.45	56.34
695.775	56.36
696.099	56.38
696.424	56.39
696.749	56.39
697.073	56.39
697.398	56.39
697.723	56.4
698.047	56.44
698.372	56.45
698.696	56.45
699.02	56.46
699.345	56.46
699.669	56.49
699.993	56.51
700.318	56.53
700.642	56.54
700.966	56.53
701.29	56.55
701.614	56.55
701.938	56.56
702.262	56.57
702.586	56.58
702.91	56.6
703.234	56.59
703.557	56.61
703.881	56.62
704.205	56.62
704.529	56.63
704.852	56.66
705.176	56.68
705.499	56.7
705.823	56.72
706.146	56.74
706.47	56.78
706.793	56.8
707.117	56.81
707.44	56.83
707.763	56.84
708.086	56.86
708.409	56.9
708.733	56.9
709.056	56.92
709.379	56.93
709.702	56.92
710.025	56.96
710.348	56.97
710.671	57
710.993	57.01
711.316	57
711.639	57.02
711.962	57.04
712.284	57.06
712.607	57.06
712.93	57.07
713.252	57.08
713.575	57.1
713.897	57.1
714.22	57.12
714.542	57.14
714.864	57.17
715.187	57.19
715.509	57.19
715.831	57.19
716.153	57.19
716.475	57.2
716.798	57.2
717.12	57.22
717.442	57.25
717.764	57.25
718.085	57.27
718.407	57.31
718.729	57.33
719.051	57.33
719.373	57.32
719.695	57.31
720.016	57.32
720.338	57.32
720.659	57.31
720.981	57.33
721.302	57.36
721.624	57.35
721.945	57.36
722.267	57.37
722.588	57.42
722.909	57.45
723.231	57.45
723.552	57.44
723.873	57.44
724.194	57.49
724.515	57.52
724.836	57.52
725.157	57.54
725.478	57.56
725.799	57.6
726.12	57.63
726.441	57.64
726.762	57.64
727.083	57.65
727.403	57.66
727.724	57.67
728.045	57.67
728.365	57.68
728.686	57.71
729.006	57.74
729.327	57.75
729.647	57.79
729.967	57.8
730.288	57.81
730.608	57.83
730.928	57.85
731.249	57.88
731.569	57.87
731.889	57.86
732.209	57.87
732.529	57.89
732.849	57.9
733.169	57.93
733.489	57.95
733.809	57.98
734.129	58.01
734.448	58.01
734.768	58.01
735.088	58.03
735.408	58.03
735.727	58.03
736.047	58.03
736.366	58.03
736.686	58.08
737.005	58.08
737.325	58.04
737.644	58.02
737.963	58.02
738.283	58
738.602	58.01
738.921	58.03
739.24	58
739.56	58
739.879	57.99
740.198	58.02
740.517	58.05
740.836	58.02
741.155	58.03
741.473	58.04
741.792	58.02
742.111	57.98
742.43	58
742.748	58.01
743.067	58.03
743.386	58.07
743.704	58.05
744.023	58.05
744.341	58.03
744.66	58.03
744.978	58.01
745.297	58.03
745.615	58.04
745.933	58.05
746.252	58.05
746.57	58.02
746.888	58.04
747.206	58.03
747.524	58.01
747.842	58.05
748.16	58.04
748.478	58.05
748.796	58.05
749.114	58.05
749.432	58.06
749.749	58.05
750.067	58.04
750.385	58.08
750.703	58.11
751.02	58.14
751.338	58.18
751.655	58.18
751.973	58.15
752.29	58.16
752.608	58.17
752.925	58.18
753.242	58.15
753.56	58.15
753.877	58.2
754.194	58.22
754.511	58.25
754.828	58.3
755.145	58.33
755.462	58.35
755.779	58.34
756.096	58.38
756.413	58.36
756.73	58.39
757.047	58.44
757.364	58.48
757.68	58.49
757.997	58.57
758.314	58.58
758.63	58.6
758.947	58.65
759.264	58.68
759.58	58.71
759.896	58.71
760.213	58.71
760.529	58.75
760.846	58.78
761.162	58.8
761.478	58.8
761.794	58.82
762.11	58.87
762.426	58.89
762.743	58.88
763.059	58.9
763.375	58.91
763.69	58.93
764.006	58.92
764.322	58.92
764.638	58.92
764.954	58.93
765.27	58.96
765.585	58.93
765.901	58.95
766.216	58.98
766.532	58.98
766.848	58.99
767.163	59
767.478	58.97
767.794	58.95
768.109	58.98
768.424	58.96
768.74	58.98
769.055	58.96
769.37	58.97
769.685	58.97
770	58.94
770.315	58.91
770.63	58.92
770.945	58.87
771.26	58.88
771.575	58.83
771.89	58.79
772.205	58.79
772.52	58.78
772.834	58.74
773.149	58.76
773.464	58.74
773.778	58.7
774.093	58.66
774.407	58.69
774.722	58.7
775.036	58.66
775.351	58.7
775.665	58.75
775.979	58.79
776.293	58.8
776.608	58.84
776.922	58.87
777.236	58.9
777.55	58.92
777.864	58.94
778.178	58.92
778.492	58.94
778.806	58.93
779.12	58.91
779.434	58.94
779.747	58.96
780.061	58.95
780.375	58.98
780.689	58.97
781.002	58.96
781.316	59
781.629	59.01
781.943	59
782.256	58.99
782.57	59.01
782.883	59.03
783.196	59.04
783.51	59.04
783.823	59.05
784.136	59.03
784.449	59.09
784.762	59.07
785.075	59.05
785.388	59.05
785.701	59.1
786.014	59.11
786.327	59.15
786.64	59.14
786.953	59.22
787.266	59.22
787.578	59.21
787.891	59.27
788.204	59.24
788.516	59.22
788.829	59.17
789.141	59.2
789.454	59.18
789.766	59.18
790.079	59.18
790.391	59.14
790.703	59.15
791.016	59.19
791.328	59.18
791.64	59.24
791.952	59.25
792.264	59.2
792.576	59.16
792.888	59.11
793.2	59.08
793.512	59.11
793.824	59.14
794.136	59.11
794.448	59.13
794.76	59.16
795.071	59.18
795.383	59.17
795.695	59.21
796.006	59.23
796.318	59.21
796.629	59.25
796.941	59.24
797.252	59.26
797.564	59.29
797.875	59.33
798.186	59.33
798.497	59.33
798.809	59.31
799.12	59.34
799.431	59.4
799.742	59.43
800.053	59.44
800.364	59.47
800.675	59.42
800.986	59.45
801.297	59.5
801.608	59.53
801.918	59.52
802.229	59.51
802.54	59.49
802.851	59.45
803.161	59.46
803.472	59.47
803.782	59.46
804.093	59.51
804.403	59.49
804.714	59.55
805.024	59.57
805.334	59.61
805.645	59.64
805.955	59.69
806.265	59.7
806.575	59.69
806.885	59.72
807.195	59.7
807.505	59.71
807.815	59.69
808.125	59.71
808.435	59.61
808.745	59.63
809.055	59.67
809.365	59.71
809.674	59.81
809.984	59.8
810.294	59.88
810.603	59.81
810.913	59.82
811.222	59.83
811.532	59.84
811.841	59.79
812.151	59.77
812.46	59.72
812.769	59.79
813.079	59.74
813.388	59.77
813.697	59.76
814.006	59.78
814.315	59.75
814.624	59.78
814.933	59.78
815.242	59.83
815.551	59.94
815.86	60
816.169	59.96
816.478	60.03
816.786	60.07
817.095	60.07
817.404	60.13
817.712	60.18
818.021	60.14
818.33	60.25
818.638	60.24
818.947	60.28
819.255	60.32
819.563	60.3
819.872	60.31
820.18	60.32
820.488	60.38
820.796	60.43
821.105	60.45
821.413	60.46
821.721	60.47
822.029	60.48
822.337	60.47
822.645	60.47
822.953	60.46
823.26	60.47
823.568	60.48
823.876	60.5
824.184	60.51
824.491	60.53
824.799	60.52
825.107	60.52
825.414	60.49
825.722	60.51
826.029	60.5
826.337	60.49
826.644	60.49
826.951	60.5
827.259	60.49
827.566	60.5
827.873	60.5
828.18	60.47
828.488	60.49
828.795	60.5
829.102	60.48
829.409	60.47
829.716	60.49
830.023	60.45
830.329	60.45
830.636	60.48
830.943	60.43
831.25	60.44
831.557	60.41
831.863	60.38
832.17	60.43
832.476	60.41
832.783	60.4
833.089	60.36
833.396	60.32
833.702	60.29
834.009	60.29
834.315	60.26
834.621	60.23
834.928	60.25
835.234	60.25
835.54	60.22
835.846	60.21
836.152	60.24
836.458	60.17
836.764	60.14
837.07	60.12
837.376	60.12
837.682	60.08
837.988	60.12
838.293	60.09
838.599	60.09
838.905	60.11
839.211	60.12
839.516	60.11
839.822	60.11
840.127	60.07
840.433	60.09
840.738	60.17
841.044	60.07
841.349	60.15
841.654	60.16
841.959	60.21
842.265	60.21
842.57	60.27
842.875	60.21
843.18	60.27
843.485	60.26
843.79	60.32
844.095	60.3
844.4	60.33
844.705	60.27
845.01	60.34
845.315	60.31
845.619	60.23
845.924	60.11
846.229	60.41
846.533	60.26
846.838	60.34
847.142	60.37
847.447	60.3
847.751	60.33
848.056	60.29
848.36	60.3
848.664	60.14
848.969	60.24
849.273	60.31
849.577	60.28
849.881	60.23
850.185	60.47
850.489	60.49
850.794	60.49
851.097	60.39
851.401	60.36
851.705	60.34
852.009	60.46
852.313	60.47
852.617	60.48
852.92	60.44
853.224	60.25
853.528	60.23
853.831	60.12
854.135	60.13
854.438	60.14
854.742	60.11
855.045	59.96
855.349	60.09
855.652	60.02
855.955	60.02
856.259	59.9
856.562	59.95
856.865	59.97
857.168	59.87
857.471	59.93
857.774	59.92
858.077	59.88
858.38	60.06
858.683	59.84
858.986	59.89
859.289	59.7
859.592	59.61
859.894	59.69
860.197	59.65
860.5	59.7
860.802	59.79
861.105	59.89
861.407	59.9
861.71	59.77
862.012	59.64
862.315	59.78
862.617	59.7
862.919	59.66
863.222	59.63
863.524	59.69
863.826	59.76
864.128	59.81
864.43	59.89
864.732	59.94
865.034	59.95
865.336	60.01
865.638	60.13
865.94	60.18
866.242	60.24
866.544	60.36
866.846	60.37
867.147	60.36
867.449	60.42
867.751	60.12
868.052	60.15
868.354	60.14
868.655	60.25
868.957	60.24
869.258	60.26
869.56	60.42
869.861	60.42
870.162	60.41
870.463	60.64
870.765	60.54
871.066	60.55
871.367	60.73
871.668	60.7
871.969	60.67
872.27	60.62
872.571	60.69
872.872	60.65
873.173	60.69
873.473	60.68
873.774	60.65
874.075	60.76
874.376	60.97
874.676	60.91
874.977	60.84
875.277	60.9
875.578	61.02
875.878	61.12
876.179	61.16
876.479	61.1
876.78	60.86
877.08	60.76
877.38	60.79
877.68	60.64
877.981	60.56
878.281	60.62
878.581	60.62
