Data from UWBM48344_Reflection_00012.txt Node
Date: Sun May 02 14:01:49 EDT 2021
User: vgr7
Spectrometer: USB2G7710
Scans to average: 10
Trigger mode: 4
Integration Time (sec): 1.000000E-1
Electric dark correction enabled: true
Boxcar width: 20
XAxis mode: Wavelengths
Number of Pixels in Spectrum: 2048
>>>>>Begin Spectral Data<<<<<
177.721	614.81
178.105	1725.93
178.488	646.91
178.871	425.93
179.254	240.84
179.636	144.78
180.019	106.25
180.402	95.66
180.785	83.5
181.168	72.76
181.55	64.81
181.933	67.36
182.316	60.68
182.698	60.65
183.081	54.29
183.463	53.79
183.846	46.22
184.228	44.51
184.611	42.21
184.993	45.94
185.376	44.99
185.758	43.32
186.14	46.2
186.522	44.28
186.904	44.15
187.287	43.13
187.669	46.01
188.051	41.87
188.433	38.33
188.815	35.22
189.197	34.33
189.579	32.38
189.961	30.13
190.342	30.22
190.724	31.89
191.106	33.57
191.488	35.66
191.869	34.42
192.251	33.42
192.633	31.09
193.014	31.64
193.396	29.83
193.777	29.16
194.159	29.73
194.54	28.07
194.922	27.47
195.303	26.16
195.684	25.53
196.065	24.51
196.447	23.9
196.828	24.17
197.209	23.03
197.59	20.29
197.971	20.05
198.352	20.02
198.733	20.92
199.114	21.88
199.495	22.54
199.876	22.69
200.257	24.05
200.638	22.56
201.018	21.99
201.399	22.43
201.78	20.43
202.16	19.11
202.541	18.36
202.922	17
203.302	16.38
203.683	16.53
204.063	18.74
204.444	18.86
204.824	20.09
205.204	19.73
205.585	21.78
205.965	22.25
206.345	21.33
206.725	20.53
207.106	20.45
207.486	20.94
207.866	22.66
208.246	22.54
208.626	21.19
209.006	20.9
209.386	21.53
209.766	20.94
210.145	22.08
210.525	21.77
210.905	24.07
211.285	25.29
211.664	26.33
212.044	27.49
212.424	26.28
212.803	26.89
213.183	28.19
213.562	29.78
213.942	30.13
214.321	30.01
214.701	29.53
215.08	31.53
215.459	30.78
215.838	29.57
216.218	28.4
216.597	28.9
216.976	29.55
217.355	30.6
217.734	32.21
218.113	31.45
218.492	30.98
218.871	30.78
219.25	30.23
219.629	28.01
220.008	27.8
220.387	24.92
220.766	25.44
221.144	23.46
221.523	23.71
221.902	22.73
222.28	21.48
222.659	19.8
223.037	18.55
223.416	17.69
223.794	17.27
224.173	17.42
224.551	16.72
224.929	16.87
225.308	16.27
225.686	15.08
226.064	14.97
226.442	14.53
226.821	14.06
227.199	13.77
227.577	13.32
227.955	13.41
228.333	13.16
228.711	12.7
229.089	11.43
229.467	10.49
229.845	10.3
230.222	10.18
230.6	9.82
230.978	9.83
231.356	10.04
231.733	10.08
232.111	9.74
232.488	9.26
232.866	8.75
233.243	8.41
233.621	8.31
233.998	8.22
234.376	7.85
234.753	7.47
235.13	7.42
235.508	7.44
235.885	7.37
236.262	7.12
236.639	7.06
237.016	6.93
237.393	6.87
237.77	6.72
238.147	6.72
238.524	6.65
238.901	6.44
239.278	6.38
239.655	6.26
240.032	6.18
240.409	6.01
240.785	5.99
241.162	5.98
241.539	5.87
241.915	5.83
242.292	5.84
242.668	5.82
243.045	5.78
243.421	5.78
243.798	5.8
244.174	5.82
244.551	5.83
244.927	5.85
245.303	5.85
245.679	5.79
246.056	5.74
246.432	5.72
246.808	5.65
247.184	5.63
247.56	5.65
247.936	5.66
248.312	5.67
248.688	5.66
249.064	5.67
249.44	5.66
249.815	5.63
250.191	5.62
250.567	5.63
250.943	5.58
251.318	5.54
251.694	5.55
252.069	5.51
252.445	5.46
252.82	5.42
253.196	5.4
253.571	5.37
253.947	5.33
254.322	5.32
254.697	5.29
255.073	5.27
255.448	5.27
255.823	5.25
256.198	5.25
256.573	5.23
256.948	5.25
257.323	5.22
257.698	5.16
258.073	5.13
258.448	5.12
258.823	5.08
259.198	5.04
259.573	4.99
259.948	4.99
260.322	4.96
260.697	4.93
261.072	4.92
261.446	4.91
261.821	4.88
262.195	4.9
262.57	4.89
262.944	4.89
263.319	4.87
263.693	4.86
264.067	4.85
264.442	4.83
264.816	4.8
265.19	4.81
265.564	4.8
265.938	4.76
266.313	4.75
266.687	4.75
267.061	4.72
267.435	4.71
267.809	4.71
268.183	4.71
268.556	4.71
268.93	4.71
269.304	4.71
269.678	4.7
270.051	4.69
270.425	4.68
270.799	4.66
271.172	4.67
271.546	4.64
271.919	4.63
272.293	4.63
272.666	4.64
273.04	4.64
273.413	4.67
273.787	4.68
274.16	4.69
274.533	4.7
274.906	4.71
275.279	4.71
275.653	4.74
276.026	4.74
276.399	4.75
276.772	4.77
277.145	4.76
277.518	4.74
277.891	4.75
278.263	4.73
278.636	4.74
279.009	4.73
279.382	4.74
279.755	4.74
280.127	4.77
280.5	4.77
280.872	4.79
281.245	4.79
281.617	4.8
281.99	4.82
282.362	4.82
282.735	4.83
283.107	4.84
283.479	4.84
283.852	4.86
284.224	4.86
284.596	4.86
284.968	4.89
285.34	4.9
285.713	4.9
286.085	4.92
286.457	4.93
286.829	4.95
287.201	4.96
287.572	4.97
287.944	4.98
288.316	4.99
288.688	4.98
289.06	4.99
289.431	5.01
289.803	5.02
290.175	5.05
290.546	5.07
290.918	5.09
291.289	5.11
291.661	5.12
292.032	5.13
292.403	5.16
292.775	5.2
293.146	5.22
293.517	5.26
293.889	5.29
294.26	5.33
294.631	5.37
295.002	5.4
295.373	5.43
295.744	5.46
296.115	5.49
296.486	5.54
296.857	5.58
297.228	5.62
297.599	5.67
297.97	5.7
298.34	5.73
298.711	5.78
299.082	5.81
299.452	5.85
299.823	5.89
300.194	5.94
300.564	5.99
300.935	6.05
301.305	6.09
301.676	6.14
302.046	6.18
302.416	6.22
302.787	6.25
303.157	6.29
303.527	6.34
303.897	6.4
304.267	6.45
304.637	6.48
305.008	6.54
305.378	6.58
305.748	6.64
306.117	6.69
306.487	6.75
306.857	6.81
307.227	6.88
307.597	6.93
307.967	6.97
308.336	7.02
308.706	7.03
309.076	7.07
309.445	7.12
309.815	7.15
310.184	7.19
310.554	7.22
310.923	7.28
311.293	7.33
311.662	7.36
312.031	7.4
312.401	7.45
312.77	7.49
313.139	7.56
313.508	7.61
313.877	7.66
314.246	7.71
314.616	7.75
314.985	7.8
315.353	7.83
315.722	7.86
316.091	7.91
316.46	7.95
316.829	8
317.198	8.04
317.567	8.1
317.935	8.16
318.304	8.22
318.672	8.28
319.041	8.34
319.41	8.4
319.778	8.47
320.147	8.51
320.515	8.57
320.883	8.61
321.252	8.65
321.62	8.7
321.988	8.73
322.357	8.78
322.725	8.83
323.093	8.89
323.461	8.92
323.829	8.98
324.197	9.02
324.565	9.05
324.933	9.09
325.301	9.11
325.669	9.16
326.037	9.19
326.405	9.22
326.772	9.25
327.14	9.28
327.508	9.31
327.875	9.33
328.243	9.34
328.61	9.37
328.978	9.39
329.346	9.41
329.713	9.45
330.08	9.47
330.448	9.47
330.815	9.48
331.182	9.49
331.55	9.53
331.917	9.55
332.284	9.56
332.651	9.58
333.018	9.6
333.385	9.63
333.752	9.65
334.119	9.68
334.486	9.71
334.853	9.74
335.22	9.77
335.587	9.78
335.954	9.81
336.32	9.84
336.687	9.84
337.054	9.86
337.42	9.88
337.787	9.9
338.153	9.9
338.52	9.92
338.886	9.94
339.253	9.96
339.619	9.97
339.986	10
340.352	10.02
340.718	10.04
341.084	10.05
341.451	10.07
341.817	10.09
342.183	10.09
342.549	10.11
342.915	10.12
343.281	10.14
343.647	10.15
344.013	10.14
344.379	10.16
344.745	10.17
345.11	10.19
345.476	10.21
345.842	10.24
346.208	10.24
346.573	10.23
346.939	10.23
347.304	10.26
347.67	10.25
348.035	10.25
348.401	10.26
348.766	10.26
349.132	10.25
349.497	10.25
349.862	10.24
350.228	10.24
350.593	10.25
350.958	10.24
351.323	10.24
351.688	10.25
352.053	10.25
352.418	10.25
352.783	10.23
353.148	10.22
353.513	10.22
353.878	10.19
354.243	10.18
354.608	10.17
354.972	10.16
355.337	10.15
355.702	10.13
356.066	10.1
356.431	10.08
356.795	10.06
357.16	10.04
357.524	10.02
357.889	10
358.253	9.98
358.618	9.95
358.982	9.94
359.346	9.93
359.71	9.9
360.075	9.89
360.439	9.86
360.803	9.83
361.167	9.82
361.531	9.8
361.895	9.78
362.259	9.74
362.623	9.72
362.987	9.69
363.351	9.66
363.714	9.63
364.078	9.6
364.442	9.57
364.806	9.54
365.169	9.5
365.533	9.46
365.896	9.43
366.26	9.4
366.623	9.36
366.987	9.31
367.35	9.27
367.714	9.23
368.077	9.19
368.44	9.13
368.803	9.09
369.167	9.04
369.53	8.98
369.893	8.93
370.256	8.87
370.619	8.81
370.982	8.77
371.345	8.71
371.708	8.65
372.071	8.6
372.434	8.55
372.797	8.49
373.159	8.44
373.522	8.39
373.885	8.33
374.247	8.28
374.61	8.21
374.973	8.15
375.335	8.09
375.698	8.03
376.06	7.97
376.423	7.91
376.785	7.86
377.147	7.81
377.51	7.76
377.872	7.7
378.234	7.65
378.596	7.59
378.958	7.52
379.321	7.48
379.683	7.43
380.045	7.37
380.407	7.33
380.769	7.28
381.13	7.23
381.492	7.18
381.854	7.13
382.216	7.08
382.578	7.04
382.939	6.99
383.301	6.95
383.663	6.91
384.024	6.87
384.386	6.83
384.747	6.78
385.109	6.74
385.47	6.7
385.832	6.65
386.193	6.6
386.554	6.56
386.916	6.51
387.277	6.47
387.638	6.44
387.999	6.4
388.36	6.37
388.721	6.33
389.082	6.3
389.443	6.26
389.804	6.23
390.165	6.2
390.526	6.17
390.887	6.13
391.248	6.1
391.609	6.07
391.969	6.04
392.33	6
392.691	5.97
393.051	5.94
393.412	5.91
393.772	5.88
394.133	5.84
394.493	5.81
394.854	5.77
395.214	5.74
395.574	5.7
395.935	5.68
396.295	5.64
396.655	5.61
397.015	5.58
397.376	5.55
397.736	5.52
398.096	5.49
398.456	5.45
398.816	5.43
399.176	5.39
399.535	5.36
399.895	5.33
400.255	5.3
400.615	5.28
400.975	5.25
401.334	5.23
401.694	5.2
402.054	5.18
402.413	5.15
402.773	5.13
403.132	5.11
403.492	5.08
403.851	5.06
404.211	5.04
404.57	5.02
404.929	5.01
405.288	4.99
405.648	4.98
406.007	4.96
406.366	4.94
406.725	4.93
407.084	4.92
407.443	4.91
407.802	4.9
408.161	4.89
408.52	4.88
408.879	4.87
409.238	4.86
409.596	4.84
409.955	4.83
410.314	4.82
410.673	4.81
411.031	4.8
411.39	4.79
411.748	4.78
412.107	4.78
412.465	4.78
412.824	4.79
413.182	4.8
413.54	4.82
413.899	4.83
414.257	4.86
414.615	4.89
414.974	4.92
415.332	4.95
415.69	4.98
416.048	5
416.406	5.04
416.764	5.06
417.122	5.08
417.48	5.1
417.838	5.13
418.195	5.14
418.553	5.16
418.911	5.17
419.269	5.17
419.626	5.15
419.984	5.13
420.342	5.11
420.699	5.09
421.057	5.06
421.414	5.03
421.772	5
422.129	4.98
422.486	4.97
422.844	4.96
423.201	4.95
423.558	4.94
423.915	4.93
424.273	4.93
424.63	4.92
424.987	4.91
425.344	4.9
425.701	4.89
426.058	4.89
426.415	4.88
426.772	4.87
427.128	4.86
427.485	4.84
427.842	4.82
428.199	4.79
428.555	4.77
428.912	4.74
429.269	4.7
429.625	4.67
429.982	4.63
430.338	4.6
430.695	4.56
431.051	4.52
431.407	4.5
431.764	4.47
432.12	4.45
432.476	4.43
432.832	4.42
433.189	4.41
433.545	4.41
433.901	4.43
434.257	4.45
434.613	4.47
434.969	4.5
435.325	4.52
435.681	4.57
436.036	4.59
436.392	4.61
436.748	4.63
437.104	4.64
437.459	4.66
437.815	4.67
438.171	4.7
438.526	4.73
438.882	4.76
439.237	4.8
439.593	4.83
439.948	4.87
440.304	4.9
440.659	4.93
441.014	4.95
441.369	4.98
441.725	5
442.08	5.01
442.435	5.03
442.79	5.03
443.145	5.03
443.5	5.03
443.855	5.03
444.21	5.02
444.565	5.02
444.92	5.01
445.275	5
445.629	4.99
445.984	4.97
446.339	4.95
446.693	4.94
447.048	4.92
447.403	4.9
447.757	4.87
448.112	4.84
448.466	4.82
448.82	4.79
449.175	4.76
449.529	4.73
449.883	4.71
450.238	4.67
450.592	4.67
450.946	4.65
451.3	4.64
451.654	4.65
452.008	4.64
452.362	4.65
452.716	4.64
453.07	4.64
453.424	4.63
453.778	4.62
454.132	4.61
454.486	4.59
454.839	4.57
455.193	4.55
455.547	4.53
455.9	4.5
456.254	4.48
456.607	4.44
456.961	4.42
457.314	4.39
457.668	4.38
458.021	4.38
458.375	4.38
458.728	4.38
459.081	4.38
459.434	4.39
459.787	4.39
460.141	4.41
460.494	4.42
460.847	4.43
461.2	4.44
461.553	4.45
461.906	4.46
462.259	4.47
462.611	4.47
462.964	4.48
463.317	4.49
463.67	4.5
464.022	4.52
464.375	4.52
464.728	4.54
465.08	4.54
465.433	4.55
465.785	4.55
466.138	4.55
466.49	4.54
466.843	4.52
467.195	4.5
467.547	4.49
467.899	4.47
468.252	4.45
468.604	4.43
468.956	4.41
469.308	4.41
469.66	4.41
470.012	4.41
470.364	4.42
470.716	4.43
471.068	4.45
471.42	4.48
471.772	4.5
472.123	4.52
472.475	4.54
472.827	4.55
473.178	4.56
473.53	4.58
473.882	4.6
474.233	4.63
474.585	4.67
474.936	4.74
475.288	4.84
475.639	4.96
475.99	5.11
476.342	5.27
476.693	5.44
477.044	5.62
477.395	5.8
477.746	5.98
478.097	6.17
478.448	6.36
478.8	6.54
479.15	6.71
479.501	6.86
479.852	7
480.203	7.14
480.554	7.27
480.905	7.39
481.255	7.51
481.606	7.62
481.957	7.72
482.307	7.82
482.658	7.91
483.009	8
483.359	8.09
483.709	8.17
484.06	8.25
484.41	8.33
484.761	8.41
485.111	8.48
485.461	8.55
485.811	8.62
486.162	8.68
486.512	8.73
486.862	8.77
487.212	8.8
487.562	8.82
487.912	8.83
488.262	8.83
488.612	8.82
488.961	8.8
489.311	8.75
489.661	8.68
490.011	8.59
490.36	8.48
490.71	8.35
491.06	8.22
491.409	8.07
491.759	7.91
492.108	7.76
492.458	7.59
492.807	7.42
493.157	7.26
493.506	7.1
493.855	6.95
494.204	6.81
494.554	6.67
494.903	6.55
495.252	6.44
495.601	6.34
495.95	6.23
496.299	6.14
496.648	6.06
496.997	5.98
497.346	5.91
497.695	5.84
498.043	5.78
498.392	5.72
498.741	5.67
499.09	5.62
499.438	5.58
499.787	5.54
500.135	5.51
500.484	5.49
500.832	5.49
501.181	5.5
501.529	5.53
501.878	5.57
502.226	5.62
502.574	5.68
502.923	5.74
503.271	5.81
503.619	5.88
503.967	5.95
504.315	6.02
504.663	6.1
505.011	6.17
505.359	6.25
505.707	6.33
506.055	6.42
506.403	6.51
506.751	6.61
507.098	6.71
507.446	6.81
507.794	6.92
508.141	7.03
508.489	7.15
508.837	7.28
509.184	7.41
509.531	7.54
509.879	7.68
510.226	7.84
510.574	8
510.921	8.16
511.268	8.33
511.616	8.51
511.963	8.7
512.31	8.89
512.657	9.07
513.004	9.26
513.351	9.44
513.698	9.61
514.045	9.77
514.392	9.92
514.739	10.07
515.086	10.21
515.432	10.35
515.779	10.49
516.126	10.64
516.473	10.79
516.819	10.96
517.166	11.15
517.512	11.35
517.859	11.57
518.205	11.8
518.552	12.06
518.898	12.34
519.245	12.65
519.591	13.03
519.937	13.48
520.283	13.99
520.629	14.55
520.976	15.13
521.322	15.75
521.668	16.38
522.014	17.01
522.36	17.65
522.706	18.27
523.052	18.88
523.398	19.46
523.743	19.99
524.089	20.48
524.435	20.93
524.781	21.38
525.126	21.82
525.472	22.26
525.817	22.68
526.163	23.1
526.509	23.5
526.854	23.91
527.199	24.32
527.545	24.71
527.89	25.13
528.235	25.54
528.581	25.94
528.926	26.31
529.271	26.66
529.616	27.01
529.961	27.34
530.306	27.65
530.651	27.95
530.996	28.22
531.341	28.46
531.686	28.68
532.031	28.9
532.376	29.14
532.721	29.4
533.065	29.68
533.41	29.98
533.755	30.24
534.099	30.48
534.444	30.68
534.788	30.86
535.133	31.03
535.477	31.17
535.822	31.28
536.166	31.36
536.51	31.39
536.855	31.37
537.199	31.32
537.543	31.27
537.887	31.25
538.231	31.26
538.576	31.28
538.92	31.28
539.264	31.27
539.608	31.25
539.951	31.2
540.295	31.14
540.639	31.08
540.983	31
541.327	30.9
541.671	30.79
542.014	30.7
542.358	30.63
542.701	30.62
543.045	30.68
543.389	30.75
543.732	30.85
544.075	30.96
544.419	31.09
544.762	31.23
545.105	31.38
545.449	31.54
545.792	31.72
546.135	31.89
546.478	32.02
546.821	32.1
547.165	32.14
547.508	32.12
547.851	32.06
548.194	31.96
548.536	31.82
548.879	31.66
549.222	31.46
549.565	31.26
549.908	31.07
550.25	30.9
550.593	30.79
550.936	30.73
551.278	30.72
551.621	30.75
551.963	30.8
552.306	30.88
552.648	30.97
552.991	31.1
553.333	31.24
553.675	31.41
554.017	31.61
554.36	31.83
554.702	32.08
555.044	32.36
555.386	32.69
555.728	33.05
556.07	33.36
556.412	33.68
556.754	33.94
557.096	34.14
557.438	34.35
557.78	34.55
558.121	34.76
558.463	34.97
558.805	35.18
559.147	35.38
559.488	35.59
559.83	35.8
560.171	36
560.513	36.2
560.854	36.41
561.196	36.6
561.537	36.78
561.878	36.97
562.22	37.16
562.561	37.34
562.902	37.52
563.243	37.7
563.584	37.88
563.925	38.06
564.266	38.24
564.607	38.41
564.948	38.58
565.289	38.75
565.63	38.91
565.971	39.08
566.312	39.24
566.653	39.4
566.993	39.55
567.334	39.71
567.675	39.86
568.015	40.01
568.356	40.16
568.696	40.29
569.037	40.43
569.377	40.56
569.718	40.68
570.058	40.8
570.398	40.92
570.739	41.03
571.079	41.15
571.419	41.26
571.759	41.37
572.099	41.47
572.439	41.56
572.779	41.65
573.119	41.75
573.459	41.84
573.799	41.92
574.139	42.01
574.479	42.1
574.819	42.19
575.158	42.29
575.498	42.38
575.838	42.46
576.177	42.54
576.517	42.62
576.856	42.7
577.196	42.78
577.535	42.85
577.875	42.91
578.214	42.99
578.553	43.08
578.893	43.15
579.232	43.23
579.571	43.31
579.91	43.38
580.25	43.45
580.589	43.52
580.928	43.6
581.267	43.68
581.606	43.74
581.945	43.82
582.283	43.89
582.622	43.97
582.961	44.05
583.3	44.13
583.639	44.21
583.977	44.29
584.316	44.36
584.654	44.44
584.993	44.5
585.332	44.58
585.67	44.65
586.008	44.72
586.347	44.81
586.685	44.89
587.024	44.97
587.362	45.05
587.7	45.14
588.038	45.22
588.376	45.3
588.715	45.38
589.053	45.49
589.391	45.58
589.729	45.66
590.067	45.74
590.404	45.81
590.742	45.89
591.08	45.97
591.418	46.05
591.756	46.13
592.093	46.19
592.431	46.25
592.769	46.3
593.106	46.35
593.444	46.41
593.781	46.46
594.119	46.51
594.456	46.55
594.793	46.61
595.131	46.66
595.468	46.72
595.805	46.77
596.143	46.83
596.48	46.89
596.817	46.95
597.154	47.02
597.491	47.09
597.828	47.16
598.165	47.22
598.502	47.28
598.839	47.35
599.176	47.4
599.512	47.44
599.849	47.5
600.186	47.54
600.523	47.58
600.859	47.64
601.196	47.67
601.532	47.72
601.869	47.76
602.205	47.8
602.542	47.83
602.878	47.85
603.215	47.89
603.551	47.92
603.887	47.97
604.223	48.01
604.56	48.04
604.896	48.06
605.232	48.1
605.568	48.13
605.904	48.17
606.24	48.19
606.576	48.22
606.912	48.26
607.248	48.28
607.583	48.31
607.919	48.34
608.255	48.37
608.591	48.39
608.926	48.41
609.262	48.43
609.597	48.45
609.933	48.48
610.268	48.49
610.604	48.51
610.939	48.51
611.275	48.52
611.61	48.53
611.945	48.55
612.281	48.55
612.616	48.56
612.951	48.58
613.286	48.61
613.621	48.62
613.956	48.63
614.291	48.65
614.626	48.67
614.961	48.69
615.296	48.71
615.631	48.72
615.966	48.74
616.3	48.76
616.635	48.78
616.97	48.78
617.304	48.79
617.639	48.8
617.973	48.81
618.308	48.83
618.642	48.86
618.977	48.86
619.311	48.89
619.646	48.92
619.98	48.95
620.314	48.98
620.648	49.02
620.983	49.05
621.317	49.08
621.651	49.11
621.985	49.13
622.319	49.18
622.653	49.21
622.987	49.22
623.321	49.25
623.655	49.26
623.988	49.29
624.322	49.3
624.656	49.31
624.99	49.33
625.323	49.35
625.657	49.37
625.99	49.39
626.324	49.42
626.657	49.42
626.991	49.44
627.324	49.46
627.658	49.49
627.991	49.51
628.324	49.52
628.657	49.55
628.991	49.56
629.324	49.59
629.657	49.61
629.99	49.63
630.323	49.65
630.656	49.66
630.989	49.68
631.322	49.7
631.655	49.72
631.987	49.74
632.32	49.75
632.653	49.76
632.986	49.76
633.318	49.78
633.651	49.79
633.984	49.81
634.316	49.81
634.649	49.82
634.981	49.83
635.313	49.85
635.646	49.86
635.978	49.87
636.31	49.88
636.643	49.91
636.975	49.92
637.307	49.93
637.639	49.95
637.971	49.98
638.303	49.98
638.635	49.99
638.967	50
639.299	50.01
639.631	50.04
639.963	50.06
640.295	50.09
640.626	50.1
640.958	50.12
641.29	50.15
641.621	50.16
641.953	50.18
642.285	50.18
642.616	50.2
642.948	50.21
643.279	50.23
643.61	50.26
643.942	50.28
644.273	50.31
644.604	50.33
644.936	50.34
645.267	50.37
645.598	50.38
645.929	50.41
646.26	50.44
646.591	50.47
646.922	50.48
647.253	50.49
647.584	50.51
647.915	50.55
648.245	50.57
648.576	50.59
648.907	50.59
649.238	50.61
649.568	50.61
649.899	50.63
650.229	50.66
650.56	50.68
650.89	50.7
651.221	50.71
651.551	50.72
651.882	50.75
652.212	50.76
652.542	50.78
652.872	50.8
653.203	50.83
653.533	50.84
653.863	50.84
654.193	50.86
654.523	50.88
654.853	50.89
655.183	50.9
655.513	50.92
655.843	50.94
656.172	50.94
656.502	50.95
656.832	50.96
657.162	50.97
657.491	50.96
657.821	50.98
658.15	51
658.48	51.02
658.809	51.03
659.139	51.04
659.468	51.04
659.798	51.04
660.127	51.05
660.456	51.06
660.785	51.07
661.115	51.07
661.444	51.08
661.773	51.08
662.102	51.09
662.431	51.1
662.76	51.11
663.089	51.13
663.418	51.13
663.747	51.14
664.076	51.16
664.404	51.17
664.733	51.19
665.062	51.2
665.39	51.21
665.719	51.23
666.048	51.26
666.376	51.27
666.705	51.28
667.033	51.29
667.362	51.33
667.69	51.36
668.018	51.38
668.347	51.39
668.675	51.4
669.003	51.41
669.331	51.44
669.659	51.46
669.987	51.47
670.315	51.49
670.643	51.49
670.971	51.5
671.299	51.52
671.627	51.53
671.955	51.55
672.283	51.56
672.61	51.58
672.938	51.6
673.266	51.62
673.593	51.64
673.921	51.66
674.249	51.68
674.576	51.71
674.904	51.71
675.231	51.74
675.558	51.78
675.886	51.8
676.213	51.81
676.54	51.83
676.867	51.84
677.195	51.85
677.522	51.87
677.849	51.9
678.176	51.91
678.503	51.93
678.83	51.94
679.157	51.95
679.484	51.98
679.81	51.99
680.137	52.01
680.464	52.03
680.791	52.04
681.117	52.03
681.444	52.04
681.771	52.05
682.097	52.06
682.424	52.08
682.75	52.07
683.077	52.1
683.403	52.11
683.729	52.13
684.056	52.14
684.382	52.14
684.708	52.16
685.034	52.18
685.36	52.19
685.686	52.2
686.012	52.21
686.339	52.22
686.664	52.23
686.99	52.25
687.316	52.27
687.642	52.31
687.968	52.33
688.294	52.35
688.619	52.35
688.945	52.36
689.271	52.38
689.596	52.41
689.922	52.43
690.247	52.45
690.573	52.46
690.898	52.48
691.224	52.48
691.549	52.49
691.874	52.51
692.2	52.56
692.525	52.57
692.85	52.59
693.175	52.6
693.5	52.59
693.825	52.59
694.15	52.6
694.475	52.61
694.8	52.61
695.125	52.63
695.45	52.65
695.775	52.66
696.099	52.7
696.424	52.7
696.749	52.74
697.073	52.75
697.398	52.76
697.723	52.8
698.047	52.79
698.372	52.81
698.696	52.82
699.02	52.84
699.345	52.87
699.669	52.88
699.993	52.89
700.318	52.93
700.642	52.92
700.966	52.91
701.29	52.9
701.614	52.9
701.938	52.93
702.262	52.94
702.586	52.95
702.91	52.97
703.234	52.96
703.557	52.96
703.881	52.98
704.205	52.97
704.529	53.01
704.852	53.03
705.176	53.03
705.499	53.02
705.823	53.03
706.146	53.02
706.47	53.07
706.793	53.09
707.117	53.11
707.44	53.13
707.763	53.16
708.086	53.19
708.409	53.2
708.733	53.22
709.056	53.24
709.379	53.22
709.702	53.24
710.025	53.25
710.348	53.24
710.671	53.27
710.993	53.29
711.316	53.31
711.639	53.3
711.962	53.33
712.284	53.35
712.607	53.36
712.93	53.38
713.252	53.4
713.575	53.38
713.897	53.41
714.22	53.43
714.542	53.46
714.864	53.45
715.187	53.46
715.509	53.46
715.831	53.47
716.153	53.47
716.475	53.5
716.798	53.52
717.12	53.53
717.442	53.56
717.764	53.57
718.085	53.58
718.407	53.6
718.729	53.62
719.051	53.64
719.373	53.67
719.695	53.68
720.016	53.7
720.338	53.72
720.659	53.71
720.981	53.74
721.302	53.75
721.624	53.74
721.945	53.74
722.267	53.75
722.588	53.79
722.909	53.79
723.231	53.78
723.552	53.8
723.873	53.8
724.194	53.78
724.515	53.82
724.836	53.85
725.157	53.84
725.478	53.87
725.799	53.89
726.12	53.9
726.441	53.92
726.762	53.97
727.083	53.97
727.403	53.98
727.724	53.98
728.045	54.01
728.365	54.02
728.686	54.03
729.006	54.05
729.327	54.08
729.647	54.08
729.967	54.09
730.288	54.09
730.608	54.08
730.928	54.08
731.249	54.08
731.569	54.09
731.889	54.1
732.209	54.09
732.529	54.08
732.849	54.08
733.169	54.06
733.489	54.08
733.809	54.09
734.129	54.07
734.448	54.08
734.768	54.08
735.088	54.1
735.408	54.12
735.727	54.1
736.047	54.13
736.366	54.14
736.686	54.17
737.005	54.19
737.325	54.21
737.644	54.19
737.963	54.19
738.283	54.19
738.602	54.16
738.921	54.13
739.24	54.14
739.56	54.13
739.879	54.08
740.198	54.06
740.517	54.07
740.836	54.09
741.155	54.09
741.473	54.08
741.792	54.07
742.111	54.05
742.43	54
742.748	54
743.067	54
743.386	54.04
743.704	54.04
744.023	54.08
744.341	54.1
744.66	54.11
744.978	54.11
745.297	54.11
745.615	54.13
745.933	54.11
746.252	54.14
746.57	54.15
746.888	54.18
747.206	54.19
747.524	54.19
747.842	54.24
748.16	54.25
748.478	54.23
748.796	54.25
749.114	54.25
749.432	54.25
749.749	54.25
750.067	54.24
750.385	54.24
750.703	54.24
751.02	54.26
751.338	54.25
751.655	54.27
751.973	54.27
752.29	54.24
752.608	54.26
752.925	54.28
753.242	54.32
753.56	54.33
753.877	54.32
754.194	54.32
754.511	54.36
754.828	54.36
755.145	54.39
755.462	54.42
755.779	54.43
756.096	54.42
756.413	54.4
756.73	54.46
757.047	54.48
757.364	54.48
757.68	54.5
757.997	54.49
758.314	54.53
758.63	54.56
758.947	54.6
759.264	54.62
759.58	54.63
759.896	54.66
760.213	54.71
760.529	54.73
760.846	54.74
761.162	54.75
761.478	54.78
761.794	54.82
762.11	54.84
762.426	54.84
762.743	54.85
763.059	54.84
763.375	54.85
763.69	54.84
764.006	54.85
764.322	54.88
764.638	54.87
764.954	54.88
765.27	54.88
765.585	54.87
765.901	54.89
766.216	54.91
766.532	54.9
766.848	54.9
767.163	54.91
767.478	54.86
767.794	54.87
768.109	54.86
768.424	54.88
768.74	54.91
769.055	54.92
769.37	54.94
769.685	54.87
770	54.83
770.315	54.84
770.63	54.84
770.945	54.83
771.26	54.8
771.575	54.79
771.89	54.81
772.205	54.79
772.52	54.76
772.834	54.75
773.149	54.74
773.464	54.74
773.778	54.69
774.093	54.72
774.407	54.7
774.722	54.66
775.036	54.62
775.351	54.65
775.665	54.65
775.979	54.68
776.293	54.68
776.608	54.68
776.922	54.67
777.236	54.68
777.55	54.68
777.864	54.66
778.178	54.69
778.492	54.72
778.806	54.75
779.12	54.73
779.434	54.77
779.747	54.78
780.061	54.83
780.375	54.89
780.689	54.87
781.002	54.89
781.316	54.91
781.629	54.89
781.943	54.91
782.256	54.91
782.57	54.94
782.883	54.96
783.196	54.94
783.51	54.93
783.823	54.96
784.136	54.96
784.449	54.97
784.762	54.94
785.075	54.92
785.388	54.92
785.701	54.89
786.014	54.9
786.327	54.91
786.64	54.97
786.953	54.94
787.266	54.97
787.578	55.01
787.891	55.02
788.204	55.01
788.516	55.01
788.829	54.99
789.141	55.01
789.454	55.02
789.766	55.06
790.079	55.05
790.391	55.08
790.703	55.12
791.016	55.15
791.328	55.14
791.64	55.11
791.952	55.07
792.264	55
792.576	55.01
792.888	54.97
793.2	54.99
793.512	55.1
793.824	55.12
794.136	55.08
794.448	55.04
794.76	55.1
795.071	55.11
795.383	55.14
795.695	55.17
796.006	55.17
796.318	55.18
796.629	55.22
796.941	55.23
797.252	55.21
797.564	55.24
797.875	55.3
798.186	55.33
798.497	55.29
798.809	55.31
799.12	55.26
799.431	55.28
799.742	55.26
800.053	55.27
800.364	55.29
800.675	55.32
800.986	55.32
801.297	55.3
801.608	55.33
801.918	55.35
802.229	55.4
802.54	55.4
802.851	55.36
803.161	55.35
803.472	55.37
803.782	55.38
804.093	55.4
804.403	55.41
804.714	55.41
805.024	55.48
805.334	55.51
805.645	55.55
805.955	55.55
806.265	55.43
806.575	55.41
806.885	55.42
807.195	55.45
807.505	55.42
807.815	55.46
808.125	55.43
808.435	55.38
808.745	55.39
809.055	55.34
809.365	55.35
809.674	55.37
809.984	55.41
810.294	55.42
810.603	55.43
810.913	55.41
811.222	55.49
811.532	55.48
811.841	55.49
812.151	55.49
812.46	55.52
812.769	55.47
813.079	55.5
813.388	55.44
813.697	55.44
814.006	55.53
814.315	55.51
814.624	55.54
814.933	55.52
815.242	55.47
815.551	55.42
815.86	55.47
816.169	55.5
816.478	55.51
816.786	55.51
817.095	55.52
817.404	55.5
817.712	55.51
818.021	55.52
818.33	55.47
818.638	55.46
818.947	55.46
819.255	55.49
819.563	55.52
819.872	55.5
820.18	55.54
820.488	55.53
820.796	55.55
821.105	55.56
821.413	55.6
821.721	55.64
822.029	55.64
822.337	55.64
822.645	55.63
822.953	55.61
823.26	55.6
823.568	55.63
823.876	55.61
824.184	55.6
824.491	55.6
824.799	55.58
825.107	55.59
825.414	55.6
825.722	55.6
826.029	55.61
826.337	55.62
826.644	55.61
826.951	55.61
827.259	55.59
827.566	55.59
827.873	55.6
828.18	55.62
828.488	55.62
828.795	55.62
829.102	55.63
829.409	55.64
829.716	55.67
830.023	55.68
830.329	55.69
830.636	55.68
830.943	55.7
831.25	55.72
831.557	55.74
831.863	55.75
832.17	55.77
832.476	55.79
832.783	55.75
833.089	55.7
833.396	55.68
833.702	55.68
834.009	55.63
834.315	55.61
834.621	55.6
834.928	55.59
835.234	55.63
835.54	55.66
835.846	55.64
836.152	55.58
836.458	55.58
836.764	55.6
837.07	55.59
837.376	55.56
837.682	55.57
837.988	55.57
838.293	55.5
838.599	55.48
838.905	55.49
839.211	55.48
839.516	55.48
839.822	55.48
840.127	55.47
840.433	55.53
840.738	55.58
841.044	55.59
841.349	55.56
841.654	55.58
841.959	55.58
842.265	55.51
842.57	55.56
842.875	55.54
843.18	55.53
843.485	55.62
843.79	55.55
844.095	55.6
844.4	55.59
844.705	55.6
845.01	55.6
845.315	55.59
845.619	55.71
845.924	55.87
846.229	55.99
846.533	56.12
846.838	56.07
847.142	56.09
847.447	56.19
847.751	56.1
848.056	56.05
848.36	56.12
848.664	56.23
848.969	56.3
849.273	56.33
849.577	56.42
849.881	56.66
850.185	56.66
850.489	56.7
850.794	56.82
851.097	56.86
851.401	56.86
851.705	56.9
852.009	56.99
852.313	57.21
852.617	57.15
852.92	57.08
853.224	57.1
853.528	57.06
853.831	57.05
854.135	56.97
854.438	57.02
854.742	57.01
855.045	57.17
855.349	57.35
855.652	57.41
855.955	57.47
856.259	57.67
856.562	57.63
856.865	57.64
857.168	57.58
857.471	57.61
857.774	57.64
858.077	57.63
858.38	57.55
858.683	57.58
858.986	57.43
859.289	57.45
859.592	57.55
859.894	57.46
860.197	57.51
860.5	57.59
860.802	57.67
861.105	57.73
861.407	57.58
861.71	57.59
862.012	57.73
862.315	57.7
862.617	57.59
862.919	57.71
863.222	57.72
863.524	57.84
863.826	57.81
864.128	57.65
864.43	57.57
864.732	57.25
865.034	57.29
865.336	57.22
865.638	57.19
865.94	57.16
866.242	57.32
866.544	57.17
866.846	57.21
867.147	57.08
867.449	57.04
867.751	57
868.052	56.99
868.354	57.06
868.655	56.96
868.957	56.97
869.258	57.01
869.56	57.03
869.861	57.13
870.162	57.15
870.463	57.27
870.765	57.17
871.066	57.01
871.367	57.01
871.668	57.13
871.969	56.99
872.27	57.08
872.571	57.12
872.872	57.16
873.173	57.15
873.473	57.06
873.774	57.21
874.075	57.17
874.376	57.08
874.676	57.04
874.977	57.08
875.277	56.9
875.578	56.95
875.878	56.92
876.179	56.94
876.479	57.04
876.78	57.14
877.08	57.35
877.38	57.52
877.68	57.63
877.981	57.54
878.281	57.6
878.581	57.46
