Data from UWBM12228_Reflection_00004.txt Node
Date: Sun May 02 12:52:53 EDT 2021
User: vgr7
Spectrometer: USB2G7710
Scans to average: 10
Trigger mode: 4
Integration Time (sec): 1.000000E-1
Electric dark correction enabled: true
Boxcar width: 20
XAxis mode: Wavelengths
Number of Pixels in Spectrum: 2048
>>>>>Begin Spectral Data<<<<<
177.721	100.68
178.105	101.2
178.488	99.63
178.871	99.73
179.254	99.84
179.636	96.18
180.019	93.07
180.402	90.77
180.785	88.03
181.168	84.53
181.55	82.53
181.933	116.32
182.316	117.23
182.698	119
183.081	121.16
183.463	122.32
183.846	125.08
184.228	125.69
184.611	126.11
184.993	129.9
185.376	132.77
185.758	-129.92
186.14	-61.46
186.522	-24.29
186.904	-9.4
187.287	2
187.669	7.27
188.051	6.99
188.433	11.2
188.815	6.39
189.197	6.07
189.579	9.68
189.961	12.1
190.342	8.11
190.724	9.24
191.106	8.54
191.488	9.39
191.869	5.24
192.251	5.3
192.633	1.43
193.014	-0.99
193.396	-1.3
193.777	4.87
194.159	6.92
194.54	4.98
194.922	4.82
195.303	9.78
195.684	12.85
196.065	14.47
196.447	14.23
196.828	14.55
197.209	13.18
197.59	4.22
197.971	3.53
198.352	4.92
198.733	8.82
199.114	8.11
199.495	7.7
199.876	7.34
200.257	5.7
200.638	5.78
201.018	0.69
201.399	0.92
201.78	-3.46
202.16	-4.55
202.541	-3.93
202.922	-4.27
203.302	-7.97
203.683	-8.05
204.063	-9.59
204.444	-8.91
204.824	-5.95
205.204	-3.9
205.585	4.43
205.965	4.36
206.345	4.75
206.725	-1.96
207.106	-2.08
207.486	-2.55
207.866	-0.97
208.246	-1.01
208.626	2.73
209.006	6.62
209.386	2.76
209.766	2.6
210.145	1.43
210.525	0.08
210.905	0.55
211.285	0.28
211.664	-1.19
212.044	0.16
212.424	0.32
212.803	-4.26
213.183	-2.45
213.562	-1.06
213.942	-1.93
214.321	-5.2
214.701	-6.03
215.08	-3.35
215.459	-4.78
215.838	-5.85
216.218	-5.27
216.597	-6.27
216.976	-10.31
217.355	-8.24
217.734	-8.37
218.113	-8.44
218.492	-6.35
218.871	-5.49
219.25	-5.63
219.629	-6.34
220.008	-5.22
220.387	-4.45
220.766	-3.52
221.144	-5.01
221.523	-2.6
221.902	-1.55
222.28	0.86
222.659	1.96
223.037	1.96
223.416	2.44
223.794	3.72
224.173	2.83
224.551	3.1
224.929	3.41
225.308	4.38
225.686	4.4
226.064	4.93
226.442	4.56
226.821	4.45
227.199	3.84
227.577	3.27
227.955	2.52
228.333	2.48
228.711	2.56
229.089	2.56
229.467	2.2
229.845	3.19
230.222	3.33
230.6	3.79
230.978	4.39
231.356	4.09
231.733	4.33
232.111	4.22
232.488	4.16
232.866	4.12
233.243	3.97
233.621	4.38
233.998	4.1
234.376	4.18
234.753	4.34
235.13	4.59
235.508	5.13
235.885	5.21
236.262	5.12
236.639	5.26
237.016	5.19
237.393	5.17
237.77	4.96
238.147	4.89
238.524	4.98
238.901	5.01
239.278	5.06
239.655	5.08
240.032	4.99
240.409	5
240.785	4.97
241.162	5.01
241.539	4.97
241.915	4.98
242.292	4.97
242.668	4.91
243.045	4.92
243.421	4.86
243.798	4.85
244.174	4.86
244.551	4.82
244.927	4.67
245.303	4.59
245.679	4.62
246.056	4.55
246.432	4.5
246.808	4.28
247.184	4.26
247.56	4.24
247.936	4.26
248.312	4.26
248.688	4.33
249.064	4.29
249.44	4.29
249.815	4.29
250.191	4.25
250.567	4.23
250.943	4.3
251.318	4.3
251.694	4.23
252.069	4.2
252.445	4.19
252.82	4.28
253.196	4.29
253.571	4.27
253.947	4.35
254.322	4.29
254.697	4.41
255.073	4.37
255.448	4.36
255.823	4.33
256.198	4.27
256.573	4.1
256.948	4.09
257.323	4.09
257.698	4.05
258.073	4.07
258.448	3.95
258.823	3.93
259.198	3.91
259.573	3.92
259.948	3.94
260.322	3.92
260.697	3.92
261.072	3.92
261.446	3.89
261.821	3.87
262.195	3.86
262.57	3.85
262.944	3.84
263.319	3.82
263.693	3.85
264.067	3.85
264.442	3.96
264.816	3.94
265.19	3.92
265.564	3.96
265.938	3.92
266.313	3.96
266.687	3.91
267.061	3.91
267.435	3.9
267.809	3.89
268.183	3.86
268.556	3.87
268.93	3.86
269.304	3.82
269.678	3.8
270.051	3.77
270.425	3.77
270.799	3.78
271.172	3.78
271.546	3.79
271.919	3.8
272.293	3.77
272.666	3.77
273.04	3.76
273.413	3.69
273.787	3.67
274.16	3.68
274.533	3.72
274.906	3.7
275.279	3.73
275.653	3.71
276.026	3.69
276.399	3.65
276.772	3.68
277.145	3.7
277.518	3.72
277.891	3.73
278.263	3.75
278.636	3.76
279.009	3.76
279.382	3.74
279.755	3.68
280.127	3.7
280.5	3.69
280.872	3.68
281.245	3.79
281.617	3.79
281.99	3.82
282.362	3.85
282.735	3.83
283.107	3.83
283.479	3.83
283.852	3.85
284.224	3.86
284.596	3.84
284.968	3.74
285.34	3.73
285.713	3.7
286.085	3.63
286.457	3.63
286.829	3.59
287.201	3.59
287.572	3.64
287.944	3.66
288.316	3.71
288.688	3.74
289.06	3.74
289.431	3.75
289.803	3.74
290.175	3.75
290.546	3.76
290.918	3.77
291.289	3.75
291.661	3.77
292.032	3.71
292.403	3.73
292.775	3.81
293.146	3.81
293.517	3.82
293.889	3.88
294.26	3.87
294.631	3.89
295.002	3.94
295.373	3.97
295.744	3.97
296.115	3.96
296.486	3.91
296.857	3.91
297.228	3.9
297.599	3.89
297.97	3.88
298.34	3.9
298.711	3.86
299.082	3.85
299.452	3.89
299.823	3.91
300.194	3.93
300.564	3.93
300.935	3.94
301.305	3.92
301.676	3.89
302.046	3.91
302.416	3.92
302.787	3.93
303.157	3.85
303.527	3.85
303.897	3.86
304.267	3.87
304.637	3.87
305.008	3.88
305.378	3.88
305.748	3.87
306.117	3.92
306.487	3.97
306.857	4.01
307.227	4
307.597	3.99
307.967	3.98
308.336	3.98
308.706	4
309.076	4
309.445	4
309.815	3.88
310.184	3.85
310.554	3.8
310.923	3.83
311.293	3.85
311.662	3.83
312.031	3.82
312.401	3.83
312.77	3.81
313.139	3.82
313.508	3.83
313.877	3.77
314.246	3.77
314.616	3.73
314.985	3.69
315.353	3.7
315.722	3.7
316.091	3.7
316.46	3.71
316.829	3.74
317.198	3.75
317.567	3.86
317.935	3.86
318.304	3.9
318.672	3.91
319.041	3.91
319.41	3.92
319.778	3.94
320.147	3.96
320.515	3.96
320.883	3.95
321.252	3.9
321.62	3.93
321.988	3.93
322.357	3.93
322.725	4
323.093	4.01
323.461	4
323.829	3.99
324.197	3.98
324.565	3.97
324.933	3.97
325.301	3.96
325.669	3.97
326.037	3.95
326.405	3.92
326.772	3.91
327.14	3.91
327.508	3.9
327.875	3.9
328.243	3.89
328.61	3.85
328.978	3.86
329.346	3.85
329.713	3.83
330.08	3.82
330.448	3.81
330.815	3.79
331.182	3.79
331.55	3.8
331.917	3.81
332.284	3.81
332.651	3.82
333.018	3.81
333.385	3.82
333.752	3.82
334.119	3.82
334.486	3.82
334.853	3.79
335.22	3.78
335.587	3.77
335.954	3.77
336.32	3.78
336.687	3.78
337.054	3.77
337.42	3.79
337.787	3.78
338.153	3.79
338.52	3.83
338.886	3.86
339.253	3.85
339.619	3.84
339.986	3.82
340.352	3.81
340.718	3.81
341.084	3.8
341.451	3.79
341.817	3.78
342.183	3.77
342.549	3.79
342.915	3.79
343.281	3.81
343.647	3.81
344.013	3.83
344.379	3.84
344.745	3.85
345.11	3.84
345.476	3.85
345.842	3.85
346.208	3.83
346.573	3.81
346.939	3.83
347.304	3.82
347.67	3.81
348.035	3.83
348.401	3.81
348.766	3.83
349.132	3.84
349.497	3.86
349.862	3.88
350.228	3.89
350.593	3.9
350.958	3.88
351.323	3.87
351.688	3.87
352.053	3.87
352.418	3.86
352.783	3.86
353.148	3.85
353.513	3.84
353.878	3.84
354.243	3.83
354.608	3.83
354.972	3.83
355.337	3.83
355.702	3.82
356.066	3.84
356.431	3.82
356.795	3.82
357.16	3.8
357.524	3.79
357.889	3.78
358.253	3.78
358.618	3.78
358.982	3.8
359.346	3.8
359.71	3.79
360.075	3.79
360.439	3.8
360.803	3.79
361.167	3.79
361.531	3.81
361.895	3.8
362.259	3.8
362.623	3.8
362.987	3.8
363.351	3.8
363.714	3.8
364.078	3.79
364.442	3.79
364.806	3.8
365.169	3.79
365.533	3.77
365.896	3.77
366.26	3.77
366.623	3.77
366.987	3.76
367.35	3.76
367.714	3.77
368.077	3.76
368.44	3.76
368.803	3.76
369.167	3.76
369.53	3.76
369.893	3.77
370.256	3.78
370.619	3.79
370.982	3.79
371.345	3.79
371.708	3.79
372.071	3.8
372.434	3.8
372.797	3.82
373.159	3.83
373.522	3.83
373.885	3.82
374.247	3.81
374.61	3.81
374.973	3.8
375.335	3.8
375.698	3.8
376.06	3.8
376.423	3.8
376.785	3.81
377.147	3.8
377.51	3.81
377.872	3.8
378.234	3.81
378.596	3.82
378.958	3.84
379.321	3.84
379.683	3.84
380.045	3.84
380.407	3.84
380.769	3.85
381.13	3.86
381.492	3.86
381.854	3.86
382.216	3.86
382.578	3.87
382.939	3.88
383.301	3.88
383.663	3.88
384.024	3.89
384.386	3.89
384.747	3.89
385.109	3.88
385.47	3.88
385.832	3.89
386.193	3.88
386.554	3.88
386.916	3.88
387.277	3.89
387.638	3.9
387.999	3.91
388.36	3.91
388.721	3.91
389.082	3.91
389.443	3.92
389.804	3.92
390.165	3.93
390.526	3.93
390.887	3.93
391.248	3.92
391.609	3.93
391.969	3.93
392.33	3.94
392.691	3.94
393.051	3.94
393.412	3.94
393.772	3.94
394.133	3.95
394.493	3.94
394.854	3.95
395.214	3.95
395.574	3.95
395.935	3.95
396.295	3.94
396.655	3.95
397.015	3.95
397.376	3.95
397.736	3.96
398.096	3.95
398.456	3.96
398.816	3.97
399.176	3.96
399.535	3.97
399.895	3.98
400.255	3.98
400.615	3.98
400.975	3.99
401.334	3.99
401.694	3.99
402.054	3.99
402.413	3.97
402.773	3.97
403.132	3.99
403.492	3.98
403.851	3.99
404.211	3.99
404.57	4
404.929	4.01
405.288	4.01
405.648	4.01
406.007	4.01
406.366	4.03
406.725	4.03
407.084	4.03
407.443	4.04
407.802	4.03
408.161	4.02
408.52	4.02
408.879	4.03
409.238	4.03
409.596	4.03
409.955	4.04
410.314	4.04
410.673	4.04
411.031	4.05
411.39	4.06
411.748	4.07
412.107	4.08
412.465	4.09
412.824	4.12
413.182	4.13
413.54	4.15
413.899	4.17
414.257	4.2
414.615	4.24
414.974	4.27
415.332	4.32
415.69	4.36
416.048	4.39
416.406	4.43
416.764	4.46
417.122	4.49
417.48	4.53
417.838	4.56
418.195	4.59
418.553	4.6
418.911	4.62
419.269	4.62
419.626	4.62
419.984	4.62
420.342	4.6
420.699	4.59
421.057	4.57
421.414	4.56
421.772	4.54
422.129	4.54
422.486	4.54
422.844	4.54
423.201	4.54
423.558	4.54
423.915	4.53
424.273	4.53
424.63	4.53
424.987	4.53
425.344	4.53
425.701	4.53
426.058	4.53
426.415	4.53
426.772	4.53
427.128	4.53
427.485	4.52
427.842	4.51
428.199	4.5
428.555	4.49
428.912	4.47
429.269	4.45
429.625	4.43
429.982	4.4
430.338	4.38
430.695	4.36
431.051	4.32
431.407	4.3
431.764	4.29
432.12	4.26
432.476	4.25
432.832	4.24
433.189	4.25
433.545	4.26
433.901	4.27
434.257	4.29
434.613	4.32
434.969	4.34
435.325	4.37
435.681	4.41
436.036	4.42
436.392	4.45
436.748	4.45
437.104	4.46
437.459	4.47
437.815	4.49
438.171	4.51
438.526	4.53
438.882	4.56
439.237	4.6
439.593	4.63
439.948	4.66
440.304	4.7
440.659	4.72
441.014	4.74
441.369	4.77
441.725	4.78
442.08	4.8
442.435	4.82
442.79	4.82
443.145	4.82
443.5	4.83
443.855	4.82
444.21	4.82
444.565	4.82
444.92	4.8
445.275	4.79
445.629	4.79
445.984	4.78
446.339	4.78
446.693	4.77
447.048	4.76
447.403	4.74
447.757	4.72
448.112	4.7
448.466	4.68
448.82	4.67
449.175	4.65
449.529	4.64
449.883	4.63
450.238	4.6
450.592	4.6
450.946	4.59
451.3	4.59
451.654	4.6
452.008	4.61
452.362	4.62
452.716	4.62
453.07	4.62
453.424	4.62
453.778	4.61
454.132	4.6
454.486	4.59
454.839	4.57
455.193	4.55
455.547	4.54
455.9	4.5
456.254	4.48
456.607	4.45
456.961	4.42
457.314	4.41
457.668	4.4
458.021	4.39
458.375	4.39
458.728	4.39
459.081	4.39
459.434	4.4
459.787	4.41
460.141	4.42
460.494	4.42
460.847	4.43
461.2	4.43
461.553	4.44
461.906	4.45
462.259	4.45
462.611	4.45
462.964	4.46
463.317	4.46
463.67	4.46
464.022	4.45
464.375	4.45
464.728	4.45
465.08	4.45
465.433	4.46
465.785	4.45
466.138	4.43
466.49	4.42
466.843	4.4
467.195	4.37
467.547	4.35
467.899	4.33
468.252	4.3
468.604	4.27
468.956	4.25
469.308	4.23
469.66	4.23
470.012	4.22
470.364	4.23
470.716	4.23
471.068	4.25
471.42	4.27
471.772	4.29
472.123	4.3
472.475	4.32
472.827	4.32
473.178	4.33
473.53	4.34
473.882	4.35
474.233	4.37
474.585	4.41
474.936	4.48
475.288	4.57
475.639	4.69
475.99	4.83
476.342	4.99
476.693	5.16
477.044	5.33
477.395	5.5
477.746	5.69
478.097	5.87
478.448	6.05
478.8	6.23
479.15	6.4
479.501	6.55
479.852	6.69
480.203	6.82
480.554	6.94
480.905	7.07
481.255	7.18
481.606	7.3
481.957	7.39
482.307	7.49
482.658	7.59
483.009	7.68
483.359	7.76
483.709	7.84
484.06	7.92
484.41	8
484.761	8.08
485.111	8.15
485.461	8.22
485.811	8.28
486.162	8.34
486.512	8.39
486.862	8.43
487.212	8.46
487.562	8.48
487.912	8.49
488.262	8.49
488.612	8.49
488.961	8.47
489.311	8.43
489.661	8.35
490.011	8.26
490.36	8.14
490.71	8.01
491.06	7.86
491.409	7.71
491.759	7.56
492.108	7.4
492.458	7.23
492.807	7.06
493.157	6.88
493.506	6.71
493.855	6.55
494.204	6.4
494.554	6.27
494.903	6.14
495.252	6.01
495.601	5.89
495.95	5.77
496.299	5.66
496.648	5.56
496.997	5.46
497.346	5.36
497.695	5.27
498.043	5.19
498.392	5.1
498.741	5.02
499.09	4.94
499.438	4.86
499.787	4.79
500.135	4.72
500.484	4.65
500.832	4.61
501.181	4.56
501.529	4.53
501.878	4.51
502.226	4.5
502.574	4.49
502.923	4.48
503.271	4.48
503.619	4.49
503.967	4.48
504.315	4.48
504.663	4.48
505.011	4.47
505.359	4.47
505.707	4.46
506.055	4.46
506.403	4.46
506.751	4.46
507.098	4.46
507.446	4.47
507.794	4.49
508.141	4.5
508.489	4.52
508.837	4.53
509.184	4.54
509.531	4.56
509.879	4.57
510.226	4.58
510.574	4.59
510.921	4.6
511.268	4.62
511.616	4.63
511.963	4.65
512.31	4.67
512.657	4.69
513.004	4.71
513.351	4.72
513.698	4.73
514.045	4.73
514.392	4.74
514.739	4.74
515.086	4.74
515.432	4.74
515.779	4.74
516.126	4.74
516.473	4.75
516.819	4.75
517.166	4.76
517.512	4.77
517.859	4.78
518.205	4.8
518.552	4.83
518.898	4.86
519.245	4.9
519.591	4.96
519.937	5.03
520.283	5.12
520.629	5.23
520.976	5.34
521.322	5.47
521.668	5.59
522.014	5.7
522.36	5.82
522.706	5.93
523.052	6.05
523.398	6.15
523.743	6.25
524.089	6.33
524.435	6.4
524.781	6.47
525.126	6.53
525.472	6.59
525.817	6.64
526.163	6.7
526.509	6.75
526.854	6.8
527.199	6.84
527.545	6.89
527.89	6.94
528.235	6.99
528.581	7.04
528.926	7.08
529.271	7.13
529.616	7.16
529.961	7.19
530.306	7.2
530.651	7.23
530.996	7.25
531.341	7.26
531.686	7.26
532.031	7.26
532.376	7.26
532.721	7.26
533.065	7.26
533.41	7.27
533.755	7.26
534.099	7.22
534.444	7.19
534.788	7.15
535.133	7.11
535.477	7.06
535.822	7.01
536.166	6.95
536.51	6.88
536.855	6.8
537.199	6.71
537.543	6.63
537.887	6.56
538.231	6.49
538.576	6.43
538.92	6.37
539.264	6.31
539.608	6.25
539.951	6.19
540.295	6.13
540.639	6.06
540.983	5.99
541.327	5.94
541.671	5.88
542.014	5.82
542.358	5.76
542.701	5.72
543.045	5.69
543.389	5.66
543.732	5.64
544.075	5.63
544.419	5.61
544.762	5.58
545.105	5.57
545.449	5.57
545.792	5.56
546.135	5.56
546.478	5.54
546.821	5.52
547.165	5.49
547.508	5.44
547.851	5.4
548.194	5.34
548.536	5.28
548.879	5.21
549.222	5.14
549.565	5.06
549.908	4.99
550.25	4.93
550.593	4.87
550.936	4.82
551.278	4.78
551.621	4.75
551.963	4.73
552.306	4.71
552.648	4.69
552.991	4.67
553.333	4.65
553.675	4.64
554.017	4.64
554.36	4.65
554.702	4.66
555.044	4.67
555.386	4.68
555.728	4.69
556.07	4.7
556.412	4.71
556.754	4.7
557.096	4.7
557.438	4.71
557.78	4.71
558.121	4.71
558.463	4.71
558.805	4.71
559.147	4.71
559.488	4.71
559.83	4.72
560.171	4.72
560.513	4.72
560.854	4.72
561.196	4.72
561.537	4.72
561.878	4.72
562.22	4.72
562.561	4.72
562.902	4.72
563.243	4.73
563.584	4.73
563.925	4.73
564.266	4.73
564.607	4.73
564.948	4.73
565.289	4.74
565.63	4.74
565.971	4.75
566.312	4.75
566.653	4.75
566.993	4.74
567.334	4.75
567.675	4.75
568.015	4.77
568.356	4.77
568.696	4.77
569.037	4.78
569.377	4.78
569.718	4.78
570.058	4.78
570.398	4.78
570.739	4.78
571.079	4.78
571.419	4.77
571.759	4.78
572.099	4.78
572.439	4.78
572.779	4.78
573.119	4.78
573.459	4.78
573.799	4.78
574.139	4.78
574.479	4.78
574.819	4.78
575.158	4.77
575.498	4.77
575.838	4.77
576.177	4.77
576.517	4.77
576.856	4.77
577.196	4.77
577.535	4.77
577.875	4.77
578.214	4.77
578.553	4.77
578.893	4.76
579.232	4.76
579.571	4.76
579.91	4.75
580.25	4.75
580.589	4.75
580.928	4.74
581.267	4.74
581.606	4.73
581.945	4.72
582.283	4.72
582.622	4.72
582.961	4.72
583.3	4.72
583.639	4.72
583.977	4.73
584.316	4.72
584.654	4.73
584.993	4.73
585.332	4.72
585.67	4.72
586.008	4.71
586.347	4.7
586.685	4.71
587.024	4.71
587.362	4.71
587.7	4.72
588.038	4.72
588.376	4.72
588.715	4.72
589.053	4.73
589.391	4.73
589.729	4.72
590.067	4.72
590.404	4.72
590.742	4.72
591.08	4.72
591.418	4.73
591.756	4.73
592.093	4.74
592.431	4.75
592.769	4.75
593.106	4.76
593.444	4.76
593.781	4.76
594.119	4.76
594.456	4.76
594.793	4.76
595.131	4.76
595.468	4.77
595.805	4.76
596.143	4.77
596.48	4.77
596.817	4.77
597.154	4.77
597.491	4.78
597.828	4.78
598.165	4.78
598.502	4.78
598.839	4.78
599.176	4.78
599.512	4.79
599.849	4.79
600.186	4.8
600.523	4.8
600.859	4.8
601.196	4.81
601.532	4.81
601.869	4.81
602.205	4.81
602.542	4.81
602.878	4.81
603.215	4.8
603.551	4.8
603.887	4.8
604.223	4.81
604.56	4.81
604.896	4.81
605.232	4.81
605.568	4.81
605.904	4.81
606.24	4.81
606.576	4.82
606.912	4.82
607.248	4.81
607.583	4.82
607.919	4.81
608.255	4.81
608.591	4.81
608.926	4.82
609.262	4.81
609.597	4.81
609.933	4.81
610.268	4.83
610.604	4.83
610.939	4.83
611.275	4.83
611.61	4.82
611.945	4.82
612.281	4.82
612.616	4.82
612.951	4.81
613.286	4.81
613.621	4.8
613.956	4.79
614.291	4.8
614.626	4.79
614.961	4.79
615.296	4.8
615.631	4.8
615.966	4.8
616.3	4.8
616.635	4.8
616.97	4.8
617.304	4.79
617.639	4.79
617.973	4.79
618.308	4.79
618.642	4.78
618.977	4.77
619.311	4.77
619.646	4.77
619.98	4.79
620.314	4.78
620.648	4.79
620.983	4.79
621.317	4.78
621.651	4.79
621.985	4.79
622.319	4.79
622.653	4.79
622.987	4.79
623.321	4.79
623.655	4.79
623.988	4.8
624.322	4.8
624.656	4.8
624.99	4.8
625.323	4.81
625.657	4.8
625.99	4.82
626.324	4.82
626.657	4.83
626.991	4.82
627.324	4.82
627.658	4.83
627.991	4.82
628.324	4.83
628.657	4.83
628.991	4.83
629.324	4.83
629.657	4.84
629.99	4.84
630.323	4.85
630.656	4.85
630.989	4.85
631.322	4.86
631.655	4.85
631.987	4.85
632.32	4.85
632.653	4.85
632.986	4.86
633.318	4.85
633.651	4.85
633.984	4.85
634.316	4.86
634.649	4.86
634.981	4.87
635.313	4.86
635.646	4.86
635.978	4.86
636.31	4.85
636.643	4.85
636.975	4.85
637.307	4.85
637.639	4.84
637.971	4.85
638.303	4.86
638.635	4.86
638.967	4.85
639.299	4.85
639.631	4.86
639.963	4.86
640.295	4.86
640.626	4.88
640.958	4.89
641.29	4.88
641.621	4.88
641.953	4.89
642.285	4.89
642.616	4.9
642.948	4.9
643.279	4.91
643.61	4.91
643.942	4.9
644.273	4.91
644.604	4.9
644.936	4.9
645.267	4.91
645.598	4.91
645.929	4.91
646.26	4.91
646.591	4.91
646.922	4.91
647.253	4.92
647.584	4.9
647.915	4.91
648.245	4.92
648.576	4.92
648.907	4.91
649.238	4.91
649.568	4.9
649.899	4.9
650.229	4.92
650.56	4.92
650.89	4.93
651.221	4.92
651.551	4.93
651.882	4.94
652.212	4.93
652.542	4.92
652.872	4.93
653.203	4.94
653.533	4.93
653.863	4.93
654.193	4.92
654.523	4.92
654.853	4.92
655.183	4.92
655.513	4.92
655.843	4.92
656.172	4.92
656.502	4.92
656.832	4.91
657.162	4.92
657.491	4.92
657.821	4.92
658.15	4.92
658.48	4.92
658.809	4.92
659.139	4.93
659.468	4.94
659.798	4.94
660.127	4.94
660.456	4.97
660.785	4.98
661.115	5
661.444	4.99
661.773	5
662.102	5.01
662.431	5.01
662.76	5.01
663.089	5.01
663.418	5.01
663.747	5.01
664.076	5.01
664.404	5.02
664.733	5.03
665.062	5.05
665.39	5.06
665.719	5.05
666.048	5.06
666.376	5.06
666.705	5.04
667.033	5.04
667.362	5.03
667.69	5.04
668.018	5.04
668.347	5.05
668.675	5.03
669.003	5.04
669.331	5.03
669.659	5.03
669.987	5.04
670.315	5.05
670.643	5.06
670.971	5.06
671.299	5.05
671.627	5.05
671.955	5.04
672.283	5.03
672.61	5.04
672.938	5.05
673.266	5.05
673.593	5.05
673.921	5.05
674.249	5.05
674.576	5.05
674.904	5.06
675.231	5.07
675.558	5.09
675.886	5.1
676.213	5.09
676.54	5.1
676.867	5.11
677.195	5.11
677.522	5.11
677.849	5.12
678.176	5.13
678.503	5.14
678.83	5.15
679.157	5.15
679.484	5.14
679.81	5.13
680.137	5.12
680.464	5.13
680.791	5.14
681.117	5.13
681.444	5.12
681.771	5.12
682.097	5.12
682.424	5.12
682.75	5.11
683.077	5.12
683.403	5.12
683.729	5.11
684.056	5.12
684.382	5.11
684.708	5.11
685.034	5.12
685.36	5.12
685.686	5.13
686.012	5.15
686.339	5.17
686.664	5.18
686.99	5.18
687.316	5.2
687.642	5.22
687.968	5.24
688.294	5.25
688.619	5.25
688.945	5.26
689.271	5.27
689.596	5.28
689.922	5.3
690.247	5.31
690.573	5.32
690.898	5.35
691.224	5.36
691.549	5.35
691.874	5.33
692.2	5.34
692.525	5.35
692.85	5.33
693.175	5.34
693.5	5.37
693.825	5.36
694.15	5.36
694.475	5.36
694.8	5.36
695.125	5.37
695.45	5.39
695.775	5.39
696.099	5.39
696.424	5.4
696.749	5.39
697.073	5.41
697.398	5.39
697.723	5.4
698.047	5.4
698.372	5.4
698.696	5.39
699.02	5.39
699.345	5.38
699.669	5.39
699.993	5.38
700.318	5.37
700.642	5.37
700.966	5.37
701.29	5.37
701.614	5.37
701.938	5.36
702.262	5.36
702.586	5.36
702.91	5.36
703.234	5.38
703.557	5.36
703.881	5.36
704.205	5.38
704.529	5.39
704.852	5.38
705.176	5.4
705.499	5.42
705.823	5.42
706.146	5.43
706.47	5.44
706.793	5.45
707.117	5.57
707.44	5.58
707.763	5.55
708.086	5.56
708.409	5.54
708.733	5.55
709.056	5.54
709.379	5.55
709.702	5.58
710.025	5.59
710.348	5.43
710.671	5.44
710.993	5.44
711.316	5.42
711.639	5.45
711.962	5.45
712.284	5.46
712.607	5.47
712.93	5.48
713.252	5.5
713.575	5.48
713.897	5.47
714.22	5.46
714.542	5.5
714.864	5.55
715.187	5.58
715.509	5.58
715.831	5.58
716.153	5.59
716.475	5.56
716.798	5.56
717.12	5.73
717.442	5.74
717.764	5.73
718.085	5.65
718.407	5.65
718.729	5.64
719.051	5.66
719.373	5.67
719.695	5.68
720.016	5.64
720.338	5.57
720.659	5.59
720.981	5.61
721.302	5.61
721.624	5.63
721.945	5.61
722.267	5.62
722.588	5.62
722.909	5.62
723.231	5.65
723.552	5.66
723.873	5.68
724.194	5.67
724.515	5.7
724.836	5.82
725.157	5.81
725.478	5.82
725.799	5.84
726.12	5.84
726.441	5.83
726.762	5.85
727.083	5.84
727.403	5.85
727.724	5.83
728.045	5.76
728.365	5.78
728.686	5.83
729.006	5.84
729.327	5.84
729.647	5.85
729.967	5.84
730.288	5.86
730.608	5.86
730.928	5.88
731.249	5.88
731.569	5.9
731.889	5.89
732.209	5.9
732.529	5.89
732.849	5.89
733.169	5.92
733.489	5.92
733.809	5.92
734.129	5.93
734.448	5.96
734.768	5.93
735.088	5.94
735.408	5.93
735.727	5.93
736.047	5.96
736.366	5.97
736.686	5.98
737.005	5.97
737.325	5.95
737.644	5.96
737.963	5.96
738.283	5.98
738.602	5.98
738.921	5.98
739.24	5.97
739.56	5.98
739.879	5.97
740.198	5.99
740.517	5.99
740.836	5.98
741.155	5.97
741.473	6.01
741.792	6
742.111	6.03
742.43	6.03
742.748	6
743.067	5.98
743.386	6
743.704	6
744.023	6.03
744.341	6.03
744.66	6.03
744.978	5.98
745.297	5.97
745.615	5.97
745.933	5.99
746.252	5.99
746.57	5.91
746.888	5.92
747.206	5.92
747.524	5.89
747.842	5.92
748.16	5.93
748.478	5.93
748.796	5.89
749.114	5.85
749.432	5.84
749.749	5.86
750.067	5.87
750.385	5.89
750.703	5.86
751.02	5.83
751.338	5.82
751.655	5.9
751.973	5.9
752.29	5.92
752.608	5.98
752.925	6.01
753.242	6.1
753.56	6.14
753.877	6.12
754.194	6.17
754.511	6.16
754.828	6.13
755.145	6.17
755.462	6.2
755.779	6.22
756.096	6.26
756.413	6.26
756.73	6.22
757.047	6.22
757.364	6.22
757.68	6.25
757.997	6.24
758.314	6.25
758.63	6.27
758.947	6.3
759.264	6.28
759.58	6.29
759.896	6.27
760.213	6.3
760.529	6.3
760.846	6.26
761.162	6.27
761.478	6.27
761.794	6.27
762.11	6.29
762.426	6.32
762.743	6.32
763.059	6.4
763.375	6.44
763.69	6.47
764.006	6.49
764.322	6.51
764.638	6.5
764.954	6.51
765.27	6.52
765.585	6.5
765.901	6.51
766.216	6.34
766.532	6.31
766.848	6.3
767.163	6.32
767.478	6.36
767.794	6.39
768.109	6.39
768.424	6.39
768.74	6.41
769.055	6.4
769.37	6.43
769.685	6.44
770	6.46
770.315	6.48
770.63	6.39
770.945	6.34
771.26	6.34
771.575	6.31
771.89	6.3
772.205	6.34
772.52	6.3
772.834	6.51
773.149	6.56
773.464	6.51
773.778	6.53
774.093	6.56
774.407	6.58
774.722	6.58
775.036	6.52
775.351	6.48
775.665	6.43
775.979	6.26
776.293	6.2
776.608	6.19
776.922	6.18
777.236	6.26
777.55	6.36
777.864	6.4
778.178	6.42
778.492	6.38
778.806	6.35
779.12	6.43
779.434	6.45
779.747	6.4
780.061	6.54
780.375	6.49
780.689	6.4
781.002	6.42
781.316	6.42
781.629	6.46
781.943	6.54
782.256	6.58
782.57	6.63
782.883	6.59
783.196	6.58
783.51	6.63
783.823	6.68
784.136	6.62
784.449	6.7
784.762	6.66
785.075	6.74
785.388	6.73
785.701	6.68
786.014	6.63
786.327	6.7
786.64	6.65
786.953	6.66
787.266	6.72
787.578	6.71
787.891	6.78
788.204	6.75
788.516	6.79
788.829	6.86
789.141	6.86
789.454	6.87
789.766	6.88
790.079	6.87
790.391	6.85
790.703	6.94
791.016	6.85
791.328	6.86
791.64	6.86
791.952	6.86
792.264	6.86
792.576	6.91
792.888	6.9
793.2	6.89
793.512	6.95
793.824	6.85
794.136	6.84
794.448	6.89
794.76	6.91
795.071	6.94
795.383	6.91
795.695	7.08
796.006	7.15
796.318	7.16
796.629	7.17
796.941	7.2
797.252	7.19
797.564	7.28
797.875	7.18
798.186	7.14
798.497	7.17
798.809	7.06
799.12	7.01
799.431	7.03
799.742	7.03
800.053	6.97
800.364	7.05
800.675	7.1
800.986	7.13
801.297	7.21
801.608	7.19
801.918	7.19
802.229	7.22
802.54	7.19
802.851	7.17
803.161	7.17
803.472	7.19
803.782	7.11
804.093	7.15
804.403	7.05
804.714	7.18
805.024	7.2
805.334	7.28
805.645	7.31
805.955	7.4
806.265	7.32
806.575	7.41
806.885	7.34
807.195	7.35
807.505	7.31
807.815	7.22
808.125	7.28
808.435	7.23
808.745	7.21
809.055	7.21
809.365	7.32
809.674	7.32
809.984	7.35
810.294	7.35
810.603	7.42
810.913	7.6
811.222	7.52
811.532	7.56
811.841	7.62
812.151	7.7
812.46	7.67
812.769	7.73
813.079	7.74
813.388	7.72
813.697	7.72
814.006	7.64
814.315	7.69
814.624	7.69
814.933	7.65
815.242	7.6
815.551	7.69
815.86	7.59
816.169	7.55
816.478	7.52
816.786	7.48
817.095	7.5
817.404	7.48
817.712	7.49
818.021	7.45
818.33	7.44
818.638	7.45
818.947	7.46
819.255	7.48
819.563	7.52
819.872	7.52
820.18	7.51
820.488	7.53
820.796	7.5
821.105	7.48
821.413	7.49
821.721	7.53
822.029	7.54
822.337	7.57
822.645	7.56
822.953	7.54
823.26	7.56
823.568	7.59
823.876	7.57
824.184	7.58
824.491	7.56
824.799	7.55
825.107	7.57
825.414	7.56
825.722	7.58
826.029	7.57
826.337	7.59
826.644	7.59
826.951	7.61
827.259	7.63
827.566	7.66
827.873	7.69
828.18	7.64
828.488	7.66
828.795	7.66
829.102	7.67
829.409	7.7
829.716	7.72
830.023	7.74
830.329	7.76
830.636	7.8
830.943	7.87
831.25	7.91
831.557	7.91
831.863	7.92
832.17	7.88
832.476	7.92
832.783	7.95
833.089	7.98
833.396	7.94
833.702	7.94
834.009	7.89
834.315	7.87
834.621	7.96
834.928	7.98
835.234	8.01
835.54	8.06
835.846	8.1
836.152	8.07
836.458	8.09
836.764	8.08
837.07	8.11
837.376	8.01
837.682	7.89
837.988	8.01
838.293	7.91
838.599	7.96
838.905	7.9
839.211	7.99
839.516	7.99
839.822	8.07
840.127	8.06
840.433	8.1
840.738	8.09
841.044	8.1
841.349	8.18
841.654	8.29
841.959	8.35
842.265	8.3
842.57	8.23
842.875	8.28
843.18	8.46
843.485	8.54
843.79	8.63
844.095	8.79
844.4	8.64
844.705	8.92
845.01	8.86
845.315	8.8
845.619	8.61
845.924	8.56
846.229	8.43
846.533	8.46
846.838	8.51
847.142	8.29
847.447	8.25
847.751	8.03
848.056	8
848.36	7.92
848.664	7.97
848.969	7.84
849.273	7.74
849.577	7.54
849.881	7.39
850.185	7.43
850.489	7.68
850.794	7.88
851.097	7.84
851.401	7.92
851.705	7.89
852.009	7.99
852.313	8.01
852.617	8.16
852.92	8.16
853.224	8.18
853.528	8.17
853.831	8.08
854.135	7.89
854.438	7.88
854.742	7.99
855.045	8.19
855.349	8.22
855.652	8.37
855.955	8.38
856.259	8.5
856.562	8.73
856.865	8.66
857.168	8.65
857.471	8.63
857.774	8.66
858.077	8.58
858.38	8.57
858.683	8.51
858.986	8.6
859.289	8.93
859.592	9.05
859.894	9.33
860.197	9.43
860.5	9.4
860.802	9.59
861.105	9.4
861.407	9.72
861.71	9.66
862.012	9.61
862.315	9.78
862.617	9.69
862.919	9.15
863.222	9.21
863.524	9.15
863.826	9.29
864.128	9.5
864.43	9.63
864.732	9.55
865.034	9.59
865.336	9.6
865.638	9.47
865.94	9.26
866.242	9.35
866.544	8.8
866.846	9.19
867.147	8.78
867.449	8.5
867.751	8.62
868.052	8.65
868.354	8.45
868.655	8.5
868.957	8.61
869.258	8.68
869.56	8.5
869.861	8.72
870.162	8.61
870.463	8.57
870.765	8.79
871.066	8.84
871.367	8.56
871.668	8.53
871.969	8.49
872.27	8.41
872.571	8.47
872.872	8.85
873.173	8.59
873.473	9.02
873.774	9.04
874.075	9.07
874.376	9.35
874.676	9.38
874.977	9.35
875.277	9.28
875.578	9.17
875.878	8.96
876.179	9.04
876.479	8.79
876.78	8.67
877.08	8.68
877.38	8.75
877.68	8.83
877.981	8.72
878.281	8.75
878.581	8.53
