Data from UWBM37214_Reflection_00001.txt Node
Date: Sun May 02 14:03:18 EDT 2021
User: vgr7
Spectrometer: USB2G7710
Scans to average: 10
Trigger mode: 4
Integration Time (sec): 1.000000E-1
Electric dark correction enabled: true
Boxcar width: 20
XAxis mode: Wavelengths
Number of Pixels in Spectrum: 2048
>>>>>Begin Spectral Data<<<<<
177.721	214.47
178.105	359.32
178.488	-5210
178.871	718.75
179.254	248.27
179.636	124.91
180.019	84.25
180.402	73.17
180.785	50.28
181.168	47.6
181.55	40.69
181.933	45.52
182.316	31.24
182.698	26.99
183.081	25.1
183.463	21.78
183.846	20.44
184.228	22.73
184.611	19.1
184.993	18.28
185.376	24.01
185.758	25.77
186.14	26.6
186.522	26.54
186.904	27.84
187.287	27.62
187.669	26.38
188.051	23.82
188.433	20.55
188.815	13.89
189.197	13.24
189.579	12.87
189.961	10.84
190.342	8.74
190.724	10.81
191.106	11.91
191.488	12.32
191.869	11.44
192.251	11.26
192.633	12.09
193.014	12.61
193.396	7.92
193.777	8.47
194.159	8.01
194.54	6.09
194.922	4
195.303	4.01
195.684	2.58
196.065	1.1
196.447	2.97
196.828	1.99
197.209	0.96
197.59	-2.41
197.971	-0.23
198.352	-0.23
198.733	1.03
199.114	1.61
199.495	1.44
199.876	0.65
200.257	1.22
200.638	0.29
201.018	-0.88
201.399	0.07
201.78	-0.94
202.16	-3.1
202.541	-4.69
202.922	-4.64
203.302	-4.52
203.683	-4.65
204.063	-4.14
204.444	-4.08
204.824	-3.73
205.204	-3.97
205.585	-2.96
205.965	-2.19
206.345	-4.21
206.725	-4.15
207.106	-4.63
207.486	-4.58
207.866	-3.76
208.246	-4.23
208.626	-4.02
209.006	-3.44
209.386	-4.45
209.766	-5.01
210.145	-4.36
210.525	-3.32
210.905	-2.4
211.285	-3.5
211.664	-2.83
212.044	-4.29
212.424	-3.74
212.803	-4.17
213.183	-3.37
213.562	-2.04
213.942	-2.01
214.321	-3.53
214.701	-3.66
215.08	-3.11
215.459	-2.62
215.838	-2.7
216.218	-2.1
216.597	-3.14
216.976	-3.65
217.355	-3.28
217.734	-1.54
218.113	-0.95
218.492	-1.95
218.871	-2.23
219.25	-0.82
219.629	-1.01
220.008	-0.6
220.387	-1.21
220.766	-0.46
221.144	-1.08
221.523	-1.55
221.902	-0.25
222.28	-0.56
222.659	-0.26
223.037	0.14
223.416	0.97
223.794	1.15
224.173	1.13
224.551	1.47
224.929	2.45
225.308	2.68
225.686	2.72
226.064	2.6
226.442	2.74
226.821	3.75
227.199	4.06
227.577	4.5
227.955	4.51
228.333	4.77
228.711	4.68
229.089	3.83
229.467	4.28
229.845	4.48
230.222	4.57
230.6	4.42
230.978	4.01
231.356	4.32
231.733	4.18
232.111	4.12
232.488	4.24
232.866	4.02
233.243	3.84
233.621	3.94
233.998	4.26
234.376	4.36
234.753	4.15
235.13	4.25
235.508	4.56
235.885	4.61
236.262	4.55
236.639	4.56
237.016	4.63
237.393	4.56
237.77	4.56
238.147	4.59
238.524	4.55
238.901	4.47
239.278	4.48
239.655	4.48
240.032	4.43
240.409	4.4
240.785	4.4
241.162	4.43
241.539	4.44
241.915	4.46
242.292	4.45
242.668	4.42
243.045	4.38
243.421	4.35
243.798	4.37
244.174	4.38
244.551	4.4
244.927	4.37
245.303	4.34
245.679	4.33
246.056	4.28
246.432	4.33
246.808	4.28
247.184	4.3
247.56	4.32
247.936	4.31
248.312	4.34
248.688	4.33
249.064	4.3
249.44	4.26
249.815	4.22
250.191	4.18
250.567	4.19
250.943	4.16
251.318	4.15
251.694	4.17
252.069	4.16
252.445	4.17
252.82	4.15
253.196	4.13
253.571	4.12
253.947	4.13
254.322	4.12
254.697	4.12
255.073	4.11
255.448	4.13
255.823	4.11
256.198	4.11
256.573	4.08
256.948	4.09
257.323	4.05
257.698	4.01
258.073	3.99
258.448	3.98
258.823	3.96
259.198	3.96
259.573	3.95
259.948	3.95
260.322	3.94
260.697	3.93
261.072	3.92
261.446	3.93
261.821	3.92
262.195	3.92
262.57	3.91
262.944	3.9
263.319	3.89
263.693	3.87
264.067	3.87
264.442	3.87
264.816	3.87
265.19	3.9
265.564	3.91
265.938	3.9
266.313	3.9
266.687	3.89
267.061	3.87
267.435	3.89
267.809	3.88
268.183	3.89
268.556	3.88
268.93	3.88
269.304	3.88
269.678	3.88
270.051	3.87
270.425	3.86
270.799	3.84
271.172	3.84
271.546	3.83
271.919	3.82
272.293	3.8
272.666	3.8
273.04	3.81
273.413	3.84
273.787	3.85
274.16	3.87
274.533	3.87
274.906	3.88
275.279	3.9
275.653	3.91
276.026	3.92
276.399	3.92
276.772	3.92
277.145	3.92
277.518	3.93
277.891	3.94
278.263	3.94
278.636	3.96
279.009	3.96
279.382	3.96
279.755	3.96
280.127	3.97
280.5	3.97
280.872	3.97
281.245	3.98
281.617	3.98
281.99	3.99
282.362	3.99
282.735	3.97
283.107	3.97
283.479	3.95
283.852	3.96
284.224	3.96
284.596	3.95
284.968	3.96
285.34	3.97
285.713	3.97
286.085	3.97
286.457	3.97
286.829	3.97
287.201	3.99
287.572	4.01
287.944	4.02
288.316	4
288.688	3.99
289.06	3.99
289.431	3.99
289.803	3.99
290.175	3.99
290.546	3.98
290.918	3.98
291.289	3.98
291.661	3.99
292.032	3.99
292.403	3.99
292.775	3.99
293.146	3.98
293.517	3.98
293.889	3.98
294.26	4
294.631	4.01
295.002	4.03
295.373	4.03
295.744	4.03
296.115	4.03
296.486	4.04
296.857	4.05
297.228	4.05
297.599	4.07
297.97	4.08
298.34	4.08
298.711	4.1
299.082	4.11
299.452	4.11
299.823	4.12
300.194	4.13
300.564	4.13
300.935	4.14
301.305	4.15
301.676	4.16
302.046	4.16
302.416	4.15
302.787	4.14
303.157	4.14
303.527	4.15
303.897	4.15
304.267	4.15
304.637	4.15
305.008	4.15
305.378	4.15
305.748	4.14
306.117	4.14
306.487	4.15
306.857	4.14
307.227	4.15
307.597	4.15
307.967	4.15
308.336	4.16
308.706	4.17
309.076	4.15
309.445	4.15
309.815	4.14
310.184	4.12
310.554	4.12
310.923	4.13
311.293	4.13
311.662	4.12
312.031	4.11
312.401	4.11
312.77	4.1
313.139	4.09
313.508	4.1
313.877	4.1
314.246	4.1
314.616	4.09
314.985	4.09
315.353	4.08
315.722	4.06
316.091	4.06
316.46	4.05
316.829	4.05
317.198	4.06
317.567	4.05
317.935	4.06
318.304	4.05
318.672	4.04
319.041	4.05
319.41	4.04
319.778	4.05
320.147	4.04
320.515	4.04
320.883	4.03
321.252	4.03
321.62	4.02
321.988	4.02
322.357	4.01
322.725	4.02
323.093	4
323.461	3.99
323.829	3.99
324.197	3.99
324.565	3.96
324.933	3.97
325.301	3.97
325.669	3.98
326.037	3.95
326.405	3.95
326.772	3.94
327.14	3.94
327.508	3.94
327.875	3.92
328.243	3.92
328.61	3.9
328.978	3.89
329.346	3.88
329.713	3.88
330.08	3.88
330.448	3.87
330.815	3.88
331.182	3.87
331.55	3.87
331.917	3.86
332.284	3.85
332.651	3.85
333.018	3.84
333.385	3.84
333.752	3.83
334.119	3.83
334.486	3.84
334.853	3.83
335.22	3.83
335.587	3.82
335.954	3.83
336.32	3.83
336.687	3.83
337.054	3.81
337.42	3.82
337.787	3.82
338.153	3.84
338.52	3.83
338.886	3.81
339.253	3.8
339.619	3.82
339.986	3.81
340.352	3.81
340.718	3.81
341.084	3.8
341.451	3.8
341.817	3.8
342.183	3.8
342.549	3.8
342.915	3.8
343.281	3.81
343.647	3.81
344.013	3.81
344.379	3.8
344.745	3.8
345.11	3.79
345.476	3.81
345.842	3.81
346.208	3.82
346.573	3.82
346.939	3.81
347.304	3.81
347.67	3.81
348.035	3.82
348.401	3.82
348.766	3.83
349.132	3.83
349.497	3.83
349.862	3.83
350.228	3.82
350.593	3.83
350.958	3.83
351.323	3.83
351.688	3.83
352.053	3.84
352.418	3.83
352.783	3.83
353.148	3.83
353.513	3.82
353.878	3.83
354.243	3.84
354.608	3.83
354.972	3.84
355.337	3.84
355.702	3.84
356.066	3.84
356.431	3.84
356.795	3.84
357.16	3.83
357.524	3.84
357.889	3.83
358.253	3.83
358.618	3.83
358.982	3.83
359.346	3.84
359.71	3.85
360.075	3.85
360.439	3.84
360.803	3.83
361.167	3.84
361.531	3.84
361.895	3.84
362.259	3.84
362.623	3.83
362.987	3.83
363.351	3.82
363.714	3.82
364.078	3.82
364.442	3.81
364.806	3.81
365.169	3.81
365.533	3.81
365.896	3.81
366.26	3.81
366.623	3.81
366.987	3.8
367.35	3.81
367.714	3.81
368.077	3.8
368.44	3.81
368.803	3.8
369.167	3.8
369.53	3.8
369.893	3.8
370.256	3.8
370.619	3.8
370.982	3.81
371.345	3.82
371.708	3.82
372.071	3.83
372.434	3.83
372.797	3.83
373.159	3.83
373.522	3.84
373.885	3.84
374.247	3.84
374.61	3.84
374.973	3.83
375.335	3.83
375.698	3.83
376.06	3.82
376.423	3.81
376.785	3.81
377.147	3.82
377.51	3.82
377.872	3.82
378.234	3.82
378.596	3.81
378.958	3.82
379.321	3.82
379.683	3.82
380.045	3.82
380.407	3.82
380.769	3.81
381.13	3.81
381.492	3.81
381.854	3.82
382.216	3.81
382.578	3.81
382.939	3.82
383.301	3.82
383.663	3.82
384.024	3.82
384.386	3.82
384.747	3.81
385.109	3.81
385.47	3.8
385.832	3.8
386.193	3.79
386.554	3.79
386.916	3.79
387.277	3.78
387.638	3.78
387.999	3.78
388.36	3.78
388.721	3.78
389.082	3.78
389.443	3.78
389.804	3.78
390.165	3.79
390.526	3.79
390.887	3.79
391.248	3.79
391.609	3.79
391.969	3.79
392.33	3.79
392.691	3.79
393.051	3.8
393.412	3.8
393.772	3.8
394.133	3.8
394.493	3.79
394.854	3.79
395.214	3.79
395.574	3.79
395.935	3.79
396.295	3.79
396.655	3.79
397.015	3.79
397.376	3.79
397.736	3.79
398.096	3.79
398.456	3.79
398.816	3.79
399.176	3.79
399.535	3.79
399.895	3.8
400.255	3.8
400.615	3.8
400.975	3.8
401.334	3.8
401.694	3.8
402.054	3.81
402.413	3.81
402.773	3.81
403.132	3.81
403.492	3.81
403.851	3.81
404.211	3.81
404.57	3.81
404.929	3.81
405.288	3.81
405.648	3.81
406.007	3.81
406.366	3.81
406.725	3.81
407.084	3.81
407.443	3.82
407.802	3.81
408.161	3.82
408.52	3.82
408.879	3.82
409.238	3.82
409.596	3.83
409.955	3.83
410.314	3.84
410.673	3.84
411.031	3.84
411.39	3.85
411.748	3.86
412.107	3.87
412.465	3.88
412.824	3.9
413.182	3.93
413.54	3.95
413.899	3.99
414.257	4.02
414.615	4.06
414.974	4.09
415.332	4.13
415.69	4.17
416.048	4.2
416.406	4.25
416.764	4.28
417.122	4.31
417.48	4.34
417.838	4.38
418.195	4.4
418.553	4.43
418.911	4.44
419.269	4.45
419.626	4.45
419.984	4.45
420.342	4.44
420.699	4.43
421.057	4.41
421.414	4.4
421.772	4.38
422.129	4.38
422.486	4.37
422.844	4.37
423.201	4.37
423.558	4.37
423.915	4.37
424.273	4.37
424.63	4.36
424.987	4.36
425.344	4.37
425.701	4.37
426.058	4.37
426.415	4.37
426.772	4.37
427.128	4.36
427.485	4.35
427.842	4.34
428.199	4.33
428.555	4.31
428.912	4.29
429.269	4.26
429.625	4.24
429.982	4.21
430.338	4.18
430.695	4.16
431.051	4.12
431.407	4.1
431.764	4.09
432.12	4.07
432.476	4.05
432.832	4.05
433.189	4.05
433.545	4.05
433.901	4.06
434.257	4.08
434.613	4.11
434.969	4.13
435.325	4.16
435.681	4.2
436.036	4.22
436.392	4.24
436.748	4.26
437.104	4.27
437.459	4.29
437.815	4.31
438.171	4.34
438.526	4.36
438.882	4.39
439.237	4.43
439.593	4.47
439.948	4.5
440.304	4.54
440.659	4.56
441.014	4.59
441.369	4.62
441.725	4.63
442.08	4.65
442.435	4.67
442.79	4.68
443.145	4.68
443.5	4.68
443.855	4.68
444.21	4.68
444.565	4.68
444.92	4.68
445.275	4.67
445.629	4.66
445.984	4.65
446.339	4.64
446.693	4.63
447.048	4.61
447.403	4.59
447.757	4.57
448.112	4.55
448.466	4.53
448.82	4.51
449.175	4.49
449.529	4.47
449.883	4.45
450.238	4.42
450.592	4.41
450.946	4.4
451.3	4.4
451.654	4.41
452.008	4.41
452.362	4.42
452.716	4.42
453.07	4.43
453.424	4.42
453.778	4.41
454.132	4.41
454.486	4.4
454.839	4.39
455.193	4.36
455.547	4.35
455.9	4.32
456.254	4.31
456.607	4.28
456.961	4.25
457.314	4.23
457.668	4.22
458.021	4.22
458.375	4.21
458.728	4.21
459.081	4.21
459.434	4.21
459.787	4.23
460.141	4.23
460.494	4.24
460.847	4.25
461.2	4.26
461.553	4.27
461.906	4.27
462.259	4.27
462.611	4.27
462.964	4.28
463.317	4.28
463.67	4.29
464.022	4.3
464.375	4.3
464.728	4.31
465.08	4.31
465.433	4.31
465.785	4.31
466.138	4.29
466.49	4.27
466.843	4.25
467.195	4.23
467.547	4.2
467.899	4.18
468.252	4.15
468.604	4.12
468.956	4.1
469.308	4.08
469.66	4.07
470.012	4.07
470.364	4.07
470.716	4.08
471.068	4.09
471.42	4.11
471.772	4.12
472.123	4.13
472.475	4.14
472.827	4.15
473.178	4.16
473.53	4.17
473.882	4.19
474.233	4.21
474.585	4.25
474.936	4.31
475.288	4.39
475.639	4.51
475.99	4.64
476.342	4.79
476.693	4.95
477.044	5.12
477.395	5.29
477.746	5.47
478.097	5.64
478.448	5.82
478.8	6
479.15	6.16
479.501	6.31
479.852	6.45
480.203	6.58
480.554	6.71
480.905	6.83
481.255	6.94
481.606	7.06
481.957	7.16
482.307	7.26
482.658	7.36
483.009	7.45
483.359	7.54
483.709	7.63
484.06	7.71
484.41	7.79
484.761	7.86
485.111	7.94
485.461	8.01
485.811	8.08
486.162	8.14
486.512	8.2
486.862	8.24
487.212	8.27
487.562	8.29
487.912	8.3
488.262	8.31
488.612	8.3
488.961	8.29
489.311	8.24
489.661	8.18
490.011	8.09
490.36	7.98
490.71	7.86
491.06	7.72
491.409	7.58
491.759	7.43
492.108	7.27
492.458	7.11
492.807	6.94
493.157	6.77
493.506	6.61
493.855	6.46
494.204	6.32
494.554	6.18
494.903	6.05
495.252	5.93
495.601	5.81
495.95	5.69
496.299	5.58
496.648	5.48
496.997	5.38
497.346	5.28
497.695	5.19
498.043	5.1
498.392	5.02
498.741	4.93
499.09	4.85
499.438	4.78
499.787	4.7
500.135	4.63
500.484	4.57
500.832	4.52
501.181	4.48
501.529	4.45
501.878	4.43
502.226	4.42
502.574	4.41
502.923	4.41
503.271	4.41
503.619	4.4
503.967	4.4
504.315	4.39
504.663	4.39
505.011	4.38
505.359	4.38
505.707	4.37
506.055	4.37
506.403	4.37
506.751	4.37
507.098	4.37
507.446	4.38
507.794	4.38
508.141	4.39
508.489	4.4
508.837	4.41
509.184	4.42
509.531	4.44
509.879	4.45
510.226	4.46
510.574	4.47
510.921	4.49
511.268	4.51
511.616	4.53
511.963	4.55
512.31	4.58
512.657	4.6
513.004	4.62
513.351	4.64
513.698	4.65
514.045	4.66
514.392	4.67
514.739	4.67
515.086	4.66
515.432	4.66
515.779	4.66
516.126	4.65
516.473	4.65
516.819	4.65
517.166	4.66
517.512	4.66
517.859	4.68
518.205	4.7
518.552	4.73
518.898	4.75
519.245	4.79
519.591	4.85
519.937	4.92
520.283	5.01
520.629	5.12
520.976	5.23
521.322	5.35
521.668	5.47
522.014	5.6
522.36	5.72
522.706	5.85
523.052	5.97
523.398	6.08
523.743	6.17
524.089	6.25
524.435	6.32
524.781	6.39
525.126	6.45
525.472	6.51
525.817	6.56
526.163	6.62
526.509	6.66
526.854	6.71
527.199	6.75
527.545	6.79
527.89	6.84
528.235	6.89
528.581	6.93
528.926	6.98
529.271	7.01
529.616	7.05
529.961	7.08
530.306	7.12
530.651	7.14
530.996	7.16
531.341	7.17
531.686	7.18
532.031	7.18
532.376	7.18
532.721	7.18
533.065	7.19
533.41	7.2
533.755	7.19
534.099	7.17
534.444	7.15
534.788	7.12
535.133	7.08
535.477	7.03
535.822	6.98
536.166	6.92
536.51	6.84
536.855	6.77
537.199	6.69
537.543	6.61
537.887	6.54
538.231	6.48
538.576	6.42
538.92	6.36
539.264	6.31
539.608	6.25
539.951	6.18
540.295	6.12
540.639	6.05
540.983	5.99
541.327	5.92
541.671	5.85
542.014	5.79
542.358	5.72
542.701	5.68
543.045	5.64
543.389	5.62
543.732	5.6
544.075	5.57
544.419	5.56
544.762	5.54
545.105	5.53
545.449	5.52
545.792	5.5
546.135	5.49
546.478	5.48
546.821	5.46
547.165	5.42
547.508	5.39
547.851	5.34
548.194	5.28
548.536	5.22
548.879	5.15
549.222	5.07
549.565	5
549.908	4.93
550.25	4.86
550.593	4.8
550.936	4.75
551.278	4.71
551.621	4.67
551.963	4.64
552.306	4.61
552.648	4.59
552.991	4.57
553.333	4.56
553.675	4.54
554.017	4.54
554.36	4.54
554.702	4.54
555.044	4.55
555.386	4.56
555.728	4.58
556.07	4.59
556.412	4.61
556.754	4.62
557.096	4.62
557.438	4.62
557.78	4.62
558.121	4.62
558.463	4.62
558.805	4.62
559.147	4.62
559.488	4.62
559.83	4.63
560.171	4.63
560.513	4.63
560.854	4.64
561.196	4.64
561.537	4.64
561.878	4.64
562.22	4.64
562.561	4.64
562.902	4.65
563.243	4.65
563.584	4.65
563.925	4.65
564.266	4.65
564.607	4.65
564.948	4.65
565.289	4.65
565.63	4.66
565.971	4.66
566.312	4.67
566.653	4.67
566.993	4.67
567.334	4.68
567.675	4.68
568.015	4.68
568.356	4.68
568.696	4.68
569.037	4.68
569.377	4.68
569.718	4.68
570.058	4.68
570.398	4.68
570.739	4.68
571.079	4.68
571.419	4.68
571.759	4.69
572.099	4.68
572.439	4.69
572.779	4.69
573.119	4.69
573.459	4.69
573.799	4.69
574.139	4.69
574.479	4.69
574.819	4.69
575.158	4.69
575.498	4.68
575.838	4.68
576.177	4.68
576.517	4.68
576.856	4.68
577.196	4.68
577.535	4.68
577.875	4.68
578.214	4.68
578.553	4.69
578.893	4.69
579.232	4.68
579.571	4.68
579.91	4.69
580.25	4.68
580.589	4.68
580.928	4.68
581.267	4.68
581.606	4.67
581.945	4.67
582.283	4.68
582.622	4.68
582.961	4.68
583.3	4.69
583.639	4.69
583.977	4.69
584.316	4.69
584.654	4.7
584.993	4.7
585.332	4.7
585.67	4.7
586.008	4.71
586.347	4.71
586.685	4.71
587.024	4.71
587.362	4.72
587.7	4.72
588.038	4.72
588.376	4.72
588.715	4.71
589.053	4.71
589.391	4.72
589.729	4.72
590.067	4.73
590.404	4.74
590.742	4.74
591.08	4.74
591.418	4.74
591.756	4.74
592.093	4.74
592.431	4.74
592.769	4.74
593.106	4.75
593.444	4.75
593.781	4.75
594.119	4.75
594.456	4.75
594.793	4.74
595.131	4.75
595.468	4.75
595.805	4.75
596.143	4.75
596.48	4.75
596.817	4.75
597.154	4.75
597.491	4.75
597.828	4.75
598.165	4.75
598.502	4.76
598.839	4.76
599.176	4.77
599.512	4.77
599.849	4.77
600.186	4.77
600.523	4.77
600.859	4.77
601.196	4.77
601.532	4.77
601.869	4.77
602.205	4.78
602.542	4.78
602.878	4.79
603.215	4.79
603.551	4.79
603.887	4.79
604.223	4.79
604.56	4.79
604.896	4.79
605.232	4.79
605.568	4.79
605.904	4.79
606.24	4.8
606.576	4.8
606.912	4.8
607.248	4.8
607.583	4.8
607.919	4.8
608.255	4.81
608.591	4.81
608.926	4.81
609.262	4.81
609.597	4.81
609.933	4.81
610.268	4.82
610.604	4.82
610.939	4.82
611.275	4.82
611.61	4.82
611.945	4.82
612.281	4.82
612.616	4.82
612.951	4.81
613.286	4.81
613.621	4.81
613.956	4.81
614.291	4.81
614.626	4.82
614.961	4.82
615.296	4.82
615.631	4.82
615.966	4.83
616.3	4.83
616.635	4.82
616.97	4.83
617.304	4.83
617.639	4.83
617.973	4.82
618.308	4.82
618.642	4.82
618.977	4.82
619.311	4.82
619.646	4.83
619.98	4.83
620.314	4.83
620.648	4.83
620.983	4.83
621.317	4.83
621.651	4.84
621.985	4.84
622.319	4.85
622.653	4.85
622.987	4.86
623.321	4.86
623.655	4.86
623.988	4.87
624.322	4.87
624.656	4.87
624.99	4.88
625.323	4.89
625.657	4.89
625.99	4.89
626.324	4.89
626.657	4.9
626.991	4.9
627.324	4.91
627.658	4.91
627.991	4.91
628.324	4.92
628.657	4.92
628.991	4.93
629.324	4.94
629.657	4.93
629.99	4.94
630.323	4.95
630.656	4.95
630.989	4.95
631.322	4.95
631.655	4.96
631.987	4.97
632.32	4.97
632.653	4.98
632.986	4.98
633.318	4.98
633.651	4.98
633.984	4.98
634.316	4.98
634.649	4.98
634.981	4.98
635.313	4.99
635.646	4.99
635.978	4.99
636.31	5
636.643	5
636.975	5.01
637.307	5.02
637.639	5.01
637.971	5.02
638.303	5.01
638.635	5.01
638.967	5.01
639.299	5.01
639.631	5.01
639.963	5.02
640.295	5.02
640.626	5.02
640.958	5.02
641.29	5.03
641.621	5.03
641.953	5.03
642.285	5.03
642.616	5.03
642.948	5.02
643.279	5.03
643.61	5.04
643.942	5.05
644.273	5.05
644.604	5.05
644.936	5.06
645.267	5.06
645.598	5.06
645.929	5.07
646.26	5.07
646.591	5.07
646.922	5.08
647.253	5.08
647.584	5.08
647.915	5.09
648.245	5.09
648.576	5.1
648.907	5.1
649.238	5.09
649.568	5.09
649.899	5.09
650.229	5.09
650.56	5.09
650.89	5.09
651.221	5.1
651.551	5.1
651.882	5.1
652.212	5.1
652.542	5.11
652.872	5.12
653.203	5.12
653.533	5.11
653.863	5.12
654.193	5.13
654.523	5.13
654.853	5.13
655.183	5.14
655.513	5.14
655.843	5.15
656.172	5.15
656.502	5.16
656.832	5.16
657.162	5.16
657.491	5.16
657.821	5.17
658.15	5.17
658.48	5.17
658.809	5.17
659.139	5.17
659.468	5.17
659.798	5.18
660.127	5.18
660.456	5.19
660.785	5.19
661.115	5.2
661.444	5.21
661.773	5.22
662.102	5.22
662.431	5.22
662.76	5.23
663.089	5.24
663.418	5.25
663.747	5.26
664.076	5.27
664.404	5.27
664.733	5.29
665.062	5.3
665.39	5.31
665.719	5.32
666.048	5.33
666.376	5.34
666.705	5.34
667.033	5.36
667.362	5.35
667.69	5.35
668.018	5.36
668.347	5.36
668.675	5.36
669.003	5.37
669.331	5.38
669.659	5.38
669.987	5.38
670.315	5.38
670.643	5.4
670.971	5.4
671.299	5.41
671.627	5.41
671.955	5.41
672.283	5.42
672.61	5.43
672.938	5.43
673.266	5.43
673.593	5.43
673.921	5.44
674.249	5.45
674.576	5.45
674.904	5.45
675.231	5.45
675.558	5.46
675.886	5.46
676.213	5.46
676.54	5.46
676.867	5.45
677.195	5.45
677.522	5.44
677.849	5.45
678.176	5.45
678.503	5.45
678.83	5.45
679.157	5.45
679.484	5.45
679.81	5.46
680.137	5.46
680.464	5.47
680.791	5.49
681.117	5.49
681.444	5.5
681.771	5.5
682.097	5.51
682.424	5.51
682.75	5.51
683.077	5.51
683.403	5.52
683.729	5.52
684.056	5.51
684.382	5.52
684.708	5.52
685.034	5.54
685.36	5.55
685.686	5.55
686.012	5.55
686.339	5.55
686.664	5.55
686.99	5.56
687.316	5.57
687.642	5.57
687.968	5.58
688.294	5.6
688.619	5.59
688.945	5.6
689.271	5.61
689.596	5.62
689.922	5.63
690.247	5.64
690.573	5.65
690.898	5.65
691.224	5.67
691.549	5.68
691.874	5.69
692.2	5.69
692.525	5.69
692.85	5.7
693.175	5.72
693.5	5.73
693.825	5.74
694.15	5.74
694.475	5.75
694.8	5.75
695.125	5.75
695.45	5.75
695.775	5.76
696.099	5.77
696.424	5.77
696.749	5.77
697.073	5.78
697.398	5.79
697.723	5.8
698.047	5.8
698.372	5.81
698.696	5.82
699.02	5.82
699.345	5.83
699.669	5.84
699.993	5.85
700.318	5.85
700.642	5.86
700.966	5.86
701.29	5.87
701.614	5.87
701.938	5.88
702.262	5.89
702.586	5.89
702.91	5.9
703.234	5.9
703.557	5.91
703.881	5.91
704.205	5.91
704.529	5.92
704.852	5.92
705.176	5.91
705.499	5.91
705.823	5.93
706.146	5.94
706.47	5.93
706.793	5.93
707.117	5.94
707.44	5.95
707.763	5.95
708.086	5.96
708.409	5.98
708.733	5.98
709.056	5.99
709.379	5.98
709.702	6
710.025	6
710.348	6.01
710.671	6.02
710.993	6.02
711.316	6.03
711.639	6.03
711.962	6.03
712.284	6.05
712.607	6.04
712.93	6.04
713.252	6.05
713.575	6.06
713.897	6.08
714.22	6.07
714.542	6.09
714.864	6.07
715.187	6.08
715.509	6.08
715.831	6.08
716.153	6.08
716.475	6.09
716.798	6.08
717.12	6.09
717.442	6.11
717.764	6.11
718.085	6.11
718.407	6.13
718.729	6.14
719.051	6.15
719.373	6.16
719.695	6.15
720.016	6.16
720.338	6.16
720.659	6.17
720.981	6.18
721.302	6.18
721.624	6.18
721.945	6.2
722.267	6.2
722.588	6.23
722.909	6.24
723.231	6.26
723.552	6.25
723.873	6.27
724.194	6.29
724.515	6.3
724.836	6.3
725.157	6.3
725.478	6.29
725.799	6.32
726.12	6.33
726.441	6.34
726.762	6.35
727.083	6.34
727.403	6.35
727.724	6.35
728.045	6.38
728.365	6.42
728.686	6.44
729.006	6.47
729.327	6.49
729.647	6.5
729.967	6.52
730.288	6.54
730.608	6.54
730.928	6.57
731.249	6.59
731.569	6.6
731.889	6.6
732.209	6.61
732.529	6.62
732.849	6.65
733.169	6.66
733.489	6.69
733.809	6.69
734.129	6.7
734.448	6.71
734.768	6.73
735.088	6.73
735.408	6.75
735.727	6.75
736.047	6.75
736.366	6.76
736.686	6.78
737.005	6.78
737.325	6.78
737.644	6.79
737.963	6.78
738.283	6.81
738.602	6.82
738.921	6.83
739.24	6.84
739.56	6.85
739.879	6.87
740.198	6.88
740.517	6.88
740.836	6.89
741.155	6.9
741.473	6.87
741.792	6.87
742.111	6.86
742.43	6.86
742.748	6.88
743.067	6.89
743.386	6.92
743.704	6.93
744.023	6.92
744.341	6.91
744.66	6.94
744.978	6.93
745.297	6.96
745.615	6.96
745.933	6.94
746.252	6.94
746.57	6.95
746.888	6.99
747.206	6.98
747.524	6.98
747.842	7
748.16	6.99
748.478	7
748.796	6.99
749.114	7
749.432	7.01
749.749	7.02
750.067	7.04
750.385	7.07
750.703	7.1
751.02	7.11
751.338	7.12
751.655	7.14
751.973	7.15
752.29	7.15
752.608	7.18
752.925	7.17
753.242	7.19
753.56	7.21
753.877	7.22
754.194	7.22
754.511	7.23
754.828	7.24
755.145	7.27
755.462	7.31
755.779	7.32
756.096	7.33
756.413	7.3
756.73	7.31
757.047	7.3
757.364	7.31
757.68	7.33
757.997	7.35
758.314	7.35
758.63	7.38
758.947	7.39
759.264	7.41
759.58	7.42
759.896	7.43
760.213	7.44
760.529	7.45
760.846	7.45
761.162	7.48
761.478	7.5
761.794	7.53
762.11	7.53
762.426	7.55
762.743	7.57
763.059	7.54
763.375	7.53
763.69	7.55
764.006	7.57
764.322	7.57
764.638	7.59
764.954	7.6
765.27	7.62
765.585	7.61
765.901	7.63
766.216	7.63
766.532	7.64
766.848	7.64
767.163	7.66
767.478	7.63
767.794	7.66
768.109	7.64
768.424	7.62
768.74	7.62
769.055	7.62
769.37	7.64
769.685	7.65
770	7.7
770.315	7.71
770.63	7.71
770.945	7.74
771.26	7.74
771.575	7.75
771.89	7.79
772.205	7.81
772.52	7.82
772.834	7.81
773.149	7.82
773.464	7.84
773.778	7.85
774.093	7.86
774.407	7.85
774.722	7.84
775.036	7.84
775.351	7.85
775.665	7.84
775.979	7.88
776.293	7.9
776.608	7.87
776.922	7.87
777.236	7.88
777.55	7.89
777.864	7.92
778.178	7.91
778.492	7.92
778.806	7.89
779.12	7.89
779.434	7.94
779.747	7.97
780.061	7.98
780.375	8.05
780.689	8.03
781.002	8.05
781.316	8.1
781.629	8.09
781.943	8.09
782.256	8.12
782.57	8.1
782.883	8.08
783.196	8.1
783.51	8.11
783.823	8.11
784.136	8.13
784.449	8.11
784.762	8.11
785.075	8.11
785.388	8.14
785.701	8.13
786.014	8.19
786.327	8.2
786.64	8.17
786.953	8.22
787.266	8.26
787.578	8.28
787.891	8.32
788.204	8.33
788.516	8.36
788.829	8.4
789.141	8.42
789.454	8.45
789.766	8.45
790.079	8.47
790.391	8.47
790.703	8.49
791.016	8.52
791.328	8.52
791.64	8.56
791.952	8.59
792.264	8.55
792.576	8.56
792.888	8.58
793.2	8.61
793.512	8.66
793.824	8.68
794.136	8.64
794.448	8.69
794.76	8.77
795.071	8.78
795.383	8.8
795.695	8.84
796.006	8.8
796.318	8.77
796.629	8.78
796.941	8.78
797.252	8.82
797.564	8.84
797.875	8.82
798.186	8.83
798.497	8.84
798.809	8.8
799.12	8.8
799.431	8.88
799.742	8.87
800.053	8.89
800.364	8.93
800.675	8.92
800.986	8.91
801.297	8.93
801.608	8.94
801.918	8.96
802.229	8.94
802.54	8.93
802.851	8.91
803.161	8.93
803.472	8.94
803.782	8.93
804.093	8.99
804.403	9.04
804.714	9.07
805.024	9.1
805.334	9.07
805.645	9.09
805.955	9.09
806.265	9.11
806.575	9.07
806.885	9.13
807.195	9.15
807.505	9.17
807.815	9.21
808.125	9.24
808.435	9.22
808.745	9.25
809.055	9.35
809.365	9.35
809.674	9.36
809.984	9.37
810.294	9.41
810.603	9.44
810.913	9.44
811.222	9.46
811.532	9.48
811.841	9.55
812.151	9.51
812.46	9.53
812.769	9.51
813.079	9.52
813.388	9.51
813.697	9.56
814.006	9.59
814.315	9.56
814.624	9.54
814.933	9.61
815.242	9.68
815.551	9.71
815.86	9.72
816.169	9.73
816.478	9.74
816.786	9.78
817.095	9.76
817.404	9.74
817.712	9.77
818.021	9.84
818.33	9.84
818.638	9.88
818.947	9.9
819.255	9.93
819.563	9.93
819.872	9.94
820.18	9.93
820.488	9.93
820.796	9.93
821.105	9.94
821.413	9.98
821.721	10
822.029	10.03
822.337	10.03
822.645	10.02
822.953	10.02
823.26	10.01
823.568	10.03
823.876	10.05
824.184	10.08
824.491	10.08
824.799	10.09
825.107	10.11
825.414	10.1
825.722	10.11
826.029	10.14
826.337	10.17
826.644	10.17
826.951	10.19
827.259	10.2
827.566	10.19
827.873	10.19
828.18	10.22
828.488	10.22
828.795	10.24
829.102	10.24
829.409	10.23
829.716	10.27
830.023	10.3
830.329	10.31
830.636	10.32
830.943	10.35
831.25	10.33
831.557	10.33
831.863	10.36
832.17	10.39
832.476	10.42
832.783	10.41
833.089	10.42
833.396	10.45
833.702	10.49
834.009	10.49
834.315	10.46
834.621	10.46
834.928	10.48
835.234	10.5
835.54	10.5
835.846	10.54
836.152	10.54
836.458	10.55
836.764	10.5
837.07	10.52
837.376	10.55
837.682	10.49
837.988	10.5
838.293	10.51
838.599	10.49
838.905	10.4
839.211	10.4
839.516	10.39
839.822	10.4
840.127	10.45
840.433	10.46
840.738	10.45
841.044	10.47
841.349	10.44
841.654	10.48
841.959	10.51
842.265	10.49
842.57	10.48
842.875	10.43
843.18	10.36
843.485	10.34
843.79	10.44
844.095	10.46
844.4	10.5
844.705	10.47
845.01	10.4
845.315	10.43
845.619	10.38
845.924	10.39
846.229	10.41
846.533	10.41
846.838	10.43
847.142	10.49
847.447	10.51
847.751	10.6
848.056	10.66
848.36	10.69
848.664	10.67
848.969	10.8
849.273	10.86
849.577	10.87
849.881	10.85
850.185	11.02
850.489	11.06
850.794	11.08
851.097	11.09
851.401	11.27
851.705	11.31
852.009	11.5
852.313	11.58
852.617	11.58
852.92	11.65
853.224	11.53
853.528	11.53
853.831	11.56
854.135	11.66
854.438	11.7
854.742	11.69
855.045	11.66
855.349	11.95
855.652	12.13
855.955	12.2
856.259	12.17
856.562	12.33
856.865	12.46
857.168	12.47
857.471	12.48
857.774	12.5
858.077	12.64
858.38	12.66
858.683	12.76
858.986	12.91
859.289	12.95
859.592	12.95
859.894	13.06
860.197	13.06
860.5	13.16
860.802	13.11
861.105	13.17
861.407	12.95
861.71	12.93
862.012	13
862.315	13.14
862.617	13.13
862.919	13.18
863.222	13.02
863.524	13.01
863.826	12.96
864.128	12.81
864.43	12.67
864.732	12.64
865.034	12.53
865.336	12.51
865.638	12.54
865.94	12.59
866.242	12.6
866.544	12.64
866.846	12.63
867.147	12.67
867.449	12.7
867.751	12.57
868.052	12.57
868.354	12.49
868.655	12.42
868.957	12.33
869.258	12.2
869.56	12.3
869.861	12.44
870.162	12.54
870.463	12.56
870.765	12.52
871.066	12.48
871.367	12.26
871.668	12.16
871.969	12.06
872.27	12.03
872.571	12.13
872.872	12.05
873.173	12.11
873.473	12.06
873.774	12.18
874.075	12.27
874.376	12.19
874.676	12.03
874.977	12.1
875.277	12.08
875.578	12.16
875.878	12.17
876.179	12.13
876.479	12.34
876.78	12.34
877.08	12.36
877.38	12.47
877.68	12.55
877.981	12.69
878.281	12.64
878.581	12.8
