Data from UWBM55942_Reflection_00010.txt Node
Date: Sun May 02 14:11:34 EDT 2021
User: vgr7
Spectrometer: USB2G7710
Scans to average: 10
Trigger mode: 4
Integration Time (sec): 1.000000E-1
Electric dark correction enabled: true
Boxcar width: 20
XAxis mode: Wavelengths
Number of Pixels in Spectrum: 2048
>>>>>Begin Spectral Data<<<<<
177.721	-720
178.105	-68.34
178.488	-220.48
178.871	-370.59
179.254	161.17
179.636	85.58
180.019	58.67
180.402	40.28
180.785	34.39
181.168	34.03
181.55	28.92
181.933	31.23
182.316	28.53
182.698	25.85
183.081	22.94
183.463	19.73
183.846	15.77
184.228	21.17
184.611	19.48
184.993	20.2
185.376	23.89
185.758	27.01
186.14	28.36
186.522	28.45
186.904	25.19
187.287	21.9
187.669	20.43
188.051	20.78
188.433	20.55
188.815	19.47
189.197	18.69
189.579	18.17
189.961	15.54
190.342	12.92
190.724	14.54
191.106	14.92
191.488	17.61
191.869	15.84
192.251	14.68
192.633	16.05
193.014	14.45
193.396	9.91
193.777	10.6
194.159	10.46
194.54	8.88
194.922	5.45
195.303	4.62
195.684	3.64
196.065	3.88
196.447	5.2
196.828	4.11
197.209	4.15
197.59	0.29
197.971	-0.06
198.352	1.21
198.733	2.02
199.114	2.68
199.495	4.46
199.876	2.41
200.257	4.24
200.638	2.43
201.018	2.23
201.399	3.97
201.78	3.73
202.16	3.28
202.541	1.4
202.922	0.76
203.302	1.57
203.683	2.68
204.063	3.01
204.444	3.54
204.824	3.17
205.204	1.2
205.585	1.87
205.965	4.73
206.345	3.67
206.725	3.51
207.106	1.58
207.486	2.15
207.866	3.44
208.246	2.47
208.626	3.36
209.006	4.06
209.386	2.74
209.766	3.07
210.145	4.74
210.525	6.02
210.905	7.79
211.285	6.51
211.664	7.56
212.044	6.57
212.424	5.44
212.803	4.49
213.183	6.73
213.562	9.2
213.942	8.39
214.321	6.99
214.701	5.75
215.08	5.47
215.459	5.53
215.838	3.52
216.218	2.74
216.597	1.13
216.976	0.8
217.355	0.84
217.734	0.89
218.113	2.21
218.492	3.13
218.871	2.58
219.25	2.23
219.629	2.1
220.008	1.23
220.387	0.94
220.766	3.19
221.144	2.28
221.523	1.62
221.902	1.81
222.28	2.27
222.659	2.61
223.037	2.1
223.416	2.8
223.794	3.34
224.173	3.86
224.551	4.27
224.929	5.46
225.308	5.32
225.686	5.09
226.064	5.36
226.442	4.87
226.821	5.67
227.199	5.39
227.577	5.17
227.955	5.89
228.333	6.55
228.711	5.97
229.089	4.82
229.467	4.44
229.845	4.48
230.222	4.56
230.6	4.57
230.978	4.86
231.356	5.32
231.733	5.49
232.111	5.42
232.488	4.79
232.866	4.48
233.243	4.5
233.621	4.53
233.998	4.48
234.376	4.48
234.753	4.09
235.13	4.04
235.508	4.13
235.885	4.09
236.262	3.99
236.639	4.1
237.016	4.13
237.393	4.13
237.77	4.16
238.147	4.15
238.524	4.22
238.901	4.14
239.278	4.18
239.655	4.17
240.032	4.16
240.409	4.07
240.785	4.16
241.162	4.15
241.539	4.11
241.915	4.19
242.292	4.19
242.668	4.21
243.045	4.22
243.421	4.2
243.798	4.15
244.174	4.23
244.551	4.26
244.927	4.28
245.303	4.28
245.679	4.29
246.056	4.25
246.432	4.21
246.808	4.12
247.184	4.14
247.56	4.16
247.936	4.2
248.312	4.19
248.688	4.17
249.064	4.18
249.44	4.17
249.815	4.15
250.191	4.16
250.567	4.19
250.943	4.19
251.318	4.19
251.694	4.2
252.069	4.16
252.445	4.16
252.82	4.14
253.196	4.11
253.571	4.09
253.947	4.07
254.322	4.05
254.697	4.02
255.073	3.99
255.448	4
255.823	3.98
256.198	3.95
256.573	3.93
256.948	3.94
257.323	3.89
257.698	3.86
258.073	3.82
258.448	3.81
258.823	3.8
259.198	3.79
259.573	3.75
259.948	3.74
260.322	3.74
260.697	3.73
261.072	3.72
261.446	3.72
261.821	3.71
262.195	3.72
262.57	3.72
262.944	3.72
263.319	3.7
263.693	3.72
264.067	3.71
264.442	3.69
264.816	3.67
265.19	3.68
265.564	3.69
265.938	3.67
266.313	3.69
266.687	3.67
267.061	3.65
267.435	3.67
267.809	3.66
268.183	3.65
268.556	3.66
268.93	3.65
269.304	3.65
269.678	3.67
270.051	3.67
270.425	3.66
270.799	3.63
271.172	3.65
271.546	3.64
271.919	3.64
272.293	3.63
272.666	3.65
273.04	3.66
273.413	3.69
273.787	3.7
274.16	3.7
274.533	3.71
274.906	3.73
275.279	3.73
275.653	3.75
276.026	3.76
276.399	3.77
276.772	3.78
277.145	3.77
277.518	3.78
277.891	3.77
278.263	3.75
278.636	3.79
279.009	3.78
279.382	3.79
279.755	3.79
280.127	3.81
280.5	3.82
280.872	3.84
281.245	3.85
281.617	3.84
281.99	3.86
282.362	3.88
282.735	3.87
283.107	3.88
283.479	3.9
283.852	3.91
284.224	3.93
284.596	3.91
284.968	3.91
285.34	3.92
285.713	3.94
286.085	3.96
286.457	3.97
286.829	3.97
287.201	3.99
287.572	3.99
287.944	4.01
288.316	4.01
288.688	4.01
289.06	4.02
289.431	4.04
289.803	4.06
290.175	4.06
290.546	4.08
290.918	4.11
291.289	4.12
291.661	4.15
292.032	4.16
292.403	4.19
292.775	4.22
293.146	4.26
293.517	4.28
293.889	4.3
294.26	4.34
294.631	4.37
295.002	4.41
295.373	4.44
295.744	4.45
296.115	4.48
296.486	4.51
296.857	4.55
297.228	4.58
297.599	4.61
297.97	4.65
298.34	4.67
298.711	4.7
299.082	4.74
299.452	4.77
299.823	4.81
300.194	4.85
300.564	4.89
300.935	4.91
301.305	4.96
301.676	5
302.046	5.05
302.416	5.1
302.787	5.13
303.157	5.17
303.527	5.22
303.897	5.28
304.267	5.33
304.637	5.37
305.008	5.42
305.378	5.47
305.748	5.52
306.117	5.58
306.487	5.63
306.857	5.68
307.227	5.75
307.597	5.81
307.967	5.86
308.336	5.91
308.706	5.97
309.076	5.99
309.445	6.03
309.815	6.08
310.184	6.11
310.554	6.14
310.923	6.2
311.293	6.25
311.662	6.28
312.031	6.33
312.401	6.38
312.77	6.42
313.139	6.46
313.508	6.52
313.877	6.55
314.246	6.6
314.616	6.64
314.985	6.71
315.353	6.76
315.722	6.79
316.091	6.85
316.46	6.88
316.829	6.94
317.198	7
317.567	7.06
317.935	7.12
318.304	7.18
318.672	7.25
319.041	7.31
319.41	7.37
319.778	7.43
320.147	7.48
320.515	7.54
320.883	7.58
321.252	7.62
321.62	7.69
321.988	7.73
322.357	7.76
322.725	7.81
323.093	7.85
323.461	7.89
323.829	7.96
324.197	8.01
324.565	8.05
324.933	8.09
325.301	8.14
325.669	8.2
326.037	8.23
326.405	8.27
326.772	8.32
327.14	8.36
327.508	8.37
327.875	8.41
328.243	8.45
328.61	8.49
328.978	8.52
329.346	8.54
329.713	8.59
330.08	8.62
330.448	8.63
330.815	8.66
331.182	8.69
331.55	8.73
331.917	8.75
332.284	8.77
332.651	8.8
333.018	8.83
333.385	8.86
333.752	8.9
334.119	8.94
334.486	8.98
334.853	9.02
335.22	9.05
335.587	9.09
335.954	9.15
336.32	9.18
336.687	9.21
337.054	9.25
337.42	9.3
337.787	9.33
338.153	9.36
338.52	9.38
338.886	9.39
339.253	9.42
339.619	9.46
339.986	9.5
340.352	9.53
340.718	9.56
341.084	9.59
341.451	9.62
341.817	9.63
342.183	9.66
342.549	9.69
342.915	9.72
343.281	9.74
343.647	9.76
344.013	9.78
344.379	9.8
344.745	9.82
345.11	9.85
345.476	9.89
345.842	9.92
346.208	9.93
346.573	9.95
346.939	9.97
347.304	9.99
347.67	10.01
348.035	10.03
348.401	10.04
348.766	10.06
349.132	10.06
349.497	10.07
349.862	10.08
350.228	10.09
350.593	10.11
350.958	10.11
351.323	10.12
351.688	10.12
352.053	10.12
352.418	10.14
352.783	10.14
353.148	10.13
353.513	10.14
353.878	10.13
354.243	10.13
354.608	10.12
354.972	10.11
355.337	10.1
355.702	10.09
356.066	10.08
356.431	10.07
356.795	10.06
357.16	10.05
357.524	10.04
357.889	10.02
358.253	10
358.618	9.98
358.982	9.96
359.346	9.95
359.71	9.93
360.075	9.92
360.439	9.89
360.803	9.87
361.167	9.85
361.531	9.83
361.895	9.81
362.259	9.78
362.623	9.75
362.987	9.72
363.351	9.7
363.714	9.66
364.078	9.64
364.442	9.61
364.806	9.57
365.169	9.54
365.533	9.51
365.896	9.46
366.26	9.42
366.623	9.38
366.987	9.34
367.35	9.28
367.714	9.24
368.077	9.19
368.44	9.14
368.803	9.1
369.167	9.03
369.53	8.97
369.893	8.91
370.256	8.85
370.619	8.79
370.982	8.73
371.345	8.67
371.708	8.61
372.071	8.55
372.434	8.49
372.797	8.44
373.159	8.38
373.522	8.33
373.885	8.29
374.247	8.22
374.61	8.15
374.973	8.09
375.335	8.03
375.698	7.97
376.06	7.9
376.423	7.84
376.785	7.78
377.147	7.73
377.51	7.67
377.872	7.61
378.234	7.56
378.596	7.5
378.958	7.43
379.321	7.38
379.683	7.32
380.045	7.26
380.407	7.21
380.769	7.16
381.13	7.1
381.492	7.05
381.854	7
382.216	6.95
382.578	6.9
382.939	6.85
383.301	6.8
383.663	6.76
384.024	6.71
384.386	6.66
384.747	6.62
385.109	6.57
385.47	6.52
385.832	6.47
386.193	6.43
386.554	6.38
386.916	6.34
387.277	6.29
387.638	6.25
387.999	6.21
388.36	6.16
388.721	6.12
389.082	6.08
389.443	6.04
389.804	6
390.165	5.97
390.526	5.92
390.887	5.89
391.248	5.85
391.609	5.82
391.969	5.78
392.33	5.74
392.691	5.71
393.051	5.66
393.412	5.63
393.772	5.59
394.133	5.55
394.493	5.51
394.854	5.48
395.214	5.44
395.574	5.4
395.935	5.36
396.295	5.32
396.655	5.28
397.015	5.25
397.376	5.21
397.736	5.17
398.096	5.14
398.456	5.1
398.816	5.08
399.176	5.04
399.535	5
399.895	4.97
400.255	4.94
400.615	4.91
400.975	4.88
401.334	4.85
401.694	4.82
402.054	4.79
402.413	4.77
402.773	4.74
403.132	4.72
403.492	4.69
403.851	4.67
404.211	4.65
404.57	4.63
404.929	4.61
405.288	4.59
405.648	4.58
406.007	4.57
406.366	4.55
406.725	4.53
407.084	4.52
407.443	4.5
407.802	4.49
408.161	4.47
408.52	4.46
408.879	4.44
409.238	4.43
409.596	4.42
409.955	4.41
410.314	4.39
410.673	4.38
411.031	4.37
411.39	4.36
411.748	4.35
412.107	4.34
412.465	4.33
412.824	4.34
413.182	4.35
413.54	4.36
413.899	4.37
414.257	4.39
414.615	4.41
414.974	4.43
415.332	4.45
415.69	4.48
416.048	4.5
416.406	4.53
416.764	4.54
417.122	4.56
417.48	4.58
417.838	4.6
418.195	4.61
418.553	4.62
418.911	4.62
419.269	4.62
419.626	4.61
419.984	4.59
420.342	4.57
420.699	4.55
421.057	4.52
421.414	4.49
421.772	4.47
422.129	4.45
422.486	4.44
422.844	4.43
423.201	4.42
423.558	4.41
423.915	4.4
424.273	4.39
424.63	4.38
424.987	4.37
425.344	4.36
425.701	4.36
426.058	4.35
426.415	4.34
426.772	4.33
427.128	4.32
427.485	4.3
427.842	4.29
428.199	4.26
428.555	4.24
428.912	4.21
429.269	4.18
429.625	4.15
429.982	4.12
430.338	4.08
430.695	4.05
431.051	4.02
431.407	3.99
431.764	3.97
432.12	3.94
432.476	3.93
432.832	3.91
433.189	3.91
433.545	3.91
433.901	3.92
434.257	3.94
434.613	3.96
434.969	3.98
435.325	4
435.681	4.04
436.036	4.06
436.392	4.08
436.748	4.09
437.104	4.1
437.459	4.12
437.815	4.13
438.171	4.15
438.526	4.17
438.882	4.2
439.237	4.23
439.593	4.26
439.948	4.29
440.304	4.32
440.659	4.34
441.014	4.36
441.369	4.39
441.725	4.4
442.08	4.42
442.435	4.42
442.79	4.43
443.145	4.43
443.5	4.43
443.855	4.43
444.21	4.42
444.565	4.42
444.92	4.41
445.275	4.39
445.629	4.38
445.984	4.37
446.339	4.35
446.693	4.34
447.048	4.32
447.403	4.3
447.757	4.27
448.112	4.25
448.466	4.22
448.82	4.2
449.175	4.17
449.529	4.15
449.883	4.12
450.238	4.09
450.592	4.08
450.946	4.07
451.3	4.06
451.654	4.06
452.008	4.06
452.362	4.06
452.716	4.06
453.07	4.06
453.424	4.05
453.778	4.04
454.132	4.03
454.486	4.02
454.839	3.99
455.193	3.97
455.547	3.96
455.9	3.93
456.254	3.91
456.607	3.88
456.961	3.85
457.314	3.84
457.668	3.83
458.021	3.82
458.375	3.82
458.728	3.82
459.081	3.82
459.434	3.83
459.787	3.84
460.141	3.85
460.494	3.86
460.847	3.87
461.2	3.88
461.553	3.89
461.906	3.89
462.259	3.9
462.611	3.91
462.964	3.91
463.317	3.92
463.67	3.93
464.022	3.94
464.375	3.96
464.728	3.96
465.08	3.97
465.433	3.98
465.785	3.99
466.138	3.98
466.49	3.97
466.843	3.96
467.195	3.95
467.547	3.93
467.899	3.92
468.252	3.9
468.604	3.88
468.956	3.87
469.308	3.86
469.66	3.87
470.012	3.87
470.364	3.88
470.716	3.88
471.068	3.9
471.42	3.92
471.772	3.95
472.123	3.96
472.475	3.98
472.827	3.99
473.178	4
473.53	4.01
473.882	4.03
474.233	4.05
474.585	4.08
474.936	4.14
475.288	4.22
475.639	4.34
475.99	4.46
476.342	4.6
476.693	4.76
477.044	4.91
477.395	5.07
477.746	5.23
478.097	5.39
478.448	5.56
478.8	5.72
479.15	5.86
479.501	6
479.852	6.12
480.203	6.24
480.554	6.36
480.905	6.46
481.255	6.57
481.606	6.66
481.957	6.76
482.307	6.84
482.658	6.93
483.009	7
483.359	7.08
483.709	7.16
484.06	7.23
484.41	7.3
484.761	7.37
485.111	7.44
485.461	7.5
485.811	7.56
486.162	7.62
486.512	7.67
486.862	7.71
487.212	7.74
487.562	7.75
487.912	7.76
488.262	7.77
488.612	7.77
488.961	7.76
489.311	7.72
489.661	7.66
490.011	7.58
490.36	7.49
490.71	7.38
491.06	7.26
491.409	7.13
491.759	7
492.108	6.86
492.458	6.72
492.807	6.58
493.157	6.43
493.506	6.3
493.855	6.17
494.204	6.05
494.554	5.93
494.903	5.83
495.252	5.73
495.601	5.64
495.95	5.55
496.299	5.47
496.648	5.4
496.997	5.34
497.346	5.27
497.695	5.22
498.043	5.17
498.392	5.12
498.741	5.07
499.09	5.03
499.438	5
499.787	4.97
500.135	4.95
500.484	4.93
500.832	4.93
501.181	4.94
501.529	4.96
501.878	5
502.226	5.05
502.574	5.1
502.923	5.16
503.271	5.22
503.619	5.29
503.967	5.35
504.315	5.42
504.663	5.49
505.011	5.56
505.359	5.63
505.707	5.7
506.055	5.78
506.403	5.86
506.751	5.95
507.098	6.04
507.446	6.12
507.794	6.22
508.141	6.32
508.489	6.42
508.837	6.53
509.184	6.64
509.531	6.76
509.879	6.88
510.226	7.01
510.574	7.14
510.921	7.28
511.268	7.43
511.616	7.58
511.963	7.73
512.31	7.89
512.657	8.04
513.004	8.2
513.351	8.35
513.698	8.48
514.045	8.62
514.392	8.75
514.739	8.86
515.086	8.97
515.432	9.09
515.779	9.2
516.126	9.31
516.473	9.44
516.819	9.57
517.166	9.72
517.512	9.88
517.859	10.05
518.205	10.24
518.552	10.44
518.898	10.66
519.245	10.91
519.591	11.22
519.937	11.58
520.283	12
520.629	12.46
520.976	12.95
521.322	13.45
521.668	13.97
522.014	14.5
522.36	15.03
522.706	15.55
523.052	16.06
523.398	16.53
523.743	16.97
524.089	17.38
524.435	17.76
524.781	18.13
525.126	18.49
525.472	18.85
525.817	19.2
526.163	19.55
526.509	19.89
526.854	20.23
527.199	20.57
527.545	20.91
527.89	21.26
528.235	21.61
528.581	21.94
528.926	22.26
529.271	22.56
529.616	22.85
529.961	23.14
530.306	23.41
530.651	23.67
530.996	23.91
531.341	24.13
531.686	24.33
532.031	24.52
532.376	24.74
532.721	24.98
533.065	25.23
533.41	25.51
533.755	25.76
534.099	26
534.444	26.2
534.788	26.39
535.133	26.56
535.477	26.71
535.822	26.85
536.166	26.95
536.51	27.02
536.855	27.04
537.199	27.03
537.543	27.03
537.887	27.05
538.231	27.09
538.576	27.14
538.92	27.18
539.264	27.22
539.608	27.23
539.951	27.23
540.295	27.21
540.639	27.2
540.983	27.17
541.327	27.12
541.671	27.05
542.014	27
542.358	26.98
542.701	27
543.045	27.09
543.389	27.21
543.732	27.33
544.075	27.48
544.419	27.63
544.762	27.8
545.105	27.97
545.449	28.16
545.792	28.36
546.135	28.56
546.478	28.73
546.821	28.86
547.165	28.95
547.508	28.99
547.851	29
548.194	28.96
548.536	28.89
548.879	28.8
549.222	28.7
549.565	28.58
549.908	28.47
550.25	28.38
550.593	28.35
550.936	28.37
551.278	28.43
551.621	28.53
551.963	28.65
552.306	28.78
552.648	28.94
552.991	29.13
553.333	29.33
553.675	29.57
554.017	29.83
554.36	30.11
554.702	30.42
555.044	30.76
555.386	31.15
555.728	31.58
556.07	31.97
556.412	32.35
556.754	32.67
557.096	32.94
557.438	33.2
557.78	33.48
558.121	33.74
558.463	34.02
558.805	34.29
559.147	34.59
559.488	34.86
559.83	35.14
560.171	35.41
560.513	35.68
560.854	35.95
561.196	36.21
561.537	36.47
561.878	36.73
562.22	36.97
562.561	37.22
562.902	37.46
563.243	37.71
563.584	37.95
563.925	38.2
564.266	38.44
564.607	38.69
564.948	38.92
565.289	39.15
565.63	39.38
565.971	39.61
566.312	39.83
566.653	40.04
566.993	40.27
567.334	40.48
567.675	40.68
568.015	40.88
568.356	41.08
568.696	41.27
569.037	41.46
569.377	41.65
569.718	41.82
570.058	41.98
570.398	42.16
570.739	42.32
571.079	42.49
571.419	42.63
571.759	42.78
572.099	42.93
572.439	43.08
572.779	43.21
573.119	43.35
573.459	43.48
573.799	43.61
574.139	43.75
574.479	43.88
574.819	44
575.158	44.13
575.498	44.26
575.838	44.38
576.177	44.5
576.517	44.63
576.856	44.74
577.196	44.86
577.535	44.98
577.875	45.09
578.214	45.2
578.553	45.3
578.893	45.41
579.232	45.51
579.571	45.62
579.91	45.73
580.25	45.83
580.589	45.94
580.928	46.04
581.267	46.15
581.606	46.26
581.945	46.37
582.283	46.48
582.622	46.58
582.961	46.7
583.3	46.8
583.639	46.91
583.977	47.01
584.316	47.12
584.654	47.22
584.993	47.32
585.332	47.44
585.67	47.54
586.008	47.64
586.347	47.74
586.685	47.85
587.024	47.95
587.362	48.05
587.7	48.15
588.038	48.25
588.376	48.35
588.715	48.47
589.053	48.57
589.391	48.67
589.729	48.78
590.067	48.88
590.404	48.98
590.742	49.07
591.08	49.15
591.418	49.24
591.756	49.32
592.093	49.42
592.431	49.49
592.769	49.57
593.106	49.64
593.444	49.72
593.781	49.78
594.119	49.84
594.456	49.91
594.793	49.99
595.131	50.05
595.468	50.11
595.805	50.17
596.143	50.24
596.48	50.32
596.817	50.39
597.154	50.47
597.491	50.55
597.828	50.63
598.165	50.71
598.502	50.78
598.839	50.85
599.176	50.91
599.512	50.98
599.849	51.03
600.186	51.09
600.523	51.13
600.859	51.18
601.196	51.24
601.532	51.29
601.869	51.35
602.205	51.4
602.542	51.44
602.878	51.5
603.215	51.54
603.551	51.59
603.887	51.65
604.223	51.69
604.56	51.72
604.896	51.77
605.232	51.8
605.568	51.83
605.904	51.87
606.24	51.9
606.576	51.93
606.912	51.97
607.248	52
607.583	52.04
607.919	52.08
608.255	52.11
608.591	52.14
608.926	52.16
609.262	52.2
609.597	52.23
609.933	52.26
610.268	52.28
610.604	52.3
610.939	52.31
611.275	52.34
611.61	52.36
611.945	52.37
612.281	52.4
612.616	52.4
612.951	52.43
613.286	52.43
613.621	52.47
613.956	52.49
614.291	52.52
614.626	52.55
614.961	52.57
615.296	52.59
615.631	52.61
615.966	52.63
616.3	52.65
616.635	52.66
616.97	52.68
617.304	52.7
617.639	52.71
617.973	52.73
618.308	52.76
618.642	52.8
618.977	52.83
619.311	52.87
619.646	52.9
619.98	52.94
620.314	52.97
620.648	53
620.983	53.03
621.317	53.06
621.651	53.09
621.985	53.12
622.319	53.15
622.653	53.18
622.987	53.2
623.321	53.22
623.655	53.24
623.988	53.26
624.322	53.28
624.656	53.32
624.99	53.33
625.323	53.35
625.657	53.38
625.99	53.4
626.324	53.42
626.657	53.42
626.991	53.45
627.324	53.47
627.658	53.49
627.991	53.5
628.324	53.52
628.657	53.55
628.991	53.57
629.324	53.6
629.657	53.62
629.99	53.63
630.323	53.65
630.656	53.68
630.989	53.69
631.322	53.72
631.655	53.73
631.987	53.75
632.32	53.78
632.653	53.78
632.986	53.78
633.318	53.79
633.651	53.81
633.984	53.84
634.316	53.86
634.649	53.88
634.981	53.9
635.313	53.91
635.646	53.92
635.978	53.94
636.31	53.95
636.643	53.97
636.975	53.98
637.307	54.02
637.639	54.04
637.971	54.05
638.303	54.06
638.635	54.09
638.967	54.1
639.299	54.11
639.631	54.12
639.963	54.15
640.295	54.18
640.626	54.19
640.958	54.21
641.29	54.23
641.621	54.25
641.953	54.28
642.285	54.3
642.616	54.31
642.948	54.31
643.279	54.34
643.61	54.37
643.942	54.4
644.273	54.4
644.604	54.41
644.936	54.42
645.267	54.44
645.598	54.46
645.929	54.46
646.26	54.5
646.591	54.53
646.922	54.55
647.253	54.56
647.584	54.57
647.915	54.58
648.245	54.6
648.576	54.61
648.907	54.63
649.238	54.65
649.568	54.67
649.899	54.7
650.229	54.73
650.56	54.75
650.89	54.76
651.221	54.77
651.551	54.8
651.882	54.82
652.212	54.83
652.542	54.84
652.872	54.85
653.203	54.89
653.533	54.91
653.863	54.94
654.193	54.95
654.523	54.97
654.853	54.97
655.183	54.99
655.513	55
655.843	55
656.172	55.02
656.502	55.04
656.832	55.05
657.162	55.06
657.491	55.06
657.821	55.08
658.15	55.1
658.48	55.12
658.809	55.13
659.139	55.15
659.468	55.17
659.798	55.17
660.127	55.17
660.456	55.2
660.785	55.21
661.115	55.22
661.444	55.23
661.773	55.24
662.102	55.25
662.431	55.26
662.76	55.27
663.089	55.28
663.418	55.28
663.747	55.3
664.076	55.32
664.404	55.32
664.733	55.33
665.062	55.34
665.39	55.36
665.719	55.37
666.048	55.39
666.376	55.41
666.705	55.41
667.033	55.41
667.362	55.4
667.69	55.41
668.018	55.42
668.347	55.45
668.675	55.45
669.003	55.47
669.331	55.49
669.659	55.5
669.987	55.51
670.315	55.52
670.643	55.52
670.971	55.54
671.299	55.56
671.627	55.57
671.955	55.59
672.283	55.59
672.61	55.58
672.938	55.59
673.266	55.62
673.593	55.64
673.921	55.63
674.249	55.65
674.576	55.67
674.904	55.67
675.231	55.69
675.558	55.69
675.886	55.7
676.213	55.72
676.54	55.71
676.867	55.7
677.195	55.69
677.522	55.69
677.849	55.71
678.176	55.72
678.503	55.71
678.83	55.74
679.157	55.75
679.484	55.77
679.81	55.79
680.137	55.78
680.464	55.81
680.791	55.83
681.117	55.85
681.444	55.88
681.771	55.87
682.097	55.87
682.424	55.87
682.75	55.87
683.077	55.88
683.403	55.88
683.729	55.88
684.056	55.9
684.382	55.9
684.708	55.9
685.034	55.91
685.36	55.93
685.686	55.96
686.012	55.97
686.339	55.98
686.664	55.98
686.99	56
687.316	55.99
687.642	56.01
687.968	56.02
688.294	56.03
688.619	56.04
688.945	56.06
689.271	56.07
689.596	56.07
689.922	56.1
690.247	56.14
690.573	56.15
690.898	56.16
691.224	56.19
691.549	56.2
691.874	56.21
692.2	56.22
692.525	56.24
692.85	56.23
693.175	56.22
693.5	56.25
693.825	56.25
694.15	56.26
694.475	56.27
694.8	56.29
695.125	56.31
695.45	56.34
695.775	56.33
696.099	56.36
696.424	56.35
696.749	56.38
697.073	56.39
697.398	56.39
697.723	56.4
698.047	56.4
698.372	56.43
698.696	56.43
699.02	56.43
699.345	56.44
699.669	56.44
699.993	56.45
700.318	56.44
700.642	56.45
700.966	56.47
701.29	56.47
701.614	56.48
701.938	56.49
702.262	56.5
702.586	56.52
702.91	56.51
703.234	56.53
703.557	56.51
703.881	56.54
704.205	56.56
704.529	56.57
704.852	56.57
705.176	56.58
705.499	56.57
705.823	56.57
706.146	56.58
706.47	56.59
706.793	56.59
707.117	56.59
707.44	56.6
707.763	56.6
708.086	56.61
708.409	56.6
708.733	56.58
709.056	56.6
709.379	56.61
709.702	56.64
710.025	56.64
710.348	56.66
710.671	56.68
710.993	56.68
711.316	56.69
711.639	56.68
711.962	56.72
712.284	56.73
712.607	56.76
712.93	56.77
713.252	56.77
713.575	56.79
713.897	56.79
714.22	56.8
714.542	56.81
714.864	56.81
715.187	56.8
715.509	56.81
715.831	56.81
716.153	56.82
716.475	56.84
716.798	56.85
717.12	56.84
717.442	56.87
717.764	56.86
718.085	56.88
718.407	56.91
718.729	56.91
719.051	56.91
719.373	56.91
719.695	56.93
720.016	56.96
720.338	56.98
720.659	56.98
720.981	56.98
721.302	56.99
721.624	57.03
721.945	57.04
722.267	57.04
722.588	57.03
722.909	57.05
723.231	57.04
723.552	57.05
723.873	57.06
724.194	57.07
724.515	57.1
724.836	57.08
725.157	57.08
725.478	57.09
725.799	57.08
726.12	57.09
726.441	57.11
726.762	57.11
727.083	57.13
727.403	57.13
727.724	57.13
728.045	57.15
728.365	57.19
728.686	57.21
729.006	57.25
729.327	57.23
729.647	57.25
729.967	57.26
730.288	57.26
730.608	57.26
730.928	57.26
731.249	57.27
731.569	57.27
731.889	57.28
732.209	57.3
732.529	57.33
732.849	57.35
733.169	57.33
733.489	57.32
733.809	57.34
734.129	57.35
734.448	57.36
734.768	57.37
735.088	57.4
735.408	57.43
735.727	57.43
736.047	57.41
736.366	57.44
736.686	57.44
737.005	57.43
737.325	57.45
737.644	57.46
737.963	57.46
738.283	57.44
738.602	57.43
738.921	57.45
739.24	57.45
739.56	57.45
739.879	57.42
740.198	57.42
740.517	57.42
740.836	57.41
741.155	57.38
741.473	57.34
741.792	57.34
742.111	57.27
742.43	57.25
742.748	57.26
743.067	57.28
743.386	57.3
743.704	57.29
744.023	57.27
744.341	57.26
744.66	57.26
744.978	57.27
745.297	57.27
745.615	57.23
745.933	57.21
746.252	57.24
746.57	57.25
746.888	57.26
747.206	57.29
747.524	57.26
747.842	57.22
748.16	57.25
748.478	57.23
748.796	57.25
749.114	57.26
749.432	57.24
749.749	57.24
750.067	57.27
750.385	57.26
750.703	57.25
751.02	57.28
751.338	57.29
751.655	57.28
751.973	57.25
752.29	57.24
752.608	57.22
752.925	57.24
753.242	57.24
753.56	57.23
753.877	57.25
754.194	57.28
754.511	57.33
754.828	57.34
755.145	57.4
755.462	57.44
755.779	57.44
756.096	57.46
756.413	57.47
756.73	57.48
757.047	57.56
757.364	57.54
757.68	57.55
757.997	57.57
758.314	57.6
758.63	57.64
758.947	57.68
759.264	57.67
759.58	57.69
759.896	57.69
760.213	57.71
760.529	57.74
760.846	57.76
761.162	57.76
761.478	57.78
761.794	57.77
762.11	57.8
762.426	57.81
762.743	57.83
763.059	57.82
763.375	57.77
763.69	57.78
764.006	57.81
764.322	57.81
764.638	57.84
764.954	57.86
765.27	57.88
765.585	57.86
765.901	57.9
766.216	57.92
766.532	57.9
766.848	57.9
767.163	57.9
767.478	57.88
767.794	57.9
768.109	57.9
768.424	57.91
768.74	57.9
769.055	57.88
769.37	57.84
769.685	57.82
770	57.78
770.315	57.82
770.63	57.81
770.945	57.8
771.26	57.81
771.575	57.8
771.89	57.77
772.205	57.75
772.52	57.77
772.834	57.74
773.149	57.71
773.464	57.67
773.778	57.69
774.093	57.63
774.407	57.61
774.722	57.6
775.036	57.58
775.351	57.57
775.665	57.52
775.979	57.5
776.293	57.54
776.608	57.54
776.922	57.55
777.236	57.52
777.55	57.49
777.864	57.49
778.178	57.47
778.492	57.57
778.806	57.57
779.12	57.51
779.434	57.57
779.747	57.55
780.061	57.57
780.375	57.6
780.689	57.59
781.002	57.58
781.316	57.54
781.629	57.54
781.943	57.52
782.256	57.62
782.57	57.67
782.883	57.71
783.196	57.67
783.51	57.6
783.823	57.57
784.136	57.59
784.449	57.59
784.762	57.6
785.075	57.61
785.388	57.57
785.701	57.57
786.014	57.55
786.327	57.55
786.64	57.51
786.953	57.56
787.266	57.57
787.578	57.61
787.891	57.62
788.204	57.61
788.516	57.68
788.829	57.73
789.141	57.71
789.454	57.75
789.766	57.69
790.079	57.75
790.391	57.78
790.703	57.81
791.016	57.86
791.328	57.82
791.64	57.81
791.952	57.82
792.264	57.82
792.576	57.86
792.888	57.84
793.2	57.83
793.512	57.8
793.824	57.78
794.136	57.79
794.448	57.78
794.76	57.8
795.071	57.74
795.383	57.67
795.695	57.61
796.006	57.59
796.318	57.64
796.629	57.68
796.941	57.64
797.252	57.63
797.564	57.59
797.875	57.55
798.186	57.53
798.497	57.59
798.809	57.62
799.12	57.62
799.431	57.61
799.742	57.55
800.053	57.58
800.364	57.52
800.675	57.51
800.986	57.48
801.297	57.48
801.608	57.48
801.918	57.54
802.229	57.5
802.54	57.52
802.851	57.47
803.161	57.46
803.472	57.45
803.782	57.41
804.093	57.43
804.403	57.37
804.714	57.42
805.024	57.41
805.334	57.4
805.645	57.36
805.955	57.32
806.265	57.37
806.575	57.36
806.885	57.37
807.195	57.39
807.505	57.35
807.815	57.44
808.125	57.53
808.435	57.53
808.745	57.56
809.055	57.53
809.365	57.58
809.674	57.57
809.984	57.63
810.294	57.7
810.603	57.75
810.913	57.8
811.222	57.74
811.532	57.71
811.841	57.73
812.151	57.78
812.46	57.79
812.769	57.75
813.079	57.75
813.388	57.75
813.697	57.78
814.006	57.79
814.315	57.82
814.624	57.79
814.933	57.8
815.242	57.76
815.551	57.81
815.86	57.79
816.169	57.84
816.478	57.91
816.786	57.96
817.095	57.97
817.404	57.97
817.712	58.05
818.021	58.02
818.33	58.07
818.638	58.13
818.947	58.12
819.255	58.18
819.563	58.2
819.872	58.23
820.18	58.28
820.488	58.3
820.796	58.32
821.105	58.34
821.413	58.36
821.721	58.41
822.029	58.38
822.337	58.39
822.645	58.39
822.953	58.38
823.26	58.36
823.568	58.38
823.876	58.4
824.184	58.42
824.491	58.44
824.799	58.46
825.107	58.5
825.414	58.5
825.722	58.51
826.029	58.53
826.337	58.55
826.644	58.54
826.951	58.53
827.259	58.54
827.566	58.55
827.873	58.58
828.18	58.58
828.488	58.6
828.795	58.59
829.102	58.6
829.409	58.58
829.716	58.58
830.023	58.6
830.329	58.59
830.636	58.61
830.943	58.63
831.25	58.64
831.557	58.68
831.863	58.65
832.17	58.69
832.476	58.67
832.783	58.63
833.089	58.6
833.396	58.58
833.702	58.57
834.009	58.53
834.315	58.49
834.621	58.51
834.928	58.49
835.234	58.5
835.54	58.51
835.846	58.53
836.152	58.54
836.458	58.51
836.764	58.47
837.07	58.43
837.376	58.42
837.682	58.35
837.988	58.34
838.293	58.35
838.599	58.34
838.905	58.31
839.211	58.32
839.516	58.34
839.822	58.32
840.127	58.34
840.433	58.36
840.738	58.4
841.044	58.43
841.349	58.44
841.654	58.36
841.959	58.4
842.265	58.4
842.57	58.37
842.875	58.36
843.18	58.35
843.485	58.26
843.79	58.17
844.095	58.13
844.4	58.16
844.705	58.14
845.01	58.1
845.315	58.07
845.619	58.08
845.924	58.04
846.229	58.11
846.533	58.19
846.838	58.26
847.142	58.27
847.447	58.38
847.751	58.3
848.056	58.36
848.36	58.43
848.664	58.27
848.969	58.33
849.273	58.35
849.577	58.42
849.881	58.31
850.185	58.39
850.489	58.41
850.794	58.43
851.097	58.39
851.401	58.47
851.705	58.41
852.009	58.27
852.313	58.23
852.617	58.13
852.92	58.04
853.224	57.96
853.528	57.88
853.831	57.88
854.135	57.98
854.438	57.95
854.742	58.07
855.045	58.16
855.349	58.26
855.652	58.25
855.955	58.46
856.259	58.62
856.562	58.7
856.865	58.58
857.168	58.55
857.471	58.25
857.774	58.55
858.077	58.5
858.38	58.46
858.683	58.42
858.986	58.41
859.289	58.28
859.592	58.09
859.894	57.97
860.197	58
860.5	57.93
860.802	58.01
861.105	58.15
861.407	58.1
861.71	58.15
862.012	58.03
862.315	57.96
862.617	57.87
862.919	57.89
863.222	57.81
863.524	57.9
863.826	57.82
864.128	57.9
864.43	58.09
864.732	58.06
865.034	58.08
865.336	57.86
865.638	57.88
865.94	57.76
866.242	57.89
866.544	57.96
866.846	58.1
867.147	58.16
867.449	58.24
867.751	58.08
868.052	58.13
868.354	58.02
868.655	57.9
868.957	57.76
869.258	57.79
869.56	57.86
869.861	58.37
870.162	58.05
870.463	58.14
870.765	58.15
871.066	58.07
871.367	58.13
871.668	58.16
871.969	58.5
872.27	58.7
872.571	58.57
872.872	58.55
873.173	58.46
873.473	58.38
873.774	58.48
874.075	58.47
874.376	58.55
874.676	58.67
874.977	58.77
875.277	58.76
875.578	58.79
875.878	58.74
876.179	58.67
876.479	58.7
876.78	58.61
877.08	58.68
877.38	58.71
877.68	58.99
877.981	58.92
878.281	59.22
878.581	59.1
