Data from UWBM37214_Reflection_00003.txt Node
Date: Sun May 02 14:03:34 EDT 2021
User: vgr7
Spectrometer: USB2G7710
Scans to average: 10
Trigger mode: 4
Integration Time (sec): 1.000000E-1
Electric dark correction enabled: true
Boxcar width: 20
XAxis mode: Wavelengths
Number of Pixels in Spectrum: 2048
>>>>>Begin Spectral Data<<<<<
177.721	302.63
178.105	428.81
178.488	-7720
178.871	1193.75
179.254	449.71
179.636	280.97
180.019	139.73
180.402	108.14
180.785	80.97
181.168	75.62
181.55	58.63
181.933	60.67
182.316	44.6
182.698	41.2
183.081	32.77
183.463	29.51
183.846	23.25
184.228	24.66
184.611	25.72
184.993	24.99
185.376	24.77
185.758	26.12
186.14	29.27
186.522	28.46
186.904	28.6
187.287	27.32
187.669	27.57
188.051	26.26
188.433	27.36
188.815	24.61
189.197	24.05
189.579	21.27
189.961	17.11
190.342	14.9
190.724	15.62
191.106	15.76
191.488	15.65
191.869	12.25
192.251	11.61
192.633	11.55
193.014	11.59
193.396	8.99
193.777	9.76
194.159	9.86
194.54	6.39
194.922	4.37
195.303	4.15
195.684	3.38
196.065	2.13
196.447	3.63
196.828	3.02
197.209	3.17
197.59	0.37
197.971	0.91
198.352	1.2
198.733	2.73
199.114	2.77
199.495	3.67
199.876	2.59
200.257	1.22
200.638	0.21
201.018	0.72
201.399	0.43
201.78	0.14
202.16	0.42
202.541	-0.37
202.922	-0.94
203.302	-2.3
203.683	-1.58
204.063	-0.92
204.444	-0.97
204.824	-1.04
205.204	-3.28
205.585	-0.41
205.965	1.45
206.345	0.91
206.725	0.59
207.106	1
207.486	1.45
207.866	2.36
208.246	0.9
208.626	0.32
209.006	2.03
209.386	1.45
209.766	0.19
210.145	1.26
210.525	1.5
210.905	1.96
211.285	0.79
211.664	1.32
212.044	-1.02
212.424	-2.14
212.803	-2.53
213.183	-2.16
213.562	-0.01
213.942	0.57
214.321	0.4
214.701	0.17
215.08	1.14
215.459	0.22
215.838	-0.12
216.218	-0.67
216.597	-0.89
216.976	-0.76
217.355	-0.81
217.734	-0.64
218.113	0.1
218.492	-0.58
218.871	-0.37
219.25	-0.26
219.629	-0.11
220.008	0.44
220.387	-0.34
220.766	1.79
221.144	1.3
221.523	2.32
221.902	2.95
222.28	2.98
222.659	2.73
223.037	3.03
223.416	3.55
223.794	3.94
224.173	4.26
224.551	3.18
224.929	4.22
225.308	4.41
225.686	4.58
226.064	4.81
226.442	4.62
226.821	4.84
227.199	5.3
227.577	5.58
227.955	6.11
228.333	6.31
228.711	6.11
229.089	5.52
229.467	5.11
229.845	5.02
230.222	5.1
230.6	5.04
230.978	5.64
231.356	5.72
231.733	5.53
232.111	5.32
232.488	5.41
232.866	5.3
233.243	5.1
233.621	5.07
233.998	5.21
234.376	5.37
234.753	5.16
235.13	5.01
235.508	5.05
235.885	5.05
236.262	5.04
236.639	4.94
237.016	4.75
237.393	4.63
237.77	4.64
238.147	4.59
238.524	4.47
238.901	4.36
239.278	4.41
239.655	4.36
240.032	4.42
240.409	4.34
240.785	4.31
241.162	4.32
241.539	4.3
241.915	4.35
242.292	4.33
242.668	4.32
243.045	4.32
243.421	4.27
243.798	4.25
244.174	4.28
244.551	4.3
244.927	4.32
245.303	4.35
245.679	4.36
246.056	4.3
246.432	4.28
246.808	4.25
247.184	4.28
247.56	4.27
247.936	4.27
248.312	4.27
248.688	4.26
249.064	4.25
249.44	4.22
249.815	4.17
250.191	4.17
250.567	4.2
250.943	4.17
251.318	4.14
251.694	4.12
252.069	4.13
252.445	4.14
252.82	4.13
253.196	4.1
253.571	4.08
253.947	4.07
254.322	4.07
254.697	4.04
255.073	4.04
255.448	4.03
255.823	4.01
256.198	4.01
256.573	3.98
256.948	3.97
257.323	3.93
257.698	3.91
258.073	3.87
258.448	3.84
258.823	3.85
259.198	3.85
259.573	3.83
259.948	3.83
260.322	3.81
260.697	3.77
261.072	3.76
261.446	3.77
261.821	3.76
262.195	3.77
262.57	3.75
262.944	3.76
263.319	3.76
263.693	3.75
264.067	3.76
264.442	3.76
264.816	3.75
265.19	3.75
265.564	3.75
265.938	3.72
266.313	3.72
266.687	3.72
267.061	3.71
267.435	3.69
267.809	3.68
268.183	3.68
268.556	3.69
268.93	3.7
269.304	3.69
269.678	3.69
270.051	3.68
270.425	3.67
270.799	3.64
271.172	3.64
271.546	3.65
271.919	3.66
272.293	3.65
272.666	3.66
273.04	3.68
273.413	3.72
273.787	3.74
274.16	3.74
274.533	3.74
274.906	3.73
275.279	3.72
275.653	3.72
276.026	3.72
276.399	3.72
276.772	3.71
277.145	3.71
277.518	3.71
277.891	3.73
278.263	3.72
278.636	3.72
279.009	3.72
279.382	3.71
279.755	3.72
280.127	3.74
280.5	3.75
280.872	3.75
281.245	3.76
281.617	3.76
281.99	3.76
282.362	3.75
282.735	3.75
283.107	3.76
283.479	3.74
283.852	3.75
284.224	3.74
284.596	3.74
284.968	3.73
285.34	3.74
285.713	3.75
286.085	3.77
286.457	3.78
286.829	3.78
287.201	3.78
287.572	3.76
287.944	3.77
288.316	3.77
288.688	3.75
289.06	3.75
289.431	3.75
289.803	3.76
290.175	3.77
290.546	3.78
290.918	3.8
291.289	3.81
291.661	3.82
292.032	3.82
292.403	3.82
292.775	3.82
293.146	3.83
293.517	3.84
293.889	3.84
294.26	3.86
294.631	3.89
295.002	3.9
295.373	3.89
295.744	3.89
296.115	3.89
296.486	3.9
296.857	3.91
297.228	3.92
297.599	3.95
297.97	3.95
298.34	3.96
298.711	3.97
299.082	3.97
299.452	3.97
299.823	3.99
300.194	4
300.564	4
300.935	4
301.305	4
301.676	4
302.046	4
302.416	4
302.787	4.01
303.157	4.02
303.527	4.02
303.897	4.02
304.267	4.04
304.637	4.03
305.008	4.03
305.378	4.03
305.748	4.04
306.117	4.02
306.487	4.03
306.857	4.03
307.227	4.04
307.597	4.04
307.967	4.04
308.336	4.04
308.706	4.03
309.076	4.01
309.445	3.99
309.815	3.97
310.184	3.95
310.554	3.94
310.923	3.96
311.293	3.95
311.662	3.94
312.031	3.93
312.401	3.92
312.77	3.92
313.139	3.92
313.508	3.92
313.877	3.91
314.246	3.91
314.616	3.9
314.985	3.91
315.353	3.9
315.722	3.89
316.091	3.9
316.46	3.9
316.829	3.9
317.198	3.91
317.567	3.89
317.935	3.89
318.304	3.88
318.672	3.87
319.041	3.88
319.41	3.86
319.778	3.86
320.147	3.85
320.515	3.84
320.883	3.82
321.252	3.82
321.62	3.79
321.988	3.79
322.357	3.78
322.725	3.78
323.093	3.78
323.461	3.78
323.829	3.79
324.197	3.79
324.565	3.78
324.933	3.79
325.301	3.79
325.669	3.8
326.037	3.78
326.405	3.78
326.772	3.78
327.14	3.78
327.508	3.78
327.875	3.77
328.243	3.75
328.61	3.74
328.978	3.73
329.346	3.73
329.713	3.73
330.08	3.74
330.448	3.72
330.815	3.71
331.182	3.71
331.55	3.71
331.917	3.69
332.284	3.66
332.651	3.66
333.018	3.67
333.385	3.67
333.752	3.67
334.119	3.66
334.486	3.65
334.853	3.65
335.22	3.65
335.587	3.64
335.954	3.64
336.32	3.64
336.687	3.64
337.054	3.64
337.42	3.65
337.787	3.65
338.153	3.65
338.52	3.64
338.886	3.64
339.253	3.64
339.619	3.65
339.986	3.64
340.352	3.64
340.718	3.63
341.084	3.62
341.451	3.62
341.817	3.62
342.183	3.63
342.549	3.62
342.915	3.62
343.281	3.62
343.647	3.63
344.013	3.63
344.379	3.64
344.745	3.64
345.11	3.63
345.476	3.65
345.842	3.65
346.208	3.65
346.573	3.65
346.939	3.64
347.304	3.67
347.67	3.66
348.035	3.66
348.401	3.65
348.766	3.66
349.132	3.66
349.497	3.66
349.862	3.67
350.228	3.66
350.593	3.67
350.958	3.67
351.323	3.68
351.688	3.68
352.053	3.68
352.418	3.68
352.783	3.68
353.148	3.67
353.513	3.68
353.878	3.68
354.243	3.68
354.608	3.68
354.972	3.69
355.337	3.69
355.702	3.7
356.066	3.71
356.431	3.71
356.795	3.7
357.16	3.69
357.524	3.7
357.889	3.71
358.253	3.71
358.618	3.7
358.982	3.69
359.346	3.7
359.71	3.69
360.075	3.7
360.439	3.69
360.803	3.68
361.167	3.68
361.531	3.69
361.895	3.69
362.259	3.68
362.623	3.69
362.987	3.69
363.351	3.7
363.714	3.69
364.078	3.69
364.442	3.69
364.806	3.69
365.169	3.7
365.533	3.7
365.896	3.7
366.26	3.7
366.623	3.71
366.987	3.7
367.35	3.69
367.714	3.7
368.077	3.7
368.44	3.7
368.803	3.69
369.167	3.69
369.53	3.69
369.893	3.68
370.256	3.68
370.619	3.67
370.982	3.67
371.345	3.67
371.708	3.68
372.071	3.68
372.434	3.68
372.797	3.68
373.159	3.68
373.522	3.69
373.885	3.69
374.247	3.7
374.61	3.7
374.973	3.7
375.335	3.7
375.698	3.7
376.06	3.7
376.423	3.7
376.785	3.69
377.147	3.7
377.51	3.7
377.872	3.7
378.234	3.7
378.596	3.69
378.958	3.7
379.321	3.7
379.683	3.71
380.045	3.7
380.407	3.71
380.769	3.71
381.13	3.7
381.492	3.7
381.854	3.7
382.216	3.71
382.578	3.7
382.939	3.7
383.301	3.7
383.663	3.7
384.024	3.7
384.386	3.71
384.747	3.71
385.109	3.71
385.47	3.71
385.832	3.7
386.193	3.71
386.554	3.71
386.916	3.71
387.277	3.7
387.638	3.71
387.999	3.71
388.36	3.71
388.721	3.7
389.082	3.7
389.443	3.7
389.804	3.7
390.165	3.7
390.526	3.7
390.887	3.7
391.248	3.7
391.609	3.7
391.969	3.7
392.33	3.7
392.691	3.7
393.051	3.7
393.412	3.71
393.772	3.71
394.133	3.7
394.493	3.7
394.854	3.7
395.214	3.69
395.574	3.69
395.935	3.69
396.295	3.69
396.655	3.69
397.015	3.69
397.376	3.7
397.736	3.7
398.096	3.7
398.456	3.7
398.816	3.71
399.176	3.71
399.535	3.71
399.895	3.72
400.255	3.72
400.615	3.72
400.975	3.72
401.334	3.72
401.694	3.72
402.054	3.73
402.413	3.72
402.773	3.72
403.132	3.72
403.492	3.73
403.851	3.72
404.211	3.73
404.57	3.73
404.929	3.73
405.288	3.73
405.648	3.74
406.007	3.74
406.366	3.74
406.725	3.74
407.084	3.74
407.443	3.74
407.802	3.74
408.161	3.74
408.52	3.74
408.879	3.74
409.238	3.74
409.596	3.75
409.955	3.75
410.314	3.76
410.673	3.76
411.031	3.77
411.39	3.77
411.748	3.78
412.107	3.78
412.465	3.8
412.824	3.82
413.182	3.84
413.54	3.87
413.899	3.89
414.257	3.93
414.615	3.96
414.974	4
415.332	4.03
415.69	4.08
416.048	4.11
416.406	4.15
416.764	4.18
417.122	4.21
417.48	4.24
417.838	4.27
418.195	4.3
418.553	4.32
418.911	4.34
419.269	4.35
419.626	4.35
419.984	4.35
420.342	4.34
420.699	4.33
421.057	4.31
421.414	4.3
421.772	4.28
422.129	4.28
422.486	4.27
422.844	4.27
423.201	4.27
423.558	4.28
423.915	4.28
424.273	4.28
424.63	4.28
424.987	4.28
425.344	4.28
425.701	4.28
426.058	4.28
426.415	4.28
426.772	4.28
427.128	4.28
427.485	4.27
427.842	4.26
428.199	4.24
428.555	4.23
428.912	4.21
429.269	4.18
429.625	4.16
429.982	4.13
430.338	4.1
430.695	4.08
431.051	4.05
431.407	4.03
431.764	4.01
432.12	4
432.476	3.99
432.832	3.98
433.189	3.98
433.545	3.99
433.901	4
434.257	4.02
434.613	4.05
434.969	4.07
435.325	4.1
435.681	4.14
436.036	4.16
436.392	4.19
436.748	4.2
437.104	4.21
437.459	4.23
437.815	4.25
438.171	4.27
438.526	4.29
438.882	4.33
439.237	4.36
439.593	4.4
439.948	4.43
440.304	4.47
440.659	4.49
441.014	4.52
441.369	4.55
441.725	4.56
442.08	4.58
442.435	4.6
442.79	4.61
443.145	4.61
443.5	4.61
443.855	4.61
444.21	4.61
444.565	4.61
444.92	4.6
445.275	4.6
445.629	4.59
445.984	4.58
446.339	4.57
446.693	4.55
447.048	4.54
447.403	4.52
447.757	4.5
448.112	4.48
448.466	4.46
448.82	4.44
449.175	4.41
449.529	4.39
449.883	4.37
450.238	4.35
450.592	4.34
450.946	4.34
451.3	4.33
451.654	4.34
452.008	4.35
452.362	4.36
452.716	4.36
453.07	4.36
453.424	4.35
453.778	4.35
454.132	4.34
454.486	4.33
454.839	4.31
455.193	4.3
455.547	4.28
455.9	4.25
456.254	4.24
456.607	4.21
456.961	4.18
457.314	4.16
457.668	4.15
458.021	4.15
458.375	4.14
458.728	4.14
459.081	4.14
459.434	4.15
459.787	4.16
460.141	4.17
460.494	4.17
460.847	4.18
461.2	4.19
461.553	4.19
461.906	4.19
462.259	4.2
462.611	4.2
462.964	4.2
463.317	4.21
463.67	4.21
464.022	4.22
464.375	4.22
464.728	4.22
465.08	4.22
465.433	4.22
465.785	4.22
466.138	4.2
466.49	4.19
466.843	4.16
467.195	4.14
467.547	4.12
467.899	4.09
468.252	4.06
468.604	4.03
468.956	4.01
469.308	3.99
469.66	3.98
470.012	3.98
470.364	3.98
470.716	3.98
471.068	3.99
471.42	4.01
471.772	4.03
472.123	4.04
472.475	4.05
472.827	4.06
473.178	4.07
473.53	4.08
473.882	4.1
474.233	4.12
474.585	4.16
474.936	4.22
475.288	4.31
475.639	4.42
475.99	4.55
476.342	4.7
476.693	4.86
477.044	5.02
477.395	5.19
477.746	5.37
478.097	5.54
478.448	5.72
478.8	5.89
479.15	6.05
479.501	6.2
479.852	6.34
480.203	6.47
480.554	6.6
480.905	6.72
481.255	6.83
481.606	6.94
481.957	7.05
482.307	7.15
482.658	7.24
483.009	7.33
483.359	7.42
483.709	7.51
484.06	7.59
484.41	7.67
484.761	7.74
485.111	7.82
485.461	7.89
485.811	7.96
486.162	8.02
486.512	8.07
486.862	8.11
487.212	8.14
487.562	8.16
487.912	8.17
488.262	8.18
488.612	8.17
488.961	8.15
489.311	8.11
489.661	8.04
490.011	7.96
490.36	7.85
490.71	7.73
491.06	7.6
491.409	7.46
491.759	7.31
492.108	7.15
492.458	6.99
492.807	6.82
493.157	6.66
493.506	6.5
493.855	6.35
494.204	6.21
494.554	6.07
494.903	5.94
495.252	5.82
495.601	5.7
495.95	5.58
496.299	5.47
496.648	5.36
496.997	5.27
497.346	5.17
497.695	5.08
498.043	4.99
498.392	4.91
498.741	4.82
499.09	4.75
499.438	4.67
499.787	4.6
500.135	4.53
500.484	4.47
500.832	4.42
501.181	4.37
501.529	4.35
501.878	4.33
502.226	4.32
502.574	4.31
502.923	4.31
503.271	4.31
503.619	4.3
503.967	4.3
504.315	4.3
504.663	4.29
505.011	4.29
505.359	4.28
505.707	4.28
506.055	4.27
506.403	4.27
506.751	4.27
507.098	4.27
507.446	4.27
507.794	4.28
508.141	4.29
508.489	4.29
508.837	4.31
509.184	4.31
509.531	4.32
509.879	4.33
510.226	4.35
510.574	4.37
510.921	4.39
511.268	4.4
511.616	4.42
511.963	4.44
512.31	4.46
512.657	4.48
513.004	4.5
513.351	4.52
513.698	4.53
514.045	4.54
514.392	4.54
514.739	4.55
515.086	4.54
515.432	4.54
515.779	4.53
516.126	4.53
516.473	4.53
516.819	4.53
517.166	4.53
517.512	4.54
517.859	4.55
518.205	4.57
518.552	4.59
518.898	4.62
519.245	4.66
519.591	4.71
519.937	4.79
520.283	4.88
520.629	4.97
520.976	5.09
521.322	5.2
521.668	5.32
522.014	5.45
522.36	5.58
522.706	5.7
523.052	5.81
523.398	5.92
523.743	6.01
524.089	6.09
524.435	6.16
524.781	6.22
525.126	6.28
525.472	6.33
525.817	6.39
526.163	6.44
526.509	6.49
526.854	6.53
527.199	6.58
527.545	6.62
527.89	6.67
528.235	6.72
528.581	6.76
528.926	6.81
529.271	6.84
529.616	6.88
529.961	6.92
530.306	6.95
530.651	6.98
530.996	6.99
531.341	7
531.686	7.01
532.031	7.01
532.376	7.01
532.721	7.02
533.065	7.02
533.41	7.03
533.755	7.02
534.099	7.01
534.444	6.98
534.788	6.95
535.133	6.91
535.477	6.86
535.822	6.81
536.166	6.75
536.51	6.68
536.855	6.61
537.199	6.53
537.543	6.45
537.887	6.38
538.231	6.32
538.576	6.27
538.92	6.21
539.264	6.16
539.608	6.1
539.951	6.04
540.295	5.97
540.639	5.91
540.983	5.84
541.327	5.78
541.671	5.7
542.014	5.64
542.358	5.58
542.701	5.53
543.045	5.5
543.389	5.47
543.732	5.45
544.075	5.43
544.419	5.41
544.762	5.39
545.105	5.38
545.449	5.38
545.792	5.37
546.135	5.36
546.478	5.34
546.821	5.32
547.165	5.29
547.508	5.25
547.851	5.2
548.194	5.14
548.536	5.08
548.879	5.01
549.222	4.94
549.565	4.87
549.908	4.79
550.25	4.72
550.593	4.66
550.936	4.61
551.278	4.57
551.621	4.54
551.963	4.5
552.306	4.48
552.648	4.45
552.991	4.44
553.333	4.42
553.675	4.41
554.017	4.41
554.36	4.4
554.702	4.41
555.044	4.41
555.386	4.42
555.728	4.44
556.07	4.45
556.412	4.47
556.754	4.48
557.096	4.48
557.438	4.48
557.78	4.48
558.121	4.48
558.463	4.49
558.805	4.49
559.147	4.49
559.488	4.48
559.83	4.49
560.171	4.49
560.513	4.49
560.854	4.49
561.196	4.49
561.537	4.49
561.878	4.5
562.22	4.5
562.561	4.5
562.902	4.5
563.243	4.5
563.584	4.51
563.925	4.51
564.266	4.51
564.607	4.52
564.948	4.52
565.289	4.52
565.63	4.52
565.971	4.53
566.312	4.54
566.653	4.54
566.993	4.54
567.334	4.55
567.675	4.55
568.015	4.56
568.356	4.56
568.696	4.56
569.037	4.56
569.377	4.56
569.718	4.57
570.058	4.57
570.398	4.57
570.739	4.57
571.079	4.57
571.419	4.58
571.759	4.57
572.099	4.57
572.439	4.57
572.779	4.57
573.119	4.57
573.459	4.57
573.799	4.57
574.139	4.57
574.479	4.57
574.819	4.58
575.158	4.57
575.498	4.58
575.838	4.58
576.177	4.57
576.517	4.57
576.856	4.58
577.196	4.58
577.535	4.58
577.875	4.58
578.214	4.58
578.553	4.58
578.893	4.58
579.232	4.58
579.571	4.58
579.91	4.57
580.25	4.57
580.589	4.57
580.928	4.56
581.267	4.56
581.606	4.56
581.945	4.55
582.283	4.56
582.622	4.56
582.961	4.56
583.3	4.56
583.639	4.56
583.977	4.56
584.316	4.56
584.654	4.56
584.993	4.56
585.332	4.56
585.67	4.56
586.008	4.56
586.347	4.56
586.685	4.56
587.024	4.56
587.362	4.56
587.7	4.56
588.038	4.57
588.376	4.57
588.715	4.57
589.053	4.57
589.391	4.57
589.729	4.58
590.067	4.58
590.404	4.58
590.742	4.58
591.08	4.59
591.418	4.59
591.756	4.6
592.093	4.6
592.431	4.6
592.769	4.6
593.106	4.61
593.444	4.61
593.781	4.61
594.119	4.61
594.456	4.61
594.793	4.61
595.131	4.62
595.468	4.62
595.805	4.62
596.143	4.62
596.48	4.62
596.817	4.63
597.154	4.63
597.491	4.63
597.828	4.64
598.165	4.64
598.502	4.65
598.839	4.65
599.176	4.65
599.512	4.65
599.849	4.66
600.186	4.66
600.523	4.67
600.859	4.67
601.196	4.67
601.532	4.67
601.869	4.67
602.205	4.67
602.542	4.68
602.878	4.68
603.215	4.68
603.551	4.68
603.887	4.68
604.223	4.68
604.56	4.69
604.896	4.69
605.232	4.69
605.568	4.69
605.904	4.69
606.24	4.69
606.576	4.69
606.912	4.69
607.248	4.69
607.583	4.69
607.919	4.69
608.255	4.69
608.591	4.7
608.926	4.7
609.262	4.7
609.597	4.69
609.933	4.69
610.268	4.7
610.604	4.69
610.939	4.69
611.275	4.69
611.61	4.7
611.945	4.7
612.281	4.69
612.616	4.69
612.951	4.69
613.286	4.69
613.621	4.7
613.956	4.7
614.291	4.69
614.626	4.69
614.961	4.7
615.296	4.7
615.631	4.7
615.966	4.71
616.3	4.71
616.635	4.71
616.97	4.71
617.304	4.7
617.639	4.71
617.973	4.71
618.308	4.71
618.642	4.7
618.977	4.7
619.311	4.71
619.646	4.7
619.98	4.71
620.314	4.71
620.648	4.71
620.983	4.72
621.317	4.73
621.651	4.73
621.985	4.74
622.319	4.74
622.653	4.74
622.987	4.75
623.321	4.75
623.655	4.76
623.988	4.76
624.322	4.76
624.656	4.77
624.99	4.77
625.323	4.78
625.657	4.77
625.99	4.77
626.324	4.77
626.657	4.77
626.991	4.78
627.324	4.77
627.658	4.77
627.991	4.77
628.324	4.77
628.657	4.77
628.991	4.77
629.324	4.78
629.657	4.78
629.99	4.78
630.323	4.79
630.656	4.79
630.989	4.8
631.322	4.8
631.655	4.8
631.987	4.8
632.32	4.81
632.653	4.81
632.986	4.82
633.318	4.82
633.651	4.82
633.984	4.83
634.316	4.83
634.649	4.83
634.981	4.83
635.313	4.83
635.646	4.83
635.978	4.84
636.31	4.84
636.643	4.84
636.975	4.84
637.307	4.84
637.639	4.85
637.971	4.85
638.303	4.84
638.635	4.84
638.967	4.84
639.299	4.85
639.631	4.85
639.963	4.87
640.295	4.88
640.626	4.88
640.958	4.89
641.29	4.89
641.621	4.9
641.953	4.9
642.285	4.9
642.616	4.92
642.948	4.91
643.279	4.92
643.61	4.93
643.942	4.94
644.273	4.94
644.604	4.95
644.936	4.94
645.267	4.95
645.598	4.94
645.929	4.95
646.26	4.95
646.591	4.95
646.922	4.95
647.253	4.95
647.584	4.96
647.915	4.96
648.245	4.96
648.576	4.97
648.907	4.97
649.238	4.98
649.568	4.98
649.899	4.98
650.229	4.99
650.56	4.99
650.89	5
651.221	5
651.551	5.01
651.882	5.02
652.212	5.02
652.542	5.03
652.872	5.03
653.203	5.03
653.533	5.03
653.863	5.03
654.193	5.03
654.523	5.03
654.853	5.03
655.183	5.04
655.513	5.04
655.843	5.04
656.172	5.04
656.502	5.05
656.832	5.06
657.162	5.05
657.491	5.05
657.821	5.05
658.15	5.05
658.48	5.06
658.809	5.06
659.139	5.07
659.468	5.07
659.798	5.07
660.127	5.08
660.456	5.09
660.785	5.1
661.115	5.1
661.444	5.11
661.773	5.11
662.102	5.11
662.431	5.11
662.76	5.12
663.089	5.13
663.418	5.14
663.747	5.15
664.076	5.16
664.404	5.15
664.733	5.16
665.062	5.16
665.39	5.17
665.719	5.17
666.048	5.18
666.376	5.18
666.705	5.19
667.033	5.2
667.362	5.21
667.69	5.21
668.018	5.22
668.347	5.23
668.675	5.24
669.003	5.25
669.331	5.26
669.659	5.26
669.987	5.26
670.315	5.25
670.643	5.26
670.971	5.26
671.299	5.27
671.627	5.27
671.955	5.27
672.283	5.27
672.61	5.27
672.938	5.28
673.266	5.29
673.593	5.29
673.921	5.28
674.249	5.29
674.576	5.29
674.904	5.29
675.231	5.3
675.558	5.3
675.886	5.3
676.213	5.31
676.54	5.31
676.867	5.3
677.195	5.3
677.522	5.31
677.849	5.31
678.176	5.31
678.503	5.31
678.83	5.32
679.157	5.32
679.484	5.32
679.81	5.33
680.137	5.33
680.464	5.33
680.791	5.34
681.117	5.34
681.444	5.34
681.771	5.34
682.097	5.35
682.424	5.34
682.75	5.34
683.077	5.34
683.403	5.35
683.729	5.35
684.056	5.35
684.382	5.36
684.708	5.36
685.034	5.37
685.36	5.39
685.686	5.39
686.012	5.4
686.339	5.4
686.664	5.4
686.99	5.4
687.316	5.41
687.642	5.41
687.968	5.42
688.294	5.42
688.619	5.43
688.945	5.43
689.271	5.44
689.596	5.45
689.922	5.45
690.247	5.46
690.573	5.46
690.898	5.46
691.224	5.47
691.549	5.48
691.874	5.48
692.2	5.49
692.525	5.5
692.85	5.51
693.175	5.52
693.5	5.54
693.825	5.54
694.15	5.54
694.475	5.54
694.8	5.55
695.125	5.56
695.45	5.56
695.775	5.58
696.099	5.59
696.424	5.59
696.749	5.59
697.073	5.6
697.398	5.61
697.723	5.63
698.047	5.64
698.372	5.65
698.696	5.64
699.02	5.65
699.345	5.66
699.669	5.67
699.993	5.68
700.318	5.69
700.642	5.69
700.966	5.7
701.29	5.71
701.614	5.71
701.938	5.73
702.262	5.75
702.586	5.74
702.91	5.73
703.234	5.74
703.557	5.75
703.881	5.77
704.205	5.77
704.529	5.78
704.852	5.79
705.176	5.79
705.499	5.79
705.823	5.8
706.146	5.8
706.47	5.8
706.793	5.8
707.117	5.83
707.44	5.83
707.763	5.84
708.086	5.85
708.409	5.84
708.733	5.84
709.056	5.84
709.379	5.84
709.702	5.85
710.025	5.86
710.348	5.87
710.671	5.88
710.993	5.86
711.316	5.86
711.639	5.87
711.962	5.88
712.284	5.89
712.607	5.89
712.93	5.89
713.252	5.91
713.575	5.92
713.897	5.92
714.22	5.91
714.542	5.9
714.864	5.89
715.187	5.89
715.509	5.88
715.831	5.89
716.153	5.9
716.475	5.92
716.798	5.92
717.12	5.92
717.442	5.93
717.764	5.93
718.085	5.92
718.407	5.94
718.729	5.96
719.051	5.95
719.373	5.97
719.695	5.98
720.016	5.98
720.338	5.98
720.659	5.98
720.981	5.99
721.302	6
721.624	6.02
721.945	6.03
722.267	6.05
722.588	6.06
722.909	6.07
723.231	6.08
723.552	6.07
723.873	6.08
724.194	6.12
724.515	6.14
724.836	6.15
725.157	6.16
725.478	6.17
725.799	6.18
726.12	6.2
726.441	6.18
726.762	6.18
727.083	6.18
727.403	6.19
727.724	6.22
728.045	6.24
728.365	6.27
728.686	6.28
729.006	6.3
729.327	6.32
729.647	6.33
729.967	6.34
730.288	6.35
730.608	6.36
730.928	6.38
731.249	6.42
731.569	6.42
731.889	6.42
732.209	6.43
732.529	6.42
732.849	6.44
733.169	6.46
733.489	6.48
733.809	6.5
734.129	6.51
734.448	6.52
734.768	6.53
735.088	6.55
735.408	6.55
735.727	6.56
736.047	6.57
736.366	6.58
736.686	6.6
737.005	6.61
737.325	6.6
737.644	6.58
737.963	6.57
738.283	6.57
738.602	6.58
738.921	6.59
739.24	6.61
739.56	6.63
739.879	6.62
740.198	6.64
740.517	6.67
740.836	6.68
741.155	6.69
741.473	6.67
741.792	6.68
742.111	6.68
742.43	6.67
742.748	6.68
743.067	6.68
743.386	6.68
743.704	6.68
744.023	6.66
744.341	6.65
744.66	6.64
744.978	6.64
745.297	6.67
745.615	6.71
745.933	6.7
746.252	6.7
746.57	6.69
746.888	6.71
747.206	6.7
747.524	6.7
747.842	6.7
748.16	6.7
748.478	6.7
748.796	6.7
749.114	6.72
749.432	6.74
749.749	6.74
750.067	6.74
750.385	6.77
750.703	6.79
751.02	6.8
751.338	6.81
751.655	6.81
751.973	6.82
752.29	6.82
752.608	6.81
752.925	6.8
753.242	6.83
753.56	6.81
753.877	6.83
754.194	6.85
754.511	6.86
754.828	6.88
755.145	6.89
755.462	6.9
755.779	6.93
756.096	6.96
756.413	6.97
756.73	6.97
757.047	6.97
757.364	6.99
757.68	7.02
757.997	7.04
758.314	7.03
758.63	7.02
758.947	7.03
759.264	7.06
759.58	7.06
759.896	7.07
760.213	7.09
760.529	7.12
760.846	7.13
761.162	7.17
761.478	7.18
761.794	7.19
762.11	7.2
762.426	7.2
762.743	7.21
763.059	7.21
763.375	7.21
763.69	7.23
764.006	7.25
764.322	7.26
764.638	7.27
764.954	7.27
765.27	7.28
765.585	7.28
765.901	7.32
766.216	7.32
766.532	7.33
766.848	7.32
767.163	7.34
767.478	7.34
767.794	7.33
768.109	7.34
768.424	7.35
768.74	7.35
769.055	7.34
769.37	7.33
769.685	7.35
770	7.4
770.315	7.42
770.63	7.43
770.945	7.46
771.26	7.46
771.575	7.48
771.89	7.51
772.205	7.5
772.52	7.52
772.834	7.54
773.149	7.56
773.464	7.55
773.778	7.56
774.093	7.54
774.407	7.56
774.722	7.59
775.036	7.6
775.351	7.61
775.665	7.63
775.979	7.67
776.293	7.66
776.608	7.69
776.922	7.72
777.236	7.71
777.55	7.69
777.864	7.73
778.178	7.74
778.492	7.77
778.806	7.77
779.12	7.76
779.434	7.78
779.747	7.8
780.061	7.77
780.375	7.77
780.689	7.78
781.002	7.78
781.316	7.8
781.629	7.81
781.943	7.84
782.256	7.92
782.57	7.93
782.883	7.91
783.196	7.94
783.51	7.94
783.823	7.94
784.136	7.98
784.449	7.99
784.762	7.98
785.075	7.98
785.388	8
785.701	7.99
786.014	8.02
786.327	8.06
786.64	8.04
786.953	8.09
787.266	8.1
787.578	8.14
787.891	8.15
788.204	8.17
788.516	8.2
788.829	8.2
789.141	8.23
789.454	8.22
789.766	8.24
790.079	8.29
790.391	8.31
790.703	8.31
791.016	8.33
791.328	8.33
791.64	8.33
791.952	8.37
792.264	8.36
792.576	8.37
792.888	8.38
793.2	8.43
793.512	8.48
793.824	8.54
794.136	8.55
794.448	8.55
794.76	8.56
795.071	8.55
795.383	8.56
795.695	8.59
796.006	8.55
796.318	8.54
796.629	8.52
796.941	8.52
797.252	8.55
797.564	8.56
797.875	8.6
798.186	8.64
798.497	8.62
798.809	8.58
799.12	8.58
799.431	8.63
799.742	8.6
800.053	8.65
800.364	8.64
800.675	8.63
800.986	8.65
801.297	8.63
801.608	8.66
801.918	8.66
802.229	8.65
802.54	8.64
802.851	8.66
803.161	8.67
803.472	8.67
803.782	8.67
804.093	8.72
804.403	8.76
804.714	8.76
805.024	8.81
805.334	8.78
805.645	8.82
805.955	8.84
806.265	8.84
806.575	8.84
806.885	8.83
807.195	8.84
807.505	8.84
807.815	8.91
808.125	8.92
808.435	8.93
808.745	8.95
809.055	8.99
809.365	9.08
809.674	9.07
809.984	9.09
810.294	9.15
810.603	9.16
810.913	9.15
811.222	9.2
811.532	9.2
811.841	9.19
812.151	9.22
812.46	9.25
812.769	9.2
813.079	9.21
813.388	9.25
813.697	9.25
814.006	9.3
814.315	9.24
814.624	9.27
814.933	9.32
815.242	9.33
815.551	9.33
815.86	9.33
816.169	9.35
816.478	9.39
816.786	9.39
817.095	9.37
817.404	9.34
817.712	9.32
818.021	9.34
818.33	9.35
818.638	9.38
818.947	9.38
819.255	9.41
819.563	9.44
819.872	9.47
820.18	9.48
820.488	9.46
820.796	9.47
821.105	9.47
821.413	9.49
821.721	9.51
822.029	9.5
822.337	9.52
822.645	9.51
822.953	9.51
823.26	9.5
823.568	9.51
823.876	9.52
824.184	9.53
824.491	9.55
824.799	9.55
825.107	9.56
825.414	9.58
825.722	9.58
826.029	9.6
826.337	9.6
826.644	9.63
826.951	9.64
827.259	9.65
827.566	9.64
827.873	9.64
828.18	9.65
828.488	9.67
828.795	9.69
829.102	9.69
829.409	9.7
829.716	9.73
830.023	9.78
830.329	9.81
830.636	9.84
830.943	9.85
831.25	9.84
831.557	9.86
831.863	9.85
832.17	9.85
832.476	9.81
832.783	9.79
833.089	9.8
833.396	9.81
833.702	9.85
834.009	9.89
834.315	9.88
834.621	9.91
834.928	9.93
835.234	9.95
835.54	9.95
835.846	9.96
836.152	9.93
836.458	9.94
836.764	9.93
837.07	9.9
837.376	9.9
837.682	9.87
837.988	9.83
838.293	9.84
838.599	9.81
838.905	9.76
839.211	9.72
839.516	9.7
839.822	9.72
840.127	9.76
840.433	9.78
840.738	9.77
841.044	9.78
841.349	9.72
841.654	9.7
841.959	9.7
842.265	9.68
842.57	9.64
842.875	9.67
843.18	9.64
843.485	9.67
843.79	9.77
844.095	9.82
844.4	9.84
844.705	9.93
845.01	10
845.315	10.04
845.619	10.01
845.924	9.91
846.229	9.9
846.533	9.82
846.838	9.82
847.142	9.77
847.447	9.7
847.751	9.76
848.056	9.81
848.36	9.87
848.664	9.89
848.969	10.01
849.273	10.11
849.577	10.12
849.881	10.28
850.185	10.34
850.489	10.39
850.794	10.5
851.097	10.7
851.401	10.84
851.705	10.8
852.009	10.99
852.313	10.97
852.617	10.98
852.92	10.89
853.224	10.94
853.528	10.85
853.831	10.94
854.135	11.02
854.438	11.06
854.742	11.24
855.045	11.28
855.349	11.41
855.652	11.62
855.955	11.74
856.259	11.64
856.562	11.68
856.865	11.75
857.168	11.76
857.471	11.96
857.774	12.13
858.077	12.16
858.38	12.43
858.683	12.43
858.986	12.55
859.289	12.57
859.592	12.62
859.894	12.65
860.197	12.62
860.5	12.7
860.802	12.71
861.105	12.8
861.407	12.55
861.71	12.43
862.012	12.55
862.315	12.57
862.617	12.51
862.919	12.74
863.222	12.71
863.524	12.65
863.826	12.75
864.128	12.73
864.43	12.62
864.732	12.65
865.034	12.57
865.336	12.67
865.638	12.63
865.94	12.78
866.242	12.79
866.544	13.02
866.846	12.99
867.147	12.82
867.449	12.83
867.751	12.7
868.052	12.62
868.354	12.58
868.655	12.56
868.957	12.39
869.258	12.38
869.56	12.49
869.861	12.36
870.162	12.3
870.463	12.57
870.765	12.47
871.066	12.6
871.367	12.6
871.668	12.59
871.969	12.66
872.27	12.72
872.571	12.73
872.872	12.67
873.173	12.74
873.473	12.73
873.774	12.92
874.075	13.08
874.376	13.08
874.676	13.01
874.977	13.12
875.277	12.96
875.578	12.9
875.878	12.85
876.179	12.73
876.479	12.83
876.78	12.99
877.08	13.01
877.38	13.1
877.68	13.18
877.981	13.24
878.281	13.22
878.581	13.25
