Data from UWBM86267_Reflection_00009.txt Node
Date: Sun May 02 14:08:12 EDT 2021
User: vgr7
Spectrometer: USB2G7710
Scans to average: 10
Trigger mode: 4
Integration Time (sec): 1.000000E-1
Electric dark correction enabled: true
Boxcar width: 20
XAxis mode: Wavelengths
Number of Pixels in Spectrum: 2048
>>>>>Begin Spectral Data<<<<<
177.721	72.57
178.105	106
178.488	125.44
178.871	207.46
179.254	152.82
179.636	107.57
180.019	95.49
180.402	88.82
180.785	64.59
181.168	60.97
181.55	54.06
181.933	49.05
182.316	50.43
182.698	44.84
183.081	45.98
183.463	46.74
183.846	38.74
184.228	40.16
184.611	41.3
184.993	40.12
185.376	42.64
185.758	39.52
186.14	37.4
186.522	34.35
186.904	31.79
187.287	32.09
187.669	34.5
188.051	31.08
188.433	29
188.815	27.47
189.197	28.55
189.579	29.91
189.961	29
190.342	26.7
190.724	24.83
191.106	26.85
191.488	26.35
191.869	25.69
192.251	24.03
192.633	24.99
193.014	24.83
193.396	21.45
193.777	23
194.159	23.76
194.54	20.14
194.922	17.55
195.303	18.11
195.684	16.34
196.065	15.5
196.447	16.79
196.828	17.18
197.209	15.72
197.59	13.65
197.971	12.62
198.352	14
198.733	14.35
199.114	14.46
199.495	16.6
199.876	14.72
200.257	13.39
200.638	13.08
201.018	12.44
201.399	14.29
201.78	15.06
202.16	15.22
202.541	16.06
202.922	13.51
203.302	13.8
203.683	16.06
204.063	16.11
204.444	15.62
204.824	14.34
205.204	12.23
205.585	13.44
205.965	15.45
206.345	14.91
206.725	14.39
207.106	13.74
207.486	13.63
207.866	13.61
208.246	12.15
208.626	11.36
209.006	11.46
209.386	9.5
209.766	8.84
210.145	9.67
210.525	11.94
210.905	13.71
211.285	12.52
211.664	12.83
212.044	12
212.424	9.99
212.803	10.65
213.183	12.45
213.562	13
213.942	12.06
214.321	9.94
214.701	8.7
215.08	8.27
215.459	8.74
215.838	7.89
216.218	7.84
216.597	7.36
216.976	7.85
217.355	5.81
217.734	6.05
218.113	5.65
218.492	5.98
218.871	5.05
219.25	4.66
219.629	5.18
220.008	6.2
220.387	6.05
220.766	8.4
221.144	6.99
221.523	6.66
221.902	7.02
222.28	6.9
222.659	7.36
223.037	6.75
223.416	7.36
223.794	7.52
224.173	7.76
224.551	7.61
224.929	8.51
225.308	8.01
225.686	8.11
226.064	7.03
226.442	6.29
226.821	7.09
227.199	7.64
227.577	7.31
227.955	7.34
228.333	7.11
228.711	6.5
229.089	5.89
229.467	5.72
229.845	6.08
230.222	6.06
230.6	5.86
230.978	5.92
231.356	6.08
231.733	5.91
232.111	5.63
232.488	5.4
232.866	5.32
233.243	5.13
233.621	5.13
233.998	4.95
234.376	4.72
234.753	4.4
235.13	4.39
235.508	4.47
235.885	4.42
236.262	4.26
236.639	4.24
237.016	4.26
237.393	4.21
237.77	4.14
238.147	4.05
238.524	4.05
238.901	3.93
239.278	3.95
239.655	4.02
240.032	3.96
240.409	3.93
240.785	3.98
241.162	3.97
241.539	4.01
241.915	4.04
242.292	4.01
242.668	3.94
243.045	3.96
243.421	3.96
243.798	3.96
244.174	4.03
244.551	4.05
244.927	4.05
245.303	4.04
245.679	4.03
246.056	4
246.432	4.01
246.808	3.99
247.184	4
247.56	4.03
247.936	4.02
248.312	4.03
248.688	4.02
249.064	4
249.44	4
249.815	4.02
250.191	4.03
250.567	4.02
250.943	3.97
251.318	3.96
251.694	3.97
252.069	3.97
252.445	3.95
252.82	3.93
253.196	3.92
253.571	3.91
253.947	3.89
254.322	3.9
254.697	3.89
255.073	3.86
255.448	3.88
255.823	3.83
256.198	3.8
256.573	3.78
256.948	3.75
257.323	3.73
257.698	3.7
258.073	3.69
258.448	3.66
258.823	3.64
259.198	3.64
259.573	3.6
259.948	3.61
260.322	3.6
260.697	3.56
261.072	3.56
261.446	3.55
261.821	3.52
262.195	3.52
262.57	3.51
262.944	3.48
263.319	3.49
263.693	3.48
264.067	3.47
264.442	3.46
264.816	3.44
265.19	3.43
265.564	3.44
265.938	3.43
266.313	3.44
266.687	3.43
267.061	3.41
267.435	3.41
267.809	3.4
268.183	3.41
268.556	3.41
268.93	3.39
269.304	3.39
269.678	3.36
270.051	3.34
270.425	3.32
270.799	3.3
271.172	3.31
271.546	3.31
271.919	3.3
272.293	3.31
272.666	3.3
273.04	3.32
273.413	3.34
273.787	3.35
274.16	3.36
274.533	3.36
274.906	3.36
275.279	3.36
275.653	3.38
276.026	3.39
276.399	3.39
276.772	3.41
277.145	3.41
277.518	3.42
277.891	3.43
278.263	3.43
278.636	3.43
279.009	3.42
279.382	3.43
279.755	3.44
280.127	3.46
280.5	3.48
280.872	3.48
281.245	3.49
281.617	3.49
281.99	3.5
282.362	3.51
282.735	3.52
283.107	3.53
283.479	3.52
283.852	3.54
284.224	3.56
284.596	3.58
284.968	3.59
285.34	3.62
285.713	3.64
286.085	3.65
286.457	3.67
286.829	3.68
287.201	3.7
287.572	3.71
287.944	3.73
288.316	3.74
288.688	3.74
289.06	3.77
289.431	3.8
289.803	3.83
290.175	3.86
290.546	3.89
290.918	3.92
291.289	3.95
291.661	3.98
292.032	4
292.403	4.03
292.775	4.06
293.146	4.08
293.517	4.13
293.889	4.16
294.26	4.2
294.631	4.25
295.002	4.3
295.373	4.35
295.744	4.38
296.115	4.42
296.486	4.47
296.857	4.53
297.228	4.56
297.599	4.6
297.97	4.65
298.34	4.69
298.711	4.74
299.082	4.79
299.452	4.85
299.823	4.89
300.194	4.96
300.564	5
300.935	5.04
301.305	5.11
301.676	5.17
302.046	5.23
302.416	5.29
302.787	5.34
303.157	5.41
303.527	5.47
303.897	5.55
304.267	5.61
304.637	5.68
305.008	5.74
305.378	5.82
305.748	5.88
306.117	5.93
306.487	6
306.857	6.09
307.227	6.17
307.597	6.24
307.967	6.32
308.336	6.4
308.706	6.44
309.076	6.49
309.445	6.56
309.815	6.61
310.184	6.65
310.554	6.71
310.923	6.77
311.293	6.83
311.662	6.88
312.031	6.93
312.401	7
312.77	7.07
313.139	7.11
313.508	7.17
313.877	7.22
314.246	7.26
314.616	7.3
314.985	7.36
315.353	7.42
315.722	7.47
316.091	7.55
316.46	7.58
316.829	7.63
317.198	7.7
317.567	7.75
317.935	7.81
318.304	7.87
318.672	7.94
319.041	7.99
319.41	8.05
319.778	8.12
320.147	8.17
320.515	8.21
320.883	8.25
321.252	8.3
321.62	8.35
321.988	8.39
322.357	8.43
322.725	8.47
323.093	8.49
323.461	8.53
323.829	8.58
324.197	8.63
324.565	8.66
324.933	8.7
325.301	8.74
325.669	8.78
326.037	8.79
326.405	8.83
326.772	8.86
327.14	8.89
327.508	8.89
327.875	8.92
328.243	8.95
328.61	8.97
328.978	8.99
329.346	9
329.713	9.03
330.08	9.05
330.448	9.06
330.815	9.07
331.182	9.08
331.55	9.09
331.917	9.11
332.284	9.11
332.651	9.13
333.018	9.15
333.385	9.16
333.752	9.18
334.119	9.21
334.486	9.22
334.853	9.22
335.22	9.25
335.587	9.28
335.954	9.29
336.32	9.3
336.687	9.3
337.054	9.31
337.42	9.34
337.787	9.35
338.153	9.37
338.52	9.37
338.886	9.36
339.253	9.36
339.619	9.37
339.986	9.38
340.352	9.38
340.718	9.39
341.084	9.38
341.451	9.38
341.817	9.39
342.183	9.4
342.549	9.4
342.915	9.39
343.281	9.39
343.647	9.4
344.013	9.4
344.379	9.41
344.745	9.41
345.11	9.4
345.476	9.4
345.842	9.4
346.208	9.4
346.573	9.39
346.939	9.38
347.304	9.39
347.67	9.39
348.035	9.39
348.401	9.37
348.766	9.36
349.132	9.35
349.497	9.34
349.862	9.33
350.228	9.31
350.593	9.29
350.958	9.28
351.323	9.27
351.688	9.26
352.053	9.24
352.418	9.21
352.783	9.17
353.148	9.14
353.513	9.12
353.878	9.1
354.243	9.07
354.608	9.04
354.972	8.99
355.337	8.95
355.702	8.93
356.066	8.9
356.431	8.87
356.795	8.83
357.16	8.78
357.524	8.76
357.889	8.73
358.253	8.7
358.618	8.66
358.982	8.62
359.346	8.59
359.71	8.56
360.075	8.53
360.439	8.49
360.803	8.46
361.167	8.42
361.531	8.39
361.895	8.35
362.259	8.31
362.623	8.26
362.987	8.21
363.351	8.17
363.714	8.13
364.078	8.08
364.442	8.03
364.806	7.98
365.169	7.94
365.533	7.89
365.896	7.84
366.26	7.81
366.623	7.75
366.987	7.7
367.35	7.64
367.714	7.6
368.077	7.55
368.44	7.49
368.803	7.43
369.167	7.37
369.53	7.31
369.893	7.25
370.256	7.19
370.619	7.12
370.982	7.06
371.345	6.99
371.708	6.93
372.071	6.87
372.434	6.81
372.797	6.75
373.159	6.68
373.522	6.63
373.885	6.58
374.247	6.52
374.61	6.45
374.973	6.38
375.335	6.33
375.698	6.26
376.06	6.2
376.423	6.14
376.785	6.09
377.147	6.04
377.51	5.98
377.872	5.93
378.234	5.88
378.596	5.83
378.958	5.77
379.321	5.71
379.683	5.67
380.045	5.61
380.407	5.56
380.769	5.51
381.13	5.46
381.492	5.41
381.854	5.37
382.216	5.33
382.578	5.28
382.939	5.24
383.301	5.2
383.663	5.16
384.024	5.11
384.386	5.08
384.747	5.04
385.109	5
385.47	4.96
385.832	4.92
386.193	4.88
386.554	4.85
386.916	4.81
387.277	4.77
387.638	4.74
387.999	4.71
388.36	4.68
388.721	4.65
389.082	4.62
389.443	4.59
389.804	4.56
390.165	4.54
390.526	4.51
390.887	4.48
391.248	4.46
391.609	4.44
391.969	4.41
392.33	4.39
392.691	4.36
393.051	4.34
393.412	4.31
393.772	4.29
394.133	4.26
394.493	4.24
394.854	4.21
395.214	4.18
395.574	4.16
395.935	4.13
396.295	4.11
396.655	4.08
397.015	4.05
397.376	4.03
397.736	4.01
398.096	3.99
398.456	3.96
398.816	3.94
399.176	3.92
399.535	3.89
399.895	3.87
400.255	3.85
400.615	3.83
400.975	3.81
401.334	3.79
401.694	3.77
402.054	3.75
402.413	3.73
402.773	3.71
403.132	3.7
403.492	3.68
403.851	3.67
404.211	3.65
404.57	3.64
404.929	3.62
405.288	3.61
405.648	3.6
406.007	3.59
406.366	3.58
406.725	3.56
407.084	3.56
407.443	3.54
407.802	3.53
408.161	3.52
408.52	3.51
408.879	3.51
409.238	3.5
409.596	3.5
409.955	3.49
410.314	3.48
410.673	3.48
411.031	3.47
411.39	3.47
411.748	3.46
412.107	3.46
412.465	3.46
412.824	3.47
413.182	3.48
413.54	3.49
413.899	3.5
414.257	3.52
414.615	3.55
414.974	3.57
415.332	3.59
415.69	3.62
416.048	3.63
416.406	3.66
416.764	3.68
417.122	3.69
417.48	3.71
417.838	3.73
418.195	3.74
418.553	3.75
418.911	3.76
419.269	3.76
419.626	3.76
419.984	3.75
420.342	3.73
420.699	3.72
421.057	3.7
421.414	3.68
421.772	3.66
422.129	3.65
422.486	3.64
422.844	3.63
423.201	3.62
423.558	3.61
423.915	3.61
424.273	3.6
424.63	3.6
424.987	3.59
425.344	3.58
425.701	3.58
426.058	3.57
426.415	3.57
426.772	3.57
427.128	3.56
427.485	3.54
427.842	3.53
428.199	3.51
428.555	3.49
428.912	3.47
429.269	3.45
429.625	3.42
429.982	3.39
430.338	3.37
430.695	3.34
431.051	3.31
431.407	3.29
431.764	3.28
432.12	3.26
432.476	3.25
432.832	3.24
433.189	3.24
433.545	3.24
433.901	3.24
434.257	3.26
434.613	3.28
434.969	3.29
435.325	3.31
435.681	3.35
436.036	3.36
436.392	3.38
436.748	3.39
437.104	3.4
437.459	3.41
437.815	3.42
438.171	3.44
438.526	3.46
438.882	3.49
439.237	3.52
439.593	3.54
439.948	3.57
440.304	3.59
440.659	3.61
441.014	3.62
441.369	3.64
441.725	3.66
442.08	3.67
442.435	3.68
442.79	3.68
443.145	3.69
443.5	3.69
443.855	3.68
444.21	3.68
444.565	3.68
444.92	3.67
445.275	3.67
445.629	3.66
445.984	3.65
446.339	3.64
446.693	3.62
447.048	3.61
447.403	3.6
447.757	3.57
448.112	3.56
448.466	3.54
448.82	3.51
449.175	3.49
449.529	3.47
449.883	3.45
450.238	3.43
450.592	3.43
450.946	3.42
451.3	3.41
451.654	3.42
452.008	3.42
452.362	3.42
452.716	3.42
453.07	3.42
453.424	3.41
453.778	3.4
454.132	3.39
454.486	3.39
454.839	3.37
455.193	3.36
455.547	3.35
455.9	3.32
456.254	3.31
456.607	3.29
456.961	3.27
457.314	3.25
457.668	3.24
458.021	3.24
458.375	3.23
458.728	3.23
459.081	3.23
459.434	3.24
459.787	3.25
460.141	3.25
460.494	3.26
460.847	3.27
461.2	3.28
461.553	3.28
461.906	3.29
462.259	3.29
462.611	3.29
462.964	3.3
463.317	3.31
463.67	3.32
464.022	3.32
464.375	3.33
464.728	3.33
465.08	3.33
465.433	3.34
465.785	3.34
466.138	3.33
466.49	3.32
466.843	3.31
467.195	3.29
467.547	3.28
467.899	3.26
468.252	3.24
468.604	3.23
468.956	3.21
469.308	3.2
469.66	3.2
470.012	3.2
470.364	3.2
470.716	3.21
471.068	3.22
471.42	3.24
471.772	3.26
472.123	3.27
472.475	3.28
472.827	3.29
473.178	3.3
473.53	3.31
473.882	3.33
474.233	3.34
474.585	3.37
474.936	3.42
475.288	3.49
475.639	3.58
475.99	3.68
476.342	3.8
476.693	3.93
477.044	4.06
477.395	4.19
477.746	4.33
478.097	4.46
478.448	4.61
478.8	4.74
479.15	4.87
479.501	4.99
479.852	5.09
480.203	5.2
480.554	5.3
480.905	5.38
481.255	5.47
481.606	5.56
481.957	5.64
482.307	5.71
482.658	5.78
483.009	5.85
483.359	5.92
483.709	5.98
484.06	6.04
484.41	6.11
484.761	6.16
485.111	6.22
485.461	6.28
485.811	6.32
486.162	6.37
486.512	6.41
486.862	6.44
487.212	6.46
487.562	6.47
487.912	6.48
488.262	6.49
488.612	6.48
488.961	6.47
489.311	6.43
489.661	6.38
490.011	6.31
490.36	6.23
490.71	6.14
491.06	6.04
491.409	5.93
491.759	5.81
492.108	5.69
492.458	5.57
492.807	5.45
493.157	5.32
493.506	5.2
493.855	5.09
494.204	4.98
494.554	4.88
494.903	4.78
495.252	4.7
495.601	4.61
495.95	4.53
496.299	4.45
496.648	4.38
496.997	4.32
497.346	4.26
497.695	4.2
498.043	4.15
498.392	4.09
498.741	4.05
499.09	4
499.438	3.96
499.787	3.92
500.135	3.89
500.484	3.86
500.832	3.84
501.181	3.83
501.529	3.84
501.878	3.85
502.226	3.87
502.574	3.9
502.923	3.93
503.271	3.96
503.619	3.98
503.967	4.02
504.315	4.05
504.663	4.08
505.011	4.11
505.359	4.14
505.707	4.18
506.055	4.22
506.403	4.26
506.751	4.31
507.098	4.35
507.446	4.4
507.794	4.45
508.141	4.5
508.489	4.56
508.837	4.63
509.184	4.69
509.531	4.76
509.879	4.82
510.226	4.89
510.574	4.97
510.921	5.06
511.268	5.14
511.616	5.23
511.963	5.32
512.31	5.41
512.657	5.5
513.004	5.59
513.351	5.68
513.698	5.76
514.045	5.84
514.392	5.91
514.739	5.98
515.086	6.04
515.432	6.11
515.779	6.17
516.126	6.24
516.473	6.31
516.819	6.39
517.166	6.48
517.512	6.57
517.859	6.68
518.205	6.79
518.552	6.92
518.898	7.06
519.245	7.21
519.591	7.4
519.937	7.63
520.283	7.88
520.629	8.17
520.976	8.47
521.322	8.78
521.668	9.11
522.014	9.43
522.36	9.76
522.706	10.09
523.052	10.4
523.398	10.69
523.743	10.96
524.089	11.21
524.435	11.44
524.781	11.66
525.126	11.88
525.472	12.09
525.817	12.3
526.163	12.51
526.509	12.71
526.854	12.91
527.199	13.1
527.545	13.3
527.89	13.51
528.235	13.71
528.581	13.91
528.926	14.09
529.271	14.27
529.616	14.44
529.961	14.6
530.306	14.76
530.651	14.9
530.996	15.03
531.341	15.15
531.686	15.26
532.031	15.36
532.376	15.48
532.721	15.6
533.065	15.75
533.41	15.9
533.755	16.03
534.099	16.15
534.444	16.26
534.788	16.35
535.133	16.43
535.477	16.5
535.822	16.56
536.166	16.61
536.51	16.63
536.855	16.62
537.199	16.6
537.543	16.58
537.887	16.58
538.231	16.6
538.576	16.62
538.92	16.63
539.264	16.65
539.608	16.65
539.951	16.64
540.295	16.64
540.639	16.62
540.983	16.6
541.327	16.58
541.671	16.54
542.014	16.52
542.358	16.51
542.701	16.53
543.045	16.59
543.389	16.67
543.732	16.76
544.075	16.86
544.419	16.97
544.762	17.09
545.105	17.23
545.449	17.37
545.792	17.51
546.135	17.66
546.478	17.79
546.821	17.9
547.165	17.99
547.508	18.06
547.851	18.1
548.194	18.13
548.536	18.13
548.879	18.13
549.222	18.11
549.565	18.1
549.908	18.09
550.25	18.1
550.593	18.14
550.936	18.21
551.278	18.31
551.621	18.45
551.963	18.59
552.306	18.75
552.648	18.93
552.991	19.12
553.333	19.34
553.675	19.58
554.017	19.84
554.36	20.12
554.702	20.42
555.044	20.75
555.386	21.11
555.728	21.49
556.07	21.85
556.412	22.22
556.754	22.54
557.096	22.84
557.438	23.14
557.78	23.44
558.121	23.75
558.463	24.06
558.805	24.38
559.147	24.7
559.488	25.03
559.83	25.35
560.171	25.68
560.513	26.01
560.854	26.34
561.196	26.66
561.537	26.98
561.878	27.3
562.22	27.62
562.561	27.93
562.902	28.25
563.243	28.58
563.584	28.9
563.925	29.22
564.266	29.55
564.607	29.87
564.948	30.2
565.289	30.52
565.63	30.84
565.971	31.16
566.312	31.47
566.653	31.79
566.993	32.11
567.334	32.42
567.675	32.72
568.015	33.03
568.356	33.32
568.696	33.61
569.037	33.89
569.377	34.17
569.718	34.44
570.058	34.71
570.398	34.98
570.739	35.25
571.079	35.5
571.419	35.76
571.759	36.01
572.099	36.26
572.439	36.51
572.779	36.75
573.119	37
573.459	37.25
573.799	37.51
574.139	37.76
574.479	38
574.819	38.25
575.158	38.5
575.498	38.75
575.838	38.98
576.177	39.22
576.517	39.45
576.856	39.69
577.196	39.92
577.535	40.15
577.875	40.38
578.214	40.61
578.553	40.84
578.893	41.08
579.232	41.32
579.571	41.57
579.91	41.81
580.25	42.06
580.589	42.3
580.928	42.55
581.267	42.8
581.606	43.04
581.945	43.29
582.283	43.54
582.622	43.79
582.961	44.05
583.3	44.31
583.639	44.56
583.977	44.81
584.316	45.04
584.654	45.27
584.993	45.51
585.332	45.74
585.67	45.97
586.008	46.18
586.347	46.41
586.685	46.64
587.024	46.85
587.362	47.06
587.7	47.26
588.038	47.47
588.376	47.71
588.715	47.92
589.053	48.15
589.391	48.36
589.729	48.58
590.067	48.78
590.404	48.99
590.742	49.2
591.08	49.4
591.418	49.59
591.756	49.78
592.093	49.96
592.431	50.12
592.769	50.27
593.106	50.42
593.444	50.56
593.781	50.71
594.119	50.85
594.456	50.99
594.793	51.13
595.131	51.27
595.468	51.42
595.805	51.57
596.143	51.73
596.48	51.88
596.817	52.03
597.154	52.19
597.491	52.35
597.828	52.51
598.165	52.66
598.502	52.81
598.839	52.95
599.176	53.09
599.512	53.21
599.849	53.34
600.186	53.45
600.523	53.57
600.859	53.69
601.196	53.81
601.532	53.93
601.869	54.04
602.205	54.14
602.542	54.25
602.878	54.35
603.215	54.46
603.551	54.56
603.887	54.66
604.223	54.77
604.56	54.86
604.896	54.95
605.232	55.04
605.568	55.12
605.904	55.21
606.24	55.29
606.576	55.38
606.912	55.46
607.248	55.54
607.583	55.61
607.919	55.68
608.255	55.75
608.591	55.83
608.926	55.91
609.262	55.98
609.597	56.04
609.933	56.1
610.268	56.17
610.604	56.24
610.939	56.3
611.275	56.37
611.61	56.42
611.945	56.48
612.281	56.54
612.616	56.59
612.951	56.64
613.286	56.72
613.621	56.79
613.956	56.86
614.291	56.91
614.626	56.97
614.961	57.03
615.296	57.09
615.631	57.15
615.966	57.2
616.3	57.26
616.635	57.3
616.97	57.35
617.304	57.4
617.639	57.46
617.973	57.5
618.308	57.55
618.642	57.61
618.977	57.67
619.311	57.72
619.646	57.78
619.98	57.84
620.314	57.9
620.648	57.94
620.983	58
621.317	58.04
621.651	58.1
621.985	58.16
622.319	58.23
622.653	58.26
622.987	58.3
623.321	58.35
623.655	58.39
623.988	58.42
624.322	58.45
624.656	58.5
624.99	58.53
625.323	58.58
625.657	58.61
625.99	58.65
626.324	58.69
626.657	58.73
626.991	58.75
627.324	58.78
627.658	58.8
627.991	58.84
628.324	58.88
628.657	58.92
628.991	58.94
629.324	58.97
629.657	59
629.99	59.03
630.323	59.08
630.656	59.11
630.989	59.15
631.322	59.19
631.655	59.24
631.987	59.26
632.32	59.29
632.653	59.32
632.986	59.35
633.318	59.39
633.651	59.41
633.984	59.44
634.316	59.47
634.649	59.5
634.981	59.55
635.313	59.58
635.646	59.61
635.978	59.63
636.31	59.66
636.643	59.69
636.975	59.72
637.307	59.75
637.639	59.79
637.971	59.81
638.303	59.82
638.635	59.85
638.967	59.86
639.299	59.88
639.631	59.9
639.963	59.93
640.295	59.97
640.626	60
640.958	60.03
641.29	60.06
641.621	60.08
641.953	60.09
642.285	60.11
642.616	60.14
642.948	60.17
643.279	60.21
643.61	60.23
643.942	60.27
644.273	60.29
644.604	60.31
644.936	60.33
645.267	60.34
645.598	60.37
645.929	60.39
646.26	60.41
646.591	60.44
646.922	60.45
647.253	60.48
647.584	60.5
647.915	60.53
648.245	60.54
648.576	60.56
648.907	60.57
649.238	60.58
649.568	60.6
649.899	60.62
650.229	60.63
650.56	60.65
650.89	60.68
651.221	60.7
651.551	60.72
651.882	60.76
652.212	60.78
652.542	60.81
652.872	60.84
653.203	60.87
653.533	60.89
653.863	60.88
654.193	60.91
654.523	60.93
654.853	60.94
655.183	60.95
655.513	60.98
655.843	61
656.172	61.02
656.502	61.02
656.832	61.03
657.162	61.06
657.491	61.07
657.821	61.08
658.15	61.11
658.48	61.11
658.809	61.14
659.139	61.15
659.468	61.17
659.798	61.18
660.127	61.2
660.456	61.23
660.785	61.24
661.115	61.28
661.444	61.3
661.773	61.32
662.102	61.34
662.431	61.35
662.76	61.37
663.089	61.39
663.418	61.4
663.747	61.42
664.076	61.44
664.404	61.45
664.733	61.46
665.062	61.48
665.39	61.48
665.719	61.5
666.048	61.51
666.376	61.53
666.705	61.56
667.033	61.57
667.362	61.6
667.69	61.6
668.018	61.6
668.347	61.63
668.675	61.68
669.003	61.69
669.331	61.7
669.659	61.71
669.987	61.73
670.315	61.75
670.643	61.75
670.971	61.75
671.299	61.76
671.627	61.78
671.955	61.8
672.283	61.8
672.61	61.82
672.938	61.83
673.266	61.85
673.593	61.88
673.921	61.86
674.249	61.88
674.576	61.88
674.904	61.86
675.231	61.87
675.558	61.89
675.886	61.91
676.213	61.93
676.54	61.94
676.867	61.96
677.195	61.96
677.522	61.97
677.849	61.99
678.176	62
678.503	61.99
678.83	62.02
679.157	62.03
679.484	62.04
679.81	62.05
680.137	62.04
680.464	62.06
680.791	62.08
681.117	62.1
681.444	62.11
681.771	62.14
682.097	62.14
682.424	62.15
682.75	62.16
683.077	62.18
683.403	62.18
683.729	62.18
684.056	62.19
684.382	62.22
684.708	62.23
685.034	62.22
685.36	62.22
685.686	62.22
686.012	62.24
686.339	62.25
686.664	62.26
686.99	62.26
687.316	62.29
687.642	62.28
687.968	62.32
688.294	62.34
688.619	62.35
688.945	62.34
689.271	62.36
689.596	62.36
689.922	62.35
690.247	62.37
690.573	62.37
690.898	62.37
691.224	62.37
691.549	62.39
691.874	62.39
692.2	62.38
692.525	62.4
692.85	62.41
693.175	62.41
693.5	62.42
693.825	62.41
694.15	62.41
694.475	62.42
694.8	62.42
695.125	62.4
695.45	62.4
695.775	62.41
696.099	62.42
696.424	62.43
696.749	62.41
697.073	62.42
697.398	62.44
697.723	62.45
698.047	62.46
698.372	62.48
698.696	62.5
699.02	62.51
699.345	62.51
699.669	62.52
699.993	62.52
700.318	62.52
700.642	62.51
700.966	62.52
701.29	62.52
701.614	62.51
701.938	62.51
702.262	62.53
702.586	62.52
702.91	62.53
703.234	62.54
703.557	62.55
703.881	62.57
704.205	62.59
704.529	62.61
704.852	62.63
705.176	62.65
705.499	62.67
705.823	62.69
706.146	62.7
706.47	62.72
706.793	62.75
707.117	62.76
707.44	62.78
707.763	62.79
708.086	62.81
708.409	62.83
708.733	62.84
709.056	62.87
709.379	62.85
709.702	62.85
710.025	62.9
710.348	62.92
710.671	62.91
710.993	62.9
711.316	62.89
711.639	62.89
711.962	62.9
712.284	62.91
712.607	62.91
712.93	62.91
713.252	62.93
713.575	62.93
713.897	62.96
714.22	62.98
714.542	62.98
714.864	62.99
715.187	62.99
715.509	63.01
715.831	63.02
716.153	63.03
716.475	63.04
716.798	63.05
717.12	63.07
717.442	63.08
717.764	63.08
718.085	63.06
718.407	63.07
718.729	63.06
719.051	63.04
719.373	63.05
719.695	63.04
720.016	63.05
720.338	63.07
720.659	63.09
720.981	63.1
721.302	63.09
721.624	63.12
721.945	63.15
722.267	63.13
722.588	63.16
722.909	63.18
723.231	63.18
723.552	63.17
723.873	63.2
724.194	63.22
724.515	63.27
724.836	63.26
725.157	63.29
725.478	63.27
725.799	63.31
726.12	63.34
726.441	63.34
726.762	63.33
727.083	63.35
727.403	63.33
727.724	63.35
728.045	63.37
728.365	63.39
728.686	63.41
729.006	63.44
729.327	63.45
729.647	63.46
729.967	63.46
730.288	63.47
730.608	63.48
730.928	63.49
731.249	63.49
731.569	63.5
731.889	63.54
732.209	63.55
732.529	63.55
732.849	63.58
733.169	63.57
733.489	63.58
733.809	63.57
734.129	63.57
734.448	63.6
734.768	63.59
735.088	63.59
735.408	63.58
735.727	63.58
736.047	63.58
736.366	63.61
736.686	63.63
737.005	63.62
737.325	63.61
737.644	63.61
737.963	63.59
738.283	63.6
738.602	63.63
738.921	63.62
739.24	63.63
739.56	63.62
739.879	63.66
740.198	63.63
740.517	63.66
740.836	63.67
741.155	63.69
741.473	63.69
741.792	63.67
742.111	63.62
742.43	63.63
742.748	63.64
743.067	63.65
743.386	63.68
743.704	63.63
744.023	63.62
744.341	63.64
744.66	63.65
744.978	63.65
745.297	63.67
745.615	63.66
745.933	63.63
746.252	63.6
746.57	63.6
746.888	63.62
747.206	63.63
747.524	63.64
747.842	63.6
748.16	63.61
748.478	63.63
748.796	63.63
749.114	63.63
749.432	63.62
749.749	63.63
750.067	63.61
750.385	63.64
750.703	63.64
751.02	63.67
751.338	63.64
751.655	63.62
751.973	63.59
752.29	63.58
752.608	63.59
752.925	63.57
753.242	63.57
753.56	63.55
753.877	63.57
754.194	63.58
754.511	63.58
754.828	63.58
755.145	63.61
755.462	63.64
755.779	63.64
756.096	63.63
756.413	63.59
756.73	63.62
757.047	63.62
757.364	63.63
757.68	63.66
757.997	63.67
758.314	63.66
758.63	63.69
758.947	63.73
759.264	63.75
759.58	63.76
759.896	63.74
760.213	63.73
760.529	63.76
760.846	63.79
761.162	63.8
761.478	63.81
761.794	63.83
762.11	63.83
762.426	63.84
762.743	63.86
763.059	63.84
763.375	63.85
763.69	63.84
764.006	63.83
764.322	63.83
764.638	63.86
764.954	63.85
765.27	63.85
765.585	63.85
765.901	63.85
766.216	63.86
766.532	63.84
766.848	63.83
767.163	63.82
767.478	63.8
767.794	63.79
768.109	63.8
768.424	63.75
768.74	63.74
769.055	63.78
769.37	63.77
769.685	63.74
770	63.78
770.315	63.79
770.63	63.75
770.945	63.72
771.26	63.74
771.575	63.73
771.89	63.7
772.205	63.72
772.52	63.72
772.834	63.76
773.149	63.75
773.464	63.66
773.778	63.65
774.093	63.67
774.407	63.67
774.722	63.69
775.036	63.68
775.351	63.67
775.665	63.67
775.979	63.69
776.293	63.69
776.608	63.7
776.922	63.72
777.236	63.72
777.55	63.71
777.864	63.8
778.178	63.81
778.492	63.83
778.806	63.82
779.12	63.86
779.434	63.94
779.747	63.92
780.061	63.96
780.375	64.01
780.689	64.04
781.002	64.03
781.316	64.06
781.629	64.09
781.943	64.05
782.256	64.05
782.57	64.08
782.883	64.06
783.196	64.04
783.51	64.05
783.823	64.09
784.136	64.02
784.449	64.04
784.762	64.02
785.075	64
785.388	63.99
785.701	63.99
786.014	64.05
786.327	64.08
786.64	64.06
786.953	64.06
787.266	64.07
787.578	64
787.891	64.04
788.204	64.07
788.516	64.11
788.829	64.14
789.141	64.11
789.454	64.12
789.766	64.15
790.079	64.14
790.391	64.16
790.703	64.13
791.016	64.12
791.328	64.08
791.64	64.12
791.952	64.11
792.264	64.06
792.576	64.03
792.888	63.94
793.2	63.95
793.512	63.93
793.824	63.96
794.136	63.98
794.448	63.94
794.76	63.97
795.071	63.99
795.383	63.99
795.695	63.96
796.006	63.95
796.318	63.92
796.629	63.87
796.941	63.9
797.252	63.86
797.564	63.86
797.875	63.86
798.186	63.81
798.497	63.79
798.809	63.72
799.12	63.73
799.431	63.73
799.742	63.69
800.053	63.68
800.364	63.71
800.675	63.69
800.986	63.66
801.297	63.65
801.608	63.62
801.918	63.63
802.229	63.58
802.54	63.53
802.851	63.56
803.161	63.54
803.472	63.54
803.782	63.51
804.093	63.52
804.403	63.51
804.714	63.48
805.024	63.45
805.334	63.42
805.645	63.44
805.955	63.42
806.265	63.4
806.575	63.41
806.885	63.41
807.195	63.42
807.505	63.4
807.815	63.4
808.125	63.45
808.435	63.53
808.745	63.52
809.055	63.57
809.365	63.6
809.674	63.61
809.984	63.6
810.294	63.65
810.603	63.63
810.913	63.7
811.222	63.69
811.532	63.74
811.841	63.7
812.151	63.65
812.46	63.69
812.769	63.73
813.079	63.76
813.388	63.75
813.697	63.72
814.006	63.63
814.315	63.66
814.624	63.66
814.933	63.66
815.242	63.7
815.551	63.7
815.86	63.67
816.169	63.63
816.478	63.63
816.786	63.59
817.095	63.61
817.404	63.6
817.712	63.58
818.021	63.62
818.33	63.57
818.638	63.61
818.947	63.64
819.255	63.61
819.563	63.62
819.872	63.67
820.18	63.68
820.488	63.73
820.796	63.73
821.105	63.74
821.413	63.76
821.721	63.78
822.029	63.79
822.337	63.81
822.645	63.83
822.953	63.82
823.26	63.81
823.568	63.83
823.876	63.83
824.184	63.84
824.491	63.86
824.799	63.87
825.107	63.87
825.414	63.84
825.722	63.84
826.029	63.85
826.337	63.86
826.644	63.87
826.951	63.85
827.259	63.87
827.566	63.86
827.873	63.87
828.18	63.86
828.488	63.87
828.795	63.87
829.102	63.86
829.409	63.87
829.716	63.85
830.023	63.85
830.329	63.86
830.636	63.85
830.943	63.9
831.25	63.88
831.557	63.9
831.863	63.91
832.17	63.88
832.476	63.87
832.783	63.84
833.089	63.79
833.396	63.77
833.702	63.73
834.009	63.75
834.315	63.67
834.621	63.66
834.928	63.65
835.234	63.61
835.54	63.59
835.846	63.59
836.152	63.54
836.458	63.54
836.764	63.5
837.07	63.45
837.376	63.42
837.682	63.36
837.988	63.43
838.293	63.43
838.599	63.35
838.905	63.35
839.211	63.38
839.516	63.38
839.822	63.35
840.127	63.39
840.433	63.41
840.738	63.43
841.044	63.47
841.349	63.48
841.654	63.55
841.959	63.55
842.265	63.64
842.57	63.66
842.875	63.68
843.18	63.65
843.485	63.73
843.79	63.74
844.095	63.58
844.4	63.7
844.705	63.76
845.01	63.66
845.315	63.69
845.619	63.59
845.924	63.48
846.229	63.53
846.533	63.44
846.838	63.61
847.142	63.42
847.447	63.49
847.751	63.53
848.056	63.54
848.36	63.55
848.664	63.62
848.969	63.67
849.273	63.67
849.577	63.67
849.881	63.68
850.185	63.81
850.489	63.82
850.794	63.78
851.097	63.96
851.401	64.03
851.705	63.84
852.009	64.01
852.313	64.1
852.617	64.1
852.92	63.9
853.224	63.83
853.528	63.72
853.831	63.79
854.135	63.69
854.438	63.92
854.742	63.81
855.045	63.91
855.349	64.04
855.652	64.21
855.955	64.19
856.259	64.3
856.562	64.59
856.865	64.4
857.168	64.48
857.471	64.46
857.774	64.52
858.077	64.67
858.38	64.8
858.683	64.69
858.986	64.67
859.289	64.48
859.592	64.64
859.894	64.54
860.197	64.62
860.5	64.73
860.802	64.62
861.105	64.65
861.407	64.63
861.71	64.51
862.012	64.67
862.315	64.79
862.617	64.79
862.919	64.71
863.222	64.65
863.524	64.59
863.826	64.56
864.128	64.75
864.43	64.68
864.732	64.78
865.034	64.61
865.336	64.72
865.638	64.55
865.94	64.79
866.242	64.8
866.544	64.88
866.846	64.7
867.147	64.75
867.449	64.83
867.751	64.57
868.052	64.54
868.354	64.39
868.655	64.1
868.957	63.98
869.258	63.92
869.56	63.8
869.861	63.8
870.162	63.66
870.463	63.75
870.765	63.8
871.066	63.77
871.367	63.72
871.668	63.72
871.969	63.69
872.27	63.69
872.571	63.58
872.872	63.55
873.173	63.64
873.473	63.51
873.774	63.47
874.075	63.53
874.376	63.44
874.676	63.34
874.977	63.32
875.277	63.27
875.578	63.22
875.878	63.23
876.179	63.18
876.479	63.02
876.78	62.92
877.08	62.58
877.38	62.73
877.68	62.66
877.981	62.88
878.281	62.57
878.581	62.43
